Data from CB1_RamanShift_1.txt Node
Date: Mon Nov 06 15:18:57 IST 2017
User: aro
Spectrometer: QEPB0276
Trigger mode: 0
Integration Time (sec): 4.000000E1
Scans to average: 3
Electric dark correction enabled: true
Nonlinearity correction enabled: false
Boxcar width: 0
XAxis mode: Raman Shifts
Number of Pixels in Spectrum: 1044
>>>>>Begin Spectral Data<<<<<
160.701	-54.79
166.742	18.21
172.777	222.21
178.805	874.54
184.826	2551.21
190.841	5540.88
196.849	9086.88
202.85	11476.21
208.845	12036.54
214.833	11658.54
220.815	11177.88
226.789	10841.54
232.758	10546.21
238.719	10226.21
244.674	9870.88
250.623	9443.21
256.565	9005.54
262.5	8588.21
268.429	8202.88
274.351	7869.21
280.267	7569.54
286.176	7313.54
292.079	7073.88
297.975	6871.54
303.865	6669.54
309.748	6530.21
315.625	6381.54
321.495	6286.88
327.359	6205.21
333.217	6135.54
339.068	6103.54
344.912	6066.88
350.751	6019.54
356.583	5995.54
362.408	5954.21
368.227	5997.21
374.04	6044.88
379.847	6187.87
385.647	6301.54
391.44	6271.21
397.228	6223.54
403.009	6236.87
408.784	6352.54
414.553	6624.54
420.315	6972.21
426.071	7064.54
431.821	6711.88
437.565	6379.21
443.302	6256.88
449.033	6196.54
454.758	6147.87
460.477	6081.21
466.189	6040.21
471.896	5989.21
477.596	5937.21
483.29	5892.54
488.978	5865.87
494.66	5812.54
500.335	5715.87
506.005	5578.21
511.668	5416.88
517.325	5263.21
522.977	5151.21
528.622	5057.88
534.261	4953.21
539.894	4899.54
545.521	4852.54
551.141	4798.88
556.756	4754.54
562.365	4705.21
567.968	4683.88
573.565	4652.21
579.155	4594.21
584.74	4570.21
590.319	4533.54
595.892	4472.21
601.459	4440.21
607.02	4414.54
612.575	4344.88
618.124	4310.21
623.667	4244.54
629.204	4214.88
634.735	4196.21
640.261	4219.88
645.781	4324.54
651.294	4342.21
656.802	4260.21
662.304	4129.88
667.8	4040.88
673.29	3973.54
678.775	3950.88
684.254	3916.54
689.726	3890.21
695.193	3832.88
700.655	3806.21
706.11	3771.21
711.56	3733.21
717.004	3715.54
722.442	3672.21
727.874	3644.54
733.301	3640.21
738.722	3615.88
744.137	3616.88
749.547	3634.88
754.951	3646.54
760.349	3604.21
765.741	3581.21
771.128	3546.54
776.509	3532.21
781.885	3523.54
787.254	3505.88
792.618	3476.54
797.977	3450.21
803.33	3400.54
808.677	3370.21
814.019	3319.88
819.355	3274.88
824.686	3236.21
830.011	3201.88
835.33	3180.54
840.644	3151.54
845.952	3119.54
851.255	3084.88
856.552	3063.54
861.844	3031.21
867.13	2990.88
872.41	2937.21
877.686	2887.54
882.955	2839.21
888.219	2796.54
893.478	2749.54
898.731	2684.54
903.979	2650.54
909.221	2605.21
914.458	2577.21
919.69	2568.21
924.916	2556.21
930.136	2549.54
935.351	2535.88
940.561	2520.21
945.766	2496.54
950.965	2478.21
956.158	2433.54
961.347	2399.54
966.529	2360.21
971.707	2321.21
976.879	2292.54
982.046	2250.88
987.208	2240.21
992.364	2233.54
997.515	2248.88
1002.66	2274.54
1007.801	2284.54
1012.936	2285.88
1018.066	2298.88
1023.19	2309.88
1028.309	2292.21
1033.423	2292.21
1038.532	2271.21
1043.636	2247.21
1048.734	2212.88
1053.827	2199.54
1058.915	2172.21
1063.998	2160.54
1069.075	2165.54
1074.147	2172.88
1079.214	2164.88
1084.276	2188.21
1089.333	2206.88
1094.385	2201.21
1099.431	2198.54
1104.472	2206.54
1109.509	2167.21
1114.54	2127.54
1119.565	2092.88
1124.586	2082.54
1129.602	2036.88
1134.613	2044.21
1139.618	2032.21
1144.619	2035.54
1149.614	2045.88
1154.604	2047.21
1159.589	2048.88
1164.57	2060.21
1169.545	2068.54
1174.515	2061.88
1179.48	2041.54
1184.44	2017.88
1189.395	2014.21
1194.345	2001.88
1199.29	1996.88
1204.23	1989.88
1209.165	1989.88
1214.095	2019.54
1219.021	2027.88
1223.941	2040.54
1228.856	2052.54
1233.766	2063.54
1238.672	2059.21
1243.572	2039.88
1248.467	2024.88
1253.358	1989.21
1258.244	1962.54
1263.124	1913.88
1268	1890.88
1272.871	1870.88
1277.737	1848.54
1282.599	1855.21
1287.455	1853.21
1292.306	1856.54
1297.153	1865.54
1301.995	1860.88
1306.832	1886.88
1311.664	1892.21
1316.491	1873.54
1321.314	1858.54
1326.132	1842.88
1330.945	1801.21
1335.753	1782.88
1340.556	1762.21
1345.354	1756.54
1350.148	1741.54
1354.937	1722.88
1359.722	1709.88
1364.501	1715.88
1369.276	1684.54
1374.046	1701.88
1378.811	1675.21
1383.572	1663.54
1388.327	1644.21
1393.079	1624.21
1397.825	1606.21
1402.567	1578.21
1407.304	1567.54
1412.036	1552.88
1416.764	1555.54
1421.487	1546.54
1426.205	1556.54
1430.919	1569.21
1435.628	1578.21
1440.333	1598.21
1445.032	1599.88
1449.727	1623.88
1454.418	1629.88
1459.104	1622.54
1463.785	1606.88
1468.462	1607.54
1473.134	1587.88
1477.802	1580.54
1482.465	1587.54
1487.123	1595.88
1491.777	1598.54
1496.426	1622.54
1501.071	1649.54
1505.711	1662.21
1510.347	1698.88
1514.978	1707.54
1519.604	1725.54
1524.226	1721.88
1528.844	1713.88
1533.457	1708.54
1538.065	1701.21
1542.669	1690.21
1547.269	1698.21
1551.864	1704.54
1556.454	1710.21
1561.041	1749.54
1565.622	1773.88
1570.199	1800.88
1574.772	1839.88
1579.34	1896.21
1583.904	1943.54
1588.464	1992.21
1593.019	2041.88
1597.569	2091.88
1602.115	2119.88
1606.657	2143.88
1611.195	2183.21
1615.728	2228.54
1620.256	2279.54
1624.78	2329.21
1629.3	2385.88
1633.816	2428.88
1638.327	2481.88
1642.834	2500.54
1647.336	2533.88
1651.834	2545.54
1656.328	2530.88
1660.817	2492.54
1665.302	2453.88
1669.783	2382.88
1674.259	2302.21
1678.732	2191.88
1683.199	2110.54
1687.663	2018.21
1692.122	1927.54
1696.577	1834.21
1701.028	1740.21
1705.474	1662.88
1709.917	1585.54
1714.355	1522.54
1718.788	1457.21
1723.218	1397.21
1727.643	1334.21
1732.064	1289.88
1736.481	1226.88
1740.893	1172.88
1745.301	1117.21
1749.705	1078.21
1754.105	1029.54
1758.501	989.54
1762.893	963.21
1767.28	933.88
1771.663	921.88
1776.042	909.88
1780.417	896.54
1784.787	896.54
1789.154	902.88
1793.516	903.21
1797.874	888.88
1802.228	873.21
1806.578	860.54
1810.924	831.88
1815.266	796.21
1819.603	782.88
1823.937	762.21
1828.266	754.88
1832.591	743.21
1836.913	736.88
1841.23	732.21
1845.543	728.88
1849.852	725.88
1854.156	732.88
1858.457	734.21
1862.754	742.54
1867.047	748.54
1871.335	755.21
1875.62	749.88
1879.9	755.21
1884.177	756.88
1888.449	752.54
1892.718	743.21
1896.982	750.88
1901.243	744.21
1905.499	746.88
1909.752	751.21
1914	752.88
1918.245	759.54
1922.485	768.54
1926.722	779.21
1930.954	784.54
1935.183	790.21
1939.408	791.54
1943.628	786.88
1947.845	775.54
1952.058	769.54
1956.267	762.21
1960.472	751.88
1964.673	731.88
1968.87	718.54
1973.063	703.54
1977.252	703.54
1981.438	700.88
1985.619	695.88
1989.797	694.54
1993.971	696.21
1998.14	706.21
2002.306	711.54
2006.469	716.88
2010.627	713.54
2014.781	725.21
2018.932	713.88
2023.078	724.21
2027.221	717.21
2031.36	714.88
2035.495	705.54
2039.627	705.21
2043.754	706.21
2047.878	710.21
2051.998	712.21
2056.114	722.54
2060.226	720.54
2064.334	736.88
2068.439	736.88
2072.54	755.21
2076.637	760.21
2080.73	766.21
2084.82	779.21
2088.906	784.88
2092.988	783.21
2097.066	776.54
2101.14	764.88
2105.211	752.21
2109.278	742.54
2113.342	731.54
2117.401	729.54
2121.457	718.88
2125.509	704.88
2129.558	706.21
2133.602	688.54
2137.643	688.54
2141.681	682.21
2145.714	676.21
2149.744	668.88
2153.77	664.54
2157.793	644.54
2161.812	631.21
2165.827	627.88
2169.838	609.54
2173.846	585.88
2177.851	578.21
2181.851	573.54
2185.848	558.88
2189.841	551.88
2193.831	542.54
2197.817	530.88
2201.799	526.88
2205.778	519.88
2209.753	504.88
2213.725	508.88
2217.693	504.21
2221.657	497.54
2225.618	498.88
2229.575	485.21
2233.529	475.88
2237.479	466.21
2241.425	453.88
2245.368	440.21
2249.307	426.54
2253.243	412.21
2257.175	404.21
2261.104	396.21
2265.029	386.21
2268.95	380.88
2272.868	363.21
2276.783	356.54
2280.694	349.21
2284.601	342.54
2288.505	336.88
2292.405	318.54
2296.302	312.21
2300.195	305.54
2304.085	295.88
2307.971	288.54
2311.854	277.21
2315.734	266.54
2319.609	252.88
2323.482	247.88
2327.351	243.21
2331.216	248.54
2335.078	244.54
2338.937	236.54
2342.792	224.54
2346.643	224.88
2350.492	218.54
2354.336	216.54
2358.178	218.21
2362.015	214.88
2365.85	216.21
2369.681	214.21
2373.508	214.88
2377.333	214.54
2381.153	206.88
2384.971	205.21
2388.785	200.88
2392.595	193.88
2396.402	193.21
2400.206	185.54
2404.007	181.54
2407.804	185.21
2411.597	187.88
2415.388	179.54
2419.174	176.21
2422.958	172.54
2426.738	170.21
2430.515	168.21
2434.289	164.21
2438.059	167.88
2441.825	163.54
2445.589	155.21
2449.349	153.21
2453.106	149.88
2456.859	148.21
2460.61	138.88
2464.356	133.88
2468.1	136.88
2471.84	132.21
2475.577	137.21
2479.311	140.54
2483.041	136.54
2486.768	135.54
2490.492	132.54
2494.213	131.21
2497.93	132.54
2501.644	126.54
2505.355	132.88
2509.062	129.21
2512.766	131.88
2516.467	135.21
2520.165	125.21
2523.859	121.54
2527.551	121.54
2531.239	125.88
2534.923	123.21
2538.605	120.21
2542.283	118.21
2545.958	118.21
2549.63	113.88
2553.299	115.21
2556.964	112.88
2560.626	113.21
2564.285	108.21
2567.941	110.54
2571.594	99.88
2575.243	98.88
2578.89	95.88
2582.533	97.88
2586.173	88.54
2589.809	96.54
2593.443	84.21
2597.073	80.21
2600.701	79.54
2604.325	76.21
2607.946	78.54
2611.564	73.21
2615.178	75.21
2618.79	70.21
2622.398	67.21
2626.004	66.88
2629.606	67.54
2633.205	62.54
2636.801	64.54
2640.394	55.54
2643.983	60.88
2647.57	57.54
2651.153	48.88
2654.734	52.88
2658.311	47.54
2661.885	46.21
2665.456	48.88
2669.025	41.54
2672.589	44.88
2676.151	47.21
2679.71	44.88
2683.266	40.88
2686.819	35.21
2690.368	35.21
2693.915	33.54
2697.458	35.54
2700.999	34.21
2704.536	32.88
2708.071	29.21
2711.602	30.54
2715.13	35.88
2718.656	31.54
2722.178	36.54
2725.697	31.54
2729.214	40.54
2732.727	40.54
2736.237	44.88
2739.744	55.54
2743.249	51.54
2746.75	54.21
2750.248	57.54
2753.743	54.21
2757.236	56.21
2760.725	56.88
2764.211	45.88
2767.695	53.54
2771.175	50.54
2774.652	54.54
2778.127	55.88
2781.598	51.88
2785.067	56.21
2788.532	59.21
2791.995	67.21
2795.455	70.54
2798.911	71.21
2802.365	74.21
2805.816	82.88
2809.264	86.88
2812.709	91.88
2816.151	93.88
2819.59	97.88
2823.026	102.21
2826.46	106.88
2829.89	116.54
2833.318	116.21
2836.742	119.88
2840.164	131.88
2843.583	133.54
2846.999	139.54
2850.412	147.54
2853.822	154.54
2857.229	163.54
2860.634	167.88
2864.035	177.21
2867.434	186.21
2870.83	190.21
2874.223	193.54
2877.613	203.54
2881	211.21
2884.385	214.21
2887.766	220.54
2891.145	218.54
2894.521	229.88
2897.894	236.88
2901.264	246.54
2904.631	252.21
2907.996	264.54
2911.358	271.54
2914.717	278.21
2918.073	287.21
2921.426	296.88
2924.777	316.21
2928.124	326.54
2931.469	346.21
2934.811	346.54
2938.15	369.21
2941.487	379.21
2944.821	400.54
2948.152	410.21
2951.48	419.88
2954.805	432.21
2958.128	443.54
2961.447	464.21
2964.765	489.21
2968.079	495.54
2971.39	521.54
2974.699	542.21
2978.005	557.54
2981.308	598.21
2984.609	606.54
2987.907	645.21
2991.202	679.21
2994.494	689.54
2997.784	727.54
3001.07	755.88
3004.355	777.21
3007.636	802.54
3010.915	821.54
3014.191	848.21
3017.464	865.54
3020.734	889.54
3024.002	902.88
3027.267	928.54
3030.53	954.88
3033.789	980.21
3037.046	1004.88
3040.301	1028.21
3043.552	1071.54
3046.801	1105.21
3050.048	1141.54
3053.291	1193.21
3056.532	1243.21
3059.771	1278.88
3063.006	1335.54
3066.239	1374.88
3069.469	1429.88
3072.697	1484.88
3075.922	1533.88
3079.144	1565.21
3082.364	1630.88
3085.581	1664.54
3088.795	1711.88
3092.007	1769.54
3095.216	1806.88
3098.423	1871.88
3101.627	1904.88
3104.828	1949.21
3108.026	2019.54
3111.222	2053.88
3114.416	2128.88
3117.607	2183.21
3120.795	2226.21
3123.98	2304.21
3127.163	2354.88
3130.344	2421.21
3133.521	2475.54
3136.696	2526.88
3139.869	2578.88
3143.039	2634.54
3146.206	2676.54
3149.371	2709.88
3152.533	2729.88
3155.693	2755.21
3158.85	2768.54
3162.005	2783.88
3165.157	2803.88
3168.306	2821.88
3171.453	2828.88
3174.597	2831.21
3177.739	2854.88
3180.878	2857.88
3184.014	2873.21
3187.149	2880.21
3190.28	2889.54
3193.409	2892.88
3196.536	2916.54
3199.659	2925.54
3202.781	2928.88
3205.9	2928.54
3209.016	2925.88
3212.13	2923.21
3215.241	2905.54
3218.35	2910.21
3221.456	2877.21
3224.56	2854.54
3227.661	2824.88
3230.76	2819.54
3233.856	2797.21
3236.95	2768.54
3240.041	2752.21
3243.13	2752.21
3246.216	2750.54
3249.3	2736.21
3252.382	2725.88
3255.46	2711.88
3258.537	2703.54
3261.611	2715.54
3264.682	2701.88
3267.751	2696.54
3270.818	2690.88
3273.882	2663.88
3276.943	2663.21
3280.002	2622.21
3283.059	2590.88
3286.113	2554.21
3289.165	2523.88
3292.214	2489.88
3295.261	2450.88
3298.306	2387.21
3301.348	2358.88
3304.387	2309.54
3307.425	2286.88
3310.459	2266.21
3313.492	2219.88
3316.521	2203.88
3319.549	2186.54
3322.574	2171.21
3325.597	2152.21
3328.617	2130.54
3331.635	2128.21
3334.65	2122.21
3337.663	2109.21
3340.674	2108.88
3343.682	2107.21
3346.688	2076.54
3349.691	2083.88
3352.692	2068.88
3355.691	2061.54
3358.687	2032.54
3361.681	2005.54
3364.673	1976.21
3367.662	1954.54
3370.649	1932.88
3373.633	1911.21
3376.615	1886.88
3379.595	1869.88
3382.572	1842.54
3385.547	1822.21
3388.52	1803.21
3391.49	1776.21
3394.458	1757.54
3397.424	1742.21
3400.387	1713.21
3403.348	1696.21
3406.307	1675.54
3409.263	1669.88
3412.217	1659.88
3415.168	1634.54
3418.118	1619.21
3421.065	1601.21
3424.009	1592.54
3426.951	1569.21
3429.891	1535.54
3432.829	1520.21
3435.764	1482.54
3438.697	1445.88
3441.628	1413.21
3444.557	1381.54
3447.483	1338.88
3450.407	1309.54
3453.328	1274.88
3456.247	1242.54
3459.164	1204.21
3462.079	1169.21
3464.991	1139.54
3467.902	1107.54
3470.809	1073.88
3473.715	1047.88
3476.618	1022.54
3479.519	985.21
3482.418	964.54
3485.315	929.54
3488.209	910.21
3491.101	890.54
3493.99	869.88
3496.878	846.88
3499.763	816.54
3502.646	798.54
3505.527	764.54
3508.405	731.21
3511.281	706.54
3514.155	677.88
3517.027	653.54
3519.897	620.54
3522.764	583.54
3525.629	553.54
3528.492	527.54
3531.352	505.21
3534.211	475.21
3537.067	438.54
3539.921	425.88
3542.773	400.21
3545.622	377.54
3548.469	351.54
3551.315	329.88
3554.157	310.54
3556.998	296.54
3559.837	281.54
3562.673	263.54
3565.507	242.88
3568.339	228.88
3571.169	216.21
3573.996	198.54
3576.822	180.54
3579.645	164.54
3582.466	159.88
3585.285	138.21
3588.101	123.21
3590.916	114.88
3593.728	92.54
3596.538	79.54
3599.346	69.21
3602.152	53.88
3604.956	50.21
3607.757	33.21
3610.556	20.88
3613.354	10.88
3616.149	6.21
3618.942	-8.79
3621.732	-13.46
3624.521	-23.79
3627.307	-31.79
3630.092	-43.46
3632.874	-44.79
3635.654	-57.12
3638.432	-63.12
3641.208	-70.46
3643.982	-73.46
3646.753	-79.79
3649.523	-89.12
3652.29	-95.79
3655.055	-103.12
3657.818	-114.46
3660.579	-113.79
3663.338	-130.46
3666.095	-129.79
3668.849	-140.46
3671.602	-141.79
3674.352	-152.46
3677.101	-149.46
3679.847	-154.79
3682.591	-163.12
3685.333	-169.12
3688.073	-170.79
3690.811	-179.12
3693.547	-180.46
3696.281	-180.79
3699.013	-185.79
3701.742	-189.79
3704.47	-197.46
3707.195	-193.79
3709.919	-198.12
3712.64	-202.46
3715.359	-202.79
3718.076	-206.12
3720.792	-210.46
3723.505	-213.12
3726.216	-211.12
3728.925	-214.79
3731.632	-217.79
3734.336	-219.46
3737.039	-223.46
3739.74	-219.12
3742.439	-230.46
3745.136	-228.79
3747.83	-224.12
3750.523	-228.79
3753.213	-239.79
3755.902	-231.12
3758.589	-240.46
3761.273	-232.46
3763.956	-230.46
3766.636	-238.79
3769.315	-233.79
3771.991	-239.12
3774.665	-237.46
3777.338	-238.79
3780.008	-241.79
3782.677	-242.79
3785.343	-241.12
3788.007	-245.12
3790.67	-241.46
3793.33	-243.46
3795.989	-242.12
3798.645	-245.79
3801.299	-245.79
3803.952	-247.46
3806.602	-247.79
3809.251	-247.46
3811.897	-249.12
3814.542	-250.46
3817.184	-246.79
3819.825	-245.46
3822.463	-247.79
3825.1	-251.79
3827.735	-249.46
3830.367	-251.79
3832.998	-252.12
3835.627	-252.12
3838.253	-248.12
3840.878	-253.46
3843.501	-249.12
3846.122	-253.12
3848.741	-253.12
3851.358	-256.46
3853.973	-254.79
3856.586	-256.12
3859.197	-255.46
3861.806	-254.12
3864.414	-253.79
3867.019	-254.46
3869.622	-251.79
3872.224	-244.46
3874.823	-238.12
3877.421	-226.79
3880.016	-207.79
3882.61	-194.79
3885.202	-192.12
3887.792	-209.79
3890.38	-226.46
3892.966	-246.79
3895.55	-254.12
3898.132	-257.12
3900.713	-255.79
3903.291	-261.46
3905.868	-262.79
3908.442	-261.12
3911.015	-260.12
3913.586	-263.79
3916.155	-264.12
3918.722	-263.12
3921.287	-265.46
3923.85	-262.79
3926.411	-262.79
3928.971	-264.46
3931.528	-263.46
3934.084	-266.12
3936.638	-262.12
3939.19	-264.46
3941.74	-266.12
3944.288	-263.79
3946.834	-262.79
3949.378	-262.12
3951.921	-265.46
3954.462	-263.79
3957	-259.79
3959.537	-258.79
3962.072	-262.79
3964.606	-264.79
3967.137	-261.46
3969.667	-262.46
3972.194	-258.46
3974.72	-263.79
3977.244	-262.79
3979.766	-260.79
3982.286	-260.12
3984.805	-256.46
3987.321	-256.12
3989.836	-258.46
3992.349	-256.12
3994.86	-257.79
3997.369	-261.79
3999.877	-257.46
4002.382	-258.46
4004.886	-259.46
4007.388	-264.79
4009.888	-257.12
4012.386	-256.46
4014.883	-258.79
4017.377	-263.12
4019.87	-258.46
4022.361	-263.46
4024.85	-263.12
4027.338	-259.79
4029.823	-257.46
4032.307	-261.46
4034.789	-260.79
4037.269	-259.12
4039.747	-264.46
4042.224	-261.12
4044.699	-262.46
4047.172	-260.46
4049.643	-262.12
4052.112	-265.12
4054.58	-263.79
4057.046	-261.12
4059.51	-261.79
4061.972	-261.12
4064.432	-265.12
4066.891	-261.12
4069.348	-263.12
4071.803	-261.79
4074.256	-261.46
4076.708	-260.46
4079.158	-258.46
4081.606	-259.79
4084.052	-260.12
4086.497	-260.46
4088.939	-259.12
4091.38	-260.12
4093.819	-260.79
4096.257	-266.12
4098.693	-263.79
4101.127	-264.46
4103.559	-261.79
4105.989	-147.46
4108.418	-138.46
4110.845	-132.46
4113.27	-118.79
4115.694	-109.12
4118.115	-92.46
4120.535	-255.12
4122.954	-260.46
4125.37	-255.79
4127.785	-260.46
4130.198	-264.46
4132.609	-385.46
4135.019	-263.79
4137.427	-265.12
4139.833	-264.46
4142.237	-266.79
