Data from CB1_RamanShift_3.txt Node
Date: Mon Nov 06 15:26:57 IST 2017
User: aro
Spectrometer: QEPB0276
Trigger mode: 0
Integration Time (sec): 4.000000E1
Scans to average: 3
Electric dark correction enabled: true
Nonlinearity correction enabled: false
Boxcar width: 0
XAxis mode: Raman Shifts
Number of Pixels in Spectrum: 1044
>>>>>Begin Spectral Data<<<<<
160.701	-58.25
166.742	12.42
172.777	217.75
178.805	876.08
184.826	2506.42
190.841	5425.08
196.849	8832.08
202.85	11109.42
208.845	11675.42
214.833	11291.08
220.815	10848.75
226.789	10537.08
232.758	10292.75
238.719	9955.75
244.674	9617.08
250.623	9231.42
256.565	8819.75
262.5	8418.08
268.429	8074.75
274.351	7762.75
280.267	7487.75
286.176	7232.75
292.079	7009.42
297.975	6826.75
303.865	6643.75
309.748	6477.75
315.625	6359.42
321.495	6265.75
327.359	6181.75
333.217	6116.75
339.068	6109.75
344.912	6077.42
350.751	6018.75
356.583	6011.08
362.408	5969.08
368.227	6002.08
374.04	6055.08
379.847	6172.75
385.647	6303.75
391.44	6272.42
397.228	6196.08
403.009	6213.42
408.784	6352.42
414.553	6603.08
420.315	6965.08
426.071	7023.08
431.821	6687.42
437.565	6359.75
443.302	6254.08
449.033	6193.75
454.758	6150.42
460.477	6111.42
466.189	6060.42
471.896	6004.42
477.596	5945.42
483.29	5926.08
488.978	5893.75
494.66	5812.75
500.335	5731.75
506.005	5608.42
511.668	5439.08
517.325	5290.08
522.977	5192.08
528.622	5077.42
534.261	5012.08
539.894	4939.08
545.521	4887.75
551.141	4841.75
556.756	4797.08
562.365	4780.08
567.968	4750.42
573.565	4704.75
579.155	4656.75
584.74	4634.75
590.319	4584.08
595.892	4559.42
601.459	4526.42
607.02	4475.08
612.575	4426.75
618.124	4367.75
623.667	4335.42
629.204	4292.08
634.735	4268.75
640.261	4300.75
645.781	4382.08
651.294	4427.08
656.802	4330.08
662.304	4193.08
667.8	4125.75
673.29	4061.75
678.775	4032.75
684.254	4003.75
689.726	3976.42
695.193	3926.75
700.655	3912.75
706.11	3860.75
711.56	3817.75
717.004	3798.75
722.442	3763.42
727.874	3740.08
733.301	3736.75
738.722	3738.08
744.137	3714.42
749.547	3724.42
754.951	3732.08
760.349	3722.75
765.741	3678.08
771.128	3638.42
776.509	3627.42
781.885	3640.42
787.254	3620.75
792.618	3595.08
797.977	3547.42
803.33	3524.08
808.677	3469.08
814.019	3429.42
819.355	3395.75
824.686	3348.75
830.011	3317.42
835.33	3286.75
840.644	3264.75
845.952	3240.42
851.255	3219.42
856.552	3174.08
861.844	3142.08
867.13	3098.42
872.41	3078.42
877.686	3017.08
882.955	2962.08
888.219	2926.08
893.478	2865.75
898.731	2829.08
903.979	2776.75
909.221	2748.08
914.458	2720.42
919.69	2698.75
924.916	2677.75
930.136	2674.75
935.351	2658.42
940.561	2647.42
945.766	2639.75
950.965	2624.08
956.158	2578.75
961.347	2540.42
966.529	2495.75
971.707	2450.75
976.879	2420.08
982.046	2390.75
987.208	2379.08
992.364	2364.75
997.515	2389.75
1002.66	2397.75
1007.801	2416.75
1012.936	2421.75
1018.066	2440.08
1023.19	2455.08
1028.309	2439.75
1033.423	2428.75
1038.532	2415.75
1043.636	2385.75
1048.734	2367.75
1053.827	2346.42
1058.915	2309.08
1063.998	2312.42
1069.075	2293.42
1074.147	2295.08
1079.214	2322.42
1084.276	2324.08
1089.333	2342.75
1094.385	2335.42
1099.431	2342.08
1104.472	2326.08
1109.509	2317.75
1114.54	2271.08
1119.565	2249.75
1124.586	2206.08
1129.602	2185.42
1134.613	2171.75
1139.618	2170.75
1144.619	2169.42
1149.614	2179.08
1154.604	2186.08
1159.589	2199.42
1164.57	2203.75
1169.545	2208.75
1174.515	2193.75
1179.48	2185.08
1184.44	2162.75
1189.395	2159.42
1194.345	2145.08
1199.29	2122.75
1204.23	2119.42
1209.165	2146.42
1214.095	2162.08
1219.021	2179.08
1223.941	2189.42
1228.856	2203.75
1233.766	2197.08
1238.672	2198.42
1243.572	2176.42
1248.467	2172.75
1253.358	2138.42
1258.244	2100.08
1263.124	2055.08
1268	2022.42
1272.871	2000.42
1277.737	1991.75
1282.599	1972.42
1287.455	1979.08
1292.306	1982.42
1297.153	1999.42
1301.995	2009.42
1306.832	2026.75
1311.664	2031.75
1316.491	2014.75
1321.314	1997.08
1326.132	1984.75
1330.945	1955.08
1335.753	1922.75
1340.556	1898.42
1345.354	1890.08
1350.148	1869.08
1354.937	1854.75
1359.722	1830.42
1364.501	1830.75
1369.276	1814.08
1374.046	1814.08
1378.811	1799.75
1383.572	1777.42
1388.327	1772.42
1393.079	1768.75
1397.825	1744.42
1402.567	1707.08
1407.304	1698.42
1412.036	1688.75
1416.764	1673.08
1421.487	1687.08
1426.205	1689.75
1430.919	1698.08
1435.628	1717.75
1440.333	1739.08
1445.032	1751.42
1449.727	1748.75
1454.418	1756.75
1459.104	1763.42
1463.785	1742.08
1468.462	1726.75
1473.134	1730.08
1477.802	1703.42
1482.465	1712.75
1487.123	1705.42
1491.777	1714.75
1496.426	1724.75
1501.071	1761.42
1505.711	1783.08
1510.347	1790.75
1514.978	1817.42
1519.604	1824.08
1524.226	1810.42
1528.844	1811.42
1533.457	1804.42
1538.065	1805.75
1542.669	1787.75
1547.269	1791.08
1551.864	1797.75
1556.454	1813.75
1561.041	1836.42
1565.622	1865.75
1570.199	1895.75
1574.772	1939.08
1579.34	2000.42
1583.904	2032.08
1588.464	2081.08
1593.019	2119.42
1597.569	2161.75
1602.115	2178.42
1606.657	2217.08
1611.195	2249.42
1615.728	2298.08
1620.256	2329.08
1624.78	2382.08
1629.3	2433.42
1633.816	2475.42
1638.327	2527.08
1642.834	2543.08
1647.336	2579.08
1651.834	2576.75
1656.328	2576.08
1660.817	2534.75
1665.302	2493.75
1669.783	2415.42
1674.259	2335.42
1678.732	2248.08
1683.199	2153.42
1687.663	2061.75
1692.122	1976.42
1696.577	1887.42
1701.028	1791.42
1705.474	1718.08
1709.917	1638.08
1714.355	1590.42
1718.788	1528.08
1723.218	1479.08
1727.643	1419.75
1732.064	1370.75
1736.481	1319.75
1740.893	1262.75
1745.301	1208.75
1749.705	1142.42
1754.105	1104.08
1758.501	1075.42
1762.893	1045.75
1767.28	1014.75
1771.663	1006.75
1776.042	1000.08
1780.417	994.08
1784.787	994.75
1789.154	991.08
1793.516	987.08
1797.874	973.75
1802.228	954.42
1806.578	925.42
1810.924	905.75
1815.266	882.75
1819.603	860.75
1823.937	835.75
1828.266	840.42
1832.591	824.08
1836.913	828.42
1841.23	822.08
1845.543	813.75
1849.852	824.42
1854.156	833.08
1858.457	825.08
1862.754	834.08
1867.047	840.42
1871.335	839.08
1875.62	839.08
1879.9	843.75
1884.177	843.75
1888.449	846.75
1892.718	833.75
1896.982	828.08
1901.243	823.42
1905.499	820.42
1909.752	828.75
1914	827.08
1918.245	836.08
1922.485	845.75
1926.722	851.08
1930.954	849.42
1935.183	852.08
1939.408	854.42
1943.628	860.42
1947.845	844.42
1952.058	838.08
1956.267	822.75
1960.472	811.75
1964.673	797.42
1968.87	776.75
1973.063	776.75
1977.252	753.08
1981.438	763.42
1985.619	751.42
1989.797	756.42
1993.971	766.42
1998.14	762.42
2002.306	776.08
2006.469	772.75
2010.627	776.08
2014.781	772.42
2018.932	781.75
2023.078	773.08
2027.221	768.75
2031.36	778.08
2035.495	764.42
2039.627	759.75
2043.754	763.75
2047.878	755.08
2051.998	762.75
2056.114	765.75
2060.226	781.08
2064.334	778.75
2068.439	786.42
2072.54	796.42
2076.637	811.08
2080.73	810.75
2084.82	815.42
2088.906	829.75
2092.988	821.42
2097.066	811.42
2101.14	802.08
2105.211	795.08
2109.278	781.42
2113.342	776.75
2117.401	760.75
2121.457	762.42
2125.509	748.08
2129.558	740.75
2133.602	729.08
2137.643	722.75
2141.681	716.42
2145.714	718.42
2149.744	705.42
2153.77	698.42
2157.793	690.75
2161.812	675.42
2165.827	666.75
2169.838	654.08
2173.846	629.75
2177.851	616.42
2181.851	610.42
2185.848	597.08
2189.841	588.42
2193.831	575.75
2197.817	573.08
2201.799	560.75
2205.778	558.08
2209.753	555.08
2213.725	545.42
2217.693	548.42
2221.657	534.75
2225.618	534.75
2229.575	531.75
2233.529	515.08
2237.479	503.75
2241.425	498.08
2245.368	484.08
2249.307	469.42
2253.243	454.75
2257.175	438.08
2261.104	439.75
2265.029	420.08
2268.95	417.42
2272.868	413.08
2276.783	396.42
2280.694	389.42
2284.601	372.08
2288.505	373.75
2292.405	359.08
2296.302	349.75
2300.195	340.75
2304.085	331.75
2307.971	333.08
2311.854	316.42
2315.734	301.42
2319.609	298.08
2323.482	288.75
2327.351	275.42
2331.216	285.75
2335.078	278.75
2338.937	274.08
2342.792	260.42
2346.643	258.42
2350.492	259.08
2354.336	253.75
2358.178	255.42
2362.015	256.75
2365.85	255.08
2369.681	255.08
2373.508	254.42
2377.333	251.08
2381.153	247.08
2384.971	246.42
2388.785	240.42
2392.595	234.08
2396.402	233.08
2400.206	232.42
2404.007	223.08
2407.804	228.42
2411.597	221.75
2415.388	223.42
2419.174	223.75
2422.958	220.08
2426.738	218.42
2430.515	212.08
2434.289	205.75
2438.059	203.75
2441.825	204.75
2445.589	200.08
2449.349	195.75
2453.106	191.08
2456.859	191.42
2460.61	177.42
2464.356	173.08
2468.1	175.75
2471.84	169.08
2475.577	172.42
2479.311	180.42
2483.041	171.75
2486.768	174.08
2490.492	169.42
2494.213	168.42
2497.93	171.08
2501.644	168.75
2505.355	170.42
2509.062	165.75
2512.766	163.75
2516.467	167.08
2520.165	161.42
2523.859	161.75
2527.551	159.08
2531.239	157.75
2534.923	154.08
2538.605	161.08
2542.283	153.42
2545.958	147.42
2549.63	151.75
2553.299	149.08
2556.964	145.75
2560.626	147.75
2564.285	141.42
2567.941	138.42
2571.594	139.75
2575.243	134.42
2578.89	131.08
2582.533	123.42
2586.173	121.75
2589.809	118.08
2593.443	112.42
2597.073	115.42
2600.701	111.08
2604.325	102.08
2607.946	110.42
2611.564	102.75
2615.178	98.75
2618.79	99.08
2622.398	96.75
2626.004	99.75
2629.606	93.08
2633.205	89.08
2636.801	89.42
2640.394	83.08
2643.983	88.08
2647.57	80.75
2651.153	80.75
2654.734	79.42
2658.311	77.42
2661.885	75.42
2665.456	80.42
2669.025	74.75
2672.589	74.08
2676.151	71.75
2679.71	66.42
2683.266	65.42
2686.819	64.42
2690.368	66.75
2693.915	62.75
2697.458	55.75
2700.999	55.75
2704.536	58.42
2708.071	53.42
2711.602	54.75
2715.13	58.75
2718.656	56.42
2722.178	55.08
2725.697	52.42
2729.214	67.42
2732.727	65.75
2736.237	66.08
2739.744	71.42
2743.249	75.75
2746.75	77.42
2750.248	78.75
2753.743	76.75
2757.236	66.08
2760.725	75.42
2764.211	64.42
2767.695	70.75
2771.175	65.08
2774.652	68.08
2778.127	62.08
2781.598	72.08
2785.067	76.42
2788.532	79.75
2791.995	80.42
2795.455	87.75
2798.911	93.42
2802.365	92.42
2805.816	99.75
2809.264	106.42
2812.709	114.08
2816.151	105.75
2819.59	114.42
2823.026	119.08
2826.46	124.42
2829.89	126.42
2833.318	128.75
2836.742	135.08
2840.164	142.08
2843.583	150.75
2846.999	152.42
2850.412	157.75
2853.822	170.42
2857.229	168.42
2860.634	175.08
2864.035	181.75
2867.434	189.42
2870.83	202.42
2874.223	204.75
2877.613	210.75
2881	215.75
2884.385	217.08
2887.766	220.42
2891.145	231.75
2894.521	233.42
2897.894	244.42
2901.264	254.08
2904.631	249.75
2907.996	267.42
2911.358	272.42
2914.717	283.75
2918.073	290.08
2921.426	300.08
2924.777	313.42
2928.124	324.42
2931.469	343.75
2934.811	354.75
2938.15	370.75
2941.487	378.42
2944.821	391.08
2948.152	398.75
2951.48	406.42
2954.805	423.08
2958.128	441.42
2961.447	453.08
2964.765	469.75
2968.079	485.75
2971.39	504.42
2974.699	525.42
2978.005	549.75
2981.308	574.75
2984.609	589.75
2987.907	625.08
2991.202	648.75
2994.494	677.75
2997.784	705.42
3001.07	722.75
3004.355	750.08
3007.636	780.75
3010.915	795.75
3014.191	820.08
3017.464	838.08
3020.734	856.75
3024.002	880.08
3027.267	893.75
3030.53	915.42
3033.789	940.75
3037.046	966.42
3040.301	998.08
3043.552	1029.08
3046.801	1062.42
3050.048	1093.42
3053.291	1133.42
3056.532	1186.75
3059.771	1225.75
3063.006	1276.08
3066.239	1318.42
3069.469	1351.08
3072.697	1408.08
3075.922	1448.08
3079.144	1502.08
3082.364	1545.08
3085.581	1581.42
3088.795	1618.42
3092.007	1678.08
3095.216	1714.75
3098.423	1769.08
3101.627	1804.08
3104.828	1866.42
3108.026	1917.42
3111.222	1960.08
3114.416	2015.42
3117.607	2061.42
3120.795	2126.75
3123.98	2177.75
3127.163	2230.08
3130.344	2300.08
3133.521	2360.08
3136.696	2416.42
3139.869	2467.75
3143.039	2513.42
3146.206	2541.75
3149.371	2584.75
3152.533	2608.08
3155.693	2635.08
3158.85	2639.75
3162.005	2659.42
3165.157	2674.08
3168.306	2680.08
3171.453	2694.75
3174.597	2712.08
3177.739	2716.08
3180.878	2717.75
3184.014	2736.42
3187.149	2739.75
3190.28	2742.42
3193.409	2764.75
3196.536	2777.42
3199.659	2776.75
3202.781	2800.42
3205.9	2800.42
3209.016	2772.08
3212.13	2800.42
3215.241	2769.42
3218.35	2757.08
3221.456	2736.42
3224.56	2708.42
3227.661	2692.42
3230.76	2665.75
3233.856	2654.08
3236.95	2629.75
3240.041	2619.08
3243.13	2611.42
3246.216	2599.75
3249.3	2588.75
3252.382	2587.08
3255.46	2586.42
3258.537	2563.75
3261.611	2570.75
3264.682	2561.42
3267.751	2562.42
3270.818	2547.08
3273.882	2530.42
3276.943	2521.42
3280.002	2499.42
3283.059	2470.08
3286.113	2437.75
3289.165	2391.75
3292.214	2365.75
3295.261	2321.75
3298.306	2284.75
3301.348	2245.42
3304.387	2210.42
3307.425	2180.08
3310.459	2160.08
3313.492	2128.08
3316.521	2092.42
3319.549	2074.42
3322.574	2057.42
3325.597	2038.08
3328.617	2026.75
3331.635	2013.08
3334.65	2018.08
3337.663	2010.75
3340.674	1998.42
3343.682	1987.08
3346.688	1986.75
3349.691	1968.08
3352.692	1971.08
3355.691	1948.08
3358.687	1934.42
3361.681	1911.42
3364.673	1889.75
3367.662	1873.08
3370.649	1832.08
3373.633	1812.42
3376.615	1790.75
3379.595	1779.08
3382.572	1741.42
3385.547	1725.75
3388.52	1703.75
3391.49	1700.75
3394.458	1656.75
3397.424	1634.42
3400.387	1626.75
3403.348	1601.42
3406.307	1599.75
3409.263	1581.08
3412.217	1554.75
3415.168	1547.42
3418.118	1535.75
3421.065	1534.08
3424.009	1504.42
3426.951	1473.75
3429.891	1453.42
3432.829	1426.75
3435.764	1408.42
3438.697	1371.75
3441.628	1342.08
3444.557	1305.42
3447.483	1276.42
3450.407	1240.75
3453.328	1199.42
3456.247	1172.08
3459.164	1141.42
3462.079	1107.75
3464.991	1073.42
3467.902	1045.42
3470.809	1020.42
3473.715	984.08
3476.618	960.42
3479.519	926.42
3482.418	907.42
3485.315	900.75
3488.209	864.08
3491.101	840.42
3493.99	822.08
3496.878	796.75
3499.763	768.75
3502.646	750.08
3505.527	728.75
3508.405	698.75
3511.281	667.42
3514.155	637.75
3517.027	612.42
3519.897	581.42
3522.764	551.75
3525.629	530.42
3528.492	498.75
3531.352	471.75
3534.211	440.75
3537.067	416.42
3539.921	394.08
3542.773	374.75
3545.622	349.42
3548.469	327.75
3551.315	302.08
3554.157	294.08
3556.998	275.75
3559.837	255.42
3562.673	239.08
3565.507	226.75
3568.339	209.75
3571.169	191.75
3573.996	182.75
3576.822	165.08
3579.645	148.75
3582.466	142.42
3585.285	126.42
3588.101	109.42
3590.916	99.08
3593.728	83.08
3596.538	70.08
3599.346	69.75
3602.152	50.75
3604.956	35.75
3607.757	28.42
3610.556	13.08
3613.354	2.75
3616.149	-1.25
3618.942	-14.92
3621.732	-22.92
3624.521	-28.25
3627.307	-37.92
3630.092	-44.58
3632.874	-48.58
3635.654	-58.58
3638.432	-60.92
3641.208	-70.58
3643.982	-74.25
3646.753	-82.58
3649.523	-94.25
3652.29	-99.58
3655.055	-104.92
3657.818	-110.58
3660.579	-117.25
3663.338	-127.58
3666.095	-132.25
3668.849	-137.92
3671.602	-142.92
3674.352	-150.92
3677.101	-151.92
3679.847	-152.92
3682.591	-161.25
3685.333	-167.25
3688.073	-167.92
3690.811	-174.58
3693.547	-176.92
3696.281	-181.25
3699.013	-182.92
3701.742	-187.25
3704.47	-186.58
3707.195	-187.92
3709.919	-193.25
3712.64	-195.92
3715.359	-199.92
3718.076	-196.92
3720.792	-205.58
3723.505	-205.58
3726.216	-201.58
3728.925	-209.92
3731.632	-210.92
3734.336	-215.25
3737.039	-214.92
3739.74	-216.58
3742.439	-224.58
3745.136	-223.58
3747.83	-218.25
3750.523	-224.25
3753.213	-229.92
3755.902	-226.25
3758.589	-231.25
3761.273	-226.25
3763.956	-225.25
3766.636	-228.58
3769.315	-228.58
3771.991	-233.58
3774.665	-231.92
3777.338	-233.92
3780.008	-234.92
3782.677	-237.92
3785.343	-236.58
3788.007	-236.92
3790.67	-236.25
3793.33	-240.25
3795.989	-236.92
3798.645	-237.58
3801.299	-241.58
3803.952	-241.58
3806.602	-242.58
3809.251	-242.58
3811.897	-242.92
3814.542	-242.25
3817.184	-239.92
3819.825	-240.25
3822.463	-241.25
3825.1	-242.92
3827.735	-245.25
3830.367	-241.92
3832.998	-242.58
3835.627	-246.25
3838.253	-244.25
3840.878	-246.25
3843.501	-245.92
3846.122	-248.25
3848.741	-247.25
3851.358	-249.25
3853.973	-246.92
3856.586	-248.58
3859.197	-247.25
3861.806	-245.92
3864.414	-248.58
3867.019	-246.92
3869.622	-243.92
3872.224	-240.25
3874.823	-232.92
3877.421	-218.58
3880.016	-201.58
3882.61	-188.58
3885.202	-186.58
3887.792	-204.25
3890.38	-223.25
3892.966	-239.25
3895.55	-245.58
3898.132	-249.58
3900.713	-249.92
3903.291	-252.25
3905.868	-252.58
3908.442	-253.58
3911.015	-254.58
3913.586	-252.58
3916.155	-255.58
3918.722	-253.92
3921.287	-255.58
3923.85	-254.25
3926.411	-254.92
3928.971	-254.25
3931.528	-254.58
3934.084	-255.58
3936.638	-257.58
3939.19	-257.25
3941.74	-258.92
3944.288	-256.25
3946.834	-258.92
3949.378	-253.58
3951.921	-255.58
3954.462	-253.25
3957	-251.25
3959.537	-252.92
3962.072	-256.25
3964.606	-255.25
3967.137	-253.92
3969.667	-255.92
3972.194	-254.25
3974.72	-254.92
3977.244	-253.25
3979.766	-254.25
3982.286	-253.25
3984.805	-251.58
3987.321	-252.58
3989.836	-250.58
3992.349	-251.92
3994.86	-252.25
3997.369	-252.25
3999.877	-249.92
4002.382	-248.58
4004.886	-254.92
4007.388	-253.92
4009.888	-250.92
4012.386	-250.25
4014.883	-256.58
4017.377	-254.25
4019.87	-252.92
4022.361	-254.92
4024.85	-254.58
4027.338	-253.25
4029.823	-253.58
4032.307	-253.58
4034.789	-254.25
4037.269	-253.25
4039.747	-256.25
4042.224	-255.25
4044.699	-258.92
4047.172	-256.92
4049.643	-254.92
4052.112	-258.92
4054.58	-257.92
4057.046	-254.58
4059.51	-255.92
4061.972	-253.92
4064.432	-258.58
4066.891	-258.92
4069.348	-257.92
4071.803	-256.58
4074.256	-256.58
4076.708	-255.25
4079.158	-255.58
4081.606	-254.25
4084.052	-255.92
4086.497	-254.58
4088.939	-253.25
4091.38	-253.25
4093.819	-254.92
4096.257	-265.25
4098.693	-263.25
4101.127	-261.92
4103.559	-257.92
4105.989	-146.25
4108.418	-137.25
4110.845	-129.92
4113.27	-115.58
4115.694	-105.92
4118.115	-87.58
4120.535	-252.25
4122.954	-254.58
4125.37	-250.58
4127.785	-256.58
4130.198	-261.25
4132.609	-379.58
4135.019	-259.92
4137.427	-261.92
4139.833	-262.58
4142.237	-263.58
