Data from CB10_RamanShift_7.txt Node
Date: Mon Nov 06 15:12:57 IST 2017
User: aro
Spectrometer: QEPB0276
Trigger mode: 0
Integration Time (sec): 4.000000E1
Scans to average: 3
Electric dark correction enabled: true
Nonlinearity correction enabled: false
Boxcar width: 0
XAxis mode: Raman Shifts
Number of Pixels in Spectrum: 1044
>>>>>Begin Spectral Data<<<<<
160.701	-53.42
166.742	15.92
172.777	229.58
178.805	902.92
184.826	2628.58
190.841	5693.25
196.849	9257.25
202.85	11637.92
208.845	12167.92
214.833	11800.25
220.815	11316.58
226.789	10994.58
232.758	10696.25
238.719	10354.25
244.674	9986.25
250.623	9568.58
256.565	9126.92
262.5	8701.25
268.429	8326.25
274.351	8019.92
280.267	7705.58
286.176	7428.25
292.079	7191.92
297.975	7011.25
303.865	6801.25
309.748	6659.25
315.625	6498.58
321.495	6396.25
327.359	6323.92
333.217	6278.92
339.068	6221.58
344.912	6199.58
350.751	6166.25
356.583	6146.58
362.408	6103.92
368.227	6145.92
374.04	6201.92
379.847	6325.92
385.647	6462.58
391.44	6416.58
397.228	6351.25
403.009	6396.58
408.784	6503.92
414.553	6808.92
420.315	7176.25
426.071	7223.25
431.821	6840.25
437.565	6509.58
443.302	6398.58
449.033	6338.58
454.758	6303.25
460.477	6244.92
466.189	6192.25
471.896	6113.92
477.596	6080.25
483.29	6031.58
488.978	6011.92
494.66	5957.25
500.335	5859.25
506.005	5704.92
511.668	5539.92
517.325	5379.58
522.977	5249.92
528.622	5155.92
534.261	5068.25
539.894	4999.58
545.521	4957.92
551.141	4904.58
556.756	4866.58
562.365	4818.25
567.968	4776.58
573.565	4753.58
579.155	4720.58
584.74	4678.92
590.319	4640.92
595.892	4593.25
601.459	4541.25
607.02	4517.92
612.575	4453.25
618.124	4408.25
623.667	4355.25
629.204	4310.58
634.735	4313.25
640.261	4364.25
645.781	4458.25
651.294	4459.92
656.802	4355.92
662.304	4213.58
667.8	4134.25
673.29	4082.58
678.775	4035.58
684.254	4009.58
689.726	3964.58
695.193	3944.92
700.655	3901.25
706.11	3872.92
711.56	3830.25
717.004	3789.25
722.442	3782.58
727.874	3744.58
733.301	3717.92
738.722	3727.25
744.137	3721.58
749.547	3742.92
754.951	3745.58
760.349	3714.92
765.741	3668.92
771.128	3622.92
776.509	3626.92
781.885	3640.25
787.254	3608.92
792.618	3588.58
797.977	3543.92
803.33	3515.25
808.677	3468.58
814.019	3430.92
819.355	3371.92
824.686	3346.92
830.011	3301.25
835.33	3260.92
840.644	3247.58
845.952	3216.92
851.255	3183.58
856.552	3153.58
861.844	3113.25
867.13	3087.25
872.41	3034.58
877.686	2992.92
882.955	2923.92
888.219	2877.58
893.478	2831.25
898.731	2763.92
903.979	2726.92
909.221	2698.25
914.458	2671.58
919.69	2643.92
924.916	2641.92
930.136	2632.92
935.351	2624.92
940.561	2602.92
945.766	2582.25
950.965	2555.92
956.158	2516.25
961.347	2499.58
966.529	2437.58
971.707	2391.58
976.879	2356.58
982.046	2336.25
987.208	2313.25
992.364	2313.25
997.515	2323.58
1002.66	2325.58
1007.801	2333.25
1012.936	2366.58
1018.066	2378.92
1023.19	2394.92
1028.309	2384.25
1033.423	2378.58
1038.532	2350.58
1043.636	2333.92
1048.734	2308.25
1053.827	2274.92
1058.915	2246.25
1063.998	2249.92
1069.075	2233.58
1074.147	2227.58
1079.214	2243.25
1084.276	2265.25
1089.333	2265.92
1094.385	2265.58
1099.431	2273.25
1104.472	2268.25
1109.509	2233.58
1114.54	2216.25
1119.565	2172.25
1124.586	2135.92
1129.602	2116.58
1134.613	2116.25
1139.618	2090.92
1144.619	2106.25
1149.614	2112.25
1154.604	2121.92
1159.589	2127.58
1164.57	2124.92
1169.545	2134.58
1174.515	2133.58
1179.48	2124.92
1184.44	2102.58
1189.395	2094.92
1194.345	2072.58
1199.29	2057.58
1204.23	2073.25
1209.165	2073.58
1214.095	2091.25
1219.021	2094.25
1223.941	2111.58
1228.856	2129.58
1233.766	2117.25
1238.672	2123.92
1243.572	2119.25
1248.467	2096.25
1253.358	2068.25
1258.244	2029.25
1263.124	1993.25
1268	1961.58
1272.871	1930.92
1277.737	1925.25
1282.599	1910.25
1287.455	1919.58
1292.306	1924.92
1297.153	1935.92
1301.995	1939.25
1306.832	1952.58
1311.664	1947.92
1316.491	1949.25
1321.314	1931.25
1326.132	1915.25
1330.945	1883.58
1335.753	1856.25
1340.556	1840.58
1345.354	1827.25
1350.148	1811.58
1354.937	1797.58
1359.722	1784.92
1364.501	1781.25
1369.276	1774.25
1374.046	1766.58
1378.811	1745.25
1383.572	1740.58
1388.327	1727.25
1393.079	1702.58
1397.825	1669.25
1402.567	1648.92
1407.304	1640.92
1412.036	1627.92
1416.764	1616.92
1421.487	1620.58
1426.205	1633.25
1430.919	1642.25
1435.628	1644.92
1440.333	1686.58
1445.032	1685.92
1449.727	1697.25
1454.418	1701.25
1459.104	1695.92
1463.785	1674.25
1468.462	1671.58
1473.134	1660.25
1477.802	1645.92
1482.465	1651.58
1487.123	1664.25
1491.777	1678.58
1496.426	1690.92
1501.071	1722.58
1505.711	1743.25
1510.347	1771.25
1514.978	1777.58
1519.604	1792.25
1524.226	1799.92
1528.844	1796.25
1533.457	1776.92
1538.065	1772.58
1542.669	1757.25
1547.269	1765.58
1551.864	1775.92
1556.454	1792.25
1561.041	1812.92
1565.622	1846.25
1570.199	1879.58
1574.772	1914.58
1579.34	1986.58
1583.904	2028.25
1588.464	2061.25
1593.019	2104.25
1597.569	2152.25
1602.115	2192.25
1606.657	2217.58
1611.195	2258.58
1615.728	2297.25
1620.256	2355.92
1624.78	2398.92
1629.3	2459.92
1633.816	2500.25
1638.327	2543.25
1642.834	2585.25
1647.336	2620.58
1651.834	2609.92
1656.328	2607.25
1660.817	2554.25
1665.302	2510.58
1669.783	2431.92
1674.259	2368.58
1678.732	2262.92
1683.199	2162.25
1687.663	2084.58
1692.122	1991.58
1696.577	1890.25
1701.028	1809.25
1705.474	1723.92
1709.917	1639.58
1714.355	1577.58
1718.788	1511.58
1723.218	1455.92
1727.643	1397.25
1732.064	1349.58
1736.481	1288.25
1740.893	1233.58
1745.301	1181.92
1749.705	1127.25
1754.105	1071.92
1758.501	1046.92
1762.893	1011.58
1767.28	988.92
1771.663	973.58
1776.042	961.25
1780.417	961.92
1784.787	962.58
1789.154	962.92
1793.516	952.92
1797.874	944.92
1802.228	929.92
1806.578	913.92
1810.924	883.58
1815.266	861.58
1819.603	834.58
1823.937	805.92
1828.266	798.92
1832.591	787.92
1836.913	783.25
1841.23	777.58
1845.543	774.58
1849.852	793.92
1854.156	786.58
1858.457	796.92
1862.754	785.58
1867.047	791.92
1871.335	797.92
1875.62	802.92
1879.9	805.25
1884.177	810.58
1888.449	797.92
1892.718	800.92
1896.982	802.25
1901.243	797.92
1905.499	808.58
1909.752	806.92
1914	811.25
1918.245	813.58
1922.485	818.92
1926.722	837.92
1930.954	838.58
1935.183	848.25
1939.408	841.92
1943.628	846.92
1947.845	831.58
1952.058	821.92
1956.267	818.92
1960.472	803.92
1964.673	783.25
1968.87	762.25
1973.063	750.92
1977.252	749.25
1981.438	739.58
1985.619	737.92
1989.797	745.58
1993.971	748.25
1998.14	739.92
2002.306	745.92
2006.469	758.92
2010.627	762.25
2014.781	763.25
2018.932	769.92
2023.078	754.92
2027.221	761.58
2031.36	748.92
2035.495	751.25
2039.627	751.25
2043.754	744.92
2047.878	751.92
2051.998	754.58
2056.114	756.25
2060.226	767.58
2064.334	775.25
2068.439	786.58
2072.54	792.25
2076.637	805.58
2080.73	805.92
2084.82	820.92
2088.906	823.25
2092.988	817.92
2097.066	813.25
2101.14	804.25
2105.211	796.25
2109.278	787.58
2113.342	780.25
2117.401	770.58
2121.457	753.58
2125.509	747.58
2129.558	744.92
2133.602	736.92
2137.643	724.92
2141.681	717.25
2145.714	712.92
2149.744	709.58
2153.77	699.25
2157.793	685.25
2161.812	669.25
2165.827	655.58
2169.838	640.58
2173.846	622.58
2177.851	614.92
2181.851	604.25
2185.848	592.92
2189.841	583.58
2193.831	573.58
2197.817	560.92
2201.799	554.92
2205.778	548.92
2209.753	539.25
2213.725	534.92
2217.693	530.25
2221.657	526.58
2225.618	523.92
2229.575	516.25
2233.529	505.25
2237.479	494.25
2241.425	484.58
2245.368	470.92
2249.307	455.25
2253.243	437.58
2257.175	429.58
2261.104	422.92
2265.029	415.58
2268.95	403.58
2272.868	392.58
2276.783	388.92
2280.694	374.92
2284.601	366.25
2288.505	355.25
2292.405	351.25
2296.302	336.25
2300.195	320.25
2304.085	321.25
2307.971	304.25
2311.854	297.25
2315.734	291.25
2319.609	273.92
2323.482	271.25
2327.351	259.58
2331.216	260.92
2335.078	257.25
2338.937	250.25
2342.792	243.25
2346.643	241.25
2350.492	231.58
2354.336	237.25
2358.178	235.58
2362.015	235.58
2365.85	232.58
2369.681	232.25
2373.508	226.92
2377.333	226.58
2381.153	218.25
2384.971	219.92
2388.785	214.58
2392.595	212.58
2396.402	211.25
2400.206	207.92
2404.007	202.92
2407.804	200.58
2411.597	198.58
2415.388	201.58
2419.174	195.92
2422.958	194.25
2426.738	192.92
2430.515	188.58
2434.289	185.25
2438.059	178.58
2441.825	178.92
2445.589	174.92
2449.349	171.92
2453.106	165.25
2456.859	162.25
2460.61	159.58
2464.356	154.58
2468.1	151.58
2471.84	143.92
2475.577	150.25
2479.311	148.92
2483.041	151.58
2486.768	144.58
2490.492	151.25
2494.213	150.92
2497.93	147.92
2501.644	149.25
2505.355	148.58
2509.062	141.25
2512.766	144.58
2516.467	147.25
2520.165	143.25
2523.859	139.92
2527.551	144.25
2531.239	138.58
2534.923	135.25
2538.605	135.58
2542.283	131.92
2545.958	132.25
2549.63	132.25
2553.299	133.58
2556.964	132.58
2560.626	130.25
2564.285	125.25
2567.941	116.25
2571.594	114.92
2575.243	117.25
2578.89	112.92
2582.533	116.25
2586.173	107.92
2589.809	106.25
2593.443	102.58
2597.073	93.92
2600.701	92.58
2604.325	89.25
2607.946	88.25
2611.564	87.92
2615.178	84.92
2618.79	83.58
2622.398	77.58
2626.004	75.92
2629.606	76.92
2633.205	70.92
2636.801	71.92
2640.394	63.92
2643.983	72.92
2647.57	61.92
2651.153	60.58
2654.734	65.92
2658.311	57.92
2661.885	54.58
2665.456	55.92
2669.025	53.92
2672.589	54.25
2676.151	55.92
2679.71	47.25
2683.266	48.58
2686.819	52.25
2690.368	45.58
2693.915	45.58
2697.458	42.92
2700.999	41.92
2704.536	42.58
2708.071	37.58
2711.602	43.92
2715.13	43.58
2718.656	39.92
2722.178	43.58
2725.697	43.92
2729.214	53.25
2732.727	52.25
2736.237	55.92
2739.744	65.92
2743.249	64.25
2746.75	64.25
2750.248	62.92
2753.743	64.92
2757.236	65.92
2760.725	69.92
2764.211	62.92
2767.695	65.58
2771.175	61.25
2774.652	63.58
2778.127	59.58
2781.598	62.92
2785.067	65.92
2788.532	68.92
2791.995	70.25
2795.455	79.92
2798.911	85.58
2802.365	86.92
2805.816	94.92
2809.264	98.25
2812.709	107.25
2816.151	106.92
2819.59	107.58
2823.026	121.92
2826.46	119.58
2829.89	122.58
2833.318	127.58
2836.742	130.58
2840.164	134.58
2843.583	144.25
2846.999	155.92
2850.412	160.58
2853.822	164.58
2857.229	168.92
2860.634	179.25
2864.035	187.25
2867.434	188.92
2870.83	202.25
2874.223	209.92
2877.613	213.58
2881	218.92
2884.385	219.25
2887.766	229.25
2891.145	232.58
2894.521	239.25
2897.894	248.92
2901.264	256.92
2904.631	263.25
2907.996	273.92
2911.358	277.25
2914.717	286.25
2918.073	296.25
2921.426	310.25
2924.777	320.25
2928.124	342.25
2931.469	350.25
2934.811	368.25
2938.15	379.25
2941.487	398.25
2944.821	410.92
2948.152	427.92
2951.48	437.92
2954.805	440.58
2958.128	466.25
2961.447	477.58
2964.765	501.25
2968.079	512.25
2971.39	536.92
2974.699	566.92
2978.005	584.25
2981.308	606.58
2984.609	627.92
2987.907	656.25
2991.202	695.25
2994.494	723.58
2997.784	741.92
3001.07	777.58
3004.355	801.92
3007.636	832.92
3010.915	850.58
3014.191	875.92
3017.464	888.58
3020.734	919.58
3024.002	931.25
3027.267	959.92
3030.53	975.92
3033.789	1005.58
3037.046	1030.92
3040.301	1063.92
3043.552	1093.25
3046.801	1135.92
3050.048	1179.58
3053.291	1222.25
3056.532	1276.58
3059.771	1311.92
3063.006	1356.58
3066.239	1422.25
3069.469	1467.58
3072.697	1511.25
3075.922	1568.58
3079.144	1614.92
3082.364	1672.58
3085.581	1720.25
3088.795	1751.58
3092.007	1801.92
3095.216	1847.58
3098.423	1903.25
3101.627	1958.92
3104.828	2004.92
3108.026	2058.58
3111.222	2123.25
3114.416	2170.92
3117.607	2239.25
3120.795	2308.92
3123.98	2354.92
3127.163	2412.92
3130.344	2477.58
3133.521	2532.92
3136.696	2613.58
3139.869	2656.58
3143.039	2693.58
3146.206	2751.58
3149.371	2780.25
3152.533	2808.58
3155.693	2853.58
3158.85	2867.58
3162.005	2870.92
3165.157	2894.25
3168.306	2896.58
3171.453	2901.92
3174.597	2906.92
3177.739	2941.25
3180.878	2940.92
3184.014	2948.92
3187.149	2963.25
3190.28	2982.92
3193.409	2979.58
3196.536	2986.25
3199.659	2993.58
3202.781	3018.58
3205.9	3021.58
3209.016	3014.92
3212.13	3003.92
3215.241	2987.58
3218.35	2979.25
3221.456	2950.58
3224.56	2928.58
3227.661	2908.92
3230.76	2869.25
3233.856	2861.25
3236.95	2844.92
3240.041	2812.25
3243.13	2821.92
3246.216	2798.92
3249.3	2802.92
3252.382	2790.58
3255.46	2773.92
3258.537	2772.92
3261.611	2777.25
3264.682	2756.58
3267.751	2761.58
3270.818	2740.25
3273.882	2729.92
3276.943	2730.92
3280.002	2688.25
3283.059	2653.25
3286.113	2627.25
3289.165	2577.25
3292.214	2546.92
3295.261	2489.25
3298.306	2458.92
3301.348	2416.58
3304.387	2372.92
3307.425	2345.25
3310.459	2320.58
3313.492	2292.58
3316.521	2267.92
3319.549	2235.58
3322.574	2225.25
3325.597	2200.92
3328.617	2192.25
3331.635	2174.92
3334.65	2155.58
3337.663	2153.58
3340.674	2142.25
3343.682	2146.58
3346.688	2126.25
3349.691	2123.25
3352.692	2108.25
3355.691	2100.25
3358.687	2077.92
3361.681	2070.92
3364.673	2035.92
3367.662	2009.25
3370.649	1991.25
3373.633	1958.58
3376.615	1940.58
3379.595	1914.58
3382.572	1884.25
3385.547	1863.25
3388.52	1842.92
3391.49	1804.25
3394.458	1798.92
3397.424	1775.92
3400.387	1754.92
3403.348	1729.58
3406.307	1722.58
3409.263	1702.58
3412.217	1690.92
3415.168	1680.92
3418.118	1655.92
3421.065	1635.92
3424.009	1621.25
3426.951	1600.58
3429.891	1570.25
3432.829	1548.25
3435.764	1514.92
3438.697	1480.92
3441.628	1445.92
3444.557	1416.25
3447.483	1379.58
3450.407	1347.92
3453.328	1302.25
3456.247	1267.25
3459.164	1243.92
3462.079	1193.25
3464.991	1160.58
3467.902	1138.58
3470.809	1100.58
3473.715	1068.25
3476.618	1035.58
3479.519	1003.25
3482.418	980.25
3485.315	960.58
3488.209	938.58
3491.101	909.92
3493.99	885.92
3496.878	867.92
3499.763	836.58
3502.646	815.58
3505.527	787.58
3508.405	755.25
3511.281	724.25
3514.155	695.25
3517.027	662.58
3519.897	637.58
3522.764	610.25
3525.629	570.25
3528.492	548.58
3531.352	520.92
3534.211	481.92
3537.067	459.25
3539.921	435.58
3542.773	415.92
3545.622	382.25
3548.469	360.25
3551.315	337.92
3554.157	316.58
3556.998	305.92
3559.837	286.92
3562.673	267.25
3565.507	248.25
3568.339	229.58
3571.169	220.92
3573.996	206.25
3576.822	190.25
3579.645	172.92
3582.466	159.92
3585.285	139.58
3588.101	123.25
3590.916	111.25
3593.728	95.92
3596.538	82.58
3599.346	76.25
3602.152	63.25
3604.956	49.25
3607.757	41.25
3610.556	24.58
3613.354	14.58
3616.149	6.92
3618.942	-8.42
3621.732	-17.42
3624.521	-23.75
3627.307	-32.08
3630.092	-36.08
3632.874	-41.08
3635.654	-53.42
3638.432	-57.08
3641.208	-69.08
3643.982	-71.08
3646.753	-82.42
3649.523	-90.75
3652.29	-96.75
3655.055	-104.08
3657.818	-111.75
3660.579	-118.75
3663.338	-125.42
3666.095	-134.75
3668.849	-137.42
3671.602	-140.08
3674.352	-149.75
3677.101	-152.75
3679.847	-160.08
3682.591	-168.42
3685.333	-172.42
3688.073	-171.42
3690.811	-178.75
3693.547	-179.08
3696.281	-178.42
3699.013	-186.08
3701.742	-191.08
3704.47	-196.08
3707.195	-195.08
3709.919	-198.75
3712.64	-203.42
3715.359	-204.08
3718.076	-207.42
3720.792	-214.75
3723.505	-216.08
3726.216	-211.08
3728.925	-218.75
3731.632	-218.08
3734.336	-218.75
3737.039	-225.08
3739.74	-226.08
3742.439	-232.08
3745.136	-233.08
3747.83	-225.08
3750.523	-232.08
3753.213	-234.42
3755.902	-232.08
3758.589	-239.42
3761.273	-232.42
3763.956	-233.75
3766.636	-234.08
3769.315	-237.08
3771.991	-241.42
3774.665	-241.42
3777.338	-245.75
3780.008	-240.08
3782.677	-245.08
3785.343	-243.08
3788.007	-247.75
3790.67	-242.08
3793.33	-245.08
3795.989	-245.75
3798.645	-245.08
3801.299	-249.08
3803.952	-251.42
3806.602	-252.42
3809.251	-251.42
3811.897	-251.08
3814.542	-254.08
3817.184	-248.42
3819.825	-253.08
3822.463	-252.08
3825.1	-255.08
3827.735	-254.42
3830.367	-254.42
3832.998	-256.08
3835.627	-255.08
3838.253	-256.75
3840.878	-256.42
3843.501	-255.42
3846.122	-257.42
3848.741	-259.08
3851.358	-257.75
3853.973	-257.08
3856.586	-258.08
3859.197	-257.08
3861.806	-254.08
3864.414	-257.42
3867.019	-256.75
3869.622	-254.08
3872.224	-246.75
3874.823	-237.42
3877.421	-222.42
3880.016	-202.08
3882.61	-186.08
3885.202	-180.08
3887.792	-202.08
3890.38	-226.75
3892.966	-245.08
3895.55	-253.75
3898.132	-258.75
3900.713	-259.08
3903.291	-260.42
3905.868	-260.75
3908.442	-264.42
3911.015	-266.75
3913.586	-264.42
3916.155	-267.42
3918.722	-266.75
3921.287	-265.08
3923.85	-264.08
3926.411	-269.42
3928.971	-266.42
3931.528	-266.08
3934.084	-266.75
3936.638	-266.75
3939.19	-267.08
3941.74	-268.75
3944.288	-268.08
3946.834	-264.75
3949.378	-264.08
3951.921	-266.75
3954.462	-268.08
3957	-262.08
3959.537	-260.42
3962.072	-264.08
3964.606	-266.08
3967.137	-263.08
3969.667	-266.08
3972.194	-262.75
3974.72	-264.75
3977.244	-259.42
3979.766	-265.42
3982.286	-259.75
3984.805	-261.42
3987.321	-261.75
3989.836	-257.75
3992.349	-259.75
3994.86	-261.42
3997.369	-263.08
3999.877	-262.08
4002.382	-259.08
4004.886	-261.75
4007.388	-262.42
4009.888	-260.08
4012.386	-258.42
4014.883	-263.08
4017.377	-261.42
4019.87	-262.75
4022.361	-263.08
4024.85	-260.42
4027.338	-259.75
4029.823	-260.08
4032.307	-261.75
4034.789	-261.42
4037.269	-262.08
4039.747	-267.08
4042.224	-262.42
4044.699	-266.42
4047.172	-264.42
4049.643	-266.08
4052.112	-265.08
4054.58	-264.42
4057.046	-263.42
4059.51	-264.75
4061.972	-262.75
4064.432	-264.75
4066.891	-267.42
4069.348	-264.75
4071.803	-262.75
4074.256	-263.42
4076.708	-262.75
4079.158	-264.08
4081.606	-265.75
4084.052	-264.42
4086.497	-263.42
4088.939	-264.42
4091.38	-259.75
4093.819	-262.42
4096.257	-274.75
4098.693	-272.08
4101.127	-272.08
4103.559	-270.75
4105.989	-146.08
4108.418	-137.08
4110.845	-130.75
4113.27	-119.08
4115.694	-110.42
4118.115	-87.75
4120.535	-261.75
4122.954	-263.42
4125.37	-259.75
4127.785	-265.08
4130.198	-269.42
4132.609	-391.75
4135.019	-273.42
4137.427	-272.75
4139.833	-273.75
4142.237	-275.08
