Data from CB1_RamanShift_2.txt Node
Date: Mon Nov 06 15:22:57 IST 2017
User: aro
Spectrometer: QEPB0276
Trigger mode: 0
Integration Time (sec): 4.000000E1
Scans to average: 3
Electric dark correction enabled: true
Nonlinearity correction enabled: false
Boxcar width: 0
XAxis mode: Raman Shifts
Number of Pixels in Spectrum: 1044
>>>>>Begin Spectral Data<<<<<
160.701	-50.25
166.742	18.08
172.777	208.08
178.805	815.75
184.826	2343.75
190.841	5117.08
196.849	8340.08
202.85	10522.75
208.845	11110.42
214.833	10745.08
220.815	10373.75
226.789	10095.42
232.758	9869.08
238.719	9611.75
244.674	9294.42
250.623	8959.08
256.565	8587.75
262.5	8220.75
268.429	7912.42
274.351	7648.42
280.267	7376.42
286.176	7151.08
292.079	6976.75
297.975	6800.08
303.865	6657.42
309.748	6512.75
315.625	6412.42
321.495	6317.42
327.359	6238.75
333.217	6172.08
339.068	6166.42
344.912	6148.42
350.751	6103.42
356.583	6088.08
362.408	6039.08
368.227	6074.08
374.04	6136.42
379.847	6260.75
385.647	6386.75
391.44	6355.08
397.228	6307.08
403.009	6325.08
408.784	6439.75
414.553	6712.42
420.315	7087.75
426.071	7158.42
431.821	6783.08
437.565	6481.08
443.302	6376.75
449.033	6275.42
454.758	6249.08
460.477	6222.42
466.189	6165.75
471.896	6100.75
477.596	6064.08
483.29	6022.75
488.978	6003.42
494.66	5966.08
500.335	5848.75
506.005	5735.42
511.668	5567.08
517.325	5420.08
522.977	5323.75
528.622	5224.08
534.261	5143.42
539.894	5092.08
545.521	5025.42
551.141	4998.75
556.756	4941.75
562.365	4903.75
567.968	4897.08
573.565	4864.42
579.155	4831.08
584.74	4804.42
590.319	4756.75
595.892	4716.75
601.459	4670.75
607.02	4648.08
612.575	4603.75
618.124	4542.08
623.667	4483.42
629.204	4474.42
634.735	4451.75
640.261	4500.75
645.781	4557.75
651.294	4616.08
656.802	4525.08
662.304	4389.08
667.8	4301.42
673.29	4248.75
678.775	4222.08
684.254	4188.08
689.726	4155.75
695.193	4115.75
700.655	4098.42
706.11	4050.08
711.56	4020.08
717.004	3994.42
722.442	3973.42
727.874	3930.75
733.301	3935.42
738.722	3937.75
744.137	3941.08
749.547	3936.42
754.951	3952.08
760.349	3933.08
765.741	3884.75
771.128	3870.42
776.509	3842.75
781.885	3860.08
787.254	3845.75
792.618	3806.75
797.977	3782.08
803.33	3740.08
808.677	3712.75
814.019	3658.08
819.355	3623.08
824.686	3596.75
830.011	3563.08
835.33	3541.75
840.644	3535.42
845.952	3496.75
851.255	3476.75
856.552	3443.08
861.844	3431.42
867.13	3391.08
872.41	3330.75
877.686	3294.08
882.955	3238.75
888.219	3194.75
893.478	3145.08
898.731	3060.75
903.979	3037.75
909.221	3010.42
914.458	2991.75
919.69	2985.75
924.916	2983.75
930.136	2958.75
935.351	2969.08
940.561	2960.42
945.766	2932.42
950.965	2911.08
956.158	2885.75
961.347	2835.08
966.529	2795.08
971.707	2742.75
976.879	2712.08
982.046	2690.75
987.208	2666.42
992.364	2672.08
997.515	2674.75
1002.66	2697.42
1007.801	2715.42
1012.936	2743.75
1018.066	2759.42
1023.19	2764.08
1028.309	2767.08
1033.423	2754.42
1038.532	2732.75
1043.636	2699.08
1048.734	2663.42
1053.827	2636.08
1058.915	2611.42
1063.998	2602.42
1069.075	2596.08
1074.147	2599.42
1079.214	2623.08
1084.276	2637.42
1089.333	2642.75
1094.385	2648.42
1099.431	2672.42
1104.472	2649.08
1109.509	2633.75
1114.54	2581.42
1119.565	2540.75
1124.586	2518.42
1129.602	2493.42
1134.613	2484.42
1139.618	2469.08
1144.619	2471.42
1149.614	2489.08
1154.604	2492.75
1159.589	2504.08
1164.57	2506.75
1169.545	2521.75
1174.515	2521.08
1179.48	2483.08
1184.44	2483.08
1189.395	2443.08
1194.345	2435.42
1199.29	2429.42
1204.23	2431.75
1209.165	2433.42
1214.095	2461.75
1219.021	2485.42
1223.941	2495.75
1228.856	2513.08
1233.766	2510.75
1238.672	2511.08
1243.572	2486.08
1248.467	2476.08
1253.358	2445.75
1258.244	2407.42
1263.124	2362.75
1268	2325.08
1272.871	2304.75
1277.737	2278.42
1282.599	2272.75
1287.455	2278.75
1292.306	2287.08
1297.153	2317.75
1301.995	2312.08
1306.832	2340.08
1311.664	2343.42
1316.491	2340.42
1321.314	2317.08
1326.132	2299.75
1330.945	2271.75
1335.753	2251.75
1340.556	2238.75
1345.354	2210.75
1350.148	2209.08
1354.937	2188.42
1359.722	2173.75
1364.501	2151.75
1369.276	2126.08
1374.046	2127.75
1378.811	2101.75
1383.572	2079.08
1388.327	2074.08
1393.079	2065.42
1397.825	2024.75
1402.567	2004.08
1407.304	1981.42
1412.036	1967.75
1416.764	1969.75
1421.487	1983.75
1426.205	1979.08
1430.919	1983.75
1435.628	2021.42
1440.333	2031.42
1445.032	2058.42
1449.727	2064.08
1454.418	2080.08
1459.104	2076.08
1463.785	2067.75
1468.462	2058.42
1473.134	2028.42
1477.802	2020.42
1482.465	2028.08
1487.123	2037.42
1491.777	2057.75
1496.426	2073.75
1501.071	2110.42
1505.711	2147.75
1510.347	2138.08
1514.978	2165.75
1519.604	2184.08
1524.226	2182.42
1528.844	2157.08
1533.457	2132.42
1538.065	2122.08
1542.669	2108.08
1547.269	2096.75
1551.864	2094.75
1556.454	2098.42
1561.041	2109.42
1565.622	2153.42
1570.199	2165.08
1574.772	2211.08
1579.34	2247.75
1583.904	2301.42
1588.464	2345.42
1593.019	2362.42
1597.569	2398.42
1602.115	2420.08
1606.657	2451.75
1611.195	2479.42
1615.728	2508.75
1620.256	2549.42
1624.78	2588.75
1629.3	2641.42
1633.816	2696.75
1638.327	2736.08
1642.834	2770.42
1647.336	2780.42
1651.834	2804.42
1656.328	2786.08
1660.817	2777.42
1665.302	2737.75
1669.783	2678.08
1674.259	2593.75
1678.732	2544.08
1683.199	2457.42
1687.663	2384.08
1692.122	2304.08
1696.577	2217.42
1701.028	2119.08
1705.474	2048.08
1709.917	1972.75
1714.355	1906.75
1718.788	1851.42
1723.218	1795.08
1727.643	1735.75
1732.064	1699.75
1736.481	1628.08
1740.893	1573.42
1745.301	1513.42
1749.705	1457.42
1754.105	1425.75
1758.501	1375.42
1762.893	1352.42
1767.28	1321.42
1771.663	1323.08
1776.042	1315.08
1780.417	1327.42
1784.787	1329.75
1789.154	1344.75
1793.516	1334.08
1797.874	1322.08
1802.228	1305.42
1806.578	1259.75
1810.924	1234.75
1815.266	1195.08
1819.603	1170.75
1823.937	1152.08
1828.266	1134.08
1832.591	1128.42
1836.913	1120.08
1841.23	1102.42
1845.543	1114.08
1849.852	1122.75
1854.156	1128.42
1858.457	1123.42
1862.754	1138.42
1867.047	1141.42
1871.335	1154.08
1875.62	1162.42
1879.9	1165.42
1884.177	1167.75
1888.449	1160.75
1892.718	1164.08
1896.982	1161.42
1901.243	1152.08
1905.499	1159.75
1909.752	1165.08
1914	1175.08
1918.245	1183.08
1922.485	1187.75
1926.722	1206.75
1930.954	1209.75
1935.183	1212.75
1939.408	1212.75
1943.628	1206.08
1947.845	1190.42
1952.058	1177.75
1956.267	1159.42
1960.472	1122.75
1964.673	1105.42
1968.87	1081.08
1973.063	1064.08
1977.252	1040.75
1981.438	1046.75
1985.619	1032.42
1989.797	1038.08
1993.971	1032.08
1998.14	1032.42
2002.306	1033.75
2006.469	1049.42
2010.627	1040.08
2014.781	1033.42
2018.932	1042.08
2023.078	1044.08
2027.221	1033.08
2031.36	1026.42
2035.495	1017.42
2039.627	1020.75
2043.754	1004.42
2047.878	1015.08
2051.998	1019.75
2056.114	1021.08
2060.226	1036.08
2064.334	1046.75
2068.439	1059.08
2072.54	1065.42
2076.637	1085.42
2080.73	1090.42
2084.82	1095.75
2088.906	1093.42
2092.988	1097.08
2097.066	1090.08
2101.14	1068.42
2105.211	1058.42
2109.278	1043.75
2113.342	1032.42
2117.401	1017.08
2121.457	996.75
2125.509	994.75
2129.558	982.42
2133.602	971.42
2137.643	959.08
2141.681	965.08
2145.714	946.75
2149.744	932.42
2153.77	926.42
2157.793	909.42
2161.812	893.42
2165.827	876.42
2169.838	859.42
2173.846	844.08
2177.851	821.08
2181.851	810.42
2185.848	798.08
2189.841	780.42
2193.831	772.75
2197.817	762.75
2201.799	761.75
2205.778	747.08
2209.753	745.08
2213.725	733.42
2217.693	732.08
2221.657	725.75
2225.618	721.08
2229.575	718.42
2233.529	705.08
2237.479	695.75
2241.425	682.08
2245.368	671.08
2249.307	645.75
2253.243	635.42
2257.175	622.08
2261.104	610.08
2265.029	594.75
2268.95	586.08
2272.868	574.75
2276.783	556.75
2280.694	556.75
2284.601	548.42
2288.505	536.75
2292.405	524.75
2296.302	512.08
2300.195	495.75
2304.085	480.08
2307.971	473.42
2311.854	454.75
2315.734	446.08
2319.609	438.08
2323.482	422.75
2327.351	417.42
2331.216	418.75
2335.078	410.42
2338.937	400.08
2342.792	396.08
2346.643	387.42
2350.492	384.08
2354.336	389.08
2358.178	390.08
2362.015	388.75
2365.85	384.08
2369.681	381.42
2373.508	388.08
2377.333	381.42
2381.153	376.08
2384.971	376.42
2388.785	376.08
2392.595	369.08
2396.402	360.42
2400.206	358.08
2404.007	350.08
2407.804	356.42
2411.597	360.75
2415.388	350.08
2419.174	345.08
2422.958	342.08
2426.738	341.42
2430.515	339.42
2434.289	331.75
2438.059	328.42
2441.825	337.42
2445.589	332.42
2449.349	318.42
2453.106	313.08
2456.859	314.08
2460.61	304.08
2464.356	300.08
2468.1	299.75
2471.84	293.08
2475.577	288.42
2479.311	301.75
2483.041	296.42
2486.768	305.75
2490.492	293.75
2494.213	296.42
2497.93	294.42
2501.644	294.75
2505.355	297.75
2509.062	285.08
2512.766	291.75
2516.467	296.75
2520.165	290.75
2523.859	282.08
2527.551	286.08
2531.239	282.08
2534.923	277.42
2538.605	280.08
2542.283	279.42
2545.958	280.75
2549.63	275.75
2553.299	274.42
2556.964	278.08
2560.626	274.42
2564.285	269.08
2567.941	265.08
2571.594	258.42
2575.243	256.75
2578.89	257.08
2582.533	247.08
2586.173	243.42
2589.809	244.08
2593.443	232.75
2597.073	232.42
2600.701	232.08
2604.325	221.08
2607.946	222.08
2611.564	213.42
2615.178	212.75
2618.79	211.75
2622.398	206.42
2626.004	202.75
2629.606	202.42
2633.205	198.08
2636.801	195.08
2640.394	189.75
2643.983	192.75
2647.57	184.75
2651.153	182.42
2654.734	177.42
2658.311	169.08
2661.885	170.08
2665.456	169.42
2669.025	165.08
2672.589	169.08
2676.151	164.42
2679.71	163.08
2683.266	156.75
2686.819	157.42
2690.368	153.75
2693.915	152.75
2697.458	151.42
2700.999	146.75
2704.536	148.08
2708.071	145.08
2711.602	146.08
2715.13	145.75
2718.656	141.75
2722.178	143.42
2725.697	146.42
2729.214	149.08
2732.727	156.08
2736.237	162.42
2739.744	175.08
2743.249	164.42
2746.75	168.08
2750.248	171.08
2753.743	168.42
2757.236	165.75
2760.725	167.08
2764.211	152.75
2767.695	160.42
2771.175	153.42
2774.652	154.08
2778.127	155.75
2781.598	153.75
2785.067	158.42
2788.532	163.42
2791.995	166.75
2795.455	167.42
2798.911	172.75
2802.365	178.42
2805.816	185.42
2809.264	180.75
2812.709	185.75
2816.151	189.08
2819.59	189.75
2823.026	196.42
2826.46	201.08
2829.89	205.08
2833.318	203.08
2836.742	210.75
2840.164	220.08
2843.583	215.75
2846.999	222.08
2850.412	231.75
2853.822	233.42
2857.229	242.08
2860.634	249.08
2864.035	257.75
2867.434	260.08
2870.83	264.08
2874.223	269.75
2877.613	270.08
2881	284.75
2884.385	275.75
2887.766	287.08
2891.145	281.75
2894.521	290.08
2897.894	293.75
2901.264	299.42
2904.631	303.08
2907.996	305.08
2911.358	319.08
2914.717	327.08
2918.073	331.75
2921.426	335.08
2924.777	347.08
2928.124	362.75
2931.469	381.75
2934.811	385.42
2938.15	399.08
2941.487	408.42
2944.821	421.42
2948.152	436.42
2951.48	439.42
2954.805	448.75
2958.128	466.08
2961.447	478.08
2964.765	502.08
2968.079	504.42
2971.39	529.08
2974.699	547.42
2978.005	578.75
2981.308	595.75
2984.609	621.75
2987.907	645.42
2991.202	670.08
2994.494	693.08
2997.784	726.08
3001.07	737.08
3004.355	761.75
3007.636	783.08
3010.915	799.42
3014.191	820.08
3017.464	835.08
3020.734	846.08
3024.002	863.08
3027.267	881.42
3030.53	898.75
3033.789	923.08
3037.046	949.42
3040.301	967.75
3043.552	989.75
3046.801	1036.08
3050.048	1062.75
3053.291	1098.75
3056.532	1137.42
3059.771	1166.08
3063.006	1222.42
3066.239	1259.75
3069.469	1299.08
3072.697	1347.42
3075.922	1386.75
3079.144	1436.08
3082.364	1476.42
3085.581	1512.75
3088.795	1558.08
3092.007	1597.08
3095.216	1645.42
3098.423	1684.75
3101.627	1728.08
3104.828	1779.42
3108.026	1817.75
3111.222	1862.08
3114.416	1930.08
3117.607	1964.75
3120.795	2020.42
3123.98	2070.42
3127.163	2143.75
3130.344	2193.42
3133.521	2231.42
3136.696	2284.42
3139.869	2334.08
3143.039	2386.08
3146.206	2424.42
3149.371	2443.42
3152.533	2456.42
3155.693	2483.08
3158.85	2490.08
3162.005	2516.42
3165.157	2529.42
3168.306	2537.75
3171.453	2549.08
3174.597	2563.42
3177.739	2562.08
3180.878	2571.42
3184.014	2577.42
3187.149	2581.08
3190.28	2603.42
3193.409	2605.42
3196.536	2612.75
3199.659	2633.08
3202.781	2637.42
3205.9	2623.08
3209.016	2628.08
3212.13	2643.75
3215.241	2618.75
3218.35	2606.75
3221.456	2593.08
3224.56	2576.75
3227.661	2550.42
3230.76	2544.75
3233.856	2543.08
3236.95	2521.75
3240.041	2493.75
3243.13	2503.75
3246.216	2498.42
3249.3	2487.42
3252.382	2489.42
3255.46	2469.75
3258.537	2477.42
3261.611	2469.75
3264.682	2470.08
3267.751	2467.75
3270.818	2443.42
3273.882	2442.08
3276.943	2418.08
3280.002	2399.42
3283.059	2360.75
3286.113	2331.42
3289.165	2283.75
3292.214	2260.42
3295.261	2215.08
3298.306	2177.42
3301.348	2141.08
3304.387	2099.42
3307.425	2066.08
3310.459	2039.75
3313.492	2011.08
3316.521	1994.42
3319.549	1955.42
3322.574	1943.42
3325.597	1922.75
3328.617	1911.08
3331.635	1895.08
3334.65	1886.42
3337.663	1876.75
3340.674	1879.42
3343.682	1856.75
3346.688	1864.75
3349.691	1857.75
3352.692	1842.75
3355.691	1827.75
3358.687	1806.42
3361.681	1787.75
3364.673	1776.08
3367.662	1747.42
3370.649	1723.08
3373.633	1704.08
3376.615	1671.08
3379.595	1667.42
3382.572	1637.75
3385.547	1611.42
3388.52	1607.42
3391.49	1577.75
3394.458	1560.75
3397.424	1547.75
3400.387	1530.75
3403.348	1506.08
3406.307	1507.42
3409.263	1495.42
3412.217	1468.08
3415.168	1465.08
3418.118	1440.75
3421.065	1434.75
3424.009	1418.08
3426.951	1398.08
3429.891	1375.08
3432.829	1353.42
3435.764	1325.08
3438.697	1293.42
3441.628	1274.42
3444.557	1237.08
3447.483	1210.75
3450.407	1174.08
3453.328	1147.75
3456.247	1121.42
3459.164	1084.08
3462.079	1047.08
3464.991	1017.08
3467.902	997.75
3470.809	958.42
3473.715	945.08
3476.618	923.42
3479.519	895.08
3482.418	871.42
3485.315	851.42
3488.209	838.42
3491.101	803.08
3493.99	790.75
3496.878	757.75
3499.763	752.42
3502.646	728.42
3505.527	697.75
3508.405	668.42
3511.281	650.75
3514.155	618.75
3517.027	594.75
3519.897	571.42
3522.764	537.08
3525.629	511.08
3528.492	490.08
3531.352	460.42
3534.211	427.08
3537.067	409.08
3539.921	387.08
3542.773	366.08
3545.622	345.75
3548.469	314.75
3551.315	302.42
3554.157	287.75
3556.998	272.75
3559.837	258.75
3562.673	240.75
3565.507	222.75
3568.339	205.75
3571.169	190.75
3573.996	183.08
3576.822	165.75
3579.645	151.75
3582.466	143.75
3585.285	125.75
3588.101	107.08
3590.916	99.42
3593.728	82.08
3596.538	71.42
3599.346	64.75
3602.152	49.42
3604.956	41.08
3607.757	30.42
3610.556	18.75
3613.354	6.75
3616.149	-1.25
3618.942	-12.25
3621.732	-20.25
3624.521	-29.25
3627.307	-33.92
3630.092	-39.25
3632.874	-40.58
3635.654	-52.25
3638.432	-62.25
3641.208	-67.92
3643.982	-74.25
3646.753	-74.25
3649.523	-87.25
3652.29	-89.92
3655.055	-96.58
3657.818	-104.25
3660.579	-112.25
3663.338	-124.25
3666.095	-128.25
3668.849	-134.58
3671.602	-133.58
3674.352	-142.92
3677.101	-143.25
3679.847	-145.92
3682.591	-149.92
3685.333	-158.58
3688.073	-158.25
3690.811	-170.92
3693.547	-168.25
3696.281	-170.58
3699.013	-173.92
3701.742	-179.25
3704.47	-180.58
3707.195	-180.25
3709.919	-183.25
3712.64	-188.58
3715.359	-189.92
3718.076	-188.92
3720.792	-195.25
3723.505	-197.25
3726.216	-192.25
3728.925	-199.25
3731.632	-200.92
3734.336	-203.92
3737.039	-204.25
3739.74	-204.25
3742.439	-212.58
3745.136	-213.92
3747.83	-207.58
3750.523	-209.92
3753.213	-220.58
3755.902	-216.92
3758.589	-219.58
3761.273	-213.58
3763.956	-213.92
3766.636	-215.25
3769.315	-215.92
3771.991	-220.25
3774.665	-219.25
3777.338	-219.92
3780.008	-221.58
3782.677	-223.92
3785.343	-226.92
3788.007	-227.92
3790.67	-222.58
3793.33	-224.58
3795.989	-224.25
3798.645	-224.25
3801.299	-230.92
3803.952	-231.92
3806.602	-230.25
3809.251	-228.92
3811.897	-229.25
3814.542	-230.58
3817.184	-230.25
3819.825	-229.58
3822.463	-230.92
3825.1	-232.92
3827.735	-231.92
3830.367	-232.92
3832.998	-234.25
3835.627	-235.58
3838.253	-231.25
3840.878	-235.92
3843.501	-232.58
3846.122	-235.92
3848.741	-236.58
3851.358	-238.58
3853.973	-240.25
3856.586	-237.92
3859.197	-237.58
3861.806	-234.92
3864.414	-233.58
3867.019	-240.25
3869.622	-232.92
3872.224	-229.25
3874.823	-221.92
3877.421	-204.25
3880.016	-187.25
3882.61	-172.92
3885.202	-170.92
3887.792	-191.25
3890.38	-210.92
3892.966	-225.25
3895.55	-237.92
3898.132	-237.58
3900.713	-240.58
3903.291	-243.58
3905.868	-247.25
3908.442	-244.58
3911.015	-243.58
3913.586	-243.25
3916.155	-246.92
3918.722	-245.92
3921.287	-245.92
3923.85	-246.25
3926.411	-249.58
3928.971	-243.92
3931.528	-244.25
3934.084	-249.25
3936.638	-247.58
3939.19	-248.25
3941.74	-242.58
3944.288	-242.58
3946.834	-246.58
3949.378	-244.92
3951.921	-247.25
3954.462	-244.92
3957	-238.58
3959.537	-240.92
3962.072	-244.25
3964.606	-246.92
3967.137	-242.25
3969.667	-244.25
3972.194	-241.25
3974.72	-244.25
3977.244	-244.92
3979.766	-242.92
3982.286	-241.25
3984.805	-239.58
3987.321	-241.92
3989.836	-241.25
3992.349	-238.25
3994.86	-236.25
3997.369	-239.58
3999.877	-238.25
4002.382	-238.92
4004.886	-238.92
4007.388	-241.92
4009.888	-236.25
4012.386	-238.25
4014.883	-240.92
4017.377	-241.92
4019.87	-240.58
4022.361	-242.92
4024.85	-241.25
4027.338	-242.25
4029.823	-240.25
4032.307	-242.25
4034.789	-239.92
4037.269	-239.92
4039.747	-243.58
4042.224	-239.25
4044.699	-242.25
4047.172	-242.25
4049.643	-241.25
4052.112	-245.92
4054.58	-246.58
4057.046	-241.58
4059.51	-245.25
4061.972	-240.92
4064.432	-245.25
4066.891	-243.92
4069.348	-243.92
4071.803	-241.58
4074.256	-240.92
4076.708	-239.92
4079.158	-241.58
4081.606	-239.25
4084.052	-240.58
4086.497	-241.25
4088.939	-241.25
4091.38	-237.92
4093.819	-243.58
4096.257	-249.25
4098.693	-247.58
4101.127	-246.58
4103.559	-245.92
4105.989	-126.92
4108.418	-121.25
4110.845	-114.92
4113.27	-104.58
4115.694	-94.58
4118.115	-69.92
4120.535	-238.25
4122.954	-242.25
4125.37	-237.25
4127.785	-243.25
4130.198	-249.58
4132.609	-369.58
4135.019	-246.92
4137.427	-249.25
4139.833	-245.92
4142.237	-249.58
