Data from dw_RamanShift_3.txt Node
Date: Mon Nov 06 13:44:58 IST 2017
User: aro
Spectrometer: QEPB0276
Trigger mode: 0
Integration Time (sec): 4.000000E1
Scans to average: 3
Electric dark correction enabled: true
Nonlinearity correction enabled: false
Boxcar width: 0
XAxis mode: Raman Shifts
Number of Pixels in Spectrum: 1044
>>>>>Begin Spectral Data<<<<<
160.701	-100.25
166.742	28.08
172.777	404.08
178.805	1617.42
184.826	4746.08
190.841	10433.08
196.849	17211.42
202.85	21889.08
208.845	23099.08
214.833	22459.08
220.815	21584.08
226.789	20968.42
232.758	20497.08
238.719	19923.42
244.674	19240.42
250.623	18492.75
256.565	17696.75
262.5	16929.42
268.429	16229.08
274.351	15623.42
280.267	15078.75
286.176	14615.75
292.079	14226.42
297.975	13841.42
303.865	13459.75
309.748	13167.08
315.625	12886.08
321.495	12697.42
327.359	12515.08
333.217	12386.75
339.068	12334.75
344.912	12248.08
350.751	12187.75
356.583	12163.42
362.408	12085.42
368.227	12126.08
374.04	12177.42
379.847	12360.08
385.647	12491.42
391.44	12473.42
397.228	12400.75
403.009	12430.08
408.784	12559.75
414.553	12886.08
420.315	13330.75
426.071	13409.42
431.821	12967.42
437.565	12562.42
443.302	12422.75
449.033	12330.75
454.758	12253.75
460.477	12204.75
466.189	12119.42
471.896	12057.42
477.596	11973.75
483.29	11876.42
488.978	11824.42
494.66	11753.75
500.335	11584.42
506.005	11400.75
511.668	11195.42
517.325	10966.08
522.977	10841.08
528.622	10688.08
534.261	10591.75
539.894	10474.42
545.521	10410.08
551.141	10371.42
556.756	10251.75
562.365	10202.42
567.968	10159.75
573.565	10085.75
579.155	10027.08
584.74	9961.42
590.319	9857.08
595.892	9772.42
601.459	9712.42
607.02	9595.75
612.575	9524.42
618.124	9399.75
623.667	9307.75
629.204	9231.08
634.735	9216.42
640.261	9202.08
645.781	9297.08
651.294	9312.42
656.802	9194.08
662.304	8999.42
667.8	8881.08
673.29	8818.08
678.775	8755.08
684.254	8715.42
689.726	8639.42
695.193	8585.08
700.655	8507.75
706.11	8424.75
711.56	8364.42
717.004	8322.42
722.442	8248.08
727.874	8202.08
733.301	8173.42
738.722	8153.08
744.137	8136.75
749.547	8127.42
754.951	8094.75
760.349	8062.08
765.741	7989.75
771.128	7922.42
776.509	7903.75
781.885	7869.08
787.254	7820.42
792.618	7778.08
797.977	7688.75
803.33	7614.75
808.677	7505.75
814.019	7451.75
819.355	7359.08
824.686	7274.75
830.011	7221.08
835.33	7192.75
840.644	7184.08
845.952	7131.08
851.255	7101.75
856.552	7049.42
861.844	6987.08
867.13	6931.08
872.41	6885.08
877.686	6790.08
882.955	6687.08
888.219	6593.08
893.478	6468.08
898.731	6356.08
903.979	6275.75
909.221	6201.75
914.458	6156.08
919.69	6139.08
924.916	6127.08
930.136	6102.08
935.351	6089.75
940.561	6093.42
945.766	6043.08
950.965	6004.42
956.158	5966.75
961.347	5853.42
966.529	5729.08
971.707	5660.08
976.879	5576.75
982.046	5547.08
987.208	5480.42
992.364	5477.75
997.515	5506.08
1002.66	5560.08
1007.801	5572.42
1012.936	5622.75
1018.066	5647.08
1023.19	5677.75
1028.309	5670.08
1033.423	5644.42
1038.532	5580.08
1043.636	5534.42
1048.734	5481.08
1053.827	5405.08
1058.915	5342.42
1063.998	5323.75
1069.075	5308.08
1074.147	5314.75
1079.214	5333.42
1084.276	5373.42
1089.333	5394.75
1094.385	5425.08
1099.431	5461.75
1104.472	5435.75
1109.509	5403.75
1114.54	5313.75
1119.565	5235.42
1124.586	5175.08
1129.602	5123.42
1134.613	5089.08
1139.618	5080.08
1144.619	5070.08
1149.614	5104.75
1154.604	5121.42
1159.589	5148.42
1164.57	5168.75
1169.545	5166.08
1174.515	5155.08
1179.48	5131.42
1184.44	5066.08
1189.395	5054.42
1194.345	5021.08
1199.29	4996.42
1204.23	4993.75
1209.165	5014.75
1214.095	5057.75
1219.021	5111.08
1223.941	5154.08
1228.856	5155.08
1233.766	5175.75
1238.672	5174.08
1243.572	5155.42
1248.467	5122.75
1253.358	5037.42
1258.244	4956.75
1263.124	4865.42
1268	4808.75
1272.871	4762.75
1277.737	4715.42
1282.599	4709.08
1287.455	4725.75
1292.306	4748.42
1297.153	4778.75
1301.995	4814.08
1306.832	4835.42
1311.664	4848.08
1316.491	4822.42
1321.314	4805.42
1326.132	4762.42
1330.945	4708.42
1335.753	4636.42
1340.556	4597.42
1345.354	4573.75
1350.148	4548.42
1354.937	4543.75
1359.722	4502.75
1364.501	4444.75
1369.276	4386.08
1374.046	4294.42
1378.811	4259.08
1383.572	4231.08
1388.327	4233.75
1393.079	4200.08
1397.825	4175.08
1402.567	4127.75
1407.304	4091.08
1412.036	4063.08
1416.764	4058.08
1421.487	4076.08
1426.205	4093.75
1430.919	4128.42
1435.628	4166.75
1440.333	4215.08
1445.032	4245.42
1449.727	4291.75
1454.418	4289.42
1459.104	4285.75
1463.785	4245.08
1468.462	4217.75
1473.134	4169.75
1477.802	4148.08
1482.465	4142.42
1487.123	4129.42
1491.777	4163.75
1496.426	4175.75
1501.071	4224.75
1505.711	4275.75
1510.347	4299.08
1514.978	4319.42
1519.604	4324.42
1524.226	4316.75
1528.844	4309.75
1533.457	4285.08
1538.065	4252.08
1542.669	4234.08
1547.269	4235.08
1551.864	4226.42
1556.454	4271.42
1561.041	4338.08
1565.622	4382.08
1570.199	4451.42
1574.772	4540.75
1579.34	4649.08
1583.904	4734.08
1588.464	4812.75
1593.019	4925.08
1597.569	4975.75
1602.115	5025.08
1606.657	5079.08
1611.195	5122.42
1615.728	5189.42
1620.256	5282.75
1624.78	5378.42
1629.3	5466.42
1633.816	5535.42
1638.327	5631.75
1642.834	5711.75
1647.336	5730.75
1651.834	5766.42
1656.328	5728.42
1660.817	5701.42
1665.302	5591.42
1669.783	5448.42
1674.259	5294.08
1678.732	5119.42
1683.199	4923.08
1687.663	4750.75
1692.122	4616.42
1696.577	4433.42
1701.028	4214.75
1705.474	3975.08
1709.917	3816.08
1714.355	3692.42
1718.788	3610.08
1723.218	3528.75
1727.643	3444.08
1732.064	3358.75
1736.481	3245.08
1740.893	3130.42
1745.301	3040.75
1749.705	2945.75
1754.105	2866.42
1758.501	2795.42
1762.893	2720.08
1767.28	2677.08
1771.663	2645.42
1776.042	2643.08
1780.417	2641.08
1784.787	2643.42
1789.154	2634.75
1793.516	2623.08
1797.874	2594.08
1802.228	2523.08
1806.578	2477.75
1810.924	2400.42
1815.266	2338.08
1819.603	2292.42
1823.937	2273.42
1828.266	2245.08
1832.591	2239.08
1836.913	2237.08
1841.23	2226.08
1845.543	2224.42
1849.852	2243.75
1854.156	2246.42
1858.457	2258.08
1862.754	2271.08
1867.047	2269.08
1871.335	2288.08
1875.62	2305.42
1879.9	2300.08
1884.177	2289.08
1888.449	2286.42
1892.718	2280.42
1896.982	2251.75
1901.243	2263.08
1905.499	2249.75
1909.752	2242.42
1914	2240.08
1918.245	2250.42
1922.485	2248.75
1926.722	2267.42
1930.954	2273.08
1935.183	2292.08
1939.408	2282.42
1943.628	2277.08
1947.845	2251.75
1952.058	2230.08
1956.267	2180.42
1960.472	2163.75
1964.673	2126.08
1968.87	2089.08
1973.063	2060.08
1977.252	2038.75
1981.438	2035.75
1985.619	2029.08
1989.797	2031.42
1993.971	2031.08
1998.14	2041.75
2002.306	2049.08
2006.469	2066.42
2010.627	2077.75
2014.781	2087.75
2018.932	2079.42
2023.078	2073.08
2027.221	2067.08
2031.36	2051.42
2035.495	2036.75
2039.627	2016.08
2043.754	2007.08
2047.878	1996.42
2051.998	2012.08
2056.114	2020.42
2060.226	2027.42
2064.334	2044.08
2068.439	2045.75
2072.54	2074.75
2076.637	2090.75
2080.73	2102.08
2084.82	2111.75
2088.906	2102.08
2092.988	2080.08
2097.066	2068.42
2101.14	2040.08
2105.211	2021.75
2109.278	1999.08
2113.342	1970.08
2117.401	1953.42
2121.457	1935.08
2125.509	1914.42
2129.558	1898.75
2133.602	1884.08
2137.643	1849.75
2141.681	1855.42
2145.714	1847.08
2149.744	1825.75
2153.77	1805.42
2157.793	1778.75
2161.812	1755.42
2165.827	1724.42
2169.838	1702.08
2173.846	1666.75
2177.851	1630.75
2181.851	1609.42
2185.848	1568.42
2189.841	1564.42
2193.831	1525.42
2197.817	1517.75
2201.799	1501.42
2205.778	1492.08
2209.753	1475.75
2213.725	1461.42
2217.693	1467.08
2221.657	1446.08
2225.618	1449.08
2229.575	1420.08
2233.529	1404.08
2237.479	1371.08
2241.425	1350.42
2245.368	1313.75
2249.307	1290.75
2253.243	1261.08
2257.175	1232.75
2261.104	1208.08
2265.029	1184.75
2268.95	1158.08
2272.868	1138.75
2276.783	1106.42
2280.694	1095.08
2284.601	1075.08
2288.505	1053.08
2292.405	1029.08
2296.302	1004.42
2300.195	986.42
2304.085	965.42
2307.971	946.08
2311.854	915.08
2315.734	889.08
2319.609	876.42
2323.482	838.75
2327.351	830.42
2331.216	816.75
2335.078	815.08
2338.937	795.08
2342.792	788.42
2346.643	784.08
2350.492	779.75
2354.336	781.75
2358.178	778.75
2362.015	781.42
2365.85	786.08
2369.681	774.08
2373.508	778.42
2377.333	768.08
2381.153	765.42
2384.971	764.42
2388.785	753.08
2392.595	751.42
2396.402	729.08
2400.206	728.08
2404.007	724.42
2407.804	718.08
2411.597	717.08
2415.388	706.42
2419.174	713.75
2422.958	700.08
2426.738	703.08
2430.515	693.75
2434.289	691.42
2438.059	683.42
2441.825	679.42
2445.589	674.08
2449.349	656.75
2453.106	642.75
2456.859	648.08
2460.61	631.42
2464.356	622.08
2468.1	620.08
2471.84	610.75
2475.577	608.75
2479.311	619.75
2483.041	609.08
2486.768	614.08
2490.492	614.75
2494.213	619.75
2497.93	606.75
2501.644	600.75
2505.355	604.42
2509.062	602.75
2512.766	590.75
2516.467	596.42
2520.165	589.42
2523.859	579.08
2527.551	569.08
2531.239	563.42
2534.923	559.08
2538.605	560.08
2542.283	550.08
2545.958	550.08
2549.63	553.75
2553.299	552.42
2556.964	541.08
2560.626	532.75
2564.285	526.08
2567.941	520.75
2571.594	510.75
2575.243	498.75
2578.89	492.75
2582.533	490.42
2586.173	478.08
2589.809	483.42
2593.443	458.75
2597.073	459.75
2600.701	452.08
2604.325	447.75
2607.946	447.42
2611.564	439.75
2615.178	440.75
2618.79	435.08
2622.398	430.08
2626.004	431.75
2629.606	412.75
2633.205	412.08
2636.801	410.42
2640.394	402.42
2643.983	397.08
2647.57	381.08
2651.153	385.42
2654.734	378.75
2658.311	371.75
2661.885	365.75
2665.456	362.75
2669.025	366.42
2672.589	365.75
2676.151	365.08
2679.71	358.08
2683.266	355.75
2686.819	344.42
2690.368	343.08
2693.915	341.08
2697.458	332.75
2700.999	333.42
2704.536	333.08
2708.071	330.08
2711.602	330.75
2715.13	330.75
2718.656	326.08
2722.178	330.75
2725.697	342.42
2729.214	347.75
2732.727	353.42
2736.237	356.08
2739.744	368.75
2743.249	364.08
2746.75	378.75
2750.248	370.75
2753.743	370.08
2757.236	373.42
2760.725	355.75
2764.211	348.42
2767.695	345.08
2771.175	340.42
2774.652	336.08
2778.127	337.42
2781.598	340.08
2785.067	342.42
2788.532	343.08
2791.995	353.42
2795.455	360.75
2798.911	376.42
2802.365	378.75
2805.816	390.42
2809.264	388.75
2812.709	397.42
2816.151	405.75
2819.59	404.08
2823.026	425.75
2826.46	426.75
2829.89	433.42
2833.318	426.42
2836.742	444.75
2840.164	449.42
2843.583	460.08
2846.999	470.08
2850.412	468.42
2853.822	492.08
2857.229	504.75
2860.634	510.75
2864.035	520.42
2867.434	532.42
2870.83	550.42
2874.223	552.42
2877.613	565.08
2881	578.42
2884.385	565.75
2887.766	579.08
2891.145	589.08
2894.521	591.75
2897.894	609.08
2901.264	616.42
2904.631	623.42
2907.996	634.42
2911.358	653.75
2914.717	669.08
2918.073	687.75
2921.426	700.42
2924.777	726.08
2928.124	748.75
2931.469	764.08
2934.811	793.08
2938.15	817.42
2941.487	839.08
2944.821	857.75
2948.152	878.42
2951.48	895.42
2954.805	908.42
2958.128	943.42
2961.447	965.42
2964.765	995.08
2968.079	1019.42
2971.39	1057.75
2974.699	1096.42
2978.005	1133.08
2981.308	1174.08
2984.609	1209.08
2987.907	1271.42
2991.202	1308.08
2994.494	1363.42
2997.784	1419.75
3001.07	1454.75
3004.355	1503.42
3007.636	1539.08
3010.915	1575.42
3014.191	1615.75
3017.464	1644.75
3020.734	1682.75
3024.002	1705.75
3027.267	1736.75
3030.53	1779.75
3033.789	1815.08
3037.046	1873.42
3040.301	1924.75
3043.552	1981.08
3046.801	2035.42
3050.048	2102.42
3053.291	2170.42
3056.532	2236.08
3059.771	2311.75
3063.006	2389.08
3066.239	2477.08
3069.469	2563.75
3072.697	2644.08
3075.922	2727.75
3079.144	2797.75
3082.364	2883.08
3085.581	2953.42
3088.795	3027.42
3092.007	3096.42
3095.216	3174.08
3098.423	3266.42
3101.627	3348.08
3104.828	3424.08
3108.026	3514.75
3111.222	3613.75
3114.416	3704.75
3117.607	3793.42
3120.795	3910.75
3123.98	4006.75
3127.163	4099.75
3130.344	4208.75
3133.521	4301.75
3136.696	4430.08
3139.869	4489.08
3143.039	4570.08
3146.206	4653.75
3149.371	4704.08
3152.533	4751.42
3155.693	4818.08
3158.85	4855.42
3162.005	4862.08
3165.157	4890.08
3168.306	4916.42
3171.453	4939.75
3174.597	4964.08
3177.739	4967.75
3180.878	5004.08
3184.014	5023.42
3187.149	5035.08
3190.28	5076.08
3193.409	5104.42
3196.536	5104.08
3199.659	5120.75
3202.781	5141.42
3205.9	5157.75
3209.016	5161.42
3212.13	5153.75
3215.241	5121.08
3218.35	5107.42
3221.456	5057.75
3224.56	5014.08
3227.661	4970.75
3230.76	4929.42
3233.856	4923.08
3236.95	4874.75
3240.041	4846.75
3243.13	4825.08
3246.216	4801.42
3249.3	4792.42
3252.382	4799.75
3255.46	4759.42
3258.537	4766.08
3261.611	4746.42
3264.682	4743.08
3267.751	4720.08
3270.818	4722.42
3273.882	4721.42
3276.943	4687.75
3280.002	4651.08
3283.059	4575.75
3286.113	4543.42
3289.165	4466.75
3292.214	4400.75
3295.261	4328.42
3298.306	4256.08
3301.348	4200.75
3304.387	4117.75
3307.425	4048.42
3310.459	4005.42
3313.492	3947.42
3316.521	3897.42
3319.549	3869.42
3322.574	3805.75
3325.597	3795.08
3328.617	3767.75
3331.635	3751.42
3334.65	3748.08
3337.663	3704.08
3340.674	3688.08
3343.682	3680.08
3346.688	3668.75
3349.691	3659.42
3352.692	3650.08
3355.691	3608.08
3358.687	3576.75
3361.681	3519.75
3364.673	3490.75
3367.662	3430.42
3370.649	3397.08
3373.633	3358.08
3376.615	3301.08
3379.595	3271.42
3382.572	3228.08
3385.547	3183.75
3388.52	3141.42
3391.49	3092.75
3394.458	3054.42
3397.424	3027.08
3400.387	2983.42
3403.348	2944.08
3406.307	2945.75
3409.263	2904.42
3412.217	2886.75
3415.168	2862.42
3418.118	2826.42
3421.065	2818.08
3424.009	2766.75
3426.951	2746.08
3429.891	2679.08
3432.829	2636.42
3435.764	2590.08
3438.697	2526.75
3441.628	2485.08
3444.557	2419.08
3447.483	2360.75
3450.407	2288.42
3453.328	2225.75
3456.247	2170.08
3459.164	2092.75
3462.079	2048.42
3464.991	1986.42
3467.902	1930.75
3470.809	1889.75
3473.715	1825.75
3476.618	1784.75
3479.519	1732.75
3482.418	1694.08
3485.315	1642.75
3488.209	1604.08
3491.101	1563.08
3493.99	1523.75
3496.878	1470.42
3499.763	1437.42
3502.646	1398.75
3505.527	1352.75
3508.405	1290.75
3511.281	1253.75
3514.155	1201.42
3517.027	1152.75
3519.897	1094.08
3522.764	1035.75
3525.629	985.42
3528.492	945.08
3531.352	888.75
3534.211	835.08
3537.067	788.75
3539.921	752.42
3542.773	705.42
3545.622	663.75
3548.469	631.08
3551.315	584.42
3554.157	545.08
3556.998	523.42
3559.837	487.08
3562.673	453.42
3565.507	432.42
3568.339	398.08
3571.169	382.75
3573.996	359.08
3576.822	323.08
3579.645	296.08
3582.466	270.08
3585.285	247.08
3588.101	215.42
3590.916	194.42
3593.728	172.08
3596.538	148.42
3599.346	125.75
3602.152	102.42
3604.956	79.42
3607.757	63.42
3610.556	36.08
3613.354	17.75
3616.149	4.75
3618.942	-16.25
3621.732	-25.58
3624.521	-48.58
3627.307	-59.92
3630.092	-69.58
3632.874	-82.25
3635.654	-96.92
3638.432	-111.58
3641.208	-119.92
3643.982	-132.58
3646.753	-145.25
3649.523	-163.25
3652.29	-167.92
3655.055	-185.25
3657.818	-197.92
3660.579	-210.58
3663.338	-226.25
3666.095	-236.25
3668.849	-241.25
3671.602	-253.58
3674.352	-269.25
3677.101	-270.58
3679.847	-282.92
3682.591	-291.92
3685.333	-297.58
3688.073	-308.58
3690.811	-318.58
3693.547	-323.92
3696.281	-326.92
3699.013	-328.92
3701.742	-336.92
3704.47	-346.92
3707.195	-344.92
3709.919	-352.25
3712.64	-359.25
3715.359	-360.25
3718.076	-367.58
3720.792	-374.25
3723.505	-376.92
3726.216	-376.58
3728.925	-383.25
3731.632	-383.92
3734.336	-386.92
3737.039	-396.92
3739.74	-394.92
3742.439	-401.58
3745.136	-403.58
3747.83	-404.92
3750.523	-403.58
3753.213	-409.92
3755.902	-412.25
3758.589	-415.58
3761.273	-414.58
3763.956	-417.25
3766.636	-415.58
3769.315	-419.25
3771.991	-424.25
3774.665	-424.92
3777.338	-426.58
3780.008	-426.25
3782.677	-430.58
3785.343	-430.25
3788.007	-433.58
3790.67	-434.92
3793.33	-437.58
3795.989	-435.58
3798.645	-438.58
3801.299	-437.92
3803.952	-438.58
3806.602	-440.92
3809.251	-441.92
3811.897	-444.58
3814.542	-444.58
3817.184	-443.25
3819.825	-443.92
3822.463	-446.92
3825.1	-448.58
3827.735	-446.92
3830.367	-447.58
3832.998	-451.58
3835.627	-451.92
3838.253	-449.25
3840.878	-453.25
3843.501	-450.58
3846.122	-454.58
3848.741	-455.92
3851.358	-456.92
3853.973	-456.92
3856.586	-460.25
3859.197	-454.25
3861.806	-455.58
3864.414	-451.58
3867.019	-456.92
3869.622	-450.58
3872.224	-447.92
3874.823	-436.92
3877.421	-420.92
3880.016	-404.92
3882.61	-389.25
3885.202	-385.58
3887.792	-408.25
3890.38	-427.92
3892.966	-446.58
3895.55	-458.58
3898.132	-463.25
3900.713	-463.25
3903.291	-465.58
3905.868	-467.58
3908.442	-465.25
3911.015	-468.92
3913.586	-470.25
3916.155	-469.92
3918.722	-469.58
3921.287	-469.58
3923.85	-468.92
3926.411	-471.25
3928.971	-469.92
3931.528	-468.25
3934.084	-461.58
3936.638	-473.92
3939.19	-472.25
3941.74	-472.92
3944.288	-472.92
3946.834	-472.58
3949.378	-469.92
3951.921	-472.58
3954.462	-473.92
3957	-465.58
3959.537	-464.25
3962.072	-467.58
3964.606	-469.25
3967.137	-467.25
3969.667	-467.25
3972.194	-466.25
3974.72	-468.25
3977.244	-463.58
3979.766	-462.92
3982.286	-459.58
3984.805	-461.92
3987.321	-460.58
3989.836	-456.58
3992.349	-459.58
3994.86	-459.92
3997.369	-459.92
3999.877	-460.58
4002.382	-459.25
4004.886	-464.92
4007.388	-466.25
4009.888	-459.25
4012.386	-461.25
4014.883	-466.25
4017.377	-463.58
4019.87	-463.25
4022.361	-465.25
4024.85	-461.92
4027.338	-463.25
4029.823	-465.25
4032.307	-466.58
4034.789	-465.58
4037.269	-466.58
4039.747	-466.25
4042.224	-462.58
4044.699	-469.58
4047.172	-466.58
4049.643	-470.58
4052.112	-468.92
4054.58	-469.92
4057.046	-464.92
4059.51	-466.58
4061.972	-463.25
4064.432	-471.25
4066.891	-468.92
4069.348	-468.58
4071.803	-465.25
4074.256	-468.92
4076.708	-464.25
4079.158	-463.92
4081.606	-466.92
4084.052	-466.58
4086.497	-465.58
4088.939	-467.25
4091.38	-463.92
4093.819	-466.25
4096.257	-489.25
4098.693	-485.25
4101.127	-485.58
4103.559	-482.58
4105.989	-281.25
4108.418	-263.92
4110.845	-249.25
4113.27	-224.92
4115.694	-201.58
4118.115	-160.25
4120.535	-463.92
4122.954	-469.58
4125.37	-465.25
4127.785	-467.25
4130.198	-472.25
4132.609	-592.92
4135.019	-485.58
4137.427	-488.58
4139.833	-485.58
4142.237	-489.58
