Data from dw_RamanShift_2.txt Node
Date: Mon Nov 06 13:40:58 IST 2017
User: aro
Spectrometer: QEPB0276
Trigger mode: 0
Integration Time (sec): 4.000000E1
Scans to average: 3
Electric dark correction enabled: true
Nonlinearity correction enabled: false
Boxcar width: 0
XAxis mode: Raman Shifts
Number of Pixels in Spectrum: 1044
>>>>>Begin Spectral Data<<<<<
160.701	-102.67
166.742	15
172.777	371.67
178.805	1528.33
184.826	4495.33
190.841	9861
196.849	16180.67
202.85	20538
208.845	21544.33
214.833	20856.33
220.815	20024
226.789	19426.33
232.758	18913.33
238.719	18342.67
244.674	17669.33
250.623	16934
256.565	16172.33
262.5	15443
268.429	14740
274.351	14146.33
280.267	13659.33
286.176	13184
292.079	12744.67
297.975	12364
303.865	12006
309.748	11719
315.625	11453.33
321.495	11245.33
327.359	11093
333.217	10982.33
339.068	10899.33
344.912	10837.67
350.751	10783
356.583	10742.33
362.408	10653.67
368.227	10704.67
374.04	10753.67
379.847	10908.33
385.647	11057.33
391.44	11029
397.228	10976.67
403.009	10990.33
408.784	11154.67
414.553	11485
420.315	11870
426.071	11911.67
431.821	11494.33
437.565	11135.67
443.302	11003
449.033	10906.33
454.758	10865
460.477	10774
466.189	10680
471.896	10646.67
477.596	10546.33
483.29	10457.67
488.978	10405.67
494.66	10342
500.335	10218
506.005	10050.67
511.668	9810.33
517.325	9659.67
522.977	9495.67
528.622	9381
534.261	9277
539.894	9172.33
545.521	9101.33
551.141	9013
556.756	8974.33
562.365	8907.67
567.968	8842.67
573.565	8788
579.155	8755.67
584.74	8656
590.319	8562.67
595.892	8500
601.459	8434.67
607.02	8349.33
612.575	8257.67
618.124	8174
623.667	8085.67
629.204	8048.67
634.735	7990.33
640.261	8031.67
645.781	8080.67
651.294	8098
656.802	7979.67
662.304	7810.33
667.8	7706.67
673.29	7644
678.775	7576.67
684.254	7524.67
689.726	7485
695.193	7431
700.655	7336
706.11	7284.33
711.56	7203
717.004	7148.67
722.442	7071.67
727.874	7057
733.301	7016.33
738.722	6994.67
744.137	7001.67
749.547	6983.33
754.951	6982.33
760.349	6954.67
765.741	6879
771.128	6854.33
776.509	6817
781.885	6807.67
787.254	6717.33
792.618	6693.67
797.977	6612.33
803.33	6559.67
808.677	6478.33
814.019	6416.67
819.355	6325
824.686	6283.67
830.011	6229
835.33	6171.33
840.644	6129.67
845.952	6099.67
851.255	6059
856.552	6022.33
861.844	5980.67
867.13	5911
872.41	5851.67
877.686	5779.33
882.955	5683
888.219	5605.33
893.478	5519.33
898.731	5395.33
903.979	5339
909.221	5271
914.458	5216
919.69	5189.33
924.916	5171.67
930.136	5178.33
935.351	5150
940.561	5144.67
945.766	5087.33
950.965	5065.33
956.158	4998.67
961.347	4918
966.529	4836.67
971.707	4771.67
976.879	4672.67
982.046	4639.67
987.208	4621.33
992.364	4610.33
997.515	4645.33
1002.66	4655
1007.801	4682.67
1012.936	4718
1018.066	4739.67
1023.19	4770.33
1028.309	4746.33
1033.423	4737
1038.532	4701.67
1043.636	4652.67
1048.734	4598.67
1053.827	4540.67
1058.915	4474.67
1063.998	4474.67
1069.075	4458
1074.147	4465.67
1079.214	4491
1084.276	4513.67
1089.333	4533.33
1094.385	4565.33
1099.431	4594.67
1104.472	4567.33
1109.509	4535.33
1114.54	4481
1119.565	4424.33
1124.586	4349.33
1129.602	4310.33
1134.613	4286
1139.618	4270.67
1144.619	4264
1149.614	4289.33
1154.604	4304.33
1159.589	4328.67
1164.57	4322.33
1169.545	4342.67
1174.515	4345.33
1179.48	4302.67
1184.44	4254.67
1189.395	4234.33
1194.345	4211.33
1199.29	4200.33
1204.23	4202
1209.165	4222.67
1214.095	4249.67
1219.021	4277.67
1223.941	4301
1228.856	4336.33
1233.766	4338
1238.672	4341.33
1243.572	4324.33
1248.467	4281.33
1253.358	4233.33
1258.244	4171.33
1263.124	4091.67
1268	4034.33
1272.871	3986.33
1277.737	3959
1282.599	3935.67
1287.455	3969.33
1292.306	3977.33
1297.153	3998.33
1301.995	4017.33
1306.832	4044.33
1311.664	4051
1316.491	4034
1321.314	4010
1326.132	3969.67
1330.945	3940.33
1335.753	3899.33
1340.556	3865.33
1345.354	3852.67
1350.148	3830.67
1354.937	3833
1359.722	3794.67
1364.501	3767.33
1369.276	3701.67
1374.046	3653
1378.811	3607
1383.572	3588.67
1388.327	3563.33
1393.079	3548
1397.825	3507.67
1402.567	3472.67
1407.304	3446
1412.036	3413.33
1416.764	3408.33
1421.487	3429.67
1426.205	3448
1430.919	3479
1435.628	3532
1440.333	3558.67
1445.032	3587.67
1449.727	3607.33
1454.418	3629.33
1459.104	3612
1463.785	3611.33
1468.462	3585
1473.134	3554.33
1477.802	3520.67
1482.465	3516.33
1487.123	3528.67
1491.777	3544.67
1496.426	3592.33
1501.071	3633.67
1505.711	3671
1510.347	3700.33
1514.978	3729
1519.604	3746.33
1524.226	3739.67
1528.844	3729.33
1533.457	3704.67
1538.065	3695.33
1542.669	3663
1547.269	3664.67
1551.864	3671.67
1556.454	3692.67
1561.041	3744.33
1565.622	3806
1570.199	3844
1574.772	3926
1579.34	4013.33
1583.904	4105
1588.464	4197
1593.019	4257.67
1597.569	4330.33
1602.115	4389
1606.657	4441.33
1611.195	4492.33
1615.728	4565.67
1620.256	4629.33
1624.78	4711
1629.3	4818
1633.816	4903.33
1638.327	4978.67
1642.834	5028.67
1647.336	5078.67
1651.834	5076.33
1656.328	5054.67
1660.817	4992.67
1665.302	4921.33
1669.783	4783.67
1674.259	4636.33
1678.732	4484.67
1683.199	4330.67
1687.663	4181.67
1692.122	4036.33
1696.577	3855
1701.028	3674.33
1705.474	3482
1709.917	3319
1714.355	3215
1718.788	3124.67
1723.218	3045
1727.643	2964.33
1732.064	2862
1736.481	2779.67
1740.893	2675
1745.301	2579
1749.705	2494
1754.105	2425
1758.501	2355.67
1762.893	2313
1767.28	2267.67
1771.663	2254
1776.042	2246
1780.417	2256.33
1784.787	2256
1789.154	2269.33
1793.516	2266
1797.874	2232.33
1802.228	2203.67
1806.578	2145.33
1810.924	2093.33
1815.266	2036
1819.603	1986.33
1823.937	1965.67
1828.266	1943
1832.591	1915
1836.913	1910
1841.23	1905.67
1845.543	1911
1849.852	1905.67
1854.156	1908.33
1858.457	1926
1862.754	1940.33
1867.047	1946
1871.335	1959.33
1875.62	1977.67
1879.9	1978.67
1884.177	1986
1888.449	1972
1892.718	1962.67
1896.982	1964.67
1901.243	1960
1905.499	1952.33
1909.752	1959.33
1914	1961
1918.245	1966.67
1922.485	1964.67
1926.722	1980.33
1930.954	1985.67
1935.183	1989.67
1939.408	2005.33
1943.628	1988.67
1947.845	1979.67
1952.058	1968.33
1956.267	1933
1960.472	1913
1964.673	1870.33
1968.87	1858
1973.063	1825.33
1977.252	1812
1981.438	1794.67
1985.619	1793.67
1989.797	1793
1993.971	1807.33
1998.14	1801
2002.306	1810
2006.469	1823.67
2010.627	1832
2014.781	1844
2018.932	1845.67
2023.078	1853.67
2027.221	1825
2031.36	1813.67
2035.495	1792.33
2039.627	1796
2043.754	1774.67
2047.878	1774.33
2051.998	1784.67
2056.114	1796
2060.226	1803.67
2064.334	1812.33
2068.439	1830
2072.54	1837.33
2076.637	1864.33
2080.73	1853
2084.82	1862.33
2088.906	1881.33
2092.988	1867.67
2097.066	1847.67
2101.14	1822
2105.211	1810.67
2109.278	1786.67
2113.342	1773
2117.401	1758
2121.457	1731.33
2125.509	1721
2129.558	1697.67
2133.602	1682.33
2137.643	1676
2141.681	1661
2145.714	1655.67
2149.744	1626.67
2153.77	1615
2157.793	1597.33
2161.812	1565.67
2165.827	1547.67
2169.838	1511.67
2173.846	1489.67
2177.851	1447
2181.851	1419.67
2185.848	1398.33
2189.841	1385
2193.831	1357.67
2197.817	1342.67
2201.799	1339.67
2205.778	1327.67
2209.753	1317.67
2213.725	1298.67
2217.693	1291.67
2221.657	1284.33
2225.618	1273.67
2229.575	1257
2233.529	1244.33
2237.479	1204
2241.425	1196.33
2245.368	1173.33
2249.307	1145.33
2253.243	1123.33
2257.175	1089.67
2261.104	1073.67
2265.029	1045
2268.95	1028.67
2272.868	1008
2276.783	999
2280.694	974.67
2284.601	950.67
2288.505	926
2292.405	917.33
2296.302	904
2300.195	884.33
2304.085	864.67
2307.971	829.67
2311.854	819
2315.734	792.67
2319.609	777.33
2323.482	755.33
2327.351	734
2331.216	728.67
2335.078	724
2338.937	699.67
2342.792	696
2346.643	700.33
2350.492	677.67
2354.336	690.67
2358.178	685.33
2362.015	676.33
2365.85	677
2369.681	679.67
2373.508	687.67
2377.333	674
2381.153	662.33
2384.971	671.67
2388.785	660.33
2392.595	643
2396.402	643
2400.206	637
2404.007	627.33
2407.804	626.67
2411.597	621.33
2415.388	620.33
2419.174	620
2422.958	604.67
2426.738	597.33
2430.515	596.67
2434.289	600.67
2438.059	592.67
2441.825	581.67
2445.589	576.33
2449.349	581
2453.106	558
2456.859	551.33
2460.61	549.67
2464.356	541
2468.1	531.67
2471.84	536
2475.577	538
2479.311	536.33
2483.041	534
2486.768	528
2490.492	541.33
2494.213	532.67
2497.93	541.33
2501.644	537
2505.355	539
2509.062	529
2512.766	534.67
2516.467	528.33
2520.165	526.33
2523.859	524.67
2527.551	519.33
2531.239	523
2534.923	515
2538.605	503.33
2542.283	498.67
2545.958	499.33
2549.63	506.33
2553.299	495
2556.964	493.67
2560.626	497.67
2564.285	481.33
2567.941	485.33
2571.594	476
2575.243	471.67
2578.89	462.33
2582.533	458.33
2586.173	455
2589.809	453
2593.443	439.33
2597.073	436.33
2600.701	431.67
2604.325	418.67
2607.946	431.33
2611.564	421.33
2615.178	411.67
2618.79	418.33
2622.398	411.33
2626.004	397.33
2629.606	397
2633.205	386.67
2636.801	387
2640.394	374
2643.983	374
2647.57	371
2651.153	356.33
2654.734	361.33
2658.311	349.33
2661.885	345.33
2665.456	347.67
2669.025	341.67
2672.589	346.33
2676.151	337.67
2679.71	329
2683.266	334
2686.819	323
2690.368	323.33
2693.915	318
2697.458	309.67
2700.999	314
2704.536	308.67
2708.071	306.33
2711.602	306.33
2715.13	298.33
2718.656	299
2722.178	302
2725.697	309.33
2729.214	317.33
2732.727	319.67
2736.237	332
2739.744	342.33
2743.249	339
2746.75	350.67
2750.248	352.67
2753.743	348
2757.236	340.33
2760.725	344.33
2764.211	336
2767.695	327
2771.175	318.33
2774.652	316.67
2778.127	319.67
2781.598	315.67
2785.067	313.67
2788.532	321
2791.995	323
2795.455	335.67
2798.911	336
2802.365	339
2805.816	346.67
2809.264	361.33
2812.709	358.67
2816.151	368.33
2819.59	365.33
2823.026	382.33
2826.46	378.33
2829.89	381.33
2833.318	388.67
2836.742	394.67
2840.164	411
2843.583	416.67
2846.999	428.67
2850.412	428.33
2853.822	446.67
2857.229	452.67
2860.634	465.33
2864.035	477
2867.434	486
2870.83	501.33
2874.223	508.67
2877.613	515
2881	527
2884.385	529.33
2887.766	531.33
2891.145	537.33
2894.521	550.33
2897.894	558
2901.264	567.67
2904.631	572.33
2907.996	595.67
2911.358	598
2914.717	623.67
2918.073	638.67
2921.426	649.33
2924.777	663.67
2928.124	683
2931.469	719.67
2934.811	734.33
2938.15	759
2941.487	782.67
2944.821	795
2948.152	822
2951.48	837.33
2954.805	848.67
2958.128	880
2961.447	902
2964.765	926
2968.079	967.67
2971.39	993
2974.699	1025.33
2978.005	1069.33
2981.308	1098.67
2984.609	1139.33
2987.907	1187.67
2991.202	1235.33
2994.494	1269
2997.784	1312
3001.07	1362
3004.355	1400.33
3007.636	1444
3010.915	1485.33
3014.191	1512.67
3017.464	1526.33
3020.734	1563.67
3024.002	1597.33
3027.267	1623.33
3030.53	1662.67
3033.789	1693.67
3037.046	1741
3040.301	1799.33
3043.552	1849.67
3046.801	1900.33
3050.048	1955
3053.291	2033.33
3056.532	2113.33
3059.771	2172
3063.006	2243
3066.239	2318.33
3069.469	2411.67
3072.697	2484.67
3075.922	2562.67
3079.144	2638
3082.364	2710
3085.581	2797.33
3088.795	2856.33
3092.007	2923.67
3095.216	3010.67
3098.423	3073.67
3101.627	3160
3104.828	3246.67
3108.026	3336
3111.222	3409.33
3114.416	3499.67
3117.607	3596
3120.795	3681.33
3123.98	3765.33
3127.163	3872
3130.344	3970.67
3133.521	4066.67
3136.696	4179
3139.869	4244.67
3143.039	4347.33
3146.206	4395.33
3149.371	4453.33
3152.533	4499.33
3155.693	4547.67
3158.85	4566.67
3162.005	4596
3165.157	4607
3168.306	4642.33
3171.453	4650.33
3174.597	4675.33
3177.739	4702.33
3180.878	4698
3184.014	4710
3187.149	4713
3190.28	4753
3193.409	4761.67
3196.536	4781.67
3199.659	4808.67
3202.781	4815.33
3205.9	4825.33
3209.016	4842.67
3212.13	4832.33
3215.241	4801.67
3218.35	4768.33
3221.456	4729.67
3224.56	4699.33
3227.661	4659
3230.76	4620.33
3233.856	4591.33
3236.95	4544.67
3240.041	4523
3243.13	4507.33
3246.216	4490
3249.3	4459.33
3252.382	4469.33
3255.46	4451.33
3258.537	4441.67
3261.611	4435
3264.682	4431
3267.751	4421.67
3270.818	4394.67
3273.882	4373
3276.943	4353.67
3280.002	4316.33
3283.059	4271.67
3286.113	4200.33
3289.165	4144.67
3292.214	4098.67
3295.261	4021.33
3298.306	3968.67
3301.348	3891
3304.387	3821.33
3307.425	3749.67
3310.459	3724
3313.492	3675.67
3316.521	3644.67
3319.549	3583
3322.574	3559
3325.597	3537
3328.617	3514.67
3331.635	3499.67
3334.65	3487
3337.663	3461.67
3340.674	3446.67
3343.682	3452.33
3346.688	3438.67
3349.691	3423
3352.692	3404
3355.691	3392.67
3358.687	3362.33
3361.681	3322
3364.673	3267.67
3367.662	3234.33
3370.649	3189.33
3373.633	3134
3376.615	3107.67
3379.595	3071.33
3382.572	3029.33
3385.547	2985.67
3388.52	2957.33
3391.49	2927.67
3394.458	2881.33
3397.424	2846.33
3400.387	2812.33
3403.348	2794
3406.307	2770.67
3409.263	2734
3412.217	2704.67
3415.168	2670.33
3418.118	2666.67
3421.065	2632
3424.009	2599.33
3426.951	2566.33
3429.891	2532.67
3432.829	2486
3435.764	2447.67
3438.697	2378.67
3441.628	2344.67
3444.557	2275.33
3447.483	2205.67
3450.407	2139.33
3453.328	2093.67
3456.247	2035
3459.164	1988.67
3462.079	1909.67
3464.991	1862
3467.902	1820
3470.809	1768
3473.715	1715.33
3476.618	1660.33
3479.519	1608.33
3482.418	1574
3485.315	1534.67
3488.209	1496.67
3491.101	1455.33
3493.99	1413.67
3496.878	1374.67
3499.763	1339
3502.646	1299.67
3505.527	1259.67
3508.405	1212.33
3511.281	1155
3514.155	1116.67
3517.027	1061
3519.897	1004.33
3522.764	964.33
3525.629	914.33
3528.492	867.67
3531.352	816.67
3534.211	769.33
3537.067	730.33
3539.921	696.33
3542.773	648
3545.622	610.33
3548.469	572.67
3551.315	544.33
3554.157	508
3556.998	487
3559.837	462.33
3562.673	429.67
3565.507	394.67
3568.339	368.33
3571.169	355.33
3573.996	320.33
3576.822	300.67
3579.645	276.67
3582.466	254.67
3585.285	224
3588.101	203.67
3590.916	187
3593.728	154.67
3596.538	139.67
3599.346	113.67
3602.152	95.67
3604.956	78.33
3607.757	55
3610.556	31.67
3613.354	20.67
3616.149	7.67
3618.942	-11
3621.732	-24.33
3624.521	-40.67
3627.307	-52.33
3630.092	-64.67
3632.874	-74.67
3635.654	-87.67
3638.432	-99.67
3641.208	-111.67
3643.982	-122.33
3646.753	-135
3649.523	-144.33
3652.29	-158.33
3655.055	-168
3657.818	-176.67
3660.579	-191
3663.338	-203
3666.095	-214.33
3668.849	-223.67
3671.602	-231
3674.352	-239.67
3677.101	-252
3679.847	-257.67
3682.591	-267.67
3685.333	-278.33
3688.073	-282.33
3690.811	-291.67
3693.547	-294.33
3696.281	-297.33
3699.013	-301.67
3701.742	-311
3704.47	-315.67
3707.195	-318
3709.919	-323.33
3712.64	-327
3715.359	-329.67
3718.076	-339.33
3720.792	-345.67
3723.505	-345.33
3726.216	-354
3728.925	-351.67
3731.632	-355.33
3734.336	-358.67
3737.039	-363
3739.74	-365.33
3742.439	-368.33
3745.136	-371.67
3747.83	-370
3750.523	-374.33
3753.213	-379
3755.902	-377.33
3758.589	-381.33
3761.273	-381
3763.956	-382.33
3766.636	-383
3769.315	-391
3771.991	-388.67
3774.665	-391
3777.338	-391.67
3780.008	-391
3782.677	-393
3785.343	-392.33
3788.007	-397
3790.67	-398.67
3793.33	-399.67
3795.989	-396.67
3798.645	-403
3801.299	-402
3803.952	-402.67
3806.602	-407.33
3809.251	-406
3811.897	-405.33
3814.542	-406
3817.184	-407
3819.825	-410.33
3822.463	-411
3825.1	-413.67
3827.735	-412.67
3830.367	-408.33
3832.998	-416.67
3835.627	-415.67
3838.253	-413.33
3840.878	-415.67
3843.501	-417.67
3846.122	-416.33
3848.741	-420.33
3851.358	-422
3853.973	-418.67
3856.586	-422.33
3859.197	-420
3861.806	-420.67
3864.414	-418.33
3867.019	-420.33
3869.622	-416.67
3872.224	-412.33
3874.823	-405
3877.421	-395.67
3880.016	-385
3882.61	-367.67
3885.202	-371
3887.792	-386.67
3890.38	-406
3892.966	-417
3895.55	-421.33
3898.132	-427.67
3900.713	-429.33
3903.291	-431.33
3905.868	-430
3908.442	-430.33
3911.015	-432
3913.586	-434.67
3916.155	-435.67
3918.722	-435.33
3921.287	-432
3923.85	-433
3926.411	-434
3928.971	-436.67
3931.528	-434.33
3934.084	-437
3936.638	-433.67
3939.19	-435
3941.74	-433.33
3944.288	-437.67
3946.834	-436.67
3949.378	-437.67
3951.921	-434.67
3954.462	-434
3957	-433.33
3959.537	-432.67
3962.072	-432.67
3964.606	-432
3967.137	-431
3969.667	-434
3972.194	-432
3974.72	-432
3977.244	-426.33
3979.766	-428.33
3982.286	-424.67
3984.805	-424.33
3987.321	-430.67
3989.836	-427.67
3992.349	-425
3994.86	-423.67
3997.369	-422.67
3999.877	-427.33
4002.382	-423.33
4004.886	-426
4007.388	-425.33
4009.888	-426.67
4012.386	-425.33
4014.883	-430.33
4017.377	-430
4019.87	-432
4022.361	-427.67
4024.85	-429
4027.338	-429.67
4029.823	-428.33
4032.307	-431
4034.789	-428
4037.269	-429.33
4039.747	-432.33
4042.224	-431.67
4044.699	-433.67
4047.172	-430.67
4049.643	-437.33
4052.112	-433.33
4054.58	-432
4057.046	-429.67
4059.51	-433.33
4061.972	-430.33
4064.432	-432.33
4066.891	-434
4069.348	-433.33
4071.803	-431.67
4074.256	-430
4076.708	-430.67
4079.158	-430
4081.606	-431
4084.052	-432
4086.497	-431.33
4088.939	-433
4091.38	-429
4093.819	-430.33
4096.257	-453.33
4098.693	-453.67
4101.127	-451.33
4103.559	-450.67
4105.989	-274.67
4108.418	-264.67
4110.845	-248.67
4113.27	-226.67
4115.694	-203.67
4118.115	-162.67
4120.535	-429.33
4122.954	-433
4125.37	-433
4127.785	-431.33
4130.198	-439
4132.609	-558
4135.019	-453
4137.427	-453
4139.833	-453.67
4142.237	-452.67
