Data from dw_RamanShift_4.txt Node
Date: Mon Nov 06 13:48:58 IST 2017
User: aro
Spectrometer: QEPB0276
Trigger mode: 0
Integration Time (sec): 4.000000E1
Scans to average: 3
Electric dark correction enabled: true
Nonlinearity correction enabled: false
Boxcar width: 0
XAxis mode: Raman Shifts
Number of Pixels in Spectrum: 1044
>>>>>Begin Spectral Data<<<<<
160.701	-95.12
166.742	30.88
172.777	386.88
178.805	1555.54
184.826	4533.21
190.841	10029.21
196.849	16582.54
202.85	21117.21
208.845	22343.87
214.833	21627.54
220.815	20778.54
226.789	20131.88
232.758	19631.88
238.719	19052.54
244.674	18337.21
250.623	17556.21
256.565	16783.88
262.5	16025.54
268.429	15297.54
274.351	14744.54
280.267	14161.21
286.176	13664.21
292.079	13231.21
297.975	12838.21
303.865	12509.88
309.748	12203.88
315.625	11922.54
321.495	11734.21
327.359	11576.21
333.217	11439.21
339.068	11393.21
344.912	11315.21
350.751	11237.88
356.583	11180.88
362.408	11121.88
368.227	11183.21
374.04	11243.88
379.847	11352.21
385.647	11515.21
391.44	11473.88
397.228	11418.54
403.009	11467.21
408.784	11598.21
414.553	11926.21
420.315	12316.88
426.071	12379.88
431.821	11985.21
437.565	11558.21
443.302	11461.54
449.033	11350.54
454.758	11292.88
460.477	11214.21
466.189	11170.54
471.896	11065.88
477.596	10993.21
483.29	10919.88
488.978	10855.88
494.66	10778.21
500.335	10627.54
506.005	10432.54
511.668	10225.88
517.325	10022.21
522.977	9861.88
528.622	9759.88
534.261	9632.88
539.894	9500.54
545.521	9414.54
551.141	9353.88
556.756	9273.21
562.365	9213.88
567.968	9130.21
573.565	9098.54
579.155	9018.21
584.74	8964.21
590.319	8870.21
595.892	8769.54
601.459	8725.88
607.02	8642.21
612.575	8520.88
618.124	8427.21
623.667	8341.88
629.204	8269.88
634.735	8239.21
640.261	8268.54
645.781	8326.54
651.294	8346.21
656.802	8204.54
662.304	8044.88
667.8	7933.54
673.29	7870.54
678.775	7808.54
684.254	7748.88
689.726	7687.88
695.193	7614.54
700.655	7552.88
706.11	7494.88
711.56	7389.54
717.004	7343.88
722.442	7298.54
727.874	7266.88
733.301	7223.54
738.722	7172.88
744.137	7175.21
749.547	7149.21
754.951	7129.21
760.349	7103.54
765.741	7039.54
771.128	6983.21
776.509	6954.54
781.885	6922.54
787.254	6871.88
792.618	6832.54
797.977	6760.21
803.33	6684.21
808.677	6593.21
814.019	6519.88
819.355	6445.21
824.686	6333.21
830.011	6313.54
835.33	6279.54
840.644	6225.88
845.952	6179.54
851.255	6142.21
856.552	6089.88
861.844	6046.54
867.13	5971.54
872.41	5915.21
877.686	5816.21
882.955	5707.21
888.219	5631.88
893.478	5523.54
898.731	5414.54
903.979	5328.88
909.221	5280.88
914.458	5245.21
919.69	5197.21
924.916	5182.54
930.136	5192.54
935.351	5152.88
940.561	5104.54
945.766	5077.54
950.965	5046.88
956.158	4970.88
961.347	4899.21
966.529	4828.21
971.707	4745.21
976.879	4659.21
982.046	4611.88
987.208	4579.21
992.364	4558.21
997.515	4606.21
1002.66	4617.88
1007.801	4650.54
1012.936	4683.21
1018.066	4712.21
1023.19	4721.21
1028.309	4715.54
1033.423	4694.88
1038.532	4650.54
1043.636	4579.54
1048.734	4529.88
1053.827	4495.21
1058.915	4422.21
1063.998	4417.88
1069.075	4396.54
1074.147	4412.54
1079.214	4421.54
1084.276	4447.54
1089.333	4470.88
1094.385	4497.21
1099.431	4521.54
1104.472	4486.54
1109.509	4449.54
1114.54	4376.54
1119.565	4313.54
1124.586	4259.88
1129.602	4221.88
1134.613	4186.54
1139.618	4183.21
1144.619	4182.88
1149.614	4216.21
1154.604	4220.21
1159.589	4244.54
1164.57	4261.88
1169.545	4243.88
1174.515	4257.21
1179.48	4222.21
1184.44	4180.54
1189.395	4163.54
1194.345	4129.21
1199.29	4118.88
1204.23	4104.21
1209.165	4113.21
1214.095	4142.88
1219.021	4173.88
1223.941	4211.54
1228.856	4245.21
1233.766	4240.54
1238.672	4240.54
1243.572	4234.54
1248.467	4183.88
1253.358	4127.88
1258.244	4068.87
1263.124	3983.88
1268	3939.88
1272.871	3897.54
1277.737	3864.54
1282.599	3853.88
1287.455	3858.54
1292.306	3881.88
1297.153	3893.21
1301.995	3926.54
1306.832	3948.54
1311.664	3954.88
1316.491	3948.88
1321.314	3910.88
1326.132	3868.21
1330.945	3835.21
1335.753	3769.21
1340.556	3755.88
1345.354	3712.21
1350.148	3676.88
1354.937	3647.21
1359.722	3616.88
1364.501	3555.88
1369.276	3516.88
1374.046	3478.21
1378.811	3467.54
1383.572	3430.88
1388.327	3402.21
1393.079	3387.54
1397.825	3340.54
1402.567	3312.88
1407.304	3283.54
1412.036	3265.88
1416.764	3280.54
1421.487	3275.21
1426.205	3292.88
1430.919	3323.54
1435.628	3362.21
1440.333	3398.88
1445.032	3404.54
1449.727	3447.54
1454.418	3446.88
1459.104	3439.88
1463.785	3405.21
1468.462	3383.54
1473.134	3341.54
1477.802	3344.21
1482.465	3324.54
1487.123	3307.21
1491.777	3319.88
1496.426	3352.54
1501.071	3390.88
1505.711	3422.54
1510.347	3433.21
1514.978	3454.21
1519.604	3471.54
1524.226	3460.88
1528.844	3452.54
1533.457	3416.88
1538.065	3414.54
1542.669	3415.54
1547.269	3403.88
1551.864	3431.54
1556.454	3469.54
1561.041	3525.54
1565.622	3576.88
1570.199	3658.54
1574.772	3727.21
1579.34	3834.54
1583.904	3930.54
1588.464	4024.21
1593.019	4106.54
1597.569	4165.54
1602.115	4247.88
1606.657	4304.54
1611.195	4364.21
1615.728	4444.88
1620.256	4524.88
1624.78	4643.54
1629.3	4716.88
1633.816	4808.88
1638.327	4881.54
1642.834	4967.54
1647.336	4984.54
1651.834	5020.21
1656.328	4976.88
1660.817	4930.88
1665.302	4808.21
1669.783	4678.54
1674.259	4550.54
1678.732	4365.21
1683.199	4192.21
1687.663	4013.21
1692.122	3843.21
1696.577	3660.21
1701.028	3444.21
1705.474	3262.54
1709.917	3094.54
1714.355	2968.88
1718.788	2859.88
1723.218	2770.21
1727.643	2703.21
1732.064	2608.54
1736.481	2510.21
1740.893	2409.88
1745.301	2318.54
1749.705	2218.54
1754.105	2135.88
1758.501	2055.88
1762.893	2024.88
1767.28	1969.21
1771.663	1936.88
1776.042	1914.54
1780.417	1907.54
1784.787	1897.54
1789.154	1886.88
1793.516	1871.54
1797.874	1831.88
1802.228	1789.88
1806.578	1724.88
1810.924	1654.88
1815.266	1624.88
1819.603	1608.54
1823.937	1583.21
1828.266	1569.88
1832.591	1567.21
1836.913	1558.88
1841.23	1554.21
1845.543	1572.88
1849.852	1566.21
1854.156	1578.54
1858.457	1585.21
1862.754	1590.21
1867.047	1594.21
1871.335	1615.88
1875.62	1604.21
1879.9	1615.21
1884.177	1607.88
1888.449	1614.88
1892.718	1586.88
1896.982	1584.54
1901.243	1582.88
1905.499	1566.54
1909.752	1575.88
1914	1570.21
1918.245	1582.21
1922.485	1585.88
1926.722	1592.88
1930.954	1594.54
1935.183	1595.54
1939.408	1588.21
1943.628	1582.54
1947.845	1564.88
1952.058	1536.88
1956.267	1512.88
1960.472	1494.54
1964.673	1460.88
1968.87	1438.88
1973.063	1417.54
1977.252	1416.54
1981.438	1424.88
1985.619	1413.54
1989.797	1418.88
1993.971	1431.54
1998.14	1430.21
2002.306	1449.88
2006.469	1465.88
2010.627	1474.21
2014.781	1469.54
2018.932	1473.21
2023.078	1470.88
2027.221	1464.88
2031.36	1454.54
2035.495	1440.88
2039.627	1448.21
2043.754	1440.21
2047.878	1441.54
2051.998	1439.54
2056.114	1454.21
2060.226	1459.21
2064.334	1483.21
2068.439	1494.54
2072.54	1521.88
2076.637	1520.88
2080.73	1538.21
2084.82	1545.88
2088.906	1544.54
2092.988	1527.21
2097.066	1516.88
2101.14	1499.88
2105.211	1472.54
2109.278	1444.88
2113.342	1429.88
2117.401	1415.54
2121.457	1402.21
2125.509	1384.88
2129.558	1366.54
2133.602	1367.88
2137.643	1355.54
2141.681	1344.54
2145.714	1327.21
2149.744	1313.88
2153.77	1298.21
2157.793	1286.21
2161.812	1262.54
2165.827	1239.21
2169.838	1219.21
2173.846	1192.88
2177.851	1152.88
2181.851	1140.88
2185.848	1116.88
2189.841	1101.88
2193.831	1073.54
2197.817	1068.88
2201.799	1049.21
2205.778	1040.88
2209.753	1030.21
2213.725	1021.88
2217.693	1011.54
2221.657	1001.21
2225.618	993.54
2229.575	978.21
2233.529	973.54
2237.479	936.88
2241.425	917.21
2245.368	884.54
2249.307	873.88
2253.243	849.88
2257.175	821.21
2261.104	813.88
2265.029	782.88
2268.95	762.88
2272.868	748.54
2276.783	723.88
2280.694	710.21
2284.601	701.88
2288.505	689.54
2292.405	672.21
2296.302	644.88
2300.195	633.54
2304.085	617.54
2307.971	596.21
2311.854	588.21
2315.734	564.54
2319.609	541.21
2323.482	527.54
2327.351	506.21
2331.216	514.54
2335.078	521.54
2338.937	492.21
2342.792	496.21
2346.643	485.21
2350.492	476.21
2354.336	477.88
2358.178	485.21
2362.015	485.88
2365.85	482.54
2369.681	483.21
2373.508	479.54
2377.333	480.21
2381.153	465.21
2384.971	472.54
2388.785	460.54
2392.595	453.54
2396.402	452.54
2400.206	445.21
2404.007	438.88
2407.804	445.88
2411.597	438.88
2415.388	430.21
2419.174	427.54
2422.958	417.88
2426.738	413.21
2430.515	417.21
2434.289	408.54
2438.059	401.21
2441.825	398.54
2445.589	401.21
2449.349	384.88
2453.106	378.88
2456.859	380.54
2460.61	373.88
2464.356	371.21
2468.1	359.88
2471.84	357.21
2475.577	352.88
2479.311	355.88
2483.041	351.21
2486.768	351.21
2490.492	345.54
2494.213	352.54
2497.93	349.21
2501.644	342.54
2505.355	346.54
2509.062	339.88
2512.766	340.88
2516.467	344.88
2520.165	324.54
2523.859	326.21
2527.551	317.88
2531.239	321.88
2534.923	314.88
2538.605	313.54
2542.283	305.88
2545.958	299.21
2549.63	294.21
2553.299	301.21
2556.964	301.21
2560.626	286.21
2564.285	281.21
2567.941	275.21
2571.594	276.54
2575.243	262.21
2578.89	256.21
2582.533	252.88
2586.173	254.21
2589.809	240.54
2593.443	236.54
2597.073	228.54
2600.701	216.21
2604.325	211.54
2607.946	214.88
2611.564	204.21
2615.178	203.21
2618.79	209.88
2622.398	199.54
2626.004	192.88
2629.606	198.21
2633.205	188.88
2636.801	187.54
2640.394	179.54
2643.983	180.88
2647.57	175.88
2651.153	176.21
2654.734	167.88
2658.311	166.21
2661.885	160.21
2665.456	157.21
2669.025	154.88
2672.589	157.21
2676.151	155.54
2679.71	149.54
2683.266	154.21
2686.819	147.21
2690.368	147.21
2693.915	143.21
2697.458	136.21
2700.999	137.54
2704.536	135.54
2708.071	134.54
2711.602	137.21
2715.13	132.88
2718.656	133.54
2722.178	138.21
2725.697	137.88
2729.214	148.54
2732.727	148.21
2736.237	162.21
2739.744	164.21
2743.249	164.21
2746.75	167.21
2750.248	170.54
2753.743	168.21
2757.236	164.88
2760.725	157.21
2764.211	154.54
2767.695	152.21
2771.175	147.21
2774.652	154.54
2778.127	158.21
2781.598	152.88
2785.067	159.21
2788.532	165.21
2791.995	182.21
2795.455	188.21
2798.911	199.54
2802.365	207.21
2805.816	215.54
2809.264	222.88
2812.709	236.88
2816.151	237.88
2819.59	235.54
2823.026	248.54
2826.46	256.88
2829.89	269.21
2833.318	270.88
2836.742	274.88
2840.164	282.88
2843.583	303.54
2846.999	304.88
2850.412	320.88
2853.822	335.21
2857.229	343.21
2860.634	352.88
2864.035	366.21
2867.434	375.54
2870.83	390.21
2874.223	405.88
2877.613	401.54
2881	421.54
2884.385	419.88
2887.766	433.54
2891.145	436.21
2894.521	453.54
2897.894	473.21
2901.264	479.88
2904.631	487.21
2907.996	508.21
2911.358	517.21
2914.717	537.88
2918.073	551.54
2921.426	575.54
2924.777	592.54
2928.124	621.54
2931.469	644.88
2934.811	664.54
2938.15	693.88
2941.487	723.21
2944.821	745.88
2948.152	763.88
2951.48	781.21
2954.805	797.88
2958.128	833.21
2961.447	860.21
2964.765	889.88
2968.079	921.54
2971.39	966.21
2974.699	993.88
2978.005	1039.88
2981.308	1072.21
2984.609	1125.54
2987.907	1163.21
2991.202	1225.54
2994.494	1260.54
2997.784	1312.21
3001.07	1351.88
3004.355	1409.21
3007.636	1448.88
3010.915	1486.88
3014.191	1517.54
3017.464	1557.88
3020.734	1591.54
3024.002	1618.54
3027.267	1654.88
3030.53	1705.88
3033.789	1755.88
3037.046	1788.88
3040.301	1836.21
3043.552	1912.21
3046.801	1950.21
3050.048	2034.88
3053.291	2112.54
3056.532	2190.21
3059.771	2253.54
3063.006	2346.88
3066.239	2437.54
3069.469	2520.21
3072.697	2612.88
3075.922	2675.54
3079.144	2762.54
3082.364	2856.21
3085.581	2929.88
3088.795	3001.21
3092.007	3091.54
3095.216	3160.21
3098.423	3256.54
3101.627	3353.54
3104.828	3441.88
3108.026	3513.21
3111.222	3622.88
3114.416	3722.88
3117.607	3817.21
3120.795	3907.21
3123.98	4002.21
3127.163	4113.88
3130.344	4245.54
3133.521	4332.21
3136.696	4448.54
3139.869	4507.21
3143.039	4617.54
3146.206	4687.88
3149.371	4737.88
3152.533	4801.54
3155.693	4830.54
3158.85	4875.88
3162.005	4903.21
3165.157	4933.21
3168.306	4961.54
3171.453	4972.21
3174.597	4991.21
3177.739	5023.21
3180.878	5040.54
3184.014	5065.54
3187.149	5073.88
3190.28	5108.88
3193.409	5116.54
3196.536	5141.21
3199.659	5165.21
3202.781	5205.21
3205.9	5190.54
3209.016	5213.88
3212.13	5209.88
3215.241	5167.21
3218.35	5144.88
3221.456	5106.21
3224.56	5077.54
3227.661	5043.54
3230.76	4993.88
3233.856	4954.21
3236.95	4943.21
3240.041	4923.21
3243.13	4893.88
3246.216	4860.88
3249.3	4854.88
3252.382	4843.88
3255.46	4828.21
3258.537	4814.54
3261.611	4807.54
3264.682	4799.54
3267.751	4779.21
3270.818	4777.54
3273.882	4723.21
3276.943	4707.88
3280.002	4668.54
3283.059	4608.54
3286.113	4535.88
3289.165	4486.21
3292.214	4407.54
3295.261	4338.21
3298.306	4259.21
3301.348	4180.21
3304.387	4104.21
3307.425	4074.54
3310.459	4016.54
3313.492	3969.21
3316.521	3905.21
3319.549	3869.21
3322.574	3823.54
3325.597	3797.54
3328.617	3779.54
3331.635	3750.21
3334.65	3754.88
3337.663	3732.21
3340.674	3713.21
3343.682	3702.88
3346.688	3696.88
3349.691	3677.88
3352.692	3651.21
3355.691	3614.21
3358.687	3596.88
3361.681	3562.54
3364.673	3498.54
3367.662	3463.88
3370.649	3418.21
3373.633	3383.21
3376.615	3335.54
3379.595	3291.88
3382.572	3248.54
3385.547	3221.21
3388.52	3173.88
3391.49	3131.88
3394.458	3093.21
3397.424	3052.54
3400.387	3014.88
3403.348	2987.21
3406.307	2970.88
3409.263	2950.54
3412.217	2922.21
3415.168	2898.88
3418.118	2860.21
3421.065	2840.88
3424.009	2812.88
3426.951	2770.88
3429.891	2722.54
3432.829	2672.54
3435.764	2610.21
3438.697	2564.54
3441.628	2507.54
3444.557	2448.21
3447.483	2382.54
3450.407	2315.88
3453.328	2265.21
3456.247	2202.21
3459.164	2143.54
3462.079	2079.21
3464.991	2024.21
3467.902	1968.54
3470.809	1908.88
3473.715	1860.21
3476.618	1803.54
3479.519	1765.54
3482.418	1712.54
3485.315	1672.88
3488.209	1634.54
3491.101	1583.54
3493.99	1553.88
3496.878	1506.54
3499.763	1459.54
3502.646	1419.54
3505.527	1367.21
3508.405	1314.54
3511.281	1259.21
3514.155	1202.21
3517.027	1158.54
3519.897	1101.54
3522.764	1057.88
3525.629	994.21
3528.492	958.88
3531.352	895.88
3534.211	846.54
3537.067	793.88
3539.921	762.88
3542.773	714.88
3545.622	675.21
3548.469	633.54
3551.315	589.88
3554.157	560.21
3556.998	529.21
3559.837	500.88
3562.673	472.54
3565.507	444.54
3568.339	409.21
3571.169	385.21
3573.996	358.54
3576.822	333.88
3579.645	308.21
3582.466	280.21
3585.285	242.21
3588.101	228.54
3590.916	205.54
3593.728	177.88
3596.538	147.88
3599.346	135.54
3602.152	105.88
3604.956	87.21
3607.757	61.88
3610.556	51.54
3613.354	29.21
3616.149	7.88
3618.942	-10.12
3621.732	-17.12
3624.521	-37.46
3627.307	-52.12
3630.092	-63.46
3632.874	-72.12
3635.654	-87.12
3638.432	-100.12
3641.208	-111.46
3643.982	-123.12
3646.753	-133.12
3649.523	-153.79
3652.29	-164.79
3655.055	-178.46
3657.818	-190.12
3660.579	-198.12
3663.338	-217.79
3666.095	-222.79
3668.849	-237.46
3671.602	-244.12
3674.352	-255.12
3677.101	-262.79
3679.847	-267.79
3682.591	-281.12
3685.333	-292.12
3688.073	-293.46
3690.811	-304.46
3693.547	-310.79
3696.281	-315.46
3699.013	-320.79
3701.742	-329.46
3704.47	-331.46
3707.195	-332.79
3709.919	-341.79
3712.64	-347.12
3715.359	-350.46
3718.076	-356.12
3720.792	-364.79
3723.505	-366.46
3726.216	-362.79
3728.925	-372.79
3731.632	-375.46
3734.336	-377.79
3737.039	-382.79
3739.74	-385.46
3742.439	-391.79
3745.136	-395.12
3747.83	-387.46
3750.523	-394.79
3753.213	-403.46
3755.902	-400.46
3758.589	-407.46
3761.273	-400.46
3763.956	-401.12
3766.636	-406.79
3769.315	-410.46
3771.991	-412.79
3774.665	-412.12
3777.338	-415.46
3780.008	-413.79
3782.677	-418.46
3785.343	-419.12
3788.007	-425.12
3790.67	-419.12
3793.33	-422.79
3795.989	-419.46
3798.645	-423.79
3801.299	-427.46
3803.952	-429.46
3806.602	-428.79
3809.251	-425.79
3811.897	-428.46
3814.542	-431.79
3817.184	-430.12
3819.825	-433.12
3822.463	-430.12
3825.1	-439.46
3827.735	-435.12
3830.367	-438.12
3832.998	-438.79
3835.627	-440.12
3838.253	-439.46
3840.878	-437.46
3843.501	-440.46
3846.122	-439.46
3848.741	-440.46
3851.358	-442.12
3853.973	-443.46
3856.586	-445.79
3859.197	-445.12
3861.806	-440.79
3864.414	-439.46
3867.019	-443.79
3869.622	-437.12
3872.224	-428.12
3874.823	-420.46
3877.421	-400.79
3880.016	-377.79
3882.61	-356.79
3885.202	-361.79
3887.792	-385.12
3890.38	-412.79
3892.966	-429.12
3895.55	-439.79
3898.132	-446.12
3900.713	-446.46
3903.291	-450.12
3905.868	-452.46
3908.442	-452.12
3911.015	-452.46
3913.586	-452.46
3916.155	-452.46
3918.722	-456.79
3921.287	-454.79
3923.85	-453.12
3926.411	-456.46
3928.971	-452.12
3931.528	-456.46
3934.084	-458.79
3936.638	-458.12
3939.19	-459.79
3941.74	-460.12
3944.288	-456.12
3946.834	-459.79
3949.378	-456.46
3951.921	-460.12
3954.462	-456.46
3957	-451.12
3959.537	-452.12
3962.072	-451.46
3964.606	-451.79
3967.137	-453.12
3969.667	-455.46
3972.194	-454.12
3974.72	-453.12
3977.244	-450.46
3979.766	-446.79
3982.286	-446.79
3984.805	-444.12
3987.321	-447.79
3989.836	-445.12
3992.349	-444.46
3994.86	-444.79
3997.369	-446.12
3999.877	-445.46
4002.382	-446.79
4004.886	-448.79
4007.388	-450.79
4009.888	-447.79
4012.386	-444.46
4014.883	-448.79
4017.377	-450.46
4019.87	-450.12
4022.361	-450.46
4024.85	-451.12
4027.338	-448.12
4029.823	-450.46
4032.307	-450.79
4034.789	-450.46
4037.269	-450.79
4039.747	-453.46
4042.224	-448.12
4044.699	-453.46
4047.172	-449.46
4049.643	-454.12
4052.112	-454.46
4054.58	-458.12
4057.046	-452.46
4059.51	-454.79
4061.972	-453.12
4064.432	-452.79
4066.891	-454.46
4069.348	-453.12
4071.803	-454.79
4074.256	-453.46
4076.708	-451.79
4079.158	-452.79
4081.606	-450.46
4084.052	-450.79
4086.497	-452.12
4088.939	-452.12
4091.38	-449.46
4093.819	-450.46
4096.257	-470.12
4098.693	-469.12
4101.127	-468.79
4103.559	-465.46
4105.989	-264.79
4108.418	-249.79
4110.845	-236.46
4113.27	-214.46
4115.694	-189.46
4118.115	-154.46
4120.535	-449.12
4122.954	-453.12
4125.37	-450.79
4127.785	-453.46
4130.198	-460.79
4132.609	-581.46
4135.019	-469.12
4137.427	-469.46
4139.833	-468.46
4142.237	-471.12
