Data from EC10_RamanShift_5.txt Node
Date: Mon Nov 06 14:20:58 IST 2017
User: aro
Spectrometer: QEPB0276
Trigger mode: 0
Integration Time (sec): 4.000000E1
Scans to average: 3
Electric dark correction enabled: true
Nonlinearity correction enabled: false
Boxcar width: 0
XAxis mode: Raman Shifts
Number of Pixels in Spectrum: 1044
>>>>>Begin Spectral Data<<<<<
160.701	-95.5
166.742	27.17
172.777	372.17
178.805	1519.17
184.826	4472.5
190.841	9823.83
196.849	16197.83
202.85	20607.5
208.845	21679.5
214.833	21036.17
220.815	20165.83
226.789	19551.83
232.758	19067.5
238.719	18418.83
244.674	17745.5
250.623	16966.5
256.565	16204.83
262.5	15446.17
268.429	14759.5
274.351	14135.17
280.267	13594.83
286.176	13121.17
292.079	12665.5
297.975	12280.5
303.865	11947.5
309.748	11661.83
315.625	11371.17
321.495	11195.17
327.359	11042.83
333.217	10924.5
339.068	10849.17
344.912	10809.5
350.751	10729.5
356.583	10708.17
362.408	10644.83
368.227	10675.83
374.04	10726.17
379.847	10873.5
385.647	11031.17
391.44	11008.17
397.228	10951.17
403.009	11011.83
408.784	11126.5
414.553	11467.83
420.315	11865.5
426.071	11913.83
431.821	11514.17
437.565	11131.17
443.302	10979.17
449.033	10907.5
454.758	10846.17
460.477	10773.5
466.189	10686.83
471.896	10611.17
477.596	10520.17
483.29	10450.17
488.978	10408.5
494.66	10310.17
500.335	10154.83
506.005	9960.17
511.668	9747.17
517.325	9542.83
522.977	9355.5
528.622	9257.17
534.261	9110.5
539.894	9003.83
545.521	8950.83
551.141	8884.5
556.756	8793.17
562.365	8741.17
567.968	8697.83
573.565	8610.5
579.155	8560.5
584.74	8480.83
590.319	8410.17
595.892	8328.17
601.459	8240.83
607.02	8174.83
612.575	8083.83
618.124	7981.83
623.667	7890.83
629.204	7828.5
634.735	7798.5
640.261	7803.83
645.781	7907.17
651.294	7917.17
656.802	7804.83
662.304	7599.5
667.8	7514.17
673.29	7439.17
678.775	7387.83
684.254	7307.83
689.726	7259.17
695.193	7206.5
700.655	7148.17
706.11	7071.17
711.56	7018.17
717.004	6952.83
722.442	6880.5
727.874	6847.17
733.301	6795.17
738.722	6778.17
744.137	6781.5
749.547	6760.5
754.951	6768.83
760.349	6728.83
765.741	6664.5
771.128	6626.5
776.509	6602.83
781.885	6579.83
787.254	6530.83
792.618	6490.5
797.977	6418.5
803.33	6330.17
808.677	6268.17
814.019	6208.5
819.355	6110.83
824.686	6039.17
830.011	5993.83
835.33	5928.5
840.644	5908.5
845.952	5860.83
851.255	5803.83
856.552	5762.83
861.844	5720.17
867.13	5636.83
872.41	5566.5
877.686	5503.83
882.955	5417.83
888.219	5316.83
893.478	5236.5
898.731	5124.83
903.979	5053.83
909.221	4990.17
914.458	4929.5
919.69	4897.5
924.916	4902.83
930.136	4884.83
935.351	4862.83
940.561	4840.5
945.766	4807.83
950.965	4775.17
956.158	4724.17
961.347	4632.17
966.529	4540.5
971.707	4472.5
976.879	4401.83
982.046	4336.17
987.208	4319.5
992.364	4327.17
997.515	4325.83
1002.66	4364.83
1007.801	4378.5
1012.936	4415.5
1018.066	4434.83
1023.19	4455.17
1028.309	4437.83
1033.423	4415.5
1038.532	4372.17
1043.636	4335.17
1048.734	4292.5
1053.827	4240.17
1058.915	4184.17
1063.998	4162.5
1069.075	4165.17
1074.147	4153.83
1079.214	4191.83
1084.276	4208.83
1089.333	4211.83
1094.385	4232.17
1099.431	4268.83
1104.472	4244.5
1109.509	4214.17
1114.54	4145.17
1119.565	4085.83
1124.586	4034.17
1129.602	3996.5
1134.613	3960.83
1139.618	3958.17
1144.619	3968.83
1149.614	3973.17
1154.604	3997.5
1159.589	4049.83
1164.57	4144.17
1169.545	4151.5
1174.515	4025.83
1179.48	3974.17
1184.44	3950.83
1189.395	3917.83
1194.345	3893.83
1199.29	3872.5
1204.23	3888.5
1209.165	3884.83
1214.095	3925.83
1219.021	3960.5
1223.941	3986.5
1228.856	3999.17
1233.766	4051.17
1238.672	4008.5
1243.572	3994.5
1248.467	3949.83
1253.358	3891.17
1258.244	3822.83
1263.124	3767.5
1268	3707.83
1272.871	3657.83
1277.737	3640.83
1282.599	3626.83
1287.455	3635.83
1292.306	3636.83
1297.153	3679.83
1301.995	3690.17
1306.832	3718.5
1311.664	3722.83
1316.491	3716.83
1321.314	3703.17
1326.132	3663.17
1330.945	3639.5
1335.753	3593.83
1340.556	3575.5
1345.354	3575.5
1350.148	3534.17
1354.937	3498.17
1359.722	3474.5
1364.501	3399.5
1369.276	3326.17
1374.046	3265.5
1378.811	3216.83
1383.572	3175.17
1388.327	3165.83
1393.079	3144.83
1397.825	3127.17
1402.567	3110.5
1407.304	3090.5
1412.036	3083.83
1416.764	3086.5
1421.487	3105.83
1426.205	3108.17
1430.919	3128.83
1435.628	3169.83
1440.333	3216.83
1445.032	3247.17
1449.727	3261.83
1454.418	3282.83
1459.104	3286.83
1463.785	3257.5
1468.462	3242.17
1473.134	3232.83
1477.802	3214.17
1482.465	3216.17
1487.123	3231.17
1491.777	3249.5
1496.426	3285.17
1501.071	3322.83
1505.711	3346.83
1510.347	3336.5
1514.978	3373.17
1519.604	3351.17
1524.226	3344.5
1528.844	3321.83
1533.457	3283.5
1538.065	3279.17
1542.669	3240.5
1547.269	3250.83
1551.864	3276.5
1556.454	3303.83
1561.041	3350.17
1565.622	3415.5
1570.199	3485.17
1574.772	3564.83
1579.34	3665.5
1583.904	3748.5
1588.464	3847.17
1593.019	3920.5
1597.569	4004.17
1602.115	4071.5
1606.657	4127.5
1611.195	4199.17
1615.728	4266.17
1620.256	4356.17
1624.78	4452.17
1629.3	4552.83
1633.816	4633.17
1638.327	4713.17
1642.834	4781.83
1647.336	4821.5
1651.834	4831.83
1656.328	4801.83
1660.817	4760.17
1665.302	4663.5
1669.783	4535.83
1674.259	4399.5
1678.732	4248.83
1683.199	4108.17
1687.663	3950.17
1692.122	3790.5
1696.577	3601.17
1701.028	3395.5
1705.474	3171.83
1709.917	3003.5
1714.355	2877.83
1718.788	2771.5
1723.218	2703.5
1727.643	2608.83
1732.064	2534.5
1736.481	2439.5
1740.893	2329.17
1745.301	2233.17
1749.705	2162.5
1754.105	2079.17
1758.501	2014.5
1762.893	1965.17
1767.28	1928.83
1771.663	1901.17
1776.042	1906.5
1780.417	1893.5
1784.787	1906.83
1789.154	1909.83
1793.516	1876.83
1797.874	1843.5
1802.228	1801.5
1806.578	1718.5
1810.924	1660.83
1815.266	1625.83
1819.603	1574.83
1823.937	1550.17
1828.266	1538.83
1832.591	1543.5
1836.913	1536.5
1841.23	1541.83
1845.543	1544.17
1849.852	1551.5
1854.156	1555.83
1858.457	1572.5
1862.754	1579.83
1867.047	1595.83
1871.335	1618.17
1875.62	1622.17
1879.9	1633.83
1884.177	1634.17
1888.449	1623.17
1892.718	1605.83
1896.982	1622.17
1901.243	1611.83
1905.499	1611.5
1909.752	1623.17
1914	1623.17
1918.245	1639.17
1922.485	1640.83
1926.722	1663.5
1930.954	1658.17
1935.183	1659.17
1939.408	1649.17
1943.628	1640.5
1947.845	1618.5
1952.058	1588.5
1956.267	1561.83
1960.472	1521.17
1964.673	1486.83
1968.87	1461.17
1973.063	1448.17
1977.252	1414.17
1981.438	1423.17
1985.619	1420.5
1989.797	1431.5
1993.971	1439.83
1998.14	1439.17
2002.306	1455.17
2006.469	1469.17
2010.627	1474.5
2014.781	1481.83
2018.932	1477.5
2023.078	1495.83
2027.221	1489.17
2031.36	1468.17
2035.495	1464.83
2039.627	1467.17
2043.754	1459.5
2047.878	1463.83
2051.998	1483.17
2056.114	1479.17
2060.226	1495.83
2064.334	1511.17
2068.439	1537.83
2072.54	1547.17
2076.637	1563.5
2080.73	1575.5
2084.82	1573.17
2088.906	1593.5
2092.988	1584.5
2097.066	1556.17
2101.14	1528.83
2105.211	1513.5
2109.278	1489.17
2113.342	1456.5
2117.401	1438.5
2121.457	1429.17
2125.509	1404.83
2129.558	1391.17
2133.602	1382.5
2137.643	1367.17
2141.681	1347.83
2145.714	1351.83
2149.744	1329.83
2153.77	1318.83
2157.793	1295.17
2161.812	1273.5
2165.827	1249.5
2169.838	1225.5
2173.846	1195.83
2177.851	1171.5
2181.851	1151.5
2185.848	1131.5
2189.841	1116.83
2193.831	1090.5
2197.817	1076.83
2201.799	1067.17
2205.778	1057.17
2209.753	1042.17
2213.725	1038.83
2217.693	1033.83
2221.657	1024.17
2225.618	1019.83
2229.575	999.83
2233.529	991.17
2237.479	967.83
2241.425	936.17
2245.368	914.17
2249.307	892.5
2253.243	868.83
2257.175	844.5
2261.104	818.5
2265.029	812.5
2268.95	786.83
2272.868	763.17
2276.783	756.5
2280.694	736.83
2284.601	711.83
2288.505	705.5
2292.405	685.5
2296.302	671.17
2300.195	656.5
2304.085	630.17
2307.971	624.83
2311.854	603.83
2315.734	582.83
2319.609	569.17
2323.482	544.83
2327.351	537.17
2331.216	531.17
2335.078	529.5
2338.937	512.17
2342.792	504.83
2346.643	505.83
2350.492	496.83
2354.336	500.5
2358.178	498.5
2362.015	495.83
2365.85	493.83
2369.681	495.17
2373.508	492.83
2377.333	497.17
2381.153	486.17
2384.971	490.17
2388.785	476.83
2392.595	468.5
2396.402	458.83
2400.206	467.17
2404.007	453.5
2407.804	451.5
2411.597	451.5
2415.388	449.17
2419.174	450.5
2422.958	438.17
2426.738	439.83
2430.515	434.17
2434.289	432.83
2438.059	425.83
2441.825	421.83
2445.589	419.83
2449.349	410.17
2453.106	395.5
2456.859	394.83
2460.61	391.5
2464.356	378.17
2468.1	383.17
2471.84	367.17
2475.577	368.5
2479.311	371.83
2483.041	369.17
2486.768	370.83
2490.492	374.5
2494.213	374.83
2497.93	370.83
2501.644	379.17
2505.355	366.17
2509.062	372.5
2512.766	362.83
2516.467	370.17
2520.165	365.17
2523.859	356.83
2527.551	357.5
2531.239	349.5
2534.923	348.83
2538.605	348.17
2542.283	334.17
2545.958	334.5
2549.63	339.17
2553.299	347.83
2556.964	330.83
2560.626	330.5
2564.285	330.5
2567.941	322.17
2571.594	313.5
2575.243	312.17
2578.89	302.5
2582.533	294.5
2586.173	288.83
2589.809	279.83
2593.443	275.17
2597.073	258.5
2600.701	264.5
2604.325	260.5
2607.946	253.83
2611.564	244.5
2615.178	242.5
2618.79	244.17
2622.398	238.5
2626.004	233.17
2629.606	228.5
2633.205	225.5
2636.801	216.5
2640.394	215.17
2643.983	212.5
2647.57	213.5
2651.153	208.17
2654.734	198.83
2658.311	196.83
2661.885	197.17
2665.456	192.83
2669.025	194.5
2672.589	192.17
2676.151	191.5
2679.71	187.5
2683.266	182.83
2686.819	179.17
2690.368	177.17
2693.915	174.17
2697.458	164.83
2700.999	174.17
2704.536	172.5
2708.071	160.83
2711.602	161.83
2715.13	161.17
2718.656	161.17
2722.178	164.5
2725.697	174.17
2729.214	180.17
2732.727	182.17
2736.237	199.5
2739.744	202.5
2743.249	208.83
2746.75	208.83
2750.248	208.17
2753.743	205.83
2757.236	197.17
2760.725	185.5
2764.211	181.17
2767.695	173.83
2771.175	170.17
2774.652	164.17
2778.127	171.5
2781.598	173.5
2785.067	181.17
2788.532	183.83
2791.995	191.5
2795.455	201.83
2798.911	220.5
2802.365	220.5
2805.816	229.5
2809.264	239.83
2812.709	245.83
2816.151	247.17
2819.59	254.17
2823.026	267.5
2826.46	272.17
2829.89	284.17
2833.318	284.5
2836.742	293.83
2840.164	302.17
2843.583	316.83
2846.999	326.17
2850.412	336.17
2853.822	344.17
2857.229	356.83
2860.634	360.83
2864.035	378.83
2867.434	389.5
2870.83	405.17
2874.223	409.5
2877.613	408.17
2881	420.5
2884.385	428.83
2887.766	438.83
2891.145	444.5
2894.521	466.17
2897.894	471.17
2901.264	485.83
2904.631	496.5
2907.996	511.5
2911.358	526.83
2914.717	543.83
2918.073	561.17
2921.426	570.5
2924.777	605.5
2928.124	622.83
2931.469	640.83
2934.811	662.5
2938.15	698.5
2941.487	712.17
2944.821	743.5
2948.152	755.5
2951.48	772.5
2954.805	794.5
2958.128	832.17
2961.447	854.83
2964.765	885.5
2968.079	909.17
2971.39	955.83
2974.699	990.5
2978.005	1030.17
2981.308	1071.83
2984.609	1109.83
2987.907	1159.17
2991.202	1207.83
2994.494	1239.83
2997.784	1298.17
3001.07	1334.17
3004.355	1368.83
3007.636	1402.17
3010.915	1452.17
3014.191	1471.5
3017.464	1518.17
3020.734	1542.17
3024.002	1580.17
3027.267	1622.83
3030.53	1650.17
3033.789	1700.5
3037.046	1747.17
3040.301	1814.17
3043.552	1862.5
3046.801	1922.17
3050.048	1992.83
3053.291	2060.5
3056.532	2143.5
3059.771	2217.5
3063.006	2290.5
3066.239	2392.17
3069.469	2471.5
3072.697	2554.83
3075.922	2647.5
3079.144	2712.5
3082.364	2801.5
3085.581	2876.17
3088.795	2950.83
3092.007	3056.5
3095.216	3122.83
3098.423	3214.17
3101.627	3291.17
3104.828	3385.5
3108.026	3460.5
3111.222	3542.17
3114.416	3634.83
3117.607	3739.17
3120.795	3841.17
3123.98	3932.5
3127.163	4047.17
3130.344	4148.5
3133.521	4243.17
3136.696	4347.5
3139.869	4450.5
3143.039	4513.83
3146.206	4590.5
3149.371	4642.5
3152.533	4697.5
3155.693	4729.5
3158.85	4762.17
3162.005	4792.5
3165.157	4829.17
3168.306	4840.83
3171.453	4840.5
3174.597	4877.5
3177.739	4892.83
3180.878	4898.17
3184.014	4910.17
3187.149	4927.17
3190.28	4958.17
3193.409	4977.17
3196.536	5005.17
3199.659	5003.17
3202.781	5056.5
3205.9	5039.5
3209.016	5041.5
3212.13	5037.83
3215.241	5003.83
3218.35	4984.5
3221.456	4953.5
3224.56	4909.17
3227.661	4875.17
3230.76	4847.17
3233.856	4796.5
3236.95	4783.17
3240.041	4751.5
3243.13	4733.17
3246.216	4711.17
3249.3	4671.83
3252.382	4644.83
3255.46	4650.5
3258.537	4638.17
3261.611	4634.5
3264.682	4600.5
3267.751	4596.5
3270.818	4584.83
3273.882	4542.83
3276.943	4510.17
3280.002	4463.17
3283.059	4413.83
3286.113	4355.17
3289.165	4282.17
3292.214	4222.83
3295.261	4144.5
3298.306	4075.83
3301.348	4012.5
3304.387	3957.5
3307.425	3912.5
3310.459	3861.83
3313.492	3816.83
3316.521	3773.83
3319.549	3733.83
3322.574	3707.83
3325.597	3665.5
3328.617	3662.5
3331.635	3638.83
3334.65	3636.83
3337.663	3608.83
3340.674	3591.5
3343.682	3597.17
3346.688	3593.5
3349.691	3568.83
3352.692	3544.83
3355.691	3537.5
3358.687	3486.5
3361.681	3459.17
3364.673	3431.5
3367.662	3385.5
3370.649	3341.5
3373.633	3293.83
3376.615	3253.83
3379.595	3211.83
3382.572	3173.83
3385.547	3140.83
3388.52	3097.5
3391.49	3065.83
3394.458	3024.5
3397.424	2986.5
3400.387	2944.83
3403.348	2918.83
3406.307	2896.83
3409.263	2872.5
3412.217	2851.5
3415.168	2828.83
3418.118	2780.83
3421.065	2762.83
3424.009	2726.83
3426.951	2698.83
3429.891	2651.83
3432.829	2596.17
3435.764	2556.17
3438.697	2483.83
3441.628	2440.17
3444.557	2376.5
3447.483	2317.17
3450.407	2252.17
3453.328	2187.83
3456.247	2129.17
3459.164	2068.83
3462.079	2011.17
3464.991	1959.83
3467.902	1904.83
3470.809	1834.17
3473.715	1795.17
3476.618	1749.5
3479.519	1695.17
3482.418	1653.5
3485.315	1607.83
3488.209	1572.5
3491.101	1520.17
3493.99	1493.17
3496.878	1452.5
3499.763	1404.5
3502.646	1365.5
3505.527	1321.5
3508.405	1264.17
3511.281	1219.17
3514.155	1159.83
3517.027	1115.5
3519.897	1061.5
3522.764	1019.83
3525.629	967.17
3528.492	906.17
3531.352	858.17
3534.211	809.17
3537.067	770.83
3539.921	715.83
3542.773	679.5
3545.622	638.17
3548.469	603.17
3551.315	567.5
3554.157	536.17
3556.998	507.83
3559.837	477.5
3562.673	450.5
3565.507	429.5
3568.339	390.5
3571.169	365.83
3573.996	340.5
3576.822	322.5
3579.645	291.5
3582.466	270.17
3585.285	241.17
3588.101	209.83
3590.916	187.17
3593.728	167.83
3596.538	145.83
3599.346	123.83
3602.152	101.5
3604.956	84.5
3607.757	66.5
3610.556	44.17
3613.354	25.83
3616.149	7.83
3618.942	-8.5
3621.732	-19.83
3624.521	-37.5
3627.307	-54.17
3630.092	-61.17
3632.874	-72.83
3635.654	-86.17
3638.432	-102.17
3641.208	-111.5
3643.982	-121.83
3646.753	-128.5
3649.523	-148.5
3652.29	-156.83
3655.055	-167.5
3657.818	-183.83
3660.579	-193.83
3663.338	-206.17
3666.095	-219.17
3668.849	-227.5
3671.602	-236.83
3674.352	-246.17
3677.101	-251.5
3679.847	-259.17
3682.591	-269.5
3685.333	-278.5
3688.073	-286.5
3690.811	-292.5
3693.547	-296.17
3696.281	-299.83
3699.013	-306.83
3701.742	-316.17
3704.47	-320.83
3707.195	-319.17
3709.919	-326.5
3712.64	-330.83
3715.359	-338.17
3718.076	-340.5
3720.792	-348.17
3723.505	-350.83
3726.216	-350.17
3728.925	-357.83
3731.632	-363.5
3734.336	-363.17
3737.039	-370.5
3739.74	-369.17
3742.439	-374.83
3745.136	-375.83
3747.83	-376.83
3750.523	-378.83
3753.213	-387.5
3755.902	-384.83
3758.589	-389.5
3761.273	-386.17
3763.956	-385.17
3766.636	-394.83
3769.315	-393.17
3771.991	-396.5
3774.665	-394.83
3777.338	-398.83
3780.008	-400.17
3782.677	-404.5
3785.343	-405.17
3788.007	-405.5
3790.67	-402.83
3793.33	-405.83
3795.989	-407.5
3798.645	-409.17
3801.299	-408.5
3803.952	-413.17
3806.602	-415.5
3809.251	-413.17
3811.897	-416.17
3814.542	-415.17
3817.184	-416.5
3819.825	-415.17
3822.463	-415.83
3825.1	-420.5
3827.735	-418.5
3830.367	-420.17
3832.998	-421.83
3835.627	-421.83
3838.253	-422.17
3840.878	-425.5
3843.501	-422.83
3846.122	-425.17
3848.741	-424.83
3851.358	-429.83
3853.973	-427.17
3856.586	-426.83
3859.197	-424.17
3861.806	-425.83
3864.414	-426.83
3867.019	-428.17
3869.622	-422.83
3872.224	-417.5
3874.823	-405.83
3877.421	-390.83
3880.016	-367.83
3882.61	-357.5
3885.202	-360.5
3887.792	-378.17
3890.38	-401.83
3892.966	-413.5
3895.55	-426.17
3898.132	-430.83
3900.713	-433.5
3903.291	-433.17
3905.868	-437.83
3908.442	-437.83
3911.015	-437.5
3913.586	-439.83
3916.155	-438.83
3918.722	-439.83
3921.287	-441.17
3923.85	-440.5
3926.411	-441.5
3928.971	-440.83
3931.528	-438.17
3934.084	-440.5
3936.638	-442.17
3939.19	-442.17
3941.74	-445.17
3944.288	-440.83
3946.834	-441.5
3949.378	-444.17
3951.921	-442.17
3954.462	-442.83
3957	-437.5
3959.537	-437.83
3962.072	-436.83
3964.606	-438.5
3967.137	-435.17
3969.667	-438.83
3972.194	-437.5
3974.72	-436.17
3977.244	-433.17
3979.766	-433.83
3982.286	-430.83
3984.805	-431.83
3987.321	-430.17
3989.836	-428.5
3992.349	-429.17
3994.86	-429.5
3997.369	-430.5
3999.877	-427.83
4002.382	-429.17
4004.886	-433.5
4007.388	-434.17
4009.888	-431.17
4012.386	-428.83
4014.883	-436.83
4017.377	-433.5
4019.87	-433.83
4022.361	-434.83
4024.85	-435.17
4027.338	-433.5
4029.823	-434.83
4032.307	-431.5
4034.789	-431.83
4037.269	-436.17
4039.747	-438.17
4042.224	-432.83
4044.699	-437.5
4047.172	-438.17
4049.643	-437.5
4052.112	-438.5
4054.58	-439.83
4057.046	-437.5
4059.51	-438.83
4061.972	-436.83
4064.432	-440.17
4066.891	-441.17
4069.348	-437.83
4071.803	-437.17
4074.256	-436.83
4076.708	-435.17
4079.158	-438.5
4081.606	-438.5
4084.052	-436.17
4086.497	-436.83
4088.939	-436.17
4091.38	-434.17
4093.819	-435.17
4096.257	-455.17
4098.693	-455.17
4101.127	-454.5
4103.559	-453.83
4105.989	-265.5
4108.418	-249.83
4110.845	-234.83
4113.27	-214.17
4115.694	-186.83
4118.115	-152.17
4120.535	-435.83
4122.954	-437.17
4125.37	-436.5
4127.785	-439.83
4130.198	-444.83
4132.609	-566.5
4135.019	-454.83
4137.427	-455.5
4139.833	-454.5
4142.237	-458.17
