Data from EC10_RamanShift_2.txt Node
Date: Mon Nov 06 14:08:58 IST 2017
User: aro
Spectrometer: QEPB0276
Trigger mode: 0
Integration Time (sec): 4.000000E1
Scans to average: 3
Electric dark correction enabled: true
Nonlinearity correction enabled: false
Boxcar width: 0
XAxis mode: Raman Shifts
Number of Pixels in Spectrum: 1044
>>>>>Begin Spectral Data<<<<<
160.701	-101.25
166.742	27.42
172.777	402.08
178.805	1633.08
184.826	4797.75
190.841	10640.42
196.849	17668.75
202.85	22594.75
208.845	23860.08
214.833	23153.42
220.815	22190.75
226.789	21498.75
232.758	20930.75
238.719	20239.42
244.674	19493.08
250.623	18675.75
256.565	17772.08
262.5	16946.75
268.429	16220.42
274.351	15473.08
280.267	14906.08
286.176	14377.42
292.079	13908.42
297.975	13455.75
303.865	13090.08
309.748	12734.75
315.625	12439.42
321.495	12214.42
327.359	12069.75
333.217	11927.42
339.068	11849.08
344.912	11803.08
350.751	11673.75
356.583	11677.08
362.408	11623.75
368.227	11664.42
374.04	11719.42
379.847	11879.42
385.647	12066.75
391.44	12055.08
397.228	11981.75
403.009	12026.42
408.784	12189.75
414.553	12571.42
420.315	13100.42
426.071	13158.75
431.821	12668.75
437.565	12214.75
443.302	12050.75
449.033	11915.42
454.758	11853.08
460.477	11773.75
466.189	11686.08
471.896	11567.08
477.596	11501.08
483.29	11404.42
488.978	11354.42
494.66	11238.42
500.335	11083.42
506.005	10869.75
511.668	10602.42
517.325	10338.08
522.977	10160.08
528.622	10003.08
534.261	9874.75
539.894	9759.08
545.521	9664.08
551.141	9565.75
556.756	9501.08
562.365	9421.08
567.968	9374.42
573.565	9300.08
579.155	9245.42
584.74	9141.42
590.319	9067.08
595.892	8984.08
601.459	8887.08
607.02	8805.75
612.575	8710.08
618.124	8612.42
623.667	8511.42
629.204	8438.08
634.735	8378.75
640.261	8421.75
645.781	8512.75
651.294	8560.42
656.802	8418.75
662.304	8187.08
667.8	8060.42
673.29	7996.42
678.775	7936.42
684.254	7851.75
689.726	7780.42
695.193	7738.08
700.655	7650.08
706.11	7590.42
711.56	7505.42
717.004	7423.08
722.442	7366.42
727.874	7339.42
733.301	7289.08
738.722	7253.75
744.137	7238.75
749.547	7242.75
754.951	7263.75
760.349	7225.08
765.741	7151.08
771.128	7102.42
776.509	7057.75
781.885	7046.75
787.254	6986.75
792.618	6945.75
797.977	6870.42
803.33	6781.42
808.677	6696.08
814.019	6641.75
819.355	6553.42
824.686	6465.42
830.011	6408.08
835.33	6351.75
840.644	6316.75
845.952	6245.08
851.255	6230.08
856.552	6154.42
861.844	6076.42
867.13	6027.42
872.41	5930.08
877.686	5848.08
882.955	5755.42
888.219	5643.08
893.478	5544.75
898.731	5427.42
903.979	5361.08
909.221	5274.75
914.458	5227.75
919.69	5189.08
924.916	5176.75
930.136	5164.08
935.351	5156.42
940.561	5127.08
945.766	5068.08
950.965	5027.75
956.158	4965.42
961.347	4892.42
966.529	4792.42
971.707	4719.42
976.879	4641.42
982.046	4608.08
987.208	4571.75
992.364	4552.42
997.515	4579.08
1002.66	4603.42
1007.801	4635.42
1012.936	4658.75
1018.066	4689.42
1023.19	4687.42
1028.309	4704.75
1033.423	4672.42
1038.532	4635.42
1043.636	4574.08
1048.734	4530.08
1053.827	4480.08
1058.915	4429.42
1063.998	4403.08
1069.075	4407.75
1074.147	4400.08
1079.214	4412.75
1084.276	4436.42
1089.333	4463.08
1094.385	4491.42
1099.431	4489.42
1104.472	4477.08
1109.509	4436.42
1114.54	4365.42
1119.565	4309.42
1124.586	4242.08
1129.602	4208.75
1134.613	4194.08
1139.618	4158.08
1144.619	4174.08
1149.614	4179.42
1154.604	4207.42
1159.589	4245.42
1164.57	4227.42
1169.545	4238.08
1174.515	4234.75
1179.48	4199.42
1184.44	4161.42
1189.395	4118.08
1194.345	4099.75
1199.29	4096.08
1204.23	4102.75
1209.165	4112.08
1214.095	4136.75
1219.021	4189.08
1223.941	4207.42
1228.856	4230.75
1233.766	4232.75
1238.672	4236.08
1243.572	4227.08
1248.467	4172.08
1253.358	4116.08
1258.244	4049.75
1263.124	3985.75
1268	3917.08
1272.871	3871.08
1277.737	3856.08
1282.599	3827.75
1287.455	3825.75
1292.306	3844.42
1297.153	3870.42
1301.995	3886.75
1306.832	3903.75
1311.664	3908.08
1316.491	3899.42
1321.314	3891.42
1326.132	3847.42
1330.945	3814.08
1335.753	3764.75
1340.556	3729.42
1345.354	3693.08
1350.148	3655.75
1354.937	3614.42
1359.722	3552.42
1364.501	3498.75
1369.276	3442.75
1374.046	3390.08
1378.811	3351.42
1383.572	3340.42
1388.327	3311.42
1393.079	3288.08
1397.825	3281.08
1402.567	3243.75
1407.304	3240.42
1412.036	3223.08
1416.764	3220.42
1421.487	3240.75
1426.205	3263.75
1430.919	3281.75
1435.628	3312.75
1440.333	3359.08
1445.032	3381.75
1449.727	3419.42
1454.418	3423.75
1459.104	3423.75
1463.785	3394.42
1468.462	3369.08
1473.134	3328.08
1477.802	3327.42
1482.465	3314.42
1487.123	3341.75
1491.777	3345.08
1496.426	3365.08
1501.071	3394.08
1505.711	3420.75
1510.347	3439.08
1514.978	3444.42
1519.604	3450.75
1524.226	3441.75
1528.844	3428.75
1533.457	3406.75
1538.065	3394.08
1542.669	3394.75
1547.269	3385.08
1551.864	3419.75
1556.454	3454.08
1561.041	3528.08
1565.622	3590.42
1570.199	3653.08
1574.772	3758.75
1579.34	3857.42
1583.904	3975.42
1588.464	4081.08
1593.019	4173.42
1597.569	4256.08
1602.115	4331.75
1606.657	4388.08
1611.195	4469.75
1615.728	4552.75
1620.256	4654.42
1624.78	4765.42
1629.3	4870.42
1633.816	4961.75
1638.327	5037.42
1642.834	5095.42
1647.336	5153.42
1651.834	5143.75
1656.328	5130.42
1660.817	5075.42
1665.302	4964.75
1669.783	4817.08
1674.259	4665.08
1678.732	4496.75
1683.199	4309.75
1687.663	4145.75
1692.122	3941.75
1696.577	3719.75
1701.028	3490.42
1705.474	3294.08
1709.917	3118.08
1714.355	2984.08
1718.788	2893.08
1723.218	2799.08
1727.643	2714.75
1732.064	2615.75
1736.481	2518.75
1740.893	2403.75
1745.301	2309.08
1749.705	2216.42
1754.105	2121.75
1758.501	2056.42
1762.893	2004.42
1767.28	1949.42
1771.663	1933.08
1776.042	1920.75
1780.417	1902.75
1784.787	1886.42
1789.154	1900.42
1793.516	1868.42
1797.874	1819.42
1802.228	1763.42
1806.578	1705.08
1810.924	1640.75
1815.266	1600.75
1819.603	1576.75
1823.937	1559.42
1828.266	1543.42
1832.591	1545.42
1836.913	1545.08
1841.23	1533.42
1845.543	1549.42
1849.852	1558.42
1854.156	1577.08
1858.457	1574.42
1862.754	1584.08
1867.047	1600.75
1871.335	1607.75
1875.62	1613.75
1879.9	1625.42
1884.177	1612.75
1888.449	1606.75
1892.718	1607.08
1896.982	1598.75
1901.243	1588.08
1905.499	1592.08
1909.752	1595.75
1914	1596.75
1918.245	1603.08
1922.485	1607.08
1926.722	1613.42
1930.954	1629.08
1935.183	1623.75
1939.408	1626.42
1943.628	1608.42
1947.845	1576.08
1952.058	1557.75
1956.267	1528.08
1960.472	1490.42
1964.673	1466.75
1968.87	1445.75
1973.063	1418.08
1977.252	1417.08
1981.438	1406.75
1985.619	1420.75
1989.797	1430.75
1993.971	1430.42
1998.14	1446.08
2002.306	1460.75
2006.469	1482.75
2010.627	1488.08
2014.781	1501.08
2018.932	1501.42
2023.078	1500.75
2027.221	1503.42
2031.36	1478.75
2035.495	1468.75
2039.627	1466.75
2043.754	1468.75
2047.878	1481.08
2051.998	1487.75
2056.114	1491.42
2060.226	1499.08
2064.334	1516.08
2068.439	1545.42
2072.54	1557.75
2076.637	1583.08
2080.73	1576.08
2084.82	1586.42
2088.906	1594.08
2092.988	1569.75
2097.066	1566.42
2101.14	1535.75
2105.211	1518.75
2109.278	1494.08
2113.342	1468.75
2117.401	1459.42
2121.457	1431.42
2125.509	1420.42
2129.558	1414.42
2133.602	1394.08
2137.643	1387.08
2141.681	1382.08
2145.714	1377.42
2149.744	1362.08
2153.77	1338.08
2157.793	1317.75
2161.812	1298.42
2165.827	1274.42
2169.838	1258.08
2173.846	1221.75
2177.851	1195.42
2181.851	1187.08
2185.848	1161.08
2189.841	1142.08
2193.831	1121.08
2197.817	1113.42
2201.799	1099.75
2205.778	1082.75
2209.753	1079.42
2213.725	1075.42
2217.693	1068.08
2221.657	1051.08
2225.618	1046.75
2229.575	1032.08
2233.529	1005.75
2237.479	990.08
2241.425	968.75
2245.368	943.42
2249.307	907.42
2253.243	892.75
2257.175	867.08
2261.104	839.75
2265.029	829.08
2268.95	810.42
2272.868	795.42
2276.783	770.08
2280.694	755.75
2284.601	732.42
2288.505	709.75
2292.405	701.42
2296.302	684.42
2300.195	676.08
2304.085	651.08
2307.971	641.75
2311.854	620.75
2315.734	601.08
2319.609	574.42
2323.482	567.08
2327.351	557.42
2331.216	554.75
2335.078	547.75
2338.937	536.75
2342.792	524.08
2346.643	520.42
2350.492	524.42
2354.336	526.42
2358.178	519.08
2362.015	527.75
2365.85	524.42
2369.681	531.75
2373.508	524.42
2377.333	524.75
2381.153	510.42
2384.971	520.75
2388.785	503.75
2392.595	504.75
2396.402	498.75
2400.206	487.42
2404.007	475.08
2407.804	483.42
2411.597	483.75
2415.388	481.42
2419.174	475.75
2422.958	474.08
2426.738	458.42
2430.515	462.75
2434.289	451.75
2438.059	444.75
2441.825	447.75
2445.589	438.08
2449.349	429.42
2453.106	423.42
2456.859	422.42
2460.61	405.75
2464.356	402.08
2468.1	392.42
2471.84	392.08
2475.577	390.75
2479.311	391.42
2483.041	385.75
2486.768	384.08
2490.492	387.75
2494.213	386.42
2497.93	391.75
2501.644	382.08
2505.355	376.08
2509.062	374.75
2512.766	378.75
2516.467	372.42
2520.165	367.42
2523.859	363.08
2527.551	359.75
2531.239	352.75
2534.923	345.75
2538.605	350.08
2542.283	340.08
2545.958	342.08
2549.63	337.08
2553.299	339.42
2556.964	331.08
2560.626	325.08
2564.285	324.08
2567.941	319.42
2571.594	303.08
2575.243	297.42
2578.89	297.75
2582.533	287.08
2586.173	279.75
2589.809	275.42
2593.443	266.08
2597.073	256.75
2600.701	250.75
2604.325	245.08
2607.946	252.42
2611.564	241.42
2615.178	236.08
2618.79	230.08
2622.398	232.42
2626.004	230.42
2629.606	221.42
2633.205	223.08
2636.801	216.08
2640.394	213.75
2643.983	206.75
2647.57	204.08
2651.153	206.75
2654.734	203.75
2658.311	191.08
2661.885	199.42
2665.456	191.42
2669.025	195.75
2672.589	189.08
2676.151	189.08
2679.71	192.75
2683.266	182.75
2686.819	183.08
2690.368	185.75
2693.915	175.08
2697.458	172.42
2700.999	164.08
2704.536	161.75
2708.071	168.42
2711.602	162.08
2715.13	161.75
2718.656	164.42
2722.178	169.75
2725.697	169.42
2729.214	181.42
2732.727	183.42
2736.237	194.42
2739.744	200.42
2743.249	196.42
2746.75	204.42
2750.248	198.42
2753.743	196.75
2757.236	188.75
2760.725	181.08
2764.211	172.75
2767.695	175.75
2771.175	175.08
2774.652	173.08
2778.127	179.75
2781.598	179.08
2785.067	186.08
2788.532	195.75
2791.995	208.08
2795.455	222.42
2798.911	222.42
2802.365	238.08
2805.816	250.42
2809.264	255.75
2812.709	259.08
2816.151	268.75
2819.59	275.42
2823.026	286.42
2826.46	298.08
2829.89	302.08
2833.318	308.75
2836.742	317.42
2840.164	330.75
2843.583	343.08
2846.999	347.75
2850.412	358.75
2853.822	375.42
2857.229	385.42
2860.634	394.42
2864.035	409.75
2867.434	421.75
2870.83	438.75
2874.223	445.08
2877.613	453.75
2881	461.08
2884.385	473.42
2887.766	479.42
2891.145	492.75
2894.521	503.42
2897.894	514.08
2901.264	540.08
2904.631	542.42
2907.996	557.08
2911.358	573.75
2914.717	593.08
2918.073	617.08
2921.426	633.42
2924.777	658.75
2928.124	683.42
2931.469	712.08
2934.811	734.75
2938.15	755.08
2941.487	784.75
2944.821	809.42
2948.152	827.75
2951.48	843.42
2954.805	872.75
2958.128	901.75
2961.447	931.42
2964.765	962.08
2968.079	992.75
2971.39	1047.42
2974.699	1068.42
2978.005	1121.75
2981.308	1155.08
2984.609	1204.08
2987.907	1245.08
2991.202	1302.42
2994.494	1352.42
2997.784	1405.75
3001.07	1446.08
3004.355	1488.42
3007.636	1530.42
3010.915	1571.42
3014.191	1615.42
3017.464	1643.42
3020.734	1678.75
3024.002	1714.08
3027.267	1768.75
3030.53	1802.08
3033.789	1861.75
3037.046	1921.75
3040.301	1977.42
3043.552	2048.75
3046.801	2118.08
3050.048	2194.42
3053.291	2281.08
3056.532	2356.75
3059.771	2431.08
3063.006	2540.42
3066.239	2635.75
3069.469	2731.75
3072.697	2818.08
3075.922	2916.08
3079.144	2988.75
3082.364	3085.08
3085.581	3169.08
3088.795	3254.08
3092.007	3345.75
3095.216	3434.75
3098.423	3506.75
3101.627	3600.75
3104.828	3706.42
3108.026	3786.75
3111.222	3898.08
3114.416	3999.08
3117.607	4090.08
3120.795	4215.42
3123.98	4321.42
3127.163	4429.42
3130.344	4523.42
3133.521	4646.42
3136.696	4755.42
3139.869	4866.75
3143.039	4946.75
3146.206	5039.08
3149.371	5085.42
3152.533	5135.42
3155.693	5173.42
3158.85	5211.08
3162.005	5241.42
3165.157	5282.08
3168.306	5288.75
3171.453	5308.42
3174.597	5332.08
3177.739	5371.08
3180.878	5380.75
3184.014	5388.75
3187.149	5409.42
3190.28	5440.08
3193.409	5459.75
3196.536	5479.08
3199.659	5505.42
3202.781	5526.08
3205.9	5524.08
3209.016	5526.42
3212.13	5509.08
3215.241	5484.08
3218.35	5423.75
3221.456	5403.75
3224.56	5352.08
3227.661	5302.75
3230.76	5257.75
3233.856	5238.75
3236.95	5193.08
3240.041	5142.42
3243.13	5109.75
3246.216	5084.75
3249.3	5063.08
3252.382	5029.08
3255.46	5015.75
3258.537	4994.08
3261.611	4989.08
3264.682	4971.42
3267.751	4978.75
3270.818	4939.08
3273.882	4909.08
3276.943	4899.42
3280.002	4831.75
3283.059	4774.42
3286.113	4723.08
3289.165	4644.08
3292.214	4588.08
3295.261	4522.42
3298.306	4462.08
3301.348	4383.08
3304.387	4319.75
3307.425	4272.42
3310.459	4222.08
3313.492	4182.75
3316.521	4136.08
3319.549	4092.08
3322.574	4059.08
3325.597	4050.08
3328.617	4021.08
3331.635	3993.42
3334.65	3996.75
3337.663	3976.75
3340.674	3948.42
3343.682	3971.08
3346.688	3964.42
3349.691	3947.75
3352.692	3916.42
3355.691	3900.75
3358.687	3855.08
3361.681	3818.08
3364.673	3764.08
3367.662	3735.75
3370.649	3676.08
3373.633	3639.08
3376.615	3581.75
3379.595	3532.08
3382.572	3503.08
3385.547	3458.08
3388.52	3413.42
3391.49	3381.08
3394.458	3321.08
3397.424	3290.75
3400.387	3256.42
3403.348	3217.75
3406.307	3192.42
3409.263	3169.08
3412.217	3145.08
3415.168	3101.08
3418.118	3061.08
3421.065	3041.75
3424.009	2999.08
3426.951	2964.75
3429.891	2928.75
3432.829	2854.42
3435.764	2797.42
3438.697	2733.42
3441.628	2671.75
3444.557	2590.75
3447.483	2519.08
3450.407	2456.08
3453.328	2396.42
3456.247	2341.42
3459.164	2263.42
3462.079	2200.42
3464.991	2128.42
3467.902	2069.08
3470.809	2007.75
3473.715	1935.75
3476.618	1899.42
3479.519	1850.08
3482.418	1792.75
3485.315	1746.08
3488.209	1697.42
3491.101	1656.42
3493.99	1607.75
3496.878	1557.75
3499.763	1514.08
3502.646	1467.08
3505.527	1417.75
3508.405	1367.42
3511.281	1307.42
3514.155	1254.08
3517.027	1204.42
3519.897	1140.75
3522.764	1088.08
3525.629	1026.42
3528.492	971.08
3531.352	921.08
3534.211	866.08
3537.067	822.75
3539.921	770.75
3542.773	732.75
3545.622	681.42
3548.469	652.08
3551.315	607.75
3554.157	566.42
3556.998	543.42
3559.837	514.08
3562.673	484.08
3565.507	447.42
3568.339	416.08
3571.169	397.75
3573.996	367.42
3576.822	333.42
3579.645	311.75
3582.466	278.42
3585.285	261.75
3588.101	225.08
3590.916	203.08
3593.728	176.08
3596.538	153.08
3599.346	130.42
3602.152	112.08
3604.956	89.75
3607.757	63.42
3610.556	40.42
3613.354	27.42
3616.149	8.75
3618.942	-4.92
3621.732	-21.25
3624.521	-38.25
3627.307	-52.25
3630.092	-68.25
3632.874	-81.58
3635.654	-92.92
3638.432	-104.25
3641.208	-113.25
3643.982	-128.58
3646.753	-138.92
3649.523	-156.25
3652.29	-161.92
3655.055	-185.92
3657.818	-194.58
3660.579	-205.25
3663.338	-220.58
3666.095	-229.25
3668.849	-246.25
3671.602	-251.25
3674.352	-261.25
3677.101	-264.92
3679.847	-279.58
3682.591	-290.25
3685.333	-295.92
3688.073	-302.25
3690.811	-318.25
3693.547	-318.25
3696.281	-323.58
3699.013	-334.58
3701.742	-336.25
3704.47	-344.25
3707.195	-344.92
3709.919	-351.58
3712.64	-356.92
3715.359	-363.25
3718.076	-366.92
3720.792	-375.25
3723.505	-377.58
3726.216	-377.58
3728.925	-385.25
3731.632	-389.25
3734.336	-394.25
3737.039	-396.25
3739.74	-398.58
3742.439	-406.25
3745.136	-410.25
3747.83	-405.92
3750.523	-408.58
3753.213	-424.92
3755.902	-416.92
3758.589	-424.25
3761.273	-417.25
3763.956	-416.25
3766.636	-420.92
3769.315	-426.25
3771.991	-425.58
3774.665	-427.25
3777.338	-429.92
3780.008	-431.25
3782.677	-432.92
3785.343	-435.92
3788.007	-439.25
3790.67	-436.58
3793.33	-439.58
3795.989	-441.58
3798.645	-437.58
3801.299	-444.58
3803.952	-445.58
3806.602	-445.25
3809.251	-447.58
3811.897	-447.92
3814.542	-449.92
3817.184	-445.25
3819.825	-451.58
3822.463	-448.92
3825.1	-454.92
3827.735	-452.25
3830.367	-451.58
3832.998	-455.25
3835.627	-458.92
3838.253	-455.92
3840.878	-457.25
3843.501	-454.58
3846.122	-460.92
3848.741	-458.92
3851.358	-461.25
3853.973	-461.92
3856.586	-461.58
3859.197	-461.58
3861.806	-461.92
3864.414	-462.25
3867.019	-463.25
3869.622	-457.92
3872.224	-452.58
3874.823	-442.58
3877.421	-423.25
3880.016	-403.58
3882.61	-388.25
3885.202	-385.92
3887.792	-412.25
3890.38	-432.92
3892.966	-450.25
3895.55	-461.25
3898.132	-469.92
3900.713	-467.58
3903.291	-473.58
3905.868	-474.25
3908.442	-469.92
3911.015	-475.58
3913.586	-472.58
3916.155	-473.25
3918.722	-478.58
3921.287	-477.25
3923.85	-475.25
3926.411	-475.92
3928.971	-475.58
3931.528	-475.25
3934.084	-480.92
3936.638	-475.58
3939.19	-478.58
3941.74	-476.92
3944.288	-477.58
3946.834	-478.25
3949.378	-475.92
3951.921	-477.58
3954.462	-479.92
3957	-473.92
3959.537	-471.58
3962.072	-475.58
3964.606	-476.58
3967.137	-471.58
3969.667	-474.25
3972.194	-472.25
3974.72	-473.92
3977.244	-471.92
3979.766	-470.92
3982.286	-467.92
3984.805	-465.92
3987.321	-469.92
3989.836	-465.25
3992.349	-464.92
3994.86	-465.58
3997.369	-465.92
3999.877	-463.92
4002.382	-465.58
4004.886	-467.92
4007.388	-469.92
4009.888	-464.92
4012.386	-464.92
4014.883	-469.25
4017.377	-467.25
4019.87	-472.92
4022.361	-469.58
4024.85	-470.92
4027.338	-470.25
4029.823	-467.58
4032.307	-469.92
4034.789	-470.92
4037.269	-470.92
4039.747	-475.25
4042.224	-469.58
4044.699	-473.25
4047.172	-475.25
4049.643	-473.92
4052.112	-477.58
4054.58	-476.25
4057.046	-474.58
4059.51	-474.58
4061.972	-473.58
4064.432	-476.58
4066.891	-477.58
4069.348	-473.25
4071.803	-472.58
4074.256	-474.25
4076.708	-472.92
4079.158	-471.25
4081.606	-471.25
4084.052	-472.25
4086.497	-471.92
4088.939	-473.58
4091.38	-472.25
4093.819	-469.92
4096.257	-489.25
4098.693	-487.92
4101.127	-487.25
4103.559	-487.92
4105.989	-283.25
4108.418	-266.92
4110.845	-256.58
4113.27	-226.25
4115.694	-203.92
4118.115	-163.58
4120.535	-469.58
4122.954	-472.25
4125.37	-472.25
4127.785	-472.58
4130.198	-478.25
4132.609	-600.58
4135.019	-488.58
4137.427	-489.58
4139.833	-490.58
4142.237	-492.58
