Data from EC10_RamanShift_1.txt Node
Date: Mon Nov 06 14:00:58 IST 2017
User: aro
Spectrometer: QEPB0276
Trigger mode: 0
Integration Time (sec): 4.000000E1
Scans to average: 3
Electric dark correction enabled: true
Nonlinearity correction enabled: false
Boxcar width: 0
XAxis mode: Raman Shifts
Number of Pixels in Spectrum: 1044
>>>>>Begin Spectral Data<<<<<
160.701	-93.29
166.742	12.04
172.777	352.04
178.805	1417.71
184.826	4180.04
190.841	9199.38
196.849	15172.04
202.85	19239.04
208.845	20263.04
214.833	19649.04
220.815	18902.71
226.789	18355.38
232.758	17914.38
238.719	17384.38
244.674	16748.04
250.623	16068.38
256.565	15378.38
262.5	14713.38
268.429	14066.04
274.351	13496.04
280.267	13051.04
286.176	12633.04
292.079	12338.71
297.975	11963.38
303.865	11598.38
309.748	11304.71
315.625	11057.71
321.495	10901.38
327.359	10733.38
333.217	10621.04
339.068	10577.71
344.912	10508.04
350.751	10450.71
356.583	10435.71
362.408	10367.38
368.227	10402.71
374.04	10415.04
379.847	10595.04
385.647	10725.38
391.44	10682.38
397.228	10627.71
403.009	10662.04
408.784	10794.38
414.553	11132.38
420.315	11538.38
426.071	11562.71
431.821	11187.04
437.565	10809.71
443.302	10655.38
449.033	10591.38
454.758	10542.04
460.477	10456.04
466.189	10384.71
471.896	10307.71
477.596	10232.71
483.29	10180.71
488.978	10111.04
494.66	10022.71
500.335	9902.04
506.005	9728.38
511.668	9546.71
517.325	9352.04
522.977	9232.71
528.622	9080.04
534.261	8986.38
539.894	8889.04
545.521	8815.04
551.141	8758.71
556.756	8692.38
562.365	8626.04
567.968	8583.04
573.565	8520.38
579.155	8465.38
584.74	8392.71
590.319	8324.38
595.892	8236.04
601.459	8180.38
607.02	8110.71
612.575	8010.04
618.124	7922.38
623.667	7852.38
629.204	7791.71
634.735	7751.38
640.261	7775.71
645.781	7837.04
651.294	7870.04
656.802	7744.38
662.304	7574.38
667.8	7483.04
673.29	7402.71
678.775	7366.38
684.254	7309.38
689.726	7265.04
695.193	7172.71
700.655	7131.04
706.11	7051.38
711.56	7001.38
717.004	6930.04
722.442	6898.71
727.874	6859.38
733.301	6819.38
738.722	6814.38
744.137	6777.71
749.547	6769.38
754.951	6763.71
760.349	6738.04
765.741	6666.38
771.128	6620.04
776.509	6606.38
781.885	6574.04
787.254	6512.38
792.618	6469.04
797.977	6428.38
803.33	6354.04
808.677	6271.38
814.019	6198.04
819.355	6132.71
824.686	6060.38
830.011	6001.71
835.33	6001.38
840.644	5938.71
845.952	5881.04
851.255	5879.04
856.552	5816.38
861.844	5754.04
867.13	5731.04
872.41	5647.38
877.686	5559.38
882.955	5492.04
888.219	5396.71
893.478	5309.71
898.731	5220.04
903.979	5148.71
909.221	5091.71
914.458	5048.04
919.69	4999.38
924.916	4993.71
930.136	4995.04
935.351	4969.38
940.561	4967.04
945.766	4940.04
950.965	4882.38
956.158	4825.71
961.347	4749.38
966.529	4660.38
971.707	4594.38
976.879	4518.04
982.046	4471.38
987.208	4447.04
992.364	4430.38
997.515	4471.71
1002.66	4490.38
1007.801	4503.04
1012.936	4553.71
1018.066	4584.38
1023.19	4592.71
1028.309	4578.04
1033.423	4565.04
1038.532	4515.04
1043.636	4467.38
1048.734	4410.04
1053.827	4357.04
1058.915	4319.71
1063.998	4278.04
1069.075	4271.04
1074.147	4282.04
1079.214	4296.71
1084.276	4334.38
1089.333	4357.04
1094.385	4363.71
1099.431	4388.71
1104.472	4375.71
1109.509	4343.71
1114.54	4262.71
1119.565	4225.71
1124.586	4165.04
1129.602	4115.71
1134.613	4092.38
1139.618	4075.04
1144.619	4071.04
1149.614	4103.04
1154.604	4107.38
1159.589	4145.04
1164.57	4130.38
1169.545	4155.38
1174.515	4130.38
1179.48	4104.04
1184.44	4057.04
1189.395	4030.38
1194.345	4016.71
1199.29	3995.04
1204.23	4002.38
1209.165	4010.38
1214.095	4055.71
1219.021	4081.38
1223.941	4104.38
1228.856	4131.38
1233.766	4138.04
1238.672	4138.04
1243.572	4100.71
1248.467	4073.71
1253.358	4011.38
1258.244	3954.71
1263.124	3889.71
1268	3845.38
1272.871	3792.71
1277.737	3760.04
1282.599	3746.04
1287.455	3753.04
1292.306	3781.38
1297.153	3780.38
1301.995	3816.04
1306.832	3832.38
1311.664	3850.38
1316.491	3840.71
1321.314	3827.04
1326.132	3766.38
1330.945	3748.38
1335.753	3714.04
1340.556	3679.38
1345.354	3666.38
1350.148	3619.38
1354.937	3605.71
1359.722	3554.04
1364.501	3490.71
1369.276	3434.38
1374.046	3382.71
1378.811	3337.71
1383.572	3306.04
1388.327	3291.38
1393.079	3255.04
1397.825	3237.38
1402.567	3217.71
1407.304	3200.04
1412.036	3190.38
1416.764	3194.71
1421.487	3193.04
1426.205	3232.04
1430.919	3259.04
1435.628	3302.38
1440.333	3321.71
1445.032	3353.04
1449.727	3383.38
1454.418	3387.04
1459.104	3383.04
1463.785	3370.71
1468.462	3330.04
1473.134	3306.04
1477.802	3300.71
1482.465	3285.71
1487.123	3306.04
1491.777	3298.04
1496.426	3335.04
1501.071	3361.38
1505.711	3387.38
1510.347	3415.38
1514.978	3422.71
1519.604	3413.04
1524.226	3408.38
1528.844	3393.04
1533.457	3358.71
1538.065	3345.38
1542.669	3318.04
1547.269	3322.38
1551.864	3334.04
1556.454	3376.71
1561.041	3407.04
1565.622	3475.04
1570.199	3515.71
1574.772	3601.71
1579.34	3703.04
1583.904	3772.38
1588.464	3848.04
1593.019	3929.38
1597.569	3982.04
1602.115	4054.71
1606.657	4100.38
1611.195	4149.04
1615.728	4195.38
1620.256	4262.38
1624.78	4361.04
1629.3	4434.71
1633.816	4516.04
1638.327	4574.38
1642.834	4642.38
1647.336	4698.38
1651.834	4662.04
1656.328	4674.71
1660.817	4602.04
1665.302	4519.04
1669.783	4397.04
1674.259	4262.04
1678.732	4116.04
1683.199	3998.04
1687.663	3841.38
1692.122	3671.71
1696.577	3508.38
1701.028	3312.38
1705.474	3128.71
1709.917	2971.04
1714.355	2851.38
1718.788	2763.38
1723.218	2686.38
1727.643	2631.38
1732.064	2553.38
1736.481	2457.04
1740.893	2378.04
1745.301	2272.04
1749.705	2203.04
1754.105	2126.04
1758.501	2065.38
1762.893	2010.38
1767.28	1981.04
1771.663	1969.71
1776.042	1953.71
1780.417	1966.04
1784.787	1957.04
1789.154	1954.04
1793.516	1930.38
1797.874	1907.71
1802.228	1852.71
1806.578	1790.71
1810.924	1721.04
1815.266	1685.71
1819.603	1646.38
1823.937	1632.71
1828.266	1620.71
1832.591	1625.04
1836.913	1629.38
1841.23	1625.04
1845.543	1633.38
1849.852	1652.38
1854.156	1656.04
1858.457	1658.71
1862.754	1666.71
1867.047	1679.38
1871.335	1694.71
1875.62	1698.71
1879.9	1708.38
1884.177	1708.04
1888.449	1707.04
1892.718	1689.38
1896.982	1680.71
1901.243	1682.38
1905.499	1681.04
1909.752	1668.04
1914	1677.38
1918.245	1683.04
1922.485	1693.38
1926.722	1699.04
1930.954	1698.04
1935.183	1705.04
1939.408	1695.04
1943.628	1687.71
1947.845	1648.04
1952.058	1626.71
1956.267	1602.04
1960.472	1569.71
1964.673	1531.04
1968.87	1505.04
1973.063	1491.38
1977.252	1492.38
1981.438	1482.71
1985.619	1466.71
1989.797	1472.71
1993.971	1480.04
1998.14	1490.04
2002.306	1499.04
2006.469	1517.38
2010.627	1520.71
2014.781	1528.38
2018.932	1533.04
2023.078	1531.71
2027.221	1532.04
2031.36	1517.38
2035.495	1495.04
2039.627	1483.38
2043.754	1487.71
2047.878	1490.38
2051.998	1500.38
2056.114	1511.71
2060.226	1521.71
2064.334	1538.04
2068.439	1543.38
2072.54	1571.38
2076.637	1577.04
2080.73	1579.04
2084.82	1590.38
2088.906	1591.04
2092.988	1585.71
2097.066	1559.71
2101.14	1532.38
2105.211	1522.04
2109.278	1494.38
2113.342	1476.71
2117.401	1459.04
2121.457	1436.38
2125.509	1417.04
2129.558	1399.71
2133.602	1396.71
2137.643	1381.71
2141.681	1378.38
2145.714	1359.38
2149.744	1333.71
2153.77	1336.38
2157.793	1314.71
2161.812	1290.38
2165.827	1276.04
2169.838	1247.04
2173.846	1221.04
2177.851	1204.04
2181.851	1186.04
2185.848	1158.71
2189.841	1144.71
2193.831	1128.04
2197.817	1109.71
2201.799	1094.71
2205.778	1100.04
2209.753	1074.38
2213.725	1074.38
2217.693	1058.38
2221.657	1062.71
2225.618	1049.38
2229.575	1036.71
2233.529	1025.04
2237.479	1004.04
2241.425	971.04
2245.368	951.38
2249.307	927.71
2253.243	898.38
2257.175	882.04
2261.104	857.71
2265.029	853.04
2268.95	834.38
2272.868	816.04
2276.783	802.71
2280.694	776.04
2284.601	767.71
2288.505	749.71
2292.405	733.71
2296.302	706.71
2300.195	696.38
2304.085	683.38
2307.971	663.38
2311.854	649.04
2315.734	626.04
2319.609	606.38
2323.482	595.38
2327.351	585.04
2331.216	587.04
2335.078	583.04
2338.937	567.38
2342.792	554.71
2346.643	554.04
2350.492	547.71
2354.336	542.38
2358.178	550.38
2362.015	552.38
2365.85	546.04
2369.681	547.71
2373.508	554.04
2377.333	548.71
2381.153	539.38
2384.971	545.38
2388.785	537.04
2392.595	526.71
2396.402	528.38
2400.206	527.04
2404.007	515.71
2407.804	512.38
2411.597	505.38
2415.388	506.71
2419.174	498.38
2422.958	498.71
2426.738	487.71
2430.515	485.38
2434.289	476.38
2438.059	476.71
2441.825	470.38
2445.589	473.38
2449.349	450.71
2453.106	452.71
2456.859	445.04
2460.61	439.38
2464.356	429.71
2468.1	426.71
2471.84	417.04
2475.577	422.71
2479.311	430.04
2483.041	423.71
2486.768	416.38
2490.492	419.38
2494.213	427.38
2497.93	424.71
2501.644	429.38
2505.355	422.38
2509.062	427.04
2512.766	421.38
2516.467	424.71
2520.165	419.71
2523.859	417.71
2527.551	415.38
2531.239	409.71
2534.923	400.38
2538.605	407.04
2542.283	409.04
2545.958	402.04
2549.63	397.04
2553.299	401.04
2556.964	396.38
2560.626	390.04
2564.285	390.04
2567.941	374.04
2571.594	370.38
2575.243	369.04
2578.89	368.04
2582.533	357.38
2586.173	351.71
2589.809	335.71
2593.443	333.71
2597.073	327.04
2600.701	319.38
2604.325	312.04
2607.946	319.04
2611.564	304.71
2615.178	307.71
2618.79	295.71
2622.398	290.38
2626.004	294.38
2629.606	289.04
2633.205	282.38
2636.801	279.38
2640.394	268.38
2643.983	271.38
2647.57	265.04
2651.153	256.38
2654.734	257.38
2658.311	249.71
2661.885	245.04
2665.456	252.38
2669.025	248.71
2672.589	245.38
2676.151	245.38
2679.71	238.38
2683.266	234.71
2686.819	238.38
2690.368	231.71
2693.915	221.38
2697.458	222.71
2700.999	216.38
2704.536	213.04
2708.071	210.71
2711.602	215.38
2715.13	217.04
2718.656	207.38
2722.178	214.71
2725.697	213.38
2729.214	233.71
2732.727	231.04
2736.237	238.38
2739.744	246.38
2743.249	250.71
2746.75	247.04
2750.248	245.71
2753.743	241.71
2757.236	238.04
2760.725	222.71
2764.211	221.38
2767.695	204.04
2771.175	204.04
2774.652	201.04
2778.127	202.04
2781.598	208.04
2785.067	205.04
2788.532	213.71
2791.995	222.38
2795.455	233.04
2798.911	244.71
2802.365	252.38
2805.816	260.04
2809.264	265.04
2812.709	268.04
2816.151	273.04
2819.59	278.38
2823.026	287.71
2826.46	288.71
2829.89	308.04
2833.318	306.71
2836.742	311.71
2840.164	317.04
2843.583	319.38
2846.999	334.04
2850.412	342.04
2853.822	349.71
2857.229	359.71
2860.634	374.04
2864.035	387.38
2867.434	393.38
2870.83	409.04
2874.223	413.71
2877.613	421.38
2881	425.71
2884.385	432.71
2887.766	438.71
2891.145	439.38
2894.521	449.71
2897.894	458.38
2901.264	475.04
2904.631	481.71
2907.996	498.04
2911.358	509.04
2914.717	511.04
2918.073	536.38
2921.426	545.38
2924.777	575.71
2928.124	589.04
2931.469	607.38
2934.811	628.71
2938.15	660.04
2941.487	673.71
2944.821	692.04
2948.152	718.71
2951.48	731.38
2954.805	750.38
2958.128	777.38
2961.447	799.38
2964.765	827.04
2968.079	866.38
2971.39	890.04
2974.699	921.38
2978.005	952.71
2981.308	985.38
2984.609	1017.71
2987.907	1066.71
2991.202	1105.04
2994.494	1144.04
2997.784	1195.38
3001.07	1229.38
3004.355	1259.71
3007.636	1299.04
3010.915	1328.71
3014.191	1360.38
3017.464	1394.71
3020.734	1409.71
3024.002	1449.38
3027.267	1482.38
3030.53	1518.38
3033.789	1550.04
3037.046	1598.71
3040.301	1650.71
3043.552	1700.04
3046.801	1749.38
3050.048	1820.04
3053.291	1880.38
3056.532	1942.04
3059.771	2016.04
3063.006	2082.04
3066.239	2174.38
3069.469	2231.38
3072.697	2318.71
3075.922	2392.04
3079.144	2457.38
3082.364	2530.71
3085.581	2601.38
3088.795	2676.71
3092.007	2751.04
3095.216	2816.04
3098.423	2876.38
3101.627	2964.04
3104.828	3043.38
3108.026	3125.04
3111.222	3193.04
3114.416	3306.04
3117.607	3361.38
3120.795	3452.38
3123.98	3549.71
3127.163	3657.04
3130.344	3742.71
3133.521	3820.71
3136.696	3915.38
3139.869	3997.04
3143.039	4063.37
3146.206	4123.38
3149.371	4181.38
3152.533	4228.71
3155.693	4262.04
3158.85	4292.04
3162.005	4304.71
3165.157	4336.38
3168.306	4346.71
3171.453	4386.04
3174.597	4384.71
3177.739	4414.04
3180.878	4411.71
3184.014	4428.38
3187.149	4449.38
3190.28	4455.38
3193.409	4473.71
3196.536	4481.04
3199.659	4515.71
3202.781	4521.04
3205.9	4531.04
3209.016	4545.04
3212.13	4525.04
3215.241	4487.38
3218.35	4470.71
3221.456	4424.38
3224.56	4413.04
3227.661	4360.04
3230.76	4333.38
3233.856	4291.04
3236.95	4260.38
3240.041	4244.38
3243.13	4225.38
3246.216	4205.38
3249.3	4173.71
3252.382	4159.04
3255.46	4157.71
3258.537	4149.71
3261.611	4143.38
3264.682	4113.71
3267.751	4106.04
3270.818	4104.38
3273.882	4089.37
3276.943	4052.71
3280.002	3996.04
3283.059	3958.38
3286.113	3922.04
3289.165	3863.04
3292.214	3790.71
3295.261	3718.71
3298.306	3678.38
3301.348	3604.38
3304.387	3568.38
3307.425	3505.04
3310.459	3468.38
3313.492	3441.04
3316.521	3381.04
3319.549	3348.71
3322.574	3312.38
3325.597	3298.71
3328.617	3274.04
3331.635	3270.38
3334.65	3266.04
3337.663	3241.38
3340.674	3231.38
3343.682	3217.38
3346.688	3224.04
3349.691	3205.38
3352.692	3172.71
3355.691	3163.38
3358.687	3124.71
3361.681	3098.38
3364.673	3063.04
3367.662	3022.04
3370.649	2983.71
3373.633	2960.71
3376.615	2906.71
3379.595	2870.38
3382.572	2839.04
3385.547	2797.38
3388.52	2776.38
3391.49	2730.71
3394.458	2703.04
3397.424	2661.71
3400.387	2634.04
3403.348	2611.38
3406.307	2602.04
3409.263	2577.04
3412.217	2548.71
3415.168	2507.38
3418.118	2481.38
3421.065	2462.71
3424.009	2434.04
3426.951	2398.38
3429.891	2371.04
3432.829	2323.04
3435.764	2280.71
3438.697	2235.38
3441.628	2185.04
3444.557	2120.04
3447.483	2063.38
3450.407	2013.04
3453.328	1958.38
3456.247	1902.38
3459.164	1853.71
3462.079	1796.38
3464.991	1745.38
3467.902	1701.71
3470.809	1651.38
3473.715	1604.38
3476.618	1545.38
3479.519	1504.38
3482.418	1476.04
3485.315	1447.38
3488.209	1409.38
3491.101	1366.71
3493.99	1321.04
3496.878	1288.04
3499.763	1245.71
3502.646	1211.71
3505.527	1168.04
3508.405	1127.38
3511.281	1085.71
3514.155	1036.38
3517.027	988.71
3519.897	943.04
3522.764	894.04
3525.629	846.38
3528.492	807.71
3531.352	763.38
3534.211	718.38
3537.067	681.04
3539.921	642.38
3542.773	602.71
3545.622	570.04
3548.469	536.71
3551.315	496.71
3554.157	465.71
3556.998	444.04
3559.837	418.38
3562.673	387.38
3565.507	368.71
3568.339	344.71
3571.169	325.04
3573.996	295.38
3576.822	277.38
3579.645	246.04
3582.466	232.71
3585.285	217.38
3588.101	185.71
3590.916	166.04
3593.728	141.38
3596.538	118.71
3599.346	99.71
3602.152	84.38
3604.956	71.38
3607.757	49.71
3610.556	32.38
3613.354	18.04
3616.149	3.38
3618.942	-16.29
3621.732	-25.62
3624.521	-34.62
3627.307	-52.96
3630.092	-64.29
3632.874	-79.29
3635.654	-92.62
3638.432	-96.29
3641.208	-108.29
3643.982	-116.62
3646.753	-127.29
3649.523	-139.96
3652.29	-151.29
3655.055	-163.96
3657.818	-170.62
3660.579	-180.96
3663.338	-192.62
3666.095	-208.29
3668.849	-210.62
3671.602	-221.29
3674.352	-230.62
3677.101	-236.62
3679.847	-242.29
3682.591	-249.62
3685.333	-257.62
3688.073	-260.96
3690.811	-274.62
3693.547	-276.62
3696.281	-281.96
3699.013	-282.29
3701.742	-293.29
3704.47	-296.96
3707.195	-299.29
3709.919	-303.29
3712.64	-307.62
3715.359	-310.96
3718.076	-316.29
3720.792	-325.29
3723.505	-326.96
3726.216	-324.96
3728.925	-326.29
3731.632	-335.29
3734.336	-341.96
3737.039	-338.96
3739.74	-343.62
3742.439	-348.96
3745.136	-350.29
3747.83	-346.96
3750.523	-352.29
3753.213	-358.29
3755.902	-356.62
3758.589	-362.29
3761.273	-354.96
3763.956	-358.29
3766.636	-362.96
3769.315	-359.96
3771.991	-366.29
3774.665	-364.96
3777.338	-370.62
3780.008	-371.29
3782.677	-373.96
3785.343	-370.62
3788.007	-374.96
3790.67	-376.29
3793.33	-376.29
3795.989	-374.29
3798.645	-378.29
3801.299	-380.29
3803.952	-382.62
3806.602	-382.29
3809.251	-379.96
3811.897	-385.29
3814.542	-385.62
3817.184	-382.29
3819.825	-382.96
3822.463	-384.62
3825.1	-387.96
3827.735	-388.29
3830.367	-386.62
3832.998	-389.29
3835.627	-390.96
3838.253	-390.29
3840.878	-391.96
3843.501	-389.96
3846.122	-390.96
3848.741	-390.62
3851.358	-393.96
3853.973	-389.29
3856.586	-394.62
3859.197	-392.96
3861.806	-391.29
3864.414	-394.29
3867.019	-396.29
3869.622	-392.29
3872.224	-389.96
3874.823	-381.62
3877.421	-371.96
3880.016	-362.29
3882.61	-351.62
3885.202	-352.29
3887.792	-365.62
3890.38	-375.96
3892.966	-389.29
3895.55	-397.96
3898.132	-399.96
3900.713	-397.62
3903.291	-401.62
3905.868	-402.96
3908.442	-405.29
3911.015	-403.62
3913.586	-404.62
3916.155	-405.29
3918.722	-402.62
3921.287	-406.29
3923.85	-404.29
3926.411	-408.29
3928.971	-405.96
3931.528	-406.96
3934.084	-410.29
3936.638	-406.29
3939.19	-410.96
3941.74	-406.62
3944.288	-405.96
3946.834	-405.62
3949.378	-406.62
3951.921	-406.29
3954.462	-405.62
3957	-404.62
3959.537	-405.62
3962.072	-404.96
3964.606	-403.29
3967.137	-405.96
3969.667	-404.29
3972.194	-403.62
3974.72	-404.29
3977.244	-401.29
3979.766	-400.62
3982.286	-395.62
3984.805	-397.29
3987.321	-397.62
3989.836	-394.62
3992.349	-393.96
3994.86	-395.96
3997.369	-395.62
3999.877	-395.96
4002.382	-396.62
4004.886	-397.29
4007.388	-401.62
4009.888	-397.96
4012.386	-398.29
4014.883	-398.96
4017.377	-398.29
4019.87	-400.96
4022.361	-399.62
4024.85	-398.29
4027.338	-398.29
4029.823	-401.29
4032.307	-402.29
4034.789	-398.96
4037.269	-400.62
4039.747	-405.29
4042.224	-402.96
4044.699	-406.29
4047.172	-402.62
4049.643	-406.96
4052.112	-402.62
4054.58	-405.96
4057.046	-402.96
4059.51	-404.96
4061.972	-402.96
4064.432	-405.29
4066.891	-405.62
4069.348	-404.62
4071.803	-403.96
4074.256	-403.96
4076.708	-402.96
4079.158	-400.29
4081.606	-403.62
4084.052	-401.96
4086.497	-402.96
4088.939	-401.62
4091.38	-400.62
4093.819	-403.96
4096.257	-423.96
4098.693	-421.62
4101.127	-421.29
4103.559	-420.96
4105.989	-252.96
4108.418	-243.96
4110.845	-229.62
4113.27	-207.62
4115.694	-182.96
4118.115	-148.62
4120.535	-399.62
4122.954	-401.62
4125.37	-401.96
4127.785	-402.96
4130.198	-412.96
4132.609	-531.62
4135.019	-421.62
4137.427	-421.29
4139.833	-422.29
4142.237	-423.29
