Data from EC10_RamanShift_4.txt Node
Date: Mon Nov 06 14:16:58 IST 2017
User: aro
Spectrometer: QEPB0276
Trigger mode: 0
Integration Time (sec): 4.000000E1
Scans to average: 3
Electric dark correction enabled: true
Nonlinearity correction enabled: false
Boxcar width: 0
XAxis mode: Raman Shifts
Number of Pixels in Spectrum: 1044
>>>>>Begin Spectral Data<<<<<
160.701	-95.5
166.742	26.17
172.777	351.17
178.805	1446.5
184.826	4245.5
190.841	9291.5
196.849	15338.5
202.85	19425.83
208.845	20445.17
214.833	19808.83
220.815	19008.83
226.789	18447.83
232.758	17949.5
238.719	17382.83
244.674	16770.83
250.623	16041.17
256.565	15324.17
262.5	14611.5
268.429	13974.17
274.351	13402.17
280.267	12884.5
286.176	12437.5
292.079	12016.5
297.975	11658.5
303.865	11363.17
309.748	11085.17
315.625	10848.83
321.495	10627.17
327.359	10499.17
333.217	10379.83
339.068	10327.17
344.912	10284.17
350.751	10228.83
356.583	10192.83
362.408	10079.83
368.227	10148.5
374.04	10203.17
379.847	10347.17
385.647	10491.17
391.44	10465.5
397.228	10390.5
403.009	10433.5
408.784	10581.17
414.553	10889.83
420.315	11273.83
426.071	11327.17
431.821	10905.83
437.565	10568.17
443.302	10443.83
449.033	10367.83
454.758	10279.83
460.477	10256.17
466.189	10171.5
471.896	10070.17
477.596	10006.83
483.29	9949.83
488.978	9846.17
494.66	9801.17
500.335	9684.83
506.005	9487.83
511.668	9285.5
517.325	9100.5
522.977	8962.5
528.622	8845.17
534.261	8715.83
539.894	8619.5
545.521	8555.5
551.141	8504.5
556.756	8416.83
562.365	8345.5
567.968	8319.17
573.565	8235.83
579.155	8207.5
584.74	8116.17
590.319	8052.17
595.892	7984.83
601.459	7924.5
607.02	7836.17
612.575	7740.83
618.124	7656.17
623.667	7585.5
629.204	7516.83
634.735	7493.17
640.261	7523.83
645.781	7568.17
651.294	7599.5
656.802	7501.17
662.304	7308.5
667.8	7187.17
673.29	7132.83
678.775	7087.17
684.254	7039.5
689.726	6976.5
695.193	6922.17
700.655	6859.5
706.11	6812.5
711.56	6731.83
717.004	6674.17
722.442	6632.83
727.874	6591.83
733.301	6547.5
738.722	6534.5
744.137	6530.17
749.547	6516.5
754.951	6515.5
760.349	6468.5
765.741	6420.17
771.128	6359.17
776.509	6350.83
781.885	6341.17
787.254	6306.83
792.618	6234.17
797.977	6199.83
803.33	6093.5
808.677	6035.17
814.019	5973.17
819.355	5888.83
824.686	5851.17
830.011	5773.5
835.33	5737.83
840.644	5686.17
845.952	5650.17
851.255	5628.17
856.552	5599.83
861.844	5513.5
867.13	5488.17
872.41	5421.17
877.686	5349.17
882.955	5248.17
888.219	5164.83
893.478	5041.83
898.731	4987.17
903.979	4917.5
909.221	4840.83
914.458	4833.83
919.69	4785.83
924.916	4774.17
930.136	4767.83
935.351	4744.17
940.561	4719.17
945.766	4695.83
950.965	4661.83
956.158	4601.17
961.347	4522.5
966.529	4441.5
971.707	4368.83
976.879	4301.5
982.046	4250.5
987.208	4248.83
992.364	4229.83
997.515	4235.83
1002.66	4255.5
1007.801	4299.83
1012.936	4331.5
1018.066	4347.17
1023.19	4379.83
1028.309	4361.17
1033.423	4334.5
1038.532	4298.5
1043.636	4260.5
1048.734	4206.83
1053.827	4164.83
1058.915	4113.5
1063.998	4103.5
1069.075	4077.17
1074.147	4086.17
1079.214	4113.17
1084.276	4138.17
1089.333	4152.17
1094.385	4169.5
1099.431	4196.5
1104.472	4186.5
1109.509	4149.17
1114.54	4079.5
1119.565	4023.83
1124.586	3972.83
1129.602	3934.83
1134.613	3905.83
1139.618	3903.5
1144.619	3892.5
1149.614	3911.83
1154.604	3927.17
1159.589	3931.83
1164.57	3952.83
1169.545	3953.5
1174.515	3967.83
1179.48	3929.17
1184.44	3891.5
1189.395	3883.17
1194.345	3837.83
1199.29	3835.17
1204.23	3817.5
1209.165	3849.17
1214.095	3874.83
1219.021	3913.83
1223.941	3957.5
1228.856	3960.17
1233.766	3952.17
1238.672	3958.17
1243.572	3957.17
1248.467	3927.17
1253.358	3858.83
1258.244	3799.5
1263.124	3727.5
1268	3685.17
1272.871	3649.17
1277.737	3616.5
1282.599	3597.83
1287.455	3598.17
1292.306	3632.17
1297.153	3637.83
1301.995	3673.83
1306.832	3704.17
1311.664	3695.17
1316.491	3711.5
1321.314	3698.5
1326.132	3641.5
1330.945	3633.83
1335.753	3586.17
1340.556	3558.5
1345.354	3547.17
1350.148	3524.83
1354.937	3490.5
1359.722	3453.5
1364.501	3398.5
1369.276	3338.17
1374.046	3295.17
1378.811	3253.5
1383.572	3213.17
1388.327	3182.83
1393.079	3163.17
1397.825	3140.5
1402.567	3105.83
1407.304	3101.5
1412.036	3086.17
1416.764	3098.17
1421.487	3096.83
1426.205	3120.17
1430.919	3147.83
1435.628	3194.17
1440.333	3204.83
1445.032	3253.5
1449.727	3279.17
1454.418	3289.5
1459.104	3287.83
1463.785	3275.5
1468.462	3261.17
1473.134	3254.83
1477.802	3212.17
1482.465	3229.83
1487.123	3239.17
1491.777	3247.5
1496.426	3286.5
1501.071	3326.5
1505.711	3358.83
1510.347	3378.17
1514.978	3392.83
1519.604	3397.17
1524.226	3378.5
1528.844	3345.17
1533.457	3308.17
1538.065	3291.17
1542.669	3264.17
1547.269	3269.83
1551.864	3270.83
1556.454	3316.17
1561.041	3359.83
1565.622	3409.83
1570.199	3463.83
1574.772	3555.17
1579.34	3655.5
1583.904	3737.83
1588.464	3802.17
1593.019	3898.5
1597.569	3969.83
1602.115	4018.17
1606.657	4070.5
1611.195	4137.17
1615.728	4193.5
1620.256	4265.83
1624.78	4353.17
1629.3	4451.83
1633.816	4532.17
1638.327	4608.17
1642.834	4670.5
1647.336	4724.17
1651.834	4723.5
1656.328	4707.83
1660.817	4662.5
1665.302	4562.5
1669.783	4454.5
1674.259	4343.17
1678.732	4196.17
1683.199	4044.83
1687.663	3912.5
1692.122	3751.5
1696.577	3567.17
1701.028	3384.17
1705.474	3193.17
1709.917	3036.5
1714.355	2895.83
1718.788	2803.5
1723.218	2742.17
1727.643	2663.83
1732.064	2566.5
1736.481	2494.5
1740.893	2394.5
1745.301	2299.83
1749.705	2212.5
1754.105	2144.83
1758.501	2083.83
1762.893	2030.83
1767.28	1988.83
1771.663	1975.17
1776.042	1971.5
1780.417	1966.5
1784.787	1973.83
1789.154	1979.17
1793.516	1961.17
1797.874	1925.5
1802.228	1877.17
1806.578	1815.17
1810.924	1755.17
1815.266	1708.5
1819.603	1656.5
1823.937	1649.83
1828.266	1634.83
1832.591	1623.83
1836.913	1617.17
1841.23	1616.83
1845.543	1629.17
1849.852	1635.5
1854.156	1647.17
1858.457	1657.17
1862.754	1670.5
1867.047	1683.17
1871.335	1706.17
1875.62	1710.83
1879.9	1717.5
1884.177	1726.17
1888.449	1710.17
1892.718	1708.17
1896.982	1704.83
1901.243	1709.17
1905.499	1704.17
1909.752	1712.83
1914	1722.17
1918.245	1727.5
1922.485	1732.17
1926.722	1751.17
1930.954	1763.83
1935.183	1762.83
1939.408	1752.5
1943.628	1740.17
1947.845	1713.83
1952.058	1676.5
1956.267	1657.5
1960.472	1606.17
1964.673	1584.17
1968.87	1537.5
1973.063	1525.83
1977.252	1511.17
1981.438	1513.17
1985.619	1499.5
1989.797	1489.17
1993.971	1505.5
1998.14	1504.17
2002.306	1526.5
2006.469	1540.83
2010.627	1539.83
2014.781	1559.5
2018.932	1556.83
2023.078	1541.17
2027.221	1553.17
2031.36	1539.83
2035.495	1529.17
2039.627	1536.5
2043.754	1519.5
2047.878	1521.83
2051.998	1528.17
2056.114	1543.83
2060.226	1559.5
2064.334	1570.17
2068.439	1588.17
2072.54	1612.17
2076.637	1630.5
2080.73	1636.17
2084.82	1645.83
2088.906	1650.17
2092.988	1634.83
2097.066	1623.5
2101.14	1592.5
2105.211	1570.17
2109.278	1539.5
2113.342	1532.83
2117.401	1487.17
2121.457	1485.17
2125.509	1465.83
2129.558	1455.5
2133.602	1430.5
2137.643	1424.5
2141.681	1399.5
2145.714	1401.5
2149.744	1393.17
2153.77	1370.83
2157.793	1347.5
2161.812	1335.5
2165.827	1318.17
2169.838	1277.17
2173.846	1268.5
2177.851	1232.5
2181.851	1216.17
2185.848	1183.17
2189.841	1169.83
2193.831	1162.17
2197.817	1137.83
2201.799	1134.17
2205.778	1105.83
2209.753	1108.17
2213.725	1100.17
2217.693	1089.17
2221.657	1086.83
2225.618	1069.17
2229.575	1062.83
2233.529	1038.17
2237.479	1022.83
2241.425	1004.17
2245.368	977.83
2249.307	956.17
2253.243	930.17
2257.175	913.83
2261.104	885.83
2265.029	876.83
2268.95	851.83
2272.868	833.17
2276.783	816.83
2280.694	797.83
2284.601	775.5
2288.505	767.83
2292.405	757.83
2296.302	730.5
2300.195	728.5
2304.085	694.5
2307.971	678.83
2311.854	672.17
2315.734	646.17
2319.609	621.83
2323.482	616.83
2327.351	595.83
2331.216	601.83
2335.078	584.83
2338.937	572.5
2342.792	562.5
2346.643	573.17
2350.492	560.5
2354.336	550.5
2358.178	564.17
2362.015	559.83
2365.85	567.17
2369.681	569.17
2373.508	567.17
2377.333	560.17
2381.153	560.17
2384.971	559.5
2388.785	546.17
2392.595	534.83
2396.402	536.83
2400.206	532.17
2404.007	527.5
2407.804	518.5
2411.597	514.83
2415.388	522.17
2419.174	515.5
2422.958	509.5
2426.738	501.5
2430.515	503.5
2434.289	496.17
2438.059	501.5
2441.825	489.17
2445.589	489.17
2449.349	476.5
2453.106	468.17
2456.859	463.17
2460.61	457.83
2464.356	448.17
2468.1	445.5
2471.84	451.83
2475.577	438.83
2479.311	450.83
2483.041	438.17
2486.768	439.83
2490.492	445.5
2494.213	450.5
2497.93	437.17
2501.644	443.17
2505.355	442.5
2509.062	443.17
2512.766	447.17
2516.467	445.17
2520.165	435.17
2523.859	430.5
2527.551	428.83
2531.239	422.83
2534.923	418.5
2538.605	422.83
2542.283	420.17
2545.958	413.83
2549.63	414.5
2553.299	415.83
2556.964	410.17
2560.626	410.5
2564.285	398.5
2567.941	399.83
2571.594	384.83
2575.243	378.17
2578.89	375.17
2582.533	367.83
2586.173	359.5
2589.809	355.5
2593.443	344.17
2597.073	339.83
2600.701	327.83
2604.325	322.17
2607.946	328.17
2611.564	315.5
2615.178	315.83
2618.79	309.83
2622.398	314.5
2626.004	300.17
2629.606	295.17
2633.205	288.17
2636.801	286.5
2640.394	277.17
2643.983	282.17
2647.57	268.5
2651.153	271.83
2654.734	265.17
2658.311	264.83
2661.885	258.17
2665.456	266.17
2669.025	252.5
2672.589	243.5
2676.151	249.5
2679.71	248.83
2683.266	245.17
2686.819	237.17
2690.368	245.17
2693.915	232.5
2697.458	226.83
2700.999	228.83
2704.536	228.83
2708.071	225.5
2711.602	225.17
2715.13	222.83
2718.656	226.17
2722.178	221.5
2725.697	231.83
2729.214	241.17
2732.727	251.17
2736.237	252.17
2739.744	265.5
2743.249	265.17
2746.75	274.17
2750.248	270.17
2753.743	266.17
2757.236	251.17
2760.725	245.5
2764.211	237.83
2767.695	231.5
2771.175	231.83
2774.652	220.17
2778.127	223.83
2781.598	225.83
2785.067	227.17
2788.532	232.83
2791.995	243.17
2795.455	249.5
2798.911	264.17
2802.365	272.83
2805.816	277.17
2809.264	285.83
2812.709	292.17
2816.151	297.83
2819.59	305.5
2823.026	317.5
2826.46	324.5
2829.89	331.5
2833.318	341.17
2836.742	339.83
2840.164	344.83
2843.583	355.83
2846.999	365.5
2850.412	378.17
2853.822	379.5
2857.229	387.83
2860.634	393.83
2864.035	416.83
2867.434	424.83
2870.83	434.83
2874.223	448.17
2877.613	451.83
2881	462.5
2884.385	465.5
2887.766	463.17
2891.145	474.17
2894.521	485.5
2897.894	501.17
2901.264	505.17
2904.631	516.17
2907.996	521.83
2911.358	537.5
2914.717	557.5
2918.073	574.83
2921.426	584.17
2924.777	604.83
2928.124	622.17
2931.469	648.17
2934.811	672.5
2938.15	690.5
2941.487	715.17
2944.821	737.17
2948.152	762.5
2951.48	776.83
2954.805	795.5
2958.128	821.17
2961.447	841.83
2964.765	870.5
2968.079	901.5
2971.39	943.17
2974.699	969.83
2978.005	1004.83
2981.308	1042.83
2984.609	1084.5
2987.907	1132.5
2991.202	1168.83
2994.494	1210.17
2997.784	1250.17
3001.07	1287.17
3004.355	1318.83
3007.636	1351.5
3010.915	1393.83
3014.191	1419.83
3017.464	1456.17
3020.734	1491.83
3024.002	1503.5
3027.267	1549.5
3030.53	1579.5
3033.789	1628.5
3037.046	1667.83
3040.301	1721.5
3043.552	1776.17
3046.801	1827.5
3050.048	1895.17
3053.291	1956.83
3056.532	2031.5
3059.771	2112.5
3063.006	2182.5
3066.239	2267.17
3069.469	2340.83
3072.697	2422.83
3075.922	2496.83
3079.144	2573.5
3082.364	2659.83
3085.581	2729.5
3088.795	2791.5
3092.007	2867.5
3095.216	2951.5
3098.423	3032.17
3101.627	3107.5
3104.828	3183.83
3108.026	3270.5
3111.222	3356.5
3114.416	3430.83
3117.607	3530.5
3120.795	3617.5
3123.98	3707.5
3127.163	3803.5
3130.344	3903.17
3133.521	4000.83
3136.696	4087.17
3139.869	4171.5
3143.039	4254.83
3146.206	4306.83
3149.371	4357.5
3152.533	4395.5
3155.693	4445.5
3158.85	4465.17
3162.005	4493.17
3165.157	4512.17
3168.306	4539.17
3171.453	4557.5
3174.597	4587.83
3177.739	4583.5
3180.878	4603.5
3184.014	4608.17
3187.149	4648.5
3190.28	4652.5
3193.409	4655.17
3196.536	4689.5
3199.659	4698.17
3202.781	4726.5
3205.9	4718.83
3209.016	4730.5
3212.13	4708.5
3215.241	4687.83
3218.35	4651.83
3221.456	4631.5
3224.56	4584.17
3227.661	4550.83
3230.76	4551.5
3233.856	4496.17
3236.95	4476.17
3240.041	4425.5
3243.13	4425.5
3246.216	4393.83
3249.3	4367.83
3252.382	4363.17
3255.46	4354.83
3258.537	4338.83
3261.611	4307.5
3264.682	4321.5
3267.751	4313.5
3270.818	4296.83
3273.882	4255.5
3276.943	4213.5
3280.002	4189.17
3283.059	4148.5
3286.113	4072.17
3289.165	4007.83
3292.214	3948.83
3295.261	3885.83
3298.306	3826.17
3301.348	3761.5
3304.387	3706.83
3307.425	3644.5
3310.459	3620.83
3313.492	3568.17
3316.521	3529.17
3319.549	3489.17
3322.574	3460.17
3325.597	3433.83
3328.617	3425.83
3331.635	3404.17
3334.65	3397.83
3337.663	3391.5
3340.674	3359.17
3343.682	3340.17
3346.688	3342.17
3349.691	3344.17
3352.692	3326.5
3355.691	3318.5
3358.687	3258.17
3361.681	3238.17
3364.673	3196.83
3367.662	3162.5
3370.649	3106.83
3373.633	3081.5
3376.615	3037.83
3379.595	3013.5
3382.572	2964.17
3385.547	2938.83
3388.52	2885.5
3391.49	2862.17
3394.458	2805.5
3397.424	2770.17
3400.387	2740.5
3403.348	2729.83
3406.307	2714.5
3409.263	2693.17
3412.217	2646.5
3415.168	2624.83
3418.118	2603.5
3421.065	2590.83
3424.009	2554.83
3426.951	2518.17
3429.891	2484.83
3432.829	2426.83
3435.764	2391.83
3438.697	2322.83
3441.628	2277.5
3444.557	2216.5
3447.483	2151.5
3450.407	2101.17
3453.328	2045.83
3456.247	2002.5
3459.164	1940.17
3462.079	1877.17
3464.991	1835.17
3467.902	1780.83
3470.809	1709.5
3473.715	1681.83
3476.618	1627.83
3479.519	1585.5
3482.418	1549.5
3485.315	1513.5
3488.209	1462.17
3491.101	1429.17
3493.99	1397.17
3496.878	1360.83
3499.763	1316.83
3502.646	1274.17
3505.527	1218.83
3508.405	1190.83
3511.281	1137.83
3514.155	1087.83
3517.027	1048.5
3519.897	992.5
3522.764	936.5
3525.629	892.83
3528.492	855.17
3531.352	805.17
3534.211	760.83
3537.067	710.83
3539.921	674.83
3542.773	636.5
3545.622	600.83
3548.469	569.83
3551.315	528.5
3554.157	495.5
3556.998	470.17
3559.837	443.83
3562.673	414.83
3565.507	395.5
3568.339	364.83
3571.169	347.5
3573.996	321.5
3576.822	294.5
3579.645	274.17
3582.466	244.83
3585.285	223.83
3588.101	198.17
3590.916	177.5
3593.728	150.83
3596.538	133.5
3599.346	114.83
3602.152	95.83
3604.956	82.5
3607.757	52.83
3610.556	39.17
3613.354	21.17
3616.149	8.5
3618.942	-12.83
3621.732	-24.83
3624.521	-34.5
3627.307	-46.5
3630.092	-61.5
3632.874	-66.17
3635.654	-83.83
3638.432	-89.83
3641.208	-100.83
3643.982	-111.5
3646.753	-124.5
3649.523	-139.5
3652.29	-150.17
3655.055	-165.83
3657.818	-172.5
3660.579	-179.17
3663.338	-195.5
3666.095	-201.83
3668.849	-213.5
3671.602	-219.17
3674.352	-224.17
3677.101	-237.5
3679.847	-244.5
3682.591	-253.17
3685.333	-262.83
3688.073	-266.17
3690.811	-279.17
3693.547	-280.83
3696.281	-282.83
3699.013	-290.17
3701.742	-293.17
3704.47	-300.5
3707.195	-300.5
3709.919	-306.83
3712.64	-312.83
3715.359	-318.83
3718.076	-322.5
3720.792	-328.5
3723.505	-326.83
3726.216	-331.5
3728.925	-333.83
3731.632	-338.5
3734.336	-340.5
3737.039	-348.5
3739.74	-347.5
3742.439	-355.17
3745.136	-352.83
3747.83	-353.83
3750.523	-355.5
3753.213	-365.5
3755.902	-360.83
3758.589	-371.5
3761.273	-363.83
3763.956	-362.17
3766.636	-368.83
3769.315	-370.83
3771.991	-368.83
3774.665	-376.17
3777.338	-377.17
3780.008	-376.17
3782.677	-377.17
3785.343	-378.5
3788.007	-380.17
3790.67	-381.83
3793.33	-385.17
3795.989	-380.17
3798.645	-384.83
3801.299	-386.5
3803.952	-390.83
3806.602	-390.83
3809.251	-389.17
3811.897	-392.5
3814.542	-388.5
3817.184	-388.17
3819.825	-391.5
3822.463	-389.83
3825.1	-395.17
3827.735	-392.17
3830.367	-395.17
3832.998	-398.17
3835.627	-399.5
3838.253	-397.83
3840.878	-397.83
3843.501	-398.5
3846.122	-399.5
3848.741	-399.83
3851.358	-401.83
3853.973	-400.5
3856.586	-402.17
3859.197	-403.17
3861.806	-397.5
3864.414	-400.83
3867.019	-401.83
3869.622	-398.5
3872.224	-394.5
3874.823	-384.5
3877.421	-374.5
3880.016	-354.83
3882.61	-343.17
3885.202	-346.83
3887.792	-364.83
3890.38	-381.83
3892.966	-391.83
3895.55	-401.5
3898.132	-409.5
3900.713	-407.5
3903.291	-409.17
3905.868	-411.17
3908.442	-411.83
3911.015	-411.83
3913.586	-410.17
3916.155	-411.5
3918.722	-413.83
3921.287	-415.83
3923.85	-415.5
3926.411	-415.17
3928.971	-414.5
3931.528	-413.17
3934.084	-416.5
3936.638	-418.5
3939.19	-416.83
3941.74	-418.17
3944.288	-415.83
3946.834	-415.17
3949.378	-415.5
3951.921	-417.83
3954.462	-413.5
3957	-411.17
3959.537	-412.5
3962.072	-410.17
3964.606	-410.5
3967.137	-411.83
3969.667	-412.17
3972.194	-413.17
3974.72	-413.5
3977.244	-405.83
3979.766	-408.5
3982.286	-404.17
3984.805	-406.5
3987.321	-406.17
3989.836	-403.5
3992.349	-405.83
3994.86	-403.5
3997.369	-403.83
3999.877	-405.83
4002.382	-403.17
4004.886	-408.17
4007.388	-410.5
4009.888	-406.83
4012.386	-404.83
4014.883	-410.5
4017.377	-410.5
4019.87	-410.17
4022.361	-409.83
4024.85	-408.5
4027.338	-410.5
4029.823	-406.17
4032.307	-410.5
4034.789	-409.17
4037.269	-409.17
4039.747	-414.17
4042.224	-410.17
4044.699	-412.17
4047.172	-412.5
4049.643	-412.83
4052.112	-411.17
4054.58	-414.5
4057.046	-411.17
4059.51	-414.17
4061.972	-409.83
4064.432	-413.5
4066.891	-415.17
4069.348	-413.83
4071.803	-412.17
4074.256	-413.5
4076.708	-412.83
4079.158	-410.5
4081.606	-414.83
4084.052	-409.83
4086.497	-410.5
4088.939	-411.17
4091.38	-409.17
4093.819	-413.17
4096.257	-433.5
4098.693	-431.5
4101.127	-432.5
4103.559	-430.17
4105.989	-254.83
4108.418	-241.5
4110.845	-230.17
4113.27	-211.5
4115.694	-186.83
4118.115	-148.17
4120.535	-412.17
4122.954	-414.5
4125.37	-411.17
4127.785	-412.5
4130.198	-419.83
4132.609	-540.5
4135.019	-432.5
4137.427	-430.17
4139.833	-432.17
4142.237	-433.5
