Data from EC1_RamanShift_1.txt Node
Date: Mon Nov 06 14:24:58 IST 2017
User: aro
Spectrometer: QEPB0276
Trigger mode: 0
Integration Time (sec): 4.000000E1
Scans to average: 3
Electric dark correction enabled: true
Nonlinearity correction enabled: false
Boxcar width: 0
XAxis mode: Raman Shifts
Number of Pixels in Spectrum: 1044
>>>>>Begin Spectral Data<<<<<
160.701	-47.62
166.742	13.38
172.777	194.38
178.805	776.38
184.826	2226.71
190.841	4815.38
196.849	7888.38
202.85	9988.04
208.845	10538.71
214.833	10186.04
220.815	9804.38
226.789	9510.71
232.758	9285.38
238.719	9018.71
244.674	8721.04
250.623	8352.04
256.565	7986.38
262.5	7639.71
268.429	7324.04
274.351	7054.38
280.267	6785.71
286.176	6575.71
292.079	6374.38
297.975	6209.04
303.865	6062.04
309.748	5930.38
315.625	5819.04
321.495	5746.71
327.359	5665.04
333.217	5627.71
339.068	5606.71
344.912	5574.04
350.751	5533.38
356.583	5501.38
362.408	5471.71
368.227	5526.04
374.04	5575.04
379.847	5696.71
385.647	5828.71
391.44	5792.38
397.228	5712.38
403.009	5744.38
408.784	5868.71
414.553	6153.38
420.315	6541.38
426.071	6571.04
431.821	6195.71
437.565	5867.71
443.302	5766.38
449.033	5711.71
454.758	5661.04
460.477	5600.04
466.189	5559.38
471.896	5497.38
477.596	5452.71
483.29	5427.71
488.978	5399.38
494.66	5381.38
500.335	5252.04
506.005	5103.04
511.668	4958.38
517.325	4813.38
522.977	4693.71
528.622	4601.38
534.261	4526.38
539.894	4468.04
545.521	4422.04
551.141	4368.04
556.756	4337.71
562.365	4284.71
567.968	4251.38
573.565	4235.71
579.155	4205.04
584.74	4177.04
590.319	4130.71
595.892	4082.71
601.459	4062.71
607.02	4014.04
612.575	3979.38
618.124	3928.71
623.667	3877.38
629.204	3842.38
634.735	3840.71
640.261	3870.04
645.781	3972.04
651.294	4004.38
656.802	3897.38
662.304	3755.38
667.8	3683.38
673.29	3641.38
678.775	3608.04
684.254	3571.38
689.726	3550.71
695.193	3514.71
700.655	3472.38
706.11	3442.71
711.56	3402.71
717.004	3371.71
722.442	3349.71
727.874	3329.04
733.301	3324.71
738.722	3313.71
744.137	3310.38
749.547	3323.71
754.951	3349.04
760.349	3315.71
765.741	3280.71
771.128	3237.38
776.509	3238.71
781.885	3233.71
787.254	3222.71
792.618	3203.71
797.977	3180.38
803.33	3142.04
808.677	3094.71
814.019	3064.71
819.355	3018.38
824.686	2990.71
830.011	2957.04
835.33	2932.38
840.644	2895.71
845.952	2882.71
851.255	2853.04
856.552	2833.71
861.844	2775.38
867.13	2742.71
872.41	2702.04
877.686	2669.71
882.955	2619.71
888.219	2567.04
893.478	2517.38
898.731	2476.04
903.979	2435.38
909.221	2411.04
914.458	2369.04
919.69	2380.04
924.916	2359.71
930.136	2350.71
935.351	2343.04
940.561	2340.38
945.766	2316.38
950.965	2298.71
956.158	2259.38
961.347	2231.04
966.529	2179.04
971.707	2148.38
976.879	2109.38
982.046	2077.38
987.208	2073.38
992.364	2071.38
997.515	2080.04
1002.66	2099.04
1007.801	2091.04
1012.936	2123.04
1018.066	2128.04
1023.19	2148.38
1028.309	2127.71
1033.423	2122.71
1038.532	2104.71
1043.636	2081.04
1048.734	2064.38
1053.827	2030.04
1058.915	2020.71
1063.998	2007.38
1069.075	2011.04
1074.147	2007.38
1079.214	2012.38
1084.276	2027.71
1089.333	2037.38
1094.385	2040.38
1099.431	2047.38
1104.472	2030.04
1109.509	2007.38
1114.54	1976.38
1119.565	1949.71
1124.586	1919.04
1129.602	1901.71
1134.613	1893.04
1139.618	1876.04
1144.619	1886.04
1149.614	1894.04
1154.604	1896.38
1159.589	1902.71
1164.57	1916.38
1169.545	1905.38
1174.515	1912.04
1179.48	1900.04
1184.44	1875.71
1189.395	1866.04
1194.345	1852.38
1199.29	1840.04
1204.23	1847.71
1209.165	1847.71
1214.095	1866.38
1219.021	1878.71
1223.941	1892.04
1228.856	1907.04
1233.766	1905.04
1238.672	1907.38
1243.572	1894.04
1248.467	1876.38
1253.358	1836.38
1258.244	1809.04
1263.124	1777.71
1268	1755.38
1272.871	1719.04
1277.737	1713.38
1282.599	1700.04
1287.455	1706.04
1292.306	1716.71
1297.153	1716.71
1301.995	1729.04
1306.832	1741.71
1311.664	1737.71
1316.491	1731.38
1321.314	1726.38
1326.132	1697.71
1330.945	1684.04
1335.753	1647.38
1340.556	1639.71
1345.354	1613.71
1350.148	1600.04
1354.937	1592.38
1359.722	1576.38
1364.501	1575.71
1369.276	1560.71
1374.046	1552.38
1378.811	1544.38
1383.572	1524.04
1388.327	1508.38
1393.079	1502.71
1397.825	1476.71
1402.567	1471.38
1407.304	1455.38
1412.036	1436.38
1416.764	1429.04
1421.487	1433.71
1426.205	1448.04
1430.919	1456.71
1435.628	1465.71
1440.333	1495.71
1445.032	1486.71
1449.727	1500.38
1454.418	1515.38
1459.104	1501.71
1463.785	1489.38
1468.462	1475.71
1473.134	1473.71
1477.802	1458.71
1482.465	1448.38
1487.123	1457.38
1491.777	1469.71
1496.426	1485.71
1501.071	1508.04
1505.711	1523.04
1510.347	1540.04
1514.978	1564.04
1519.604	1558.04
1524.226	1564.04
1528.844	1551.04
1533.457	1543.71
1538.065	1550.04
1542.669	1538.71
1547.269	1547.38
1551.864	1546.04
1556.454	1567.38
1561.041	1583.71
1565.622	1605.71
1570.199	1638.04
1574.772	1658.71
1579.34	1716.38
1583.904	1747.71
1588.464	1803.04
1593.019	1839.04
1597.569	1864.38
1602.115	1897.04
1606.657	1931.04
1611.195	1956.71
1615.728	1994.04
1620.256	2036.38
1624.78	2066.04
1629.3	2118.04
1633.816	2165.04
1638.327	2189.04
1642.834	2221.04
1647.336	2237.04
1651.834	2251.71
1656.328	2240.71
1660.817	2202.71
1665.302	2143.38
1669.783	2095.71
1674.259	2021.71
1678.732	1958.04
1683.199	1867.71
1687.663	1783.04
1692.122	1707.71
1696.577	1635.38
1701.028	1559.04
1705.474	1481.71
1709.917	1407.04
1714.355	1346.04
1718.788	1315.04
1723.218	1269.38
1727.643	1210.71
1732.064	1153.71
1736.481	1119.71
1740.893	1068.71
1745.301	1012.38
1749.705	974.71
1754.105	933.71
1758.501	912.38
1762.893	863.71
1767.28	861.04
1771.663	849.38
1776.042	842.71
1780.417	840.04
1784.787	832.38
1789.154	835.04
1793.516	837.71
1797.874	821.04
1802.228	807.04
1806.578	775.71
1810.924	759.38
1815.266	741.04
1819.603	722.04
1823.937	705.38
1828.266	700.71
1832.591	695.38
1836.913	682.04
1841.23	678.04
1845.543	678.04
1849.852	682.04
1854.156	685.04
1858.457	681.04
1862.754	690.38
1867.047	691.38
1871.335	699.71
1875.62	704.71
1879.9	707.38
1884.177	701.71
1888.449	701.38
1892.718	696.71
1896.982	689.38
1901.243	690.04
1905.499	681.04
1909.752	685.71
1914	696.71
1918.245	701.38
1922.485	704.38
1926.722	722.38
1930.954	712.38
1935.183	714.38
1939.408	724.04
1943.628	719.04
1947.845	712.38
1952.058	696.04
1956.267	684.38
1960.472	680.04
1964.673	660.38
1968.87	646.38
1973.063	638.71
1977.252	640.71
1981.438	636.38
1985.619	633.71
1989.797	630.38
1993.971	638.71
1998.14	635.04
2002.306	644.38
2006.469	646.04
2010.627	652.38
2014.781	647.71
2018.932	650.04
2023.078	657.38
2027.221	647.04
2031.36	645.04
2035.495	645.04
2039.627	641.71
2043.754	636.04
2047.878	637.71
2051.998	640.38
2056.114	650.04
2060.226	645.38
2064.334	657.04
2068.439	668.04
2072.54	676.71
2076.637	681.04
2080.73	689.38
2084.82	688.71
2088.906	698.71
2092.988	689.04
2097.066	682.71
2101.14	676.71
2105.211	675.38
2109.278	660.38
2113.342	654.71
2117.401	638.04
2121.457	631.38
2125.509	623.71
2129.558	629.04
2133.602	618.71
2137.643	605.71
2141.681	608.04
2145.714	601.38
2149.744	588.71
2153.77	586.71
2157.793	578.38
2161.812	566.04
2165.827	550.38
2169.838	541.38
2173.846	528.38
2177.851	518.71
2181.851	508.04
2185.848	503.71
2189.841	489.71
2193.831	482.38
2197.817	471.38
2201.799	467.38
2205.778	463.04
2209.753	454.71
2213.725	456.38
2217.693	453.38
2221.657	448.71
2225.618	442.04
2229.575	437.71
2233.529	426.71
2237.479	423.04
2241.425	413.71
2245.368	396.71
2249.307	379.71
2253.243	373.04
2257.175	360.04
2261.104	356.38
2265.029	344.38
2268.95	335.38
2272.868	328.04
2276.783	321.71
2280.694	312.04
2284.601	303.04
2288.505	299.38
2292.405	290.71
2296.302	279.04
2300.195	278.04
2304.085	266.71
2307.971	263.38
2311.854	248.38
2315.734	241.04
2319.609	237.38
2323.482	222.71
2327.351	219.04
2331.216	222.38
2335.078	224.38
2338.937	208.71
2342.792	206.38
2346.643	201.04
2350.492	201.38
2354.336	198.04
2358.178	201.04
2362.015	199.71
2365.85	194.04
2369.681	195.71
2373.508	195.38
2377.333	190.71
2381.153	187.38
2384.971	189.38
2388.785	185.38
2392.595	179.71
2396.402	182.04
2400.206	174.71
2404.007	167.04
2407.804	174.38
2411.597	168.38
2415.388	170.38
2419.174	163.04
2422.958	163.38
2426.738	160.04
2430.515	158.38
2434.289	156.71
2438.059	150.38
2441.825	148.04
2445.589	153.04
2449.349	146.38
2453.106	135.04
2456.859	139.38
2460.61	132.04
2464.356	129.04
2468.1	133.71
2471.84	122.38
2475.577	121.04
2479.311	130.04
2483.041	129.71
2486.768	124.38
2490.492	123.71
2494.213	125.04
2497.93	126.04
2501.644	122.71
2505.355	119.38
2509.062	112.38
2512.766	119.38
2516.467	120.04
2520.165	116.38
2523.859	113.38
2527.551	117.38
2531.239	109.38
2534.923	103.71
2538.605	112.04
2542.283	108.38
2545.958	108.38
2549.63	106.04
2553.299	102.71
2556.964	100.71
2560.626	100.04
2564.285	101.04
2567.941	100.04
2571.594	92.71
2575.243	96.04
2578.89	86.04
2582.533	87.04
2586.173	85.04
2589.809	82.71
2593.443	78.38
2597.073	75.04
2600.701	69.38
2604.325	69.38
2607.946	74.38
2611.564	66.38
2615.178	66.04
2618.79	64.04
2622.398	61.38
2626.004	68.38
2629.606	60.38
2633.205	53.38
2636.801	57.71
2640.394	53.04
2643.983	57.71
2647.57	54.04
2651.153	50.38
2654.734	48.38
2658.311	44.71
2661.885	43.71
2665.456	43.04
2669.025	44.71
2672.589	37.71
2676.151	43.38
2679.71	40.71
2683.266	35.71
2686.819	42.04
2690.368	37.38
2693.915	35.04
2697.458	26.04
2700.999	37.71
2704.536	30.04
2708.071	34.04
2711.602	33.38
2715.13	30.71
2718.656	30.38
2722.178	32.04
2725.697	28.04
2729.214	37.71
2732.727	37.71
2736.237	41.71
2739.744	44.71
2743.249	46.04
2746.75	48.38
2750.248	52.71
2753.743	50.71
2757.236	49.04
2760.725	46.71
2764.211	45.38
2767.695	46.04
2771.175	42.04
2774.652	46.04
2778.127	45.71
2781.598	50.71
2785.067	50.04
2788.532	54.71
2791.995	61.71
2795.455	62.04
2798.911	62.38
2802.365	61.71
2805.816	74.71
2809.264	76.04
2812.709	77.71
2816.151	81.04
2819.59	84.71
2823.026	88.38
2826.46	93.04
2829.89	102.71
2833.318	98.38
2836.742	106.71
2840.164	106.71
2843.583	112.71
2846.999	125.38
2850.412	127.38
2853.822	134.04
2857.229	137.04
2860.634	142.71
2864.035	144.04
2867.434	160.71
2870.83	168.04
2874.223	169.04
2877.613	172.04
2881	178.38
2884.385	184.38
2887.766	185.04
2891.145	188.04
2894.521	200.71
2897.894	205.38
2901.264	215.71
2904.631	217.38
2907.996	224.71
2911.358	228.04
2914.717	236.04
2918.073	245.38
2921.426	250.04
2924.777	267.38
2928.124	281.71
2931.469	291.38
2934.811	301.38
2938.15	318.38
2941.487	322.38
2944.821	338.71
2948.152	344.38
2951.48	352.71
2954.805	363.71
2958.128	381.71
2961.447	394.38
2964.765	409.71
2968.079	419.38
2971.39	441.04
2974.699	449.71
2978.005	474.71
2981.308	493.71
2984.609	515.71
2987.907	541.04
2991.202	568.71
2994.494	588.38
2997.784	612.38
3001.07	628.71
3004.355	650.04
3007.636	674.38
3010.915	696.38
3014.191	714.38
3017.464	731.38
3020.734	751.71
3024.002	756.71
3027.267	784.38
3030.53	809.38
3033.789	828.71
3037.046	843.04
3040.301	877.38
3043.552	900.71
3046.801	928.04
3050.048	961.04
3053.291	1002.71
3056.532	1040.71
3059.771	1074.71
3063.006	1107.04
3066.239	1159.38
3069.469	1207.04
3072.697	1240.04
3075.922	1279.71
3079.144	1325.71
3082.364	1363.38
3085.581	1395.71
3088.795	1436.38
3092.007	1478.71
3095.216	1515.04
3098.423	1568.71
3101.627	1591.71
3104.828	1647.38
3108.026	1690.38
3111.222	1725.04
3114.416	1779.04
3117.607	1820.71
3120.795	1876.71
3123.98	1934.71
3127.163	1971.38
3130.344	2024.04
3133.521	2073.38
3136.696	2112.38
3139.869	2171.04
3143.039	2213.04
3146.206	2245.71
3149.371	2278.71
3152.533	2296.38
3155.693	2310.71
3158.85	2341.38
3162.005	2341.71
3165.157	2355.38
3168.306	2382.04
3171.453	2392.38
3174.597	2392.38
3177.739	2393.71
3180.878	2415.04
3184.014	2412.71
3187.149	2422.38
3190.28	2434.71
3193.409	2448.38
3196.536	2447.04
3199.659	2466.04
3202.781	2458.04
3205.9	2462.71
3209.016	2455.04
3212.13	2455.38
3215.241	2432.04
3218.35	2415.38
3221.456	2411.71
3224.56	2385.04
3227.661	2364.04
3230.76	2350.71
3233.856	2333.38
3236.95	2324.38
3240.041	2299.04
3243.13	2289.38
3246.216	2282.38
3249.3	2264.04
3252.382	2274.04
3255.46	2259.38
3258.537	2250.71
3261.611	2261.04
3264.682	2251.38
3267.751	2260.38
3270.818	2243.04
3273.882	2229.38
3276.943	2211.38
3280.002	2205.71
3283.059	2171.38
3286.113	2149.71
3289.165	2123.71
3292.214	2077.71
3295.261	2040.71
3298.306	2018.71
3301.348	1975.71
3304.387	1942.71
3307.425	1926.04
3310.459	1908.38
3313.492	1877.38
3316.521	1853.71
3319.549	1839.71
3322.574	1828.71
3325.597	1815.04
3328.617	1793.71
3331.635	1788.04
3334.65	1779.71
3337.663	1778.71
3340.674	1766.71
3343.682	1769.71
3346.688	1769.04
3349.691	1760.71
3352.692	1748.71
3355.691	1731.38
3358.687	1718.38
3361.681	1697.71
3364.673	1667.71
3367.662	1665.04
3370.649	1634.38
3373.633	1609.04
3376.615	1598.04
3379.595	1560.38
3382.572	1550.38
3385.547	1529.38
3388.52	1510.04
3391.49	1484.71
3394.458	1473.38
3397.424	1458.71
3400.387	1432.38
3403.348	1425.04
3406.307	1408.04
3409.263	1403.71
3412.217	1390.71
3415.168	1374.38
3418.118	1363.04
3421.065	1351.04
3424.009	1326.38
3426.951	1319.04
3429.891	1300.38
3432.829	1266.38
3435.764	1242.38
3438.697	1211.71
3441.628	1191.38
3444.557	1152.38
3447.483	1131.04
3450.407	1099.38
3453.328	1066.04
3456.247	1036.04
3459.164	1009.71
3462.079	978.04
3464.991	952.38
3467.902	929.38
3470.809	893.71
3473.715	880.38
3476.618	848.38
3479.519	823.04
3482.418	803.71
3485.315	784.71
3488.209	759.04
3491.101	739.71
3493.99	717.38
3496.878	700.38
3499.763	686.71
3502.646	661.38
3505.527	637.71
3508.405	612.71
3511.281	592.38
3514.155	561.38
3517.027	542.38
3519.897	517.71
3522.764	482.38
3525.629	456.38
3528.492	436.04
3531.352	419.04
3534.211	386.38
3537.067	366.04
3539.921	352.38
3542.773	329.38
3545.622	302.38
3548.469	287.04
3551.315	265.04
3554.157	257.71
3556.998	246.38
3559.837	224.38
3562.673	216.04
3565.507	199.04
3568.339	183.04
3571.169	174.38
3573.996	162.04
3576.822	149.04
3579.645	131.71
3582.466	127.71
3585.285	106.71
3588.101	93.04
3590.916	85.38
3593.728	73.71
3596.538	58.71
3599.346	54.04
3602.152	41.04
3604.956	27.38
3607.757	22.04
3610.556	9.38
3613.354	-1.29
3616.149	1.38
3618.942	-15.29
3621.732	-15.29
3624.521	-29.62
3627.307	-36.29
3630.092	-42.96
3632.874	-42.29
3635.654	-53.96
3638.432	-63.29
3641.208	-64.96
3643.982	-66.96
3646.753	-73.96
3649.523	-84.29
3652.29	-91.62
3655.055	-96.62
3657.818	-99.96
3660.579	-105.96
3663.338	-115.96
3666.095	-118.96
3668.849	-125.96
3671.602	-126.62
3674.352	-134.29
3677.101	-134.29
3679.847	-140.29
3682.591	-148.29
3685.333	-150.29
3688.073	-153.62
3690.811	-159.29
3693.547	-158.62
3696.281	-158.62
3699.013	-167.62
3701.742	-172.29
3704.47	-174.62
3707.195	-168.96
3709.919	-172.29
3712.64	-179.29
3715.359	-180.96
3718.076	-180.96
3720.792	-187.96
3723.505	-186.96
3726.216	-185.96
3728.925	-189.96
3731.632	-195.62
3734.336	-192.29
3737.039	-194.62
3739.74	-195.29
3742.439	-200.29
3745.136	-203.29
3747.83	-198.29
3750.523	-199.29
3753.213	-211.96
3755.902	-201.29
3758.589	-209.62
3761.273	-204.96
3763.956	-201.62
3766.636	-206.96
3769.315	-206.62
3771.991	-211.62
3774.665	-210.96
3777.338	-208.96
3780.008	-212.62
3782.677	-212.29
3785.343	-214.62
3788.007	-216.62
3790.67	-212.62
3793.33	-216.62
3795.989	-216.29
3798.645	-216.62
3801.299	-219.29
3803.952	-217.62
3806.602	-218.29
3809.251	-215.96
3811.897	-219.96
3814.542	-218.29
3817.184	-216.96
3819.825	-216.62
3822.463	-218.29
3825.1	-220.29
3827.735	-220.62
3830.367	-219.96
3832.998	-221.29
3835.627	-222.62
3838.253	-222.96
3840.878	-221.96
3843.501	-220.96
3846.122	-224.29
3848.741	-222.96
3851.358	-222.62
3853.973	-226.62
3856.586	-226.29
3859.197	-222.96
3861.806	-217.62
3864.414	-223.62
3867.019	-224.29
3869.622	-217.96
3872.224	-215.62
3874.823	-207.62
3877.421	-192.96
3880.016	-175.96
3882.61	-162.29
3885.202	-159.62
3887.792	-179.29
3890.38	-198.62
3892.966	-209.96
3895.55	-222.29
3898.132	-224.62
3900.713	-222.96
3903.291	-230.29
3905.868	-229.29
3908.442	-229.96
3911.015	-231.29
3913.586	-230.29
3916.155	-231.96
3918.722	-232.62
3921.287	-231.29
3923.85	-229.29
3926.411	-231.62
3928.971	-230.96
3931.528	-232.29
3934.084	-234.62
3936.638	-232.29
3939.19	-231.96
3941.74	-234.62
3944.288	-232.29
3946.834	-230.62
3949.378	-230.62
3951.921	-231.96
3954.462	-232.62
3957	-226.96
3959.537	-227.62
3962.072	-230.96
3964.606	-230.96
3967.137	-228.62
3969.667	-226.62
3972.194	-229.29
3974.72	-231.62
3977.244	-228.62
3979.766	-227.96
3982.286	-226.62
3984.805	-225.29
3987.321	-227.29
3989.836	-224.96
3992.349	-224.96
3994.86	-223.62
3997.369	-225.96
3999.877	-225.62
4002.382	-223.96
4004.886	-226.96
4007.388	-229.29
4009.888	-222.62
4012.386	-224.29
4014.883	-227.96
4017.377	-227.62
4019.87	-228.62
4022.361	-231.96
4024.85	-227.62
4027.338	-227.62
4029.823	-227.29
4032.307	-227.29
4034.789	-227.29
4037.269	-230.62
4039.747	-232.29
4042.224	-228.29
4044.699	-230.96
4047.172	-230.62
4049.643	-232.29
4052.112	-230.96
4054.58	-230.62
4057.046	-228.62
4059.51	-229.62
4061.972	-227.96
4064.432	-231.96
4066.891	-230.29
4069.348	-229.96
4071.803	-228.62
4074.256	-229.29
4076.708	-228.29
4079.158	-227.29
4081.606	-229.96
4084.052	-226.62
4086.497	-230.29
4088.939	-228.62
4091.38	-226.62
4093.819	-225.96
4096.257	-237.62
4098.693	-235.29
4101.127	-234.29
4103.559	-232.62
4105.989	-123.62
4108.418	-118.96
4110.845	-115.62
4113.27	-99.96
4115.694	-93.96
4118.115	-76.62
4120.535	-223.62
4122.954	-227.62
4125.37	-224.62
4127.785	-227.96
4130.198	-233.62
4132.609	-355.62
4135.019	-232.62
4137.427	-235.62
4139.833	-231.62
4142.237	-236.62
