Data from EC1_RamanShift_5.txt Node
Date: Mon Nov 06 14:40:57 IST 2017
User: aro
Spectrometer: QEPB0276
Trigger mode: 0
Integration Time (sec): 4.000000E1
Scans to average: 3
Electric dark correction enabled: true
Nonlinearity correction enabled: false
Boxcar width: 0
XAxis mode: Raman Shifts
Number of Pixels in Spectrum: 1044
>>>>>Begin Spectral Data<<<<<
160.701	-50.71
166.742	21.96
172.777	212.62
178.805	865.29
184.826	2492.29
190.841	5378.29
196.849	8794.29
202.85	11095.62
208.845	11651.29
214.833	11322.29
220.815	10826.96
226.789	10517.96
232.758	10240.96
238.719	9910.29
244.674	9557.29
250.623	9134.96
256.565	8737.62
262.5	8300.62
268.429	7955.29
274.351	7638.62
280.267	7339.62
286.176	7091.62
292.079	6871.96
297.975	6674.96
303.865	6477.29
309.748	6341.62
315.625	6188.29
321.495	6102.29
327.359	6002.96
333.217	5971.96
339.068	5936.96
344.912	5917.96
350.751	5868.29
356.583	5871.63
362.408	5821.63
368.227	5879.29
374.04	5911.62
379.847	6042.96
385.647	6188.29
391.44	6157.96
397.228	6071.29
403.009	6106.29
408.784	6232.62
414.553	6552.29
420.315	6958.96
426.071	6997.62
431.821	6600.62
437.565	6264.29
443.302	6127.62
449.033	6045.96
454.758	6009.29
460.477	5922.29
466.189	5893.62
471.896	5841.96
477.596	5783.62
483.29	5749.96
488.978	5712.63
494.66	5666.62
500.335	5560.63
506.005	5389.96
511.668	5241.62
517.325	5055.29
522.977	4958.96
528.622	4823.96
534.261	4732.96
539.894	4671.62
545.521	4621.96
551.141	4574.96
556.756	4541.29
562.365	4501.29
567.968	4455.29
573.565	4417.96
579.155	4398.96
584.74	4339.96
590.319	4313.62
595.892	4253.29
601.459	4233.62
607.02	4196.29
612.575	4136.29
618.124	4073.29
623.667	4038.29
629.204	4004.29
634.735	3988.62
640.261	4021.62
645.781	4124.29
651.294	4163.62
656.802	4050.96
662.304	3899.96
667.8	3813.29
673.29	3763.29
678.775	3715.29
684.254	3688.29
689.726	3651.62
695.193	3628.29
700.655	3578.29
706.11	3543.29
711.56	3512.29
717.004	3481.62
722.442	3448.96
727.874	3440.96
733.301	3394.62
738.722	3402.29
744.137	3411.62
749.547	3434.62
754.951	3443.29
760.349	3404.96
765.741	3360.29
771.128	3336.62
776.509	3321.29
781.885	3305.96
787.254	3284.29
792.618	3287.62
797.977	3230.62
803.33	3204.62
808.677	3172.62
814.019	3129.29
819.355	3071.62
824.686	3023.29
830.011	3006.96
835.33	2970.96
840.644	2937.62
845.952	2912.96
851.255	2889.29
856.552	2841.29
861.844	2805.29
867.13	2757.96
872.41	2724.96
877.686	2681.29
882.955	2633.62
888.219	2580.29
893.478	2522.96
898.731	2477.62
903.979	2426.29
909.221	2386.96
914.458	2362.96
919.69	2358.29
924.916	2333.29
930.136	2324.29
935.351	2307.96
940.561	2298.29
945.766	2263.29
950.965	2254.29
956.158	2225.29
961.347	2183.96
966.529	2150.62
971.707	2105.96
976.879	2056.62
982.046	2034.29
987.208	2031.62
992.364	2014.62
997.515	2031.96
1002.66	2030.96
1007.801	2046.29
1012.936	2070.62
1018.066	2087.29
1023.19	2096.29
1028.309	2084.62
1033.423	2067.62
1038.532	2051.62
1043.636	2025.62
1048.734	2012.96
1053.827	1982.96
1058.915	1969.62
1063.998	1947.96
1069.075	1950.29
1074.147	1949.29
1079.214	1956.96
1084.276	1975.62
1089.333	1980.62
1094.385	1983.62
1099.431	1973.96
1104.472	1962.96
1109.509	1949.62
1114.54	1918.96
1119.565	1888.96
1124.586	1844.62
1129.602	1834.96
1134.613	1836.96
1139.618	1818.62
1144.619	1817.62
1149.614	1832.62
1154.604	1824.29
1159.589	1837.62
1164.57	1846.29
1169.545	1853.29
1174.515	1850.62
1179.48	1821.62
1184.44	1806.62
1189.395	1809.96
1194.345	1783.29
1199.29	1775.96
1204.23	1785.29
1209.165	1796.29
1214.095	1797.62
1219.021	1817.29
1223.941	1825.29
1228.856	1838.29
1233.766	1829.96
1238.672	1835.96
1243.572	1822.96
1248.467	1788.96
1253.358	1777.62
1258.244	1750.62
1263.124	1713.62
1268	1683.29
1272.871	1658.29
1277.737	1648.96
1282.599	1626.62
1287.455	1635.62
1292.306	1646.29
1297.153	1653.29
1301.995	1659.29
1306.832	1664.29
1311.664	1665.96
1316.491	1651.96
1321.314	1638.29
1326.132	1628.29
1330.945	1606.96
1335.753	1563.29
1340.556	1544.62
1345.354	1533.62
1350.148	1520.29
1354.937	1501.29
1359.722	1482.62
1364.501	1467.29
1369.276	1477.96
1374.046	1469.29
1378.811	1464.62
1383.572	1461.29
1388.327	1453.62
1393.079	1438.96
1397.825	1414.29
1402.567	1382.62
1407.304	1371.96
1412.036	1366.96
1416.764	1349.96
1421.487	1346.29
1426.205	1365.96
1430.919	1369.29
1435.628	1392.29
1440.333	1406.96
1445.032	1414.29
1449.727	1425.62
1454.418	1425.96
1459.104	1419.29
1463.785	1413.96
1468.462	1393.96
1473.134	1379.96
1477.802	1367.96
1482.465	1370.62
1487.123	1366.96
1491.777	1366.62
1496.426	1389.96
1501.071	1421.62
1505.711	1426.62
1510.347	1449.29
1514.978	1473.29
1519.604	1492.96
1524.226	1502.62
1528.844	1497.62
1533.457	1486.29
1538.065	1478.96
1542.669	1490.96
1547.269	1490.29
1551.864	1509.96
1556.454	1528.96
1561.041	1561.62
1565.622	1573.29
1570.199	1604.96
1574.772	1653.62
1579.34	1693.96
1583.904	1740.29
1588.464	1788.29
1593.019	1835.29
1597.569	1869.62
1602.115	1920.29
1606.657	1935.62
1611.195	2000.96
1615.728	2031.29
1620.256	2075.96
1624.78	2133.96
1629.3	2196.62
1633.816	2226.29
1638.327	2262.62
1642.834	2300.96
1647.336	2321.96
1651.834	2322.62
1656.328	2307.62
1660.817	2268.62
1665.302	2213.62
1669.783	2139.29
1674.259	2056.29
1678.732	1971.96
1683.199	1866.96
1687.663	1777.62
1692.122	1686.96
1696.577	1592.62
1701.028	1509.29
1705.474	1440.96
1709.917	1375.29
1714.355	1314.29
1718.788	1252.62
1723.218	1202.96
1727.643	1146.62
1732.064	1105.62
1736.481	1040.96
1740.893	1002.96
1745.301	944.96
1749.705	887.96
1754.105	858.62
1758.501	825.96
1762.893	794.96
1767.28	772.62
1771.663	750.29
1776.042	733.62
1780.417	734.62
1784.787	724.96
1789.154	723.96
1793.516	716.96
1797.874	710.62
1802.228	693.62
1806.578	683.62
1810.924	662.62
1815.266	633.62
1819.603	624.29
1823.937	605.96
1828.266	604.29
1832.591	589.62
1836.913	586.96
1841.23	576.96
1845.543	577.96
1849.852	584.29
1854.156	577.29
1858.457	572.29
1862.754	574.62
1867.047	574.62
1871.335	594.29
1875.62	587.96
1879.9	585.62
1884.177	589.29
1888.449	587.96
1892.718	588.96
1896.982	579.29
1901.243	572.29
1905.499	579.62
1909.752	578.29
1914	584.96
1918.245	589.96
1922.485	599.96
1926.722	607.29
1930.954	601.29
1935.183	611.62
1939.408	618.29
1943.628	619.29
1947.845	606.96
1952.058	602.29
1956.267	600.29
1960.472	579.96
1964.673	572.29
1968.87	562.29
1973.063	556.29
1977.252	556.96
1981.438	552.96
1985.619	545.62
1989.797	553.96
1993.971	556.96
1998.14	555.29
2002.306	564.29
2006.469	571.62
2010.627	570.96
2014.781	571.29
2018.932	578.96
2023.078	571.62
2027.221	577.62
2031.36	568.96
2035.495	562.29
2039.627	564.62
2043.754	569.29
2047.878	570.62
2051.998	564.62
2056.114	581.96
2060.226	582.29
2064.334	591.29
2068.439	592.29
2072.54	603.62
2076.637	616.96
2080.73	620.96
2084.82	625.62
2088.906	631.62
2092.988	627.29
2097.066	612.96
2101.14	616.96
2105.211	603.62
2109.278	598.96
2113.342	588.29
2117.401	576.62
2121.457	580.62
2125.509	565.29
2129.558	569.62
2133.602	562.96
2137.643	556.96
2141.681	554.96
2145.714	549.96
2149.744	540.62
2153.77	530.62
2157.793	519.29
2161.812	507.62
2165.827	499.62
2169.838	491.29
2173.846	478.62
2177.851	462.29
2181.851	453.62
2185.848	444.96
2189.841	436.29
2193.831	429.62
2197.817	423.29
2201.799	408.96
2205.778	414.96
2209.753	400.96
2213.725	399.29
2217.693	391.29
2221.657	383.96
2225.618	384.96
2229.575	378.96
2233.529	370.62
2237.479	363.29
2241.425	347.62
2245.368	338.29
2249.307	326.29
2253.243	317.29
2257.175	305.62
2261.104	300.96
2265.029	293.29
2268.95	289.29
2272.868	272.29
2276.783	267.62
2280.694	254.96
2284.601	254.29
2288.505	250.29
2292.405	237.29
2296.302	221.62
2300.195	227.29
2304.085	206.29
2307.971	206.96
2311.854	196.96
2315.734	186.96
2319.609	175.96
2323.482	170.62
2327.351	170.29
2331.216	173.29
2335.078	166.62
2338.937	163.62
2342.792	152.96
2346.643	145.96
2350.492	141.29
2354.336	144.29
2358.178	146.96
2362.015	140.96
2365.85	141.29
2369.681	140.29
2373.508	134.62
2377.333	136.96
2381.153	129.96
2384.971	135.62
2388.785	128.62
2392.595	122.96
2396.402	124.62
2400.206	118.62
2404.007	112.62
2407.804	115.29
2411.597	109.96
2415.388	109.96
2419.174	106.96
2422.958	102.62
2426.738	101.62
2430.515	100.96
2434.289	95.62
2438.059	95.29
2441.825	93.96
2445.589	91.62
2449.349	85.62
2453.106	78.29
2456.859	84.62
2460.61	74.96
2464.356	69.62
2468.1	71.29
2471.84	65.96
2475.577	66.29
2479.311	71.62
2483.041	65.62
2486.768	65.29
2490.492	64.62
2494.213	66.29
2497.93	56.62
2501.644	64.96
2505.355	58.96
2509.062	54.29
2512.766	62.96
2516.467	57.29
2520.165	50.29
2523.859	53.62
2527.551	53.96
2531.239	53.62
2534.923	44.29
2538.605	50.96
2542.283	45.29
2545.958	42.62
2549.63	47.29
2553.299	41.96
2556.964	43.96
2560.626	43.96
2564.285	42.62
2567.941	36.29
2571.594	29.96
2575.243	27.96
2578.89	34.29
2582.533	26.62
2586.173	25.62
2589.809	26.96
2593.443	17.62
2597.073	20.62
2600.701	18.96
2604.325	16.62
2607.946	17.29
2611.564	9.96
2615.178	10.62
2618.79	9.29
2622.398	7.29
2626.004	11.96
2629.606	2.62
2633.205	4.96
2636.801	5.96
2640.394	4.29
2643.983	1.62
2647.57	-4.04
2651.153	1.29
2654.734	-7.04
2658.311	-6.04
2661.885	-7.04
2665.456	-2.71
2669.025	-7.38
2672.589	-9.04
2676.151	-10.04
2679.71	-10.38
2683.266	-9.38
2686.819	-8.38
2690.368	-13.38
2693.915	-11.04
2697.458	-13.04
2700.999	-11.38
2704.536	-14.04
2708.071	-14.04
2711.602	-12.38
2715.13	-12.71
2718.656	-11.71
2722.178	-15.38
2725.697	-10.38
2729.214	-3.71
2732.727	-7.04
2736.237	1.29
2739.744	3.62
2743.249	0.29
2746.75	7.62
2750.248	5.96
2753.743	9.29
2757.236	14.29
2760.725	9.96
2764.211	7.29
2767.695	10.96
2771.175	12.96
2774.652	13.96
2778.127	15.96
2781.598	14.96
2785.067	14.62
2788.532	20.29
2791.995	22.96
2795.455	31.96
2798.911	37.29
2802.365	38.29
2805.816	37.96
2809.264	47.29
2812.709	57.29
2816.151	55.96
2819.59	52.96
2823.026	64.29
2826.46	63.96
2829.89	74.62
2833.318	70.96
2836.742	81.29
2840.164	86.29
2843.583	95.96
2846.999	101.96
2850.412	103.62
2853.822	113.96
2857.229	124.29
2860.634	123.96
2864.035	137.62
2867.434	143.29
2870.83	152.62
2874.223	159.62
2877.613	166.96
2881	164.62
2884.385	177.62
2887.766	185.96
2891.145	187.29
2894.521	197.96
2897.894	205.29
2901.264	213.96
2904.631	218.96
2907.996	224.96
2911.358	239.96
2914.717	244.62
2918.073	262.62
2921.426	269.96
2924.777	284.62
2928.124	293.62
2931.469	313.29
2934.811	321.29
2938.15	342.62
2941.487	356.29
2944.821	368.96
2948.152	374.96
2951.48	383.29
2954.805	394.62
2958.128	411.96
2961.447	424.96
2964.765	443.62
2968.079	455.29
2971.39	477.96
2974.699	495.96
2978.005	519.29
2981.308	537.29
2984.609	568.29
2987.907	591.62
2991.202	621.62
2994.494	647.29
2997.784	673.62
3001.07	698.29
3004.355	724.29
3007.636	750.62
3010.915	774.29
3014.191	797.29
3017.464	811.29
3020.734	842.96
3024.002	859.96
3027.267	888.62
3030.53	902.96
3033.789	931.29
3037.046	964.96
3040.301	996.96
3043.552	1030.29
3046.801	1066.62
3050.048	1102.62
3053.291	1147.62
3056.532	1187.96
3059.771	1232.29
3063.006	1272.29
3066.239	1343.62
3069.469	1384.96
3072.697	1430.62
3075.922	1476.96
3079.144	1515.62
3082.364	1567.62
3085.581	1610.62
3088.795	1670.62
3092.007	1708.29
3095.216	1750.62
3098.423	1793.96
3101.627	1848.96
3104.828	1897.62
3108.026	1943.96
3111.222	1993.29
3114.416	2059.96
3117.607	2099.62
3120.795	2155.62
3123.98	2221.96
3127.163	2281.96
3130.344	2338.62
3133.521	2389.62
3136.696	2446.62
3139.869	2504.29
3143.039	2549.29
3146.206	2590.29
3149.371	2625.29
3152.533	2660.96
3155.693	2678.62
3158.85	2694.29
3162.005	2711.96
3165.157	2726.62
3168.306	2740.62
3171.453	2756.96
3174.597	2764.96
3177.739	2771.62
3180.878	2780.29
3184.014	2790.29
3187.149	2800.96
3190.28	2806.29
3193.409	2826.62
3196.536	2838.96
3199.659	2852.29
3202.781	2862.29
3205.9	2853.96
3209.016	2844.29
3212.13	2848.29
3215.241	2826.96
3218.35	2814.29
3221.456	2798.96
3224.56	2756.29
3227.661	2745.29
3230.76	2712.96
3233.856	2685.96
3236.95	2674.96
3240.041	2648.29
3243.13	2645.96
3246.216	2623.96
3249.3	2620.62
3252.382	2600.62
3255.46	2618.29
3258.537	2605.29
3261.611	2596.62
3264.682	2597.96
3267.751	2584.62
3270.818	2566.62
3273.882	2559.96
3276.943	2554.29
3280.002	2531.62
3283.059	2498.62
3286.113	2473.62
3289.165	2444.62
3292.214	2410.96
3295.261	2366.62
3298.306	2339.62
3301.348	2287.96
3304.387	2265.62
3307.425	2239.96
3310.459	2205.29
3313.492	2184.96
3316.521	2153.29
3319.549	2131.29
3322.574	2113.29
3325.597	2105.29
3328.617	2090.96
3331.635	2082.62
3334.65	2072.96
3337.663	2067.62
3340.674	2057.62
3343.682	2044.62
3346.688	2055.62
3349.691	2042.96
3352.692	2027.62
3355.691	2011.29
3358.687	1994.29
3361.681	1972.62
3364.673	1954.62
3367.662	1926.62
3370.649	1909.29
3373.633	1884.62
3376.615	1857.62
3379.595	1833.62
3382.572	1811.96
3385.547	1790.62
3388.52	1768.96
3391.49	1733.62
3394.458	1712.62
3397.424	1703.96
3400.387	1687.96
3403.348	1662.96
3406.307	1650.62
3409.263	1629.96
3412.217	1616.62
3415.168	1601.62
3418.118	1588.62
3421.065	1570.96
3424.009	1550.96
3426.951	1527.96
3429.891	1507.29
3432.829	1475.96
3435.764	1446.62
3438.697	1412.29
3441.628	1388.96
3444.557	1342.29
3447.483	1309.29
3450.407	1269.29
3453.328	1246.29
3456.247	1197.96
3459.164	1176.62
3462.079	1130.29
3464.991	1105.96
3467.902	1065.62
3470.809	1041.96
3473.715	1013.29
3476.618	975.62
3479.519	947.96
3482.418	922.29
3485.315	903.62
3488.209	876.96
3491.101	858.62
3493.99	831.29
3496.878	809.29
3499.763	783.62
3502.646	761.62
3505.527	728.62
3508.405	705.96
3511.281	671.62
3514.155	648.29
3517.027	617.62
3519.897	588.62
3522.764	563.29
3525.629	533.62
3528.492	502.29
3531.352	476.62
3534.211	454.29
3537.067	422.62
3539.921	397.96
3542.773	379.96
3545.622	355.62
3548.469	330.96
3551.315	308.62
3554.157	292.62
3556.998	277.96
3559.837	265.29
3562.673	247.29
3565.507	227.96
3568.339	210.62
3571.169	203.96
3573.996	182.29
3576.822	172.62
3579.645	153.29
3582.466	144.29
3585.285	122.62
3588.101	100.29
3590.916	97.96
3593.728	85.29
3596.538	71.29
3599.346	62.96
3602.152	55.29
3604.956	37.62
3607.757	30.29
3610.556	12.96
3613.354	7.96
3616.149	-3.04
3618.942	-14.38
3621.732	-21.04
3624.521	-22.38
3627.307	-35.71
3630.092	-45.71
3632.874	-46.38
3635.654	-55.04
3638.432	-62.71
3641.208	-72.04
3643.982	-72.71
3646.753	-79.71
3649.523	-91.38
3652.29	-96.38
3655.055	-102.71
3657.818	-107.38
3660.579	-116.38
3663.338	-129.38
3666.095	-130.71
3668.849	-137.04
3671.602	-140.04
3674.352	-152.71
3677.101	-148.38
3679.847	-152.38
3682.591	-163.71
3685.333	-168.04
3688.073	-168.38
3690.811	-173.71
3693.547	-178.04
3696.281	-176.38
3699.013	-182.71
3701.742	-189.04
3704.47	-191.38
3707.195	-188.38
3709.919	-193.38
3712.64	-202.71
3715.359	-198.71
3718.076	-201.04
3720.792	-210.04
3723.505	-212.04
3726.216	-206.71
3728.925	-213.71
3731.632	-215.38
3734.336	-215.04
3737.039	-220.71
3739.74	-220.04
3742.439	-229.04
3745.136	-225.38
3747.83	-224.04
3750.523	-228.04
3753.213	-233.04
3755.902	-228.38
3758.589	-235.04
3761.273	-226.71
3763.956	-228.38
3766.636	-233.04
3769.315	-234.38
3771.991	-235.71
3774.665	-237.38
3777.338	-238.04
3780.008	-236.04
3782.677	-238.38
3785.343	-241.38
3788.007	-243.04
3790.67	-238.71
3793.33	-241.71
3795.989	-241.04
3798.645	-242.04
3801.299	-245.04
3803.952	-244.71
3806.602	-245.71
3809.251	-243.04
3811.897	-246.38
3814.542	-247.71
3817.184	-244.04
3819.825	-245.04
3822.463	-247.71
3825.1	-250.04
3827.735	-248.71
3830.367	-250.38
3832.998	-249.04
3835.627	-249.04
3838.253	-249.71
3840.878	-250.04
3843.501	-250.04
3846.122	-255.38
3848.741	-254.04
3851.358	-251.71
3853.973	-252.04
3856.586	-252.04
3859.197	-250.71
3861.806	-251.38
3864.414	-249.71
3867.019	-253.04
3869.622	-246.04
3872.224	-242.38
3874.823	-234.38
3877.421	-215.38
3880.016	-197.04
3882.61	-179.38
3885.202	-177.71
3887.792	-200.04
3890.38	-221.04
3892.966	-239.38
3895.55	-249.38
3898.132	-253.04
3900.713	-253.71
3903.291	-257.38
3905.868	-257.04
3908.442	-256.04
3911.015	-258.71
3913.586	-258.71
3916.155	-261.38
3918.722	-258.38
3921.287	-258.71
3923.85	-257.71
3926.411	-260.71
3928.971	-257.71
3931.528	-261.71
3934.084	-262.71
3936.638	-260.04
3939.19	-261.38
3941.74	-262.04
3944.288	-258.38
3946.834	-259.38
3949.378	-258.71
3951.921	-259.38
3954.462	-261.04
3957	-255.38
3959.537	-254.38
3962.072	-257.38
3964.606	-256.38
3967.137	-256.04
3969.667	-256.04
3972.194	-254.04
3974.72	-258.71
3977.244	-257.04
3979.766	-256.71
3982.286	-256.38
3984.805	-256.04
3987.321	-253.71
3989.836	-252.71
3992.349	-252.04
3994.86	-253.04
3997.369	-257.38
3999.877	-253.71
4002.382	-253.04
4004.886	-253.38
4007.388	-255.71
4009.888	-253.71
4012.386	-252.71
4014.883	-255.71
4017.377	-259.04
4019.87	-253.38
4022.361	-253.38
4024.85	-255.04
4027.338	-256.38
4029.823	-254.04
4032.307	-254.04
4034.789	-254.04
4037.269	-255.04
4039.747	-256.04
4042.224	-252.71
4044.699	-259.38
4047.172	-256.38
4049.643	-256.71
4052.112	-261.04
4054.58	-259.38
4057.046	-254.71
4059.51	-259.38
4061.972	-259.71
4064.432	-258.71
4066.891	-259.38
4069.348	-258.71
4071.803	-255.04
4074.256	-259.38
4076.708	-257.38
4079.158	-255.04
4081.606	-255.04
4084.052	-257.04
4086.497	-257.71
4088.939	-256.38
4091.38	-255.04
4093.819	-254.38
4096.257	-265.71
4098.693	-262.38
4101.127	-261.71
4103.559	-261.38
4105.989	-139.38
4108.418	-132.71
4110.845	-121.71
4113.27	-114.71
4115.694	-102.38
4118.115	-83.38
4120.535	-253.38
4122.954	-254.71
4125.37	-252.38
4127.785	-254.71
4130.198	-262.04
4132.609	-381.38
4135.019	-260.38
4137.427	-262.38
4139.833	-260.71
4142.237	-265.71
