Data from EC1_RamanShift_3.txt Node
Date: Mon Nov 06 14:32:58 IST 2017
User: aro
Spectrometer: QEPB0276
Trigger mode: 0
Integration Time (sec): 4.000000E1
Scans to average: 3
Electric dark correction enabled: true
Nonlinearity correction enabled: false
Boxcar width: 0
XAxis mode: Raman Shifts
Number of Pixels in Spectrum: 1044
>>>>>Begin Spectral Data<<<<<
160.701	-42.29
166.742	16.71
172.777	203.71
178.805	772.04
184.826	2229.04
190.841	4791.38
196.849	7763.04
202.85	9787.38
208.845	10282.04
214.833	9932.04
220.815	9566.71
226.789	9300.38
232.758	9069.04
238.719	8821.71
244.674	8501.38
250.623	8136.38
256.565	7801.04
262.5	7449.04
268.429	7127.04
274.351	6880.04
280.267	6625.71
286.176	6395.38
292.079	6226.71
297.975	6033.04
303.865	5894.04
309.748	5768.38
315.625	5657.04
321.495	5564.38
327.359	5493.71
333.217	5453.04
339.068	5461.38
344.912	5418.71
350.751	5376.71
356.583	5369.04
362.408	5343.71
368.227	5370.04
374.04	5414.38
379.847	5564.04
385.647	5686.04
391.44	5655.04
397.228	5592.38
403.009	5599.37
408.784	5724.71
414.553	6049.38
420.315	6402.71
426.071	6451.71
431.821	6045.38
437.565	5731.38
443.302	5625.71
449.033	5556.04
454.758	5511.04
460.477	5458.71
466.189	5425.38
471.896	5345.38
477.596	5318.38
483.29	5262.04
488.978	5263.38
494.66	5197.04
500.335	5100.71
506.005	4954.71
511.668	4797.04
517.325	4634.38
522.977	4533.38
528.622	4426.71
534.261	4355.04
539.894	4292.38
545.521	4245.71
551.141	4195.38
556.756	4163.04
562.365	4110.04
567.968	4082.04
573.565	4056.38
579.155	4024.04
584.74	4017.71
590.319	3953.71
595.892	3932.71
601.459	3889.38
607.02	3857.04
612.575	3815.71
618.124	3749.04
623.667	3707.04
629.204	3679.04
634.735	3673.04
640.261	3708.71
645.781	3817.04
651.294	3856.71
656.802	3735.38
662.304	3592.04
667.8	3517.38
673.29	3472.71
678.775	3430.71
684.254	3387.04
689.726	3375.38
695.193	3353.38
700.655	3309.04
706.11	3294.04
711.56	3248.71
717.004	3221.38
722.442	3198.38
727.874	3170.04
733.301	3155.38
738.722	3158.38
744.137	3158.71
749.547	3172.38
754.951	3199.38
760.349	3156.04
765.741	3129.04
771.128	3101.71
776.509	3076.38
781.885	3082.38
787.254	3070.04
792.618	3032.38
797.977	3030.04
803.33	2988.04
808.677	2969.38
814.019	2902.04
819.355	2872.04
824.686	2835.71
830.011	2801.38
835.33	2776.71
840.644	2747.71
845.952	2720.38
851.255	2690.71
856.552	2666.04
861.844	2616.04
867.13	2591.04
872.41	2548.38
877.686	2510.38
882.955	2468.71
888.219	2417.38
893.478	2382.38
898.731	2318.38
903.979	2292.38
909.221	2255.04
914.458	2243.04
919.69	2218.04
924.916	2218.04
930.136	2204.04
935.351	2191.38
940.561	2187.38
945.766	2165.04
950.965	2151.04
956.158	2116.38
961.347	2085.71
966.529	2043.04
971.707	1999.71
976.879	1960.71
982.046	1951.04
987.208	1930.04
992.364	1932.38
997.515	1933.38
1002.66	1947.71
1007.801	1953.71
1012.936	1972.04
1018.066	1984.38
1023.19	1993.38
1028.309	1994.71
1033.423	1969.71
1038.532	1965.71
1043.636	1950.38
1048.734	1925.04
1053.827	1897.04
1058.915	1870.71
1063.998	1865.71
1069.075	1868.04
1074.147	1851.71
1079.214	1863.71
1084.276	1891.71
1089.333	1895.38
1094.385	1897.71
1099.431	1887.38
1104.472	1882.04
1109.509	1847.71
1114.54	1838.71
1119.565	1803.38
1124.586	1781.38
1129.602	1759.38
1134.613	1744.04
1139.618	1736.38
1144.619	1738.04
1149.614	1753.04
1154.604	1746.71
1159.589	1767.04
1164.57	1764.04
1169.545	1763.71
1174.515	1762.71
1179.48	1753.71
1184.44	1740.38
1189.395	1721.71
1194.345	1706.71
1199.29	1687.38
1204.23	1709.71
1209.165	1716.38
1214.095	1722.38
1219.021	1734.71
1223.941	1744.04
1228.856	1757.71
1233.766	1747.04
1238.672	1752.04
1243.572	1732.71
1248.467	1724.71
1253.358	1692.71
1258.244	1649.38
1263.124	1634.04
1268	1602.04
1272.871	1583.04
1277.737	1574.04
1282.599	1555.38
1287.455	1566.71
1292.306	1574.71
1297.153	1569.71
1301.995	1585.38
1306.832	1598.04
1311.664	1584.38
1316.491	1577.38
1321.314	1580.38
1326.132	1553.04
1330.945	1537.04
1335.753	1508.04
1340.556	1498.38
1345.354	1472.71
1350.148	1465.71
1354.937	1453.71
1359.722	1429.04
1364.501	1438.04
1369.276	1430.38
1374.046	1420.04
1378.811	1423.71
1383.572	1410.38
1388.327	1394.71
1393.079	1373.04
1397.825	1357.71
1402.567	1331.38
1407.304	1323.38
1412.036	1310.38
1416.764	1304.38
1421.487	1304.04
1426.205	1314.04
1430.919	1321.38
1435.628	1335.38
1440.333	1351.38
1445.032	1363.04
1449.727	1376.38
1454.418	1370.71
1459.104	1365.38
1463.785	1360.04
1468.462	1351.71
1473.134	1328.38
1477.802	1322.38
1482.465	1319.38
1487.123	1329.04
1491.777	1334.71
1496.426	1352.38
1501.071	1374.04
1505.711	1392.04
1510.347	1406.71
1514.978	1427.38
1519.604	1436.71
1524.226	1441.71
1528.844	1438.38
1533.457	1438.38
1538.065	1425.38
1542.669	1426.71
1547.269	1430.04
1551.864	1427.71
1556.454	1440.71
1561.041	1462.38
1565.622	1488.38
1570.199	1509.71
1574.772	1547.04
1579.34	1602.04
1583.904	1640.38
1588.464	1669.04
1593.019	1714.38
1597.569	1748.38
1602.115	1779.38
1606.657	1807.38
1611.195	1839.71
1615.728	1886.71
1620.256	1932.71
1624.78	1966.38
1629.3	2012.04
1633.816	2039.04
1638.327	2084.04
1642.834	2103.71
1647.336	2132.04
1651.834	2142.38
1656.328	2126.04
1660.817	2119.38
1665.302	2058.38
1669.783	1979.38
1674.259	1914.71
1678.732	1836.04
1683.199	1757.04
1687.663	1676.71
1692.122	1602.71
1696.577	1529.04
1701.028	1447.38
1705.474	1388.38
1709.917	1330.38
1714.355	1262.71
1718.788	1219.71
1723.218	1164.38
1727.643	1111.71
1732.064	1075.38
1736.481	1015.71
1740.893	971.04
1745.301	924.04
1749.705	886.38
1754.105	852.04
1758.501	811.38
1762.893	783.71
1767.28	764.04
1771.663	749.04
1776.042	742.38
1780.417	734.04
1784.787	732.04
1789.154	734.71
1793.516	728.04
1797.874	723.71
1802.228	721.04
1806.578	686.04
1810.924	676.38
1815.266	655.38
1819.603	640.04
1823.937	615.71
1828.266	615.71
1832.591	603.38
1836.913	592.38
1841.23	587.38
1845.543	585.04
1849.852	586.71
1854.156	593.04
1858.457	587.71
1862.754	591.38
1867.047	603.04
1871.335	599.38
1875.62	607.04
1879.9	602.71
1884.177	608.38
1888.449	601.04
1892.718	593.04
1896.982	595.71
1901.243	601.04
1905.499	588.04
1909.752	596.71
1914	595.38
1918.245	601.38
1922.485	613.38
1926.722	617.04
1930.954	623.71
1935.183	629.38
1939.408	630.38
1943.628	630.04
1947.845	623.38
1952.058	616.38
1956.267	609.38
1960.472	601.38
1964.673	585.38
1968.87	567.38
1973.063	558.71
1977.252	558.71
1981.438	556.04
1985.619	552.71
1989.797	563.38
1993.971	558.04
1998.14	565.38
2002.306	564.04
2006.469	571.38
2010.627	567.38
2014.781	573.38
2018.932	581.71
2023.078	572.71
2027.221	576.38
2031.36	560.71
2035.495	564.38
2039.627	565.04
2043.754	555.71
2047.878	567.71
2051.998	566.71
2056.114	579.38
2060.226	572.71
2064.334	585.38
2068.439	588.38
2072.54	606.38
2076.637	614.04
2080.73	614.38
2084.82	620.71
2088.906	625.71
2092.988	624.04
2097.066	616.71
2101.14	615.04
2105.211	601.71
2109.278	604.04
2113.342	589.04
2117.401	576.71
2121.457	573.38
2125.509	563.71
2129.558	561.38
2133.602	559.71
2137.643	552.04
2141.681	545.38
2145.714	540.04
2149.744	521.38
2153.77	526.04
2157.793	515.71
2161.812	503.38
2165.827	496.38
2169.838	484.71
2173.846	470.38
2177.851	458.71
2181.851	452.04
2185.848	436.71
2189.841	434.71
2193.831	418.71
2197.817	405.04
2201.799	405.71
2205.778	400.71
2209.753	392.71
2213.725	389.71
2217.693	386.04
2221.657	381.38
2225.618	385.71
2229.575	372.04
2233.529	364.04
2237.479	352.04
2241.425	348.04
2245.368	336.71
2249.307	327.71
2253.243	313.38
2257.175	307.04
2261.104	300.71
2265.029	290.71
2268.95	274.38
2272.868	269.04
2276.783	268.38
2280.694	257.04
2284.601	255.38
2288.505	246.38
2292.405	237.71
2296.302	230.04
2300.195	222.04
2304.085	209.04
2307.971	205.71
2311.854	199.38
2315.734	187.04
2319.609	183.71
2323.482	175.71
2327.351	174.71
2331.216	175.71
2335.078	175.71
2338.937	160.04
2342.792	153.71
2346.643	158.04
2350.492	149.04
2354.336	148.04
2358.178	144.71
2362.015	146.04
2365.85	146.38
2369.681	147.38
2373.508	147.38
2377.333	141.04
2381.153	135.71
2384.971	137.38
2388.785	143.71
2392.595	134.71
2396.402	124.38
2400.206	123.04
2404.007	118.71
2407.804	119.04
2411.597	116.71
2415.388	118.38
2419.174	116.38
2422.958	111.04
2426.738	108.71
2430.515	105.38
2434.289	105.04
2438.059	107.71
2441.825	103.04
2445.589	99.04
2449.349	92.04
2453.106	91.71
2456.859	91.38
2460.61	86.04
2464.356	78.38
2468.1	80.71
2471.84	78.38
2475.577	78.04
2479.311	81.71
2483.041	77.71
2486.768	74.04
2490.492	69.38
2494.213	73.38
2497.93	76.71
2501.644	80.38
2505.355	73.04
2509.062	67.04
2512.766	72.04
2516.467	73.04
2520.165	69.04
2523.859	65.38
2527.551	68.71
2531.239	68.71
2534.923	59.71
2538.605	65.71
2542.283	62.71
2545.958	65.04
2549.63	61.71
2553.299	58.38
2556.964	57.04
2560.626	59.04
2564.285	57.71
2567.941	56.04
2571.594	54.38
2575.243	49.71
2578.89	52.38
2582.533	49.04
2586.173	37.71
2589.809	42.71
2593.443	42.38
2597.073	34.71
2600.701	31.38
2604.325	27.38
2607.946	32.71
2611.564	28.04
2615.178	25.71
2618.79	29.71
2622.398	20.38
2626.004	23.71
2629.606	25.38
2633.205	18.04
2636.801	17.71
2640.394	19.04
2643.983	19.38
2647.57	13.04
2651.153	14.38
2654.734	13.71
2658.311	9.38
2661.885	6.71
2665.456	8.71
2669.025	4.04
2672.589	7.71
2676.151	4.71
2679.71	6.04
2683.266	6.04
2686.819	1.38
2690.368	2.04
2693.915	1.38
2697.458	-3.29
2700.999	-0.62
2704.536	-2.29
2708.071	-3.29
2711.602	-0.96
2715.13	-4.62
2718.656	-1.96
2722.178	3.38
2725.697	2.71
2729.214	8.38
2732.727	6.71
2736.237	11.38
2739.744	13.71
2743.249	16.04
2746.75	16.04
2750.248	21.38
2753.743	23.04
2757.236	20.71
2760.725	20.71
2764.211	21.71
2767.695	15.38
2771.175	25.04
2774.652	25.04
2778.127	22.71
2781.598	23.71
2785.067	26.04
2788.532	28.38
2791.995	32.04
2795.455	40.38
2798.911	42.38
2802.365	43.71
2805.816	47.71
2809.264	52.04
2812.709	56.04
2816.151	58.04
2819.59	58.71
2823.026	67.04
2826.46	71.71
2829.89	77.38
2833.318	75.38
2836.742	80.04
2840.164	89.71
2843.583	99.38
2846.999	97.71
2850.412	104.04
2853.822	111.71
2857.229	118.71
2860.634	124.04
2864.035	131.71
2867.434	136.71
2870.83	147.71
2874.223	150.04
2877.613	158.04
2881	156.71
2884.385	161.38
2887.766	163.71
2891.145	176.04
2894.521	174.71
2897.894	191.71
2901.264	193.38
2904.631	200.38
2907.996	207.71
2911.358	216.71
2914.717	219.38
2918.073	233.04
2921.426	239.71
2924.777	255.71
2928.124	265.04
2931.469	285.04
2934.811	290.71
2938.15	303.38
2941.487	312.71
2944.821	325.04
2948.152	335.38
2951.48	342.71
2954.805	346.38
2958.128	370.71
2961.447	384.04
2964.765	406.38
2968.079	414.38
2971.39	428.04
2974.699	447.04
2978.005	472.71
2981.308	497.71
2984.609	515.04
2987.907	537.04
2991.202	573.04
2994.494	592.04
2997.784	617.71
3001.07	630.38
3004.355	665.04
3007.636	682.71
3010.915	707.04
3014.191	727.71
3017.464	734.38
3020.734	763.71
3024.002	769.04
3027.267	798.04
3030.53	813.71
3033.789	834.38
3037.046	860.71
3040.301	881.38
3043.552	910.38
3046.801	948.71
3050.048	974.71
3053.291	1022.38
3056.532	1055.04
3059.771	1092.71
3063.006	1127.71
3066.239	1170.38
3069.469	1217.71
3072.697	1258.71
3075.922	1300.04
3079.144	1347.04
3082.364	1394.04
3085.581	1426.71
3088.795	1468.71
3092.007	1503.71
3095.216	1544.04
3098.423	1591.04
3101.627	1643.38
3104.828	1691.04
3108.026	1731.38
3111.222	1785.04
3114.416	1830.71
3117.607	1861.04
3120.795	1918.38
3123.98	1967.04
3127.163	2017.38
3130.344	2070.04
3133.521	2131.38
3136.696	2174.38
3139.869	2225.04
3143.039	2270.38
3146.206	2306.04
3149.371	2340.38
3152.533	2363.71
3155.693	2382.04
3158.85	2392.71
3162.005	2419.04
3165.157	2439.04
3168.306	2442.71
3171.453	2435.38
3174.597	2457.04
3177.739	2464.04
3180.878	2485.38
3184.014	2481.71
3187.149	2495.04
3190.28	2507.71
3193.409	2507.71
3196.536	2526.04
3199.659	2530.04
3202.781	2541.71
3205.9	2554.04
3209.016	2557.71
3212.13	2540.71
3215.241	2538.04
3218.35	2534.38
3221.456	2509.71
3224.56	2493.38
3227.661	2466.38
3230.76	2460.71
3233.856	2442.71
3236.95	2425.71
3240.041	2409.04
3243.13	2411.38
3246.216	2398.71
3249.3	2385.38
3252.382	2381.04
3255.46	2371.04
3258.537	2368.71
3261.611	2366.04
3264.682	2369.71
3267.751	2360.38
3270.818	2345.38
3273.882	2333.38
3276.943	2322.71
3280.002	2307.71
3283.059	2267.04
3286.113	2244.38
3289.165	2212.04
3292.214	2186.04
3295.261	2142.71
3298.306	2105.38
3301.348	2056.04
3304.387	2028.71
3307.425	1997.38
3310.459	1972.04
3313.492	1952.38
3316.521	1924.38
3319.549	1903.71
3322.574	1890.71
3325.597	1871.71
3328.617	1876.38
3331.635	1869.38
3334.65	1844.71
3337.663	1847.38
3340.674	1830.71
3343.682	1820.04
3346.688	1835.38
3349.691	1822.38
3352.692	1808.71
3355.691	1792.38
3358.687	1784.38
3361.681	1759.04
3364.673	1723.04
3367.662	1710.04
3370.649	1701.04
3373.633	1675.04
3376.615	1658.04
3379.595	1637.04
3382.572	1620.71
3385.547	1605.71
3388.52	1577.04
3391.49	1559.38
3394.458	1547.38
3397.424	1520.04
3400.387	1502.04
3403.348	1492.04
3406.307	1480.71
3409.263	1465.38
3412.217	1441.71
3415.168	1446.71
3418.118	1424.38
3421.065	1407.71
3424.009	1389.04
3426.951	1371.04
3429.891	1364.04
3432.829	1340.71
3435.764	1318.04
3438.697	1283.04
3441.628	1245.38
3444.557	1217.71
3447.483	1190.71
3450.407	1149.04
3453.328	1123.38
3456.247	1099.04
3459.164	1067.71
3462.079	1030.71
3464.991	1004.04
3467.902	982.04
3470.809	942.71
3473.715	927.38
3476.618	899.38
3479.519	869.38
3482.418	854.04
3485.315	826.38
3488.209	813.38
3491.101	792.38
3493.99	766.71
3496.878	750.71
3499.763	727.38
3502.646	703.04
3505.527	674.71
3508.405	655.71
3511.281	625.38
3514.155	597.38
3517.027	587.71
3519.897	551.71
3522.764	526.04
3525.629	497.04
3528.492	477.38
3531.352	444.04
3534.211	419.04
3537.067	400.04
3539.921	382.04
3542.773	358.04
3545.622	342.04
3548.469	315.71
3551.315	296.38
3554.157	282.71
3556.998	266.38
3559.837	255.04
3562.673	236.38
3565.507	221.04
3568.339	203.71
3571.169	192.71
3573.996	182.04
3576.822	164.38
3579.645	152.04
3582.466	141.71
3585.285	125.71
3588.101	114.38
3590.916	99.38
3593.728	86.04
3596.538	77.71
3599.346	68.38
3602.152	57.38
3604.956	42.04
3607.757	37.71
3610.556	22.38
3613.354	17.71
3616.149	8.04
3618.942	-7.29
3621.732	-9.96
3624.521	-19.29
3627.307	-26.29
3630.092	-29.62
3632.874	-35.96
3635.654	-45.29
3638.432	-47.62
3641.208	-57.96
3643.982	-62.96
3646.753	-67.96
3649.523	-76.96
3652.29	-79.96
3655.055	-88.96
3657.818	-93.62
3660.579	-101.62
3663.338	-109.62
3666.095	-111.29
3668.849	-121.96
3671.602	-126.29
3674.352	-129.29
3677.101	-130.29
3679.847	-138.62
3682.591	-143.96
3685.333	-147.96
3688.073	-148.29
3690.811	-155.96
3693.547	-156.62
3696.281	-158.62
3699.013	-160.96
3701.742	-167.29
3704.47	-170.29
3707.195	-170.96
3709.919	-171.29
3712.64	-176.62
3715.359	-174.96
3718.076	-178.62
3720.792	-187.96
3723.505	-186.96
3726.216	-183.29
3728.925	-187.62
3731.632	-190.96
3734.336	-192.29
3737.039	-194.62
3739.74	-193.29
3742.439	-199.29
3745.136	-200.62
3747.83	-199.62
3750.523	-200.96
3753.213	-204.62
3755.902	-204.96
3758.589	-210.29
3761.273	-202.62
3763.956	-202.29
3766.636	-206.96
3769.315	-209.62
3771.991	-208.29
3774.665	-208.96
3777.338	-210.29
3780.008	-210.96
3782.677	-212.29
3785.343	-214.29
3788.007	-216.96
3790.67	-213.29
3793.33	-215.62
3795.989	-210.96
3798.645	-213.62
3801.299	-217.29
3803.952	-216.96
3806.602	-217.29
3809.251	-217.96
3811.897	-218.62
3814.542	-218.29
3817.184	-215.29
3819.825	-218.62
3822.463	-219.29
3825.1	-219.96
3827.735	-221.62
3830.367	-220.96
3832.998	-223.29
3835.627	-222.29
3838.253	-219.29
3840.878	-221.96
3843.501	-222.96
3846.122	-225.62
3848.741	-223.29
3851.358	-225.62
3853.973	-225.62
3856.586	-223.62
3859.197	-223.62
3861.806	-222.96
3864.414	-223.29
3867.019	-223.62
3869.622	-218.29
3872.224	-211.96
3874.823	-201.29
3877.421	-186.29
3880.016	-162.96
3882.61	-148.62
3885.202	-144.96
3887.792	-171.96
3890.38	-194.29
3892.966	-209.62
3895.55	-220.96
3898.132	-223.62
3900.713	-224.96
3903.291	-227.62
3905.868	-231.29
3908.442	-227.29
3911.015	-228.96
3913.586	-228.62
3916.155	-228.29
3918.722	-230.29
3921.287	-231.96
3923.85	-230.29
3926.411	-233.29
3928.971	-230.96
3931.528	-229.62
3934.084	-232.96
3936.638	-231.62
3939.19	-232.96
3941.74	-232.29
3944.288	-232.96
3946.834	-230.62
3949.378	-232.29
3951.921	-231.96
3954.462	-231.29
3957	-224.62
3959.537	-228.29
3962.072	-228.29
3964.606	-231.62
3967.137	-224.96
3969.667	-229.96
3972.194	-226.96
3974.72	-230.29
3977.244	-225.96
3979.766	-227.96
3982.286	-227.29
3984.805	-227.29
3987.321	-228.96
3989.836	-224.29
3992.349	-227.62
3994.86	-226.62
3997.369	-229.29
3999.877	-225.62
4002.382	-225.62
4004.886	-228.29
4007.388	-227.29
4009.888	-224.62
4012.386	-224.62
4014.883	-228.96
4017.377	-226.29
4019.87	-228.96
4022.361	-227.62
4024.85	-228.29
4027.338	-226.62
4029.823	-227.29
4032.307	-228.29
4034.789	-224.62
4037.269	-227.96
4039.747	-228.96
4042.224	-227.29
4044.699	-229.62
4047.172	-227.96
4049.643	-230.29
4052.112	-233.62
4054.58	-229.29
4057.046	-229.96
4059.51	-229.96
4061.972	-226.96
4064.432	-234.62
4066.891	-232.62
4069.348	-230.29
4071.803	-230.62
4074.256	-230.62
4076.708	-227.29
4079.158	-227.62
4081.606	-228.62
4084.052	-228.62
4086.497	-227.29
4088.939	-228.96
4091.38	-228.29
4093.819	-230.62
4096.257	-238.96
4098.693	-234.96
4101.127	-237.96
4103.559	-235.29
4105.989	-114.62
4108.418	-108.96
4110.845	-105.62
4113.27	-92.62
4115.694	-87.29
4118.115	-69.29
4120.535	-227.29
4122.954	-229.96
4125.37	-228.62
4127.785	-229.96
4130.198	-237.29
4132.609	-357.96
4135.019	-235.96
4137.427	-237.62
4139.833	-237.29
4142.237	-239.29
