Data from EC1_RamanShift_2.txt Node
Date: Mon Nov 06 14:28:58 IST 2017
User: aro
Spectrometer: QEPB0276
Trigger mode: 0
Integration Time (sec): 4.000000E1
Scans to average: 3
Electric dark correction enabled: true
Nonlinearity correction enabled: false
Boxcar width: 0
XAxis mode: Raman Shifts
Number of Pixels in Spectrum: 1044
>>>>>Begin Spectral Data<<<<<
160.701	-48.62
166.742	14.71
172.777	195.38
178.805	772.38
184.826	2231.38
190.841	4844.71
196.849	7915.71
202.85	10017.38
208.845	10528.38
214.833	10196.04
220.815	9780.38
226.789	9481.38
232.758	9266.71
238.719	8959.71
244.674	8622.71
250.623	8322.38
256.565	7930.04
262.5	7568.04
268.429	7243.71
274.351	6940.38
280.267	6726.38
286.176	6480.04
292.079	6305.04
297.975	6112.38
303.865	5944.38
309.748	5821.04
315.625	5706.38
321.495	5604.71
327.359	5536.04
333.217	5482.71
339.068	5467.71
344.912	5459.38
350.751	5411.38
356.583	5387.04
362.408	5333.38
368.227	5403.38
374.04	5426.04
379.847	5549.71
385.647	5691.71
391.44	5652.04
397.228	5582.71
403.009	5608.71
408.784	5727.71
414.553	6004.38
420.315	6389.71
426.071	6441.38
431.821	6053.38
437.565	5741.38
443.302	5639.04
449.033	5563.04
454.758	5517.71
460.477	5473.38
466.189	5436.38
471.896	5381.71
477.596	5344.38
483.29	5289.71
488.978	5256.71
494.66	5215.38
500.335	5123.71
506.005	4988.71
511.668	4826.04
517.325	4670.04
522.977	4585.38
528.622	4460.38
534.261	4389.71
539.894	4339.38
545.521	4282.71
551.141	4255.71
556.756	4201.71
562.365	4179.38
567.968	4149.04
573.565	4121.38
579.155	4078.38
584.74	4045.71
590.319	4011.04
595.892	3959.71
601.459	3946.71
607.02	3897.04
612.575	3846.38
618.124	3811.38
623.667	3742.38
629.204	3724.04
634.735	3721.38
640.261	3758.04
645.781	3846.04
651.294	3892.71
656.802	3787.38
662.304	3646.38
667.8	3554.38
673.29	3515.04
678.775	3483.04
684.254	3449.71
689.726	3430.38
695.193	3377.38
700.655	3360.38
706.11	3333.38
711.56	3291.04
717.004	3265.38
722.442	3241.38
727.874	3229.71
733.301	3208.38
738.722	3193.38
744.137	3212.04
749.547	3214.04
754.951	3231.38
760.349	3208.04
765.741	3168.04
771.128	3135.38
776.509	3121.04
781.885	3121.38
787.254	3106.38
792.618	3079.38
797.977	3057.04
803.33	3022.04
808.677	2977.71
814.019	2943.04
819.355	2890.71
824.686	2857.71
830.011	2831.04
835.33	2801.38
840.644	2773.04
845.952	2747.71
851.255	2733.71
856.552	2682.38
861.844	2653.38
867.13	2617.38
872.41	2580.71
877.686	2538.71
882.955	2488.04
888.219	2444.38
893.478	2390.71
898.731	2356.71
903.979	2321.71
909.221	2289.04
914.458	2257.38
919.69	2251.71
924.916	2238.71
930.136	2247.04
935.351	2214.04
940.561	2203.04
945.766	2186.04
950.965	2167.71
956.158	2141.38
961.347	2095.38
966.529	2062.71
971.707	2024.04
976.879	1993.04
982.046	1960.04
987.208	1955.04
992.364	1942.71
997.515	1960.04
1002.66	1977.71
1007.801	1969.38
1012.936	1997.04
1018.066	2003.71
1023.19	2013.04
1028.309	2010.71
1033.423	1996.38
1038.532	1979.71
1043.636	1953.38
1048.734	1923.71
1053.827	1920.04
1058.915	1891.38
1063.998	1878.71
1069.075	1881.38
1074.147	1884.38
1079.214	1890.38
1084.276	1898.71
1089.333	1903.38
1094.385	1910.38
1099.431	1908.38
1104.472	1901.38
1109.509	1886.04
1114.54	1849.38
1119.565	1824.71
1124.586	1791.04
1129.602	1776.38
1134.613	1769.71
1139.618	1764.04
1144.619	1767.38
1149.614	1763.38
1154.604	1767.38
1159.589	1785.04
1164.57	1783.38
1169.545	1784.71
1174.515	1785.71
1179.48	1776.71
1184.44	1746.38
1189.395	1736.04
1194.345	1727.38
1199.29	1719.38
1204.23	1726.04
1209.165	1732.71
1214.095	1753.04
1219.021	1753.71
1223.941	1767.71
1228.856	1784.38
1233.766	1775.38
1238.672	1771.71
1243.572	1764.38
1248.467	1751.38
1253.358	1728.71
1258.244	1686.71
1263.124	1661.71
1268	1627.04
1272.871	1616.04
1277.737	1591.71
1282.599	1584.71
1287.455	1588.04
1292.306	1593.04
1297.153	1612.38
1301.995	1600.38
1306.832	1604.38
1311.664	1623.71
1316.491	1611.71
1321.314	1591.04
1326.132	1572.71
1330.945	1552.71
1335.753	1510.04
1340.556	1491.38
1345.354	1487.71
1350.148	1482.04
1354.937	1449.38
1359.722	1444.38
1364.501	1454.38
1369.276	1440.38
1374.046	1441.38
1378.811	1438.04
1383.572	1435.71
1388.327	1419.71
1393.079	1412.04
1397.825	1372.38
1402.567	1361.04
1407.304	1344.71
1412.036	1331.71
1416.764	1328.04
1421.487	1328.38
1426.205	1338.04
1430.919	1340.04
1435.628	1353.04
1440.333	1372.71
1445.032	1368.71
1449.727	1378.38
1454.418	1389.71
1459.104	1385.04
1463.785	1369.71
1468.462	1356.71
1473.134	1337.04
1477.802	1333.71
1482.465	1326.71
1487.123	1328.71
1491.777	1342.04
1496.426	1359.04
1501.071	1376.71
1505.711	1399.38
1510.347	1424.04
1514.978	1433.71
1519.604	1440.04
1524.226	1449.04
1528.844	1449.38
1533.457	1443.04
1538.065	1446.71
1542.669	1436.38
1547.269	1436.71
1551.864	1450.04
1556.454	1474.71
1561.041	1489.71
1565.622	1513.04
1570.199	1536.38
1574.772	1577.71
1579.34	1614.04
1583.904	1655.04
1588.464	1698.71
1593.019	1742.71
1597.569	1770.38
1602.115	1805.38
1606.657	1822.38
1611.195	1852.71
1615.728	1902.38
1620.256	1935.38
1624.78	1992.38
1629.3	2037.71
1633.816	2081.04
1638.327	2103.04
1642.834	2120.38
1647.336	2141.04
1651.834	2174.04
1656.328	2131.04
1660.817	2096.04
1665.302	2060.04
1669.783	1992.38
1674.259	1919.71
1678.732	1839.71
1683.199	1753.71
1687.663	1664.38
1692.122	1600.38
1696.577	1515.71
1701.028	1451.38
1705.474	1374.04
1709.917	1311.71
1714.355	1268.38
1718.788	1211.04
1723.218	1163.71
1727.643	1108.38
1732.064	1069.04
1736.481	1021.38
1740.893	968.04
1745.301	925.71
1749.705	881.71
1754.105	843.71
1758.501	812.38
1762.893	785.71
1767.28	756.04
1771.663	750.71
1776.042	736.04
1780.417	731.38
1784.787	739.04
1789.154	730.04
1793.516	727.04
1797.874	715.71
1802.228	705.04
1806.578	692.71
1810.924	681.38
1815.266	647.38
1819.603	636.04
1823.937	619.38
1828.266	607.04
1832.591	606.71
1836.913	598.71
1841.23	590.04
1845.543	594.38
1849.852	590.38
1854.156	588.38
1858.457	590.71
1862.754	596.04
1867.047	594.38
1871.335	604.38
1875.62	602.38
1879.9	601.38
1884.177	603.71
1888.449	591.71
1892.718	591.71
1896.982	593.38
1901.243	593.38
1905.499	594.38
1909.752	593.38
1914	592.04
1918.245	594.04
1922.485	608.38
1926.722	609.38
1930.954	617.71
1935.183	623.38
1939.408	629.04
1943.628	616.38
1947.845	618.38
1952.058	610.71
1956.267	595.38
1960.472	592.71
1964.673	587.71
1968.87	578.71
1973.063	560.04
1977.252	560.71
1981.438	559.04
1985.619	555.04
1989.797	555.38
1993.971	558.71
1998.14	557.38
2002.306	565.04
2006.469	572.04
2010.627	578.71
2014.781	579.71
2018.932	579.04
2023.078	577.04
2027.221	578.04
2031.36	570.04
2035.495	570.38
2039.627	568.04
2043.754	561.04
2047.878	568.71
2051.998	568.04
2056.114	570.71
2060.226	578.04
2064.334	587.71
2068.439	591.71
2072.54	605.38
2076.637	612.04
2080.73	610.38
2084.82	615.71
2088.906	620.71
2092.988	616.71
2097.066	609.38
2101.14	608.38
2105.211	602.38
2109.278	593.71
2113.342	591.38
2117.401	575.38
2121.457	578.38
2125.509	563.71
2129.558	566.04
2133.602	564.04
2137.643	554.71
2141.681	545.04
2145.714	548.38
2149.744	534.38
2153.77	529.04
2157.793	519.71
2161.812	509.38
2165.827	500.71
2169.838	483.71
2173.846	472.71
2177.851	465.38
2181.851	453.38
2185.848	448.38
2189.841	439.38
2193.831	429.38
2197.817	416.71
2201.799	415.04
2205.778	408.71
2209.753	401.38
2213.725	392.71
2217.693	403.04
2221.657	397.04
2225.618	393.71
2229.575	374.38
2233.529	378.71
2237.479	361.71
2241.425	363.04
2245.368	350.04
2249.307	333.38
2253.243	326.38
2257.175	313.04
2261.104	311.71
2265.029	299.04
2268.95	290.38
2272.868	280.38
2276.783	275.04
2280.694	273.71
2284.601	272.04
2288.505	260.04
2292.405	252.04
2296.302	243.71
2300.195	233.71
2304.085	231.71
2307.971	214.71
2311.854	203.04
2315.734	204.04
2319.609	199.38
2323.482	186.71
2327.351	185.71
2331.216	185.38
2335.078	189.38
2338.937	177.71
2342.792	169.38
2346.643	166.04
2350.492	161.71
2354.336	160.71
2358.178	161.38
2362.015	164.38
2365.85	163.04
2369.681	162.71
2373.508	157.04
2377.333	154.38
2381.153	150.71
2384.971	155.38
2388.785	145.71
2392.595	147.04
2396.402	137.04
2400.206	139.71
2404.007	134.04
2407.804	136.04
2411.597	136.04
2415.388	131.04
2419.174	129.38
2422.958	125.04
2426.738	123.71
2430.515	124.38
2434.289	117.38
2438.059	121.71
2441.825	154.04
2445.589	187.38
2449.349	110.04
2453.106	102.71
2456.859	103.38
2460.61	97.71
2464.356	96.38
2468.1	89.04
2471.84	91.04
2475.577	91.38
2479.311	96.04
2483.041	94.04
2486.768	88.38
2490.492	86.71
2494.213	89.04
2497.93	92.38
2501.644	82.71
2505.355	84.04
2509.062	83.71
2512.766	88.71
2516.467	82.04
2520.165	79.38
2523.859	79.71
2527.551	79.71
2531.239	77.71
2534.923	76.04
2538.605	74.71
2542.283	72.38
2545.958	71.38
2549.63	75.04
2553.299	67.71
2556.964	66.04
2560.626	71.71
2564.285	63.04
2567.941	63.38
2571.594	61.71
2575.243	53.71
2578.89	55.04
2582.533	57.04
2586.173	52.71
2589.809	52.71
2593.443	46.38
2597.073	43.04
2600.701	44.71
2604.325	42.71
2607.946	42.38
2611.564	38.71
2615.178	38.04
2618.79	40.71
2622.398	35.38
2626.004	31.04
2629.606	35.38
2633.205	31.04
2636.801	29.38
2640.394	24.71
2643.983	31.04
2647.57	23.38
2651.153	21.04
2654.734	22.04
2658.311	23.38
2661.885	18.71
2665.456	16.04
2669.025	16.04
2672.589	17.04
2676.151	18.04
2679.71	17.38
2683.266	10.04
2686.819	12.38
2690.368	16.04
2693.915	8.38
2697.458	6.38
2700.999	6.38
2704.536	9.04
2708.071	4.04
2711.602	8.71
2715.13	5.38
2718.656	6.38
2722.178	10.04
2725.697	3.71
2729.214	10.04
2732.727	13.71
2736.237	21.71
2739.744	22.38
2743.249	22.04
2746.75	24.71
2750.248	19.38
2753.743	24.04
2757.236	26.71
2760.725	29.38
2764.211	27.71
2767.695	25.71
2771.175	24.71
2774.652	27.04
2778.127	31.04
2781.598	27.38
2785.067	30.38
2788.532	35.71
2791.995	35.04
2795.455	43.38
2798.911	47.38
2802.365	45.04
2805.816	60.38
2809.264	59.38
2812.709	58.04
2816.151	65.38
2819.59	65.04
2823.026	72.04
2826.46	77.04
2829.89	81.71
2833.318	79.71
2836.742	86.38
2840.164	90.71
2843.583	94.38
2846.999	103.71
2850.412	107.04
2853.822	118.38
2857.229	120.71
2860.634	127.04
2864.035	136.04
2867.434	146.71
2870.83	149.04
2874.223	158.38
2877.613	159.38
2881	170.04
2884.385	167.71
2887.766	167.04
2891.145	175.71
2894.521	184.71
2897.894	194.71
2901.264	202.71
2904.631	201.38
2907.996	212.38
2911.358	220.04
2914.717	224.71
2918.073	232.71
2921.426	245.38
2924.777	258.04
2928.124	266.71
2931.469	280.38
2934.811	297.38
2938.15	347.38
2941.487	319.38
2944.821	328.38
2948.152	342.71
2951.48	343.71
2954.805	348.04
2958.128	377.71
2961.447	464.38
2964.765	423.38
2968.079	414.38
2971.39	428.38
2974.699	448.71
2978.005	475.71
2981.308	486.71
2984.609	510.38
2987.907	529.71
2991.202	559.71
2994.494	581.71
2997.784	607.38
3001.07	637.04
3004.355	656.04
3007.636	673.04
3010.915	698.71
3014.191	721.71
3017.464	728.04
3020.734	749.71
3024.002	767.04
3027.267	789.04
3030.53	799.71
3033.789	832.04
3037.046	856.04
3040.301	877.38
3043.552	908.71
3046.801	936.38
3050.048	965.38
3053.291	1004.71
3056.532	1052.38
3059.771	1080.71
3063.006	1114.71
3066.239	1161.04
3069.469	1202.38
3072.697	1247.04
3075.922	1289.71
3079.144	1329.71
3082.364	1375.38
3085.581	1402.71
3088.795	1444.71
3092.007	1477.04
3095.216	1518.38
3098.423	1570.38
3101.627	1616.38
3104.828	1661.71
3108.026	1688.71
3111.222	1741.38
3114.416	1781.71
3117.607	1817.71
3120.795	1880.04
3123.98	1934.71
3127.163	1981.71
3130.344	2035.04
3133.521	2086.71
3136.696	2139.04
3139.869	2185.38
3143.039	2232.04
3146.206	2261.71
3149.371	2288.71
3152.533	2314.38
3155.693	2337.38
3158.85	2342.04
3162.005	2359.38
3165.157	2376.71
3168.306	2392.38
3171.453	2388.04
3174.597	2388.04
3177.739	2414.71
3180.878	2415.71
3184.014	2428.04
3187.149	2434.38
3190.28	2444.38
3193.409	2445.38
3196.536	2464.04
3199.659	2476.38
3202.781	2476.71
3205.9	2489.71
3209.016	2486.04
3212.13	2479.38
3215.241	2478.71
3218.35	2446.71
3221.456	2438.04
3224.56	2412.38
3227.661	2390.38
3230.76	2371.71
3233.856	2356.04
3236.95	2351.38
3240.041	2340.38
3243.13	2323.38
3246.216	2318.04
3249.3	2302.38
3252.382	2309.71
3255.46	2303.38
3258.537	2281.38
3261.611	2284.38
3264.682	2284.71
3267.751	2287.04
3270.818	2265.04
3273.882	2259.38
3276.943	2263.71
3280.002	2227.04
3283.059	2195.38
3286.113	2186.38
3289.165	2139.71
3292.214	2109.04
3295.261	2078.38
3298.306	2042.71
3301.348	2006.71
3304.387	1970.71
3307.425	1947.04
3310.459	1934.71
3313.492	1901.71
3316.521	1874.38
3319.549	1853.04
3322.574	1832.38
3325.597	1830.04
3328.617	1821.38
3331.635	1813.38
3334.65	1806.38
3337.663	1791.71
3340.674	1792.71
3343.682	1779.38
3346.688	1770.04
3349.691	1776.71
3352.692	1754.38
3355.691	1747.04
3358.687	1737.04
3361.681	1713.04
3364.673	1686.71
3367.662	1677.04
3370.649	1650.38
3373.633	1625.04
3376.615	1611.38
3379.595	1578.38
3382.572	1570.04
3385.547	1552.38
3388.52	1525.04
3391.49	1512.38
3394.458	1497.04
3397.424	1478.71
3400.387	1449.71
3403.348	1444.71
3406.307	1437.38
3409.263	1416.71
3412.217	1407.38
3415.168	1396.71
3418.118	1388.04
3421.065	1368.04
3424.009	1354.04
3426.951	1319.38
3429.891	1308.38
3432.829	1293.04
3435.764	1258.04
3438.697	1235.71
3441.628	1209.38
3444.557	1167.38
3447.483	1135.71
3450.407	1109.71
3453.328	1082.04
3456.247	1058.71
3459.164	1020.38
3462.079	1000.04
3464.991	964.71
3467.902	928.71
3470.809	905.38
3473.715	883.71
3476.618	864.71
3479.519	833.38
3482.418	808.38
3485.315	797.38
3488.209	774.38
3491.101	749.38
3493.99	733.04
3496.878	711.71
3499.763	693.71
3502.646	668.04
3505.527	651.71
3508.405	618.04
3511.281	593.38
3514.155	572.04
3517.027	550.38
3519.897	521.04
3522.764	498.38
3525.629	468.04
3528.492	448.04
3531.352	421.71
3534.211	399.04
3537.067	377.71
3539.921	357.71
3542.773	336.71
3545.622	311.04
3548.469	283.04
3551.315	276.38
3554.157	263.71
3556.998	246.38
3559.837	229.38
3562.673	214.71
3565.507	199.38
3568.339	188.04
3571.169	178.04
3573.996	164.04
3576.822	149.71
3579.645	138.04
3582.466	126.04
3585.285	111.71
3588.101	99.38
3590.916	88.04
3593.728	78.04
3596.538	66.38
3599.346	61.38
3602.152	44.38
3604.956	37.04
3607.757	25.04
3610.556	15.04
3613.354	13.71
3616.149	-1.62
3618.942	-8.96
3621.732	-15.29
3624.521	-25.96
3627.307	-30.96
3630.092	-34.62
3632.874	-37.62
3635.654	-53.62
3638.432	-55.29
3641.208	-57.62
3643.982	-65.96
3646.753	-74.96
3649.523	-80.62
3652.29	-85.62
3655.055	-90.29
3657.818	-97.62
3660.579	-102.96
3663.338	-115.96
3666.095	-121.62
3668.849	-122.62
3671.602	-127.29
3674.352	-137.29
3677.101	-137.96
3679.847	-136.62
3682.591	-143.62
3685.333	-149.62
3688.073	-149.96
3690.811	-160.62
3693.547	-159.96
3696.281	-157.96
3699.013	-161.62
3701.742	-168.96
3704.47	-173.96
3707.195	-170.29
3709.919	-174.62
3712.64	-178.62
3715.359	-178.96
3718.076	-180.29
3720.792	-188.29
3723.505	-184.29
3726.216	-185.62
3728.925	-189.96
3731.632	-191.29
3734.336	-190.62
3737.039	-196.29
3739.74	-190.29
3742.439	-201.96
3745.136	-203.29
3747.83	-194.62
3750.523	-197.29
3753.213	-207.29
3755.902	-201.62
3758.589	-208.62
3761.273	-200.29
3763.956	-199.62
3766.636	-204.96
3769.315	-205.62
3771.991	-208.29
3774.665	-207.96
3777.338	-206.96
3780.008	-210.62
3782.677	-211.29
3785.343	-209.96
3788.007	-213.62
3790.67	-210.62
3793.33	-215.29
3795.989	-213.96
3798.645	-212.96
3801.299	-214.62
3803.952	-217.62
3806.602	-216.96
3809.251	-214.62
3811.897	-218.96
3814.542	-220.96
3817.184	-216.29
3819.825	-216.29
3822.463	-217.62
3825.1	-221.96
3827.735	-217.96
3830.367	-217.96
3832.998	-218.29
3835.627	-223.29
3838.253	-216.96
3840.878	-221.96
3843.501	-219.62
3846.122	-222.96
3848.741	-219.96
3851.358	-224.29
3853.973	-224.62
3856.586	-223.29
3859.197	-223.96
3861.806	-223.62
3864.414	-221.96
3867.019	-222.96
3869.622	-218.62
3872.224	-213.29
3874.823	-206.29
3877.421	-194.29
3880.016	-181.29
3882.61	-166.29
3885.202	-162.62
3887.792	-185.62
3890.38	-201.29
3892.966	-212.62
3895.55	-224.62
3898.132	-224.96
3900.713	-225.29
3903.291	-226.62
3905.868	-230.96
3908.442	-228.29
3911.015	-230.62
3913.586	-228.96
3916.155	-230.62
3918.722	-228.96
3921.287	-230.62
3923.85	-230.96
3926.411	-231.29
3928.971	-231.29
3931.528	-229.29
3934.084	-233.29
3936.638	-232.62
3939.19	-231.62
3941.74	-232.62
3944.288	-234.29
3946.834	-231.62
3949.378	-231.62
3951.921	-231.29
3954.462	-232.62
3957	-228.62
3959.537	-228.96
3962.072	-231.29
3964.606	-230.62
3967.137	-227.29
3969.667	-227.96
3972.194	-228.62
3974.72	-233.29
3977.244	-226.96
3979.766	-230.96
3982.286	-228.62
3984.805	-226.62
3987.321	-228.29
3989.836	-226.96
3992.349	-223.29
3994.86	-222.96
3997.369	-224.96
3999.877	-225.96
4002.382	-227.96
4004.886	-228.62
4007.388	-230.29
4009.888	-225.96
4012.386	-224.29
4014.883	-227.29
4017.377	-227.62
4019.87	-228.96
4022.361	-229.29
4024.85	-228.62
4027.338	-228.96
4029.823	-226.62
4032.307	-226.96
4034.789	-227.29
4037.269	-229.62
4039.747	-229.29
4042.224	-225.29
4044.699	-228.62
4047.172	-228.62
4049.643	-230.29
4052.112	-233.29
4054.58	-231.62
4057.046	-228.62
4059.51	-229.29
4061.972	-225.29
4064.432	-232.96
4066.891	-230.62
4069.348	-229.62
4071.803	-229.62
4074.256	-231.29
4076.708	-226.62
4079.158	-225.96
4081.606	-225.62
4084.052	-230.29
4086.497	-229.96
4088.939	-225.29
4091.38	-226.96
4093.819	-226.29
4096.257	-235.96
4098.693	-231.96
4101.127	-231.96
4103.559	-230.62
4105.989	-126.62
4108.418	-119.29
4110.845	-116.62
4113.27	-103.62
4115.694	-95.62
4118.115	-78.62
4120.535	-221.96
4122.954	-226.62
4125.37	-224.96
4127.785	-227.96
4130.198	-236.62
4132.609	-354.29
4135.019	-232.96
4137.427	-231.62
4139.833	-233.29
4142.237	-235.96
