Data from Ethanol_RamanShift_1.txt Node
Date: Mon Nov 06 13:32:58 IST 2017
User: aro
Spectrometer: QEPB0276
Trigger mode: 0
Integration Time (sec): 4.000000E1
Scans to average: 3
Electric dark correction enabled: true
Nonlinearity correction enabled: false
Boxcar width: 0
XAxis mode: Raman Shifts
Number of Pixels in Spectrum: 1044
>>>>>Begin Spectral Data<<<<<
160.701	-22.83
166.742	41.5
172.777	234.83
178.805	860.5
184.826	2460.83
190.841	5382.17
196.849	8886.83
202.85	11313.5
208.845	11977.17
214.833	11659.83
220.815	11229.17
226.789	10986.17
232.758	10893.17
238.719	10734.5
244.674	10589.17
250.623	10476.17
256.565	10379.83
262.5	10329.5
268.429	10274.5
274.351	10135.17
280.267	9908.83
286.176	9640.17
292.079	9262.83
297.975	8832.17
303.865	8431.17
309.748	8075.5
315.625	7764.17
321.495	7495.83
327.359	7329.83
333.217	7172.83
339.068	7094.17
344.912	7024.17
350.751	6962.17
356.583	6972.83
362.408	7001.83
368.227	7130.5
374.04	7321.83
379.847	7668.17
385.647	8025.83
391.44	8390.17
397.228	8817.17
403.009	9575.83
408.784	10824.5
414.553	13034.5
420.315	16552.5
426.071	21273.5
431.821	26224.17
437.565	29305.5
443.302	28723.17
449.033	25058.83
454.758	20496.83
460.477	16519.5
466.189	13509.5
471.896	11372.17
477.596	9912.17
483.29	8892.17
488.978	8239.5
494.66	7702.17
500.335	7261.83
506.005	6888.17
511.668	6505.5
517.325	6216.5
522.977	5993.5
528.622	5821.17
534.261	5676.17
539.894	5575.83
545.521	5525.5
551.141	5460.83
556.756	5435.17
562.365	5372.5
567.968	5363.83
573.565	5345.5
579.155	5361.5
584.74	5342.5
590.319	5312.5
595.892	5287.83
601.459	5303.17
607.02	5279.5
612.575	5239.83
618.124	5225.17
623.667	5220.17
629.204	5235.17
634.735	5237.83
640.261	5336.83
645.781	5454.17
651.294	5521.5
656.802	5407.5
662.304	5265.83
667.8	5187.17
673.29	5161.5
678.775	5144.17
684.254	5128.17
689.726	5103.17
695.193	5074.5
700.655	5042.5
706.11	5016.5
711.56	5000.17
717.004	4999.17
722.442	5004.17
727.874	5013.17
733.301	5031.5
738.722	5063.83
744.137	5113.5
749.547	5202.5
754.951	5300.5
760.349	5390.83
765.741	5460.5
771.128	5563.17
776.509	5728.83
781.885	5912.83
787.254	6118.17
792.618	6390.5
797.977	6706.83
803.33	7154.17
808.677	7620.83
814.019	8006.83
819.355	8212.5
824.686	8382.83
830.011	8662.83
835.33	9184.83
840.644	10049.83
845.952	11264.5
851.255	13093.83
856.552	15930.5
861.844	20681.83
867.13	30101.83
872.41	50296.17
877.686	62824.5
882.955	62825.17
888.219	62827.17
893.478	62819.5
898.731	62825.83
903.979	62832.83
909.221	62821.17
914.458	23993.17
919.69	15245.17
924.916	12575.17
930.136	10843.17
935.351	9666.5
940.561	8854.17
945.766	8274.17
950.965	7818.5
956.158	7478.83
961.347	7226.17
966.529	7080.83
971.707	6990.83
976.879	7053.83
982.046	7211.83
987.208	7498.17
992.364	7903.83
997.515	8551.83
1002.66	9398.17
1007.801	10601.5
1012.936	12298.17
1018.066	14649.83
1023.19	17936.17
1028.309	22470.83
1033.423	28438.83
1038.532	35799.17
1043.636	45128.83
1048.734	56012.83
1053.827	61661.5
1058.915	61876.83
1063.998	58709.17
1069.075	46757.83
1074.147	40322.17
1079.214	40055.17
1084.276	44582.83
1089.333	52942.83
1094.385	61063.83
1099.431	62741.83
1104.472	61874.17
1109.509	55049.17
1114.54	40722.17
1119.565	32923.5
1124.586	28585.5
1129.602	24991.17
1134.613	21296.17
1139.618	17729.83
1144.619	14880.5
1149.614	12959.17
1154.604	11626.83
1159.589	10641.83
1164.57	9767.5
1169.545	8904.83
1174.515	8182.83
1179.48	7588.5
1184.44	7102.83
1189.395	6818.5
1194.345	6609.83
1199.29	6505.5
1204.23	6463.5
1209.165	6536.5
1214.095	6686.17
1219.021	6923.5
1223.941	7273.83
1228.856	7728.83
1233.766	8331.17
1238.672	8998.83
1243.572	9726.17
1248.467	10575.5
1253.358	11605.17
1258.244	13054.83
1263.124	15347.5
1268	19094.83
1272.871	24606.17
1277.737	30270.5
1282.599	32318.17
1287.455	29182.17
1292.306	23361.17
1297.153	18521.83
1301.995	15469.17
1306.832	13670.5
1311.664	12583.5
1316.491	11886.5
1321.314	11368.5
1326.132	10986.5
1330.945	10736.83
1335.753	10562.17
1340.556	10499.83
1345.354	10453.5
1350.148	10576.17
1354.937	10742.5
1359.722	11053.17
1364.501	11450.83
1369.276	12024.17
1374.046	12886.5
1378.811	14109.5
1383.572	15468.83
1388.327	16560.83
1393.079	17191.83
1397.825	17630.17
1402.567	18283.5
1407.304	19349.5
1412.036	20862.17
1416.764	22659.83
1421.487	24768.83
1426.205	27347.83
1430.919	30459.83
1435.628	34748.5
1440.333	40870.5
1445.032	49880.5
1449.727	60832.17
1454.418	62830.83
1459.104	62825.5
1463.785	62803.83
1468.462	62827.5
1473.134	53883.83
1477.802	43694.83
1482.465	40537.17
1487.123	39011.17
1491.777	36149.17
1496.426	31367.5
1501.071	26291.17
1505.711	22218.17
1510.347	19306.83
1514.978	17142.83
1519.604	15405.83
1524.226	13951.83
1528.844	12643.83
1533.457	11476.5
1538.065	10509.5
1542.669	9631.5
1547.269	8884.83
1551.864	8259.83
1556.454	7733.17
1561.041	7242.83
1565.622	6829.17
1570.199	6422.5
1574.772	6100.5
1579.34	5813.17
1583.904	5555.17
1588.464	5317.83
1593.019	5070.83
1597.569	4858.5
1602.115	4726.17
1606.657	4620.17
1611.195	4589.83
1615.728	4617.5
1620.256	4594.83
1624.78	4508.5
1629.3	4342.17
1633.816	4116.83
1638.327	3936.83
1642.834	3778.5
1647.336	3662.17
1651.834	3586.5
1656.328	3517.5
1660.817	3473.17
1665.302	3428.5
1669.783	3382.17
1674.259	3376.83
1678.732	3353.5
1683.199	3369.83
1687.663	3357.5
1692.122	3309.17
1696.577	3239.5
1701.028	3147.17
1705.474	3043.5
1709.917	2960.17
1714.355	2927.17
1718.788	2864.5
1723.218	2813.83
1727.643	2735.83
1732.064	2664.83
1736.481	2552.17
1740.893	2440.83
1745.301	2341.17
1749.705	2248.5
1754.105	2170.17
1758.501	2088.83
1762.893	2031.83
1767.28	1971.5
1771.663	1928.5
1776.042	1896.17
1780.417	1877.83
1784.787	1854.83
1789.154	1825.17
1793.516	1788.17
1797.874	1729.83
1802.228	1669.17
1806.578	1609.83
1810.924	1548.5
1815.266	1514.5
1819.603	1488.5
1823.937	1462.5
1828.266	1461.5
1832.591	1448.83
1836.913	1448.83
1841.23	1442.5
1845.543	1465.83
1849.852	1469.83
1854.156	1489.5
1858.457	1483.5
1862.754	1521.5
1867.047	1531.17
1871.335	1558.83
1875.62	1575.83
1879.9	1602.17
1884.177	1626.17
1888.449	1629.17
1892.718	1635.83
1896.982	1619.17
1901.243	1609.83
1905.499	1592.83
1909.752	1590.5
1914	1589.17
1918.245	1577.5
1922.485	1591.5
1926.722	1583.17
1930.954	1572.5
1935.183	1549.83
1939.408	1516.83
1943.628	1489.5
1947.845	1455.17
1952.058	1425.5
1956.267	1409.17
1960.472	1385.83
1964.673	1382.5
1968.87	1354.83
1973.063	1351.83
1977.252	1328.5
1981.438	1311.17
1985.619	1295.5
1989.797	1279.83
1993.971	1259.83
1998.14	1232.83
2002.306	1239.83
2006.469	1234.83
2010.627	1231.5
2014.781	1219.83
2018.932	1215.83
2023.078	1212.17
2027.221	1201.17
2031.36	1183.17
2035.495	1183.5
2039.627	1180.17
2043.754	1165.5
2047.878	1174.83
2051.998	1192.5
2056.114	1207.5
2060.226	1226.83
2064.334	1248.5
2068.439	1278.83
2072.54	1330.83
2076.637	1376.83
2080.73	1437.5
2084.82	1507.5
2088.906	1549.5
2092.988	1582.83
2097.066	1580.5
2101.14	1532.83
2105.211	1485.83
2109.278	1406.17
2113.342	1358.83
2117.401	1314.83
2121.457	1295.17
2125.509	1279.17
2129.558	1279.17
2133.602	1276.83
2137.643	1280.83
2141.681	1266.5
2145.714	1272.17
2149.744	1265.83
2153.77	1257.83
2157.793	1254.83
2161.812	1259.17
2165.827	1266.5
2169.838	1272.5
2173.846	1276.17
2177.851	1279.5
2181.851	1263.5
2185.848	1265.17
2189.841	1271.83
2193.831	1267.5
2197.817	1238.5
2201.799	1244.17
2205.778	1246.17
2209.753	1244.5
2213.725	1249.83
2217.693	1273.5
2221.657	1294.5
2225.618	1306.5
2229.575	1331.5
2233.529	1364.5
2237.479	1391.5
2241.425	1441.17
2245.368	1468.83
2249.307	1513.5
2253.243	1551.83
2257.175	1568.83
2261.104	1565.5
2265.029	1544.83
2268.95	1530.17
2272.868	1531.83
2276.783	1552.17
2280.694	1594.5
2284.601	1616.83
2288.505	1590.5
2292.405	1549.83
2296.302	1502.83
2300.195	1454.17
2304.085	1399.5
2307.971	1335.5
2311.854	1291.83
2315.734	1248.5
2319.609	1213.5
2323.482	1206.5
2327.351	1204.5
2331.216	1210.83
2335.078	1198.17
2338.937	1169.83
2342.792	1152.17
2346.643	1134.5
2350.492	1122.83
2354.336	1107.83
2358.178	1107.17
2362.015	1113.17
2365.85	1110.17
2369.681	1104.83
2373.508	1090.5
2377.333	1084.5
2381.153	1067.83
2384.971	1064.83
2388.785	1058.83
2392.595	1047.17
2396.402	1072.5
2400.206	1090.5
2404.007	1110.83
2407.804	1123.5
2411.597	1149.83
2415.388	1160.5
2419.174	1187.17
2422.958	1192.17
2426.738	1211.83
2430.515	1243.17
2434.289	1259.17
2438.059	1290.17
2441.825	1288.17
2445.589	1310.17
2449.349	1316.5
2453.106	1333.17
2456.859	1365.17
2460.61	1390.17
2464.356	1413.17
2468.1	1430.83
2471.84	1450.17
2475.577	1457.5
2479.311	1469.17
2483.041	1473.17
2486.768	1472.17
2490.492	1497.5
2494.213	1508.83
2497.93	1516.17
2501.644	1524.5
2505.355	1566.17
2509.062	1601.83
2512.766	1637.5
2516.467	1683.83
2520.165	1732.5
2523.859	1798.5
2527.551	1877.5
2531.239	1980.17
2534.923	2111.5
2538.605	2246.5
2542.283	2393.83
2545.958	2509.83
2549.63	2610.17
2553.299	2632.17
2556.964	2606.5
2560.626	2541.5
2564.285	2454.17
2567.941	2408.17
2571.594	2368.5
2575.243	2347.5
2578.89	2328.5
2582.533	2322.83
2586.173	2319.17
2589.809	2331.83
2593.443	2346.17
2597.073	2356.83
2600.701	2357.5
2604.325	2359.83
2607.946	2360.83
2611.564	2356.17
2615.178	2338.17
2618.79	2346.83
2622.398	2347.83
2626.004	2339.83
2629.606	2359.17
2633.205	2365.17
2636.801	2395.83
2640.394	2431.17
2643.983	2485.83
2647.57	2524.83
2651.153	2591.5
2654.734	2669.83
2658.311	2726.17
2661.885	2797.17
2665.456	2890.5
2669.025	3013.17
2672.589	3123.83
2676.151	3295.5
2679.71	3481.83
2683.266	3711.83
2686.819	3999.5
2690.368	4342.83
2693.915	4746.17
2697.458	5266.5
2700.999	5893.83
2704.536	6586.17
2708.071	7337.5
2711.602	8045.83
2715.13	8636.17
2718.656	9004.83
2722.178	9192.17
2725.697	9201.5
2729.214	9070.17
2732.727	8803.83
2736.237	8542.17
2739.744	8381.83
2743.249	8390.17
2746.75	8483.83
2750.248	8637.5
2753.743	8703.17
2757.236	8603.5
2760.725	8363.5
2764.211	8003.83
2767.695	7660.5
2771.175	7385.5
2774.652	7216.17
2778.127	7148.83
2781.598	7164.5
2785.067	7304.17
2788.532	7509.5
2791.995	7805.83
2795.455	8196.5
2798.911	8643.5
2802.365	9182.17
2805.816	9826.5
2809.264	10559.5
2812.709	11414.5
2816.151	12385.83
2819.59	13526.5
2823.026	14834.17
2826.46	16360.5
2829.89	18052.83
2833.318	19767.83
2836.742	21392.17
2840.164	22775.17
2843.583	23981.17
2846.999	25162.83
2850.412	26550.83
2853.822	28291.5
2857.229	30543.17
2860.634	33255.17
2864.035	36743.17
2867.434	41186.83
2870.83	46388.83
2874.223	52126.17
2877.613	57234.17
2881	60260.83
2884.385	60626.17
2887.766	60461.17
2891.145	59669.17
2894.521	57688.5
2897.894	55416.5
2901.264	53414.5
2904.631	51676.17
2907.996	50522.83
2911.358	50235.5
2914.717	51177.17
2918.073	53520.83
2921.426	57568.83
2924.777	61147.83
2928.124	62813.83
2931.469	62832.5
2934.811	62796.83
2938.15	62825.5
2941.487	61937.17
2944.821	59166.5
2948.152	50745.83
2951.48	44880.17
2954.805	40332.83
2958.128	37199.83
2961.447	35302.83
2964.765	34624.17
2968.079	35002.5
2971.39	35838.5
2974.699	36515.17
2978.005	36224.17
2981.308	34647.17
2984.609	31856.83
2987.907	28315.5
2991.202	24785.17
2994.494	21588.17
2997.784	18830.17
3001.07	16615.5
3004.355	14734.5
3007.636	13155.17
3010.915	11805.83
3014.191	10616.5
3017.464	9656.17
3020.734	8779.83
3024.002	8030.17
3027.267	7380.83
3030.53	6809.83
3033.789	6315.17
3037.046	5866.5
3040.301	5497.17
3043.552	5149.83
3046.801	4845.5
3050.048	4579.83
3053.291	4328.83
3056.532	4110.5
3059.771	3929.17
3063.006	3745.17
3066.239	3577.5
3069.469	3425.17
3072.697	3284.17
3075.922	3138.5
3079.144	3001.83
3082.364	2880.5
3085.581	2760.5
3088.795	2647.17
3092.007	2555.17
3095.216	2450.83
3098.423	2366.83
3101.627	2291.17
3104.828	2231.17
3108.026	2163.83
3111.222	2099.17
3114.416	2059.5
3117.607	2011.5
3120.795	1968.83
3123.98	1934.17
3127.163	1909.17
3130.344	1881.17
3133.521	1861.83
3136.696	1843.5
3139.869	1823.5
3143.039	1820.83
3146.206	1792.83
3149.371	1772.83
3152.533	1755.5
3155.693	1730.17
3158.85	1722.83
3162.005	1714.17
3165.157	1701.83
3168.306	1684.17
3171.453	1660.83
3174.597	1664.83
3177.739	1657.83
3180.878	1654.83
3184.014	1660.83
3187.149	1653.83
3190.28	1650.5
3193.409	1652.5
3196.536	1662.17
3199.659	1674.17
3202.781	1686.83
3205.9	1700.83
3209.016	1701.17
3212.13	1709.83
3215.241	1703.17
3218.35	1704.17
3221.456	1694.17
3224.56	1692.17
3227.661	1691.83
3230.76	1684.83
3233.856	1684.17
3236.95	1672.17
3240.041	1673.5
3243.13	1667.83
3246.216	1667.17
3249.3	1657.5
3252.382	1653.5
3255.46	1648.83
3258.537	1646.83
3261.611	1633.83
3264.682	1620.17
3267.751	1631.83
3270.818	1620.83
3273.882	1601.17
3276.943	1592.83
3280.002	1572.5
3283.059	1562.17
3286.113	1530.83
3289.165	1515.5
3292.214	1483.83
3295.261	1473.17
3298.306	1448.83
3301.348	1411.83
3304.387	1400.17
3307.425	1372.83
3310.459	1353.83
3313.492	1340.5
3316.521	1317.83
3319.549	1305.83
3322.574	1290.5
3325.597	1285.83
3328.617	1270.83
3331.635	1257.17
3334.65	1258.5
3337.663	1257.5
3340.674	1239.17
3343.682	1237.5
3346.688	1223.83
3349.691	1216.5
3352.692	1206.83
3355.691	1190.83
3358.687	1172.5
3361.681	1167.5
3364.673	1147.17
3367.662	1133.17
3370.649	1111.83
3373.633	1090.17
3376.615	1070.17
3379.595	1046.5
3382.572	1017.5
3385.547	995.83
3388.52	985.5
3391.49	966.5
3394.458	949.17
3397.424	935.83
3400.387	914.83
3403.348	893.83
3406.307	881.5
3409.263	866.5
3412.217	848.83
3415.168	843.17
3418.118	819.83
3421.065	803.17
3424.009	785.5
3426.951	769.17
3429.891	750.5
3432.829	727.5
3435.764	708.5
3438.697	678.5
3441.628	649.5
3444.557	632.83
3447.483	603.17
3450.407	579.17
3453.328	552.83
3456.247	524.83
3459.164	508.83
3462.079	473.17
3464.991	468.5
3467.902	441.17
3470.809	421.5
3473.715	401.17
3476.618	379.5
3479.519	361.83
3482.418	350.17
3485.315	331.5
3488.209	314.83
3491.101	298.5
3493.99	289.5
3496.878	269.5
3499.763	257.5
3502.646	238.5
3505.527	225.17
3508.405	209.5
3511.281	191.17
3514.155	173.5
3517.027	161.17
3519.897	141.83
3522.764	126.5
3525.629	114.17
3528.492	97.83
3531.352	84.17
3534.211	65.5
3537.067	57.17
3539.921	47.83
3542.773	32.83
3545.622	18.17
3548.469	14.17
3551.315	4.5
3554.157	-10.5
3556.998	-15.5
3559.837	-25.83
3562.673	-33.5
3565.507	-44.83
3568.339	-54.17
3571.169	-59.5
3573.996	-70.17
3576.822	-71.5
3579.645	-80.17
3582.466	-90.5
3585.285	-95.17
3588.101	-105.83
3590.916	-105.5
3593.728	-110.83
3596.538	-116.83
3599.346	-121.5
3602.152	-124.83
3604.956	-128.83
3607.757	-135.17
3610.556	-144.83
3613.354	-148.17
3616.149	-150.83
3618.942	-160.83
3621.732	-159.17
3624.521	-162.17
3627.307	-164.5
3630.092	-169.83
3632.874	-170.83
3635.654	-174.5
3638.432	-174.83
3641.208	-177.17
3643.982	-179.17
3646.753	-185.17
3649.523	-182.83
3652.29	-187.83
3655.055	-189.83
3657.818	-192.5
3660.579	-195.83
3663.338	-198.17
3666.095	-199.17
3668.849	-200.17
3671.602	-200.5
3674.352	-200.83
3677.101	-204.83
3679.847	-207.83
3682.591	-212.5
3685.333	-209.83
3688.073	-210.5
3690.811	-214.83
3693.547	-212.83
3696.281	-212.83
3699.013	-215.17
3701.742	-217.83
3704.47	-217.17
3707.195	-215.83
3709.919	-216.5
3712.64	-224.83
3715.359	-218.83
3718.076	-219.5
3720.792	-224.17
3723.505	-225.83
3726.216	-227.17
3728.925	-224.83
3731.632	-226.83
3734.336	-224.5
3737.039	-226.5
3739.74	-226.83
3742.439	-228.83
3745.136	-230.5
3747.83	-227.83
3750.523	-232.5
3753.213	-227.17
3755.902	-231.5
3758.589	-233.17
3761.273	-229.83
3763.956	-228.5
3766.636	-231.83
3769.315	-230.17
3771.991	-232.17
3774.665	-230.5
3777.338	-234.5
3780.008	-236.5
3782.677	-237.17
3785.343	-230.83
3788.007	-235.83
3790.67	-236.83
3793.33	-229.17
3795.989	-235.17
3798.645	-235.5
3801.299	-239.5
3803.952	-239.5
3806.602	-237.5
3809.251	-239.17
3811.897	-238.83
3814.542	-237.5
3817.184	-240.5
3819.825	-239.17
3822.463	-237.5
3825.1	-239.83
3827.735	-240.5
3830.367	-241.5
3832.998	-242.17
3835.627	-242.17
3838.253	-241.83
3840.878	-242.83
3843.501	-243.5
3846.122	-242.17
3848.741	-243.5
3851.358	-246.17
3853.973	-245.83
3856.586	-243.17
3859.197	-244.17
3861.806	-240.5
3864.414	-240.5
3867.019	-241.17
3869.622	-238.83
3872.224	-228.5
3874.823	-219.5
3877.421	-200.17
3880.016	-177.5
3882.61	-159.17
3885.202	-160.5
3887.792	-185.83
3890.38	-213.17
3892.966	-231.83
3895.55	-238.5
3898.132	-244.17
3900.713	-248.5
3903.291	-247.5
3905.868	-247.83
3908.442	-251.17
3911.015	-249.17
3913.586	-250.17
3916.155	-250.83
3918.722	-248.5
3921.287	-251.5
3923.85	-249.5
3926.411	-253.83
3928.971	-254.83
3931.528	-252.17
3934.084	-251.83
3936.638	-253.17
3939.19	-254.17
3941.74	-250.83
3944.288	-255.17
3946.834	-250.83
3949.378	-253.17
3951.921	-252.83
3954.462	-250.5
3957	-248.5
3959.537	-247.5
3962.072	-247.83
3964.606	-248.17
3967.137	-245.83
3969.667	-250.5
3972.194	-250.83
3974.72	-250.17
3977.244	-245.83
3979.766	-247.17
3982.286	-245.83
3984.805	-248.5
3987.321	-249.17
3989.836	-246.83
3992.349	-244.83
3994.86	-247.17
3997.369	-244.5
3999.877	-244.83
4002.382	-243.17
4004.886	-249.17
4007.388	-248.17
4009.888	-246.5
4012.386	-240.17
4014.883	-247.17
4017.377	-246.17
4019.87	-248.17
4022.361	-244.5
4024.85	-247.5
4027.338	-244.83
4029.823	-246.17
4032.307	-250.5
4034.789	-245.83
4037.269	-247.17
4039.747	-253.17
4042.224	-243.83
4044.699	-250.83
4047.172	-249.83
4049.643	-251.17
4052.112	-250.17
4054.58	-251.83
4057.046	-247.83
4059.51	-252.5
4061.972	-248.5
4064.432	-249.83
4066.891	-251.83
4069.348	-246.83
4071.803	-247.83
4074.256	-246.17
4076.708	-243.83
4079.158	-243.83
4081.606	-244.17
4084.052	-242.5
4086.497	-241.83
4088.939	-236.17
4091.38	-237.83
4093.819	-238.83
4096.257	-280.17
4098.693	-279.83
4101.127	-277.83
4103.559	-275.83
4105.989	-109.83
4108.418	-105.17
4110.845	-98.83
4113.27	-82.5
4115.694	-69.5
4118.115	-57.5
4120.535	-237.83
4122.954	-242.5
4125.37	-237.83
4127.785	-240.5
4130.198	-246.17
4132.609	-370.5
4135.019	-278.17
4137.427	-278.5
4139.833	-276.83
4142.237	-280.5
