Data from Bacilus_dil11_A3_RamanShift_1.txt Node
Date: Wed Mar 01 12:33:37 IST 2017
User: aro
Spectrometer: QEPB0276
Trigger mode: 0
Integration Time (sec): 5.000000E0
Scans to average: 1
Electric dark correction enabled: true
Nonlinearity correction enabled: false
Boxcar width: 0
XAxis mode: Raman Shifts
Number of Pixels in Spectrum: 1044
>>>>>Begin Spectral Data<<<<<
160.701	-27.25
166.742	-3.25
172.777	79.75
178.805	318.75
184.826	903.75
190.841	1870.75
196.849	2931.75
202.85	3632.75
208.845	3776.75
214.833	3647.75
220.815	3481.75
226.789	3394.75
232.758	3310.75
238.719	3181.75
244.674	3066.75
250.623	2893.75
256.565	2758.75
262.5	2605.75
268.429	2485.75
274.351	2366.75
280.267	2256.75
286.176	2182.75
292.079	2090.75
297.975	2026.75
303.865	1945.75
309.748	1900.75
315.625	1858.75
321.495	1826.75
327.359	1806.75
333.217	1770.75
339.068	1748.75
344.912	1763.75
350.751	1753.75
356.583	1743.75
362.408	1746.75
368.227	1753.75
374.04	1749.75
379.847	1767.75
385.647	1756.75
391.44	1777.75
397.228	1785.75
403.009	1797.75
408.784	1791.75
414.553	1809.75
420.315	1796.75
426.071	1823.75
431.821	1800.75
437.565	1801.75
443.302	1796.75
449.033	1793.75
454.758	1776.75
460.477	1777.75
466.189	1739.75
471.896	1748.75
477.596	1735.75
483.29	1722.75
488.978	1708.75
494.66	1694.75
500.335	1686.75
506.005	1625.75
511.668	1612.75
517.325	1579.75
522.977	1544.75
528.622	1526.75
534.261	1512.75
539.894	1481.75
545.521	1473.75
551.141	1453.75
556.756	1434.75
562.365	1418.75
567.968	1400.75
573.565	1387.75
579.155	1385.75
584.74	1370.75
590.319	1367.75
595.892	1361.75
601.459	1341.75
607.02	1344.75
612.575	1326.75
618.124	1307.75
623.667	1292.75
629.204	1270.75
634.735	1273.75
640.261	1243.75
645.781	1242.75
651.294	1238.75
656.802	1233.75
662.304	1190.75
667.8	1194.75
673.29	1196.75
678.775	1190.75
684.254	1179.75
689.726	1184.75
695.193	1177.75
700.655	1180.75
706.11	1158.75
711.56	1150.75
717.004	1150.75
722.442	1128.75
727.874	1121.75
733.301	1110.75
738.722	1112.75
744.137	1094.75
749.547	1090.75
754.951	1079.75
760.349	1082.75
765.741	1075.75
771.128	1064.75
776.509	1078.75
781.885	1087.75
787.254	1073.75
792.618	1079.75
797.977	1061.75
803.33	1061.75
808.677	1044.75
814.019	1024.75
819.355	1015.75
824.686	993.75
830.011	982.75
835.33	978.75
840.644	962.75
845.952	951.75
851.255	943.75
856.552	935.75
861.844	928.75
867.13	920.75
872.41	916.75
877.686	897.75
882.955	897.75
888.219	891.75
893.478	840.75
898.731	853.75
903.979	830.75
909.221	822.75
914.458	800.75
919.69	795.75
924.916	797.75
930.136	780.75
935.351	774.75
940.561	778.75
945.766	778.75
950.965	757.75
956.158	760.75
961.347	750.75
966.529	745.75
971.707	716.75
976.879	721.75
982.046	715.75
987.208	704.75
992.364	697.75
997.515	691.75
1002.66	694.75
1007.801	692.75
1012.936	705.75
1018.066	703.75
1023.19	704.75
1028.309	724.75
1033.423	712.75
1038.532	711.75
1043.636	701.75
1048.734	700.75
1053.827	701.75
1058.915	684.75
1063.998	671.75
1069.075	673.75
1074.147	676.75
1079.214	670.75
1084.276	669.75
1089.333	679.75
1094.385	665.75
1099.431	692.75
1104.472	689.75
1109.509	687.75
1114.54	677.75
1119.565	663.75
1124.586	651.75
1129.602	650.75
1134.613	655.75
1139.618	629.75
1144.619	639.75
1149.614	645.75
1154.604	641.75
1159.589	646.75
1164.57	636.75
1169.545	645.75
1174.515	637.75
1179.48	654.75
1184.44	646.75
1189.395	638.75
1194.345	640.75
1199.29	637.75
1204.23	622.75
1209.165	642.75
1214.095	638.75
1219.021	633.75
1223.941	636.75
1228.856	631.75
1233.766	638.75
1238.672	641.75
1243.572	629.75
1248.467	633.75
1253.358	634.75
1258.244	632.75
1263.124	617.75
1268	604.75
1272.871	594.75
1277.737	582.75
1282.599	581.75
1287.455	581.75
1292.306	591.75
1297.153	581.75
1301.995	585.75
1306.832	598.75
1311.664	591.75
1316.491	593.75
1321.314	596.75
1326.132	572.75
1330.945	568.75
1335.753	550.75
1340.556	548.75
1345.354	542.75
1350.148	521.75
1354.937	523.75
1359.722	521.75
1364.501	520.75
1369.276	534.75
1374.046	538.75
1378.811	541.75
1383.572	541.75
1388.327	548.75
1393.079	543.75
1397.825	528.75
1402.567	525.75
1407.304	515.75
1412.036	512.75
1416.764	507.75
1421.487	503.75
1426.205	497.75
1430.919	500.75
1435.628	499.75
1440.333	501.75
1445.032	512.75
1449.727	506.75
1454.418	510.75
1459.104	517.75
1463.785	508.75
1468.462	503.75
1473.134	503.75
1477.802	497.75
1482.465	484.75
1487.123	485.75
1491.777	503.75
1496.426	505.75
1501.071	501.75
1505.711	514.75
1510.347	531.75
1514.978	527.75
1519.604	540.75
1524.226	550.75
1528.844	558.75
1533.457	543.75
1538.065	552.75
1542.669	564.75
1547.269	560.75
1551.864	567.75
1556.454	585.75
1561.041	567.75
1565.622	586.75
1570.199	589.75
1574.772	603.75
1579.34	621.75
1583.904	633.75
1588.464	638.75
1593.019	664.75
1597.569	680.75
1602.115	711.75
1606.657	701.75
1611.195	722.75
1615.728	734.75
1620.256	746.75
1624.78	760.75
1629.3	772.75
1633.816	781.75
1638.327	794.75
1642.834	815.75
1647.336	814.75
1651.834	816.75
1656.328	811.75
1660.817	806.75
1665.302	784.75
1669.783	763.75
1674.259	745.75
1678.732	709.75
1683.199	676.75
1687.663	640.75
1692.122	591.75
1696.577	577.75
1701.028	554.75
1705.474	540.75
1709.917	527.75
1714.355	510.75
1718.788	477.75
1723.218	459.75
1727.643	433.75
1732.064	419.75
1736.481	397.75
1740.893	382.75
1745.301	363.75
1749.705	350.75
1754.105	321.75
1758.501	325.75
1762.893	298.75
1767.28	285.75
1771.663	295.75
1776.042	281.75
1780.417	278.75
1784.787	277.75
1789.154	281.75
1793.516	272.75
1797.874	287.75
1802.228	285.75
1806.578	279.75
1810.924	276.75
1815.266	279.75
1819.603	269.75
1823.937	260.75
1828.266	245.75
1832.591	241.75
1836.913	245.75
1841.23	233.75
1845.543	240.75
1849.852	239.75
1854.156	237.75
1858.457	239.75
1862.754	237.75
1867.047	233.75
1871.335	228.75
1875.62	224.75
1879.9	235.75
1884.177	233.75
1888.449	238.75
1892.718	235.75
1896.982	223.75
1901.243	235.75
1905.499	230.75
1909.752	226.75
1914	229.75
1918.245	230.75
1922.485	240.75
1926.722	232.75
1930.954	244.75
1935.183	252.75
1939.408	248.75
1943.628	260.75
1947.845	248.75
1952.058	252.75
1956.267	250.75
1960.472	246.75
1964.673	256.75
1968.87	244.75
1973.063	247.75
1977.252	234.75
1981.438	235.75
1985.619	245.75
1989.797	235.75
1993.971	239.75
1998.14	241.75
2002.306	233.75
2006.469	236.75
2010.627	244.75
2014.781	233.75
2018.932	238.75
2023.078	242.75
2027.221	241.75
2031.36	239.75
2035.495	247.75
2039.627	231.75
2043.754	236.75
2047.878	236.75
2051.998	235.75
2056.114	237.75
2060.226	235.75
2064.334	251.75
2068.439	249.75
2072.54	240.75
2076.637	253.75
2080.73	243.75
2084.82	252.75
2088.906	259.75
2092.988	261.75
2097.066	259.75
2101.14	264.75
2105.211	255.75
2109.278	261.75
2113.342	252.75
2117.401	253.75
2121.457	254.75
2125.509	252.75
2129.558	247.75
2133.602	252.75
2137.643	243.75
2141.681	244.75
2145.714	235.75
2149.744	237.75
2153.77	233.75
2157.793	231.75
2161.812	226.75
2165.827	231.75
2169.838	224.75
2173.846	224.75
2177.851	212.75
2181.851	209.75
2185.848	202.75
2189.841	201.75
2193.831	183.75
2197.817	194.75
2201.799	193.75
2205.778	195.75
2209.753	186.75
2213.725	178.75
2217.693	185.75
2221.657	174.75
2225.618	176.75
2229.575	173.75
2233.529	176.75
2237.479	174.75
2241.425	173.75
2245.368	165.75
2249.307	164.75
2253.243	159.75
2257.175	158.75
2261.104	153.75
2265.029	143.75
2268.95	139.75
2272.868	138.75
2276.783	141.75
2280.694	136.75
2284.601	136.75
2288.505	126.75
2292.405	122.75
2296.302	121.75
2300.195	120.75
2304.085	115.75
2307.971	110.75
2311.854	113.75
2315.734	114.75
2319.609	102.75
2323.482	106.75
2327.351	95.75
2331.216	104.75
2335.078	95.75
2338.937	98.75
2342.792	87.75
2346.643	87.75
2350.492	92.75
2354.336	87.75
2358.178	86.75
2362.015	88.75
2365.85	88.75
2369.681	89.75
2373.508	83.75
2377.333	86.75
2381.153	91.75
2384.971	89.75
2388.785	84.75
2392.595	81.75
2396.402	77.75
2400.206	84.75
2404.007	75.75
2407.804	78.75
2411.597	73.75
2415.388	81.75
2419.174	76.75
2422.958	74.75
2426.738	79.75
2430.515	76.75
2434.289	74.75
2438.059	71.75
2441.825	65.75
2445.589	66.75
2449.349	67.75
2453.106	58.75
2456.859	64.75
2460.61	63.75
2464.356	58.75
2468.1	65.75
2471.84	63.75
2475.577	58.75
2479.311	57.75
2483.041	61.75
2486.768	69.75
2490.492	60.75
2494.213	52.75
2497.93	59.75
2501.644	52.75
2505.355	62.75
2509.062	55.75
2512.766	52.75
2516.467	52.75
2520.165	47.75
2523.859	50.75
2527.551	50.75
2531.239	51.75
2534.923	57.75
2538.605	50.75
2542.283	42.75
2545.958	53.75
2549.63	49.75
2553.299	47.75
2556.964	46.75
2560.626	52.75
2564.285	50.75
2567.941	41.75
2571.594	45.75
2575.243	44.75
2578.89	37.75
2582.533	47.75
2586.173	40.75
2589.809	40.75
2593.443	40.75
2597.073	41.75
2600.701	36.75
2604.325	37.75
2607.946	35.75
2611.564	36.75
2615.178	32.75
2618.79	33.75
2622.398	42.75
2626.004	34.75
2629.606	33.75
2633.205	36.75
2636.801	32.75
2640.394	31.75
2643.983	28.75
2647.57	30.75
2651.153	29.75
2654.734	27.75
2658.311	36.75
2661.885	23.75
2665.456	27.75
2669.025	27.75
2672.589	28.75
2676.151	24.75
2679.71	28.75
2683.266	22.75
2686.819	28.75
2690.368	26.75
2693.915	26.75
2697.458	18.75
2700.999	20.75
2704.536	21.75
2708.071	14.75
2711.602	14.75
2715.13	21.75
2718.656	17.75
2722.178	25.75
2725.697	20.75
2729.214	24.75
2732.727	21.75
2736.237	13.75
2739.744	22.75
2743.249	28.75
2746.75	25.75
2750.248	30.75
2753.743	30.75
2757.236	30.75
2760.725	28.75
2764.211	30.75
2767.695	33.75
2771.175	39.75
2774.652	33.75
2778.127	31.75
2781.598	30.75
2785.067	32.75
2788.532	36.75
2791.995	36.75
2795.455	42.75
2798.911	42.75
2802.365	39.75
2805.816	51.75
2809.264	41.75
2812.709	42.75
2816.151	44.75
2819.59	43.75
2823.026	48.75
2826.46	49.75
2829.89	52.75
2833.318	62.75
2836.742	59.75
2840.164	52.75
2843.583	60.75
2846.999	59.75
2850.412	58.75
2853.822	65.75
2857.229	66.75
2860.634	77.75
2864.035	80.75
2867.434	87.75
2870.83	87.75
2874.223	81.75
2877.613	88.75
2881	86.75
2884.385	93.75
2887.766	94.75
2891.145	99.75
2894.521	99.75
2897.894	102.75
2901.264	99.75
2904.631	106.75
2907.996	107.75
2911.358	108.75
2914.717	113.75
2918.073	123.75
2921.426	119.75
2924.777	120.75
2928.124	126.75
2931.469	141.75
2934.811	142.75
2938.15	142.75
2941.487	164.75
2944.821	152.75
2948.152	166.75
2951.48	167.75
2954.805	171.75
2958.128	176.75
2961.447	192.75
2964.765	188.75
2968.079	199.75
2971.39	200.75
2974.699	221.75
2978.005	220.75
2981.308	220.75
2984.609	241.75
2987.907	255.75
2991.202	262.75
2994.494	277.75
2997.784	284.75
3001.07	299.75
3004.355	307.75
3007.636	315.75
3010.915	331.75
3014.191	340.75
3017.464	345.75
3020.734	367.75
3024.002	360.75
3027.267	367.75
3030.53	390.75
3033.789	398.75
3037.046	404.75
3040.301	421.75
3043.552	427.75
3046.801	440.75
3050.048	454.75
3053.291	469.75
3056.532	488.75
3059.771	518.75
3063.006	518.75
3066.239	539.75
3069.469	560.75
3072.697	578.75
3075.922	606.75
3079.144	616.75
3082.364	641.75
3085.581	658.75
3088.795	678.75
3092.007	700.75
3095.216	706.75
3098.423	728.75
3101.627	744.75
3104.828	774.75
3108.026	797.75
3111.222	803.75
3114.416	843.75
3117.607	849.75
3120.795	863.75
3123.98	900.75
3127.163	931.75
3130.344	940.75
3133.521	972.75
3136.696	986.75
3139.869	1000.75
3143.039	1026.75
3146.206	1038.75
3149.371	1071.75
3152.533	1083.75
3155.693	1107.75
3158.85	1090.75
3162.005	1108.75
3165.157	1108.75
3168.306	1107.75
3171.453	1130.75
3174.597	1126.75
3177.739	1129.75
3180.878	1133.75
3184.014	1149.75
3187.149	1149.75
3190.28	1169.75
3193.409	1154.75
3196.536	1152.75
3199.659	1153.75
3202.781	1156.75
3205.9	1192.75
3209.016	1180.75
3212.13	1175.75
3215.241	1171.75
3218.35	1170.75
3221.456	1189.75
3224.56	1167.75
3227.661	1154.75
3230.76	1148.75
3233.856	1130.75
3236.95	1119.75
3240.041	1126.75
3243.13	1113.75
3246.216	1112.75
3249.3	1096.75
3252.382	1108.75
3255.46	1103.75
3258.537	1090.75
3261.611	1072.75
3264.682	1073.75
3267.751	1060.75
3270.818	1057.75
3273.882	1065.75
3276.943	1043.75
3280.002	1048.75
3283.059	1036.75
3286.113	1014.75
3289.165	1010.75
3292.214	997.75
3295.261	974.75
3298.306	968.75
3301.348	953.75
3304.387	939.75
3307.425	921.75
3310.459	915.75
3313.492	904.75
3316.521	895.75
3319.549	882.75
3322.574	866.75
3325.597	866.75
3328.617	866.75
3331.635	840.75
3334.65	837.75
3337.663	837.75
3340.674	840.75
3343.682	821.75
3346.688	827.75
3349.691	833.75
3352.692	837.75
3355.691	832.75
3358.687	809.75
3361.681	807.75
3364.673	799.75
3367.662	795.75
3370.649	775.75
3373.633	778.75
3376.615	764.75
3379.595	758.75
3382.572	738.75
3385.547	728.75
3388.52	724.75
3391.49	727.75
3394.458	707.75
3397.424	690.75
3400.387	702.75
3403.348	674.75
3406.307	673.75
3409.263	675.75
3412.217	670.75
3415.168	650.75
3418.118	647.75
3421.065	638.75
3424.009	641.75
3426.951	626.75
3429.891	611.75
3432.829	616.75
3435.764	618.75
3438.697	588.75
3441.628	577.75
3444.557	575.75
3447.483	544.75
3450.407	538.75
3453.328	520.75
3456.247	514.75
3459.164	503.75
3462.079	476.75
3464.991	465.75
3467.902	458.75
3470.809	447.75
3473.715	425.75
3476.618	412.75
3479.519	405.75
3482.418	391.75
3485.315	380.75
3488.209	364.75
3491.101	353.75
3493.99	350.75
3496.878	335.75
3499.763	332.75
3502.646	316.75
3505.527	319.75
3508.405	293.75
3511.281	290.75
3514.155	286.75
3517.027	270.75
3519.897	260.75
3522.764	242.75
3525.629	231.75
3528.492	228.75
3531.352	206.75
3534.211	199.75
3537.067	196.75
3539.921	182.75
3542.773	167.75
3545.622	166.75
3548.469	158.75
3551.315	144.75
3554.157	135.75
3556.998	127.75
3559.837	124.75
3562.673	118.75
3565.507	121.75
3568.339	113.75
3571.169	101.75
3573.996	99.75
3576.822	79.75
3579.645	79.75
3582.466	79.75
3585.285	63.75
3588.101	61.75
3590.916	62.75
3593.728	56.75
3596.538	51.75
3599.346	45.75
3602.152	39.75
3604.956	32.75
3607.757	26.75
3610.556	29.75
3613.354	17.75
3616.149	19.75
3618.942	15.75
3621.732	19.75
3624.521	11.75
3627.307	3.75
3630.092	4.75
3632.874	-4.25
3635.654	-9.25
3638.432	-9.25
3641.208	-11.25
3643.982	-12.25
3646.753	-12.25
3649.523	-14.25
3652.29	-18.25
3655.055	-24.25
3657.818	-28.25
3660.579	-28.25
3663.338	-31.25
3666.095	-34.25
3668.849	-36.25
3671.602	-40.25
3674.352	-32.25
3677.101	-39.25
3679.847	-45.25
3682.591	-47.25
3685.333	-45.25
3688.073	-50.25
3690.811	-51.25
3693.547	-56.25
3696.281	-55.25
3699.013	-56.25
3701.742	-58.25
3704.47	-56.25
3707.195	-62.25
3709.919	-60.25
3712.64	-58.25
3715.359	-64.25
3718.076	-63.25
3720.792	-68.25
3723.505	-68.25
3726.216	-63.25
3728.925	-68.25
3731.632	-71.25
3734.336	-73.25
3737.039	-71.25
3739.74	-68.25
3742.439	-69.25
3745.136	-72.25
3747.83	-70.25
3750.523	-75.25
3753.213	-73.25
3755.902	-79.25
3758.589	-81.25
3761.273	-76.25
3763.956	-74.25
3766.636	-74.25
3769.315	-76.25
3771.991	-77.25
3774.665	-77.25
3777.338	-80.25
3780.008	-77.25
3782.677	-83.25
3785.343	-81.25
3788.007	-80.25
3790.67	-75.25
3793.33	-73.25
3795.989	-73.25
3798.645	-76.25
3801.299	-82.25
3803.952	-80.25
3806.602	-86.25
3809.251	-80.25
3811.897	-81.25
3814.542	-84.25
3817.184	-82.25
3819.825	-76.25
3822.463	-75.25
3825.1	-79.25
3827.735	-82.25
3830.367	-87.25
3832.998	-91.25
3835.627	-87.25
3838.253	-86.25
3840.878	-82.25
3843.501	-82.25
3846.122	-83.25
3848.741	-80.25
3851.358	-82.25
3853.973	-81.25
3856.586	-83.25
3859.197	-87.25
3861.806	-85.25
3864.414	-86.25
3867.019	-84.25
3869.622	-87.25
3872.224	-82.25
3874.823	-79.25
3877.421	-80.25
3880.016	-70.25
3882.61	-76.25
3885.202	-73.25
3887.792	-76.25
3890.38	-82.25
3892.966	-84.25
3895.55	-80.25
3898.132	-78.25
3900.713	-87.25
3903.291	-85.25
3905.868	-85.25
3908.442	-86.25
3911.015	-84.25
3913.586	-89.25
3916.155	-88.25
3918.722	-89.25
3921.287	-86.25
3923.85	-87.25
3926.411	-88.25
3928.971	-88.25
3931.528	-83.25
3934.084	-83.25
3936.638	-84.25
3939.19	-89.25
3941.74	-79.25
3944.288	-85.25
3946.834	-86.25
3949.378	-91.25
3951.921	-89.25
3954.462	-88.25
3957	-92.25
3959.537	-85.25
3962.072	-87.25
3964.606	-85.25
3967.137	-87.25
3969.667	-85.25
3972.194	-83.25
3974.72	-83.25
3977.244	-91.25
3979.766	-90.25
3982.286	-86.25
3984.805	-85.25
3987.321	-85.25
3989.836	-83.25
3992.349	-83.25
3994.86	-81.25
3997.369	-86.25
3999.877	-83.25
4002.382	-86.25
4004.886	-87.25
4007.388	-91.25
4009.888	-88.25
4012.386	-87.25
4014.883	-87.25
4017.377	-81.25
4019.87	-85.25
4022.361	-85.25
4024.85	-85.25
4027.338	-90.25
4029.823	-88.25
4032.307	-88.25
4034.789	-88.25
4037.269	-83.25
4039.747	-85.25
4042.224	-84.25
4044.699	-80.25
4047.172	-88.25
4049.643	-86.25
4052.112	-90.25
4054.58	-92.25
4057.046	-92.25
4059.51	-85.25
4061.972	-85.25
4064.432	-85.25
4066.891	-84.25
4069.348	-91.25
4071.803	-87.25
4074.256	-90.25
4076.708	-92.25
4079.158	-89.25
4081.606	-89.25
4084.052	-88.25
4086.497	-91.25
4088.939	-85.25
4091.38	-83.25
4093.819	-85.25
4096.257	-94.25
4098.693	-90.25
4101.127	-94.25
4103.559	-94.25
4105.989	-57.25
4108.418	-55.25
4110.845	-46.25
4113.27	-49.25
4115.694	-38.25
4118.115	-34.25
4120.535	-86.25
4122.954	-87.25
4125.37	-89.25
4127.785	-86.25
4130.198	-87.25
4132.609	-92.25
4135.019	-91.25
4137.427	-91.25
4139.833	-92.25
4142.237	-93.25
