Data from Bacilus_0CFU3_RamanShift_1.txt Node
Date: Wed Mar 01 11:51:17 IST 2017
User: aro
Spectrometer: QEPB0276
Trigger mode: 0
Integration Time (sec): 5.000000E0
Scans to average: 1
Electric dark correction enabled: true
Nonlinearity correction enabled: false
Boxcar width: 0
XAxis mode: Raman Shifts
Number of Pixels in Spectrum: 1044
>>>>>Begin Spectral Data<<<<<
160.701	-27.5
166.742	-5.5
172.777	84.5
178.805	355.5
184.826	997.5
190.841	2072.5
196.849	3218.5
202.85	3982.5
208.845	4157.5
214.833	4026.5
220.815	3907.5
226.789	3812.5
232.758	3692.5
238.719	3583.5
244.674	3454.5
250.623	3317.5
256.565	3181.5
262.5	3047.5
268.429	2923.5
274.351	2781.5
280.267	2726.5
286.176	2621.5
292.079	2535.5
297.975	2465.5
303.865	2382.5
309.748	2334.5
315.625	2302.5
321.495	2244.5
327.359	2208.5
333.217	2198.5
339.068	2184.5
344.912	2165.5
350.751	2154.5
356.583	2135.5
362.408	2150.5
368.227	2165.5
374.04	2162.5
379.847	2180.5
385.647	2182.5
391.44	2188.5
397.228	2200.5
403.009	2232.5
408.784	2227.5
414.553	2253.5
420.315	2258.5
426.071	2237.5
431.821	2241.5
437.565	2237.5
443.302	2227.5
449.033	2237.5
454.758	2225.5
460.477	2196.5
466.189	2198.5
471.896	2189.5
477.596	2187.5
483.29	2185.5
488.978	2170.5
494.66	2155.5
500.335	2132.5
506.005	2115.5
511.668	2064.5
517.325	2021.5
522.977	2000.5
528.622	1976.5
534.261	1947.5
539.894	1933.5
545.521	1925.5
551.141	1918.5
556.756	1889.5
562.365	1889.5
567.968	1876.5
573.565	1854.5
579.155	1835.5
584.74	1833.5
590.319	1823.5
595.892	1815.5
601.459	1809.5
607.02	1800.5
612.575	1778.5
618.124	1783.5
623.667	1755.5
629.204	1743.5
634.735	1724.5
640.261	1691.5
645.781	1712.5
651.294	1690.5
656.802	1686.5
662.304	1693.5
667.8	1664.5
673.29	1659.5
678.775	1671.5
684.254	1663.5
689.726	1640.5
695.193	1638.5
700.655	1649.5
706.11	1637.5
711.56	1628.5
717.004	1610.5
722.442	1607.5
727.874	1578.5
733.301	1570.5
738.722	1566.5
744.137	1574.5
749.547	1560.5
754.951	1555.5
760.349	1582.5
765.741	1553.5
771.128	1563.5
776.509	1551.5
781.885	1570.5
787.254	1558.5
792.618	1560.5
797.977	1543.5
803.33	1532.5
808.677	1535.5
814.019	1517.5
819.355	1509.5
824.686	1495.5
830.011	1461.5
835.33	1458.5
840.644	1463.5
845.952	1439.5
851.255	1433.5
856.552	1437.5
861.844	1413.5
867.13	1437.5
872.41	1421.5
877.686	1395.5
882.955	1397.5
888.219	1379.5
893.478	1378.5
898.731	1358.5
903.979	1332.5
909.221	1326.5
914.458	1289.5
919.69	1289.5
924.916	1289.5
930.136	1281.5
935.351	1286.5
940.561	1291.5
945.766	1275.5
950.965	1274.5
956.158	1263.5
961.347	1262.5
966.529	1255.5
971.707	1218.5
976.879	1203.5
982.046	1181.5
987.208	1199.5
992.364	1191.5
997.515	1191.5
1002.66	1191.5
1007.801	1204.5
1012.936	1197.5
1018.066	1221.5
1023.19	1234.5
1028.309	1240.5
1033.423	1244.5
1038.532	1242.5
1043.636	1233.5
1048.734	1219.5
1053.827	1216.5
1058.915	1188.5
1063.998	1179.5
1069.075	1160.5
1074.147	1172.5
1079.214	1191.5
1084.276	1195.5
1089.333	1180.5
1094.385	1208.5
1099.431	1201.5
1104.472	1207.5
1109.509	1208.5
1114.54	1206.5
1119.565	1197.5
1124.586	1188.5
1129.602	1164.5
1134.613	1160.5
1139.618	1142.5
1144.619	1158.5
1149.614	1148.5
1154.604	1153.5
1159.589	1156.5
1164.57	1154.5
1169.545	1165.5
1174.515	1178.5
1179.48	1186.5
1184.44	1173.5
1189.395	1164.5
1194.345	1157.5
1199.29	1131.5
1204.23	1154.5
1209.165	1165.5
1214.095	1148.5
1219.021	1149.5
1223.941	1172.5
1228.856	1177.5
1233.766	1172.5
1238.672	1186.5
1243.572	1190.5
1248.467	1181.5
1253.358	1170.5
1258.244	1164.5
1263.124	1137.5
1268	1146.5
1272.871	1090.5
1277.737	1102.5
1282.599	1096.5
1287.455	1089.5
1292.306	1107.5
1297.153	1100.5
1301.995	1110.5
1306.832	1126.5
1311.664	1121.5
1316.491	1114.5
1321.314	1120.5
1326.132	1113.5
1330.945	1098.5
1335.753	1065.5
1340.556	1056.5
1345.354	1011.5
1350.148	985.5
1354.937	977.5
1359.722	1013.5
1364.501	1024.5
1369.276	1055.5
1374.046	1063.5
1378.811	1085.5
1383.572	1082.5
1388.327	1088.5
1393.079	1061.5
1397.825	1070.5
1402.567	1040.5
1407.304	1009.5
1412.036	1003.5
1416.764	1003.5
1421.487	991.5
1426.205	975.5
1430.919	994.5
1435.628	1005.5
1440.333	998.5
1445.032	1005.5
1449.727	1013.5
1454.418	1013.5
1459.104	1016.5
1463.785	1007.5
1468.462	1004.5
1473.134	990.5
1477.802	977.5
1482.465	976.5
1487.123	975.5
1491.777	977.5
1496.426	971.5
1501.071	994.5
1505.711	1008.5
1510.347	1038.5
1514.978	1047.5
1519.604	1046.5
1524.226	1084.5
1528.844	1096.5
1533.457	1080.5
1538.065	1088.5
1542.669	1088.5
1547.269	1090.5
1551.864	1078.5
1556.454	1095.5
1561.041	1086.5
1565.622	1095.5
1570.199	1103.5
1574.772	1115.5
1579.34	1132.5
1583.904	1127.5
1588.464	1150.5
1593.019	1159.5
1597.569	1169.5
1602.115	1200.5
1606.657	1201.5
1611.195	1218.5
1615.728	1198.5
1620.256	1212.5
1624.78	1223.5
1629.3	1241.5
1633.816	1246.5
1638.327	1271.5
1642.834	1291.5
1647.336	1297.5
1651.834	1292.5
1656.328	1302.5
1660.817	1291.5
1665.302	1276.5
1669.783	1245.5
1674.259	1221.5
1678.732	1185.5
1683.199	1134.5
1687.663	1087.5
1692.122	1049.5
1696.577	1023.5
1701.028	1011.5
1705.474	1016.5
1709.917	1009.5
1714.355	974.5
1718.788	943.5
1723.218	930.5
1727.643	891.5
1732.064	882.5
1736.481	871.5
1740.893	845.5
1745.301	811.5
1749.705	795.5
1754.105	770.5
1758.501	747.5
1762.893	727.5
1767.28	724.5
1771.663	712.5
1776.042	708.5
1780.417	707.5
1784.787	714.5
1789.154	717.5
1793.516	719.5
1797.874	734.5
1802.228	741.5
1806.578	743.5
1810.924	750.5
1815.266	734.5
1819.603	721.5
1823.937	723.5
1828.266	704.5
1832.591	695.5
1836.913	678.5
1841.23	675.5
1845.543	669.5
1849.852	659.5
1854.156	671.5
1858.457	668.5
1862.754	659.5
1867.047	671.5
1871.335	670.5
1875.62	665.5
1879.9	672.5
1884.177	662.5
1888.449	658.5
1892.718	655.5
1896.982	658.5
1901.243	657.5
1905.499	657.5
1909.752	652.5
1914	645.5
1918.245	649.5
1922.485	657.5
1926.722	665.5
1930.954	668.5
1935.183	674.5
1939.408	680.5
1943.628	687.5
1947.845	689.5
1952.058	685.5
1956.267	697.5
1960.472	679.5
1964.673	677.5
1968.87	664.5
1973.063	657.5
1977.252	658.5
1981.438	651.5
1985.619	648.5
1989.797	646.5
1993.971	638.5
1998.14	637.5
2002.306	641.5
2006.469	641.5
2010.627	644.5
2014.781	642.5
2018.932	647.5
2023.078	637.5
2027.221	643.5
2031.36	635.5
2035.495	626.5
2039.627	629.5
2043.754	630.5
2047.878	607.5
2051.998	620.5
2056.114	618.5
2060.226	611.5
2064.334	621.5
2068.439	621.5
2072.54	620.5
2076.637	628.5
2080.73	623.5
2084.82	640.5
2088.906	641.5
2092.988	651.5
2097.066	641.5
2101.14	643.5
2105.211	642.5
2109.278	633.5
2113.342	635.5
2117.401	627.5
2121.457	619.5
2125.509	612.5
2129.558	607.5
2133.602	617.5
2137.643	619.5
2141.681	616.5
2145.714	603.5
2149.744	605.5
2153.77	597.5
2157.793	587.5
2161.812	579.5
2165.827	582.5
2169.838	575.5
2173.846	567.5
2177.851	556.5
2181.851	548.5
2185.848	552.5
2189.841	530.5
2193.831	528.5
2197.817	520.5
2201.799	515.5
2205.778	512.5
2209.753	505.5
2213.725	514.5
2217.693	519.5
2221.657	502.5
2225.618	508.5
2229.575	511.5
2233.529	511.5
2237.479	513.5
2241.425	499.5
2245.368	496.5
2249.307	487.5
2253.243	482.5
2257.175	465.5
2261.104	457.5
2265.029	448.5
2268.95	453.5
2272.868	445.5
2276.783	452.5
2280.694	440.5
2284.601	428.5
2288.505	430.5
2292.405	419.5
2296.302	416.5
2300.195	412.5
2304.085	406.5
2307.971	405.5
2311.854	400.5
2315.734	389.5
2319.609	382.5
2323.482	382.5
2327.351	367.5
2331.216	364.5
2335.078	373.5
2338.937	363.5
2342.792	351.5
2346.643	362.5
2350.492	354.5
2354.336	358.5
2358.178	349.5
2362.015	358.5
2365.85	357.5
2369.681	358.5
2373.508	354.5
2377.333	348.5
2381.153	358.5
2384.971	357.5
2388.785	350.5
2392.595	348.5
2396.402	339.5
2400.206	345.5
2404.007	335.5
2407.804	343.5
2411.597	321.5
2415.388	338.5
2419.174	335.5
2422.958	333.5
2426.738	330.5
2430.515	329.5
2434.289	317.5
2438.059	328.5
2441.825	316.5
2445.589	302.5
2449.349	311.5
2453.106	308.5
2456.859	307.5
2460.61	310.5
2464.356	298.5
2468.1	306.5
2471.84	292.5
2475.577	300.5
2479.311	294.5
2483.041	283.5
2486.768	302.5
2490.492	302.5
2494.213	287.5
2497.93	299.5
2501.644	293.5
2505.355	295.5
2509.062	302.5
2512.766	290.5
2516.467	294.5
2520.165	278.5
2523.859	282.5
2527.551	275.5
2531.239	293.5
2534.923	278.5
2538.605	284.5
2542.283	280.5
2545.958	274.5
2549.63	274.5
2553.299	274.5
2556.964	270.5
2560.626	277.5
2564.285	272.5
2567.941	271.5
2571.594	276.5
2575.243	261.5
2578.89	264.5
2582.533	264.5
2586.173	261.5
2589.809	259.5
2593.443	260.5
2597.073	251.5
2600.701	250.5
2604.325	257.5
2607.946	253.5
2611.564	250.5
2615.178	250.5
2618.79	256.5
2622.398	249.5
2626.004	249.5
2629.606	245.5
2633.205	239.5
2636.801	246.5
2640.394	234.5
2643.983	235.5
2647.57	221.5
2651.153	224.5
2654.734	240.5
2658.311	223.5
2661.885	218.5
2665.456	219.5
2669.025	218.5
2672.589	209.5
2676.151	212.5
2679.71	213.5
2683.266	206.5
2686.819	208.5
2690.368	207.5
2693.915	198.5
2697.458	193.5
2700.999	192.5
2704.536	193.5
2708.071	185.5
2711.602	176.5
2715.13	184.5
2718.656	182.5
2722.178	188.5
2725.697	180.5
2729.214	183.5
2732.727	182.5
2736.237	180.5
2739.744	184.5
2743.249	187.5
2746.75	186.5
2750.248	190.5
2753.743	191.5
2757.236	197.5
2760.725	194.5
2764.211	193.5
2767.695	200.5
2771.175	196.5
2774.652	189.5
2778.127	187.5
2781.598	196.5
2785.067	194.5
2788.532	186.5
2791.995	189.5
2795.455	198.5
2798.911	194.5
2802.365	201.5
2805.816	202.5
2809.264	199.5
2812.709	200.5
2816.151	198.5
2819.59	198.5
2823.026	190.5
2826.46	192.5
2829.89	191.5
2833.318	192.5
2836.742	197.5
2840.164	195.5
2843.583	199.5
2846.999	195.5
2850.412	201.5
2853.822	201.5
2857.229	205.5
2860.634	208.5
2864.035	206.5
2867.434	210.5
2870.83	216.5
2874.223	213.5
2877.613	218.5
2881	224.5
2884.385	220.5
2887.766	221.5
2891.145	236.5
2894.521	223.5
2897.894	220.5
2901.264	231.5
2904.631	220.5
2907.996	233.5
2911.358	221.5
2914.717	224.5
2918.073	233.5
2921.426	233.5
2924.777	239.5
2928.124	249.5
2931.469	249.5
2934.811	254.5
2938.15	251.5
2941.487	263.5
2944.821	263.5
2948.152	272.5
2951.48	272.5
2954.805	267.5
2958.128	277.5
2961.447	288.5
2964.765	289.5
2968.079	295.5
2971.39	299.5
2974.699	314.5
2978.005	307.5
2981.308	329.5
2984.609	329.5
2987.907	345.5
2991.202	358.5
2994.494	370.5
2997.784	382.5
3001.07	391.5
3004.355	391.5
3007.636	407.5
3010.915	414.5
3014.191	422.5
3017.464	435.5
3020.734	449.5
3024.002	457.5
3027.267	453.5
3030.53	459.5
3033.789	470.5
3037.046	479.5
3040.301	480.5
3043.552	497.5
3046.801	501.5
3050.048	523.5
3053.291	531.5
3056.532	556.5
3059.771	575.5
3063.006	572.5
3066.239	593.5
3069.469	617.5
3072.697	626.5
3075.922	656.5
3079.144	668.5
3082.364	690.5
3085.581	708.5
3088.795	733.5
3092.007	741.5
3095.216	763.5
3098.423	780.5
3101.627	782.5
3104.828	813.5
3108.026	822.5
3111.222	840.5
3114.416	865.5
3117.607	893.5
3120.795	912.5
3123.98	921.5
3127.163	939.5
3130.344	966.5
3133.521	980.5
3136.696	1006.5
3139.869	1026.5
3143.039	1041.5
3146.206	1061.5
3149.371	1084.5
3152.533	1095.5
3155.693	1112.5
3158.85	1120.5
3162.005	1106.5
3165.157	1121.5
3168.306	1133.5
3171.453	1145.5
3174.597	1160.5
3177.739	1139.5
3180.878	1147.5
3184.014	1156.5
3187.149	1167.5
3190.28	1156.5
3193.409	1166.5
3196.536	1154.5
3199.659	1166.5
3202.781	1182.5
3205.9	1179.5
3209.016	1182.5
3212.13	1174.5
3215.241	1197.5
3218.35	1170.5
3221.456	1160.5
3224.56	1164.5
3227.661	1158.5
3230.76	1139.5
3233.856	1142.5
3236.95	1126.5
3240.041	1125.5
3243.13	1109.5
3246.216	1087.5
3249.3	1092.5
3252.382	1089.5
3255.46	1070.5
3258.537	1066.5
3261.611	1060.5
3264.682	1076.5
3267.751	1056.5
3270.818	1059.5
3273.882	1054.5
3276.943	1061.5
3280.002	1042.5
3283.059	1031.5
3286.113	1012.5
3289.165	1006.5
3292.214	1001.5
3295.261	985.5
3298.306	963.5
3301.348	951.5
3304.387	942.5
3307.425	929.5
3310.459	914.5
3313.492	893.5
3316.521	887.5
3319.549	880.5
3322.574	863.5
3325.597	872.5
3328.617	856.5
3331.635	855.5
3334.65	836.5
3337.663	840.5
3340.674	829.5
3343.682	823.5
3346.688	821.5
3349.691	818.5
3352.692	824.5
3355.691	813.5
3358.687	806.5
3361.681	806.5
3364.673	797.5
3367.662	782.5
3370.649	765.5
3373.633	750.5
3376.615	752.5
3379.595	735.5
3382.572	732.5
3385.547	724.5
3388.52	712.5
3391.49	719.5
3394.458	693.5
3397.424	691.5
3400.387	684.5
3403.348	685.5
3406.307	666.5
3409.263	655.5
3412.217	648.5
3415.168	652.5
3418.118	629.5
3421.065	641.5
3424.009	613.5
3426.951	624.5
3429.891	602.5
3432.829	593.5
3435.764	592.5
3438.697	557.5
3441.628	547.5
3444.557	545.5
3447.483	534.5
3450.407	527.5
3453.328	500.5
3456.247	495.5
3459.164	469.5
3462.079	458.5
3464.991	459.5
3467.902	432.5
3470.809	445.5
3473.715	418.5
3476.618	415.5
3479.519	394.5
3482.418	388.5
3485.315	376.5
3488.209	353.5
3491.101	354.5
3493.99	344.5
3496.878	334.5
3499.763	332.5
3502.646	322.5
3505.527	307.5
3508.405	289.5
3511.281	286.5
3514.155	277.5
3517.027	254.5
3519.897	251.5
3522.764	245.5
3525.629	230.5
3528.492	219.5
3531.352	204.5
3534.211	197.5
3537.067	184.5
3539.921	178.5
3542.773	167.5
3545.622	164.5
3548.469	158.5
3551.315	141.5
3554.157	137.5
3556.998	129.5
3559.837	122.5
3562.673	117.5
3565.507	111.5
3568.339	104.5
3571.169	93.5
3573.996	90.5
3576.822	80.5
3579.645	75.5
3582.466	67.5
3585.285	65.5
3588.101	59.5
3590.916	49.5
3593.728	51.5
3596.538	48.5
3599.346	40.5
3602.152	34.5
3604.956	24.5
3607.757	27.5
3610.556	27.5
3613.354	19.5
3616.149	11.5
3618.942	11.5
3621.732	5.5
3624.521	3.5
3627.307	-5.5
3630.092	-4.5
3632.874	-11.5
3635.654	-17.5
3638.432	-9.5
3641.208	-17.5
3643.982	-12.5
3646.753	-20.5
3649.523	-16.5
3652.29	-24.5
3655.055	-31.5
3657.818	-32.5
3660.579	-34.5
3663.338	-40.5
3666.095	-42.5
3668.849	-35.5
3671.602	-48.5
3674.352	-46.5
3677.101	-46.5
3679.847	-56.5
3682.591	-53.5
3685.333	-50.5
3688.073	-58.5
3690.811	-62.5
3693.547	-63.5
3696.281	-58.5
3699.013	-61.5
3701.742	-60.5
3704.47	-64.5
3707.195	-70.5
3709.919	-71.5
3712.64	-70.5
3715.359	-74.5
3718.076	-68.5
3720.792	-68.5
3723.505	-72.5
3726.216	-68.5
3728.925	-71.5
3731.632	-78.5
3734.336	-82.5
3737.039	-85.5
3739.74	-79.5
3742.439	-74.5
3745.136	-84.5
3747.83	-78.5
3750.523	-82.5
3753.213	-77.5
3755.902	-79.5
3758.589	-82.5
3761.273	-79.5
3763.956	-85.5
3766.636	-85.5
3769.315	-86.5
3771.991	-84.5
3774.665	-87.5
3777.338	-86.5
3780.008	-84.5
3782.677	-85.5
3785.343	-81.5
3788.007	-90.5
3790.67	-87.5
3793.33	-85.5
3795.989	-86.5
3798.645	-81.5
3801.299	-83.5
3803.952	-87.5
3806.602	-92.5
3809.251	-87.5
3811.897	-89.5
3814.542	-92.5
3817.184	-87.5
3819.825	-91.5
3822.463	-85.5
3825.1	-87.5
3827.735	-89.5
3830.367	-91.5
3832.998	-93.5
3835.627	-88.5
3838.253	-92.5
3840.878	-95.5
3843.501	-89.5
3846.122	-90.5
3848.741	-94.5
3851.358	-88.5
3853.973	-93.5
3856.586	-95.5
3859.197	-94.5
3861.806	-91.5
3864.414	-97.5
3867.019	-93.5
3869.622	-96.5
3872.224	-92.5
3874.823	-92.5
3877.421	-92.5
3880.016	-86.5
3882.61	-84.5
3885.202	-84.5
3887.792	-84.5
3890.38	-93.5
3892.966	-91.5
3895.55	-94.5
3898.132	-93.5
3900.713	-96.5
3903.291	-97.5
3905.868	-95.5
3908.442	-95.5
3911.015	-90.5
3913.586	-94.5
3916.155	-96.5
3918.722	-97.5
3921.287	-89.5
3923.85	-97.5
3926.411	-100.5
3928.971	-95.5
3931.528	-93.5
3934.084	-94.5
3936.638	-97.5
3939.19	-98.5
3941.74	-94.5
3944.288	-95.5
3946.834	-96.5
3949.378	-101.5
3951.921	-95.5
3954.462	-93.5
3957	-100.5
3959.537	-100.5
3962.072	-98.5
3964.606	-97.5
3967.137	-96.5
3969.667	-95.5
3972.194	-101.5
3974.72	-94.5
3977.244	-101.5
3979.766	-99.5
3982.286	-93.5
3984.805	-96.5
3987.321	-98.5
3989.836	-92.5
3992.349	-95.5
3994.86	-96.5
3997.369	-98.5
3999.877	-97.5
4002.382	-92.5
4004.886	-92.5
4007.388	-97.5
4009.888	-98.5
4012.386	-99.5
4014.883	-95.5
4017.377	-89.5
4019.87	-93.5
4022.361	-95.5
4024.85	-94.5
4027.338	-94.5
4029.823	-99.5
4032.307	-95.5
4034.789	-98.5
4037.269	-91.5
4039.747	-94.5
4042.224	-92.5
4044.699	-88.5
4047.172	-100.5
4049.643	-95.5
4052.112	-97.5
4054.58	-106.5
4057.046	-99.5
4059.51	-98.5
4061.972	-98.5
4064.432	-94.5
4066.891	-94.5
4069.348	-98.5
4071.803	-95.5
4074.256	-101.5
4076.708	-102.5
4079.158	-97.5
4081.606	-94.5
4084.052	-102.5
4086.497	-98.5
4088.939	-91.5
4091.38	-95.5
4093.819	-97.5
4096.257	-101.5
4098.693	-94.5
4101.127	-104.5
4103.559	-104.5
4105.989	-67.5
4108.418	-65.5
4110.845	-58.5
4113.27	-53.5
4115.694	-39.5
4118.115	-37.5
4120.535	-94.5
4122.954	-99.5
4125.37	-98.5
4127.785	-95.5
4130.198	-96.5
4132.609	-95.5
4135.019	-99.5
4137.427	-100.5
4139.833	-102.5
4142.237	-104.5
