Data from Bacilus_dil11_A1_RamanShift_1.txt Node
Date: Wed Mar 01 12:29:37 IST 2017
User: aro
Spectrometer: QEPB0276
Trigger mode: 0
Integration Time (sec): 5.000000E0
Scans to average: 1
Electric dark correction enabled: true
Nonlinearity correction enabled: false
Boxcar width: 0
XAxis mode: Raman Shifts
Number of Pixels in Spectrum: 1044
>>>>>Begin Spectral Data<<<<<
160.701	-18.62
166.742	0.38
172.777	71.38
178.805	291.38
184.826	832.38
190.841	1695.38
196.849	2679.38
202.85	3337.38
208.845	3511.38
214.833	3357.38
220.815	3243.38
226.789	3145.38
232.758	3092.38
238.719	2982.38
244.674	2870.38
250.623	2753.38
256.565	2635.38
262.5	2499.38
268.429	2401.38
274.351	2317.38
280.267	2199.38
286.176	2153.38
292.079	2073.38
297.975	1989.38
303.865	1936.38
309.748	1897.38
315.625	1864.38
321.495	1823.38
327.359	1799.38
333.217	1792.38
339.068	1782.38
344.912	1759.38
350.751	1767.38
356.583	1744.38
362.408	1766.38
368.227	1746.38
374.04	1785.38
379.847	1758.38
385.647	1794.38
391.44	1814.38
397.228	1814.38
403.009	1818.38
408.784	1829.38
414.553	1844.38
420.315	1848.38
426.071	1834.38
431.821	1810.38
437.565	1834.38
443.302	1827.38
449.033	1810.38
454.758	1805.38
460.477	1801.38
466.189	1800.38
471.896	1779.38
477.596	1757.38
483.29	1763.38
488.978	1749.38
494.66	1750.38
500.335	1731.38
506.005	1683.38
511.668	1665.38
517.325	1620.38
522.977	1583.38
528.622	1581.38
534.261	1568.38
539.894	1549.38
545.521	1512.38
551.141	1518.38
556.756	1499.38
562.365	1492.38
567.968	1476.38
573.565	1472.38
579.155	1462.38
584.74	1443.38
590.319	1437.38
595.892	1440.38
601.459	1441.38
607.02	1425.38
612.575	1420.38
618.124	1414.38
623.667	1390.38
629.204	1372.38
634.735	1363.38
640.261	1349.38
645.781	1332.38
651.294	1335.38
656.802	1318.38
662.304	1301.38
667.8	1308.38
673.29	1296.38
678.775	1308.38
684.254	1293.38
689.726	1294.38
695.193	1291.38
700.655	1277.38
706.11	1271.38
711.56	1261.38
717.004	1258.38
722.442	1240.38
727.874	1248.38
733.301	1228.38
738.722	1223.38
744.137	1204.38
749.547	1206.38
754.951	1201.38
760.349	1200.38
765.741	1203.38
771.128	1198.38
776.509	1191.38
781.885	1211.38
787.254	1193.38
792.618	1200.38
797.977	1220.38
803.33	1190.38
808.677	1184.38
814.019	1159.38
819.355	1154.38
824.686	1136.38
830.011	1115.38
835.33	1130.38
840.644	1111.38
845.952	1110.38
851.255	1095.38
856.552	1085.38
861.844	1070.38
867.13	1088.38
872.41	1082.38
877.686	1070.38
882.955	1062.38
888.219	1050.38
893.478	1028.38
898.731	1014.38
903.979	989.38
909.221	986.38
914.458	976.38
919.69	981.38
924.916	955.38
930.136	951.38
935.351	945.38
940.561	960.38
945.766	941.38
950.965	935.38
956.158	949.38
961.347	935.38
966.529	933.38
971.707	903.38
976.879	881.38
982.046	877.38
987.208	880.38
992.364	869.38
997.515	863.38
1002.66	876.38
1007.801	874.38
1012.936	884.38
1018.066	885.38
1023.19	900.38
1028.309	893.38
1033.423	906.38
1038.532	909.38
1043.636	887.38
1048.734	896.38
1053.827	880.38
1058.915	880.38
1063.998	875.38
1069.075	867.38
1074.147	861.38
1079.214	868.38
1084.276	864.38
1089.333	858.38
1094.385	870.38
1099.431	876.38
1104.472	886.38
1109.509	882.38
1114.54	876.38
1119.565	856.38
1124.586	857.38
1129.602	846.38
1134.613	826.38
1139.618	826.38
1144.619	833.38
1149.614	826.38
1154.604	835.38
1159.589	838.38
1164.57	830.38
1169.545	830.38
1174.515	838.38
1179.48	843.38
1184.44	827.38
1189.395	830.38
1194.345	833.38
1199.29	827.38
1204.23	821.38
1209.165	827.38
1214.095	837.38
1219.021	815.38
1223.941	841.38
1228.856	852.38
1233.766	841.38
1238.672	834.38
1243.572	841.38
1248.467	840.38
1253.358	842.38
1258.244	820.38
1263.124	803.38
1268	791.38
1272.871	792.38
1277.737	783.38
1282.599	775.38
1287.455	773.38
1292.306	776.38
1297.153	784.38
1301.995	782.38
1306.832	780.38
1311.664	785.38
1316.491	784.38
1321.314	802.38
1326.132	778.38
1330.945	772.38
1335.753	769.38
1340.556	755.38
1345.354	718.38
1350.148	715.38
1354.937	707.38
1359.722	708.38
1364.501	713.38
1369.276	725.38
1374.046	744.38
1378.811	754.38
1383.572	745.38
1388.327	754.38
1393.079	741.38
1397.825	726.38
1402.567	714.38
1407.304	697.38
1412.036	696.38
1416.764	689.38
1421.487	689.38
1426.205	692.38
1430.919	688.38
1435.628	687.38
1440.333	698.38
1445.032	701.38
1449.727	714.38
1454.418	711.38
1459.104	701.38
1463.785	687.38
1468.462	688.38
1473.134	694.38
1477.802	683.38
1482.465	680.38
1487.123	675.38
1491.777	682.38
1496.426	677.38
1501.071	685.38
1505.711	698.38
1510.347	713.38
1514.978	716.38
1519.604	748.38
1524.226	743.38
1528.844	754.38
1533.457	755.38
1538.065	763.38
1542.669	755.38
1547.269	758.38
1551.864	758.38
1556.454	770.38
1561.041	760.38
1565.622	760.38
1570.199	763.38
1574.772	783.38
1579.34	792.38
1583.904	800.38
1588.464	812.38
1593.019	829.38
1597.569	844.38
1602.115	858.38
1606.657	855.38
1611.195	860.38
1615.728	871.38
1620.256	891.38
1624.78	908.38
1629.3	902.38
1633.816	917.38
1638.327	939.38
1642.834	930.38
1647.336	960.38
1651.834	953.38
1656.328	958.38
1660.817	949.38
1665.302	928.38
1669.783	925.38
1674.259	893.38
1678.732	867.38
1683.199	832.38
1687.663	786.38
1692.122	748.38
1696.577	728.38
1701.028	708.38
1705.474	692.38
1709.917	688.38
1714.355	665.38
1718.788	650.38
1723.218	634.38
1727.643	618.38
1732.064	599.38
1736.481	565.38
1740.893	552.38
1745.301	540.38
1749.705	515.38
1754.105	500.38
1758.501	488.38
1762.893	466.38
1767.28	474.38
1771.663	459.38
1776.042	457.38
1780.417	462.38
1784.787	458.38
1789.154	453.38
1793.516	449.38
1797.874	465.38
1802.228	464.38
1806.578	466.38
1810.924	464.38
1815.266	470.38
1819.603	449.38
1823.937	437.38
1828.266	431.38
1832.591	418.38
1836.913	419.38
1841.23	415.38
1845.543	403.38
1849.852	410.38
1854.156	403.38
1858.457	414.38
1862.754	408.38
1867.047	412.38
1871.335	412.38
1875.62	409.38
1879.9	423.38
1884.177	419.38
1888.449	412.38
1892.718	403.38
1896.982	405.38
1901.243	413.38
1905.499	407.38
1909.752	410.38
1914	413.38
1918.245	405.38
1922.485	407.38
1926.722	403.38
1930.954	422.38
1935.183	422.38
1939.408	416.38
1943.628	426.38
1947.845	422.38
1952.058	428.38
1956.267	423.38
1960.472	425.38
1964.673	422.38
1968.87	416.38
1973.063	405.38
1977.252	416.38
1981.438	409.38
1985.619	399.38
1989.797	395.38
1993.971	404.38
1998.14	401.38
2002.306	400.38
2006.469	397.38
2010.627	406.38
2014.781	412.38
2018.932	404.38
2023.078	393.38
2027.221	405.38
2031.36	397.38
2035.495	387.38
2039.627	386.38
2043.754	390.38
2047.878	382.38
2051.998	386.38
2056.114	389.38
2060.226	391.38
2064.334	388.38
2068.439	398.38
2072.54	400.38
2076.637	397.38
2080.73	395.38
2084.82	415.38
2088.906	413.38
2092.988	408.38
2097.066	402.38
2101.14	418.38
2105.211	415.38
2109.278	402.38
2113.342	397.38
2117.401	406.38
2121.457	393.38
2125.509	391.38
2129.558	391.38
2133.602	389.38
2137.643	385.38
2141.681	389.38
2145.714	379.38
2149.744	369.38
2153.77	373.38
2157.793	370.38
2161.812	367.38
2165.827	369.38
2169.838	362.38
2173.846	363.38
2177.851	356.38
2181.851	352.38
2185.848	333.38
2189.841	333.38
2193.831	331.38
2197.817	316.38
2201.799	317.38
2205.778	330.38
2209.753	319.38
2213.725	315.38
2217.693	312.38
2221.657	309.38
2225.618	313.38
2229.575	315.38
2233.529	303.38
2237.479	313.38
2241.425	302.38
2245.368	298.38
2249.307	300.38
2253.243	292.38
2257.175	286.38
2261.104	274.38
2265.029	274.38
2268.95	271.38
2272.868	271.38
2276.783	271.38
2280.694	257.38
2284.601	249.38
2288.505	249.38
2292.405	248.38
2296.302	241.38
2300.195	242.38
2304.085	233.38
2307.971	232.38
2311.854	234.38
2315.734	231.38
2319.609	219.38
2323.482	216.38
2327.351	210.38
2331.216	208.38
2335.078	206.38
2338.937	205.38
2342.792	204.38
2346.643	194.38
2350.492	205.38
2354.336	206.38
2358.178	202.38
2362.015	204.38
2365.85	206.38
2369.681	197.38
2373.508	200.38
2377.333	195.38
2381.153	199.38
2384.971	205.38
2388.785	192.38
2392.595	192.38
2396.402	194.38
2400.206	192.38
2404.007	185.38
2407.804	184.38
2411.597	187.38
2415.388	184.38
2419.174	181.38
2422.958	179.38
2426.738	180.38
2430.515	180.38
2434.289	184.38
2438.059	174.38
2441.825	173.38
2445.589	175.38
2449.349	170.38
2453.106	172.38
2456.859	169.38
2460.61	169.38
2464.356	155.38
2468.1	160.38
2471.84	160.38
2475.577	164.38
2479.311	157.38
2483.041	157.38
2486.768	161.38
2490.492	163.38
2494.213	153.38
2497.93	154.38
2501.644	153.38
2505.355	151.38
2509.062	157.38
2512.766	157.38
2516.467	160.38
2520.165	156.38
2523.859	154.38
2527.551	153.38
2531.239	160.38
2534.923	154.38
2538.605	148.38
2542.283	141.38
2545.958	151.38
2549.63	142.38
2553.299	146.38
2556.964	143.38
2560.626	145.38
2564.285	147.38
2567.941	140.38
2571.594	141.38
2575.243	137.38
2578.89	134.38
2582.533	142.38
2586.173	128.38
2589.809	140.38
2593.443	137.38
2597.073	138.38
2600.701	136.38
2604.325	129.38
2607.946	129.38
2611.564	131.38
2615.178	122.38
2618.79	129.38
2622.398	128.38
2626.004	124.38
2629.606	126.38
2633.205	123.38
2636.801	124.38
2640.394	115.38
2643.983	117.38
2647.57	112.38
2651.153	121.38
2654.734	122.38
2658.311	117.38
2661.885	106.38
2665.456	111.38
2669.025	101.38
2672.589	105.38
2676.151	107.38
2679.71	104.38
2683.266	104.38
2686.819	104.38
2690.368	108.38
2693.915	101.38
2697.458	102.38
2700.999	96.38
2704.536	96.38
2708.071	97.38
2711.602	90.38
2715.13	94.38
2718.656	93.38
2722.178	90.38
2725.697	89.38
2729.214	92.38
2732.727	96.38
2736.237	89.38
2739.744	99.38
2743.249	100.38
2746.75	100.38
2750.248	102.38
2753.743	98.38
2757.236	100.38
2760.725	101.38
2764.211	100.38
2767.695	107.38
2771.175	101.38
2774.652	97.38
2778.127	102.38
2781.598	98.38
2785.067	103.38
2788.532	101.38
2791.995	96.38
2795.455	100.38
2798.911	109.38
2802.365	108.38
2805.816	104.38
2809.264	100.38
2812.709	103.38
2816.151	110.38
2819.59	108.38
2823.026	108.38
2826.46	109.38
2829.89	106.38
2833.318	114.38
2836.742	113.38
2840.164	107.38
2843.583	117.38
2846.999	115.38
2850.412	114.38
2853.822	125.38
2857.229	118.38
2860.634	125.38
2864.035	131.38
2867.434	128.38
2870.83	134.38
2874.223	129.38
2877.613	138.38
2881	141.38
2884.385	146.38
2887.766	141.38
2891.145	141.38
2894.521	153.38
2897.894	149.38
2901.264	146.38
2904.631	142.38
2907.996	144.38
2911.358	150.38
2914.717	147.38
2918.073	160.38
2921.426	162.38
2924.777	165.38
2928.124	176.38
2931.469	175.38
2934.811	176.38
2938.15	179.38
2941.487	184.38
2944.821	180.38
2948.152	194.38
2951.48	193.38
2954.805	201.38
2958.128	210.38
2961.447	210.38
2964.765	214.38
2968.079	229.38
2971.39	227.38
2974.699	234.38
2978.005	243.38
2981.308	242.38
2984.609	260.38
2987.907	274.38
2991.202	281.38
2994.494	297.38
2997.784	296.38
3001.07	313.38
3004.355	312.38
3007.636	327.38
3010.915	334.38
3014.191	342.38
3017.464	354.38
3020.734	362.38
3024.002	360.38
3027.267	377.38
3030.53	377.38
3033.789	384.38
3037.046	399.38
3040.301	401.38
3043.552	413.38
3046.801	427.38
3050.048	427.38
3053.291	445.38
3056.532	457.38
3059.771	478.38
3063.006	495.38
3066.239	510.38
3069.469	535.38
3072.697	552.38
3075.922	562.38
3079.144	580.38
3082.364	594.38
3085.581	607.38
3088.795	638.38
3092.007	641.38
3095.216	646.38
3098.423	675.38
3101.627	689.38
3104.828	716.38
3108.026	719.38
3111.222	734.38
3114.416	765.38
3117.607	760.38
3120.795	800.38
3123.98	799.38
3127.163	836.38
3130.344	854.38
3133.521	870.38
3136.696	898.38
3139.869	904.38
3143.039	927.38
3146.206	939.38
3149.371	962.38
3152.533	968.38
3155.693	990.38
3158.85	1012.38
3162.005	998.38
3165.157	1012.38
3168.306	1010.38
3171.453	1002.38
3174.597	1023.38
3177.739	1009.38
3180.878	1024.38
3184.014	1044.38
3187.149	1039.38
3190.28	1034.38
3193.409	1052.38
3196.536	1054.38
3199.659	1056.38
3202.781	1069.38
3205.9	1054.38
3209.016	1057.38
3212.13	1058.38
3215.241	1065.38
3218.35	1060.38
3221.456	1053.38
3224.56	1054.38
3227.661	1038.38
3230.76	1018.38
3233.856	1028.38
3236.95	1022.38
3240.041	1012.38
3243.13	1003.38
3246.216	986.38
3249.3	989.38
3252.382	983.38
3255.46	971.38
3258.537	968.38
3261.611	967.38
3264.682	954.38
3267.751	967.38
3270.818	955.38
3273.882	953.38
3276.943	940.38
3280.002	940.38
3283.059	934.38
3286.113	925.38
3289.165	913.38
3292.214	891.38
3295.261	871.38
3298.306	878.38
3301.348	872.38
3304.387	847.38
3307.425	833.38
3310.459	815.38
3313.492	813.38
3316.521	794.38
3319.549	784.38
3322.574	773.38
3325.597	767.38
3328.617	772.38
3331.635	766.38
3334.65	753.38
3337.663	759.38
3340.674	741.38
3343.682	730.38
3346.688	741.38
3349.691	735.38
3352.692	738.38
3355.691	738.38
3358.687	728.38
3361.681	721.38
3364.673	718.38
3367.662	707.38
3370.649	695.38
3373.633	689.38
3376.615	670.38
3379.595	669.38
3382.572	668.38
3385.547	652.38
3388.52	641.38
3391.49	632.38
3394.458	624.38
3397.424	621.38
3400.387	615.38
3403.348	606.38
3406.307	598.38
3409.263	592.38
3412.217	583.38
3415.168	577.38
3418.118	578.38
3421.065	570.38
3424.009	553.38
3426.951	562.38
3429.891	549.38
3432.829	542.38
3435.764	543.38
3438.697	528.38
3441.628	507.38
3444.557	497.38
3447.483	496.38
3450.407	475.38
3453.328	468.38
3456.247	450.38
3459.164	438.38
3462.079	430.38
3464.991	419.38
3467.902	407.38
3470.809	392.38
3473.715	383.38
3476.618	374.38
3479.519	359.38
3482.418	349.38
3485.315	340.38
3488.209	341.38
3491.101	317.38
3493.99	321.38
3496.878	306.38
3499.763	295.38
3502.646	280.38
3505.527	276.38
3508.405	276.38
3511.281	268.38
3514.155	249.38
3517.027	243.38
3519.897	230.38
3522.764	221.38
3525.629	210.38
3528.492	207.38
3531.352	180.38
3534.211	177.38
3537.067	171.38
3539.921	162.38
3542.773	154.38
3545.622	152.38
3548.469	147.38
3551.315	132.38
3554.157	118.38
3556.998	117.38
3559.837	108.38
3562.673	99.38
3565.507	102.38
3568.339	101.38
3571.169	90.38
3573.996	85.38
3576.822	74.38
3579.645	73.38
3582.466	68.38
3585.285	64.38
3588.101	58.38
3590.916	51.38
3593.728	49.38
3596.538	44.38
3599.346	39.38
3602.152	36.38
3604.956	26.38
3607.757	28.38
3610.556	29.38
3613.354	18.38
3616.149	12.38
3618.942	12.38
3621.732	10.38
3624.521	10.38
3627.307	-1.62
3630.092	1.38
3632.874	-4.62
3635.654	-12.62
3638.432	-4.62
3641.208	-6.62
3643.982	-8.62
3646.753	-9.62
3649.523	-14.62
3652.29	-15.62
3655.055	-21.62
3657.818	-29.62
3660.579	-28.62
3663.338	-26.62
3666.095	-28.62
3668.849	-31.62
3671.602	-33.62
3674.352	-30.62
3677.101	-31.62
3679.847	-45.62
3682.591	-45.62
3685.333	-45.62
3688.073	-51.62
3690.811	-47.62
3693.547	-47.62
3696.281	-53.62
3699.013	-48.62
3701.742	-47.62
3704.47	-47.62
3707.195	-57.62
3709.919	-59.62
3712.64	-60.62
3715.359	-63.62
3718.076	-60.62
3720.792	-63.62
3723.505	-63.62
3726.216	-54.62
3728.925	-61.62
3731.632	-68.62
3734.336	-66.62
3737.039	-69.62
3739.74	-64.62
3742.439	-66.62
3745.136	-65.62
3747.83	-65.62
3750.523	-70.62
3753.213	-63.62
3755.902	-69.62
3758.589	-71.62
3761.273	-69.62
3763.956	-68.62
3766.636	-67.62
3769.315	-76.62
3771.991	-70.62
3774.665	-73.62
3777.338	-77.62
3780.008	-75.62
3782.677	-72.62
3785.343	-70.62
3788.007	-69.62
3790.67	-71.62
3793.33	-69.62
3795.989	-71.62
3798.645	-68.62
3801.299	-71.62
3803.952	-80.62
3806.602	-84.62
3809.251	-77.62
3811.897	-75.62
3814.542	-77.62
3817.184	-74.62
3819.825	-71.62
3822.463	-73.62
3825.1	-73.62
3827.735	-75.62
3830.367	-79.62
3832.998	-82.62
3835.627	-80.62
3838.253	-78.62
3840.878	-76.62
3843.501	-76.62
3846.122	-76.62
3848.741	-79.62
3851.358	-76.62
3853.973	-79.62
3856.586	-77.62
3859.197	-77.62
3861.806	-79.62
3864.414	-82.62
3867.019	-75.62
3869.622	-78.62
3872.224	-74.62
3874.823	-77.62
3877.421	-77.62
3880.016	-68.62
3882.61	-71.62
3885.202	-64.62
3887.792	-69.62
3890.38	-77.62
3892.966	-74.62
3895.55	-78.62
3898.132	-77.62
3900.713	-80.62
3903.291	-81.62
3905.868	-80.62
3908.442	-80.62
3911.015	-78.62
3913.586	-81.62
3916.155	-85.62
3918.722	-83.62
3921.287	-79.62
3923.85	-75.62
3926.411	-80.62
3928.971	-79.62
3931.528	-80.62
3934.084	-77.62
3936.638	-83.62
3939.19	-83.62
3941.74	-80.62
3944.288	-80.62
3946.834	-84.62
3949.378	-86.62
3951.921	-78.62
3954.462	-77.62
3957	-82.62
3959.537	-81.62
3962.072	-81.62
3964.606	-81.62
3967.137	-82.62
3969.667	-83.62
3972.194	-81.62
3974.72	-74.62
3977.244	-79.62
3979.766	-80.62
3982.286	-79.62
3984.805	-79.62
3987.321	-83.62
3989.836	-79.62
3992.349	-77.62
3994.86	-79.62
3997.369	-83.62
3999.877	-80.62
4002.382	-77.62
4004.886	-79.62
4007.388	-80.62
4009.888	-80.62
4012.386	-81.62
4014.883	-81.62
4017.377	-78.62
4019.87	-79.62
4022.361	-84.62
4024.85	-77.62
4027.338	-79.62
4029.823	-81.62
4032.307	-83.62
4034.789	-81.62
4037.269	-80.62
4039.747	-80.62
4042.224	-78.62
4044.699	-76.62
4047.172	-83.62
4049.643	-84.62
4052.112	-82.62
4054.58	-81.62
4057.046	-82.62
4059.51	-77.62
4061.972	-79.62
4064.432	-78.62
4066.891	-79.62
4069.348	-88.62
4071.803	-82.62
4074.256	-82.62
4076.708	-82.62
4079.158	-81.62
4081.606	-80.62
4084.052	-82.62
4086.497	-82.62
4088.939	-76.62
4091.38	-79.62
4093.819	-80.62
4096.257	-85.62
4098.693	-80.62
4101.127	-90.62
4103.559	-90.62
4105.989	-52.62
4108.418	-50.62
4110.845	-43.62
4113.27	-42.62
4115.694	-31.62
4118.115	-29.62
4120.535	-84.62
4122.954	-87.62
4125.37	-81.62
4127.785	-78.62
4130.198	-79.62
4132.609	-78.62
4135.019	-83.62
4137.427	-82.62
4139.833	-88.62
4142.237	-89.62
