Data from Bacilus_dil1104_B3_RamanShift_1.txt Node
Date: Wed Mar 01 12:41:07 IST 2017
User: aro
Spectrometer: QEPB0276
Trigger mode: 0
Integration Time (sec): 5.000000E0
Scans to average: 1
Electric dark correction enabled: true
Nonlinearity correction enabled: false
Boxcar width: 0
XAxis mode: Raman Shifts
Number of Pixels in Spectrum: 1044
>>>>>Begin Spectral Data<<<<<
160.701	-26.12
166.742	-2.12
172.777	87.88
178.805	357.88
184.826	1018.88
190.841	2093.88
196.849	3335.88
202.85	4119.88
208.845	4306.88
214.833	4165.88
220.815	3973.88
226.789	3882.88
232.758	3734.88
238.719	3623.88
244.674	3443.88
250.623	3282.88
256.565	3146.88
262.5	2944.88
268.429	2814.88
274.351	2685.88
280.267	2560.88
286.176	2430.88
292.079	2358.88
297.975	2242.88
303.865	2178.88
309.748	2118.88
315.625	2058.88
321.495	2031.88
327.359	1974.88
333.217	1953.88
339.068	1934.88
344.912	1932.88
350.751	1921.88
356.583	1920.88
362.408	1891.88
368.227	1941.88
374.04	1933.88
379.847	1951.88
385.647	1940.88
391.44	1976.88
397.228	1984.88
403.009	1990.88
408.784	1979.88
414.553	1998.88
420.315	2002.88
426.071	1988.88
431.821	1999.88
437.565	1984.88
443.302	1970.88
449.033	1973.88
454.758	1953.88
460.477	1950.88
466.189	1939.88
471.896	1911.88
477.596	1912.88
483.29	1916.88
488.978	1895.88
494.66	1873.88
500.335	1851.88
506.005	1810.88
511.668	1758.88
517.325	1742.88
522.977	1699.88
528.622	1679.88
534.261	1642.88
539.894	1629.88
545.521	1601.88
551.141	1580.88
556.756	1573.88
562.365	1549.88
567.968	1527.88
573.565	1534.88
579.155	1507.88
584.74	1505.88
590.319	1494.88
595.892	1497.88
601.459	1466.88
607.02	1464.88
612.575	1458.88
618.124	1439.88
623.667	1418.88
629.204	1392.88
634.735	1378.88
640.261	1344.88
645.781	1353.88
651.294	1333.88
656.802	1334.88
662.304	1317.88
667.8	1314.88
673.29	1302.88
678.775	1299.88
684.254	1290.88
689.726	1296.88
695.193	1271.88
700.655	1271.88
706.11	1253.88
711.56	1231.88
717.004	1233.88
722.442	1225.88
727.874	1215.88
733.301	1190.88
738.722	1182.88
744.137	1174.88
749.547	1188.88
754.951	1174.88
760.349	1156.88
765.741	1147.88
771.128	1150.88
776.509	1146.88
781.885	1161.88
787.254	1165.88
792.618	1141.88
797.977	1159.88
803.33	1131.88
808.677	1121.88
814.019	1102.88
819.355	1081.88
824.686	1075.88
830.011	1047.88
835.33	1046.88
840.644	1030.88
845.952	1027.88
851.255	1023.88
856.552	1000.88
861.844	987.88
867.13	986.88
872.41	963.88
877.686	967.88
882.955	964.88
888.219	939.88
893.478	919.88
898.731	897.88
903.979	882.88
909.221	860.88
914.458	842.88
919.69	831.88
924.916	830.88
930.136	810.88
935.351	805.88
940.561	818.88
945.766	808.88
950.965	806.88
956.158	795.88
961.347	788.88
966.529	775.88
971.707	750.88
976.879	751.88
982.046	733.88
987.208	726.88
992.364	732.88
997.515	727.88
1002.66	730.88
1007.801	735.88
1012.936	735.88
1018.066	732.88
1023.19	739.88
1028.309	745.88
1033.423	743.88
1038.532	749.88
1043.636	732.88
1048.734	740.88
1053.827	722.88
1058.915	717.88
1063.998	714.88
1069.075	710.88
1074.147	690.88
1079.214	701.88
1084.276	689.88
1089.333	697.88
1094.385	712.88
1099.431	718.88
1104.472	717.88
1109.509	723.88
1114.54	702.88
1119.565	692.88
1124.586	684.88
1129.602	679.88
1134.613	674.88
1139.618	673.88
1144.619	664.88
1149.614	662.88
1154.604	671.88
1159.589	670.88
1164.57	679.88
1169.545	677.88
1174.515	663.88
1179.48	676.88
1184.44	660.88
1189.395	655.88
1194.345	666.88
1199.29	666.88
1204.23	657.88
1209.165	658.88
1214.095	653.88
1219.021	660.88
1223.941	660.88
1228.856	656.88
1233.766	665.88
1238.672	673.88
1243.572	665.88
1248.467	673.88
1253.358	663.88
1258.244	651.88
1263.124	638.88
1268	630.88
1272.871	609.88
1277.737	624.88
1282.599	619.88
1287.455	611.88
1292.306	613.88
1297.153	611.88
1301.995	615.88
1306.832	602.88
1311.664	617.88
1316.491	611.88
1321.314	616.88
1326.132	613.88
1330.945	612.88
1335.753	595.88
1340.556	586.88
1345.354	559.88
1350.148	558.88
1354.937	540.88
1359.722	543.88
1364.501	544.88
1369.276	563.88
1374.046	578.88
1378.811	582.88
1383.572	577.88
1388.327	572.88
1393.079	582.88
1397.825	566.88
1402.567	545.88
1407.304	544.88
1412.036	532.88
1416.764	529.88
1421.487	523.88
1426.205	530.88
1430.919	520.88
1435.628	526.88
1440.333	520.88
1445.032	537.88
1449.727	546.88
1454.418	539.88
1459.104	536.88
1463.785	546.88
1468.462	535.88
1473.134	527.88
1477.802	527.88
1482.465	521.88
1487.123	528.88
1491.777	529.88
1496.426	526.88
1501.071	537.88
1505.711	552.88
1510.347	552.88
1514.978	566.88
1519.604	585.88
1524.226	585.88
1528.844	591.88
1533.457	605.88
1538.065	598.88
1542.669	614.88
1547.269	605.88
1551.864	612.88
1556.454	622.88
1561.041	619.88
1565.622	619.88
1570.199	645.88
1574.772	652.88
1579.34	658.88
1583.904	688.88
1588.464	714.88
1593.019	729.88
1597.569	739.88
1602.115	755.88
1606.657	769.88
1611.195	788.88
1615.728	797.88
1620.256	813.88
1624.78	836.88
1629.3	859.88
1633.816	869.88
1638.327	884.88
1642.834	894.88
1647.336	892.88
1651.834	886.88
1656.328	896.88
1660.817	890.88
1665.302	870.88
1669.783	844.88
1674.259	826.88
1678.732	783.88
1683.199	753.88
1687.663	705.88
1692.122	669.88
1696.577	619.88
1701.028	612.88
1705.474	590.88
1709.917	569.88
1714.355	535.88
1718.788	507.88
1723.218	495.88
1727.643	486.88
1732.064	450.88
1736.481	432.88
1740.893	412.88
1745.301	389.88
1749.705	384.88
1754.105	362.88
1758.501	338.88
1762.893	329.88
1767.28	311.88
1771.663	314.88
1776.042	300.88
1780.417	307.88
1784.787	301.88
1789.154	303.88
1793.516	296.88
1797.874	307.88
1802.228	294.88
1806.578	294.88
1810.924	293.88
1815.266	303.88
1819.603	290.88
1823.937	277.88
1828.266	268.88
1832.591	258.88
1836.913	258.88
1841.23	253.88
1845.543	254.88
1849.852	261.88
1854.156	247.88
1858.457	249.88
1862.754	252.88
1867.047	252.88
1871.335	257.88
1875.62	252.88
1879.9	258.88
1884.177	257.88
1888.449	253.88
1892.718	251.88
1896.982	244.88
1901.243	241.88
1905.499	249.88
1909.752	247.88
1914	239.88
1918.245	250.88
1922.485	257.88
1926.722	255.88
1930.954	264.88
1935.183	265.88
1939.408	263.88
1943.628	263.88
1947.845	276.88
1952.058	276.88
1956.267	280.88
1960.472	269.88
1964.673	270.88
1968.87	265.88
1973.063	272.88
1977.252	271.88
1981.438	258.88
1985.619	255.88
1989.797	257.88
1993.971	261.88
1998.14	251.88
2002.306	263.88
2006.469	264.88
2010.627	260.88
2014.781	267.88
2018.932	264.88
2023.078	266.88
2027.221	269.88
2031.36	266.88
2035.495	261.88
2039.627	256.88
2043.754	254.88
2047.878	259.88
2051.998	266.88
2056.114	265.88
2060.226	266.88
2064.334	262.88
2068.439	274.88
2072.54	267.88
2076.637	274.88
2080.73	272.88
2084.82	290.88
2088.906	285.88
2092.988	294.88
2097.066	287.88
2101.14	295.88
2105.211	293.88
2109.278	281.88
2113.342	288.88
2117.401	281.88
2121.457	276.88
2125.509	275.88
2129.558	277.88
2133.602	270.88
2137.643	276.88
2141.681	270.88
2145.714	262.88
2149.744	269.88
2153.77	260.88
2157.793	265.88
2161.812	257.88
2165.827	251.88
2169.838	249.88
2173.846	243.88
2177.851	236.88
2181.851	237.88
2185.848	227.88
2189.841	224.88
2193.831	218.88
2197.817	218.88
2201.799	219.88
2205.778	218.88
2209.753	212.88
2213.725	208.88
2217.693	209.88
2221.657	203.88
2225.618	207.88
2229.575	202.88
2233.529	200.88
2237.479	201.88
2241.425	195.88
2245.368	198.88
2249.307	185.88
2253.243	181.88
2257.175	175.88
2261.104	169.88
2265.029	161.88
2268.95	164.88
2272.868	163.88
2276.783	162.88
2280.694	158.88
2284.601	150.88
2288.505	149.88
2292.405	146.88
2296.302	139.88
2300.195	130.88
2304.085	135.88
2307.971	129.88
2311.854	135.88
2315.734	133.88
2319.609	121.88
2323.482	126.88
2327.351	121.88
2331.216	118.88
2335.078	116.88
2338.937	112.88
2342.792	101.88
2346.643	101.88
2350.492	104.88
2354.336	108.88
2358.178	105.88
2362.015	99.88
2365.85	110.88
2369.681	92.88
2373.508	99.88
2377.333	99.88
2381.153	97.88
2384.971	107.88
2388.785	97.88
2392.595	97.88
2396.402	99.88
2400.206	96.88
2404.007	88.88
2407.804	89.88
2411.597	86.88
2415.388	90.88
2419.174	82.88
2422.958	90.88
2426.738	85.88
2430.515	84.88
2434.289	89.88
2438.059	86.88
2441.825	82.88
2445.589	71.88
2449.349	79.88
2453.106	73.88
2456.859	78.88
2460.61	77.88
2464.356	73.88
2468.1	79.88
2471.84	74.88
2475.577	72.88
2479.311	61.88
2483.041	71.88
2486.768	71.88
2490.492	69.88
2494.213	70.88
2497.93	68.88
2501.644	65.88
2505.355	72.88
2509.062	77.88
2512.766	68.88
2516.467	66.88
2520.165	66.88
2523.859	63.88
2527.551	60.88
2531.239	70.88
2534.923	63.88
2538.605	53.88
2542.283	57.88
2545.958	59.88
2549.63	57.88
2553.299	58.88
2556.964	60.88
2560.626	54.88
2564.285	61.88
2567.941	55.88
2571.594	52.88
2575.243	46.88
2578.89	54.88
2582.533	58.88
2586.173	53.88
2589.809	50.88
2593.443	53.88
2597.073	45.88
2600.701	47.88
2604.325	46.88
2607.946	46.88
2611.564	47.88
2615.178	44.88
2618.79	46.88
2622.398	48.88
2626.004	45.88
2629.606	45.88
2633.205	43.88
2636.801	43.88
2640.394	40.88
2643.983	40.88
2647.57	35.88
2651.153	34.88
2654.734	37.88
2658.311	44.88
2661.885	31.88
2665.456	34.88
2669.025	34.88
2672.589	32.88
2676.151	31.88
2679.71	31.88
2683.266	31.88
2686.819	32.88
2690.368	29.88
2693.915	38.88
2697.458	32.88
2700.999	34.88
2704.536	26.88
2708.071	23.88
2711.602	19.88
2715.13	23.88
2718.656	17.88
2722.178	26.88
2725.697	25.88
2729.214	29.88
2732.727	27.88
2736.237	35.88
2739.744	34.88
2743.249	33.88
2746.75	36.88
2750.248	38.88
2753.743	36.88
2757.236	35.88
2760.725	42.88
2764.211	37.88
2767.695	44.88
2771.175	40.88
2774.652	37.88
2778.127	48.88
2781.598	40.88
2785.067	44.88
2788.532	43.88
2791.995	40.88
2795.455	48.88
2798.911	56.88
2802.365	54.88
2805.816	55.88
2809.264	55.88
2812.709	55.88
2816.151	50.88
2819.59	60.88
2823.026	57.88
2826.46	62.88
2829.89	57.88
2833.318	67.88
2836.742	63.88
2840.164	72.88
2843.583	72.88
2846.999	72.88
2850.412	73.88
2853.822	81.88
2857.229	79.88
2860.634	87.88
2864.035	96.88
2867.434	96.88
2870.83	97.88
2874.223	94.88
2877.613	100.88
2881	105.88
2884.385	114.88
2887.766	111.88
2891.145	118.88
2894.521	121.88
2897.894	124.88
2901.264	127.88
2904.631	129.88
2907.996	125.88
2911.358	123.88
2914.717	138.88
2918.073	137.88
2921.426	145.88
2924.777	146.88
2928.124	154.88
2931.469	164.88
2934.811	171.88
2938.15	170.88
2941.487	182.88
2944.821	183.88
2948.152	195.88
2951.48	188.88
2954.805	197.88
2958.128	210.88
2961.447	222.88
2964.765	213.88
2968.079	246.88
2971.39	235.88
2974.699	247.88
2978.005	260.88
2981.308	268.88
2984.609	279.88
2987.907	291.88
2991.202	308.88
2994.494	311.88
2997.784	331.88
3001.07	345.88
3004.355	349.88
3007.636	369.88
3010.915	375.88
3014.191	383.88
3017.464	406.88
3020.734	412.88
3024.002	417.88
3027.267	425.88
3030.53	449.88
3033.789	457.88
3037.046	449.88
3040.301	473.88
3043.552	484.88
3046.801	499.88
3050.048	521.88
3053.291	522.88
3056.532	552.88
3059.771	582.88
3063.006	586.88
3066.239	624.88
3069.469	638.88
3072.697	668.88
3075.922	680.88
3079.144	710.88
3082.364	725.88
3085.581	748.88
3088.795	768.88
3092.007	799.88
3095.216	816.88
3098.423	841.88
3101.627	861.88
3104.828	878.88
3108.026	907.88
3111.222	930.88
3114.416	941.88
3117.607	960.88
3120.795	978.88
3123.98	1028.88
3127.163	1042.88
3130.344	1070.88
3133.521	1100.88
3136.696	1124.88
3139.869	1149.88
3143.039	1170.88
3146.206	1188.88
3149.371	1203.88
3152.533	1215.88
3155.693	1268.88
3158.85	1250.88
3162.005	1258.88
3165.157	1259.88
3168.306	1274.88
3171.453	1294.88
3174.597	1278.88
3177.739	1308.88
3180.878	1294.88
3184.014	1297.88
3187.149	1306.88
3190.28	1307.88
3193.409	1322.88
3196.536	1305.88
3199.659	1330.88
3202.781	1319.88
3205.9	1341.88
3209.016	1339.88
3212.13	1350.88
3215.241	1348.88
3218.35	1346.88
3221.456	1341.88
3224.56	1310.88
3227.661	1305.88
3230.76	1302.88
3233.856	1306.88
3236.95	1292.88
3240.041	1278.88
3243.13	1258.88
3246.216	1252.88
3249.3	1255.88
3252.382	1236.88
3255.46	1232.88
3258.537	1230.88
3261.611	1218.88
3264.682	1211.88
3267.751	1210.88
3270.818	1197.88
3273.882	1208.88
3276.943	1178.88
3280.002	1183.88
3283.059	1169.88
3286.113	1163.88
3289.165	1129.88
3292.214	1122.88
3295.261	1122.88
3298.306	1100.88
3301.348	1064.88
3304.387	1061.88
3307.425	1051.88
3310.459	1027.88
3313.492	1022.88
3316.521	1012.88
3319.549	993.88
3322.574	972.88
3325.597	984.88
3328.617	967.88
3331.635	965.88
3334.65	951.88
3337.663	954.88
3340.674	936.88
3343.682	943.88
3346.688	943.88
3349.691	949.88
3352.692	930.88
3355.691	929.88
3358.687	923.88
3361.681	916.88
3364.673	902.88
3367.662	893.88
3370.649	895.88
3373.633	873.88
3376.615	865.88
3379.595	853.88
3382.572	844.88
3385.547	836.88
3388.52	823.88
3391.49	807.88
3394.458	788.88
3397.424	799.88
3400.387	780.88
3403.348	772.88
3406.307	764.88
3409.263	754.88
3412.217	742.88
3415.168	739.88
3418.118	741.88
3421.065	718.88
3424.009	713.88
3426.951	699.88
3429.891	690.88
3432.829	691.88
3435.764	677.88
3438.697	670.88
3441.628	650.88
3444.557	634.88
3447.483	611.88
3450.407	605.88
3453.328	589.88
3456.247	568.88
3459.164	548.88
3462.079	535.88
3464.991	522.88
3467.902	508.88
3470.809	501.88
3473.715	481.88
3476.618	474.88
3479.519	453.88
3482.418	441.88
3485.315	431.88
3488.209	422.88
3491.101	396.88
3493.99	398.88
3496.878	380.88
3499.763	367.88
3502.646	363.88
3505.527	354.88
3508.405	347.88
3511.281	339.88
3514.155	326.88
3517.027	303.88
3519.897	299.88
3522.764	281.88
3525.629	271.88
3528.492	258.88
3531.352	243.88
3534.211	235.88
3537.067	224.88
3539.921	213.88
3542.773	190.88
3545.622	187.88
3548.469	179.88
3551.315	171.88
3554.157	150.88
3556.998	147.88
3559.837	138.88
3562.673	138.88
3565.507	130.88
3568.339	121.88
3571.169	111.88
3573.996	107.88
3576.822	99.88
3579.645	88.88
3582.466	87.88
3585.285	85.88
3588.101	71.88
3590.916	69.88
3593.728	65.88
3596.538	60.88
3599.346	52.88
3602.152	50.88
3604.956	46.88
3607.757	33.88
3610.556	28.88
3613.354	23.88
3616.149	23.88
3618.942	19.88
3621.732	12.88
3624.521	17.88
3627.307	5.88
3630.092	5.88
3632.874	-3.12
3635.654	-11.12
3638.432	-13.12
3641.208	-9.12
3643.982	-7.12
3646.753	-14.12
3649.523	-12.12
3652.29	-19.12
3655.055	-20.12
3657.818	-27.12
3660.579	-30.12
3663.338	-32.12
3666.095	-35.12
3668.849	-39.12
3671.602	-45.12
3674.352	-43.12
3677.101	-47.12
3679.847	-49.12
3682.591	-56.12
3685.333	-51.12
3688.073	-53.12
3690.811	-56.12
3693.547	-52.12
3696.281	-64.12
3699.013	-54.12
3701.742	-59.12
3704.47	-59.12
3707.195	-66.12
3709.919	-70.12
3712.64	-67.12
3715.359	-74.12
3718.076	-70.12
3720.792	-71.12
3723.505	-73.12
3726.216	-73.12
3728.925	-75.12
3731.632	-77.12
3734.336	-80.12
3737.039	-78.12
3739.74	-70.12
3742.439	-70.12
3745.136	-82.12
3747.83	-77.12
3750.523	-84.12
3753.213	-80.12
3755.902	-88.12
3758.589	-88.12
3761.273	-80.12
3763.956	-83.12
3766.636	-80.12
3769.315	-85.12
3771.991	-83.12
3774.665	-85.12
3777.338	-85.12
3780.008	-87.12
3782.677	-91.12
3785.343	-89.12
3788.007	-88.12
3790.67	-87.12
3793.33	-84.12
3795.989	-85.12
3798.645	-82.12
3801.299	-85.12
3803.952	-89.12
3806.602	-96.12
3809.251	-91.12
3811.897	-93.12
3814.542	-90.12
3817.184	-88.12
3819.825	-88.12
3822.463	-87.12
3825.1	-88.12
3827.735	-87.12
3830.367	-90.12
3832.998	-92.12
3835.627	-93.12
3838.253	-98.12
3840.878	-94.12
3843.501	-90.12
3846.122	-91.12
3848.741	-94.12
3851.358	-88.12
3853.973	-90.12
3856.586	-89.12
3859.197	-97.12
3861.806	-93.12
3864.414	-94.12
3867.019	-95.12
3869.622	-94.12
3872.224	-90.12
3874.823	-91.12
3877.421	-83.12
3880.016	-78.12
3882.61	-80.12
3885.202	-78.12
3887.792	-81.12
3890.38	-91.12
3892.966	-91.12
3895.55	-90.12
3898.132	-96.12
3900.713	-95.12
3903.291	-94.12
3905.868	-96.12
3908.442	-94.12
3911.015	-90.12
3913.586	-99.12
3916.155	-95.12
3918.722	-99.12
3921.287	-95.12
3923.85	-95.12
3926.411	-99.12
3928.971	-97.12
3931.528	-96.12
3934.084	-92.12
3936.638	-96.12
3939.19	-98.12
3941.74	-93.12
3944.288	-98.12
3946.834	-98.12
3949.378	-100.12
3951.921	-97.12
3954.462	-95.12
3957	-99.12
3959.537	-98.12
3962.072	-100.12
3964.606	-99.12
3967.137	-98.12
3969.667	-94.12
3972.194	-94.12
3974.72	-94.12
3977.244	-100.12
3979.766	-98.12
3982.286	-96.12
3984.805	-97.12
3987.321	-92.12
3989.836	-90.12
3992.349	-93.12
3994.86	-90.12
3997.369	-96.12
3999.877	-94.12
4002.382	-96.12
4004.886	-96.12
4007.388	-96.12
4009.888	-96.12
4012.386	-93.12
4014.883	-91.12
4017.377	-87.12
4019.87	-94.12
4022.361	-93.12
4024.85	-92.12
4027.338	-94.12
4029.823	-99.12
4032.307	-98.12
4034.789	-100.12
4037.269	-93.12
4039.747	-91.12
4042.224	-92.12
4044.699	-87.12
4047.172	-95.12
4049.643	-96.12
4052.112	-99.12
4054.58	-101.12
4057.046	-95.12
4059.51	-96.12
4061.972	-95.12
4064.432	-98.12
4066.891	-97.12
4069.348	-101.12
4071.803	-97.12
4074.256	-93.12
4076.708	-96.12
4079.158	-94.12
4081.606	-96.12
4084.052	-94.12
4086.497	-101.12
4088.939	-95.12
4091.38	-92.12
4093.819	-96.12
4096.257	-101.12
4098.693	-98.12
4101.127	-107.12
4103.559	-107.12
4105.989	-64.12
4108.418	-59.12
4110.845	-52.12
4113.27	-51.12
4115.694	-42.12
4118.115	-35.12
4120.535	-100.12
4122.954	-98.12
4125.37	-96.12
4127.785	-97.12
4130.198	-93.12
4132.609	-94.12
4135.019	-103.12
4137.427	-102.12
4139.833	-107.12
4142.237	-105.12
