Data from Bacilus_dil1102_A2_RamanShift_1.txt Node
Date: Wed Mar 01 12:20:12 IST 2017
User: aro
Spectrometer: QEPB0276
Trigger mode: 0
Integration Time (sec): 5.000000E0
Scans to average: 1
Electric dark correction enabled: true
Nonlinearity correction enabled: false
Boxcar width: 0
XAxis mode: Raman Shifts
Number of Pixels in Spectrum: 1044
>>>>>Begin Spectral Data<<<<<
160.701	-22.25
166.742	-5.25
172.777	91.75
178.805	360.75
184.826	1019.75
190.841	2119.75
196.849	3361.75
202.85	4184.75
208.845	4372.75
214.833	4197.75
220.815	4017.75
226.789	3920.75
232.758	3802.75
238.719	3647.75
244.674	3485.75
250.623	3328.75
256.565	3165.75
262.5	3001.75
268.429	2842.75
274.351	2706.75
280.267	2616.75
286.176	2485.75
292.079	2394.75
297.975	2288.75
303.865	2215.75
309.748	2165.75
315.625	2120.75
321.495	2056.75
327.359	2025.75
333.217	2011.75
339.068	1985.75
344.912	1979.75
350.751	1960.75
356.583	1956.75
362.408	1962.75
368.227	1967.75
374.04	1950.75
379.847	1982.75
385.647	1997.75
391.44	1998.75
397.228	2021.75
403.009	2021.75
408.784	2006.75
414.553	2051.75
420.315	2030.75
426.071	2037.75
431.821	2030.75
437.565	2015.75
443.302	2013.75
449.033	2005.75
454.758	2003.75
460.477	1988.75
466.189	1984.75
471.896	1956.75
477.596	1956.75
483.29	1943.75
488.978	1915.75
494.66	1924.75
500.335	1885.75
506.005	1856.75
511.668	1808.75
517.325	1756.75
522.977	1741.75
528.622	1702.75
534.261	1689.75
539.894	1670.75
545.521	1645.75
551.141	1633.75
556.756	1603.75
562.365	1602.75
567.968	1567.75
573.565	1562.75
579.155	1563.75
584.74	1530.75
590.319	1512.75
595.892	1526.75
601.459	1518.75
607.02	1502.75
612.575	1484.75
618.124	1475.75
623.667	1444.75
629.204	1434.75
634.735	1418.75
640.261	1380.75
645.781	1389.75
651.294	1394.75
656.802	1370.75
662.304	1354.75
667.8	1347.75
673.29	1337.75
678.775	1350.75
684.254	1321.75
689.726	1314.75
695.193	1306.75
700.655	1303.75
706.11	1291.75
711.56	1275.75
717.004	1250.75
722.442	1271.75
727.874	1256.75
733.301	1235.75
738.722	1233.75
744.137	1205.75
749.547	1204.75
754.951	1195.75
760.349	1192.75
765.741	1174.75
771.128	1191.75
776.509	1180.75
781.885	1179.75
787.254	1178.75
792.618	1178.75
797.977	1182.75
803.33	1161.75
808.677	1149.75
814.019	1129.75
819.355	1118.75
824.686	1093.75
830.011	1080.75
835.33	1074.75
840.644	1069.75
845.952	1039.75
851.255	1039.75
856.552	1024.75
861.844	1016.75
867.13	1005.75
872.41	994.75
877.686	990.75
882.955	974.75
888.219	960.75
893.478	927.75
898.731	919.75
903.979	902.75
909.221	891.75
914.458	882.75
919.69	880.75
924.916	851.75
930.136	844.75
935.351	850.75
940.561	840.75
945.766	844.75
950.965	836.75
956.158	821.75
961.347	825.75
966.529	810.75
971.707	790.75
976.879	775.75
982.046	764.75
987.208	747.75
992.364	756.75
997.515	743.75
1002.66	755.75
1007.801	747.75
1012.936	765.75
1018.066	766.75
1023.19	770.75
1028.309	763.75
1033.423	762.75
1038.532	759.75
1043.636	761.75
1048.734	744.75
1053.827	749.75
1058.915	745.75
1063.998	731.75
1069.075	720.75
1074.147	723.75
1079.214	726.75
1084.276	716.75
1089.333	722.75
1094.385	730.75
1099.431	743.75
1104.472	747.75
1109.509	741.75
1114.54	723.75
1119.565	718.75
1124.586	709.75
1129.602	693.75
1134.613	700.75
1139.618	694.75
1144.619	677.75
1149.614	686.75
1154.604	687.75
1159.589	695.75
1164.57	702.75
1169.545	701.75
1174.515	697.75
1179.48	702.75
1184.44	696.75
1189.395	691.75
1194.345	678.75
1199.29	676.75
1204.23	678.75
1209.165	686.75
1214.095	695.75
1219.021	685.75
1223.941	687.75
1228.856	700.75
1233.766	691.75
1238.672	694.75
1243.572	693.75
1248.467	689.75
1253.358	685.75
1258.244	681.75
1263.124	679.75
1268	660.75
1272.871	641.75
1277.737	638.75
1282.599	627.75
1287.455	630.75
1292.306	631.75
1297.153	634.75
1301.995	643.75
1306.832	647.75
1311.664	636.75
1316.491	650.75
1321.314	652.75
1326.132	624.75
1330.945	622.75
1335.753	609.75
1340.556	599.75
1345.354	590.75
1350.148	564.75
1354.937	554.75
1359.722	560.75
1364.501	577.75
1369.276	583.75
1374.046	586.75
1378.811	596.75
1383.572	606.75
1388.327	599.75
1393.079	596.75
1397.825	584.75
1402.567	575.75
1407.304	570.75
1412.036	542.75
1416.764	563.75
1421.487	547.75
1426.205	544.75
1430.919	544.75
1435.628	538.75
1440.333	552.75
1445.032	558.75
1449.727	560.75
1454.418	566.75
1459.104	568.75
1463.785	560.75
1468.462	555.75
1473.134	549.75
1477.802	544.75
1482.465	533.75
1487.123	530.75
1491.777	543.75
1496.426	545.75
1501.071	552.75
1505.711	571.75
1510.347	573.75
1514.978	582.75
1519.604	597.75
1524.226	611.75
1528.844	612.75
1533.457	615.75
1538.065	624.75
1542.669	633.75
1547.269	629.75
1551.864	631.75
1556.454	643.75
1561.041	643.75
1565.622	650.75
1570.199	661.75
1574.772	666.75
1579.34	680.75
1583.904	702.75
1588.464	726.75
1593.019	749.75
1597.569	755.75
1602.115	771.75
1606.657	789.75
1611.195	816.75
1615.728	834.75
1620.256	840.75
1624.78	861.75
1629.3	872.75
1633.816	879.75
1638.327	917.75
1642.834	908.75
1647.336	930.75
1651.834	914.75
1656.328	916.75
1660.817	917.75
1665.302	876.75
1669.783	877.75
1674.259	846.75
1678.732	809.75
1683.199	767.75
1687.663	717.75
1692.122	673.75
1696.577	641.75
1701.028	616.75
1705.474	603.75
1709.917	580.75
1714.355	559.75
1718.788	537.75
1723.218	509.75
1727.643	494.75
1732.064	478.75
1736.481	442.75
1740.893	419.75
1745.301	400.75
1749.705	390.75
1754.105	369.75
1758.501	358.75
1762.893	341.75
1767.28	329.75
1771.663	330.75
1776.042	314.75
1780.417	316.75
1784.787	316.75
1789.154	309.75
1793.516	312.75
1797.874	313.75
1802.228	320.75
1806.578	322.75
1810.924	324.75
1815.266	305.75
1819.603	304.75
1823.937	300.75
1828.266	285.75
1832.591	278.75
1836.913	274.75
1841.23	267.75
1845.543	274.75
1849.852	270.75
1854.156	268.75
1858.457	267.75
1862.754	266.75
1867.047	267.75
1871.335	263.75
1875.62	255.75
1879.9	277.75
1884.177	268.75
1888.449	267.75
1892.718	271.75
1896.982	268.75
1901.243	270.75
1905.499	267.75
1909.752	272.75
1914	264.75
1918.245	257.75
1922.485	266.75
1926.722	277.75
1930.954	275.75
1935.183	273.75
1939.408	285.75
1943.628	283.75
1947.845	293.75
1952.058	294.75
1956.267	281.75
1960.472	285.75
1964.673	278.75
1968.87	276.75
1973.063	273.75
1977.252	282.75
1981.438	275.75
1985.619	272.75
1989.797	271.75
1993.971	283.75
1998.14	282.75
2002.306	271.75
2006.469	273.75
2010.627	274.75
2014.781	275.75
2018.932	276.75
2023.078	283.75
2027.221	284.75
2031.36	288.75
2035.495	271.75
2039.627	276.75
2043.754	274.75
2047.878	276.75
2051.998	273.75
2056.114	282.75
2060.226	284.75
2064.334	279.75
2068.439	285.75
2072.54	282.75
2076.637	290.75
2080.73	300.75
2084.82	298.75
2088.906	306.75
2092.988	296.75
2097.066	296.75
2101.14	305.75
2105.211	303.75
2109.278	302.75
2113.342	299.75
2117.401	295.75
2121.457	300.75
2125.509	299.75
2129.558	295.75
2133.602	281.75
2137.643	283.75
2141.681	283.75
2145.714	278.75
2149.744	281.75
2153.77	271.75
2157.793	265.75
2161.812	270.75
2165.827	266.75
2169.838	258.75
2173.846	256.75
2177.851	256.75
2181.851	245.75
2185.848	230.75
2189.841	235.75
2193.831	233.75
2197.817	227.75
2201.799	229.75
2205.778	221.75
2209.753	224.75
2213.725	217.75
2217.693	212.75
2221.657	211.75
2225.618	213.75
2229.575	211.75
2233.529	214.75
2237.479	207.75
2241.425	203.75
2245.368	200.75
2249.307	191.75
2253.243	199.75
2257.175	187.75
2261.104	183.75
2265.029	179.75
2268.95	174.75
2272.868	171.75
2276.783	172.75
2280.694	161.75
2284.601	163.75
2288.505	154.75
2292.405	150.75
2296.302	142.75
2300.195	147.75
2304.085	142.75
2307.971	139.75
2311.854	146.75
2315.734	131.75
2319.609	130.75
2323.482	135.75
2327.351	113.75
2331.216	120.75
2335.078	116.75
2338.937	122.75
2342.792	111.75
2346.643	108.75
2350.492	108.75
2354.336	112.75
2358.178	106.75
2362.015	114.75
2365.85	110.75
2369.681	109.75
2373.508	104.75
2377.333	108.75
2381.153	115.75
2384.971	110.75
2388.785	105.75
2392.595	104.75
2396.402	107.75
2400.206	103.75
2404.007	96.75
2407.804	99.75
2411.597	87.75
2415.388	96.75
2419.174	91.75
2422.958	88.75
2426.738	93.75
2430.515	90.75
2434.289	92.75
2438.059	83.75
2441.825	80.75
2445.589	82.75
2449.349	83.75
2453.106	75.75
2456.859	86.75
2460.61	77.75
2464.356	80.75
2468.1	75.75
2471.84	70.75
2475.577	76.75
2479.311	69.75
2483.041	73.75
2486.768	75.75
2490.492	68.75
2494.213	69.75
2497.93	76.75
2501.644	72.75
2505.355	76.75
2509.062	75.75
2512.766	65.75
2516.467	70.75
2520.165	68.75
2523.859	67.75
2527.551	63.75
2531.239	69.75
2534.923	61.75
2538.605	68.75
2542.283	62.75
2545.958	59.75
2549.63	66.75
2553.299	62.75
2556.964	56.75
2560.626	53.75
2564.285	61.75
2567.941	53.75
2571.594	52.75
2575.243	48.75
2578.89	57.75
2582.533	61.75
2586.173	51.75
2589.809	56.75
2593.443	56.75
2597.073	53.75
2600.701	47.75
2604.325	47.75
2607.946	47.75
2611.564	48.75
2615.178	48.75
2618.79	43.75
2622.398	52.75
2626.004	50.75
2629.606	49.75
2633.205	44.75
2636.801	39.75
2640.394	41.75
2643.983	42.75
2647.57	41.75
2651.153	43.75
2654.734	38.75
2658.311	43.75
2661.885	37.75
2665.456	40.75
2669.025	34.75
2672.589	42.75
2676.151	38.75
2679.71	41.75
2683.266	33.75
2686.819	36.75
2690.368	34.75
2693.915	32.75
2697.458	32.75
2700.999	33.75
2704.536	32.75
2708.071	28.75
2711.602	31.75
2715.13	25.75
2718.656	27.75
2722.178	24.75
2725.697	26.75
2729.214	29.75
2732.727	28.75
2736.237	29.75
2739.744	35.75
2743.249	37.75
2746.75	37.75
2750.248	44.75
2753.743	39.75
2757.236	44.75
2760.725	44.75
2764.211	45.75
2767.695	44.75
2771.175	46.75
2774.652	42.75
2778.127	49.75
2781.598	48.75
2785.067	57.75
2788.532	44.75
2791.995	40.75
2795.455	46.75
2798.911	50.75
2802.365	53.75
2805.816	57.75
2809.264	60.75
2812.709	54.75
2816.151	62.75
2819.59	57.75
2823.026	61.75
2826.46	66.75
2829.89	63.75
2833.318	76.75
2836.742	68.75
2840.164	64.75
2843.583	79.75
2846.999	66.75
2850.412	74.75
2853.822	81.75
2857.229	82.75
2860.634	85.75
2864.035	86.75
2867.434	98.75
2870.83	105.75
2874.223	100.75
2877.613	104.75
2881	111.75
2884.385	117.75
2887.766	116.75
2891.145	128.75
2894.521	120.75
2897.894	122.75
2901.264	125.75
2904.631	121.75
2907.996	124.75
2911.358	135.75
2914.717	136.75
2918.073	142.75
2921.426	141.75
2924.777	151.75
2928.124	159.75
2931.469	166.75
2934.811	176.75
2938.15	165.75
2941.487	182.75
2944.821	178.75
2948.152	190.75
2951.48	194.75
2954.805	206.75
2958.128	214.75
2961.447	222.75
2964.765	227.75
2968.079	231.75
2971.39	236.75
2974.699	237.75
2978.005	255.75
2981.308	262.75
2984.609	275.75
2987.907	295.75
2991.202	309.75
2994.494	319.75
2997.784	335.75
3001.07	336.75
3004.355	359.75
3007.636	372.75
3010.915	378.75
3014.191	395.75
3017.464	407.75
3020.734	408.75
3024.002	416.75
3027.267	436.75
3030.53	443.75
3033.789	454.75
3037.046	471.75
3040.301	470.75
3043.552	486.75
3046.801	509.75
3050.048	522.75
3053.291	539.75
3056.532	553.75
3059.771	576.75
3063.006	600.75
3066.239	623.75
3069.469	642.75
3072.697	671.75
3075.922	676.75
3079.144	702.75
3082.364	716.75
3085.581	747.75
3088.795	767.75
3092.007	793.75
3095.216	813.75
3098.423	838.75
3101.627	857.75
3104.828	880.75
3108.026	898.75
3111.222	912.75
3114.416	949.75
3117.607	965.75
3120.795	983.75
3123.98	1002.75
3127.163	1047.75
3130.344	1060.75
3133.521	1080.75
3136.696	1128.75
3139.869	1134.75
3143.039	1174.75
3146.206	1184.75
3149.371	1202.75
3152.533	1223.75
3155.693	1245.75
3158.85	1253.75
3162.005	1259.75
3165.157	1264.75
3168.306	1263.75
3171.453	1281.75
3174.597	1287.75
3177.739	1294.75
3180.878	1281.75
3184.014	1312.75
3187.149	1307.75
3190.28	1312.75
3193.409	1312.75
3196.536	1310.75
3199.659	1331.75
3202.781	1325.75
3205.9	1324.75
3209.016	1346.75
3212.13	1341.75
3215.241	1329.75
3218.35	1326.75
3221.456	1320.75
3224.56	1332.75
3227.661	1306.75
3230.76	1290.75
3233.856	1303.75
3236.95	1286.75
3240.041	1265.75
3243.13	1273.75
3246.216	1257.75
3249.3	1251.75
3252.382	1230.75
3255.46	1230.75
3258.537	1208.75
3261.611	1228.75
3264.682	1216.75
3267.751	1203.75
3270.818	1203.75
3273.882	1202.75
3276.943	1187.75
3280.002	1183.75
3283.059	1175.75
3286.113	1155.75
3289.165	1146.75
3292.214	1131.75
3295.261	1121.75
3298.306	1116.75
3301.348	1085.75
3304.387	1072.75
3307.425	1057.75
3310.459	1028.75
3313.492	1020.75
3316.521	1008.75
3319.549	999.75
3322.574	989.75
3325.597	996.75
3328.617	975.75
3331.635	982.75
3334.65	949.75
3337.663	953.75
3340.674	950.75
3343.682	938.75
3346.688	934.75
3349.691	929.75
3352.692	943.75
3355.691	927.75
3358.687	928.75
3361.681	928.75
3364.673	918.75
3367.662	900.75
3370.649	884.75
3373.633	880.75
3376.615	878.75
3379.595	851.75
3382.572	841.75
3385.547	837.75
3388.52	813.75
3391.49	817.75
3394.458	812.75
3397.424	799.75
3400.387	774.75
3403.348	776.75
3406.307	763.75
3409.263	753.75
3412.217	745.75
3415.168	744.75
3418.118	737.75
3421.065	720.75
3424.009	718.75
3426.951	701.75
3429.891	700.75
3432.829	702.75
3435.764	676.75
3438.697	663.75
3441.628	649.75
3444.557	646.75
3447.483	609.75
3450.407	607.75
3453.328	591.75
3456.247	577.75
3459.164	568.75
3462.079	546.75
3464.991	537.75
3467.902	516.75
3470.809	492.75
3473.715	484.75
3476.618	472.75
3479.519	449.75
3482.418	446.75
3485.315	429.75
3488.209	430.75
3491.101	417.75
3493.99	395.75
3496.878	386.75
3499.763	381.75
3502.646	368.75
3505.527	352.75
3508.405	354.75
3511.281	341.75
3514.155	330.75
3517.027	303.75
3519.897	303.75
3522.764	292.75
3525.629	261.75
3528.492	262.75
3531.352	240.75
3534.211	231.75
3537.067	219.75
3539.921	212.75
3542.773	197.75
3545.622	186.75
3548.469	185.75
3551.315	172.75
3554.157	156.75
3556.998	142.75
3559.837	138.75
3562.673	139.75
3565.507	128.75
3568.339	124.75
3571.169	120.75
3573.996	107.75
3576.822	101.75
3579.645	96.75
3582.466	88.75
3585.285	83.75
3588.101	71.75
3590.916	69.75
3593.728	62.75
3596.538	56.75
3599.346	59.75
3602.152	51.75
3604.956	39.75
3607.757	32.75
3610.556	31.75
3613.354	25.75
3616.149	15.75
3618.942	23.75
3621.732	17.75
3624.521	22.75
3627.307	3.75
3630.092	7.75
3632.874	-1.25
3635.654	-8.25
3638.432	-6.25
3641.208	-13.25
3643.982	-15.25
3646.753	-18.25
3649.523	-17.25
3652.29	-22.25
3655.055	-23.25
3657.818	-27.25
3660.579	-27.25
3663.338	-33.25
3666.095	-35.25
3668.849	-44.25
3671.602	-47.25
3674.352	-46.25
3677.101	-50.25
3679.847	-55.25
3682.591	-57.25
3685.333	-55.25
3688.073	-57.25
3690.811	-59.25
3693.547	-60.25
3696.281	-68.25
3699.013	-66.25
3701.742	-68.25
3704.47	-65.25
3707.195	-69.25
3709.919	-72.25
3712.64	-68.25
3715.359	-73.25
3718.076	-74.25
3720.792	-73.25
3723.505	-76.25
3726.216	-73.25
3728.925	-81.25
3731.632	-81.25
3734.336	-86.25
3737.039	-82.25
3739.74	-75.25
3742.439	-77.25
3745.136	-83.25
3747.83	-76.25
3750.523	-85.25
3753.213	-80.25
3755.902	-88.25
3758.589	-88.25
3761.273	-86.25
3763.956	-90.25
3766.636	-81.25
3769.315	-87.25
3771.991	-86.25
3774.665	-86.25
3777.338	-90.25
3780.008	-88.25
3782.677	-89.25
3785.343	-92.25
3788.007	-91.25
3790.67	-88.25
3793.33	-90.25
3795.989	-85.25
3798.645	-86.25
3801.299	-93.25
3803.952	-94.25
3806.602	-95.25
3809.251	-95.25
3811.897	-95.25
3814.542	-98.25
3817.184	-91.25
3819.825	-93.25
3822.463	-91.25
3825.1	-92.25
3827.735	-91.25
3830.367	-95.25
3832.998	-98.25
3835.627	-98.25
3838.253	-98.25
3840.878	-94.25
3843.501	-95.25
3846.122	-97.25
3848.741	-95.25
3851.358	-94.25
3853.973	-95.25
3856.586	-97.25
3859.197	-97.25
3861.806	-94.25
3864.414	-100.25
3867.019	-93.25
3869.622	-98.25
3872.224	-93.25
3874.823	-93.25
3877.421	-94.25
3880.016	-85.25
3882.61	-86.25
3885.202	-82.25
3887.792	-84.25
3890.38	-94.25
3892.966	-91.25
3895.55	-91.25
3898.132	-94.25
3900.713	-102.25
3903.291	-100.25
3905.868	-100.25
3908.442	-101.25
3911.015	-94.25
3913.586	-97.25
3916.155	-98.25
3918.722	-98.25
3921.287	-95.25
3923.85	-102.25
3926.411	-99.25
3928.971	-100.25
3931.528	-102.25
3934.084	-96.25
3936.638	-99.25
3939.19	-102.25
3941.74	-96.25
3944.288	-98.25
3946.834	-102.25
3949.378	-106.25
3951.921	-98.25
3954.462	-99.25
3957	-101.25
3959.537	-103.25
3962.072	-100.25
3964.606	-100.25
3967.137	-101.25
3969.667	-99.25
3972.194	-102.25
3974.72	-98.25
3977.244	-103.25
3979.766	-98.25
3982.286	-94.25
3984.805	-97.25
3987.321	-99.25
3989.836	-94.25
3992.349	-94.25
3994.86	-95.25
3997.369	-100.25
3999.877	-100.25
4002.382	-96.25
4004.886	-98.25
4007.388	-98.25
4009.888	-96.25
4012.386	-99.25
4014.883	-98.25
4017.377	-92.25
4019.87	-97.25
4022.361	-97.25
4024.85	-98.25
4027.338	-97.25
4029.823	-102.25
4032.307	-99.25
4034.789	-97.25
4037.269	-99.25
4039.747	-96.25
4042.224	-92.25
4044.699	-94.25
4047.172	-98.25
4049.643	-101.25
4052.112	-101.25
4054.58	-103.25
4057.046	-102.25
4059.51	-101.25
4061.972	-98.25
4064.432	-96.25
4066.891	-96.25
4069.348	-100.25
4071.803	-99.25
4074.256	-97.25
4076.708	-97.25
4079.158	-98.25
4081.606	-99.25
4084.052	-100.25
4086.497	-102.25
4088.939	-97.25
4091.38	-94.25
4093.819	-101.25
4096.257	-101.25
4098.693	-99.25
4101.127	-109.25
4103.559	-111.25
4105.989	-68.25
4108.418	-64.25
4110.845	-58.25
4113.27	-51.25
4115.694	-39.25
4118.115	-38.25
4120.535	-95.25
4122.954	-100.25
4125.37	-96.25
4127.785	-98.25
4130.198	-95.25
4132.609	-98.25
4135.019	-106.25
4137.427	-105.25
4139.833	-107.25
4142.237	-106.25
