Data from Bacilus_dil1105_B3_RamanShift_1.txt Node
Date: Wed Mar 01 12:38:32 IST 2017
User: aro
Spectrometer: QEPB0276
Trigger mode: 0
Integration Time (sec): 5.000000E0
Scans to average: 1
Electric dark correction enabled: true
Nonlinearity correction enabled: false
Boxcar width: 0
XAxis mode: Raman Shifts
Number of Pixels in Spectrum: 1044
>>>>>Begin Spectral Data<<<<<
160.701	-26.62
166.742	-1.62
172.777	84.38
178.805	337.38
184.826	931.38
190.841	1978.38
196.849	3115.38
202.85	3848.38
208.845	4041.38
214.833	3879.38
220.815	3757.38
226.789	3659.38
232.758	3552.38
238.719	3454.38
244.674	3320.38
250.623	3194.38
256.565	3017.38
262.5	2872.38
268.429	2759.38
274.351	2653.38
280.267	2539.38
286.176	2461.38
292.079	2381.38
297.975	2303.38
303.865	2215.38
309.748	2189.38
315.625	2125.38
321.495	2094.38
327.359	2082.38
333.217	2056.38
339.068	2022.38
344.912	2035.38
350.751	1990.38
356.583	1985.38
362.408	2004.38
368.227	2000.38
374.04	2024.38
379.847	2023.38
385.647	2031.38
391.44	2034.38
397.228	2066.38
403.009	2064.38
408.784	2066.38
414.553	2080.38
420.315	2087.38
426.071	2085.38
431.821	2076.38
437.565	2078.38
443.302	2057.38
449.033	2054.38
454.758	2039.38
460.477	2039.38
466.189	2037.38
471.896	2036.38
477.596	2011.38
483.29	2023.38
488.978	2000.38
494.66	2002.38
500.335	1976.38
506.005	1945.38
511.668	1888.38
517.325	1878.38
522.977	1831.38
528.622	1810.38
534.261	1782.38
539.894	1761.38
545.521	1759.38
551.141	1748.38
556.756	1736.38
562.365	1733.38
567.968	1724.38
573.565	1701.38
579.155	1693.38
584.74	1702.38
590.319	1667.38
595.892	1674.38
601.459	1645.38
607.02	1653.38
612.575	1639.38
618.124	1625.38
623.667	1606.38
629.204	1591.38
634.735	1587.38
640.261	1549.38
645.781	1552.38
651.294	1531.38
656.802	1513.38
662.304	1524.38
667.8	1524.38
673.29	1518.38
678.775	1501.38
684.254	1502.38
689.726	1507.38
695.193	1499.38
700.655	1487.38
706.11	1481.38
711.56	1468.38
717.004	1458.38
722.442	1447.38
727.874	1427.38
733.301	1432.38
738.722	1429.38
744.137	1416.38
749.547	1413.38
754.951	1385.38
760.349	1384.38
765.741	1402.38
771.128	1399.38
776.509	1399.38
781.885	1396.38
787.254	1394.38
792.618	1396.38
797.977	1387.38
803.33	1390.38
808.677	1358.38
814.019	1349.38
819.355	1336.38
824.686	1315.38
830.011	1316.38
835.33	1294.38
840.644	1295.38
845.952	1302.38
851.255	1292.38
856.552	1277.38
861.844	1262.38
867.13	1253.38
872.41	1260.38
877.686	1274.38
882.955	1239.38
888.219	1225.38
893.478	1203.38
898.731	1193.38
903.979	1184.38
909.221	1155.38
914.458	1146.38
919.69	1155.38
924.916	1119.38
930.136	1126.38
935.351	1129.38
940.561	1117.38
945.766	1114.38
950.965	1107.38
956.158	1124.38
961.347	1105.38
966.529	1088.38
971.707	1056.38
976.879	1062.38
982.046	1047.38
987.208	1033.38
992.364	1034.38
997.515	1043.38
1002.66	1035.38
1007.801	1046.38
1012.936	1052.38
1018.066	1063.38
1023.19	1066.38
1028.309	1085.38
1033.423	1074.38
1038.532	1076.38
1043.636	1071.38
1048.734	1060.38
1053.827	1052.38
1058.915	1041.38
1063.998	1025.38
1069.075	1023.38
1074.147	1025.38
1079.214	1030.38
1084.276	1035.38
1089.333	1033.38
1094.385	1048.38
1099.431	1048.38
1104.472	1062.38
1109.509	1050.38
1114.54	1033.38
1119.565	1035.38
1124.586	1027.38
1129.602	1009.38
1134.613	995.38
1139.618	988.38
1144.619	997.38
1149.614	985.38
1154.604	1010.38
1159.589	1012.38
1164.57	995.38
1169.545	1007.38
1174.515	1017.38
1179.48	1018.38
1184.44	1014.38
1189.395	1000.38
1194.345	1005.38
1199.29	1010.38
1204.23	989.38
1209.165	994.38
1214.095	993.38
1219.021	1001.38
1223.941	1016.38
1228.856	1020.38
1233.766	1022.38
1238.672	1022.38
1243.572	1021.38
1248.467	1019.38
1253.358	1012.38
1258.244	989.38
1263.124	984.38
1268	965.38
1272.871	949.38
1277.737	941.38
1282.599	938.38
1287.455	938.38
1292.306	945.38
1297.153	953.38
1301.995	953.38
1306.832	958.38
1311.664	963.38
1316.491	951.38
1321.314	954.38
1326.132	967.38
1330.945	957.38
1335.753	924.38
1340.556	913.38
1345.354	881.38
1350.148	867.38
1354.937	860.38
1359.722	865.38
1364.501	872.38
1369.276	878.38
1374.046	899.38
1378.811	905.38
1383.572	913.38
1388.327	909.38
1393.079	908.38
1397.825	896.38
1402.567	862.38
1407.304	861.38
1412.036	858.38
1416.764	856.38
1421.487	843.38
1426.205	836.38
1430.919	851.38
1435.628	850.38
1440.333	858.38
1445.032	859.38
1449.727	872.38
1454.418	859.38
1459.104	853.38
1463.785	870.38
1468.462	866.38
1473.134	858.38
1477.802	831.38
1482.465	849.38
1487.123	828.38
1491.777	856.38
1496.426	854.38
1501.071	853.38
1505.711	880.38
1510.347	881.38
1514.978	884.38
1519.604	903.38
1524.226	918.38
1528.844	933.38
1533.457	924.38
1538.065	933.38
1542.669	940.38
1547.269	926.38
1551.864	930.38
1556.454	938.38
1561.041	936.38
1565.622	936.38
1570.199	930.38
1574.772	938.38
1579.34	968.38
1583.904	978.38
1588.464	1013.38
1593.019	1011.38
1597.569	1022.38
1602.115	1053.38
1606.657	1048.38
1611.195	1049.38
1615.728	1074.38
1620.256	1079.38
1624.78	1088.38
1629.3	1112.38
1633.816	1118.38
1638.327	1141.38
1642.834	1141.38
1647.336	1152.38
1651.834	1160.38
1656.328	1160.38
1660.817	1155.38
1665.302	1124.38
1669.783	1103.38
1674.259	1095.38
1678.732	1065.38
1683.199	1017.38
1687.663	961.38
1692.122	935.38
1696.577	907.38
1701.028	876.38
1705.474	862.38
1709.917	859.38
1714.355	838.38
1718.788	806.38
1723.218	778.38
1727.643	767.38
1732.064	750.38
1736.481	723.38
1740.893	716.38
1745.301	681.38
1749.705	676.38
1754.105	649.38
1758.501	637.38
1762.893	609.38
1767.28	607.38
1771.663	601.38
1776.042	586.38
1780.417	591.38
1784.787	583.38
1789.154	594.38
1793.516	589.38
1797.874	606.38
1802.228	601.38
1806.578	596.38
1810.924	591.38
1815.266	596.38
1819.603	595.38
1823.937	581.38
1828.266	564.38
1832.591	550.38
1836.913	553.38
1841.23	545.38
1845.543	534.38
1849.852	537.38
1854.156	548.38
1858.457	534.38
1862.754	539.38
1867.047	538.38
1871.335	543.38
1875.62	543.38
1879.9	547.38
1884.177	547.38
1888.449	543.38
1892.718	549.38
1896.982	540.38
1901.243	538.38
1905.499	528.38
1909.752	535.38
1914	527.38
1918.245	537.38
1922.485	536.38
1926.722	541.38
1930.954	540.38
1935.183	549.38
1939.408	551.38
1943.628	564.38
1947.845	565.38
1952.058	561.38
1956.267	569.38
1960.472	556.38
1964.673	555.38
1968.87	543.38
1973.063	534.38
1977.252	542.38
1981.438	539.38
1985.619	542.38
1989.797	516.38
1993.971	523.38
1998.14	523.38
2002.306	524.38
2006.469	527.38
2010.627	536.38
2014.781	518.38
2018.932	534.38
2023.078	534.38
2027.221	523.38
2031.36	519.38
2035.495	513.38
2039.627	511.38
2043.754	506.38
2047.878	515.38
2051.998	514.38
2056.114	505.38
2060.226	514.38
2064.334	504.38
2068.439	525.38
2072.54	517.38
2076.637	521.38
2080.73	516.38
2084.82	531.38
2088.906	537.38
2092.988	534.38
2097.066	530.38
2101.14	539.38
2105.211	526.38
2109.278	531.38
2113.342	532.38
2117.401	518.38
2121.457	517.38
2125.509	518.38
2129.558	515.38
2133.602	511.38
2137.643	519.38
2141.681	512.38
2145.714	502.38
2149.744	503.38
2153.77	486.38
2157.793	488.38
2161.812	487.38
2165.827	474.38
2169.838	469.38
2173.846	471.38
2177.851	465.38
2181.851	454.38
2185.848	439.38
2189.841	431.38
2193.831	432.38
2197.817	436.38
2201.799	437.38
2205.778	427.38
2209.753	442.38
2213.725	420.38
2217.693	430.38
2221.657	421.38
2225.618	425.38
2229.575	409.38
2233.529	418.38
2237.479	420.38
2241.425	409.38
2245.368	405.38
2249.307	394.38
2253.243	392.38
2257.175	387.38
2261.104	368.38
2265.029	379.38
2268.95	359.38
2272.868	371.38
2276.783	369.38
2280.694	353.38
2284.601	347.38
2288.505	351.38
2292.405	346.38
2296.302	336.38
2300.195	340.38
2304.085	328.38
2307.971	326.38
2311.854	323.38
2315.734	326.38
2319.609	317.38
2323.482	312.38
2327.351	299.38
2331.216	299.38
2335.078	295.38
2338.937	299.38
2342.792	279.38
2346.643	287.38
2350.492	283.38
2354.336	284.38
2358.178	281.38
2362.015	292.38
2365.85	286.38
2369.681	293.38
2373.508	288.38
2377.333	275.38
2381.153	286.38
2384.971	290.38
2388.785	285.38
2392.595	281.38
2396.402	281.38
2400.206	279.38
2404.007	273.38
2407.804	276.38
2411.597	267.38
2415.388	264.38
2419.174	259.38
2422.958	266.38
2426.738	262.38
2430.515	263.38
2434.289	259.38
2438.059	261.38
2441.825	250.38
2445.589	256.38
2449.349	252.38
2453.106	251.38
2456.859	253.38
2460.61	246.38
2464.356	233.38
2468.1	234.38
2471.84	238.38
2475.577	236.38
2479.311	230.38
2483.041	232.38
2486.768	228.38
2490.492	236.38
2494.213	236.38
2497.93	244.38
2501.644	233.38
2505.355	237.38
2509.062	235.38
2512.766	227.38
2516.467	230.38
2520.165	229.38
2523.859	239.38
2527.551	223.38
2531.239	222.38
2534.923	225.38
2538.605	223.38
2542.283	214.38
2545.958	216.38
2549.63	223.38
2553.299	221.38
2556.964	215.38
2560.626	209.38
2564.285	212.38
2567.941	218.38
2571.594	211.38
2575.243	210.38
2578.89	212.38
2582.533	212.38
2586.173	196.38
2589.809	208.38
2593.443	210.38
2597.073	206.38
2600.701	212.38
2604.325	200.38
2607.946	200.38
2611.564	203.38
2615.178	193.38
2618.79	198.38
2622.398	201.38
2626.004	192.38
2629.606	189.38
2633.205	183.38
2636.801	189.38
2640.394	188.38
2643.983	193.38
2647.57	176.38
2651.153	185.38
2654.734	174.38
2658.311	174.38
2661.885	159.38
2665.456	167.38
2669.025	163.38
2672.589	170.38
2676.151	164.38
2679.71	167.38
2683.266	157.38
2686.819	162.38
2690.368	164.38
2693.915	151.38
2697.458	152.38
2700.999	153.38
2704.536	152.38
2708.071	145.38
2711.602	136.38
2715.13	148.38
2718.656	142.38
2722.178	138.38
2725.697	142.38
2729.214	142.38
2732.727	143.38
2736.237	142.38
2739.744	143.38
2743.249	147.38
2746.75	149.38
2750.248	150.38
2753.743	154.38
2757.236	152.38
2760.725	151.38
2764.211	144.38
2767.695	153.38
2771.175	159.38
2774.652	146.38
2778.127	146.38
2781.598	157.38
2785.067	154.38
2788.532	153.38
2791.995	145.38
2795.455	150.38
2798.911	154.38
2802.365	160.38
2805.816	159.38
2809.264	151.38
2812.709	157.38
2816.151	158.38
2819.59	155.38
2823.026	160.38
2826.46	160.38
2829.89	160.38
2833.318	165.38
2836.742	163.38
2840.164	158.38
2843.583	167.38
2846.999	163.38
2850.412	161.38
2853.822	170.38
2857.229	170.38
2860.634	181.38
2864.035	178.38
2867.434	187.38
2870.83	185.38
2874.223	183.38
2877.613	183.38
2881	189.38
2884.385	189.38
2887.766	194.38
2891.145	194.38
2894.521	203.38
2897.894	202.38
2901.264	203.38
2904.631	201.38
2907.996	207.38
2911.358	196.38
2914.717	203.38
2918.073	206.38
2921.426	217.38
2924.777	222.38
2928.124	226.38
2931.469	227.38
2934.811	227.38
2938.15	230.38
2941.487	241.38
2944.821	243.38
2948.152	258.38
2951.48	256.38
2954.805	253.38
2958.128	263.38
2961.447	266.38
2964.765	280.38
2968.079	281.38
2971.39	287.38
2974.699	292.38
2978.005	294.38
2981.308	304.38
2984.609	319.38
2987.907	334.38
2991.202	346.38
2994.494	346.38
2997.784	364.38
3001.07	369.38
3004.355	381.38
3007.636	388.38
3010.915	400.38
3014.191	412.38
3017.464	423.38
3020.734	427.38
3024.002	436.38
3027.267	462.38
3030.53	453.38
3033.789	456.38
3037.046	472.38
3040.301	472.38
3043.552	494.38
3046.801	503.38
3050.048	514.38
3053.291	527.38
3056.532	543.38
3059.771	567.38
3063.006	575.38
3066.239	587.38
3069.469	623.38
3072.697	640.38
3075.922	658.38
3079.144	667.38
3082.364	689.38
3085.581	704.38
3088.795	729.38
3092.007	745.38
3095.216	761.38
3098.423	772.38
3101.627	814.38
3104.828	825.38
3108.026	836.38
3111.222	856.38
3114.416	879.38
3117.607	889.38
3120.795	907.38
3123.98	939.38
3127.163	973.38
3130.344	982.38
3133.521	998.38
3136.696	1029.38
3139.869	1046.38
3143.039	1069.38
3146.206	1094.38
3149.371	1099.38
3152.533	1113.38
3155.693	1125.38
3158.85	1147.38
3162.005	1151.38
3165.157	1145.38
3168.306	1152.38
3171.453	1154.38
3174.597	1173.38
3177.739	1172.38
3180.878	1178.38
3184.014	1176.38
3187.149	1162.38
3190.28	1185.38
3193.409	1188.38
3196.536	1176.38
3199.659	1198.38
3202.781	1217.38
3205.9	1200.38
3209.016	1215.38
3212.13	1206.38
3215.241	1204.38
3218.35	1212.38
3221.456	1204.38
3224.56	1185.38
3227.661	1186.38
3230.76	1165.38
3233.856	1167.38
3236.95	1158.38
3240.041	1145.38
3243.13	1146.38
3246.216	1135.38
3249.3	1137.38
3252.382	1115.38
3255.46	1111.38
3258.537	1116.38
3261.611	1097.38
3264.682	1093.38
3267.751	1088.38
3270.818	1086.38
3273.882	1087.38
3276.943	1080.38
3280.002	1057.38
3283.059	1059.38
3286.113	1049.38
3289.165	1028.38
3292.214	1024.38
3295.261	990.38
3298.306	989.38
3301.348	970.38
3304.387	956.38
3307.425	929.38
3310.459	926.38
3313.492	909.38
3316.521	910.38
3319.549	893.38
3322.574	892.38
3325.597	872.38
3328.617	879.38
3331.635	859.38
3334.65	839.38
3337.663	853.38
3340.674	844.38
3343.682	834.38
3346.688	861.38
3349.691	839.38
3352.692	837.38
3355.691	817.38
3358.687	812.38
3361.681	805.38
3364.673	807.38
3367.662	799.38
3370.649	785.38
3373.633	793.38
3376.615	774.38
3379.595	771.38
3382.572	753.38
3385.547	743.38
3388.52	721.38
3391.49	711.38
3394.458	716.38
3397.424	704.38
3400.387	699.38
3403.348	683.38
3406.307	675.38
3409.263	671.38
3412.217	661.38
3415.168	667.38
3418.118	663.38
3421.065	651.38
3424.009	633.38
3426.951	622.38
3429.891	617.38
3432.829	614.38
3435.764	595.38
3438.697	587.38
3441.628	580.38
3444.557	565.38
3447.483	554.38
3450.407	535.38
3453.328	524.38
3456.247	516.38
3459.164	494.38
3462.079	484.38
3464.991	464.38
3467.902	456.38
3470.809	450.38
3473.715	437.38
3476.618	413.38
3479.519	400.38
3482.418	399.38
3485.315	377.38
3488.209	378.38
3491.101	365.38
3493.99	359.38
3496.878	345.38
3499.763	341.38
3502.646	325.38
3505.527	320.38
3508.405	310.38
3511.281	295.38
3514.155	285.38
3517.027	270.38
3519.897	261.38
3522.764	256.38
3525.629	238.38
3528.492	232.38
3531.352	216.38
3534.211	218.38
3537.067	202.38
3539.921	183.38
3542.773	168.38
3545.622	168.38
3548.469	158.38
3551.315	157.38
3554.157	138.38
3556.998	134.38
3559.837	122.38
3562.673	121.38
3565.507	112.38
3568.339	115.38
3571.169	105.38
3573.996	105.38
3576.822	93.38
3579.645	82.38
3582.466	80.38
3585.285	73.38
3588.101	70.38
3590.916	61.38
3593.728	59.38
3596.538	53.38
3599.346	48.38
3602.152	41.38
3604.956	41.38
3607.757	32.38
3610.556	32.38
3613.354	23.38
3616.149	19.38
3618.942	14.38
3621.732	14.38
3624.521	13.38
3627.307	4.38
3630.092	1.38
3632.874	-0.62
3635.654	-11.62
3638.432	-8.62
3641.208	-7.62
3643.982	-12.62
3646.753	-17.62
3649.523	-15.62
3652.29	-18.62
3655.055	-21.62
3657.818	-25.62
3660.579	-28.62
3663.338	-28.62
3666.095	-29.62
3668.849	-39.62
3671.602	-38.62
3674.352	-37.62
3677.101	-41.62
3679.847	-51.62
3682.591	-44.62
3685.333	-48.62
3688.073	-48.62
3690.811	-51.62
3693.547	-50.62
3696.281	-55.62
3699.013	-57.62
3701.742	-57.62
3704.47	-59.62
3707.195	-58.62
3709.919	-63.62
3712.64	-62.62
3715.359	-65.62
3718.076	-64.62
3720.792	-63.62
3723.505	-67.62
3726.216	-62.62
3728.925	-67.62
3731.632	-69.62
3734.336	-78.62
3737.039	-74.62
3739.74	-71.62
3742.439	-68.62
3745.136	-73.62
3747.83	-70.62
3750.523	-75.62
3753.213	-68.62
3755.902	-76.62
3758.589	-80.62
3761.273	-74.62
3763.956	-76.62
3766.636	-77.62
3769.315	-78.62
3771.991	-77.62
3774.665	-75.62
3777.338	-81.62
3780.008	-79.62
3782.677	-79.62
3785.343	-79.62
3788.007	-80.62
3790.67	-77.62
3793.33	-79.62
3795.989	-82.62
3798.645	-80.62
3801.299	-81.62
3803.952	-82.62
3806.602	-86.62
3809.251	-81.62
3811.897	-82.62
3814.542	-84.62
3817.184	-83.62
3819.825	-85.62
3822.463	-85.62
3825.1	-81.62
3827.735	-81.62
3830.367	-89.62
3832.998	-87.62
3835.627	-83.62
3838.253	-86.62
3840.878	-84.62
3843.501	-84.62
3846.122	-83.62
3848.741	-85.62
3851.358	-89.62
3853.973	-87.62
3856.586	-87.62
3859.197	-88.62
3861.806	-85.62
3864.414	-86.62
3867.019	-83.62
3869.622	-87.62
3872.224	-81.62
3874.823	-85.62
3877.421	-89.62
3880.016	-81.62
3882.61	-78.62
3885.202	-73.62
3887.792	-74.62
3890.38	-73.62
3892.966	-83.62
3895.55	-85.62
3898.132	-87.62
3900.713	-89.62
3903.291	-89.62
3905.868	-88.62
3908.442	-91.62
3911.015	-89.62
3913.586	-90.62
3916.155	-89.62
3918.722	-86.62
3921.287	-84.62
3923.85	-85.62
3926.411	-89.62
3928.971	-91.62
3931.528	-90.62
3934.084	-86.62
3936.638	-91.62
3939.19	-93.62
3941.74	-85.62
3944.288	-86.62
3946.834	-92.62
3949.378	-94.62
3951.921	-91.62
3954.462	-90.62
3957	-95.62
3959.537	-93.62
3962.072	-93.62
3964.606	-89.62
3967.137	-90.62
3969.667	-88.62
3972.194	-88.62
3974.72	-87.62
3977.244	-91.62
3979.766	-87.62
3982.286	-86.62
3984.805	-92.62
3987.321	-93.62
3989.836	-88.62
3992.349	-87.62
3994.86	-86.62
3997.369	-84.62
3999.877	-84.62
4002.382	-87.62
4004.886	-86.62
4007.388	-91.62
4009.888	-94.62
4012.386	-94.62
4014.883	-90.62
4017.377	-82.62
4019.87	-87.62
4022.361	-84.62
4024.85	-83.62
4027.338	-84.62
4029.823	-90.62
4032.307	-92.62
4034.789	-90.62
4037.269	-90.62
4039.747	-88.62
4042.224	-87.62
4044.699	-81.62
4047.172	-90.62
4049.643	-88.62
4052.112	-88.62
4054.58	-93.62
4057.046	-92.62
4059.51	-94.62
4061.972	-89.62
4064.432	-89.62
4066.891	-91.62
4069.348	-92.62
4071.803	-84.62
4074.256	-91.62
4076.708	-90.62
4079.158	-92.62
4081.606	-89.62
4084.052	-92.62
4086.497	-94.62
4088.939	-86.62
4091.38	-88.62
4093.819	-89.62
4096.257	-94.62
4098.693	-94.62
4101.127	-98.62
4103.559	-101.62
4105.989	-56.62
4108.418	-53.62
4110.845	-49.62
4113.27	-47.62
4115.694	-40.62
4118.115	-31.62
4120.535	-86.62
4122.954	-89.62
4125.37	-90.62
4127.785	-90.62
4130.198	-91.62
4132.609	-88.62
4135.019	-96.62
4137.427	-97.62
4139.833	-101.62
4142.237	-97.62
