Data from Bacilus_dil1103_B1_RamanShift_1.txt Node
Date: Wed Mar 01 12:42:07 IST 2017
User: aro
Spectrometer: QEPB0276
Trigger mode: 0
Integration Time (sec): 5.000000E0
Scans to average: 1
Electric dark correction enabled: true
Nonlinearity correction enabled: false
Boxcar width: 0
XAxis mode: Raman Shifts
Number of Pixels in Spectrum: 1044
>>>>>Begin Spectral Data<<<<<
160.701	-28.12
166.742	-1.12
172.777	88.88
178.805	358.88
184.826	1026.88
190.841	2139.88
196.849	3380.88
202.85	4228.88
208.845	4379.88
214.833	4233.88
220.815	4086.88
226.789	3988.88
232.758	3841.88
238.719	3713.88
244.674	3553.88
250.623	3390.88
256.565	3217.88
262.5	3067.88
268.429	2939.88
274.351	2769.88
280.267	2671.88
286.176	2571.88
292.079	2465.88
297.975	2383.88
303.865	2303.88
309.748	2233.88
315.625	2186.88
321.495	2118.88
327.359	2118.88
333.217	2090.88
339.068	2072.88
344.912	2040.88
350.751	2048.88
356.583	2053.88
362.408	2029.88
368.227	2035.88
374.04	2051.88
379.847	2060.88
385.647	2066.88
391.44	2072.88
397.228	2108.88
403.009	2098.88
408.784	2101.88
414.553	2101.88
420.315	2126.88
426.071	2118.88
431.821	2128.88
437.565	2112.88
443.302	2098.88
449.033	2081.88
454.758	2086.88
460.477	2064.88
466.189	2052.88
471.896	2060.88
477.596	2033.88
483.29	2015.88
488.978	2016.88
494.66	2010.88
500.335	1976.88
506.005	1943.88
511.668	1918.88
517.325	1866.88
522.977	1837.88
528.622	1806.88
534.261	1778.88
539.894	1746.88
545.521	1739.88
551.141	1726.88
556.756	1711.88
562.365	1710.88
567.968	1684.88
573.565	1669.88
579.155	1666.88
584.74	1630.88
590.319	1649.88
595.892	1625.88
601.459	1619.88
607.02	1604.88
612.575	1596.88
618.124	1572.88
623.667	1543.88
629.204	1532.88
634.735	1534.88
640.261	1498.88
645.781	1499.88
651.294	1487.88
656.802	1471.88
662.304	1455.88
667.8	1462.88
673.29	1441.88
678.775	1442.88
684.254	1425.88
689.726	1428.88
695.193	1418.88
700.655	1403.88
706.11	1417.88
711.56	1405.88
717.004	1371.88
722.442	1372.88
727.874	1354.88
733.301	1356.88
738.722	1333.88
744.137	1326.88
749.547	1325.88
754.951	1311.88
760.349	1321.88
765.741	1307.88
771.128	1304.88
776.509	1316.88
781.885	1314.88
787.254	1305.88
792.618	1297.88
797.977	1293.88
803.33	1281.88
808.677	1262.88
814.019	1246.88
819.355	1236.88
824.686	1214.88
830.011	1209.88
835.33	1204.88
840.644	1190.88
845.952	1176.88
851.255	1153.88
856.552	1146.88
861.844	1133.88
867.13	1135.88
872.41	1141.88
877.686	1121.88
882.955	1096.88
888.219	1091.88
893.478	1071.88
898.731	1050.88
903.979	1035.88
909.221	1010.88
914.458	996.88
919.69	982.88
924.916	983.88
930.136	968.88
935.351	971.88
940.561	969.88
945.766	970.88
950.965	957.88
956.158	959.88
961.347	954.88
966.529	933.88
971.707	926.88
976.879	906.88
982.046	886.88
987.208	880.88
992.364	885.88
997.515	877.88
1002.66	881.88
1007.801	890.88
1012.936	893.88
1018.066	888.88
1023.19	907.88
1028.309	889.88
1033.423	903.88
1038.532	907.88
1043.636	887.88
1048.734	890.88
1053.827	890.88
1058.915	866.88
1063.998	843.88
1069.075	853.88
1074.147	858.88
1079.214	874.88
1084.276	862.88
1089.333	877.88
1094.385	868.88
1099.431	881.88
1104.472	880.88
1109.509	874.88
1114.54	864.88
1119.565	865.88
1124.586	853.88
1129.602	836.88
1134.613	833.88
1139.618	819.88
1144.619	816.88
1149.614	821.88
1154.604	828.88
1159.589	821.88
1164.57	835.88
1169.545	825.88
1174.515	847.88
1179.48	832.88
1184.44	830.88
1189.395	824.88
1194.345	821.88
1199.29	813.88
1204.23	805.88
1209.165	827.88
1214.095	811.88
1219.021	824.88
1223.941	832.88
1228.856	821.88
1233.766	841.88
1238.672	841.88
1243.572	826.88
1248.467	824.88
1253.358	822.88
1258.244	823.88
1263.124	796.88
1268	798.88
1272.871	781.88
1277.737	775.88
1282.599	752.88
1287.455	759.88
1292.306	765.88
1297.153	779.88
1301.995	784.88
1306.832	782.88
1311.664	774.88
1316.491	774.88
1321.314	788.88
1326.132	768.88
1330.945	758.88
1335.753	754.88
1340.556	733.88
1345.354	712.88
1350.148	707.88
1354.937	686.88
1359.722	695.88
1364.501	703.88
1369.276	702.88
1374.046	707.88
1378.811	729.88
1383.572	726.88
1388.327	736.88
1393.079	715.88
1397.825	718.88
1402.567	702.88
1407.304	703.88
1412.036	681.88
1416.764	674.88
1421.487	679.88
1426.205	667.88
1430.919	674.88
1435.628	682.88
1440.333	679.88
1445.032	680.88
1449.727	690.88
1454.418	692.88
1459.104	697.88
1463.785	706.88
1468.462	669.88
1473.134	684.88
1477.802	670.88
1482.465	667.88
1487.123	659.88
1491.777	667.88
1496.426	680.88
1501.071	694.88
1505.711	697.88
1510.347	710.88
1514.978	710.88
1519.604	720.88
1524.226	740.88
1528.844	749.88
1533.457	757.88
1538.065	750.88
1542.669	760.88
1547.269	754.88
1551.864	763.88
1556.454	768.88
1561.041	759.88
1565.622	787.88
1570.199	767.88
1574.772	790.88
1579.34	815.88
1583.904	830.88
1588.464	833.88
1593.019	866.88
1597.569	885.88
1602.115	901.88
1606.657	917.88
1611.195	932.88
1615.728	936.88
1620.256	944.88
1624.78	968.88
1629.3	980.88
1633.816	1000.88
1638.327	1017.88
1642.834	1034.88
1647.336	1036.88
1651.834	1024.88
1656.328	1028.88
1660.817	1018.88
1665.302	1002.88
1669.783	981.88
1674.259	945.88
1678.732	913.88
1683.199	863.88
1687.663	835.88
1692.122	784.88
1696.577	749.88
1701.028	733.88
1705.474	693.88
1709.917	704.88
1714.355	675.88
1718.788	647.88
1723.218	626.88
1727.643	616.88
1732.064	589.88
1736.481	565.88
1740.893	536.88
1745.301	522.88
1749.705	490.88
1754.105	480.88
1758.501	463.88
1762.893	446.88
1767.28	443.88
1771.663	438.88
1776.042	421.88
1780.417	419.88
1784.787	425.88
1789.154	423.88
1793.516	420.88
1797.874	424.88
1802.228	437.88
1806.578	430.88
1810.924	424.88
1815.266	423.88
1819.603	408.88
1823.937	406.88
1828.266	400.88
1832.591	379.88
1836.913	384.88
1841.23	370.88
1845.543	373.88
1849.852	373.88
1854.156	369.88
1858.457	376.88
1862.754	378.88
1867.047	368.88
1871.335	375.88
1875.62	377.88
1879.9	382.88
1884.177	365.88
1888.449	377.88
1892.718	371.88
1896.982	373.88
1901.243	372.88
1905.499	369.88
1909.752	362.88
1914	373.88
1918.245	378.88
1922.485	378.88
1926.722	361.88
1930.954	385.88
1935.183	383.88
1939.408	388.88
1943.628	402.88
1947.845	394.88
1952.058	391.88
1956.267	392.88
1960.472	395.88
1964.673	380.88
1968.87	386.88
1973.063	379.88
1977.252	370.88
1981.438	375.88
1985.619	378.88
1989.797	368.88
1993.971	374.88
1998.14	372.88
2002.306	382.88
2006.469	377.88
2010.627	383.88
2014.781	381.88
2018.932	380.88
2023.078	385.88
2027.221	380.88
2031.36	376.88
2035.495	372.88
2039.627	371.88
2043.754	373.88
2047.878	368.88
2051.998	374.88
2056.114	369.88
2060.226	367.88
2064.334	370.88
2068.439	377.88
2072.54	370.88
2076.637	382.88
2080.73	383.88
2084.82	383.88
2088.906	395.88
2092.988	409.88
2097.066	399.88
2101.14	400.88
2105.211	397.88
2109.278	385.88
2113.342	391.88
2117.401	392.88
2121.457	374.88
2125.509	382.88
2129.558	381.88
2133.602	379.88
2137.643	369.88
2141.681	369.88
2145.714	352.88
2149.744	365.88
2153.77	356.88
2157.793	354.88
2161.812	358.88
2165.827	358.88
2169.838	340.88
2173.846	342.88
2177.851	332.88
2181.851	334.88
2185.848	321.88
2189.841	316.88
2193.831	301.88
2197.817	310.88
2201.799	308.88
2205.778	311.88
2209.753	307.88
2213.725	301.88
2217.693	291.88
2221.657	291.88
2225.618	290.88
2229.575	287.88
2233.529	289.88
2237.479	283.88
2241.425	284.88
2245.368	279.88
2249.307	271.88
2253.243	280.88
2257.175	265.88
2261.104	259.88
2265.029	254.88
2268.95	256.88
2272.868	246.88
2276.783	245.88
2280.694	228.88
2284.601	234.88
2288.505	224.88
2292.405	226.88
2296.302	221.88
2300.195	218.88
2304.085	217.88
2307.971	207.88
2311.854	207.88
2315.734	206.88
2319.609	198.88
2323.482	195.88
2327.351	188.88
2331.216	196.88
2335.078	187.88
2338.937	189.88
2342.792	181.88
2346.643	171.88
2350.492	180.88
2354.336	179.88
2358.178	179.88
2362.015	174.88
2365.85	173.88
2369.681	172.88
2373.508	175.88
2377.333	175.88
2381.153	173.88
2384.971	170.88
2388.785	178.88
2392.595	172.88
2396.402	166.88
2400.206	165.88
2404.007	164.88
2407.804	164.88
2411.597	161.88
2415.388	158.88
2419.174	162.88
2422.958	153.88
2426.738	158.88
2430.515	155.88
2434.289	150.88
2438.059	157.88
2441.825	150.88
2445.589	145.88
2449.349	153.88
2453.106	148.88
2456.859	151.88
2460.61	142.88
2464.356	142.88
2468.1	133.88
2471.84	140.88
2475.577	137.88
2479.311	134.88
2483.041	133.88
2486.768	135.88
2490.492	138.88
2494.213	137.88
2497.93	138.88
2501.644	132.88
2505.355	134.88
2509.062	133.88
2512.766	127.88
2516.467	130.88
2520.165	125.88
2523.859	125.88
2527.551	129.88
2531.239	134.88
2534.923	128.88
2538.605	131.88
2542.283	120.88
2545.958	124.88
2549.63	119.88
2553.299	117.88
2556.964	114.88
2560.626	123.88
2564.285	125.88
2567.941	111.88
2571.594	108.88
2575.243	118.88
2578.89	115.88
2582.533	114.88
2586.173	116.88
2589.809	117.88
2593.443	115.88
2597.073	109.88
2600.701	111.88
2604.325	105.88
2607.946	104.88
2611.564	104.88
2615.178	100.88
2618.79	101.88
2622.398	106.88
2626.004	103.88
2629.606	106.88
2633.205	99.88
2636.801	99.88
2640.394	94.88
2643.983	88.88
2647.57	96.88
2651.153	94.88
2654.734	96.88
2658.311	102.88
2661.885	91.88
2665.456	87.88
2669.025	83.88
2672.589	90.88
2676.151	80.88
2679.71	86.88
2683.266	80.88
2686.819	88.88
2690.368	78.88
2693.915	82.88
2697.458	73.88
2700.999	75.88
2704.536	74.88
2708.071	69.88
2711.602	67.88
2715.13	69.88
2718.656	69.88
2722.178	72.88
2725.697	73.88
2729.214	77.88
2732.727	69.88
2736.237	72.88
2739.744	73.88
2743.249	80.88
2746.75	72.88
2750.248	75.88
2753.743	78.88
2757.236	91.88
2760.725	88.88
2764.211	85.88
2767.695	83.88
2771.175	91.88
2774.652	86.88
2778.127	90.88
2781.598	92.88
2785.067	90.88
2788.532	80.88
2791.995	82.88
2795.455	89.88
2798.911	100.88
2802.365	98.88
2805.816	99.88
2809.264	93.88
2812.709	100.88
2816.151	95.88
2819.59	87.88
2823.026	98.88
2826.46	99.88
2829.89	97.88
2833.318	104.88
2836.742	102.88
2840.164	111.88
2843.583	110.88
2846.999	108.88
2850.412	110.88
2853.822	112.88
2857.229	117.88
2860.634	128.88
2864.035	127.88
2867.434	134.88
2870.83	136.88
2874.223	135.88
2877.613	139.88
2881	138.88
2884.385	143.88
2887.766	150.88
2891.145	153.88
2894.521	148.88
2897.894	156.88
2901.264	155.88
2904.631	159.88
2907.996	164.88
2911.358	154.88
2914.717	171.88
2918.073	167.88
2921.426	177.88
2924.777	181.88
2928.124	187.88
2931.469	187.88
2934.811	196.88
2938.15	195.88
2941.487	208.88
2944.821	209.88
2948.152	219.88
2951.48	220.88
2954.805	229.88
2958.128	237.88
2961.447	235.88
2964.765	242.88
2968.079	245.88
2971.39	264.88
2974.699	264.88
2978.005	280.88
2981.308	289.88
2984.609	304.88
2987.907	321.88
2991.202	337.88
2994.494	337.88
2997.784	355.88
3001.07	356.88
3004.355	375.88
3007.636	384.88
3010.915	405.88
3014.191	406.88
3017.464	420.88
3020.734	430.88
3024.002	438.88
3027.267	466.88
3030.53	451.88
3033.789	459.88
3037.046	471.88
3040.301	497.88
3043.552	495.88
3046.801	516.88
3050.048	542.88
3053.291	561.88
3056.532	571.88
3059.771	576.88
3063.006	608.88
3066.239	624.88
3069.469	655.88
3072.697	673.88
3075.922	696.88
3079.144	706.88
3082.364	736.88
3085.581	756.88
3088.795	775.88
3092.007	800.88
3095.216	825.88
3098.423	842.88
3101.627	859.88
3104.828	874.88
3108.026	898.88
3111.222	924.88
3114.416	949.88
3117.607	975.88
3120.795	1002.88
3123.98	1022.88
3127.163	1054.88
3130.344	1074.88
3133.521	1109.88
3136.696	1108.88
3139.869	1141.88
3143.039	1165.88
3146.206	1191.88
3149.371	1211.88
3152.533	1216.88
3155.693	1237.88
3158.85	1245.88
3162.005	1243.88
3165.157	1247.88
3168.306	1276.88
3171.453	1285.88
3174.597	1290.88
3177.739	1282.88
3180.878	1277.88
3184.014	1293.88
3187.149	1296.88
3190.28	1294.88
3193.409	1302.88
3196.536	1307.88
3199.659	1309.88
3202.781	1321.88
3205.9	1330.88
3209.016	1331.88
3212.13	1326.88
3215.241	1338.88
3218.35	1318.88
3221.456	1309.88
3224.56	1289.88
3227.661	1299.88
3230.76	1296.88
3233.856	1293.88
3236.95	1269.88
3240.041	1272.88
3243.13	1243.88
3246.216	1235.88
3249.3	1224.88
3252.382	1215.88
3255.46	1212.88
3258.537	1199.88
3261.611	1195.88
3264.682	1189.88
3267.751	1184.88
3270.818	1178.88
3273.882	1176.88
3276.943	1155.88
3280.002	1152.88
3283.059	1148.88
3286.113	1130.88
3289.165	1132.88
3292.214	1113.88
3295.261	1095.88
3298.306	1083.88
3301.348	1067.88
3304.387	1053.88
3307.425	1013.88
3310.459	1006.88
3313.492	995.88
3316.521	966.88
3319.549	986.88
3322.574	952.88
3325.597	954.88
3328.617	944.88
3331.635	934.88
3334.65	944.88
3337.663	924.88
3340.674	935.88
3343.682	917.88
3346.688	932.88
3349.691	917.88
3352.692	919.88
3355.691	921.88
3358.687	909.88
3361.681	895.88
3364.673	892.88
3367.662	884.88
3370.649	874.88
3373.633	858.88
3376.615	837.88
3379.595	837.88
3382.572	822.88
3385.547	803.88
3388.52	800.88
3391.49	810.88
3394.458	788.88
3397.424	763.88
3400.387	769.88
3403.348	766.88
3406.307	744.88
3409.263	745.88
3412.217	734.88
3415.168	731.88
3418.118	723.88
3421.065	703.88
3424.009	700.88
3426.951	702.88
3429.891	686.88
3432.829	667.88
3435.764	660.88
3438.697	661.88
3441.628	642.88
3444.557	614.88
3447.483	598.88
3450.407	589.88
3453.328	573.88
3456.247	561.88
3459.164	540.88
3462.079	535.88
3464.991	520.88
3467.902	491.88
3470.809	477.88
3473.715	469.88
3476.618	450.88
3479.519	445.88
3482.418	427.88
3485.315	425.88
3488.209	402.88
3491.101	396.88
3493.99	394.88
3496.878	367.88
3499.763	364.88
3502.646	352.88
3505.527	347.88
3508.405	331.88
3511.281	316.88
3514.155	311.88
3517.027	297.88
3519.897	289.88
3522.764	274.88
3525.629	260.88
3528.492	260.88
3531.352	227.88
3534.211	226.88
3537.067	210.88
3539.921	202.88
3542.773	182.88
3545.622	177.88
3548.469	171.88
3551.315	167.88
3554.157	153.88
3556.998	141.88
3559.837	137.88
3562.673	131.88
3565.507	118.88
3568.339	117.88
3571.169	106.88
3573.996	103.88
3576.822	97.88
3579.645	88.88
3582.466	83.88
3585.285	79.88
3588.101	73.88
3590.916	65.88
3593.728	61.88
3596.538	57.88
3599.346	47.88
3602.152	45.88
3604.956	40.88
3607.757	29.88
3610.556	27.88
3613.354	25.88
3616.149	18.88
3618.942	12.88
3621.732	12.88
3624.521	8.88
3627.307	-2.12
3630.092	-2.12
3632.874	-4.12
3635.654	-13.12
3638.432	-11.12
3641.208	-8.12
3643.982	-10.12
3646.753	-13.12
3649.523	-19.12
3652.29	-22.12
3655.055	-29.12
3657.818	-37.12
3660.579	-33.12
3663.338	-33.12
3666.095	-44.12
3668.849	-36.12
3671.602	-45.12
3674.352	-38.12
3677.101	-43.12
3679.847	-53.12
3682.591	-57.12
3685.333	-56.12
3688.073	-58.12
3690.811	-56.12
3693.547	-57.12
3696.281	-60.12
3699.013	-56.12
3701.742	-58.12
3704.47	-65.12
3707.195	-68.12
3709.919	-71.12
3712.64	-73.12
3715.359	-74.12
3718.076	-73.12
3720.792	-77.12
3723.505	-73.12
3726.216	-72.12
3728.925	-76.12
3731.632	-77.12
3734.336	-78.12
3737.039	-84.12
3739.74	-79.12
3742.439	-77.12
3745.136	-83.12
3747.83	-76.12
3750.523	-81.12
3753.213	-78.12
3755.902	-82.12
3758.589	-87.12
3761.273	-86.12
3763.956	-83.12
3766.636	-83.12
3769.315	-87.12
3771.991	-88.12
3774.665	-85.12
3777.338	-88.12
3780.008	-85.12
3782.677	-88.12
3785.343	-91.12
3788.007	-88.12
3790.67	-90.12
3793.33	-85.12
3795.989	-88.12
3798.645	-87.12
3801.299	-87.12
3803.952	-90.12
3806.602	-94.12
3809.251	-89.12
3811.897	-90.12
3814.542	-90.12
3817.184	-93.12
3819.825	-93.12
3822.463	-89.12
3825.1	-91.12
3827.735	-92.12
3830.367	-95.12
3832.998	-97.12
3835.627	-92.12
3838.253	-96.12
3840.878	-94.12
3843.501	-91.12
3846.122	-94.12
3848.741	-94.12
3851.358	-95.12
3853.973	-97.12
3856.586	-99.12
3859.197	-96.12
3861.806	-94.12
3864.414	-96.12
3867.019	-89.12
3869.622	-92.12
3872.224	-90.12
3874.823	-93.12
3877.421	-92.12
3880.016	-84.12
3882.61	-83.12
3885.202	-83.12
3887.792	-83.12
3890.38	-91.12
3892.966	-92.12
3895.55	-88.12
3898.132	-92.12
3900.713	-97.12
3903.291	-96.12
3905.868	-102.12
3908.442	-99.12
3911.015	-99.12
3913.586	-96.12
3916.155	-97.12
3918.722	-96.12
3921.287	-92.12
3923.85	-95.12
3926.411	-96.12
3928.971	-98.12
3931.528	-101.12
3934.084	-95.12
3936.638	-98.12
3939.19	-102.12
3941.74	-94.12
3944.288	-99.12
3946.834	-96.12
3949.378	-96.12
3951.921	-98.12
3954.462	-95.12
3957	-100.12
3959.537	-99.12
3962.072	-104.12
3964.606	-98.12
3967.137	-101.12
3969.667	-98.12
3972.194	-98.12
3974.72	-96.12
3977.244	-99.12
3979.766	-93.12
3982.286	-96.12
3984.805	-97.12
3987.321	-99.12
3989.836	-89.12
3992.349	-95.12
3994.86	-100.12
3997.369	-100.12
3999.877	-98.12
4002.382	-97.12
4004.886	-97.12
4007.388	-97.12
4009.888	-97.12
4012.386	-96.12
4014.883	-97.12
4017.377	-93.12
4019.87	-97.12
4022.361	-96.12
4024.85	-96.12
4027.338	-95.12
4029.823	-99.12
4032.307	-95.12
4034.789	-99.12
4037.269	-93.12
4039.747	-96.12
4042.224	-96.12
4044.699	-92.12
4047.172	-97.12
4049.643	-101.12
4052.112	-101.12
4054.58	-101.12
4057.046	-99.12
4059.51	-98.12
4061.972	-95.12
4064.432	-97.12
4066.891	-97.12
4069.348	-98.12
4071.803	-98.12
4074.256	-99.12
4076.708	-102.12
4079.158	-93.12
4081.606	-97.12
4084.052	-95.12
4086.497	-100.12
4088.939	-94.12
4091.38	-96.12
4093.819	-100.12
4096.257	-103.12
4098.693	-102.12
4101.127	-109.12
4103.559	-106.12
4105.989	-60.12
4108.418	-61.12
4110.845	-56.12
4113.27	-55.12
4115.694	-47.12
4118.115	-39.12
4120.535	-98.12
4122.954	-103.12
4125.37	-100.12
4127.785	-98.12
4130.198	-95.12
4132.609	-97.12
4135.019	-103.12
4137.427	-103.12
4139.833	-105.12
4142.237	-107.12
