Data from Bacilus_dil110_B1_RamanShift_1.txt Node
Date: Wed Mar 01 12:48:22 IST 2017
User: aro
Spectrometer: QEPB0276
Trigger mode: 0
Integration Time (sec): 5.000000E0
Scans to average: 1
Electric dark correction enabled: true
Nonlinearity correction enabled: false
Boxcar width: 0
XAxis mode: Raman Shifts
Number of Pixels in Spectrum: 1044
>>>>>Begin Spectral Data<<<<<
160.701	-28.12
166.742	3.88
172.777	86.88
178.805	342.88
184.826	947.88
190.841	1987.88
196.849	3159.88
202.85	3936.88
208.845	4085.88
214.833	3960.88
220.815	3822.88
226.789	3713.88
232.758	3608.88
238.719	3507.88
244.674	3396.88
250.623	3249.88
256.565	3120.88
262.5	2966.88
268.429	2855.88
274.351	2745.88
280.267	2622.88
286.176	2552.88
292.079	2454.88
297.975	2375.88
303.865	2308.88
309.748	2268.88
315.625	2216.88
321.495	2154.88
327.359	2136.88
333.217	2122.88
339.068	2102.88
344.912	2091.88
350.751	2091.88
356.583	2083.88
362.408	2056.88
368.227	2092.88
374.04	2082.88
379.847	2085.88
385.647	2096.88
391.44	2120.88
397.228	2140.88
403.009	2165.88
408.784	2157.88
414.553	2149.88
420.315	2163.88
426.071	2166.88
431.821	2163.88
437.565	2161.88
443.302	2157.88
449.033	2151.88
454.758	2146.88
460.477	2119.88
466.189	2128.88
471.896	2107.88
477.596	2110.88
483.29	2099.88
488.978	2077.88
494.66	2078.88
500.335	2032.88
506.005	2022.88
511.668	1978.88
517.325	1955.88
522.977	1921.88
528.622	1904.88
534.261	1878.88
539.894	1872.88
545.521	1846.88
551.141	1816.88
556.756	1800.88
562.365	1809.88
567.968	1799.88
573.565	1784.88
579.155	1779.88
584.74	1759.88
590.319	1761.88
595.892	1726.88
601.459	1746.88
607.02	1727.88
612.575	1709.88
618.124	1696.88
623.667	1681.88
629.204	1659.88
634.735	1658.88
640.261	1629.88
645.781	1638.88
651.294	1630.88
656.802	1609.88
662.304	1597.88
667.8	1597.88
673.29	1588.88
678.775	1594.88
684.254	1586.88
689.726	1565.88
695.193	1574.88
700.655	1557.88
706.11	1561.88
711.56	1551.88
717.004	1547.88
722.442	1506.88
727.874	1510.88
733.301	1517.88
738.722	1510.88
744.137	1496.88
749.547	1482.88
754.951	1485.88
760.349	1471.88
765.741	1498.88
771.128	1474.88
776.509	1470.88
781.885	1473.88
787.254	1457.88
792.618	1470.88
797.977	1467.88
803.33	1464.88
808.677	1452.88
814.019	1441.88
819.355	1423.88
824.686	1403.88
830.011	1385.88
835.33	1380.88
840.644	1378.88
845.952	1355.88
851.255	1359.88
856.552	1357.88
861.844	1338.88
867.13	1355.88
872.41	1364.88
877.686	1317.88
882.955	1334.88
888.219	1314.88
893.478	1284.88
898.731	1271.88
903.979	1250.88
909.221	1232.88
914.458	1210.88
919.69	1223.88
924.916	1209.88
930.136	1201.88
935.351	1198.88
940.561	1198.88
945.766	1207.88
950.965	1184.88
956.158	1192.88
961.347	1164.88
966.529	1178.88
971.707	1147.88
976.879	1139.88
982.046	1120.88
987.208	1105.88
992.364	1124.88
997.515	1116.88
1002.66	1120.88
1007.801	1124.88
1012.936	1128.88
1018.066	1133.88
1023.19	1131.88
1028.309	1147.88
1033.423	1158.88
1038.532	1162.88
1043.636	1167.88
1048.734	1165.88
1053.827	1131.88
1058.915	1118.88
1063.998	1113.88
1069.075	1100.88
1074.147	1087.88
1079.214	1098.88
1084.276	1116.88
1089.333	1125.88
1094.385	1122.88
1099.431	1137.88
1104.472	1127.88
1109.509	1131.88
1114.54	1128.88
1119.565	1117.88
1124.586	1105.88
1129.602	1096.88
1134.613	1075.88
1139.618	1068.88
1144.619	1078.88
1149.614	1078.88
1154.604	1071.88
1159.589	1067.88
1164.57	1082.88
1169.545	1092.88
1174.515	1086.88
1179.48	1096.88
1184.44	1100.88
1189.395	1081.88
1194.345	1078.88
1199.29	1060.88
1204.23	1067.88
1209.165	1082.88
1214.095	1068.88
1219.021	1073.88
1223.941	1084.88
1228.856	1101.88
1233.766	1089.88
1238.672	1096.88
1243.572	1088.88
1248.467	1089.88
1253.358	1098.88
1258.244	1074.88
1263.124	1081.88
1268	1065.88
1272.871	1035.88
1277.737	1023.88
1282.599	1034.88
1287.455	1021.88
1292.306	1008.88
1297.153	1020.88
1301.995	1045.88
1306.832	1031.88
1311.664	1035.88
1316.491	1049.88
1321.314	1052.88
1326.132	1043.88
1330.945	1038.88
1335.753	1008.88
1340.556	994.88
1345.354	959.88
1350.148	941.88
1354.937	929.88
1359.722	928.88
1364.501	945.88
1369.276	970.88
1374.046	992.88
1378.811	1025.88
1383.572	1013.88
1388.327	995.88
1393.079	995.88
1397.825	977.88
1402.567	963.88
1407.304	948.88
1412.036	943.88
1416.764	926.88
1421.487	924.88
1426.205	910.88
1430.919	921.88
1435.628	933.88
1440.333	933.88
1445.032	936.88
1449.727	936.88
1454.418	957.88
1459.104	953.88
1463.785	955.88
1468.462	953.88
1473.134	927.88
1477.802	920.88
1482.465	922.88
1487.123	907.88
1491.777	920.88
1496.426	933.88
1501.071	922.88
1505.711	946.88
1510.347	958.88
1514.978	975.88
1519.604	984.88
1524.226	998.88
1528.844	1012.88
1533.457	1014.88
1538.065	1013.88
1542.669	1016.88
1547.269	1017.88
1551.864	1022.88
1556.454	1023.88
1561.041	1011.88
1565.622	1025.88
1570.199	1018.88
1574.772	1036.88
1579.34	1051.88
1583.904	1075.88
1588.464	1084.88
1593.019	1098.88
1597.569	1116.88
1602.115	1130.88
1606.657	1149.88
1611.195	1145.88
1615.728	1135.88
1620.256	1138.88
1624.78	1161.88
1629.3	1186.88
1633.816	1184.88
1638.327	1212.88
1642.834	1212.88
1647.336	1225.88
1651.834	1219.88
1656.328	1236.88
1660.817	1219.88
1665.302	1202.88
1669.783	1184.88
1674.259	1170.88
1678.732	1124.88
1683.199	1083.88
1687.663	1031.88
1692.122	985.88
1696.577	956.88
1701.028	935.88
1705.474	937.88
1709.917	933.88
1714.355	927.88
1718.788	888.88
1723.218	871.88
1727.643	839.88
1732.064	808.88
1736.481	792.88
1740.893	765.88
1745.301	758.88
1749.705	738.88
1754.105	709.88
1758.501	700.88
1762.893	681.88
1767.28	661.88
1771.663	660.88
1776.042	647.88
1780.417	646.88
1784.787	645.88
1789.154	638.88
1793.516	643.88
1797.874	668.88
1802.228	693.88
1806.578	674.88
1810.924	675.88
1815.266	673.88
1819.603	672.88
1823.937	657.88
1828.266	647.88
1832.591	623.88
1836.913	615.88
1841.23	618.88
1845.543	605.88
1849.852	595.88
1854.156	604.88
1858.457	601.88
1862.754	607.88
1867.047	615.88
1871.335	600.88
1875.62	600.88
1879.9	609.88
1884.177	604.88
1888.449	606.88
1892.718	591.88
1896.982	600.88
1901.243	600.88
1905.499	594.88
1909.752	592.88
1914	582.88
1918.245	595.88
1922.485	596.88
1926.722	592.88
1930.954	604.88
1935.183	605.88
1939.408	616.88
1943.628	624.88
1947.845	631.88
1952.058	621.88
1956.267	625.88
1960.472	618.88
1964.673	624.88
1968.87	605.88
1973.063	612.88
1977.252	601.88
1981.438	595.88
1985.619	586.88
1989.797	590.88
1993.971	590.88
1998.14	594.88
2002.306	586.88
2006.469	583.88
2010.627	590.88
2014.781	587.88
2018.932	592.88
2023.078	584.88
2027.221	572.88
2031.36	575.88
2035.495	569.88
2039.627	571.88
2043.754	564.88
2047.878	562.88
2051.998	567.88
2056.114	566.88
2060.226	561.88
2064.334	568.88
2068.439	571.88
2072.54	563.88
2076.637	567.88
2080.73	582.88
2084.82	577.88
2088.906	591.88
2092.988	596.88
2097.066	595.88
2101.14	595.88
2105.211	580.88
2109.278	584.88
2113.342	579.88
2117.401	575.88
2121.457	572.88
2125.509	566.88
2129.558	568.88
2133.602	562.88
2137.643	564.88
2141.681	563.88
2145.714	553.88
2149.744	549.88
2153.77	554.88
2157.793	544.88
2161.812	540.88
2165.827	533.88
2169.838	522.88
2173.846	512.88
2177.851	512.88
2181.851	492.88
2185.848	486.88
2189.841	482.88
2193.831	477.88
2197.817	483.88
2201.799	474.88
2205.778	468.88
2209.753	470.88
2213.725	464.88
2217.693	474.88
2221.657	465.88
2225.618	459.88
2229.575	471.88
2233.529	462.88
2237.479	464.88
2241.425	447.88
2245.368	445.88
2249.307	436.88
2253.243	437.88
2257.175	425.88
2261.104	428.88
2265.029	415.88
2268.95	408.88
2272.868	407.88
2276.783	404.88
2280.694	401.88
2284.601	396.88
2288.505	379.88
2292.405	380.88
2296.302	378.88
2300.195	376.88
2304.085	370.88
2307.971	367.88
2311.854	353.88
2315.734	357.88
2319.609	348.88
2323.482	344.88
2327.351	337.88
2331.216	336.88
2335.078	332.88
2338.937	324.88
2342.792	330.88
2346.643	335.88
2350.492	327.88
2354.336	323.88
2358.178	319.88
2362.015	319.88
2365.85	322.88
2369.681	313.88
2373.508	320.88
2377.333	325.88
2381.153	320.88
2384.971	319.88
2388.785	315.88
2392.595	318.88
2396.402	313.88
2400.206	311.88
2404.007	303.88
2407.804	304.88
2411.597	288.88
2415.388	305.88
2419.174	302.88
2422.958	291.88
2426.738	290.88
2430.515	294.88
2434.289	291.88
2438.059	284.88
2441.825	283.88
2445.589	280.88
2449.349	277.88
2453.106	272.88
2456.859	268.88
2460.61	275.88
2464.356	268.88
2468.1	270.88
2471.84	259.88
2475.577	261.88
2479.311	261.88
2483.041	262.88
2486.768	253.88
2490.492	262.88
2494.213	256.88
2497.93	257.88
2501.644	257.88
2505.355	269.88
2509.062	265.88
2512.766	259.88
2516.467	253.88
2520.165	256.88
2523.859	247.88
2527.551	251.88
2531.239	250.88
2534.923	246.88
2538.605	253.88
2542.283	238.88
2545.958	247.88
2549.63	248.88
2553.299	237.88
2556.964	233.88
2560.626	241.88
2564.285	240.88
2567.941	239.88
2571.594	242.88
2575.243	243.88
2578.89	234.88
2582.533	240.88
2586.173	232.88
2589.809	238.88
2593.443	228.88
2597.073	228.88
2600.701	231.88
2604.325	223.88
2607.946	222.88
2611.564	222.88
2615.178	218.88
2618.79	219.88
2622.398	228.88
2626.004	221.88
2629.606	212.88
2633.205	225.88
2636.801	212.88
2640.394	202.88
2643.983	203.88
2647.57	207.88
2651.153	200.88
2654.734	204.88
2658.311	207.88
2661.885	191.88
2665.456	192.88
2669.025	185.88
2672.589	189.88
2676.151	190.88
2679.71	182.88
2683.266	185.88
2686.819	183.88
2690.368	179.88
2693.915	189.88
2697.458	179.88
2700.999	172.88
2704.536	167.88
2708.071	168.88
2711.602	164.88
2715.13	162.88
2718.656	164.88
2722.178	158.88
2725.697	158.88
2729.214	162.88
2732.727	163.88
2736.237	164.88
2739.744	165.88
2743.249	165.88
2746.75	170.88
2750.248	161.88
2753.743	170.88
2757.236	172.88
2760.725	172.88
2764.211	173.88
2767.695	182.88
2771.175	175.88
2774.652	170.88
2778.127	176.88
2781.598	169.88
2785.067	178.88
2788.532	171.88
2791.995	165.88
2795.455	175.88
2798.911	172.88
2802.365	182.88
2805.816	181.88
2809.264	184.88
2812.709	180.88
2816.151	179.88
2819.59	174.88
2823.026	174.88
2826.46	175.88
2829.89	184.88
2833.318	185.88
2836.742	178.88
2840.164	186.88
2843.583	186.88
2846.999	182.88
2850.412	187.88
2853.822	190.88
2857.229	186.88
2860.634	198.88
2864.035	195.88
2867.434	190.88
2870.83	197.88
2874.223	198.88
2877.613	198.88
2881	204.88
2884.385	203.88
2887.766	212.88
2891.145	220.88
2894.521	219.88
2897.894	217.88
2901.264	208.88
2904.631	214.88
2907.996	221.88
2911.358	223.88
2914.717	224.88
2918.073	224.88
2921.426	231.88
2924.777	228.88
2928.124	232.88
2931.469	243.88
2934.811	242.88
2938.15	248.88
2941.487	252.88
2944.821	257.88
2948.152	264.88
2951.48	264.88
2954.805	266.88
2958.128	271.88
2961.447	280.88
2964.765	286.88
2968.079	294.88
2971.39	298.88
2974.699	305.88
2978.005	311.88
2981.308	316.88
2984.609	327.88
2987.907	343.88
2991.202	351.88
2994.494	366.88
2997.784	367.88
3001.07	372.88
3004.355	397.88
3007.636	404.88
3010.915	412.88
3014.191	419.88
3017.464	423.88
3020.734	433.88
3024.002	454.88
3027.267	459.88
3030.53	460.88
3033.789	472.88
3037.046	475.88
3040.301	486.88
3043.552	494.88
3046.801	504.88
3050.048	520.88
3053.291	543.88
3056.532	556.88
3059.771	575.88
3063.006	571.88
3066.239	610.88
3069.469	624.88
3072.697	627.88
3075.922	650.88
3079.144	676.88
3082.364	698.88
3085.581	711.88
3088.795	737.88
3092.007	755.88
3095.216	772.88
3098.423	770.88
3101.627	806.88
3104.828	827.88
3108.026	835.88
3111.222	854.88
3114.416	875.88
3117.607	883.88
3120.795	917.88
3123.98	942.88
3127.163	952.88
3130.344	975.88
3133.521	990.88
3136.696	1023.88
3139.869	1041.88
3143.039	1076.88
3146.206	1089.88
3149.371	1108.88
3152.533	1116.88
3155.693	1126.88
3158.85	1115.88
3162.005	1137.88
3165.157	1151.88
3168.306	1139.88
3171.453	1142.88
3174.597	1174.88
3177.739	1174.88
3180.878	1160.88
3184.014	1186.88
3187.149	1173.88
3190.28	1211.88
3193.409	1188.88
3196.536	1185.88
3199.659	1177.88
3202.781	1189.88
3205.9	1205.88
3209.016	1204.88
3212.13	1208.88
3215.241	1211.88
3218.35	1206.88
3221.456	1196.88
3224.56	1182.88
3227.661	1175.88
3230.76	1189.88
3233.856	1173.88
3236.95	1148.88
3240.041	1158.88
3243.13	1127.88
3246.216	1122.88
3249.3	1105.88
3252.382	1117.88
3255.46	1104.88
3258.537	1100.88
3261.611	1102.88
3264.682	1095.88
3267.751	1088.88
3270.818	1072.88
3273.882	1079.88
3276.943	1071.88
3280.002	1058.88
3283.059	1049.88
3286.113	1056.88
3289.165	1031.88
3292.214	1028.88
3295.261	1008.88
3298.306	987.88
3301.348	972.88
3304.387	950.88
3307.425	959.88
3310.459	926.88
3313.492	927.88
3316.521	895.88
3319.549	890.88
3322.574	886.88
3325.597	864.88
3328.617	869.88
3331.635	866.88
3334.65	843.88
3337.663	852.88
3340.674	852.88
3343.682	850.88
3346.688	845.88
3349.691	836.88
3352.692	830.88
3355.691	832.88
3358.687	832.88
3361.681	815.88
3364.673	797.88
3367.662	803.88
3370.649	790.88
3373.633	792.88
3376.615	768.88
3379.595	764.88
3382.572	751.88
3385.547	740.88
3388.52	732.88
3391.49	729.88
3394.458	700.88
3397.424	701.88
3400.387	701.88
3403.348	676.88
3406.307	681.88
3409.263	678.88
3412.217	661.88
3415.168	649.88
3418.118	650.88
3421.065	636.88
3424.009	621.88
3426.951	627.88
3429.891	611.88
3432.829	608.88
3435.764	601.88
3438.697	579.88
3441.628	585.88
3444.557	572.88
3447.483	544.88
3450.407	532.88
3453.328	522.88
3456.247	513.88
3459.164	493.88
3462.079	480.88
3464.991	466.88
3467.902	457.88
3470.809	444.88
3473.715	436.88
3476.618	428.88
3479.519	409.88
3482.418	390.88
3485.315	385.88
3488.209	367.88
3491.101	364.88
3493.99	353.88
3496.878	342.88
3499.763	333.88
3502.646	325.88
3505.527	324.88
3508.405	306.88
3511.281	293.88
3514.155	284.88
3517.027	276.88
3519.897	265.88
3522.764	257.88
3525.629	236.88
3528.492	239.88
3531.352	202.88
3534.211	209.88
3537.067	206.88
3539.921	190.88
3542.773	176.88
3545.622	174.88
3548.469	163.88
3551.315	156.88
3554.157	145.88
3556.998	130.88
3559.837	123.88
3562.673	119.88
3565.507	124.88
3568.339	103.88
3571.169	109.88
3573.996	94.88
3576.822	91.88
3579.645	79.88
3582.466	70.88
3585.285	75.88
3588.101	65.88
3590.916	59.88
3593.728	51.88
3596.538	49.88
3599.346	45.88
3602.152	43.88
3604.956	37.88
3607.757	27.88
3610.556	27.88
3613.354	19.88
3616.149	12.88
3618.942	14.88
3621.732	10.88
3624.521	10.88
3627.307	-2.12
3630.092	3.88
3632.874	-1.12
3635.654	-13.12
3638.432	-5.12
3641.208	-10.12
3643.982	-11.12
3646.753	-14.12
3649.523	-14.12
3652.29	-24.12
3655.055	-27.12
3657.818	-28.12
3660.579	-29.12
3663.338	-33.12
3666.095	-37.12
3668.849	-40.12
3671.602	-46.12
3674.352	-35.12
3677.101	-41.12
3679.847	-52.12
3682.591	-50.12
3685.333	-50.12
3688.073	-52.12
3690.811	-57.12
3693.547	-57.12
3696.281	-58.12
3699.013	-60.12
3701.742	-60.12
3704.47	-55.12
3707.195	-64.12
3709.919	-65.12
3712.64	-62.12
3715.359	-67.12
3718.076	-69.12
3720.792	-73.12
3723.505	-70.12
3726.216	-71.12
3728.925	-73.12
3731.632	-75.12
3734.336	-73.12
3737.039	-74.12
3739.74	-70.12
3742.439	-72.12
3745.136	-78.12
3747.83	-75.12
3750.523	-82.12
3753.213	-70.12
3755.902	-79.12
3758.589	-79.12
3761.273	-76.12
3763.956	-80.12
3766.636	-76.12
3769.315	-80.12
3771.991	-79.12
3774.665	-83.12
3777.338	-90.12
3780.008	-86.12
3782.677	-85.12
3785.343	-85.12
3788.007	-84.12
3790.67	-81.12
3793.33	-79.12
3795.989	-83.12
3798.645	-84.12
3801.299	-81.12
3803.952	-86.12
3806.602	-93.12
3809.251	-87.12
3811.897	-86.12
3814.542	-88.12
3817.184	-87.12
3819.825	-84.12
3822.463	-81.12
3825.1	-83.12
3827.735	-87.12
3830.367	-93.12
3832.998	-94.12
3835.627	-89.12
3838.253	-90.12
3840.878	-92.12
3843.501	-86.12
3846.122	-89.12
3848.741	-90.12
3851.358	-86.12
3853.973	-89.12
3856.586	-92.12
3859.197	-92.12
3861.806	-88.12
3864.414	-91.12
3867.019	-83.12
3869.622	-89.12
3872.224	-84.12
3874.823	-91.12
3877.421	-88.12
3880.016	-78.12
3882.61	-81.12
3885.202	-80.12
3887.792	-84.12
3890.38	-89.12
3892.966	-88.12
3895.55	-88.12
3898.132	-91.12
3900.713	-89.12
3903.291	-90.12
3905.868	-91.12
3908.442	-93.12
3911.015	-91.12
3913.586	-99.12
3916.155	-93.12
3918.722	-97.12
3921.287	-89.12
3923.85	-92.12
3926.411	-92.12
3928.971	-92.12
3931.528	-92.12
3934.084	-88.12
3936.638	-93.12
3939.19	-96.12
3941.74	-87.12
3944.288	-93.12
3946.834	-98.12
3949.378	-95.12
3951.921	-92.12
3954.462	-89.12
3957	-96.12
3959.537	-91.12
3962.072	-95.12
3964.606	-94.12
3967.137	-92.12
3969.667	-95.12
3972.194	-94.12
3974.72	-89.12
3977.244	-95.12
3979.766	-91.12
3982.286	-90.12
3984.805	-94.12
3987.321	-90.12
3989.836	-88.12
3992.349	-92.12
3994.86	-91.12
3997.369	-95.12
3999.877	-94.12
4002.382	-91.12
4004.886	-90.12
4007.388	-92.12
4009.888	-92.12
4012.386	-91.12
4014.883	-95.12
4017.377	-89.12
4019.87	-97.12
4022.361	-91.12
4024.85	-94.12
4027.338	-90.12
4029.823	-95.12
4032.307	-96.12
4034.789	-94.12
4037.269	-90.12
4039.747	-90.12
4042.224	-86.12
4044.699	-88.12
4047.172	-92.12
4049.643	-95.12
4052.112	-96.12
4054.58	-99.12
4057.046	-98.12
4059.51	-96.12
4061.972	-92.12
4064.432	-92.12
4066.891	-86.12
4069.348	-93.12
4071.803	-93.12
4074.256	-93.12
4076.708	-94.12
4079.158	-92.12
4081.606	-94.12
4084.052	-97.12
4086.497	-96.12
4088.939	-91.12
4091.38	-91.12
4093.819	-94.12
4096.257	-99.12
4098.693	-98.12
4101.127	-102.12
4103.559	-104.12
4105.989	-60.12
4108.418	-59.12
4110.845	-52.12
4113.27	-50.12
4115.694	-44.12
4118.115	-38.12
4120.535	-91.12
4122.954	-94.12
4125.37	-92.12
4127.785	-93.12
4130.198	-91.12
4132.609	-92.12
4135.019	-99.12
4137.427	-101.12
4139.833	-105.12
4142.237	-100.12
