Data from Bacilus_dil11_A2_RamanShift_1.txt Node
Date: Wed Mar 01 12:32:32 IST 2017
User: aro
Spectrometer: QEPB0276
Trigger mode: 0
Integration Time (sec): 5.000000E0
Scans to average: 1
Electric dark correction enabled: true
Nonlinearity correction enabled: false
Boxcar width: 0
XAxis mode: Raman Shifts
Number of Pixels in Spectrum: 1044
>>>>>Begin Spectral Data<<<<<
160.701	-24.75
166.742	-0.75
172.777	79.25
178.805	320.25
184.826	892.25
190.841	1849.25
196.849	2921.25
202.85	3592.25
208.845	3775.25
214.833	3665.25
220.815	3495.25
226.789	3377.25
232.758	3294.25
238.719	3201.25
244.674	3055.25
250.623	2941.25
256.565	2776.25
262.5	2647.25
268.429	2517.25
274.351	2407.25
280.267	2306.25
286.176	2213.25
292.079	2136.25
297.975	2067.25
303.865	1991.25
309.748	1956.25
315.625	1905.25
321.495	1874.25
327.359	1843.25
333.217	1813.25
339.068	1799.25
344.912	1806.25
350.751	1796.25
356.583	1789.25
362.408	1775.25
368.227	1783.25
374.04	1799.25
379.847	1812.25
385.647	1805.25
391.44	1831.25
397.228	1829.25
403.009	1837.25
408.784	1858.25
414.553	1861.25
420.315	1858.25
426.071	1862.25
431.821	1877.25
437.565	1839.25
443.302	1840.25
449.033	1834.25
454.758	1836.25
460.477	1843.25
466.189	1818.25
471.896	1794.25
477.596	1798.25
483.29	1782.25
488.978	1782.25
494.66	1767.25
500.335	1743.25
506.005	1712.25
511.668	1681.25
517.325	1642.25
522.977	1614.25
528.622	1578.25
534.261	1553.25
539.894	1531.25
545.521	1515.25
551.141	1507.25
556.756	1500.25
562.365	1492.25
567.968	1479.25
573.565	1477.25
579.155	1468.25
584.74	1428.25
590.319	1449.25
595.892	1426.25
601.459	1429.25
607.02	1417.25
612.575	1403.25
618.124	1395.25
623.667	1374.25
629.204	1358.25
634.735	1364.25
640.261	1343.25
645.781	1319.25
651.294	1315.25
656.802	1296.25
662.304	1293.25
667.8	1292.25
673.29	1287.25
678.775	1272.25
684.254	1287.25
689.726	1275.25
695.193	1270.25
700.655	1259.25
706.11	1244.25
711.56	1243.25
717.004	1216.25
722.442	1221.25
727.874	1210.25
733.301	1194.25
738.722	1207.25
744.137	1192.25
749.547	1182.25
754.951	1169.25
760.349	1170.25
765.741	1178.25
771.128	1168.25
776.509	1163.25
781.885	1183.25
787.254	1172.25
792.618	1169.25
797.977	1156.25
803.33	1172.25
808.677	1147.25
814.019	1132.25
819.355	1098.25
824.686	1103.25
830.011	1085.25
835.33	1085.25
840.644	1071.25
845.952	1063.25
851.255	1073.25
856.552	1043.25
861.844	1042.25
867.13	1047.25
872.41	1031.25
877.686	1003.25
882.955	1006.25
888.219	982.25
893.478	982.25
898.731	958.25
903.979	937.25
909.221	934.25
914.458	913.25
919.69	924.25
924.916	903.25
930.136	909.25
935.351	888.25
940.561	894.25
945.766	878.25
950.965	883.25
956.158	883.25
961.347	887.25
966.529	882.25
971.707	851.25
976.879	854.25
982.046	840.25
987.208	832.25
992.364	820.25
997.515	802.25
1002.66	828.25
1007.801	831.25
1012.936	840.25
1018.066	835.25
1023.19	839.25
1028.309	854.25
1033.423	853.25
1038.532	855.25
1043.636	841.25
1048.734	840.25
1053.827	840.25
1058.915	843.25
1063.998	821.25
1069.075	817.25
1074.147	806.25
1079.214	813.25
1084.276	815.25
1089.333	807.25
1094.385	821.25
1099.431	832.25
1104.472	833.25
1109.509	822.25
1114.54	830.25
1119.565	810.25
1124.586	797.25
1129.602	807.25
1134.613	799.25
1139.618	785.25
1144.619	789.25
1149.614	803.25
1154.604	805.25
1159.589	795.25
1164.57	796.25
1169.545	796.25
1174.515	807.25
1179.48	805.25
1184.44	808.25
1189.395	794.25
1194.345	801.25
1199.29	797.25
1204.23	797.25
1209.165	791.25
1214.095	793.25
1219.021	782.25
1223.941	803.25
1228.856	799.25
1233.766	805.25
1238.672	816.25
1243.572	813.25
1248.467	822.25
1253.358	812.25
1258.244	809.25
1263.124	798.25
1268	771.25
1272.871	764.25
1277.737	763.25
1282.599	762.25
1287.455	759.25
1292.306	759.25
1297.153	763.25
1301.995	767.25
1306.832	774.25
1311.664	782.25
1316.491	776.25
1321.314	768.25
1326.132	759.25
1330.945	749.25
1335.753	744.25
1340.556	720.25
1345.354	703.25
1350.148	710.25
1354.937	694.25
1359.722	706.25
1364.501	707.25
1369.276	727.25
1374.046	725.25
1378.811	737.25
1383.572	738.25
1388.327	731.25
1393.079	733.25
1397.825	723.25
1402.567	713.25
1407.304	702.25
1412.036	695.25
1416.764	690.25
1421.487	689.25
1426.205	697.25
1430.919	701.25
1435.628	692.25
1440.333	690.25
1445.032	712.25
1449.727	715.25
1454.418	723.25
1459.104	708.25
1463.785	713.25
1468.462	705.25
1473.134	694.25
1477.802	693.25
1482.465	686.25
1487.123	693.25
1491.777	704.25
1496.426	712.25
1501.071	711.25
1505.711	725.25
1510.347	741.25
1514.978	758.25
1519.604	762.25
1524.226	773.25
1528.844	792.25
1533.457	771.25
1538.065	797.25
1542.669	792.25
1547.269	792.25
1551.864	792.25
1556.454	795.25
1561.041	796.25
1565.622	811.25
1570.199	805.25
1574.772	820.25
1579.34	849.25
1583.904	850.25
1588.464	884.25
1593.019	879.25
1597.569	906.25
1602.115	929.25
1606.657	931.25
1611.195	946.25
1615.728	955.25
1620.256	949.25
1624.78	989.25
1629.3	977.25
1633.816	1010.25
1638.327	1012.25
1642.834	1025.25
1647.336	1044.25
1651.834	1034.25
1656.328	1048.25
1660.817	1029.25
1665.302	1017.25
1669.783	1010.25
1674.259	979.25
1678.732	931.25
1683.199	893.25
1687.663	856.25
1692.122	827.25
1696.577	797.25
1701.028	798.25
1705.474	785.25
1709.917	752.25
1714.355	744.25
1718.788	714.25
1723.218	699.25
1727.643	693.25
1732.064	657.25
1736.481	633.25
1740.893	622.25
1745.301	607.25
1749.705	591.25
1754.105	567.25
1758.501	544.25
1762.893	537.25
1767.28	525.25
1771.663	524.25
1776.042	518.25
1780.417	520.25
1784.787	521.25
1789.154	519.25
1793.516	529.25
1797.874	532.25
1802.228	544.25
1806.578	534.25
1810.924	539.25
1815.266	536.25
1819.603	523.25
1823.937	509.25
1828.266	503.25
1832.591	495.25
1836.913	484.25
1841.23	484.25
1845.543	477.25
1849.852	486.25
1854.156	488.25
1858.457	496.25
1862.754	483.25
1867.047	494.25
1871.335	486.25
1875.62	482.25
1879.9	492.25
1884.177	485.25
1888.449	485.25
1892.718	493.25
1896.982	485.25
1901.243	490.25
1905.499	474.25
1909.752	480.25
1914	491.25
1918.245	488.25
1922.485	487.25
1926.722	496.25
1930.954	493.25
1935.183	514.25
1939.408	512.25
1943.628	515.25
1947.845	524.25
1952.058	516.25
1956.267	501.25
1960.472	514.25
1964.673	516.25
1968.87	502.25
1973.063	504.25
1977.252	498.25
1981.438	499.25
1985.619	491.25
1989.797	480.25
1993.971	488.25
1998.14	487.25
2002.306	487.25
2006.469	482.25
2010.627	499.25
2014.781	477.25
2018.932	484.25
2023.078	491.25
2027.221	489.25
2031.36	488.25
2035.495	486.25
2039.627	483.25
2043.754	476.25
2047.878	480.25
2051.998	475.25
2056.114	478.25
2060.226	482.25
2064.334	486.25
2068.439	498.25
2072.54	492.25
2076.637	494.25
2080.73	496.25
2084.82	514.25
2088.906	512.25
2092.988	515.25
2097.066	521.25
2101.14	511.25
2105.211	512.25
2109.278	504.25
2113.342	509.25
2117.401	493.25
2121.457	494.25
2125.509	497.25
2129.558	497.25
2133.602	487.25
2137.643	485.25
2141.681	488.25
2145.714	475.25
2149.744	473.25
2153.77	471.25
2157.793	472.25
2161.812	480.25
2165.827	462.25
2169.838	450.25
2173.846	457.25
2177.851	438.25
2181.851	442.25
2185.848	426.25
2189.841	422.25
2193.831	413.25
2197.817	423.25
2201.799	420.25
2205.778	409.25
2209.753	412.25
2213.725	407.25
2217.693	410.25
2221.657	408.25
2225.618	405.25
2229.575	395.25
2233.529	404.25
2237.479	402.25
2241.425	398.25
2245.368	393.25
2249.307	379.25
2253.243	379.25
2257.175	377.25
2261.104	371.25
2265.029	362.25
2268.95	352.25
2272.868	358.25
2276.783	358.25
2280.694	342.25
2284.601	335.25
2288.505	335.25
2292.405	330.25
2296.302	323.25
2300.195	325.25
2304.085	315.25
2307.971	310.25
2311.854	312.25
2315.734	303.25
2319.609	302.25
2323.482	299.25
2327.351	294.25
2331.216	301.25
2335.078	287.25
2338.937	285.25
2342.792	282.25
2346.643	277.25
2350.492	279.25
2354.336	277.25
2358.178	282.25
2362.015	279.25
2365.85	283.25
2369.681	277.25
2373.508	274.25
2377.333	282.25
2381.153	287.25
2384.971	277.25
2388.785	278.25
2392.595	273.25
2396.402	272.25
2400.206	271.25
2404.007	263.25
2407.804	268.25
2411.597	253.25
2415.388	260.25
2419.174	253.25
2422.958	254.25
2426.738	255.25
2430.515	245.25
2434.289	252.25
2438.059	245.25
2441.825	251.25
2445.589	242.25
2449.349	244.25
2453.106	232.25
2456.859	243.25
2460.61	240.25
2464.356	225.25
2468.1	230.25
2471.84	222.25
2475.577	241.25
2479.311	228.25
2483.041	227.25
2486.768	232.25
2490.492	233.25
2494.213	232.25
2497.93	239.25
2501.644	217.25
2505.355	227.25
2509.062	225.25
2512.766	219.25
2516.467	220.25
2520.165	220.25
2523.859	221.25
2527.551	220.25
2531.239	223.25
2534.923	218.25
2538.605	216.25
2542.283	205.25
2545.958	210.25
2549.63	212.25
2553.299	205.25
2556.964	209.25
2560.626	206.25
2564.285	204.25
2567.941	196.25
2571.594	207.25
2575.243	205.25
2578.89	192.25
2582.533	201.25
2586.173	195.25
2589.809	204.25
2593.443	192.25
2597.073	200.25
2600.701	188.25
2604.325	192.25
2607.946	193.25
2611.564	195.25
2615.178	187.25
2618.79	192.25
2622.398	189.25
2626.004	185.25
2629.606	187.25
2633.205	181.25
2636.801	178.25
2640.394	172.25
2643.983	174.25
2647.57	174.25
2651.153	175.25
2654.734	165.25
2658.311	170.25
2661.885	161.25
2665.456	163.25
2669.025	149.25
2672.589	160.25
2676.151	154.25
2679.71	150.25
2683.266	159.25
2686.819	154.25
2690.368	156.25
2693.915	151.25
2697.458	146.25
2700.999	142.25
2704.536	145.25
2708.071	137.25
2711.602	128.25
2715.13	132.25
2718.656	135.25
2722.178	137.25
2725.697	142.25
2729.214	139.25
2732.727	142.25
2736.237	144.25
2739.744	138.25
2743.249	149.25
2746.75	146.25
2750.248	141.25
2753.743	146.25
2757.236	149.25
2760.725	142.25
2764.211	149.25
2767.695	150.25
2771.175	150.25
2774.652	149.25
2778.127	149.25
2781.598	145.25
2785.067	140.25
2788.532	150.25
2791.995	140.25
2795.455	141.25
2798.911	149.25
2802.365	156.25
2805.816	155.25
2809.264	150.25
2812.709	145.25
2816.151	152.25
2819.59	147.25
2823.026	149.25
2826.46	153.25
2829.89	153.25
2833.318	155.25
2836.742	165.25
2840.164	156.25
2843.583	159.25
2846.999	160.25
2850.412	157.25
2853.822	163.25
2857.229	159.25
2860.634	171.25
2864.035	166.25
2867.434	173.25
2870.83	184.25
2874.223	179.25
2877.613	171.25
2881	180.25
2884.385	184.25
2887.766	184.25
2891.145	188.25
2894.521	182.25
2897.894	188.25
2901.264	185.25
2904.631	188.25
2907.996	191.25
2911.358	192.25
2914.717	196.25
2918.073	197.25
2921.426	202.25
2924.777	200.25
2928.124	205.25
2931.469	222.25
2934.811	222.25
2938.15	220.25
2941.487	224.25
2944.821	230.25
2948.152	240.25
2951.48	236.25
2954.805	233.25
2958.128	245.25
2961.447	251.25
2964.765	250.25
2968.079	265.25
2971.39	269.25
2974.699	280.25
2978.005	289.25
2981.308	293.25
2984.609	310.25
2987.907	311.25
2991.202	324.25
2994.494	339.25
2997.784	342.25
3001.07	357.25
3004.355	356.25
3007.636	381.25
3010.915	387.25
3014.191	395.25
3017.464	404.25
3020.734	415.25
3024.002	426.25
3027.267	433.25
3030.53	431.25
3033.789	444.25
3037.046	454.25
3040.301	465.25
3043.552	480.25
3046.801	494.25
3050.048	505.25
3053.291	513.25
3056.532	534.25
3059.771	557.25
3063.006	564.25
3066.239	578.25
3069.469	601.25
3072.697	613.25
3075.922	635.25
3079.144	661.25
3082.364	667.25
3085.581	701.25
3088.795	707.25
3092.007	747.25
3095.216	741.25
3098.423	764.25
3101.627	795.25
3104.828	801.25
3108.026	821.25
3111.222	830.25
3114.416	861.25
3117.607	874.25
3120.795	892.25
3123.98	921.25
3127.163	958.25
3130.344	955.25
3133.521	984.25
3136.696	1011.25
3139.869	1025.25
3143.039	1058.25
3146.206	1068.25
3149.371	1085.25
3152.533	1101.25
3155.693	1105.25
3158.85	1118.25
3162.005	1122.25
3165.157	1131.25
3168.306	1129.25
3171.453	1141.25
3174.597	1132.25
3177.739	1141.25
3180.878	1140.25
3184.014	1144.25
3187.149	1166.25
3190.28	1169.25
3193.409	1153.25
3196.536	1170.25
3199.659	1166.25
3202.781	1173.25
3205.9	1185.25
3209.016	1194.25
3212.13	1180.25
3215.241	1183.25
3218.35	1176.25
3221.456	1180.25
3224.56	1165.25
3227.661	1170.25
3230.76	1162.25
3233.856	1132.25
3236.95	1137.25
3240.041	1126.25
3243.13	1118.25
3246.216	1094.25
3249.3	1101.25
3252.382	1094.25
3255.46	1088.25
3258.537	1074.25
3261.611	1070.25
3264.682	1048.25
3267.751	1073.25
3270.818	1060.25
3273.882	1071.25
3276.943	1037.25
3280.002	1033.25
3283.059	1028.25
3286.113	1023.25
3289.165	1012.25
3292.214	989.25
3295.261	984.25
3298.306	974.25
3301.348	958.25
3304.387	949.25
3307.425	914.25
3310.459	915.25
3313.492	903.25
3316.521	892.25
3319.549	882.25
3322.574	859.25
3325.597	864.25
3328.617	866.25
3331.635	858.25
3334.65	843.25
3337.663	832.25
3340.674	830.25
3343.682	825.25
3346.688	826.25
3349.691	823.25
3352.692	832.25
3355.691	829.25
3358.687	823.25
3361.681	810.25
3364.673	794.25
3367.662	785.25
3370.649	789.25
3373.633	768.25
3376.615	763.25
3379.595	759.25
3382.572	740.25
3385.547	739.25
3388.52	733.25
3391.49	712.25
3394.458	710.25
3397.424	700.25
3400.387	689.25
3403.348	679.25
3406.307	665.25
3409.263	669.25
3412.217	653.25
3415.168	657.25
3418.118	644.25
3421.065	624.25
3424.009	635.25
3426.951	629.25
3429.891	619.25
3432.829	613.25
3435.764	606.25
3438.697	580.25
3441.628	571.25
3444.557	572.25
3447.483	540.25
3450.407	536.25
3453.328	516.25
3456.247	510.25
3459.164	499.25
3462.079	469.25
3464.991	456.25
3467.902	461.25
3470.809	436.25
3473.715	425.25
3476.618	415.25
3479.519	402.25
3482.418	391.25
3485.315	385.25
3488.209	369.25
3491.101	367.25
3493.99	353.25
3496.878	342.25
3499.763	336.25
3502.646	327.25
3505.527	310.25
3508.405	306.25
3511.281	300.25
3514.155	286.25
3517.027	278.25
3519.897	266.25
3522.764	254.25
3525.629	237.25
3528.492	226.25
3531.352	203.25
3534.211	204.25
3537.067	202.25
3539.921	184.25
3542.773	183.25
3545.622	167.25
3548.469	166.25
3551.315	155.25
3554.157	135.25
3556.998	132.25
3559.837	124.25
3562.673	122.25
3565.507	118.25
3568.339	115.25
3571.169	107.25
3573.996	102.25
3576.822	88.25
3579.645	82.25
3582.466	78.25
3585.285	71.25
3588.101	65.25
3590.916	54.25
3593.728	54.25
3596.538	55.25
3599.346	48.25
3602.152	52.25
3604.956	38.25
3607.757	36.25
3610.556	26.25
3613.354	23.25
3616.149	18.25
3618.942	18.25
3621.732	14.25
3624.521	17.25
3627.307	7.25
3630.092	5.25
3632.874	1.25
3635.654	-5.75
3638.432	-0.75
3641.208	-6.75
3643.982	-5.75
3646.753	-11.75
3649.523	-12.75
3652.29	-18.75
3655.055	-21.75
3657.818	-22.75
3660.579	-25.75
3663.338	-25.75
3666.095	-26.75
3668.849	-27.75
3671.602	-36.75
3674.352	-34.75
3677.101	-39.75
3679.847	-41.75
3682.591	-43.75
3685.333	-43.75
3688.073	-48.75
3690.811	-48.75
3693.547	-48.75
3696.281	-52.75
3699.013	-48.75
3701.742	-52.75
3704.47	-57.75
3707.195	-61.75
3709.919	-61.75
3712.64	-58.75
3715.359	-62.75
3718.076	-60.75
3720.792	-60.75
3723.505	-65.75
3726.216	-66.75
3728.925	-65.75
3731.632	-68.75
3734.336	-74.75
3737.039	-71.75
3739.74	-64.75
3742.439	-62.75
3745.136	-69.75
3747.83	-66.75
3750.523	-73.75
3753.213	-67.75
3755.902	-71.75
3758.589	-73.75
3761.273	-75.75
3763.956	-74.75
3766.636	-70.75
3769.315	-70.75
3771.991	-75.75
3774.665	-74.75
3777.338	-76.75
3780.008	-70.75
3782.677	-76.75
3785.343	-78.75
3788.007	-78.75
3790.67	-74.75
3793.33	-79.75
3795.989	-77.75
3798.645	-70.75
3801.299	-73.75
3803.952	-78.75
3806.602	-83.75
3809.251	-78.75
3811.897	-74.75
3814.542	-78.75
3817.184	-79.75
3819.825	-77.75
3822.463	-75.75
3825.1	-80.75
3827.735	-79.75
3830.367	-80.75
3832.998	-82.75
3835.627	-77.75
3838.253	-81.75
3840.878	-82.75
3843.501	-81.75
3846.122	-80.75
3848.741	-84.75
3851.358	-81.75
3853.973	-78.75
3856.586	-82.75
3859.197	-84.75
3861.806	-82.75
3864.414	-82.75
3867.019	-82.75
3869.622	-83.75
3872.224	-78.75
3874.823	-80.75
3877.421	-81.75
3880.016	-72.75
3882.61	-76.75
3885.202	-71.75
3887.792	-73.75
3890.38	-78.75
3892.966	-77.75
3895.55	-76.75
3898.132	-81.75
3900.713	-85.75
3903.291	-86.75
3905.868	-81.75
3908.442	-85.75
3911.015	-82.75
3913.586	-84.75
3916.155	-84.75
3918.722	-82.75
3921.287	-80.75
3923.85	-81.75
3926.411	-85.75
3928.971	-85.75
3931.528	-86.75
3934.084	-83.75
3936.638	-85.75
3939.19	-86.75
3941.74	-82.75
3944.288	-83.75
3946.834	-80.75
3949.378	-86.75
3951.921	-82.75
3954.462	-85.75
3957	-89.75
3959.537	-85.75
3962.072	-89.75
3964.606	-86.75
3967.137	-88.75
3969.667	-86.75
3972.194	-85.75
3974.72	-77.75
3977.244	-88.75
3979.766	-86.75
3982.286	-80.75
3984.805	-86.75
3987.321	-89.75
3989.836	-81.75
3992.349	-83.75
3994.86	-82.75
3997.369	-87.75
3999.877	-82.75
4002.382	-81.75
4004.886	-81.75
4007.388	-87.75
4009.888	-87.75
4012.386	-90.75
4014.883	-85.75
4017.377	-79.75
4019.87	-85.75
4022.361	-83.75
4024.85	-81.75
4027.338	-79.75
4029.823	-87.75
4032.307	-85.75
4034.789	-83.75
4037.269	-81.75
4039.747	-83.75
4042.224	-84.75
4044.699	-78.75
4047.172	-84.75
4049.643	-84.75
4052.112	-84.75
4054.58	-88.75
4057.046	-82.75
4059.51	-85.75
4061.972	-84.75
4064.432	-87.75
4066.891	-84.75
4069.348	-85.75
4071.803	-85.75
4074.256	-83.75
4076.708	-84.75
4079.158	-87.75
4081.606	-81.75
4084.052	-83.75
4086.497	-87.75
4088.939	-82.75
4091.38	-81.75
4093.819	-87.75
4096.257	-89.75
4098.693	-87.75
4101.127	-92.75
4103.559	-93.75
4105.989	-50.75
4108.418	-55.75
4110.845	-51.75
4113.27	-46.75
4115.694	-37.75
4118.115	-29.75
4120.535	-86.75
4122.954	-86.75
4125.37	-84.75
4127.785	-81.75
4130.198	-82.75
4132.609	-81.75
4135.019	-88.75
4137.427	-93.75
4139.833	-94.75
4142.237	-96.75
