Data from Bacilus_dil1102_B3_RamanShift_1.txt Node
Date: Wed Mar 01 12:47:22 IST 2017
User: aro
Spectrometer: QEPB0276
Trigger mode: 0
Integration Time (sec): 5.000000E0
Scans to average: 1
Electric dark correction enabled: true
Nonlinearity correction enabled: false
Boxcar width: 0
XAxis mode: Raman Shifts
Number of Pixels in Spectrum: 1044
>>>>>Begin Spectral Data<<<<<
160.701	-25.38
166.742	-4.38
172.777	84.62
178.805	330.62
184.826	948.62
190.841	1959.62
196.849	3116.62
202.85	3836.62
208.845	4023.62
214.833	3887.62
220.815	3745.62
226.789	3606.62
232.758	3529.62
238.719	3397.62
244.674	3249.62
250.623	3097.62
256.565	2966.62
262.5	2803.62
268.429	2689.62
274.351	2579.62
280.267	2459.62
286.176	2374.62
292.079	2291.62
297.975	2198.62
303.865	2131.62
309.748	2072.62
315.625	2014.62
321.495	1985.62
327.359	1965.62
333.217	1925.62
339.068	1928.62
344.912	1911.62
350.751	1904.62
356.583	1907.62
362.408	1897.62
368.227	1892.62
374.04	1901.62
379.847	1927.62
385.647	1939.62
391.44	1945.62
397.228	1964.62
403.009	1958.62
408.784	1965.62
414.553	1984.62
420.315	1971.62
426.071	1975.62
431.821	1969.62
437.565	1978.62
443.302	1977.62
449.033	1966.62
454.758	1934.62
460.477	1933.62
466.189	1921.62
471.896	1911.62
477.596	1896.62
483.29	1894.62
488.978	1863.62
494.66	1876.62
500.335	1849.62
506.005	1825.62
511.668	1764.62
517.325	1724.62
522.977	1707.62
528.622	1680.62
534.261	1648.62
539.894	1643.62
545.521	1622.62
551.141	1602.62
556.756	1605.62
562.365	1585.62
567.968	1569.62
573.565	1565.62
579.155	1549.62
584.74	1521.62
590.319	1533.62
595.892	1520.62
601.459	1502.62
607.02	1497.62
612.575	1474.62
618.124	1460.62
623.667	1440.62
629.204	1427.62
634.735	1432.62
640.261	1408.62
645.781	1404.62
651.294	1389.62
656.802	1377.62
662.304	1359.62
667.8	1364.62
673.29	1353.62
678.775	1347.62
684.254	1357.62
689.726	1345.62
695.193	1343.62
700.655	1313.62
706.11	1316.62
711.56	1290.62
717.004	1284.62
722.442	1278.62
727.874	1277.62
733.301	1255.62
738.722	1265.62
744.137	1257.62
749.547	1243.62
754.951	1235.62
760.349	1236.62
765.741	1223.62
771.128	1202.62
776.509	1225.62
781.885	1223.62
787.254	1211.62
792.618	1232.62
797.977	1219.62
803.33	1215.62
808.677	1193.62
814.019	1179.62
819.355	1150.62
824.686	1140.62
830.011	1135.62
835.33	1112.62
840.644	1109.62
845.952	1100.62
851.255	1096.62
856.552	1076.62
861.844	1071.62
867.13	1067.62
872.41	1056.62
877.686	1066.62
882.955	1045.62
888.219	1039.62
893.478	1005.62
898.731	993.62
903.979	973.62
909.221	977.62
914.458	953.62
919.69	934.62
924.916	931.62
930.136	923.62
935.351	924.62
940.561	921.62
945.766	905.62
950.965	914.62
956.158	903.62
961.347	884.62
966.529	897.62
971.707	873.62
976.879	852.62
982.046	848.62
987.208	839.62
992.364	832.62
997.515	838.62
1002.66	843.62
1007.801	845.62
1012.936	841.62
1018.066	862.62
1023.19	862.62
1028.309	873.62
1033.423	870.62
1038.532	856.62
1043.636	853.62
1048.734	864.62
1053.827	838.62
1058.915	832.62
1063.998	811.62
1069.075	816.62
1074.147	813.62
1079.214	801.62
1084.276	810.62
1089.333	818.62
1094.385	831.62
1099.431	832.62
1104.472	822.62
1109.509	825.62
1114.54	829.62
1119.565	813.62
1124.586	796.62
1129.602	798.62
1134.613	796.62
1139.618	788.62
1144.619	791.62
1149.614	782.62
1154.604	782.62
1159.589	778.62
1164.57	788.62
1169.545	798.62
1174.515	796.62
1179.48	800.62
1184.44	796.62
1189.395	786.62
1194.345	793.62
1199.29	786.62
1204.23	781.62
1209.165	784.62
1214.095	791.62
1219.021	785.62
1223.941	791.62
1228.856	785.62
1233.766	793.62
1238.672	794.62
1243.572	799.62
1248.467	788.62
1253.358	781.62
1258.244	776.62
1263.124	776.62
1268	759.62
1272.871	746.62
1277.737	732.62
1282.599	734.62
1287.455	731.62
1292.306	738.62
1297.153	724.62
1301.995	732.62
1306.832	741.62
1311.664	741.62
1316.491	758.62
1321.314	747.62
1326.132	738.62
1330.945	731.62
1335.753	727.62
1340.556	707.62
1345.354	680.62
1350.148	665.62
1354.937	668.62
1359.722	675.62
1364.501	673.62
1369.276	694.62
1374.046	704.62
1378.811	712.62
1383.572	725.62
1388.327	708.62
1393.079	712.62
1397.825	681.62
1402.567	676.62
1407.304	671.62
1412.036	661.62
1416.764	650.62
1421.487	650.62
1426.205	649.62
1430.919	652.62
1435.628	653.62
1440.333	650.62
1445.032	656.62
1449.727	686.62
1454.418	672.62
1459.104	671.62
1463.785	662.62
1468.462	656.62
1473.134	661.62
1477.802	645.62
1482.465	639.62
1487.123	646.62
1491.777	654.62
1496.426	664.62
1501.071	674.62
1505.711	683.62
1510.347	690.62
1514.978	696.62
1519.604	703.62
1524.226	723.62
1528.844	730.62
1533.457	725.62
1538.065	735.62
1542.669	729.62
1547.269	734.62
1551.864	741.62
1556.454	737.62
1561.041	742.62
1565.622	744.62
1570.199	761.62
1574.772	773.62
1579.34	777.62
1583.904	797.62
1588.464	815.62
1593.019	826.62
1597.569	861.62
1602.115	868.62
1606.657	885.62
1611.195	879.62
1615.728	884.62
1620.256	907.62
1624.78	915.62
1629.3	939.62
1633.816	958.62
1638.327	970.62
1642.834	985.62
1647.336	994.62
1651.834	980.62
1656.328	988.62
1660.817	963.62
1665.302	943.62
1669.783	952.62
1674.259	907.62
1678.732	877.62
1683.199	852.62
1687.663	811.62
1692.122	763.62
1696.577	730.62
1701.028	726.62
1705.474	707.62
1709.917	697.62
1714.355	672.62
1718.788	631.62
1723.218	614.62
1727.643	597.62
1732.064	575.62
1736.481	551.62
1740.893	534.62
1745.301	518.62
1749.705	497.62
1754.105	480.62
1758.501	461.62
1762.893	435.62
1767.28	438.62
1771.663	428.62
1776.042	428.62
1780.417	424.62
1784.787	423.62
1789.154	429.62
1793.516	431.62
1797.874	435.62
1802.228	443.62
1806.578	450.62
1810.924	441.62
1815.266	434.62
1819.603	418.62
1823.937	409.62
1828.266	398.62
1832.591	393.62
1836.913	394.62
1841.23	380.62
1845.543	377.62
1849.852	369.62
1854.156	376.62
1858.457	381.62
1862.754	376.62
1867.047	379.62
1871.335	371.62
1875.62	385.62
1879.9	390.62
1884.177	386.62
1888.449	386.62
1892.718	379.62
1896.982	370.62
1901.243	382.62
1905.499	376.62
1909.752	381.62
1914	375.62
1918.245	379.62
1922.485	386.62
1926.722	389.62
1930.954	392.62
1935.183	392.62
1939.408	396.62
1943.628	404.62
1947.845	401.62
1952.058	407.62
1956.267	396.62
1960.472	398.62
1964.673	401.62
1968.87	395.62
1973.063	381.62
1977.252	393.62
1981.438	386.62
1985.619	381.62
1989.797	385.62
1993.971	384.62
1998.14	385.62
2002.306	371.62
2006.469	378.62
2010.627	380.62
2014.781	384.62
2018.932	383.62
2023.078	385.62
2027.221	385.62
2031.36	379.62
2035.495	372.62
2039.627	371.62
2043.754	371.62
2047.878	369.62
2051.998	374.62
2056.114	384.62
2060.226	380.62
2064.334	376.62
2068.439	377.62
2072.54	384.62
2076.637	393.62
2080.73	401.62
2084.82	401.62
2088.906	410.62
2092.988	408.62
2097.066	402.62
2101.14	405.62
2105.211	398.62
2109.278	388.62
2113.342	402.62
2117.401	389.62
2121.457	394.62
2125.509	388.62
2129.558	387.62
2133.602	384.62
2137.643	383.62
2141.681	385.62
2145.714	377.62
2149.744	371.62
2153.77	379.62
2157.793	368.62
2161.812	361.62
2165.827	366.62
2169.838	347.62
2173.846	338.62
2177.851	340.62
2181.851	330.62
2185.848	322.62
2189.841	323.62
2193.831	322.62
2197.817	309.62
2201.799	308.62
2205.778	306.62
2209.753	312.62
2213.725	310.62
2217.693	296.62
2221.657	294.62
2225.618	306.62
2229.575	302.62
2233.529	292.62
2237.479	305.62
2241.425	291.62
2245.368	291.62
2249.307	281.62
2253.243	278.62
2257.175	276.62
2261.104	266.62
2265.029	264.62
2268.95	245.62
2272.868	256.62
2276.783	258.62
2280.694	235.62
2284.601	240.62
2288.505	234.62
2292.405	237.62
2296.302	223.62
2300.195	230.62
2304.085	222.62
2307.971	213.62
2311.854	228.62
2315.734	211.62
2319.609	203.62
2323.482	212.62
2327.351	194.62
2331.216	201.62
2335.078	197.62
2338.937	194.62
2342.792	190.62
2346.643	186.62
2350.492	184.62
2354.336	188.62
2358.178	180.62
2362.015	183.62
2365.85	186.62
2369.681	180.62
2373.508	183.62
2377.333	180.62
2381.153	186.62
2384.971	184.62
2388.785	181.62
2392.595	171.62
2396.402	175.62
2400.206	172.62
2404.007	171.62
2407.804	170.62
2411.597	153.62
2415.388	172.62
2419.174	156.62
2422.958	165.62
2426.738	165.62
2430.515	161.62
2434.289	163.62
2438.059	151.62
2441.825	157.62
2445.589	155.62
2449.349	151.62
2453.106	153.62
2456.859	155.62
2460.61	146.62
2464.356	140.62
2468.1	143.62
2471.84	134.62
2475.577	140.62
2479.311	143.62
2483.041	141.62
2486.768	147.62
2490.492	141.62
2494.213	143.62
2497.93	146.62
2501.644	139.62
2505.355	138.62
2509.062	142.62
2512.766	137.62
2516.467	140.62
2520.165	134.62
2523.859	136.62
2527.551	134.62
2531.239	137.62
2534.923	137.62
2538.605	137.62
2542.283	129.62
2545.958	129.62
2549.63	131.62
2553.299	127.62
2556.964	118.62
2560.626	128.62
2564.285	128.62
2567.941	127.62
2571.594	121.62
2575.243	125.62
2578.89	123.62
2582.533	123.62
2586.173	119.62
2589.809	123.62
2593.443	121.62
2597.073	115.62
2600.701	118.62
2604.325	107.62
2607.946	114.62
2611.564	119.62
2615.178	114.62
2618.79	111.62
2622.398	121.62
2626.004	117.62
2629.606	113.62
2633.205	110.62
2636.801	102.62
2640.394	107.62
2643.983	100.62
2647.57	97.62
2651.153	108.62
2654.734	105.62
2658.311	104.62
2661.885	99.62
2665.456	98.62
2669.025	94.62
2672.589	92.62
2676.151	86.62
2679.71	83.62
2683.266	87.62
2686.819	103.62
2690.368	88.62
2693.915	89.62
2697.458	85.62
2700.999	89.62
2704.536	86.62
2708.071	75.62
2711.602	75.62
2715.13	71.62
2718.656	79.62
2722.178	83.62
2725.697	77.62
2729.214	86.62
2732.727	82.62
2736.237	83.62
2739.744	87.62
2743.249	87.62
2746.75	88.62
2750.248	83.62
2753.743	89.62
2757.236	90.62
2760.725	98.62
2764.211	95.62
2767.695	107.62
2771.175	99.62
2774.652	92.62
2778.127	97.62
2781.598	91.62
2785.067	90.62
2788.532	95.62
2791.995	92.62
2795.455	93.62
2798.911	97.62
2802.365	103.62
2805.816	97.62
2809.264	100.62
2812.709	101.62
2816.151	103.62
2819.59	105.62
2823.026	104.62
2826.46	103.62
2829.89	107.62
2833.318	113.62
2836.742	109.62
2840.164	113.62
2843.583	115.62
2846.999	118.62
2850.412	119.62
2853.822	109.62
2857.229	113.62
2860.634	125.62
2864.035	128.62
2867.434	128.62
2870.83	136.62
2874.223	137.62
2877.613	137.62
2881	137.62
2884.385	144.62
2887.766	146.62
2891.145	148.62
2894.521	153.62
2897.894	146.62
2901.264	156.62
2904.631	159.62
2907.996	163.62
2911.358	161.62
2914.717	161.62
2918.073	164.62
2921.426	170.62
2924.777	181.62
2928.124	177.62
2931.469	184.62
2934.811	191.62
2938.15	190.62
2941.487	205.62
2944.821	201.62
2948.152	211.62
2951.48	216.62
2954.805	219.62
2958.128	228.62
2961.447	227.62
2964.765	234.62
2968.079	250.62
2971.39	253.62
2974.699	259.62
2978.005	268.62
2981.308	280.62
2984.609	288.62
2987.907	297.62
2991.202	321.62
2994.494	329.62
2997.784	330.62
3001.07	356.62
3004.355	356.62
3007.636	370.62
3010.915	385.62
3014.191	386.62
3017.464	397.62
3020.734	411.62
3024.002	407.62
3027.267	428.62
3030.53	438.62
3033.789	445.62
3037.046	449.62
3040.301	465.62
3043.552	473.62
3046.801	490.62
3050.048	504.62
3053.291	516.62
3056.532	531.62
3059.771	554.62
3063.006	572.62
3066.239	590.62
3069.469	599.62
3072.697	627.62
3075.922	652.62
3079.144	669.62
3082.364	681.62
3085.581	706.62
3088.795	730.62
3092.007	748.62
3095.216	769.62
3098.423	785.62
3101.627	804.62
3104.828	824.62
3108.026	835.62
3111.222	866.62
3114.416	881.62
3117.607	908.62
3120.795	929.62
3123.98	955.62
3127.163	977.62
3130.344	1003.62
3133.521	1012.62
3136.696	1037.62
3139.869	1070.62
3143.039	1094.62
3146.206	1113.62
3149.371	1132.62
3152.533	1147.62
3155.693	1167.62
3158.85	1155.62
3162.005	1177.62
3165.157	1168.62
3168.306	1187.62
3171.453	1189.62
3174.597	1192.62
3177.739	1211.62
3180.878	1196.62
3184.014	1209.62
3187.149	1209.62
3190.28	1206.62
3193.409	1227.62
3196.536	1218.62
3199.659	1226.62
3202.781	1232.62
3205.9	1247.62
3209.016	1227.62
3212.13	1253.62
3215.241	1254.62
3218.35	1252.62
3221.456	1243.62
3224.56	1240.62
3227.661	1224.62
3230.76	1223.62
3233.856	1186.62
3236.95	1189.62
3240.041	1192.62
3243.13	1177.62
3246.216	1178.62
3249.3	1152.62
3252.382	1162.62
3255.46	1150.62
3258.537	1143.62
3261.611	1135.62
3264.682	1130.62
3267.751	1132.62
3270.818	1112.62
3273.882	1114.62
3276.943	1113.62
3280.002	1096.62
3283.059	1086.62
3286.113	1082.62
3289.165	1075.62
3292.214	1051.62
3295.261	1025.62
3298.306	1025.62
3301.348	1013.62
3304.387	998.62
3307.425	978.62
3310.459	970.62
3313.492	955.62
3316.521	934.62
3319.549	929.62
3322.574	922.62
3325.597	910.62
3328.617	893.62
3331.635	889.62
3334.65	884.62
3337.663	886.62
3340.674	882.62
3343.682	866.62
3346.688	868.62
3349.691	861.62
3352.692	862.62
3355.691	858.62
3358.687	861.62
3361.681	837.62
3364.673	830.62
3367.662	837.62
3370.649	821.62
3373.633	806.62
3376.615	794.62
3379.595	790.62
3382.572	785.62
3385.547	784.62
3388.52	770.62
3391.49	751.62
3394.458	749.62
3397.424	729.62
3400.387	722.62
3403.348	716.62
3406.307	705.62
3409.263	704.62
3412.217	684.62
3415.168	685.62
3418.118	684.62
3421.065	667.62
3424.009	667.62
3426.951	658.62
3429.891	641.62
3432.829	644.62
3435.764	628.62
3438.697	613.62
3441.628	601.62
3444.557	603.62
3447.483	579.62
3450.407	566.62
3453.328	544.62
3456.247	536.62
3459.164	523.62
3462.079	505.62
3464.991	494.62
3467.902	471.62
3470.809	468.62
3473.715	442.62
3476.618	441.62
3479.519	425.62
3482.418	416.62
3485.315	402.62
3488.209	396.62
3491.101	379.62
3493.99	375.62
3496.878	366.62
3499.763	357.62
3502.646	333.62
3505.527	330.62
3508.405	322.62
3511.281	314.62
3514.155	303.62
3517.027	286.62
3519.897	277.62
3522.764	271.62
3525.629	249.62
3528.492	235.62
3531.352	223.62
3534.211	224.62
3537.067	208.62
3539.921	200.62
3542.773	181.62
3545.622	183.62
3548.469	176.62
3551.315	156.62
3554.157	152.62
3556.998	140.62
3559.837	128.62
3562.673	128.62
3565.507	123.62
3568.339	120.62
3571.169	112.62
3573.996	107.62
3576.822	93.62
3579.645	86.62
3582.466	84.62
3585.285	81.62
3588.101	69.62
3590.916	66.62
3593.728	55.62
3596.538	57.62
3599.346	53.62
3602.152	52.62
3604.956	43.62
3607.757	32.62
3610.556	32.62
3613.354	28.62
3616.149	24.62
3618.942	17.62
3621.732	15.62
3624.521	15.62
3627.307	10.62
3630.092	3.62
3632.874	4.62
3635.654	-4.38
3638.432	-4.38
3641.208	-3.38
3643.982	-12.38
3646.753	-17.38
3649.523	-16.38
3652.29	-19.38
3655.055	-19.38
3657.818	-27.38
3660.579	-24.38
3663.338	-27.38
3666.095	-31.38
3668.849	-28.38
3671.602	-37.38
3674.352	-31.38
3677.101	-41.38
3679.847	-48.38
3682.591	-49.38
3685.333	-53.38
3688.073	-49.38
3690.811	-53.38
3693.547	-52.38
3696.281	-51.38
3699.013	-49.38
3701.742	-56.38
3704.47	-54.38
3707.195	-65.38
3709.919	-65.38
3712.64	-62.38
3715.359	-69.38
3718.076	-67.38
3720.792	-63.38
3723.505	-70.38
3726.216	-64.38
3728.925	-68.38
3731.632	-70.38
3734.336	-72.38
3737.039	-69.38
3739.74	-73.38
3742.439	-71.38
3745.136	-75.38
3747.83	-71.38
3750.523	-74.38
3753.213	-70.38
3755.902	-73.38
3758.589	-76.38
3761.273	-72.38
3763.956	-74.38
3766.636	-74.38
3769.315	-79.38
3771.991	-76.38
3774.665	-79.38
3777.338	-83.38
3780.008	-79.38
3782.677	-80.38
3785.343	-75.38
3788.007	-82.38
3790.67	-74.38
3793.33	-74.38
3795.989	-78.38
3798.645	-81.38
3801.299	-82.38
3803.952	-84.38
3806.602	-91.38
3809.251	-82.38
3811.897	-85.38
3814.542	-81.38
3817.184	-80.38
3819.825	-82.38
3822.463	-80.38
3825.1	-81.38
3827.735	-83.38
3830.367	-89.38
3832.998	-88.38
3835.627	-86.38
3838.253	-86.38
3840.878	-83.38
3843.501	-80.38
3846.122	-87.38
3848.741	-81.38
3851.358	-81.38
3853.973	-86.38
3856.586	-84.38
3859.197	-89.38
3861.806	-87.38
3864.414	-90.38
3867.019	-85.38
3869.622	-84.38
3872.224	-80.38
3874.823	-87.38
3877.421	-82.38
3880.016	-75.38
3882.61	-76.38
3885.202	-70.38
3887.792	-73.38
3890.38	-82.38
3892.966	-80.38
3895.55	-82.38
3898.132	-84.38
3900.713	-86.38
3903.291	-87.38
3905.868	-87.38
3908.442	-86.38
3911.015	-88.38
3913.586	-91.38
3916.155	-89.38
3918.722	-90.38
3921.287	-87.38
3923.85	-86.38
3926.411	-89.38
3928.971	-91.38
3931.528	-85.38
3934.084	-86.38
3936.638	-93.38
3939.19	-95.38
3941.74	-87.38
3944.288	-92.38
3946.834	-91.38
3949.378	-92.38
3951.921	-89.38
3954.462	-86.38
3957	-90.38
3959.537	-91.38
3962.072	-91.38
3964.606	-91.38
3967.137	-92.38
3969.667	-88.38
3972.194	-89.38
3974.72	-88.38
3977.244	-91.38
3979.766	-88.38
3982.286	-83.38
3984.805	-86.38
3987.321	-91.38
3989.836	-86.38
3992.349	-92.38
3994.86	-89.38
3997.369	-89.38
3999.877	-89.38
4002.382	-85.38
4004.886	-86.38
4007.388	-86.38
4009.888	-87.38
4012.386	-87.38
4014.883	-87.38
4017.377	-82.38
4019.87	-90.38
4022.361	-88.38
4024.85	-88.38
4027.338	-85.38
4029.823	-88.38
4032.307	-90.38
4034.789	-85.38
4037.269	-84.38
4039.747	-86.38
4042.224	-85.38
4044.699	-83.38
4047.172	-88.38
4049.643	-90.38
4052.112	-92.38
4054.58	-89.38
4057.046	-87.38
4059.51	-88.38
4061.972	-87.38
4064.432	-87.38
4066.891	-87.38
4069.348	-91.38
4071.803	-89.38
4074.256	-94.38
4076.708	-94.38
4079.158	-92.38
4081.606	-88.38
4084.052	-90.38
4086.497	-86.38
4088.939	-85.38
4091.38	-84.38
4093.819	-91.38
4096.257	-95.38
4098.693	-94.38
4101.127	-98.38
4103.559	-98.38
4105.989	-52.38
4108.418	-51.38
4110.845	-46.38
4113.27	-46.38
4115.694	-31.38
4118.115	-31.38
4120.535	-89.38
4122.954	-93.38
4125.37	-90.38
4127.785	-87.38
4130.198	-88.38
4132.609	-87.38
4135.019	-93.38
4137.427	-95.38
4139.833	-98.38
4142.237	-98.38
