Data from Bacilus_dil110_A3_RamanShift_1.txt Node
Date: Wed Mar 01 12:27:37 IST 2017
User: aro
Spectrometer: QEPB0276
Trigger mode: 0
Integration Time (sec): 5.000000E0
Scans to average: 1
Electric dark correction enabled: true
Nonlinearity correction enabled: false
Boxcar width: 0
XAxis mode: Raman Shifts
Number of Pixels in Spectrum: 1044
>>>>>Begin Spectral Data<<<<<
160.701	-23.25
166.742	-2.25
172.777	80.75
178.805	348.75
184.826	972.75
190.841	2032.75
196.849	3227.75
202.85	3985.75
208.845	4198.75
214.833	4029.75
220.815	3863.75
226.789	3751.75
232.758	3628.75
238.719	3510.75
244.674	3351.75
250.623	3212.75
256.565	3022.75
262.5	2884.75
268.429	2752.75
274.351	2611.75
280.267	2506.75
286.176	2376.75
292.079	2305.75
297.975	2214.75
303.865	2138.75
309.748	2070.75
315.625	2037.75
321.495	1982.75
327.359	1965.75
333.217	1931.75
339.068	1918.75
344.912	1893.75
350.751	1895.75
356.583	1885.75
362.408	1889.75
368.227	1899.75
374.04	1904.75
379.847	1904.75
385.647	1935.75
391.44	1923.75
397.228	1930.75
403.009	1938.75
408.784	1963.75
414.553	1960.75
420.315	1965.75
426.071	1952.75
431.821	1963.75
437.565	1963.75
443.302	1950.75
449.033	1934.75
454.758	1910.75
460.477	1902.75
466.189	1889.75
471.896	1881.75
477.596	1888.75
483.29	1869.75
488.978	1857.75
494.66	1854.75
500.335	1831.75
506.005	1786.75
511.668	1750.75
517.325	1697.75
522.977	1670.75
528.622	1644.75
534.261	1616.75
539.894	1588.75
545.521	1607.75
551.141	1579.75
556.756	1567.75
562.365	1550.75
567.968	1532.75
573.565	1516.75
579.155	1492.75
584.74	1481.75
590.319	1476.75
595.892	1475.75
601.459	1466.75
607.02	1445.75
612.575	1427.75
618.124	1428.75
623.667	1399.75
629.204	1386.75
634.735	1371.75
640.261	1357.75
645.781	1355.75
651.294	1327.75
656.802	1323.75
662.304	1305.75
667.8	1297.75
673.29	1291.75
678.775	1291.75
684.254	1291.75
689.726	1304.75
695.193	1267.75
700.655	1265.75
706.11	1257.75
711.56	1237.75
717.004	1246.75
722.442	1228.75
727.874	1221.75
733.301	1187.75
738.722	1192.75
744.137	1175.75
749.547	1176.75
754.951	1157.75
760.349	1164.75
765.741	1152.75
771.128	1155.75
776.509	1155.75
781.885	1165.75
787.254	1161.75
792.618	1150.75
797.977	1149.75
803.33	1137.75
808.677	1121.75
814.019	1096.75
819.355	1089.75
824.686	1068.75
830.011	1062.75
835.33	1051.75
840.644	1018.75
845.952	1028.75
851.255	1020.75
856.552	1001.75
861.844	988.75
867.13	991.75
872.41	975.75
877.686	962.75
882.955	956.75
888.219	941.75
893.478	921.75
898.731	904.75
903.979	886.75
909.221	881.75
914.458	858.75
919.69	847.75
924.916	841.75
930.136	820.75
935.351	831.75
940.561	819.75
945.766	821.75
950.965	809.75
956.158	806.75
961.347	790.75
966.529	786.75
971.707	765.75
976.879	762.75
982.046	748.75
987.208	744.75
992.364	738.75
997.515	733.75
1002.66	738.75
1007.801	732.75
1012.936	748.75
1018.066	741.75
1023.19	745.75
1028.309	750.75
1033.423	757.75
1038.532	753.75
1043.636	751.75
1048.734	750.75
1053.827	736.75
1058.915	721.75
1063.998	710.75
1069.075	714.75
1074.147	710.75
1079.214	706.75
1084.276	718.75
1089.333	710.75
1094.385	730.75
1099.431	712.75
1104.472	730.75
1109.509	719.75
1114.54	721.75
1119.565	718.75
1124.586	705.75
1129.602	693.75
1134.613	688.75
1139.618	675.75
1144.619	677.75
1149.614	684.75
1154.604	687.75
1159.589	686.75
1164.57	679.75
1169.545	686.75
1174.515	682.75
1179.48	691.75
1184.44	684.75
1189.395	685.75
1194.345	672.75
1199.29	672.75
1204.23	670.75
1209.165	675.75
1214.095	667.75
1219.021	666.75
1223.941	677.75
1228.856	672.75
1233.766	691.75
1238.672	684.75
1243.572	685.75
1248.467	670.75
1253.358	677.75
1258.244	668.75
1263.124	667.75
1268	648.75
1272.871	634.75
1277.737	639.75
1282.599	621.75
1287.455	620.75
1292.306	623.75
1297.153	621.75
1301.995	628.75
1306.832	617.75
1311.664	639.75
1316.491	634.75
1321.314	629.75
1326.132	631.75
1330.945	612.75
1335.753	598.75
1340.556	584.75
1345.354	572.75
1350.148	565.75
1354.937	559.75
1359.722	560.75
1364.501	560.75
1369.276	573.75
1374.046	582.75
1378.811	582.75
1383.572	593.75
1388.327	586.75
1393.079	578.75
1397.825	566.75
1402.567	565.75
1407.304	554.75
1412.036	560.75
1416.764	550.75
1421.487	531.75
1426.205	525.75
1430.919	532.75
1435.628	549.75
1440.333	546.75
1445.032	547.75
1449.727	553.75
1454.418	551.75
1459.104	538.75
1463.785	555.75
1468.462	548.75
1473.134	540.75
1477.802	531.75
1482.465	527.75
1487.123	531.75
1491.777	536.75
1496.426	541.75
1501.071	550.75
1505.711	560.75
1510.347	565.75
1514.978	578.75
1519.604	585.75
1524.226	594.75
1528.844	606.75
1533.457	609.75
1538.065	598.75
1542.669	607.75
1547.269	605.75
1551.864	611.75
1556.454	631.75
1561.041	624.75
1565.622	625.75
1570.199	644.75
1574.772	652.75
1579.34	671.75
1583.904	683.75
1588.464	689.75
1593.019	732.75
1597.569	738.75
1602.115	749.75
1606.657	775.75
1611.195	777.75
1615.728	795.75
1620.256	808.75
1624.78	829.75
1629.3	850.75
1633.816	853.75
1638.327	870.75
1642.834	887.75
1647.336	896.75
1651.834	883.75
1656.328	887.75
1660.817	863.75
1665.302	859.75
1669.783	837.75
1674.259	799.75
1678.732	772.75
1683.199	734.75
1687.663	698.75
1692.122	649.75
1696.577	623.75
1701.028	601.75
1705.474	593.75
1709.917	566.75
1714.355	535.75
1718.788	516.75
1723.218	492.75
1727.643	477.75
1732.064	461.75
1736.481	432.75
1740.893	404.75
1745.301	398.75
1749.705	387.75
1754.105	353.75
1758.501	349.75
1762.893	332.75
1767.28	319.75
1771.663	321.75
1776.042	312.75
1780.417	314.75
1784.787	307.75
1789.154	312.75
1793.516	305.75
1797.874	314.75
1802.228	311.75
1806.578	302.75
1810.924	309.75
1815.266	309.75
1819.603	287.75
1823.937	290.75
1828.266	284.75
1832.591	280.75
1836.913	270.75
1841.23	264.75
1845.543	271.75
1849.852	264.75
1854.156	265.75
1858.457	256.75
1862.754	261.75
1867.047	259.75
1871.335	260.75
1875.62	259.75
1879.9	265.75
1884.177	261.75
1888.449	266.75
1892.718	265.75
1896.982	263.75
1901.243	256.75
1905.499	260.75
1909.752	260.75
1914	257.75
1918.245	256.75
1922.485	271.75
1926.722	271.75
1930.954	267.75
1935.183	270.75
1939.408	278.75
1943.628	274.75
1947.845	288.75
1952.058	283.75
1956.267	278.75
1960.472	282.75
1964.673	278.75
1968.87	270.75
1973.063	262.75
1977.252	259.75
1981.438	265.75
1985.619	271.75
1989.797	265.75
1993.971	272.75
1998.14	272.75
2002.306	269.75
2006.469	257.75
2010.627	276.75
2014.781	272.75
2018.932	270.75
2023.078	266.75
2027.221	269.75
2031.36	271.75
2035.495	270.75
2039.627	270.75
2043.754	271.75
2047.878	271.75
2051.998	271.75
2056.114	274.75
2060.226	272.75
2064.334	280.75
2068.439	276.75
2072.54	281.75
2076.637	281.75
2080.73	278.75
2084.82	293.75
2088.906	293.75
2092.988	294.75
2097.066	296.75
2101.14	295.75
2105.211	293.75
2109.278	292.75
2113.342	284.75
2117.401	281.75
2121.457	285.75
2125.509	292.75
2129.558	281.75
2133.602	283.75
2137.643	284.75
2141.681	277.75
2145.714	272.75
2149.744	273.75
2153.77	263.75
2157.793	264.75
2161.812	263.75
2165.827	256.75
2169.838	252.75
2173.846	249.75
2177.851	237.75
2181.851	240.75
2185.848	231.75
2189.841	228.75
2193.831	217.75
2197.817	220.75
2201.799	217.75
2205.778	212.75
2209.753	223.75
2213.725	212.75
2217.693	214.75
2221.657	204.75
2225.618	210.75
2229.575	200.75
2233.529	204.75
2237.479	201.75
2241.425	201.75
2245.368	193.75
2249.307	185.75
2253.243	192.75
2257.175	184.75
2261.104	182.75
2265.029	168.75
2268.95	165.75
2272.868	165.75
2276.783	168.75
2280.694	155.75
2284.601	152.75
2288.505	151.75
2292.405	152.75
2296.302	148.75
2300.195	147.75
2304.085	145.75
2307.971	137.75
2311.854	128.75
2315.734	128.75
2319.609	133.75
2323.482	122.75
2327.351	116.75
2331.216	125.75
2335.078	122.75
2338.937	115.75
2342.792	114.75
2346.643	109.75
2350.492	103.75
2354.336	108.75
2358.178	111.75
2362.015	104.75
2365.85	109.75
2369.681	108.75
2373.508	104.75
2377.333	105.75
2381.153	114.75
2384.971	111.75
2388.785	105.75
2392.595	103.75
2396.402	96.75
2400.206	104.75
2404.007	90.75
2407.804	91.75
2411.597	86.75
2415.388	94.75
2419.174	89.75
2422.958	91.75
2426.738	96.75
2430.515	91.75
2434.289	84.75
2438.059	85.75
2441.825	82.75
2445.589	82.75
2449.349	80.75
2453.106	77.75
2456.859	85.75
2460.61	79.75
2464.356	74.75
2468.1	75.75
2471.84	72.75
2475.577	75.75
2479.311	70.75
2483.041	75.75
2486.768	73.75
2490.492	74.75
2494.213	71.75
2497.93	72.75
2501.644	71.75
2505.355	77.75
2509.062	68.75
2512.766	62.75
2516.467	69.75
2520.165	63.75
2523.859	67.75
2527.551	66.75
2531.239	65.75
2534.923	74.75
2538.605	71.75
2542.283	64.75
2545.958	68.75
2549.63	65.75
2553.299	59.75
2556.964	54.75
2560.626	58.75
2564.285	61.75
2567.941	55.75
2571.594	59.75
2575.243	50.75
2578.89	62.75
2582.533	59.75
2586.173	54.75
2589.809	50.75
2593.443	59.75
2597.073	48.75
2600.701	53.75
2604.325	55.75
2607.946	55.75
2611.564	51.75
2615.178	55.75
2618.79	54.75
2622.398	57.75
2626.004	48.75
2629.606	46.75
2633.205	46.75
2636.801	50.75
2640.394	42.75
2643.983	41.75
2647.57	44.75
2651.153	39.75
2654.734	44.75
2658.311	44.75
2661.885	39.75
2665.456	41.75
2669.025	37.75
2672.589	42.75
2676.151	38.75
2679.71	43.75
2683.266	35.75
2686.819	41.75
2690.368	30.75
2693.915	34.75
2697.458	33.75
2700.999	31.75
2704.536	31.75
2708.071	24.75
2711.602	30.75
2715.13	30.75
2718.656	31.75
2722.178	30.75
2725.697	32.75
2729.214	33.75
2732.727	32.75
2736.237	31.75
2739.744	27.75
2743.249	33.75
2746.75	36.75
2750.248	43.75
2753.743	38.75
2757.236	45.75
2760.725	45.75
2764.211	47.75
2767.695	43.75
2771.175	45.75
2774.652	44.75
2778.127	48.75
2781.598	45.75
2785.067	47.75
2788.532	50.75
2791.995	43.75
2795.455	53.75
2798.911	49.75
2802.365	58.75
2805.816	61.75
2809.264	49.75
2812.709	52.75
2816.151	51.75
2819.59	55.75
2823.026	52.75
2826.46	57.75
2829.89	66.75
2833.318	69.75
2836.742	73.75
2840.164	69.75
2843.583	72.75
2846.999	70.75
2850.412	73.75
2853.822	73.75
2857.229	78.75
2860.634	83.75
2864.035	89.75
2867.434	93.75
2870.83	93.75
2874.223	99.75
2877.613	96.75
2881	102.75
2884.385	103.75
2887.766	103.75
2891.145	111.75
2894.521	116.75
2897.894	113.75
2901.264	122.75
2904.631	121.75
2907.996	121.75
2911.358	127.75
2914.717	133.75
2918.073	135.75
2921.426	136.75
2924.777	139.75
2928.124	147.75
2931.469	149.75
2934.811	165.75
2938.15	169.75
2941.487	162.75
2944.821	168.75
2948.152	188.75
2951.48	187.75
2954.805	189.75
2958.128	205.75
2961.447	208.75
2964.765	215.75
2968.079	217.75
2971.39	225.75
2974.699	239.75
2978.005	243.75
2981.308	250.75
2984.609	265.75
2987.907	273.75
2991.202	301.75
2994.494	304.75
2997.784	308.75
3001.07	318.75
3004.355	334.75
3007.636	343.75
3010.915	360.75
3014.191	374.75
3017.464	379.75
3020.734	391.75
3024.002	401.75
3027.267	406.75
3030.53	411.75
3033.789	424.75
3037.046	440.75
3040.301	457.75
3043.552	461.75
3046.801	483.75
3050.048	490.75
3053.291	516.75
3056.532	521.75
3059.771	549.75
3063.006	563.75
3066.239	589.75
3069.469	605.75
3072.697	626.75
3075.922	648.75
3079.144	677.75
3082.364	683.75
3085.581	710.75
3088.795	724.75
3092.007	745.75
3095.216	765.75
3098.423	799.75
3101.627	804.75
3104.828	826.75
3108.026	854.75
3111.222	862.75
3114.416	897.75
3117.607	911.75
3120.795	947.75
3123.98	961.75
3127.163	978.75
3130.344	1007.75
3133.521	1028.75
3136.696	1074.75
3139.869	1080.75
3143.039	1103.75
3146.206	1115.75
3149.371	1143.75
3152.533	1164.75
3155.693	1171.75
3158.85	1180.75
3162.005	1190.75
3165.157	1186.75
3168.306	1208.75
3171.453	1208.75
3174.597	1219.75
3177.739	1227.75
3180.878	1225.75
3184.014	1235.75
3187.149	1247.75
3190.28	1238.75
3193.409	1251.75
3196.536	1244.75
3199.659	1239.75
3202.781	1260.75
3205.9	1271.75
3209.016	1266.75
3212.13	1264.75
3215.241	1285.75
3218.35	1254.75
3221.456	1267.75
3224.56	1247.75
3227.661	1242.75
3230.76	1227.75
3233.856	1219.75
3236.95	1215.75
3240.041	1217.75
3243.13	1199.75
3246.216	1176.75
3249.3	1173.75
3252.382	1149.75
3255.46	1161.75
3258.537	1150.75
3261.611	1156.75
3264.682	1140.75
3267.751	1146.75
3270.818	1128.75
3273.882	1129.75
3276.943	1118.75
3280.002	1112.75
3283.059	1094.75
3286.113	1107.75
3289.165	1087.75
3292.214	1069.75
3295.261	1054.75
3298.306	1040.75
3301.348	1022.75
3304.387	1005.75
3307.425	1001.75
3310.459	980.75
3313.492	965.75
3316.521	953.75
3319.549	950.75
3322.574	936.75
3325.597	929.75
3328.617	923.75
3331.635	915.75
3334.65	915.75
3337.663	913.75
3340.674	900.75
3343.682	890.75
3346.688	889.75
3349.691	888.75
3352.692	908.75
3355.691	878.75
3358.687	872.75
3361.681	865.75
3364.673	866.75
3367.662	850.75
3370.649	827.75
3373.633	824.75
3376.615	826.75
3379.595	812.75
3382.572	796.75
3385.547	792.75
3388.52	777.75
3391.49	775.75
3394.458	762.75
3397.424	753.75
3400.387	741.75
3403.348	719.75
3406.307	728.75
3409.263	718.75
3412.217	691.75
3415.168	695.75
3418.118	708.75
3421.065	686.75
3424.009	680.75
3426.951	672.75
3429.891	666.75
3432.829	668.75
3435.764	640.75
3438.697	629.75
3441.628	621.75
3444.557	599.75
3447.483	586.75
3450.407	570.75
3453.328	559.75
3456.247	534.75
3459.164	524.75
3462.079	503.75
3464.991	493.75
3467.902	490.75
3470.809	475.75
3473.715	454.75
3476.618	448.75
3479.519	424.75
3482.418	416.75
3485.315	398.75
3488.209	394.75
3491.101	382.75
3493.99	379.75
3496.878	357.75
3499.763	347.75
3502.646	347.75
3505.527	330.75
3508.405	326.75
3511.281	313.75
3514.155	298.75
3517.027	291.75
3519.897	278.75
3522.764	265.75
3525.629	249.75
3528.492	246.75
3531.352	219.75
3534.211	213.75
3537.067	204.75
3539.921	192.75
3542.773	181.75
3545.622	182.75
3548.469	165.75
3551.315	158.75
3554.157	144.75
3556.998	130.75
3559.837	134.75
3562.673	120.75
3565.507	127.75
3568.339	121.75
3571.169	110.75
3573.996	99.75
3576.822	86.75
3579.645	83.75
3582.466	79.75
3585.285	68.75
3588.101	65.75
3590.916	61.75
3593.728	57.75
3596.538	55.75
3599.346	50.75
3602.152	39.75
3604.956	41.75
3607.757	29.75
3610.556	25.75
3613.354	24.75
3616.149	10.75
3618.942	12.75
3621.732	9.75
3624.521	12.75
3627.307	3.75
3630.092	-1.25
3632.874	-7.25
3635.654	-11.25
3638.432	-7.25
3641.208	-12.25
3643.982	-16.25
3646.753	-13.25
3649.523	-18.25
3652.29	-24.25
3655.055	-23.25
3657.818	-29.25
3660.579	-32.25
3663.338	-33.25
3666.095	-39.25
3668.849	-43.25
3671.602	-44.25
3674.352	-45.25
3677.101	-45.25
3679.847	-50.25
3682.591	-54.25
3685.333	-50.25
3688.073	-53.25
3690.811	-60.25
3693.547	-62.25
3696.281	-66.25
3699.013	-62.25
3701.742	-62.25
3704.47	-59.25
3707.195	-67.25
3709.919	-69.25
3712.64	-67.25
3715.359	-71.25
3718.076	-73.25
3720.792	-73.25
3723.505	-72.25
3726.216	-74.25
3728.925	-78.25
3731.632	-78.25
3734.336	-77.25
3737.039	-77.25
3739.74	-76.25
3742.439	-74.25
3745.136	-79.25
3747.83	-76.25
3750.523	-82.25
3753.213	-77.25
3755.902	-86.25
3758.589	-82.25
3761.273	-78.25
3763.956	-84.25
3766.636	-80.25
3769.315	-80.25
3771.991	-81.25
3774.665	-85.25
3777.338	-91.25
3780.008	-85.25
3782.677	-88.25
3785.343	-87.25
3788.007	-89.25
3790.67	-86.25
3793.33	-83.25
3795.989	-85.25
3798.645	-88.25
3801.299	-88.25
3803.952	-89.25
3806.602	-95.25
3809.251	-89.25
3811.897	-92.25
3814.542	-93.25
3817.184	-88.25
3819.825	-90.25
3822.463	-85.25
3825.1	-89.25
3827.735	-90.25
3830.367	-92.25
3832.998	-94.25
3835.627	-94.25
3838.253	-94.25
3840.878	-91.25
3843.501	-88.25
3846.122	-89.25
3848.741	-93.25
3851.358	-89.25
3853.973	-91.25
3856.586	-97.25
3859.197	-97.25
3861.806	-92.25
3864.414	-98.25
3867.019	-89.25
3869.622	-92.25
3872.224	-86.25
3874.823	-92.25
3877.421	-90.25
3880.016	-82.25
3882.61	-81.25
3885.202	-82.25
3887.792	-83.25
3890.38	-93.25
3892.966	-88.25
3895.55	-91.25
3898.132	-90.25
3900.713	-92.25
3903.291	-93.25
3905.868	-92.25
3908.442	-97.25
3911.015	-96.25
3913.586	-99.25
3916.155	-98.25
3918.722	-97.25
3921.287	-91.25
3923.85	-93.25
3926.411	-97.25
3928.971	-93.25
3931.528	-96.25
3934.084	-91.25
3936.638	-94.25
3939.19	-98.25
3941.74	-95.25
3944.288	-98.25
3946.834	-93.25
3949.378	-98.25
3951.921	-93.25
3954.462	-91.25
3957	-97.25
3959.537	-96.25
3962.072	-101.25
3964.606	-99.25
3967.137	-97.25
3969.667	-95.25
3972.194	-95.25
3974.72	-90.25
3977.244	-97.25
3979.766	-92.25
3982.286	-92.25
3984.805	-94.25
3987.321	-99.25
3989.836	-94.25
3992.349	-98.25
3994.86	-97.25
3997.369	-97.25
3999.877	-92.25
4002.382	-90.25
4004.886	-89.25
4007.388	-94.25
4009.888	-91.25
4012.386	-98.25
4014.883	-92.25
4017.377	-89.25
4019.87	-99.25
4022.361	-97.25
4024.85	-95.25
4027.338	-92.25
4029.823	-96.25
4032.307	-97.25
4034.789	-94.25
4037.269	-92.25
4039.747	-95.25
4042.224	-92.25
4044.699	-91.25
4047.172	-96.25
4049.643	-98.25
4052.112	-98.25
4054.58	-94.25
4057.046	-97.25
4059.51	-96.25
4061.972	-95.25
4064.432	-98.25
4066.891	-96.25
4069.348	-95.25
4071.803	-97.25
4074.256	-97.25
4076.708	-99.25
4079.158	-96.25
4081.606	-94.25
4084.052	-99.25
4086.497	-96.25
4088.939	-90.25
4091.38	-92.25
4093.819	-97.25
4096.257	-100.25
4098.693	-98.25
4101.127	-107.25
4103.559	-105.25
4105.989	-62.25
4108.418	-65.25
4110.845	-53.25
4113.27	-49.25
4115.694	-42.25
4118.115	-37.25
4120.535	-98.25
4122.954	-102.25
4125.37	-96.25
4127.785	-98.25
4130.198	-96.25
4132.609	-93.25
4135.019	-99.25
4137.427	-100.25
4139.833	-103.25
4142.237	-101.25
