Data from Learning #13_File11_00.txt Node
Date: Sun Mar 19 13:48:35 IST 2017
User: aro
Spectrometer: QEPB0276
Trigger mode: 0
Integration Time (sec): 3.000000E1
Scans to average: 1
Electric dark correction enabled: true
Nonlinearity correction enabled: false
Boxcar width: 0
XAxis mode: Raman Shifts
Number of Pixels in Spectrum: 1044
>>>>>Begin Spectral Data<<<<<
160.701	-38.12
166.742	-4.12
172.777	119.88
178.805	503.88
184.826	1415.88
190.841	2975.88
196.849	4650.88
202.85	5740.88
208.845	5934.88
214.833	5775.88
220.815	5610.88
226.789	5537.88
232.758	5434.88
238.719	5329.88
244.674	5162.88
250.623	4989.88
256.565	4829.88
262.5	4642.88
268.429	4541.88
274.351	4403.88
280.267	4307.88
286.176	4192.88
292.079	4091.88
297.975	3979.88
303.865	3868.88
309.748	3793.88
315.625	3688.88
321.495	3654.88
327.359	3590.88
333.217	3530.88
339.068	3492.88
344.912	3461.88
350.751	3452.88
356.583	3431.88
362.408	3399.88
368.227	3391.88
374.04	3369.88
379.847	3367.88
385.647	3361.88
391.44	3382.88
397.228	3376.88
403.009	3400.88
408.784	3398.88
414.553	3383.88
420.315	3404.88
426.071	3371.88
431.821	3379.88
437.565	3398.88
443.302	3397.88
449.033	3388.88
454.758	3351.88
460.477	3358.88
466.189	3352.88
471.896	3318.88
477.596	3326.88
483.29	3327.88
488.978	3284.88
494.66	3279.88
500.335	3236.88
506.005	3208.88
511.668	3157.88
517.325	3118.88
522.977	3084.88
528.622	3075.88
534.261	3042.88
539.894	3005.88
545.521	3017.88
551.141	3013.88
556.756	2985.88
562.365	2994.88
567.968	2953.88
573.565	2951.88
579.155	2975.88
584.74	2945.88
590.319	2933.88
595.892	2899.88
601.459	2908.88
607.02	2895.88
612.575	2841.88
618.124	2843.88
623.667	2800.88
629.204	2814.88
634.735	2806.88
640.261	2786.88
645.781	2779.88
651.294	2747.88
656.802	2756.88
662.304	2748.88
667.8	2750.88
673.29	2742.88
678.775	2749.88
684.254	2738.88
689.726	2731.88
695.193	2696.88
700.655	2706.88
706.11	2679.88
711.56	2674.88
717.004	2653.88
722.442	2670.88
727.874	2651.88
733.301	2652.88
738.722	2651.88
744.137	2641.88
749.547	2646.88
754.951	2645.88
760.349	2645.88
765.741	2637.88
771.128	2631.88
776.509	2654.88
781.885	2642.88
787.254	2652.88
792.618	2653.88
797.977	2642.88
803.33	2624.88
808.677	2619.88
814.019	2591.88
819.355	2565.88
824.686	2566.88
830.011	2558.88
835.33	2552.88
840.644	2559.88
845.952	2551.88
851.255	2553.88
856.552	2563.88
861.844	2554.88
867.13	2561.88
872.41	2550.88
877.686	2575.88
882.955	2584.88
888.219	2542.88
893.478	2497.88
898.731	2450.88
903.979	2423.88
909.221	2414.88
914.458	2397.88
919.69	2392.88
924.916	2403.88
930.136	2397.88
935.351	2414.88
940.561	2404.88
945.766	2428.88
950.965	2419.88
956.158	2388.88
961.347	2359.88
966.529	2345.88
971.707	2323.88
976.879	2279.88
982.046	2305.88
987.208	2271.88
992.364	2296.88
997.515	2281.88
1002.66	2319.88
1007.801	2354.88
1012.936	2372.88
1018.066	2383.88
1023.19	2400.88
1028.309	2439.88
1033.423	2421.88
1038.532	2406.88
1043.636	2401.88
1048.734	2396.88
1053.827	2385.88
1058.915	2350.88
1063.998	2333.88
1069.075	2328.88
1074.147	2343.88
1079.214	2356.88
1084.276	2369.88
1089.333	2406.88
1094.385	2417.88
1099.431	2461.88
1104.472	2436.88
1109.509	2421.88
1114.54	2392.88
1119.565	2379.88
1124.586	2340.88
1129.602	2321.88
1134.613	2309.88
1139.618	2294.88
1144.619	2318.88
1149.614	2346.88
1154.604	2358.88
1159.589	2358.88
1164.57	2375.88
1169.545	2362.88
1174.515	2382.88
1179.48	2359.88
1184.44	2368.88
1189.395	2323.88
1194.345	2342.88
1199.29	2335.88
1204.23	2339.88
1209.165	2348.88
1214.095	2369.88
1219.021	2381.88
1223.941	2403.88
1228.856	2428.88
1233.766	2398.88
1238.672	2431.88
1243.572	2430.88
1248.467	2401.88
1253.358	2419.88
1258.244	2375.88
1263.124	2343.88
1268	2316.88
1272.871	2291.88
1277.737	2291.88
1282.599	2279.88
1287.455	2293.88
1292.306	2299.88
1297.153	2332.88
1301.995	2319.88
1306.832	2349.88
1311.664	2371.88
1316.491	2357.88
1321.314	2326.88
1326.132	2336.88
1330.945	2258.88
1335.753	2219.88
1340.556	2174.88
1345.354	2137.88
1350.148	2103.88
1354.937	2106.88
1359.722	2150.88
1364.501	2185.88
1369.276	2240.88
1374.046	2280.88
1378.811	2295.88
1383.572	2316.88
1388.327	2290.88
1393.079	2266.88
1397.825	2235.88
1402.567	2184.88
1407.304	2167.88
1412.036	2158.88
1416.764	2150.88
1421.487	2132.88
1426.205	2133.88
1430.919	2146.88
1435.628	2180.88
1440.333	2193.88
1445.032	2208.88
1449.727	2238.88
1454.418	2224.88
1459.104	2213.88
1463.785	2212.88
1468.462	2170.88
1473.134	2147.88
1477.802	2123.88
1482.465	2130.88
1487.123	2134.88
1491.777	2126.88
1496.426	2148.88
1501.071	2203.88
1505.711	2224.88
1510.347	2239.88
1514.978	2275.88
1519.604	2286.88
1524.226	2297.88
1528.844	2311.88
1533.457	2324.88
1538.065	2314.88
1542.669	2315.88
1547.269	2304.88
1551.864	2305.88
1556.454	2295.88
1561.041	2297.88
1565.622	2303.88
1570.199	2314.88
1574.772	2330.88
1579.34	2356.88
1583.904	2353.88
1588.464	2390.88
1593.019	2392.88
1597.569	2388.88
1602.115	2391.88
1606.657	2395.88
1611.195	2403.88
1615.728	2385.88
1620.256	2389.88
1624.78	2407.88
1629.3	2444.88
1633.816	2468.88
1638.327	2484.88
1642.834	2505.88
1647.336	2530.88
1651.834	2534.88
1656.328	2549.88
1660.817	2530.88
1665.302	2523.88
1669.783	2477.88
1674.259	2437.88
1678.732	2382.88
1683.199	2318.88
1687.663	2247.88
1692.122	2169.88
1696.577	2133.88
1701.028	2158.88
1705.474	2170.88
1709.917	2176.88
1714.355	2137.88
1718.788	2093.88
1723.218	2061.88
1727.643	2027.88
1732.064	1991.88
1736.481	1967.88
1740.893	1919.88
1745.301	1894.88
1749.705	1849.88
1754.105	1826.88
1758.501	1791.88
1762.893	1751.88
1767.28	1754.88
1771.663	1716.88
1776.042	1710.88
1780.417	1722.88
1784.787	1745.88
1789.154	1779.88
1793.516	1784.88
1797.874	1807.88
1802.228	1833.88
1806.578	1830.88
1810.924	1846.88
1815.266	1810.88
1819.603	1804.88
1823.937	1795.88
1828.266	1757.88
1832.591	1730.88
1836.913	1716.88
1841.23	1674.88
1845.543	1687.88
1849.852	1687.88
1854.156	1677.88
1858.457	1704.88
1862.754	1675.88
1867.047	1690.88
1871.335	1695.88
1875.62	1695.88
1879.9	1692.88
1884.177	1680.88
1888.449	1679.88
1892.718	1680.88
1896.982	1668.88
1901.243	1658.88
1905.499	1670.88
1909.752	1656.88
1914	1686.88
1918.245	1676.88
1922.485	1687.88
1926.722	1709.88
1930.954	1708.88
1935.183	1718.88
1939.408	1715.88
1943.628	1758.88
1947.845	1735.88
1952.058	1722.88
1956.267	1714.88
1960.472	1717.88
1964.673	1698.88
1968.87	1706.88
1973.063	1657.88
1977.252	1661.88
1981.438	1640.88
1985.619	1647.88
1989.797	1636.88
1993.971	1635.88
1998.14	1639.88
2002.306	1634.88
2006.469	1634.88
2010.627	1630.88
2014.781	1637.88
2018.932	1619.88
2023.078	1614.88
2027.221	1604.88
2031.36	1592.88
2035.495	1571.88
2039.627	1568.88
2043.754	1553.88
2047.878	1556.88
2051.998	1558.88
2056.114	1533.88
2060.226	1553.88
2064.334	1559.88
2068.439	1557.88
2072.54	1576.88
2076.637	1570.88
2080.73	1587.88
2084.82	1578.88
2088.906	1598.88
2092.988	1592.88
2097.066	1569.88
2101.14	1581.88
2105.211	1556.88
2109.278	1559.88
2113.342	1546.88
2117.401	1536.88
2121.457	1539.88
2125.509	1534.88
2129.558	1551.88
2133.602	1516.88
2137.643	1533.88
2141.681	1518.88
2145.714	1516.88
2149.744	1524.88
2153.77	1511.88
2157.793	1496.88
2161.812	1471.88
2165.827	1470.88
2169.838	1439.88
2173.846	1425.88
2177.851	1407.88
2181.851	1399.88
2185.848	1371.88
2189.841	1362.88
2193.831	1360.88
2197.817	1347.88
2201.799	1345.88
2205.778	1348.88
2209.753	1337.88
2213.725	1343.88
2217.693	1340.88
2221.657	1352.88
2225.618	1329.88
2229.575	1342.88
2233.529	1338.88
2237.479	1336.88
2241.425	1308.88
2245.368	1283.88
2249.307	1293.88
2253.243	1275.88
2257.175	1264.88
2261.104	1238.88
2265.029	1224.88
2268.95	1228.88
2272.868	1216.88
2276.783	1208.88
2280.694	1193.88
2284.601	1191.88
2288.505	1170.88
2292.405	1173.88
2296.302	1163.88
2300.195	1128.88
2304.085	1129.88
2307.971	1111.88
2311.854	1092.88
2315.734	1080.88
2319.609	1088.88
2323.482	1049.88
2327.351	1037.88
2331.216	1041.88
2335.078	1042.88
2338.937	1020.88
2342.792	1011.88
2346.643	1029.88
2350.492	1017.88
2354.336	1014.88
2358.178	1008.88
2362.015	1032.88
2365.85	1033.88
2369.681	1026.88
2373.508	1043.88
2377.333	1016.88
2381.153	1020.88
2384.971	1021.88
2388.785	999.88
2392.595	1000.88
2396.402	998.88
2400.206	978.88
2404.007	993.88
2407.804	973.88
2411.597	973.88
2415.388	972.88
2419.174	970.88
2422.958	961.88
2426.738	967.88
2430.515	952.88
2434.289	946.88
2438.059	948.88
2441.825	942.88
2445.589	948.88
2449.349	936.88
2453.106	926.88
2456.859	915.88
2460.61	902.88
2464.356	921.88
2468.1	910.88
2471.84	896.88
2475.577	883.88
2479.311	895.88
2483.041	883.88
2486.768	894.88
2490.492	894.88
2494.213	898.88
2497.93	896.88
2501.644	891.88
2505.355	904.88
2509.062	898.88
2512.766	878.88
2516.467	891.88
2520.165	892.88
2523.859	879.88
2527.551	885.88
2531.239	878.88
2534.923	855.88
2538.605	865.88
2542.283	861.88
2545.958	858.88
2549.63	847.88
2553.299	843.88
2556.964	838.88
2560.626	842.88
2564.285	841.88
2567.941	831.88
2571.594	831.88
2575.243	821.88
2578.89	814.88
2582.533	818.88
2586.173	804.88
2589.809	796.88
2593.443	801.88
2597.073	793.88
2600.701	801.88
2604.325	778.88
2607.946	794.88
2611.564	789.88
2615.178	768.88
2618.79	787.88
2622.398	778.88
2626.004	780.88
2629.606	776.88
2633.205	765.88
2636.801	752.88
2640.394	757.88
2643.983	737.88
2647.57	737.88
2651.153	730.88
2654.734	711.88
2658.311	705.88
2661.885	701.88
2665.456	692.88
2669.025	690.88
2672.589	690.88
2676.151	685.88
2679.71	675.88
2683.266	669.88
2686.819	669.88
2690.368	652.88
2693.915	648.88
2697.458	632.88
2700.999	635.88
2704.536	627.88
2708.071	618.88
2711.602	597.88
2715.13	609.88
2718.656	597.88
2722.178	587.88
2725.697	592.88
2729.214	593.88
2732.727	592.88
2736.237	592.88
2739.744	597.88
2743.249	605.88
2746.75	592.88
2750.248	615.88
2753.743	619.88
2757.236	612.88
2760.725	612.88
2764.211	614.88
2767.695	610.88
2771.175	611.88
2774.652	598.88
2778.127	594.88
2781.598	600.88
2785.067	595.88
2788.532	593.88
2791.995	586.88
2795.455	589.88
2798.911	583.88
2802.365	584.88
2805.816	579.88
2809.264	575.88
2812.709	568.88
2816.151	570.88
2819.59	562.88
2823.026	579.88
2826.46	567.88
2829.89	566.88
2833.318	548.88
2836.742	572.88
2840.164	567.88
2843.583	566.88
2846.999	564.88
2850.412	559.88
2853.822	565.88
2857.229	569.88
2860.634	575.88
2864.035	576.88
2867.434	583.88
2870.83	578.88
2874.223	583.88
2877.613	588.88
2881	583.88
2884.385	583.88
2887.766	568.88
2891.145	570.88
2894.521	563.88
2897.894	576.88
2901.264	569.88
2904.631	575.88
2907.996	563.88
2911.358	566.88
2914.717	567.88
2918.073	566.88
2921.426	566.88
2924.777	561.88
2928.124	575.88
2931.469	583.88
2934.811	581.88
2938.15	591.88
2941.487	593.88
2944.821	590.88
2948.152	590.88
2951.48	586.88
2954.805	583.88
2958.128	577.88
2961.447	582.88
2964.765	594.88
2968.079	599.88
2971.39	597.88
2974.699	613.88
2978.005	625.88
2981.308	636.88
2984.609	637.88
2987.907	667.88
2991.202	665.88
2994.494	664.88
2997.784	683.88
3001.07	696.88
3004.355	703.88
3007.636	724.88
3010.915	729.88
3014.191	721.88
3017.464	732.88
3020.734	733.88
3024.002	736.88
3027.267	739.88
3030.53	740.88
3033.789	745.88
3037.046	744.88
3040.301	778.88
3043.552	771.88
3046.801	787.88
3050.048	798.88
3053.291	817.88
3056.532	832.88
3059.771	848.88
3063.006	872.88
3066.239	891.88
3069.469	900.88
3072.697	925.88
3075.922	943.88
3079.144	954.88
3082.364	976.88
3085.581	1000.88
3088.795	1021.88
3092.007	1016.88
3095.216	1045.88
3098.423	1053.88
3101.627	1076.88
3104.828	1098.88
3108.026	1113.88
3111.222	1132.88
3114.416	1151.88
3117.607	1176.88
3120.795	1204.88
3123.98	1220.88
3127.163	1244.88
3130.344	1265.88
3133.521	1278.88
3136.696	1312.88
3139.869	1352.88
3143.039	1348.88
3146.206	1372.88
3149.371	1396.88
3152.533	1385.88
3155.693	1423.88
3158.85	1421.88
3162.005	1421.88
3165.157	1411.88
3168.306	1417.88
3171.453	1410.88
3174.597	1428.88
3177.739	1419.88
3180.878	1425.88
3184.014	1436.88
3187.149	1443.88
3190.28	1440.88
3193.409	1462.88
3196.536	1460.88
3199.659	1445.88
3202.781	1446.88
3205.9	1450.88
3209.016	1449.88
3212.13	1442.88
3215.241	1441.88
3218.35	1447.88
3221.456	1435.88
3224.56	1412.88
3227.661	1399.88
3230.76	1387.88
3233.856	1362.88
3236.95	1375.88
3240.041	1350.88
3243.13	1347.88
3246.216	1328.88
3249.3	1337.88
3252.382	1321.88
3255.46	1324.88
3258.537	1316.88
3261.611	1304.88
3264.682	1310.88
3267.751	1300.88
3270.818	1287.88
3273.882	1294.88
3276.943	1292.88
3280.002	1266.88
3283.059	1261.88
3286.113	1258.88
3289.165	1224.88
3292.214	1225.88
3295.261	1183.88
3298.306	1169.88
3301.348	1154.88
3304.387	1128.88
3307.425	1117.88
3310.459	1105.88
3313.492	1088.88
3316.521	1063.88
3319.549	1044.88
3322.574	1060.88
3325.597	1044.88
3328.617	1043.88
3331.635	1037.88
3334.65	1020.88
3337.663	1020.88
3340.674	997.88
3343.682	995.88
3346.688	998.88
3349.691	990.88
3352.692	989.88
3355.691	963.88
3358.687	988.88
3361.681	939.88
3364.673	937.88
3367.662	943.88
3370.649	922.88
3373.633	911.88
3376.615	887.88
3379.595	881.88
3382.572	867.88
3385.547	847.88
3388.52	842.88
3391.49	838.88
3394.458	835.88
3397.424	808.88
3400.387	808.88
3403.348	798.88
3406.307	793.88
3409.263	786.88
3412.217	780.88
3415.168	767.88
3418.118	748.88
3421.065	761.88
3424.009	739.88
3426.951	730.88
3429.891	718.88
3432.829	702.88
3435.764	680.88
3438.697	674.88
3441.628	669.88
3444.557	651.88
3447.483	624.88
3450.407	618.88
3453.328	596.88
3456.247	581.88
3459.164	568.88
3462.079	550.88
3464.991	531.88
3467.902	515.88
3470.809	509.88
3473.715	482.88
3476.618	484.88
3479.519	464.88
3482.418	450.88
3485.315	445.88
3488.209	419.88
3491.101	409.88
3493.99	402.88
3496.878	390.88
3499.763	389.88
3502.646	373.88
3505.527	359.88
3508.405	351.88
3511.281	340.88
3514.155	311.88
3517.027	301.88
3519.897	289.88
3522.764	277.88
3525.629	265.88
3528.492	240.88
3531.352	232.88
3534.211	217.88
3537.067	205.88
3539.921	202.88
3542.773	187.88
3545.622	173.88
3548.469	165.88
3551.315	159.88
3554.157	154.88
3556.998	137.88
3559.837	129.88
3562.673	116.88
3565.507	117.88
3568.339	113.88
3571.169	102.88
3573.996	100.88
3576.822	87.88
3579.645	78.88
3582.466	77.88
3585.285	61.88
3588.101	51.88
3590.916	55.88
3593.728	41.88
3596.538	34.88
3599.346	28.88
3602.152	27.88
3604.956	22.88
3607.757	16.88
3610.556	15.88
3613.354	10.88
3616.149	-0.12
3618.942	-3.12
3621.732	-8.12
3624.521	-15.12
3627.307	-14.12
3630.092	-21.12
3632.874	-18.12
3635.654	-24.12
3638.432	-27.12
3641.208	-34.12
3643.982	-36.12
3646.753	-44.12
3649.523	-44.12
3652.29	-44.12
3655.055	-51.12
3657.818	-52.12
3660.579	-54.12
3663.338	-62.12
3666.095	-58.12
3668.849	-67.12
3671.602	-69.12
3674.352	-73.12
3677.101	-75.12
3679.847	-74.12
3682.591	-80.12
3685.333	-82.12
3688.073	-77.12
3690.811	-87.12
3693.547	-86.12
3696.281	-92.12
3699.013	-91.12
3701.742	-94.12
3704.47	-88.12
3707.195	-92.12
3709.919	-97.12
3712.64	-99.12
3715.359	-102.12
3718.076	-98.12
3720.792	-104.12
3723.505	-103.12
3726.216	-105.12
3728.925	-108.12
3731.632	-109.12
3734.336	-109.12
3737.039	-104.12
3739.74	-108.12
3742.439	-110.12
3745.136	-111.12
3747.83	-112.12
3750.523	-115.12
3753.213	-116.12
3755.902	-119.12
3758.589	-115.12
3761.273	-117.12
3763.956	-115.12
3766.636	-118.12
3769.315	-119.12
3771.991	-118.12
3774.665	-117.12
3777.338	-118.12
3780.008	-122.12
3782.677	-119.12
3785.343	-118.12
3788.007	-127.12
3790.67	-125.12
3793.33	-121.12
3795.989	-122.12
3798.645	-121.12
3801.299	-125.12
3803.952	-122.12
3806.602	-124.12
3809.251	-128.12
3811.897	-122.12
3814.542	-131.12
3817.184	-130.12
3819.825	-129.12
3822.463	-131.12
3825.1	-133.12
3827.735	-128.12
3830.367	-127.12
3832.998	-128.12
3835.627	-128.12
3838.253	-130.12
3840.878	-130.12
3843.501	-134.12
3846.122	-134.12
3848.741	-135.12
3851.358	-135.12
3853.973	-129.12
3856.586	-132.12
3859.197	-126.12
3861.806	-133.12
3864.414	-134.12
3867.019	-132.12
3869.622	-136.12
3872.224	-136.12
3874.823	-129.12
3877.421	-129.12
3880.016	-127.12
3882.61	-125.12
3885.202	-119.12
3887.792	-122.12
3890.38	-127.12
3892.966	-135.12
3895.55	-135.12
3898.132	-136.12
3900.713	-136.12
3903.291	-139.12
3905.868	-141.12
3908.442	-138.12
3911.015	-137.12
3913.586	-140.12
3916.155	-137.12
3918.722	-133.12
3921.287	-134.12
3923.85	-138.12
3926.411	-142.12
3928.971	-138.12
3931.528	-140.12
3934.084	-143.12
3936.638	-142.12
3939.19	-141.12
3941.74	-142.12
3944.288	-139.12
3946.834	-140.12
3949.378	-136.12
3951.921	-137.12
3954.462	-141.12
3957	-141.12
3959.537	-144.12
3962.072	-143.12
3964.606	-140.12
3967.137	-139.12
3969.667	-137.12
3972.194	-138.12
3974.72	-135.12
3977.244	-136.12
3979.766	-139.12
3982.286	-142.12
3984.805	-139.12
3987.321	-140.12
3989.836	-137.12
3992.349	-135.12
3994.86	-135.12
3997.369	-136.12
3999.877	-137.12
4002.382	-138.12
4004.886	-138.12
4007.388	-138.12
4009.888	-138.12
4012.386	-138.12
4014.883	-137.12
4017.377	-138.12
4019.87	-135.12
4022.361	-140.12
4024.85	-136.12
4027.338	-141.12
4029.823	-140.12
4032.307	-135.12
4034.789	-143.12
4037.269	-139.12
4039.747	-140.12
4042.224	-139.12
4044.699	-139.12
4047.172	-137.12
4049.643	-142.12
4052.112	-140.12
4054.58	-141.12
4057.046	-143.12
4059.51	-139.12
4061.972	-140.12
4064.432	-141.12
4066.891	-141.12
4069.348	-139.12
4071.803	-140.12
4074.256	-140.12
4076.708	-137.12
4079.158	-140.12
4081.606	-141.12
4084.052	-137.12
4086.497	-135.12
4088.939	-139.12
4091.38	-142.12
4093.819	-140.12
4096.257	-148.12
4098.693	-145.12
4101.127	-144.12
4103.559	-146.12
4105.989	-92.12
4108.418	-91.12
4110.845	-87.12
4113.27	-83.12
4115.694	-71.12
4118.115	-63.12
4120.535	-141.12
4122.954	-138.12
4125.37	-137.12
4127.785	-140.12
4130.198	-138.12
4132.609	-135.12
4135.019	-143.12
4137.427	-145.12
4139.833	-146.12
4142.237	-147.12
