Data from Learning_RamanShift_01.txt Node
Date: Sun Mar 19 13:11:09 IST 2017
User: aro
Spectrometer: QEPB0276
Trigger mode: 0
Integration Time (sec): 5.000000E0
Scans to average: 1
Electric dark correction enabled: true
Nonlinearity correction enabled: false
Boxcar width: 0
XAxis mode: Raman Shifts
Number of Pixels in Spectrum: 1044
>>>>>Begin Spectral Data<<<<<
160.701	-41.5
166.742	0.5
172.777	119.5
178.805	507.5
184.826	1466.5
190.841	3055.5
196.849	4766.5
202.85	5837.5
208.845	6081.5
214.833	5904.5
220.815	5718.5
226.789	5651.5
232.758	5505.5
238.719	5424.5
244.674	5279.5
250.623	5101.5
256.565	4960.5
262.5	4787.5
268.429	4661.5
274.351	4550.5
280.267	4419.5
286.176	4284.5
292.079	4207.5
297.975	4051.5
303.865	3986.5
309.748	3889.5
315.625	3816.5
321.495	3764.5
327.359	3705.5
333.217	3627.5
339.068	3613.5
344.912	3578.5
350.751	3544.5
356.583	3531.5
362.408	3484.5
368.227	3491.5
374.04	3470.5
379.847	3445.5
385.647	3485.5
391.44	3505.5
397.228	3498.5
403.009	3488.5
408.784	3519.5
414.553	3479.5
420.315	3507.5
426.071	3516.5
431.821	3524.5
437.565	3499.5
443.302	3496.5
449.033	3504.5
454.758	3489.5
460.477	3474.5
466.189	3455.5
471.896	3444.5
477.596	3427.5
483.29	3408.5
488.978	3402.5
494.66	3399.5
500.335	3366.5
506.005	3311.5
511.668	3269.5
517.325	3241.5
522.977	3203.5
528.622	3167.5
534.261	3145.5
539.894	3136.5
545.521	3094.5
551.141	3115.5
556.756	3096.5
562.365	3100.5
567.968	3071.5
573.565	3049.5
579.155	3061.5
584.74	3061.5
590.319	3026.5
595.892	3028.5
601.459	3011.5
607.02	3019.5
612.575	2958.5
618.124	2949.5
623.667	2909.5
629.204	2893.5
634.735	2905.5
640.261	2889.5
645.781	2896.5
651.294	2890.5
656.802	2871.5
662.304	2846.5
667.8	2846.5
673.29	2858.5
678.775	2844.5
684.254	2831.5
689.726	2838.5
695.193	2836.5
700.655	2811.5
706.11	2794.5
711.56	2782.5
717.004	2760.5
722.442	2784.5
727.874	2761.5
733.301	2759.5
738.722	2726.5
744.137	2737.5
749.547	2730.5
754.951	2730.5
760.349	2747.5
765.741	2755.5
771.128	2750.5
776.509	2769.5
781.885	2766.5
787.254	2764.5
792.618	2735.5
797.977	2745.5
803.33	2731.5
808.677	2717.5
814.019	2708.5
819.355	2688.5
824.686	2683.5
830.011	2661.5
835.33	2679.5
840.644	2669.5
845.952	2650.5
851.255	2667.5
856.552	2690.5
861.844	2664.5
867.13	2680.5
872.41	2654.5
877.686	2678.5
882.955	2653.5
888.219	2649.5
893.478	2593.5
898.731	2560.5
903.979	2526.5
909.221	2502.5
914.458	2493.5
919.69	2497.5
924.916	2514.5
930.136	2516.5
935.351	2507.5
940.561	2506.5
945.766	2524.5
950.965	2507.5
956.158	2518.5
961.347	2485.5
966.529	2444.5
971.707	2422.5
976.879	2410.5
982.046	2379.5
987.208	2380.5
992.364	2380.5
997.515	2414.5
1002.66	2433.5
1007.801	2437.5
1012.936	2470.5
1018.066	2503.5
1023.19	2532.5
1028.309	2535.5
1033.423	2529.5
1038.532	2499.5
1043.636	2500.5
1048.734	2480.5
1053.827	2476.5
1058.915	2420.5
1063.998	2435.5
1069.075	2436.5
1074.147	2421.5
1079.214	2451.5
1084.276	2490.5
1089.333	2493.5
1094.385	2540.5
1099.431	2521.5
1104.472	2539.5
1109.509	2494.5
1114.54	2494.5
1119.565	2472.5
1124.586	2446.5
1129.602	2421.5
1134.613	2383.5
1139.618	2412.5
1144.619	2377.5
1149.614	2393.5
1154.604	2436.5
1159.589	2441.5
1164.57	2451.5
1169.545	2466.5
1174.515	2477.5
1179.48	2464.5
1184.44	2443.5
1189.395	2431.5
1194.345	2399.5
1199.29	2405.5
1204.23	2432.5
1209.165	2451.5
1214.095	2461.5
1219.021	2478.5
1223.941	2495.5
1228.856	2533.5
1233.766	2507.5
1238.672	2513.5
1243.572	2508.5
1248.467	2500.5
1253.358	2491.5
1258.244	2446.5
1263.124	2417.5
1268	2402.5
1272.871	2368.5
1277.737	2354.5
1282.599	2359.5
1287.455	2379.5
1292.306	2378.5
1297.153	2393.5
1301.995	2410.5
1306.832	2423.5
1311.664	2432.5
1316.491	2442.5
1321.314	2405.5
1326.132	2404.5
1330.945	2395.5
1335.753	2315.5
1340.556	2287.5
1345.354	2236.5
1350.148	2176.5
1354.937	2202.5
1359.722	2210.5
1364.501	2262.5
1369.276	2306.5
1374.046	2363.5
1378.811	2409.5
1383.572	2384.5
1388.327	2379.5
1393.079	2369.5
1397.825	2314.5
1402.567	2265.5
1407.304	2237.5
1412.036	2213.5
1416.764	2214.5
1421.487	2206.5
1426.205	2205.5
1430.919	2215.5
1435.628	2233.5
1440.333	2282.5
1445.032	2292.5
1449.727	2293.5
1454.418	2297.5
1459.104	2285.5
1463.785	2275.5
1468.462	2258.5
1473.134	2214.5
1477.802	2186.5
1482.465	2181.5
1487.123	2194.5
1491.777	2205.5
1496.426	2240.5
1501.071	2254.5
1505.711	2279.5
1510.347	2322.5
1514.978	2344.5
1519.604	2364.5
1524.226	2381.5
1528.844	2398.5
1533.457	2383.5
1538.065	2396.5
1542.669	2385.5
1547.269	2361.5
1551.864	2351.5
1556.454	2370.5
1561.041	2377.5
1565.622	2373.5
1570.199	2384.5
1574.772	2394.5
1579.34	2428.5
1583.904	2441.5
1588.464	2448.5
1593.019	2486.5
1597.569	2442.5
1602.115	2479.5
1606.657	2462.5
1611.195	2468.5
1615.728	2450.5
1620.256	2446.5
1624.78	2481.5
1629.3	2501.5
1633.816	2531.5
1638.327	2541.5
1642.834	2558.5
1647.336	2578.5
1651.834	2607.5
1656.328	2604.5
1660.817	2611.5
1665.302	2587.5
1669.783	2542.5
1674.259	2510.5
1678.732	2459.5
1683.199	2369.5
1687.663	2288.5
1692.122	2226.5
1696.577	2207.5
1701.028	2195.5
1705.474	2230.5
1709.917	2225.5
1714.355	2221.5
1718.788	2151.5
1723.218	2125.5
1727.643	2102.5
1732.064	2068.5
1736.481	2010.5
1740.893	1975.5
1745.301	1941.5
1749.705	1906.5
1754.105	1851.5
1758.501	1833.5
1762.893	1795.5
1767.28	1777.5
1771.663	1770.5
1776.042	1772.5
1780.417	1784.5
1784.787	1790.5
1789.154	1813.5
1793.516	1832.5
1797.874	1849.5
1802.228	1890.5
1806.578	1881.5
1810.924	1882.5
1815.266	1870.5
1819.603	1843.5
1823.937	1816.5
1828.266	1781.5
1832.591	1766.5
1836.913	1778.5
1841.23	1742.5
1845.543	1725.5
1849.852	1723.5
1854.156	1722.5
1858.457	1741.5
1862.754	1729.5
1867.047	1728.5
1871.335	1736.5
1875.62	1721.5
1879.9	1737.5
1884.177	1741.5
1888.449	1726.5
1892.718	1720.5
1896.982	1725.5
1901.243	1714.5
1905.499	1718.5
1909.752	1703.5
1914	1709.5
1918.245	1716.5
1922.485	1726.5
1926.722	1743.5
1930.954	1755.5
1935.183	1763.5
1939.408	1759.5
1943.628	1765.5
1947.845	1777.5
1952.058	1758.5
1956.267	1760.5
1960.472	1753.5
1964.673	1758.5
1968.87	1730.5
1973.063	1698.5
1977.252	1707.5
1981.438	1685.5
1985.619	1688.5
1989.797	1681.5
1993.971	1664.5
1998.14	1672.5
2002.306	1676.5
2006.469	1687.5
2010.627	1664.5
2014.781	1678.5
2018.932	1673.5
2023.078	1638.5
2027.221	1650.5
2031.36	1633.5
2035.495	1604.5
2039.627	1596.5
2043.754	1589.5
2047.878	1548.5
2051.998	1570.5
2056.114	1571.5
2060.226	1579.5
2064.334	1572.5
2068.439	1602.5
2072.54	1599.5
2076.637	1623.5
2080.73	1616.5
2084.82	1611.5
2088.906	1626.5
2092.988	1614.5
2097.066	1621.5
2101.14	1600.5
2105.211	1608.5
2109.278	1598.5
2113.342	1579.5
2117.401	1570.5
2121.457	1570.5
2125.509	1585.5
2129.558	1577.5
2133.602	1563.5
2137.643	1545.5
2141.681	1565.5
2145.714	1553.5
2149.744	1541.5
2153.77	1527.5
2157.793	1525.5
2161.812	1512.5
2165.827	1497.5
2169.838	1458.5
2173.846	1454.5
2177.851	1435.5
2181.851	1399.5
2185.848	1415.5
2189.841	1410.5
2193.831	1371.5
2197.817	1373.5
2201.799	1360.5
2205.778	1370.5
2209.753	1354.5
2213.725	1375.5
2217.693	1372.5
2221.657	1369.5
2225.618	1353.5
2229.575	1364.5
2233.529	1354.5
2237.479	1337.5
2241.425	1344.5
2245.368	1324.5
2249.307	1317.5
2253.243	1314.5
2257.175	1289.5
2261.104	1260.5
2265.029	1269.5
2268.95	1249.5
2272.868	1233.5
2276.783	1234.5
2280.694	1206.5
2284.601	1207.5
2288.505	1189.5
2292.405	1192.5
2296.302	1184.5
2300.195	1173.5
2304.085	1146.5
2307.971	1120.5
2311.854	1124.5
2315.734	1114.5
2319.609	1091.5
2323.482	1072.5
2327.351	1056.5
2331.216	1070.5
2335.078	1055.5
2338.937	1044.5
2342.792	1033.5
2346.643	1028.5
2350.492	1039.5
2354.336	1024.5
2358.178	1035.5
2362.015	1033.5
2365.85	1032.5
2369.681	1046.5
2373.508	1059.5
2377.333	1036.5
2381.153	1039.5
2384.971	1034.5
2388.785	1032.5
2392.595	1026.5
2396.402	996.5
2400.206	1006.5
2404.007	1002.5
2407.804	987.5
2411.597	1003.5
2415.388	994.5
2419.174	978.5
2422.958	985.5
2426.738	983.5
2430.515	960.5
2434.289	979.5
2438.059	977.5
2441.825	957.5
2445.589	963.5
2449.349	953.5
2453.106	936.5
2456.859	939.5
2460.61	917.5
2464.356	909.5
2468.1	915.5
2471.84	910.5
2475.577	902.5
2479.311	906.5
2483.041	901.5
2486.768	904.5
2490.492	898.5
2494.213	916.5
2497.93	902.5
2501.644	912.5
2505.355	900.5
2509.062	896.5
2512.766	897.5
2516.467	908.5
2520.165	898.5
2523.859	892.5
2527.551	888.5
2531.239	882.5
2534.923	867.5
2538.605	868.5
2542.283	866.5
2545.958	856.5
2549.63	852.5
2553.299	865.5
2556.964	841.5
2560.626	848.5
2564.285	851.5
2567.941	840.5
2571.594	844.5
2575.243	844.5
2578.89	830.5
2582.533	820.5
2586.173	814.5
2589.809	814.5
2593.443	824.5
2597.073	804.5
2600.701	798.5
2604.325	796.5
2607.946	791.5
2611.564	792.5
2615.178	801.5
2618.79	791.5
2622.398	803.5
2626.004	785.5
2629.606	779.5
2633.205	768.5
2636.801	762.5
2640.394	757.5
2643.983	755.5
2647.57	738.5
2651.153	734.5
2654.734	728.5
2658.311	728.5
2661.885	726.5
2665.456	707.5
2669.025	697.5
2672.589	690.5
2676.151	692.5
2679.71	675.5
2683.266	678.5
2686.819	674.5
2690.368	669.5
2693.915	644.5
2697.458	643.5
2700.999	625.5
2704.536	615.5
2708.071	626.5
2711.602	617.5
2715.13	607.5
2718.656	597.5
2722.178	601.5
2725.697	600.5
2729.214	599.5
2732.727	600.5
2736.237	594.5
2739.744	612.5
2743.249	621.5
2746.75	623.5
2750.248	624.5
2753.743	612.5
2757.236	621.5
2760.725	606.5
2764.211	610.5
2767.695	621.5
2771.175	623.5
2774.652	601.5
2778.127	610.5
2781.598	604.5
2785.067	594.5
2788.532	599.5
2791.995	585.5
2795.455	590.5
2798.911	599.5
2802.365	584.5
2805.816	591.5
2809.264	585.5
2812.709	581.5
2816.151	574.5
2819.59	575.5
2823.026	571.5
2826.46	562.5
2829.89	558.5
2833.318	565.5
2836.742	565.5
2840.164	569.5
2843.583	577.5
2846.999	565.5
2850.412	565.5
2853.822	573.5
2857.229	564.5
2860.634	574.5
2864.035	564.5
2867.434	575.5
2870.83	578.5
2874.223	585.5
2877.613	576.5
2881	583.5
2884.385	573.5
2887.766	572.5
2891.145	570.5
2894.521	565.5
2897.894	560.5
2901.264	554.5
2904.631	559.5
2907.996	558.5
2911.358	559.5
2914.717	553.5
2918.073	562.5
2921.426	562.5
2924.777	573.5
2928.124	566.5
2931.469	563.5
2934.811	586.5
2938.15	587.5
2941.487	582.5
2944.821	586.5
2948.152	600.5
2951.48	576.5
2954.805	574.5
2958.128	577.5
2961.447	583.5
2964.765	587.5
2968.079	595.5
2971.39	592.5
2974.699	605.5
2978.005	626.5
2981.308	626.5
2984.609	638.5
2987.907	659.5
2991.202	658.5
2994.494	661.5
2997.784	682.5
3001.07	694.5
3004.355	716.5
3007.636	706.5
3010.915	713.5
3014.191	717.5
3017.464	729.5
3020.734	731.5
3024.002	741.5
3027.267	750.5
3030.53	756.5
3033.789	755.5
3037.046	756.5
3040.301	770.5
3043.552	771.5
3046.801	797.5
3050.048	804.5
3053.291	818.5
3056.532	837.5
3059.771	857.5
3063.006	889.5
3066.239	897.5
3069.469	917.5
3072.697	945.5
3075.922	952.5
3079.144	965.5
3082.364	980.5
3085.581	985.5
3088.795	1016.5
3092.007	1037.5
3095.216	1052.5
3098.423	1084.5
3101.627	1092.5
3104.828	1105.5
3108.026	1122.5
3111.222	1148.5
3114.416	1144.5
3117.607	1182.5
3120.795	1212.5
3123.98	1227.5
3127.163	1258.5
3130.344	1299.5
3133.521	1297.5
3136.696	1325.5
3139.869	1342.5
3143.039	1361.5
3146.206	1398.5
3149.371	1394.5
3152.533	1408.5
3155.693	1403.5
3158.85	1419.5
3162.005	1428.5
3165.157	1425.5
3168.306	1417.5
3171.453	1428.5
3174.597	1433.5
3177.739	1440.5
3180.878	1430.5
3184.014	1443.5
3187.149	1436.5
3190.28	1457.5
3193.409	1459.5
3196.536	1452.5
3199.659	1459.5
3202.781	1459.5
3205.9	1446.5
3209.016	1468.5
3212.13	1455.5
3215.241	1452.5
3218.35	1438.5
3221.456	1422.5
3224.56	1420.5
3227.661	1411.5
3230.76	1388.5
3233.856	1366.5
3236.95	1361.5
3240.041	1369.5
3243.13	1352.5
3246.216	1345.5
3249.3	1332.5
3252.382	1318.5
3255.46	1318.5
3258.537	1313.5
3261.611	1295.5
3264.682	1315.5
3267.751	1285.5
3270.818	1296.5
3273.882	1298.5
3276.943	1276.5
3280.002	1273.5
3283.059	1272.5
3286.113	1236.5
3289.165	1227.5
3292.214	1209.5
3295.261	1181.5
3298.306	1165.5
3301.348	1164.5
3304.387	1144.5
3307.425	1111.5
3310.459	1097.5
3313.492	1079.5
3316.521	1055.5
3319.549	1054.5
3322.574	1050.5
3325.597	1035.5
3328.617	1022.5
3331.635	1021.5
3334.65	1008.5
3337.663	1015.5
3340.674	990.5
3343.682	984.5
3346.688	1002.5
3349.691	986.5
3352.692	995.5
3355.691	967.5
3358.687	968.5
3361.681	955.5
3364.673	945.5
3367.662	928.5
3370.649	919.5
3373.633	914.5
3376.615	887.5
3379.595	890.5
3382.572	870.5
3385.547	850.5
3388.52	853.5
3391.49	833.5
3394.458	829.5
3397.424	812.5
3400.387	801.5
3403.348	785.5
3406.307	783.5
3409.263	775.5
3412.217	774.5
3415.168	755.5
3418.118	747.5
3421.065	742.5
3424.009	742.5
3426.951	720.5
3429.891	713.5
3432.829	685.5
3435.764	692.5
3438.697	668.5
3441.628	660.5
3444.557	645.5
3447.483	622.5
3450.407	608.5
3453.328	587.5
3456.247	575.5
3459.164	553.5
3462.079	544.5
3464.991	518.5
3467.902	510.5
3470.809	494.5
3473.715	481.5
3476.618	462.5
3479.519	454.5
3482.418	442.5
3485.315	432.5
3488.209	427.5
3491.101	405.5
3493.99	390.5
3496.878	386.5
3499.763	372.5
3502.646	364.5
3505.527	347.5
3508.405	341.5
3511.281	322.5
3514.155	313.5
3517.027	305.5
3519.897	273.5
3522.764	276.5
3525.629	259.5
3528.492	238.5
3531.352	229.5
3534.211	218.5
3537.067	203.5
3539.921	191.5
3542.773	181.5
3545.622	165.5
3548.469	163.5
3551.315	150.5
3554.157	147.5
3556.998	134.5
3559.837	123.5
3562.673	121.5
3565.507	110.5
3568.339	102.5
3571.169	89.5
3573.996	88.5
3576.822	81.5
3579.645	76.5
3582.466	68.5
3585.285	64.5
3588.101	48.5
3590.916	48.5
3593.728	34.5
3596.538	36.5
3599.346	22.5
3602.152	22.5
3604.956	18.5
3607.757	15.5
3610.556	11.5
3613.354	1.5
3616.149	-3.5
3618.942	-5.5
3621.732	-19.5
3624.521	-21.5
3627.307	-13.5
3630.092	-20.5
3632.874	-12.5
3635.654	-25.5
3638.432	-29.5
3641.208	-32.5
3643.982	-40.5
3646.753	-42.5
3649.523	-47.5
3652.29	-52.5
3655.055	-56.5
3657.818	-58.5
3660.579	-57.5
3663.338	-58.5
3666.095	-60.5
3668.849	-66.5
3671.602	-72.5
3674.352	-79.5
3677.101	-77.5
3679.847	-81.5
3682.591	-85.5
3685.333	-83.5
3688.073	-86.5
3690.811	-85.5
3693.547	-81.5
3696.281	-94.5
3699.013	-92.5
3701.742	-96.5
3704.47	-94.5
3707.195	-96.5
3709.919	-103.5
3712.64	-101.5
3715.359	-103.5
3718.076	-102.5
3720.792	-102.5
3723.505	-106.5
3726.216	-105.5
3728.925	-107.5
3731.632	-108.5
3734.336	-112.5
3737.039	-112.5
3739.74	-112.5
3742.439	-115.5
3745.136	-117.5
3747.83	-118.5
3750.523	-115.5
3753.213	-116.5
3755.902	-115.5
3758.589	-116.5
3761.273	-116.5
3763.956	-115.5
3766.636	-121.5
3769.315	-121.5
3771.991	-120.5
3774.665	-125.5
3777.338	-125.5
3780.008	-120.5
3782.677	-117.5
3785.343	-121.5
3788.007	-123.5
3790.67	-122.5
3793.33	-127.5
3795.989	-126.5
3798.645	-127.5
3801.299	-133.5
3803.952	-128.5
3806.602	-123.5
3809.251	-131.5
3811.897	-124.5
3814.542	-124.5
3817.184	-128.5
3819.825	-130.5
3822.463	-130.5
3825.1	-132.5
3827.735	-129.5
3830.367	-129.5
3832.998	-133.5
3835.627	-132.5
3838.253	-135.5
3840.878	-133.5
3843.501	-135.5
3846.122	-134.5
3848.741	-129.5
3851.358	-135.5
3853.973	-131.5
3856.586	-135.5
3859.197	-134.5
3861.806	-135.5
3864.414	-136.5
3867.019	-134.5
3869.622	-134.5
3872.224	-132.5
3874.823	-133.5
3877.421	-129.5
3880.016	-128.5
3882.61	-130.5
3885.202	-124.5
3887.792	-129.5
3890.38	-132.5
3892.966	-140.5
3895.55	-136.5
3898.132	-134.5
3900.713	-139.5
3903.291	-136.5
3905.868	-137.5
3908.442	-138.5
3911.015	-139.5
3913.586	-144.5
3916.155	-140.5
3918.722	-139.5
3921.287	-140.5
3923.85	-145.5
3926.411	-141.5
3928.971	-139.5
3931.528	-141.5
3934.084	-141.5
3936.638	-142.5
3939.19	-144.5
3941.74	-144.5
3944.288	-141.5
3946.834	-138.5
3949.378	-144.5
3951.921	-141.5
3954.462	-143.5
3957	-142.5
3959.537	-143.5
3962.072	-139.5
3964.606	-143.5
3967.137	-139.5
3969.667	-141.5
3972.194	-143.5
3974.72	-137.5
3977.244	-144.5
3979.766	-137.5
3982.286	-142.5
3984.805	-137.5
3987.321	-141.5
3989.836	-137.5
3992.349	-139.5
3994.86	-138.5
3997.369	-137.5
3999.877	-141.5
4002.382	-143.5
4004.886	-139.5
4007.388	-141.5
4009.888	-134.5
4012.386	-137.5
4014.883	-141.5
4017.377	-140.5
4019.87	-137.5
4022.361	-144.5
4024.85	-143.5
4027.338	-144.5
4029.823	-141.5
4032.307	-139.5
4034.789	-140.5
4037.269	-142.5
4039.747	-140.5
4042.224	-140.5
4044.699	-140.5
4047.172	-138.5
4049.643	-143.5
4052.112	-143.5
4054.58	-145.5
4057.046	-146.5
4059.51	-139.5
4061.972	-140.5
4064.432	-141.5
4066.891	-142.5
4069.348	-135.5
4071.803	-141.5
4074.256	-140.5
4076.708	-140.5
4079.158	-143.5
4081.606	-145.5
4084.052	-141.5
4086.497	-140.5
4088.939	-142.5
4091.38	-139.5
4093.819	-139.5
4096.257	-148.5
4098.693	-148.5
4101.127	-144.5
4103.559	-148.5
4105.989	-95.5
4108.418	-94.5
4110.845	-85.5
4113.27	-84.5
4115.694	-75.5
4118.115	-64.5
4120.535	-139.5
4122.954	-143.5
4125.37	-138.5
4127.785	-142.5
4130.198	-142.5
4132.609	-140.5
4135.019	-148.5
4137.427	-146.5
4139.833	-146.5
4142.237	-144.5
