Data from Learning #15 - 15s_RamanShift_01.txt Node
Date: Sun Mar 19 14:14:34 IST 2017
User: aro
Spectrometer: QEPB0276
Trigger mode: 0
Integration Time (sec): 1.500000E1
Scans to average: 1
Electric dark correction enabled: true
Nonlinearity correction enabled: false
Boxcar width: 0
XAxis mode: Raman Shifts
Number of Pixels in Spectrum: 1044
>>>>>Begin Spectral Data<<<<<
160.701	-65.5
166.742	20.5
172.777	303.5
178.805	1166.5
184.826	3367.5
190.841	7191.5
196.849	11475.5
202.85	14294.5
208.845	14959.5
214.833	14584.5
220.815	14212.5
226.789	14025.5
232.758	13849.5
238.719	13651.5
244.674	13406.5
250.623	13099.5
256.565	12816.5
262.5	12540.5
268.429	12258.5
274.351	12029.5
280.267	11739.5
286.176	11554.5
292.079	11266.5
297.975	10974.5
303.865	10636.5
309.748	10386.5
315.625	10182.5
321.495	9988.5
327.359	9814.5
333.217	9617.5
339.068	9540.5
344.912	9411.5
350.751	9354.5
356.583	9319.5
362.408	9307.5
368.227	9246.5
374.04	9326.5
379.847	9335.5
385.647	9454.5
391.44	9526.5
397.228	9670.5
403.009	9919.5
408.784	10189.5
414.553	10532.5
420.315	11169.5
426.071	12154.5
431.821	13241.5
437.565	14188.5
443.302	14398.5
449.033	13640.5
454.758	12522.5
460.477	11498.5
466.189	10744.5
471.896	10293.5
477.596	9932.5
483.29	9736.5
488.978	9557.5
494.66	9450.5
500.335	9301.5
506.005	9088.5
511.668	8954.5
517.325	8810.5
522.977	8634.5
528.622	8548.5
534.261	8495.5
539.894	8415.5
545.521	8353.5
551.141	8317.5
556.756	8314.5
562.365	8294.5
567.968	8236.5
573.565	8207.5
579.155	8181.5
584.74	8095.5
590.319	8122.5
595.892	8074.5
601.459	8034.5
607.02	8011.5
612.575	7926.5
618.124	7900.5
623.667	7868.5
629.204	7818.5
634.735	7789.5
640.261	7754.5
645.781	7738.5
651.294	7703.5
656.802	7711.5
662.304	7704.5
667.8	7708.5
673.29	7678.5
678.775	7691.5
684.254	7716.5
689.726	7681.5
695.193	7663.5
700.655	7602.5
706.11	7611.5
711.56	7616.5
717.004	7605.5
722.442	7585.5
727.874	7569.5
733.301	7611.5
738.722	7579.5
744.137	7612.5
749.547	7674.5
754.951	7675.5
760.349	7684.5
765.741	7755.5
771.128	7812.5
776.509	7869.5
781.885	7944.5
787.254	8024.5
792.618	8063.5
797.977	8091.5
803.33	8222.5
808.677	8267.5
814.019	8362.5
819.355	8448.5
824.686	8496.5
830.011	8596.5
835.33	8773.5
840.644	8994.5
845.952	9393.5
851.255	9991.5
856.552	10901.5
861.844	12672.5
867.13	16460.5
872.41	24343.5
877.686	37070.5
882.955	48352.5
888.219	47858.5
893.478	35592.5
898.731	22381.5
903.979	14923.5
909.221	11649.5
914.458	10159.5
919.69	9380.5
924.916	8904.5
930.136	8624.5
935.351	8423.5
940.561	8304.5
945.766	8218.5
950.965	8158.5
956.158	8090.5
961.347	8002.5
966.529	7934.5
971.707	7886.5
976.879	7839.5
982.046	7863.5
987.208	7933.5
992.364	8103.5
997.515	8389.5
1002.66	8758.5
1007.801	9346.5
1012.936	10270.5
1018.066	11287.5
1023.19	12147.5
1028.309	12895.5
1033.423	13731.5
1038.532	15395.5
1043.636	18254.5
1048.734	21232.5
1053.827	22116.5
1058.915	20209.5
1063.998	17434.5
1069.075	15842.5
1074.147	15926.5
1079.214	17397.5
1084.276	19676.5
1089.333	21851.5
1094.385	22180.5
1099.431	20252.5
1104.472	17062.5
1109.509	14361.5
1114.54	12810.5
1119.565	12023.5
1124.586	11566.5
1129.602	11157.5
1134.613	10606.5
1139.618	10012.5
1144.619	9522.5
1149.614	9140.5
1154.604	8896.5
1159.589	8755.5
1164.57	8651.5
1169.545	8507.5
1174.515	8345.5
1179.48	8147.5
1184.44	8020.5
1189.395	7963.5
1194.345	7836.5
1199.29	7838.5
1204.23	7821.5
1209.165	7902.5
1214.095	7945.5
1219.021	8100.5
1223.941	8151.5
1228.856	8298.5
1233.766	8420.5
1238.672	8581.5
1243.572	8697.5
1248.467	8901.5
1253.358	9018.5
1258.244	9271.5
1263.124	9638.5
1268	10341.5
1272.871	11418.5
1277.737	12716.5
1282.599	13651.5
1287.455	13283.5
1292.306	12124.5
1297.153	10941.5
1301.995	10135.5
1306.832	9659.5
1311.664	9404.5
1316.491	9249.5
1321.314	9112.5
1326.132	8953.5
1330.945	8831.5
1335.753	8700.5
1340.556	8553.5
1345.354	8452.5
1350.148	8413.5
1354.937	8425.5
1359.722	8555.5
1364.501	8774.5
1369.276	8999.5
1374.046	9263.5
1378.811	9648.5
1383.572	10168.5
1388.327	10455.5
1393.079	10598.5
1397.825	10543.5
1402.567	10501.5
1407.304	10568.5
1412.036	10898.5
1416.764	11224.5
1421.487	11677.5
1426.205	12177.5
1430.919	12783.5
1435.628	13521.5
1440.333	14712.5
1445.032	16671.5
1449.727	19993.5
1454.418	24475.5
1459.104	27639.5
1463.785	26445.5
1468.462	21842.5
1473.134	17529.5
1477.802	15326.5
1482.465	14735.5
1487.123	14671.5
1491.777	14290.5
1496.426	13258.5
1501.071	12035.5
1505.711	11022.5
1510.347	10431.5
1514.978	10022.5
1519.604	9770.5
1524.226	9507.5
1528.844	9270.5
1533.457	9068.5
1538.065	8861.5
1542.669	8674.5
1547.269	8469.5
1551.864	8297.5
1556.454	8190.5
1561.041	8056.5
1565.622	7961.5
1570.199	7876.5
1574.772	7848.5
1579.34	7820.5
1583.904	7766.5
1588.464	7731.5
1593.019	7730.5
1597.569	7612.5
1602.115	7596.5
1606.657	7492.5
1611.195	7402.5
1615.728	7424.5
1620.256	7430.5
1624.78	7453.5
1629.3	7486.5
1633.816	7520.5
1638.327	7495.5
1642.834	7511.5
1647.336	7570.5
1651.834	7615.5
1656.328	7619.5
1660.817	7580.5
1665.302	7565.5
1669.783	7498.5
1674.259	7388.5
1678.732	7293.5
1683.199	7134.5
1687.663	6992.5
1692.122	6842.5
1696.577	6716.5
1701.028	6689.5
1705.474	6679.5
1709.917	6688.5
1714.355	6629.5
1718.788	6550.5
1723.218	6488.5
1727.643	6384.5
1732.064	6328.5
1736.481	6238.5
1740.893	6102.5
1745.301	6038.5
1749.705	5925.5
1754.105	5811.5
1758.501	5726.5
1762.893	5633.5
1767.28	5601.5
1771.663	5537.5
1776.042	5532.5
1780.417	5578.5
1784.787	5595.5
1789.154	5627.5
1793.516	5711.5
1797.874	5731.5
1802.228	5755.5
1806.578	5783.5
1810.924	5718.5
1815.266	5712.5
1819.603	5634.5
1823.937	5543.5
1828.266	5513.5
1832.591	5443.5
1836.913	5397.5
1841.23	5358.5
1845.543	5365.5
1849.852	5332.5
1854.156	5372.5
1858.457	5399.5
1862.754	5379.5
1867.047	5427.5
1871.335	5433.5
1875.62	5448.5
1879.9	5470.5
1884.177	5424.5
1888.449	5400.5
1892.718	5385.5
1896.982	5422.5
1901.243	5384.5
1905.499	5377.5
1909.752	5387.5
1914	5387.5
1918.245	5378.5
1922.485	5397.5
1926.722	5407.5
1930.954	5441.5
1935.183	5451.5
1939.408	5467.5
1943.628	5470.5
1947.845	5474.5
1952.058	5487.5
1956.267	5471.5
1960.472	5435.5
1964.673	5347.5
1968.87	5319.5
1973.063	5300.5
1977.252	5259.5
1981.438	5215.5
1985.619	5174.5
1989.797	5179.5
1993.971	5163.5
1998.14	5144.5
2002.306	5157.5
2006.469	5173.5
2010.627	5168.5
2014.781	5150.5
2018.932	5137.5
2023.078	5113.5
2027.221	5105.5
2031.36	5050.5
2035.495	5024.5
2039.627	4975.5
2043.754	4951.5
2047.878	4916.5
2051.998	4939.5
2056.114	4936.5
2060.226	4952.5
2064.334	4956.5
2068.439	4983.5
2072.54	5042.5
2076.637	5088.5
2080.73	5090.5
2084.82	5119.5
2088.906	5166.5
2092.988	5175.5
2097.066	5114.5
2101.14	5062.5
2105.211	5027.5
2109.278	5023.5
2113.342	4990.5
2117.401	4988.5
2121.457	4956.5
2125.509	5003.5
2129.558	4961.5
2133.602	4933.5
2137.643	4937.5
2141.681	4930.5
2145.714	4939.5
2149.744	4923.5
2153.77	4868.5
2157.793	4882.5
2161.812	4868.5
2165.827	4812.5
2169.838	4742.5
2173.846	4690.5
2177.851	4634.5
2181.851	4597.5
2185.848	4587.5
2189.841	4540.5
2193.831	4529.5
2197.817	4457.5
2201.799	4509.5
2205.778	4505.5
2209.753	4523.5
2213.725	4491.5
2217.693	4527.5
2221.657	4518.5
2225.618	4557.5
2229.575	4543.5
2233.529	4505.5
2237.479	4517.5
2241.425	4486.5
2245.368	4458.5
2249.307	4439.5
2253.243	4405.5
2257.175	4369.5
2261.104	4380.5
2265.029	4355.5
2268.95	4306.5
2272.868	4295.5
2276.783	4229.5
2280.694	4235.5
2284.601	4214.5
2288.505	4182.5
2292.405	4153.5
2296.302	4144.5
2300.195	4097.5
2304.085	4023.5
2307.971	3969.5
2311.854	3924.5
2315.734	3885.5
2319.609	3817.5
2323.482	3764.5
2327.351	3731.5
2331.216	3733.5
2335.078	3710.5
2338.937	3688.5
2342.792	3658.5
2346.643	3638.5
2350.492	3649.5
2354.336	3640.5
2358.178	3652.5
2362.015	3651.5
2365.85	3685.5
2369.681	3659.5
2373.508	3685.5
2377.333	3673.5
2381.153	3650.5
2384.971	3622.5
2388.785	3624.5
2392.595	3583.5
2396.402	3580.5
2400.206	3537.5
2404.007	3555.5
2407.804	3560.5
2411.597	3556.5
2415.388	3527.5
2419.174	3532.5
2422.958	3521.5
2426.738	3532.5
2430.515	3531.5
2434.289	3541.5
2438.059	3538.5
2441.825	3504.5
2445.589	3479.5
2449.349	3482.5
2453.106	3485.5
2456.859	3459.5
2460.61	3444.5
2464.356	3421.5
2468.1	3396.5
2471.84	3391.5
2475.577	3379.5
2479.311	3376.5
2483.041	3380.5
2486.768	3370.5
2490.492	3407.5
2494.213	3398.5
2497.93	3392.5
2501.644	3404.5
2505.355	3395.5
2509.062	3421.5
2512.766	3385.5
2516.467	3428.5
2520.165	3403.5
2523.859	3384.5
2527.551	3393.5
2531.239	3396.5
2534.923	3398.5
2538.605	3404.5
2542.283	3449.5
2545.958	3446.5
2549.63	3460.5
2553.299	3448.5
2556.964	3468.5
2560.626	3408.5
2564.285	3363.5
2567.941	3364.5
2571.594	3348.5
2575.243	3353.5
2578.89	3293.5
2582.533	3264.5
2586.173	3267.5
2589.809	3246.5
2593.443	3260.5
2597.073	3236.5
2600.701	3226.5
2604.325	3213.5
2607.946	3253.5
2611.564	3207.5
2615.178	3220.5
2618.79	3223.5
2622.398	3209.5
2626.004	3163.5
2629.606	3157.5
2633.205	3142.5
2636.801	3071.5
2640.394	3099.5
2643.983	3083.5
2647.57	3064.5
2651.153	3053.5
2654.734	3032.5
2658.311	3058.5
2661.885	3043.5
2665.456	3025.5
2669.025	3035.5
2672.589	3026.5
2676.151	3023.5
2679.71	3067.5
2683.266	3099.5
2686.819	3109.5
2690.368	3132.5
2693.915	3170.5
2697.458	3241.5
2700.999	3304.5
2704.536	3380.5
2708.071	3472.5
2711.602	3597.5
2715.13	3720.5
2718.656	3818.5
2722.178	3934.5
2725.697	4010.5
2729.214	4091.5
2732.727	4168.5
2736.237	4147.5
2739.744	4119.5
2743.249	4061.5
2746.75	4029.5
2750.248	4020.5
2753.743	4045.5
2757.236	4064.5
2760.725	4048.5
2764.211	4035.5
2767.695	3910.5
2771.175	3847.5
2774.652	3763.5
2778.127	3713.5
2781.598	3671.5
2785.067	3637.5
2788.532	3649.5
2791.995	3711.5
2795.455	3739.5
2798.911	3827.5
2802.365	3876.5
2805.816	3988.5
2809.264	4097.5
2812.709	4216.5
2816.151	4380.5
2819.59	4600.5
2823.026	4791.5
2826.46	5012.5
2829.89	5318.5
2833.318	5649.5
2836.742	5989.5
2840.164	6366.5
2843.583	6688.5
2846.999	7023.5
2850.412	7347.5
2853.822	7578.5
2857.229	7859.5
2860.634	8272.5
2864.035	8768.5
2867.434	9458.5
2870.83	10378.5
2874.223	11511.5
2877.613	12927.5
2881	14266.5
2884.385	15323.5
2887.766	15640.5
2891.145	15590.5
2894.521	15228.5
2897.894	15015.5
2901.264	14718.5
2904.631	14439.5
2907.996	14116.5
2911.358	13934.5
2914.717	13860.5
2918.073	14055.5
2921.426	14562.5
2924.777	15547.5
2928.124	17169.5
2931.469	19143.5
2934.811	20715.5
2938.15	21231.5
2941.487	20348.5
2944.821	18782.5
2948.152	17011.5
2951.48	15358.5
2954.805	13879.5
2958.128	12626.5
2961.447	11813.5
2964.765	11117.5
2968.079	10809.5
2971.39	10801.5
2974.699	10924.5
2978.005	11157.5
2981.308	11220.5
2984.609	11012.5
2987.907	10538.5
2991.202	9833.5
2994.494	8983.5
2997.784	8132.5
3001.07	7409.5
3004.355	6709.5
3007.636	6144.5
3010.915	5649.5
3014.191	5233.5
3017.464	4897.5
3020.734	4606.5
3024.002	4316.5
3027.267	4099.5
3030.53	3919.5
3033.789	3752.5
3037.046	3623.5
3040.301	3522.5
3043.552	3410.5
3046.801	3333.5
3050.048	3270.5
3053.291	3207.5
3056.532	3205.5
3059.771	3166.5
3063.006	3124.5
3066.239	3115.5
3069.469	3126.5
3072.697	3093.5
3075.922	3088.5
3079.144	3067.5
3082.364	3037.5
3085.581	3068.5
3088.795	3028.5
3092.007	3030.5
3095.216	3023.5
3098.423	3033.5
3101.627	3037.5
3104.828	3035.5
3108.026	3053.5
3111.222	3071.5
3114.416	3073.5
3117.607	3072.5
3120.795	3104.5
3123.98	3175.5
3127.163	3214.5
3130.344	3227.5
3133.521	3252.5
3136.696	3298.5
3139.869	3316.5
3143.039	3323.5
3146.206	3320.5
3149.371	3356.5
3152.533	3349.5
3155.693	3379.5
3158.85	3383.5
3162.005	3387.5
3165.157	3371.5
3168.306	3344.5
3171.453	3365.5
3174.597	3342.5
3177.739	3357.5
3180.878	3346.5
3184.014	3329.5
3187.149	3345.5
3190.28	3370.5
3193.409	3384.5
3196.536	3353.5
3199.659	3340.5
3202.781	3379.5
3205.9	3352.5
3209.016	3371.5
3212.13	3352.5
3215.241	3318.5
3218.35	3309.5
3221.456	3270.5
3224.56	3239.5
3227.661	3237.5
3230.76	3184.5
3233.856	3172.5
3236.95	3138.5
3240.041	3110.5
3243.13	3082.5
3246.216	3080.5
3249.3	3034.5
3252.382	3033.5
3255.46	3028.5
3258.537	2995.5
3261.611	2977.5
3264.682	2982.5
3267.751	2959.5
3270.818	2938.5
3273.882	2952.5
3276.943	2918.5
3280.002	2872.5
3283.059	2848.5
3286.113	2802.5
3289.165	2773.5
3292.214	2734.5
3295.261	2669.5
3298.306	2659.5
3301.348	2595.5
3304.387	2562.5
3307.425	2498.5
3310.459	2481.5
3313.492	2438.5
3316.521	2390.5
3319.549	2367.5
3322.574	2333.5
3325.597	2324.5
3328.617	2292.5
3331.635	2288.5
3334.65	2288.5
3337.663	2266.5
3340.674	2253.5
3343.682	2224.5
3346.688	2225.5
3349.691	2214.5
3352.692	2202.5
3355.691	2174.5
3358.687	2180.5
3361.681	2159.5
3364.673	2113.5
3367.662	2085.5
3370.649	2061.5
3373.633	2044.5
3376.615	2001.5
3379.595	1999.5
3382.572	1954.5
3385.547	1944.5
3388.52	1921.5
3391.49	1880.5
3394.458	1854.5
3397.424	1842.5
3400.387	1827.5
3403.348	1800.5
3406.307	1773.5
3409.263	1764.5
3412.217	1737.5
3415.168	1737.5
3418.118	1734.5
3421.065	1697.5
3424.009	1686.5
3426.951	1656.5
3429.891	1629.5
3432.829	1615.5
3435.764	1568.5
3438.697	1547.5
3441.628	1520.5
3444.557	1478.5
3447.483	1434.5
3450.407	1374.5
3453.328	1354.5
3456.247	1310.5
3459.164	1299.5
3462.079	1248.5
3464.991	1202.5
3467.902	1162.5
3470.809	1138.5
3473.715	1103.5
3476.618	1087.5
3479.519	1049.5
3482.418	1029.5
3485.315	995.5
3488.209	951.5
3491.101	935.5
3493.99	906.5
3496.878	884.5
3499.763	847.5
3502.646	823.5
3505.527	809.5
3508.405	784.5
3511.281	745.5
3514.155	704.5
3517.027	677.5
3519.897	635.5
3522.764	602.5
3525.629	574.5
3528.492	553.5
3531.352	512.5
3534.211	483.5
3537.067	458.5
3539.921	436.5
3542.773	400.5
3545.622	383.5
3548.469	355.5
3551.315	335.5
3554.157	323.5
3556.998	300.5
3559.837	274.5
3562.673	261.5
3565.507	241.5
3568.339	227.5
3571.169	204.5
3573.996	190.5
3576.822	176.5
3579.645	160.5
3582.466	149.5
3585.285	123.5
3588.101	106.5
3590.916	97.5
3593.728	87.5
3596.538	71.5
3599.346	50.5
3602.152	47.5
3604.956	32.5
3607.757	18.5
3610.556	15.5
3613.354	-5.5
3616.149	-14.5
3618.942	-26.5
3621.732	-35.5
3624.521	-24.5
3627.307	-41.5
3630.092	-57.5
3632.874	-57.5
3635.654	-63.5
3638.432	-70.5
3641.208	-85.5
3643.982	-88.5
3646.753	-105.5
3649.523	-90.5
3652.29	-108.5
3655.055	-119.5
3657.818	-125.5
3660.579	-130.5
3663.338	-132.5
3666.095	-137.5
3668.849	-137.5
3671.602	-151.5
3674.352	-148.5
3677.101	-168.5
3679.847	-176.5
3682.591	-174.5
3685.333	-172.5
3688.073	-177.5
3690.811	-185.5
3693.547	-186.5
3696.281	-199.5
3699.013	-201.5
3701.742	-205.5
3704.47	-196.5
3707.195	-208.5
3709.919	-209.5
3712.64	-211.5
3715.359	-211.5
3718.076	-223.5
3720.792	-226.5
3723.505	-220.5
3726.216	-237.5
3728.925	-227.5
3731.632	-231.5
3734.336	-229.5
3737.039	-228.5
3739.74	-238.5
3742.439	-225.5
3745.136	-239.5
3747.83	-247.5
3750.523	-245.5
3753.213	-218.5
3755.902	-252.5
3758.589	-241.5
3761.273	-251.5
3763.956	-258.5
3766.636	-251.5
3769.315	-254.5
3771.991	-258.5
3774.665	-260.5
3777.338	-267.5
3780.008	-262.5
3782.677	-253.5
3785.343	-258.5
3788.007	-259.5
3790.67	-266.5
3793.33	-264.5
3795.989	-263.5
3798.645	-275.5
3801.299	-268.5
3803.952	-268.5
3806.602	-267.5
3809.251	-278.5
3811.897	-267.5
3814.542	-272.5
3817.184	-274.5
3819.825	-279.5
3822.463	-281.5
3825.1	-281.5
3827.735	-285.5
3830.367	-279.5
3832.998	-284.5
3835.627	-288.5
3838.253	-291.5
3840.878	-288.5
3843.501	-296.5
3846.122	-291.5
3848.741	-295.5
3851.358	-292.5
3853.973	-278.5
3856.586	-289.5
3859.197	-287.5
3861.806	-297.5
3864.414	-295.5
3867.019	-291.5
3869.622	-297.5
3872.224	-290.5
3874.823	-287.5
3877.421	-282.5
3880.016	-277.5
3882.61	-271.5
3885.202	-273.5
3887.792	-277.5
3890.38	-293.5
3892.966	-296.5
3895.55	-293.5
3898.132	-300.5
3900.713	-306.5
3903.291	-306.5
3905.868	-304.5
3908.442	-310.5
3911.015	-306.5
3913.586	-307.5
3916.155	-310.5
3918.722	-308.5
3921.287	-306.5
3923.85	-308.5
3926.411	-311.5
3928.971	-314.5
3931.528	-310.5
3934.084	-313.5
3936.638	-311.5
3939.19	-317.5
3941.74	-318.5
3944.288	-314.5
3946.834	-308.5
3949.378	-320.5
3951.921	-307.5
3954.462	-308.5
3957	-314.5
3959.537	-315.5
3962.072	-305.5
3964.606	-307.5
3967.137	-316.5
3969.667	-313.5
3972.194	-316.5
3974.72	-305.5
3977.244	-300.5
3979.766	-301.5
3982.286	-305.5
3984.805	-306.5
3987.321	-311.5
3989.836	-307.5
3992.349	-303.5
3994.86	-308.5
3997.369	-306.5
3999.877	-308.5
4002.382	-312.5
4004.886	-312.5
4007.388	-308.5
4009.888	-312.5
4012.386	-307.5
4014.883	-313.5
4017.377	-305.5
4019.87	-307.5
4022.361	-308.5
4024.85	-312.5
4027.338	-315.5
4029.823	-314.5
4032.307	-311.5
4034.789	-316.5
4037.269	-316.5
4039.747	-307.5
4042.224	-310.5
4044.699	-305.5
4047.172	-309.5
4049.643	-320.5
4052.112	-305.5
4054.58	-314.5
4057.046	-309.5
4059.51	-309.5
4061.972	-311.5
4064.432	-304.5
4066.891	-314.5
4069.348	-311.5
4071.803	-319.5
4074.256	-316.5
4076.708	-310.5
4079.158	-313.5
4081.606	-322.5
4084.052	-309.5
4086.497	-312.5
4088.939	-308.5
4091.38	-310.5
4093.819	-314.5
4096.257	-354.5
4098.693	-351.5
4101.127	-354.5
4103.559	-354.5
4105.989	-198.5
4108.418	-187.5
4110.845	-182.5
4113.27	-165.5
4115.694	-146.5
4118.115	-122.5
4120.535	-316.5
4122.954	-316.5
4125.37	-314.5
4127.785	-319.5
4130.198	-317.5
4132.609	-318.5
4135.019	-355.5
4137.427	-355.5
4139.833	-356.5
4142.237	-357.5
