Data from Learning #14 - 15s_RamanShift_01.txt Node
Date: Sun Mar 19 14:17:12 IST 2017
User: aro
Spectrometer: QEPB0276
Trigger mode: 0
Integration Time (sec): 1.500000E1
Scans to average: 1
Electric dark correction enabled: true
Nonlinearity correction enabled: false
Boxcar width: 0
XAxis mode: Raman Shifts
Number of Pixels in Spectrum: 1044
>>>>>Begin Spectral Data<<<<<
160.701	-91.5
166.742	15.5
172.777	334.5
178.805	1337.5
184.826	3811.5
190.841	8105.5
196.849	12930.5
202.85	16144.5
208.845	16787.5
214.833	16362.5
220.815	15887.5
226.789	15543.5
232.758	15344.5
238.719	15057.5
244.674	14618.5
250.623	14221.5
256.565	13738.5
262.5	13322.5
268.429	12915.5
274.351	12574.5
280.267	12297.5
286.176	11946.5
292.079	11665.5
297.975	11325.5
303.865	11041.5
309.748	10802.5
315.625	10471.5
321.495	10320.5
327.359	10113.5
333.217	9964.5
339.068	9878.5
344.912	9751.5
350.751	9742.5
356.583	9664.5
362.408	9623.5
368.227	9624.5
374.04	9576.5
379.847	9646.5
385.647	9712.5
391.44	9781.5
397.228	9850.5
403.009	9953.5
408.784	10124.5
414.553	10343.5
420.315	10706.5
426.071	11122.5
431.821	11753.5
437.565	12280.5
443.302	12298.5
449.033	12004.5
454.758	11367.5
460.477	10830.5
466.189	10422.5
471.896	10176.5
477.596	9910.5
483.29	9829.5
488.978	9732.5
494.66	9604.5
500.335	9510.5
506.005	9374.5
511.668	9167.5
517.325	9067.5
522.977	8928.5
528.622	8839.5
534.261	8735.5
539.894	8706.5
545.521	8628.5
551.141	8598.5
556.756	8541.5
562.365	8514.5
567.968	8523.5
573.565	8482.5
579.155	8458.5
584.74	8405.5
590.319	8378.5
595.892	8378.5
601.459	8322.5
607.02	8275.5
612.575	8159.5
618.124	8105.5
623.667	8096.5
629.204	8042.5
634.735	7959.5
640.261	7953.5
645.781	7887.5
651.294	7929.5
656.802	7909.5
662.304	7856.5
667.8	7886.5
673.29	7896.5
678.775	7876.5
684.254	7841.5
689.726	7844.5
695.193	7816.5
700.655	7793.5
706.11	7828.5
711.56	7718.5
717.004	7712.5
722.442	7745.5
727.874	7689.5
733.301	7714.5
738.722	7702.5
744.137	7701.5
749.547	7703.5
754.951	7704.5
760.349	7768.5
765.741	7769.5
771.128	7818.5
776.509	7854.5
781.885	7881.5
787.254	7928.5
792.618	7974.5
797.977	7950.5
803.33	7981.5
808.677	8018.5
814.019	8022.5
819.355	8034.5
824.686	8057.5
830.011	8099.5
835.33	8169.5
840.644	8321.5
845.952	8559.5
851.255	8887.5
856.552	9403.5
861.844	10408.5
867.13	12498.5
872.41	16977.5
877.686	23884.5
882.955	29597.5
888.219	28472.5
893.478	21332.5
898.731	14500.5
903.979	10865.5
909.221	9326.5
914.458	8607.5
919.69	8230.5
924.916	8008.5
930.136	7872.5
935.351	7802.5
940.561	7741.5
945.766	7700.5
950.965	7635.5
956.158	7609.5
961.347	7541.5
966.529	7441.5
971.707	7354.5
976.879	7347.5
982.046	7352.5
987.208	7392.5
992.364	7461.5
997.515	7638.5
1002.66	7901.5
1007.801	8265.5
1012.936	8770.5
1018.066	9430.5
1023.19	9913.5
1028.309	10200.5
1033.423	10577.5
1038.532	11450.5
1043.636	12993.5
1048.734	14583.5
1053.827	14931.5
1058.915	13671.5
1063.998	12126.5
1069.075	11439.5
1074.147	11615.5
1079.214	12513.5
1084.276	13865.5
1089.333	14955.5
1094.385	14920.5
1099.431	13680.5
1104.472	12019.5
1109.509	10718.5
1114.54	9943.5
1119.565	9533.5
1124.586	9316.5
1129.602	9165.5
1134.613	8837.5
1139.618	8553.5
1144.619	8262.5
1149.614	8121.5
1154.604	8018.5
1159.589	8013.5
1164.57	7925.5
1169.545	7845.5
1174.515	7778.5
1179.48	7689.5
1184.44	7620.5
1189.395	7572.5
1194.345	7529.5
1199.29	7510.5
1204.23	7523.5
1209.165	7554.5
1214.095	7647.5
1219.021	7716.5
1223.941	7784.5
1228.856	7877.5
1233.766	7960.5
1238.672	8054.5
1243.572	8200.5
1248.467	8197.5
1253.358	8281.5
1258.244	8338.5
1263.124	8484.5
1268	8743.5
1272.871	9313.5
1277.737	9980.5
1282.599	10394.5
1287.455	10339.5
1292.306	9820.5
1297.153	9197.5
1301.995	8833.5
1306.832	8563.5
1311.664	8504.5
1316.491	8392.5
1321.314	8297.5
1326.132	8186.5
1330.945	8075.5
1335.753	7957.5
1340.556	7804.5
1345.354	7663.5
1350.148	7606.5
1354.937	7631.5
1359.722	7710.5
1364.501	7940.5
1369.276	8146.5
1374.046	8288.5
1378.811	8578.5
1383.572	8886.5
1388.327	8988.5
1393.079	9046.5
1397.825	8967.5
1402.567	8887.5
1407.304	8857.5
1412.036	8961.5
1416.764	9168.5
1421.487	9372.5
1426.205	9631.5
1430.919	9960.5
1435.628	10440.5
1440.333	11002.5
1445.032	12016.5
1449.727	13752.5
1454.418	16304.5
1459.104	18066.5
1463.785	17252.5
1468.462	14668.5
1473.134	12398.5
1477.802	11212.5
1482.465	10819.5
1487.123	10887.5
1491.777	10722.5
1496.426	10276.5
1501.071	9686.5
1505.711	9248.5
1510.347	8998.5
1514.978	8817.5
1519.604	8749.5
1524.226	8637.5
1528.844	8571.5
1533.457	8511.5
1538.065	8346.5
1542.669	8248.5
1547.269	8139.5
1551.864	8037.5
1556.454	7993.5
1561.041	7939.5
1565.622	7903.5
1570.199	7876.5
1574.772	7913.5
1579.34	7896.5
1583.904	7960.5
1588.464	7985.5
1593.019	7919.5
1597.569	7952.5
1602.115	7883.5
1606.657	7824.5
1611.195	7805.5
1615.728	7820.5
1620.256	7831.5
1624.78	7896.5
1629.3	7926.5
1633.816	7985.5
1638.327	8072.5
1642.834	8087.5
1647.336	8186.5
1651.834	8204.5
1656.328	8192.5
1660.817	8217.5
1665.302	8139.5
1669.783	8092.5
1674.259	7985.5
1678.732	7854.5
1683.199	7665.5
1687.663	7499.5
1692.122	7221.5
1696.577	7160.5
1701.028	7140.5
1705.474	7181.5
1709.917	7162.5
1714.355	7129.5
1718.788	7023.5
1723.218	6915.5
1727.643	6815.5
1732.064	6740.5
1736.481	6660.5
1740.893	6555.5
1745.301	6389.5
1749.705	6311.5
1754.105	6180.5
1758.501	6101.5
1762.893	6031.5
1767.28	5984.5
1771.663	5905.5
1776.042	5889.5
1780.417	5932.5
1784.787	6005.5
1789.154	6087.5
1793.516	6124.5
1797.874	6193.5
1802.228	6245.5
1806.578	6310.5
1810.924	6280.5
1815.266	6238.5
1819.603	6089.5
1823.937	6065.5
1828.266	5975.5
1832.591	5903.5
1836.913	5885.5
1841.23	5871.5
1845.543	5848.5
1849.852	5808.5
1854.156	5814.5
1858.457	5858.5
1862.754	5866.5
1867.047	5909.5
1871.335	5911.5
1875.62	5917.5
1879.9	5924.5
1884.177	5939.5
1888.449	5882.5
1892.718	5926.5
1896.982	5854.5
1901.243	5836.5
1905.499	5825.5
1909.752	5849.5
1914	5838.5
1918.245	5858.5
1922.485	5883.5
1926.722	5898.5
1930.954	5968.5
1935.183	5982.5
1939.408	5966.5
1943.628	6034.5
1947.845	6048.5
1952.058	6041.5
1956.267	6003.5
1960.472	5970.5
1964.673	5918.5
1968.87	5924.5
1973.063	5818.5
1977.252	5796.5
1981.438	5797.5
1985.619	5750.5
1989.797	5749.5
1993.971	5722.5
1998.14	5764.5
2002.306	5713.5
2006.469	5747.5
2010.627	5759.5
2014.781	5773.5
2018.932	5741.5
2023.078	5755.5
2027.221	5684.5
2031.36	5612.5
2035.495	5534.5
2039.627	5534.5
2043.754	5484.5
2047.878	5476.5
2051.998	5464.5
2056.114	5479.5
2060.226	5474.5
2064.334	5512.5
2068.439	5538.5
2072.54	5583.5
2076.637	5646.5
2080.73	5656.5
2084.82	5687.5
2088.906	5681.5
2092.988	5677.5
2097.066	5659.5
2101.14	5611.5
2105.211	5612.5
2109.278	5565.5
2113.342	5585.5
2117.401	5543.5
2121.457	5532.5
2125.509	5509.5
2129.558	5508.5
2133.602	5531.5
2137.643	5518.5
2141.681	5543.5
2145.714	5498.5
2149.744	5455.5
2153.77	5444.5
2157.793	5410.5
2161.812	5369.5
2165.827	5308.5
2169.838	5257.5
2173.846	5194.5
2177.851	5128.5
2181.851	5098.5
2185.848	5046.5
2189.841	5016.5
2193.831	5019.5
2197.817	4972.5
2201.799	4981.5
2205.778	4967.5
2209.753	4974.5
2213.725	4977.5
2217.693	5011.5
2221.657	4990.5
2225.618	4986.5
2229.575	4979.5
2233.529	4990.5
2237.479	4960.5
2241.425	4945.5
2245.368	4882.5
2249.307	4877.5
2253.243	4800.5
2257.175	4798.5
2261.104	4756.5
2265.029	4734.5
2268.95	4687.5
2272.868	4675.5
2276.783	4616.5
2280.694	4620.5
2284.601	4534.5
2288.505	4559.5
2292.405	4485.5
2296.302	4460.5
2300.195	4430.5
2304.085	4403.5
2307.971	4305.5
2311.854	4280.5
2315.734	4196.5
2319.609	4141.5
2323.482	4103.5
2327.351	4077.5
2331.216	4068.5
2335.078	4012.5
2338.937	4025.5
2342.792	3985.5
2346.643	3980.5
2350.492	3936.5
2354.336	3946.5
2358.178	3978.5
2362.015	3976.5
2365.85	3982.5
2369.681	3964.5
2373.508	3991.5
2377.333	4018.5
2381.153	3996.5
2384.971	3986.5
2388.785	3923.5
2392.595	3924.5
2396.402	3894.5
2400.206	3885.5
2404.007	3866.5
2407.804	3867.5
2411.597	3849.5
2415.388	3826.5
2419.174	3809.5
2422.958	3821.5
2426.738	3795.5
2430.515	3791.5
2434.289	3756.5
2438.059	3768.5
2441.825	3730.5
2445.589	3743.5
2449.349	3714.5
2453.106	3673.5
2456.859	3663.5
2460.61	3658.5
2464.356	3630.5
2468.1	3608.5
2471.84	3599.5
2475.577	3581.5
2479.311	3565.5
2483.041	3587.5
2486.768	3576.5
2490.492	3546.5
2494.213	3584.5
2497.93	3577.5
2501.644	3580.5
2505.355	3575.5
2509.062	3578.5
2512.766	3590.5
2516.467	3560.5
2520.165	3531.5
2523.859	3539.5
2527.551	3511.5
2531.239	3519.5
2534.923	3510.5
2538.605	3504.5
2542.283	3500.5
2545.958	3496.5
2549.63	3467.5
2553.299	3461.5
2556.964	3472.5
2560.626	3445.5
2564.285	3440.5
2567.941	3432.5
2571.594	3409.5
2575.243	3371.5
2578.89	3370.5
2582.533	3309.5
2586.173	3313.5
2589.809	3294.5
2593.443	3301.5
2597.073	3281.5
2600.701	3251.5
2604.325	3249.5
2607.946	3262.5
2611.564	3254.5
2615.178	3234.5
2618.79	3234.5
2622.398	3207.5
2626.004	3198.5
2629.606	3177.5
2633.205	3147.5
2636.801	3121.5
2640.394	3101.5
2643.983	3072.5
2647.57	3071.5
2651.153	3045.5
2654.734	3034.5
2658.311	3022.5
2661.885	2990.5
2665.456	2933.5
2669.025	2945.5
2672.589	2936.5
2676.151	2913.5
2679.71	2938.5
2683.266	2930.5
2686.819	2873.5
2690.368	2892.5
2693.915	2916.5
2697.458	2908.5
2700.999	2923.5
2704.536	2942.5
2708.071	2992.5
2711.602	3028.5
2715.13	3075.5
2718.656	3118.5
2722.178	3168.5
2725.697	3241.5
2729.214	3255.5
2732.727	3294.5
2736.237	3302.5
2739.744	3326.5
2743.249	3302.5
2746.75	3256.5
2750.248	3236.5
2753.743	3265.5
2757.236	3250.5
2760.725	3279.5
2764.211	3273.5
2767.695	3194.5
2771.175	3140.5
2774.652	3109.5
2778.127	3060.5
2781.598	3018.5
2785.067	3014.5
2788.532	2999.5
2791.995	2985.5
2795.455	3059.5
2798.911	3046.5
2802.365	3110.5
2805.816	3136.5
2809.264	3196.5
2812.709	3249.5
2816.151	3291.5
2819.59	3382.5
2823.026	3481.5
2826.46	3593.5
2829.89	3702.5
2833.318	3844.5
2836.742	4016.5
2840.164	4149.5
2843.583	4353.5
2846.999	4519.5
2850.412	4676.5
2853.822	4792.5
2857.229	4954.5
2860.634	5113.5
2864.035	5320.5
2867.434	5625.5
2870.83	6061.5
2874.223	6628.5
2877.613	7258.5
2881	7991.5
2884.385	8623.5
2887.766	8878.5
2891.145	8831.5
2894.521	8677.5
2897.894	8460.5
2901.264	8300.5
2904.631	8266.5
2907.996	8149.5
2911.358	8033.5
2914.717	7995.5
2918.073	8010.5
2921.426	8181.5
2924.777	8649.5
2928.124	9445.5
2931.469	10486.5
2934.811	11479.5
2938.15	11934.5
2941.487	11670.5
2944.821	10925.5
2948.152	10104.5
2951.48	9273.5
2954.805	8438.5
2958.128	7754.5
2961.447	7250.5
2964.765	6924.5
2968.079	6724.5
2971.39	6674.5
2974.699	6735.5
2978.005	6842.5
2981.308	6944.5
2984.609	6936.5
2987.907	6766.5
2991.202	6446.5
2994.494	6057.5
2997.784	5654.5
3001.07	5225.5
3004.355	4865.5
3007.636	4572.5
3010.915	4311.5
3014.191	4090.5
3017.464	3930.5
3020.734	3718.5
3024.002	3605.5
3027.267	3504.5
3030.53	3404.5
3033.789	3302.5
3037.046	3267.5
3040.301	3207.5
3043.552	3176.5
3046.801	3125.5
3050.048	3121.5
3053.291	3119.5
3056.532	3113.5
3059.771	3153.5
3063.006	3154.5
3066.239	3152.5
3069.469	3189.5
3072.697	3227.5
3075.922	3233.5
3079.144	3277.5
3082.364	3266.5
3085.581	3307.5
3088.795	3313.5
3092.007	3360.5
3095.216	3367.5
3098.423	3397.5
3101.627	3456.5
3104.828	3468.5
3108.026	3510.5
3111.222	3535.5
3114.416	3559.5
3117.607	3626.5
3120.795	3676.5
3123.98	3739.5
3127.163	3786.5
3130.344	3837.5
3133.521	3901.5
3136.696	3928.5
3139.869	3990.5
3143.039	4056.5
3146.206	4045.5
3149.371	4078.5
3152.533	4144.5
3155.693	4127.5
3158.85	4130.5
3162.005	4154.5
3165.157	4185.5
3168.306	4138.5
3171.453	4138.5
3174.597	4149.5
3177.739	4163.5
3180.878	4156.5
3184.014	4155.5
3187.149	4138.5
3190.28	4178.5
3193.409	4154.5
3196.536	4172.5
3199.659	4199.5
3202.781	4172.5
3205.9	4203.5
3209.016	4192.5
3212.13	4143.5
3215.241	4163.5
3218.35	4111.5
3221.456	4086.5
3224.56	4056.5
3227.661	4018.5
3230.76	3966.5
3233.856	3942.5
3236.95	3926.5
3240.041	3873.5
3243.13	3841.5
3246.216	3824.5
3249.3	3802.5
3252.382	3797.5
3255.46	3787.5
3258.537	3727.5
3261.611	3732.5
3264.682	3754.5
3267.751	3743.5
3270.818	3687.5
3273.882	3675.5
3276.943	3659.5
3280.002	3622.5
3283.059	3580.5
3286.113	3555.5
3289.165	3469.5
3292.214	3417.5
3295.261	3361.5
3298.306	3325.5
3301.348	3254.5
3304.387	3229.5
3307.425	3143.5
3310.459	3129.5
3313.492	3066.5
3316.521	3009.5
3319.549	2997.5
3322.574	2957.5
3325.597	2945.5
3328.617	2916.5
3331.635	2888.5
3334.65	2894.5
3337.663	2852.5
3340.674	2831.5
3343.682	2829.5
3346.688	2817.5
3349.691	2792.5
3352.692	2811.5
3355.691	2767.5
3358.687	2712.5
3361.681	2700.5
3364.673	2683.5
3367.662	2632.5
3370.649	2595.5
3373.633	2577.5
3376.615	2522.5
3379.595	2517.5
3382.572	2480.5
3385.547	2458.5
3388.52	2388.5
3391.49	2381.5
3394.458	2346.5
3397.424	2317.5
3400.387	2289.5
3403.348	2251.5
3406.307	2229.5
3409.263	2220.5
3412.217	2194.5
3415.168	2174.5
3418.118	2142.5
3421.065	2150.5
3424.009	2096.5
3426.951	2097.5
3429.891	2034.5
3432.829	2001.5
3435.764	1957.5
3438.697	1936.5
3441.628	1878.5
3444.557	1819.5
3447.483	1815.5
3450.407	1747.5
3453.328	1693.5
3456.247	1642.5
3459.164	1619.5
3462.079	1570.5
3464.991	1515.5
3467.902	1483.5
3470.809	1411.5
3473.715	1357.5
3476.618	1340.5
3479.519	1310.5
3482.418	1284.5
3485.315	1227.5
3488.209	1212.5
3491.101	1173.5
3493.99	1145.5
3496.878	1119.5
3499.763	1074.5
3502.646	1058.5
3505.527	1009.5
3508.405	975.5
3511.281	931.5
3514.155	902.5
3517.027	863.5
3519.897	813.5
3522.764	776.5
3525.629	732.5
3528.492	694.5
3531.352	660.5
3534.211	619.5
3537.067	614.5
3539.921	562.5
3542.773	531.5
3545.622	505.5
3548.469	480.5
3551.315	443.5
3554.157	418.5
3556.998	386.5
3559.837	365.5
3562.673	338.5
3565.507	332.5
3568.339	316.5
3571.169	287.5
3573.996	273.5
3576.822	252.5
3579.645	242.5
3582.466	210.5
3585.285	197.5
3588.101	178.5
3590.916	160.5
3593.728	128.5
3596.538	117.5
3599.346	94.5
3602.152	88.5
3604.956	78.5
3607.757	57.5
3610.556	48.5
3613.354	32.5
3616.149	14.5
3618.942	0.5
3621.732	-19.5
3624.521	-15.5
3627.307	-27.5
3630.092	-47.5
3632.874	-41.5
3635.654	-49.5
3638.432	-51.5
3641.208	-68.5
3643.982	-82.5
3646.753	-93.5
3649.523	-90.5
3652.29	-108.5
3655.055	-119.5
3657.818	-128.5
3660.579	-131.5
3663.338	-142.5
3666.095	-143.5
3668.849	-148.5
3671.602	-164.5
3674.352	-166.5
3677.101	-189.5
3679.847	-193.5
3682.591	-193.5
3685.333	-192.5
3688.073	-202.5
3690.811	-212.5
3693.547	-210.5
3696.281	-221.5
3699.013	-225.5
3701.742	-230.5
3704.47	-228.5
3707.195	-243.5
3709.919	-238.5
3712.64	-236.5
3715.359	-242.5
3718.076	-257.5
3720.792	-261.5
3723.505	-261.5
3726.216	-269.5
3728.925	-263.5
3731.632	-269.5
3734.336	-265.5
3737.039	-270.5
3739.74	-276.5
3742.439	-257.5
3745.136	-278.5
3747.83	-283.5
3750.523	-285.5
3753.213	-261.5
3755.902	-288.5
3758.589	-284.5
3761.273	-292.5
3763.956	-292.5
3766.636	-288.5
3769.315	-301.5
3771.991	-301.5
3774.665	-297.5
3777.338	-304.5
3780.008	-299.5
3782.677	-296.5
3785.343	-298.5
3788.007	-303.5
3790.67	-307.5
3793.33	-308.5
3795.989	-308.5
3798.645	-316.5
3801.299	-311.5
3803.952	-311.5
3806.602	-316.5
3809.251	-321.5
3811.897	-316.5
3814.542	-313.5
3817.184	-317.5
3819.825	-322.5
3822.463	-319.5
3825.1	-324.5
3827.735	-327.5
3830.367	-318.5
3832.998	-327.5
3835.627	-328.5
3838.253	-333.5
3840.878	-333.5
3843.501	-336.5
3846.122	-334.5
3848.741	-333.5
3851.358	-336.5
3853.973	-322.5
3856.586	-338.5
3859.197	-330.5
3861.806	-342.5
3864.414	-337.5
3867.019	-335.5
3869.622	-340.5
3872.224	-339.5
3874.823	-330.5
3877.421	-330.5
3880.016	-323.5
3882.61	-317.5
3885.202	-312.5
3887.792	-321.5
3890.38	-329.5
3892.966	-340.5
3895.55	-338.5
3898.132	-342.5
3900.713	-347.5
3903.291	-347.5
3905.868	-349.5
3908.442	-356.5
3911.015	-357.5
3913.586	-353.5
3916.155	-356.5
3918.722	-347.5
3921.287	-356.5
3923.85	-350.5
3926.411	-357.5
3928.971	-355.5
3931.528	-355.5
3934.084	-355.5
3936.638	-359.5
3939.19	-359.5
3941.74	-360.5
3944.288	-361.5
3946.834	-359.5
3949.378	-363.5
3951.921	-349.5
3954.462	-356.5
3957	-359.5
3959.537	-359.5
3962.072	-346.5
3964.606	-353.5
3967.137	-359.5
3969.667	-355.5
3972.194	-359.5
3974.72	-352.5
3977.244	-341.5
3979.766	-350.5
3982.286	-352.5
3984.805	-353.5
3987.321	-359.5
3989.836	-347.5
3992.349	-349.5
3994.86	-352.5
3997.369	-350.5
3999.877	-352.5
4002.382	-353.5
4004.886	-348.5
4007.388	-355.5
4009.888	-354.5
4012.386	-355.5
4014.883	-353.5
4017.377	-355.5
4019.87	-351.5
4022.361	-352.5
4024.85	-353.5
4027.338	-356.5
4029.823	-353.5
4032.307	-357.5
4034.789	-355.5
4037.269	-357.5
4039.747	-353.5
4042.224	-354.5
4044.699	-353.5
4047.172	-353.5
4049.643	-364.5
4052.112	-353.5
4054.58	-365.5
4057.046	-360.5
4059.51	-355.5
4061.972	-352.5
4064.432	-351.5
4066.891	-360.5
4069.348	-355.5
4071.803	-365.5
4074.256	-360.5
4076.708	-357.5
4079.158	-359.5
4081.606	-364.5
4084.052	-354.5
4086.497	-361.5
4088.939	-358.5
4091.38	-355.5
4093.819	-360.5
4096.257	-398.5
4098.693	-393.5
4101.127	-399.5
4103.559	-397.5
4105.989	-233.5
4108.418	-229.5
4110.845	-211.5
4113.27	-192.5
4115.694	-177.5
4118.115	-136.5
4120.535	-360.5
4122.954	-359.5
4125.37	-363.5
4127.785	-363.5
4130.198	-364.5
4132.609	-362.5
4135.019	-401.5
4137.427	-399.5
4139.833	-397.5
4142.237	-397.5
