Data from B.sub_water_1000CFUB3_RamanShift_1.txt Node
Date: Wed Mar 08 15:59:26 IST 2017
User: aro
Spectrometer: QEPB0276
Trigger mode: 0
Integration Time (sec): 5.000000E0
Scans to average: 1
Electric dark correction enabled: true
Nonlinearity correction enabled: false
Boxcar width: 0
XAxis mode: Raman Shifts
Number of Pixels in Spectrum: 1044
>>>>>Begin Spectral Data<<<<<
160.701	-31.25
166.742	-4.25
172.777	78.75
178.805	358.75
184.826	986.75
190.841	2045.75
196.849	3231.75
202.85	3972.75
208.845	4159.75
214.833	4025.75
220.815	3898.75
226.789	3761.75
232.758	3663.75
238.719	3562.75
244.674	3421.75
250.623	3285.75
256.565	3128.75
262.5	3003.75
268.429	2878.75
274.351	2759.75
280.267	2662.75
286.176	2557.75
292.079	2479.75
297.975	2409.75
303.865	2365.75
309.748	2293.75
315.625	2228.75
321.495	2222.75
327.359	2167.75
333.217	2145.75
339.068	2139.75
344.912	2119.75
350.751	2115.75
356.583	2112.75
362.408	2097.75
368.227	2112.75
374.04	2122.75
379.847	2109.75
385.647	2143.75
391.44	2162.75
397.228	2185.75
403.009	2149.75
408.784	2179.75
414.553	2188.75
420.315	2192.75
426.071	2182.75
431.821	2195.75
437.565	2178.75
443.302	2162.75
449.033	2164.75
454.758	2149.75
460.477	2155.75
466.189	2150.75
471.896	2122.75
477.596	2124.75
483.29	2102.75
488.978	2096.75
494.66	2086.75
500.335	2050.75
506.005	2025.75
511.668	1973.75
517.325	1947.75
522.977	1920.75
528.622	1888.75
534.261	1874.75
539.894	1852.75
545.521	1827.75
551.141	1825.75
556.756	1807.75
562.365	1797.75
567.968	1781.75
573.565	1778.75
579.155	1775.75
584.74	1762.75
590.319	1738.75
595.892	1727.75
601.459	1715.75
607.02	1705.75
612.575	1689.75
618.124	1677.75
623.667	1651.75
629.204	1639.75
634.735	1634.75
640.261	1609.75
645.781	1596.75
651.294	1600.75
656.802	1587.75
662.304	1595.75
667.8	1563.75
673.29	1574.75
678.775	1560.75
684.254	1550.75
689.726	1551.75
695.193	1534.75
700.655	1523.75
706.11	1526.75
711.56	1514.75
717.004	1476.75
722.442	1482.75
727.874	1495.75
733.301	1461.75
738.722	1463.75
744.137	1458.75
749.547	1453.75
754.951	1453.75
760.349	1434.75
765.741	1439.75
771.128	1430.75
776.509	1439.75
781.885	1434.75
787.254	1428.75
792.618	1421.75
797.977	1419.75
803.33	1406.75
808.677	1396.75
814.019	1381.75
819.355	1356.75
824.686	1349.75
830.011	1343.75
835.33	1337.75
840.644	1332.75
845.952	1324.75
851.255	1304.75
856.552	1318.75
861.844	1300.75
867.13	1306.75
872.41	1283.75
877.686	1264.75
882.955	1257.75
888.219	1234.75
893.478	1216.75
898.731	1206.75
903.979	1184.75
909.221	1166.75
914.458	1165.75
919.69	1151.75
924.916	1163.75
930.136	1148.75
935.351	1159.75
940.561	1141.75
945.766	1145.75
950.965	1145.75
956.158	1121.75
961.347	1120.75
966.529	1107.75
971.707	1082.75
976.879	1070.75
982.046	1063.75
987.208	1038.75
992.364	1048.75
997.515	1055.75
1002.66	1069.75
1007.801	1075.75
1012.936	1060.75
1018.066	1087.75
1023.19	1106.75
1028.309	1089.75
1033.423	1089.75
1038.532	1091.75
1043.636	1071.75
1048.734	1074.75
1053.827	1066.75
1058.915	1044.75
1063.998	1041.75
1069.075	1036.75
1074.147	1040.75
1079.214	1035.75
1084.276	1054.75
1089.333	1061.75
1094.385	1053.75
1099.431	1051.75
1104.472	1061.75
1109.509	1057.75
1114.54	1063.75
1119.565	1038.75
1124.586	1020.75
1129.602	999.75
1134.613	1021.75
1139.618	994.75
1144.619	1011.75
1149.614	995.75
1154.604	1018.75
1159.589	1008.75
1164.57	1006.75
1169.545	1013.75
1174.515	1025.75
1179.48	1015.75
1184.44	1016.75
1189.395	1011.75
1194.345	992.75
1199.29	1000.75
1204.23	1000.75
1209.165	998.75
1214.095	1002.75
1219.021	1017.75
1223.941	1020.75
1228.856	1024.75
1233.766	1031.75
1238.672	1030.75
1243.572	1019.75
1248.467	1018.75
1253.358	999.75
1258.244	991.75
1263.124	968.75
1268	963.75
1272.871	947.75
1277.737	949.75
1282.599	946.75
1287.455	944.75
1292.306	968.75
1297.153	953.75
1301.995	975.75
1306.832	968.75
1311.664	969.75
1316.491	972.75
1321.314	966.75
1326.132	956.75
1330.945	935.75
1335.753	923.75
1340.556	893.75
1345.354	879.75
1350.148	849.75
1354.937	853.75
1359.722	859.75
1364.501	860.75
1369.276	888.75
1374.046	905.75
1378.811	908.75
1383.572	923.75
1388.327	917.75
1393.079	915.75
1397.825	876.75
1402.567	871.75
1407.304	855.75
1412.036	847.75
1416.764	841.75
1421.487	838.75
1426.205	831.75
1430.919	846.75
1435.628	845.75
1440.333	844.75
1445.032	868.75
1449.727	862.75
1454.418	866.75
1459.104	856.75
1463.785	849.75
1468.462	850.75
1473.134	838.75
1477.802	817.75
1482.465	833.75
1487.123	820.75
1491.777	824.75
1496.426	828.75
1501.071	847.75
1505.711	860.75
1510.347	882.75
1514.978	894.75
1519.604	920.75
1524.226	921.75
1528.844	926.75
1533.457	916.75
1538.065	920.75
1542.669	914.75
1547.269	918.75
1551.864	917.75
1556.454	935.75
1561.041	930.75
1565.622	935.75
1570.199	934.75
1574.772	967.75
1579.34	955.75
1583.904	992.75
1588.464	993.75
1593.019	1003.75
1597.569	1022.75
1602.115	1030.75
1606.657	1034.75
1611.195	1046.75
1615.728	1055.75
1620.256	1070.75
1624.78	1094.75
1629.3	1103.75
1633.816	1122.75
1638.327	1126.75
1642.834	1140.75
1647.336	1142.75
1651.834	1151.75
1656.328	1151.75
1660.817	1143.75
1665.302	1132.75
1669.783	1099.75
1674.259	1064.75
1678.732	1039.75
1683.199	991.75
1687.663	946.75
1692.122	917.75
1696.577	876.75
1701.028	858.75
1705.474	866.75
1709.917	850.75
1714.355	833.75
1718.788	811.75
1723.218	773.75
1727.643	757.75
1732.064	728.75
1736.481	712.75
1740.893	688.75
1745.301	664.75
1749.705	660.75
1754.105	635.75
1758.501	616.75
1762.893	612.75
1767.28	592.75
1771.663	581.75
1776.042	567.75
1780.417	573.75
1784.787	576.75
1789.154	580.75
1793.516	582.75
1797.874	583.75
1802.228	587.75
1806.578	607.75
1810.924	587.75
1815.266	584.75
1819.603	570.75
1823.937	565.75
1828.266	541.75
1832.591	558.75
1836.913	547.75
1841.23	533.75
1845.543	525.75
1849.852	532.75
1854.156	531.75
1858.457	524.75
1862.754	517.75
1867.047	530.75
1871.335	519.75
1875.62	518.75
1879.9	532.75
1884.177	523.75
1888.449	514.75
1892.718	517.75
1896.982	516.75
1901.243	527.75
1905.499	509.75
1909.752	512.75
1914	517.75
1918.245	507.75
1922.485	512.75
1926.722	527.75
1930.954	532.75
1935.183	534.75
1939.408	532.75
1943.628	534.75
1947.845	528.75
1952.058	533.75
1956.267	538.75
1960.472	527.75
1964.673	533.75
1968.87	528.75
1973.063	523.75
1977.252	521.75
1981.438	507.75
1985.619	502.75
1989.797	508.75
1993.971	508.75
1998.14	509.75
2002.306	510.75
2006.469	516.75
2010.627	511.75
2014.781	517.75
2018.932	513.75
2023.078	500.75
2027.221	502.75
2031.36	496.75
2035.495	496.75
2039.627	482.75
2043.754	489.75
2047.878	484.75
2051.998	484.75
2056.114	489.75
2060.226	491.75
2064.334	484.75
2068.439	503.75
2072.54	500.75
2076.637	506.75
2080.73	500.75
2084.82	505.75
2088.906	503.75
2092.988	517.75
2097.066	508.75
2101.14	507.75
2105.211	503.75
2109.278	503.75
2113.342	507.75
2117.401	489.75
2121.457	489.75
2125.509	482.75
2129.558	489.75
2133.602	493.75
2137.643	483.75
2141.681	474.75
2145.714	480.75
2149.744	476.75
2153.77	475.75
2157.793	459.75
2161.812	465.75
2165.827	461.75
2169.838	441.75
2173.846	433.75
2177.851	429.75
2181.851	418.75
2185.848	417.75
2189.841	412.75
2193.831	405.75
2197.817	404.75
2201.799	404.75
2205.778	403.75
2209.753	401.75
2213.725	397.75
2217.693	401.75
2221.657	396.75
2225.618	404.75
2229.575	393.75
2233.529	394.75
2237.479	386.75
2241.425	380.75
2245.368	377.75
2249.307	377.75
2253.243	368.75
2257.175	357.75
2261.104	361.75
2265.029	343.75
2268.95	346.75
2272.868	338.75
2276.783	332.75
2280.694	333.75
2284.601	329.75
2288.505	334.75
2292.405	325.75
2296.302	315.75
2300.195	312.75
2304.085	315.75
2307.971	301.75
2311.854	297.75
2315.734	296.75
2319.609	273.75
2323.482	271.75
2327.351	279.75
2331.216	274.75
2335.078	276.75
2338.937	278.75
2342.792	265.75
2346.643	258.75
2350.492	263.75
2354.336	265.75
2358.178	266.75
2362.015	266.75
2365.85	254.75
2369.681	252.75
2373.508	259.75
2377.333	267.75
2381.153	253.75
2384.971	258.75
2388.785	251.75
2392.595	246.75
2396.402	240.75
2400.206	243.75
2404.007	236.75
2407.804	246.75
2411.597	238.75
2415.388	243.75
2419.174	237.75
2422.958	242.75
2426.738	236.75
2430.515	230.75
2434.289	230.75
2438.059	222.75
2441.825	226.75
2445.589	223.75
2449.349	233.75
2453.106	219.75
2456.859	214.75
2460.61	215.75
2464.356	222.75
2468.1	206.75
2471.84	214.75
2475.577	210.75
2479.311	210.75
2483.041	207.75
2486.768	206.75
2490.492	200.75
2494.213	213.75
2497.93	209.75
2501.644	207.75
2505.355	196.75
2509.062	207.75
2512.766	201.75
2516.467	199.75
2520.165	202.75
2523.859	200.75
2527.551	196.75
2531.239	199.75
2534.923	195.75
2538.605	194.75
2542.283	197.75
2545.958	193.75
2549.63	180.75
2553.299	195.75
2556.964	188.75
2560.626	186.75
2564.285	188.75
2567.941	182.75
2571.594	185.75
2575.243	180.75
2578.89	180.75
2582.533	181.75
2586.173	176.75
2589.809	173.75
2593.443	169.75
2597.073	177.75
2600.701	174.75
2604.325	167.75
2607.946	169.75
2611.564	170.75
2615.178	163.75
2618.79	164.75
2622.398	172.75
2626.004	168.75
2629.606	165.75
2633.205	162.75
2636.801	162.75
2640.394	162.75
2643.983	156.75
2647.57	156.75
2651.153	153.75
2654.734	150.75
2658.311	150.75
2661.885	151.75
2665.456	146.75
2669.025	139.75
2672.589	149.75
2676.151	140.75
2679.71	138.75
2683.266	139.75
2686.819	128.75
2690.368	130.75
2693.915	132.75
2697.458	126.75
2700.999	132.75
2704.536	124.75
2708.071	123.75
2711.602	135.75
2715.13	120.75
2718.656	124.75
2722.178	118.75
2725.697	123.75
2729.214	117.75
2732.727	110.75
2736.237	118.75
2739.744	116.75
2743.249	119.75
2746.75	126.75
2750.248	130.75
2753.743	127.75
2757.236	130.75
2760.725	128.75
2764.211	119.75
2767.695	128.75
2771.175	128.75
2774.652	125.75
2778.127	126.75
2781.598	131.75
2785.067	139.75
2788.532	136.75
2791.995	136.75
2795.455	136.75
2798.911	130.75
2802.365	132.75
2805.816	128.75
2809.264	130.75
2812.709	129.75
2816.151	133.75
2819.59	135.75
2823.026	135.75
2826.46	136.75
2829.89	138.75
2833.318	136.75
2836.742	137.75
2840.164	133.75
2843.583	136.75
2846.999	141.75
2850.412	142.75
2853.822	151.75
2857.229	145.75
2860.634	143.75
2864.035	152.75
2867.434	156.75
2870.83	153.75
2874.223	161.75
2877.613	158.75
2881	156.75
2884.385	162.75
2887.766	166.75
2891.145	169.75
2894.521	168.75
2897.894	170.75
2901.264	171.75
2904.631	173.75
2907.996	176.75
2911.358	169.75
2914.717	175.75
2918.073	180.75
2921.426	179.75
2924.777	191.75
2928.124	190.75
2931.469	195.75
2934.811	203.75
2938.15	204.75
2941.487	207.75
2944.821	217.75
2948.152	212.75
2951.48	220.75
2954.805	223.75
2958.128	223.75
2961.447	236.75
2964.765	239.75
2968.079	242.75
2971.39	251.75
2974.699	249.75
2978.005	263.75
2981.308	265.75
2984.609	266.75
2987.907	281.75
2991.202	293.75
2994.494	310.75
2997.784	319.75
3001.07	329.75
3004.355	347.75
3007.636	347.75
3010.915	352.75
3014.191	364.75
3017.464	368.75
3020.734	384.75
3024.002	377.75
3027.267	386.75
3030.53	390.75
3033.789	405.75
3037.046	420.75
3040.301	426.75
3043.552	435.75
3046.801	448.75
3050.048	465.75
3053.291	468.75
3056.532	489.75
3059.771	505.75
3063.006	523.75
3066.239	540.75
3069.469	558.75
3072.697	573.75
3075.922	589.75
3079.144	604.75
3082.364	618.75
3085.581	637.75
3088.795	649.75
3092.007	669.75
3095.216	674.75
3098.423	695.75
3101.627	716.75
3104.828	725.75
3108.026	730.75
3111.222	768.75
3114.416	792.75
3117.607	794.75
3120.795	819.75
3123.98	835.75
3127.163	850.75
3130.344	890.75
3133.521	916.75
3136.696	919.75
3139.869	942.75
3143.039	973.75
3146.206	973.75
3149.371	979.75
3152.533	1010.75
3155.693	1001.75
3158.85	1011.75
3162.005	1020.75
3165.157	1022.75
3168.306	1025.75
3171.453	1032.75
3174.597	1042.75
3177.739	1042.75
3180.878	1040.75
3184.014	1053.75
3187.149	1053.75
3190.28	1061.75
3193.409	1057.75
3196.536	1058.75
3199.659	1054.75
3202.781	1059.75
3205.9	1077.75
3209.016	1066.75
3212.13	1057.75
3215.241	1068.75
3218.35	1051.75
3221.456	1039.75
3224.56	1029.75
3227.661	1028.75
3230.76	1003.75
3233.856	1003.75
3236.95	999.75
3240.041	999.75
3243.13	994.75
3246.216	976.75
3249.3	972.75
3252.382	960.75
3255.46	960.75
3258.537	961.75
3261.611	947.75
3264.682	960.75
3267.751	942.75
3270.818	947.75
3273.882	949.75
3276.943	923.75
3280.002	926.75
3283.059	925.75
3286.113	913.75
3289.165	894.75
3292.214	878.75
3295.261	873.75
3298.306	864.75
3301.348	842.75
3304.387	826.75
3307.425	817.75
3310.459	801.75
3313.492	790.75
3316.521	788.75
3319.549	785.75
3322.574	783.75
3325.597	764.75
3328.617	770.75
3331.635	756.75
3334.65	756.75
3337.663	748.75
3340.674	747.75
3343.682	761.75
3346.688	733.75
3349.691	728.75
3352.692	732.75
3355.691	720.75
3358.687	720.75
3361.681	712.75
3364.673	708.75
3367.662	696.75
3370.649	687.75
3373.633	687.75
3376.615	670.75
3379.595	653.75
3382.572	662.75
3385.547	632.75
3388.52	642.75
3391.49	635.75
3394.458	623.75
3397.424	606.75
3400.387	610.75
3403.348	592.75
3406.307	582.75
3409.263	576.75
3412.217	579.75
3415.168	567.75
3418.118	558.75
3421.065	550.75
3424.009	549.75
3426.951	538.75
3429.891	530.75
3432.829	535.75
3435.764	519.75
3438.697	507.75
3441.628	488.75
3444.557	478.75
3447.483	466.75
3450.407	455.75
3453.328	438.75
3456.247	427.75
3459.164	419.75
3462.079	397.75
3464.991	388.75
3467.902	380.75
3470.809	378.75
3473.715	347.75
3476.618	342.75
3479.519	338.75
3482.418	319.75
3485.315	316.75
3488.209	301.75
3491.101	289.75
3493.99	276.75
3496.878	276.75
3499.763	268.75
3502.646	263.75
3505.527	245.75
3508.405	245.75
3511.281	231.75
3514.155	219.75
3517.027	219.75
3519.897	203.75
3522.764	187.75
3525.629	185.75
3528.492	170.75
3531.352	157.75
3534.211	141.75
3537.067	141.75
3539.921	125.75
3542.773	128.75
3545.622	116.75
3548.469	109.75
3551.315	105.75
3554.157	96.75
3556.998	88.75
3559.837	82.75
3562.673	71.75
3565.507	66.75
3568.339	61.75
3571.169	56.75
3573.996	53.75
3576.822	45.75
3579.645	41.75
3582.466	34.75
3585.285	32.75
3588.101	28.75
3590.916	23.75
3593.728	18.75
3596.538	19.75
3599.346	12.75
3602.152	8.75
3604.956	3.75
3607.757	0.75
3610.556	1.75
3613.354	-11.25
3616.149	-14.25
3618.942	-12.25
3621.732	-21.25
3624.521	-24.25
3627.307	-20.25
3630.092	-25.25
3632.874	-25.25
3635.654	-28.25
3638.432	-30.25
3641.208	-33.25
3643.982	-32.25
3646.753	-37.25
3649.523	-38.25
3652.29	-37.25
3655.055	-44.25
3657.818	-42.25
3660.579	-46.25
3663.338	-54.25
3666.095	-53.25
3668.849	-57.25
3671.602	-58.25
3674.352	-64.25
3677.101	-60.25
3679.847	-62.25
3682.591	-63.25
3685.333	-64.25
3688.073	-66.25
3690.811	-68.25
3693.547	-69.25
3696.281	-66.25
3699.013	-71.25
3701.742	-72.25
3704.47	-72.25
3707.195	-74.25
3709.919	-74.25
3712.64	-77.25
3715.359	-79.25
3718.076	-75.25
3720.792	-77.25
3723.505	-81.25
3726.216	-81.25
3728.925	-80.25
3731.632	-81.25
3734.336	-82.25
3737.039	-79.25
3739.74	-78.25
3742.439	-80.25
3745.136	-85.25
3747.83	-84.25
3750.523	-86.25
3753.213	-89.25
3755.902	-86.25
3758.589	-87.25
3761.273	-85.25
3763.956	-87.25
3766.636	-86.25
3769.315	-87.25
3771.991	-82.25
3774.665	-91.25
3777.338	-90.25
3780.008	-91.25
3782.677	-89.25
3785.343	-89.25
3788.007	-85.25
3790.67	-89.25
3793.33	-87.25
3795.989	-90.25
3798.645	-95.25
3801.299	-92.25
3803.952	-92.25
3806.602	-93.25
3809.251	-94.25
3811.897	-94.25
3814.542	-89.25
3817.184	-88.25
3819.825	-90.25
3822.463	-92.25
3825.1	-91.25
3827.735	-92.25
3830.367	-97.25
3832.998	-93.25
3835.627	-93.25
3838.253	-98.25
3840.878	-94.25
3843.501	-93.25
3846.122	-95.25
3848.741	-93.25
3851.358	-94.25
3853.973	-91.25
3856.586	-94.25
3859.197	-99.25
3861.806	-93.25
3864.414	-92.25
3867.019	-91.25
3869.622	-92.25
3872.224	-91.25
3874.823	-91.25
3877.421	-88.25
3880.016	-89.25
3882.61	-90.25
3885.202	-89.25
3887.792	-93.25
3890.38	-95.25
3892.966	-96.25
3895.55	-98.25
3898.132	-96.25
3900.713	-91.25
3903.291	-94.25
3905.868	-97.25
3908.442	-98.25
3911.015	-96.25
3913.586	-96.25
3916.155	-97.25
3918.722	-99.25
3921.287	-94.25
3923.85	-94.25
3926.411	-96.25
3928.971	-101.25
3931.528	-99.25
3934.084	-100.25
3936.638	-103.25
3939.19	-100.25
3941.74	-97.25
3944.288	-101.25
3946.834	-100.25
3949.378	-99.25
3951.921	-98.25
3954.462	-96.25
3957	-98.25
3959.537	-95.25
3962.072	-97.25
3964.606	-97.25
3967.137	-101.25
3969.667	-98.25
3972.194	-100.25
3974.72	-96.25
3977.244	-97.25
3979.766	-101.25
3982.286	-98.25
3984.805	-100.25
3987.321	-96.25
3989.836	-98.25
3992.349	-99.25
3994.86	-97.25
3997.369	-96.25
3999.877	-99.25
4002.382	-100.25
4004.886	-94.25
4007.388	-96.25
4009.888	-98.25
4012.386	-98.25
4014.883	-99.25
4017.377	-99.25
4019.87	-99.25
4022.361	-97.25
4024.85	-101.25
4027.338	-98.25
4029.823	-97.25
4032.307	-99.25
4034.789	-97.25
4037.269	-97.25
4039.747	-95.25
4042.224	-96.25
4044.699	-98.25
4047.172	-102.25
4049.643	-98.25
4052.112	-101.25
4054.58	-98.25
4057.046	-98.25
4059.51	-100.25
4061.972	-101.25
4064.432	-98.25
4066.891	-97.25
4069.348	-96.25
4071.803	-99.25
4074.256	-97.25
4076.708	-100.25
4079.158	-96.25
4081.606	-96.25
4084.052	-97.25
4086.497	-95.25
4088.939	-93.25
4091.38	-93.25
4093.819	-95.25
4096.257	-101.25
4098.693	-101.25
4101.127	-104.25
4103.559	-102.25
4105.989	-64.25
4108.418	-58.25
4110.845	-59.25
4113.27	-55.25
4115.694	-50.25
4118.115	-41.25
4120.535	-99.25
4122.954	-100.25
4125.37	-101.25
4127.785	-102.25
4130.198	-100.25
4132.609	-97.25
4135.019	-103.25
4137.427	-98.25
4139.833	-101.25
4142.237	-99.25
