Data from B.sub_water_1000000CFUA2_RamanShift_1.txt Node
Date: Wed Mar 08 15:22:42 IST 2017
User: aro
Spectrometer: QEPB0276
Trigger mode: 0
Integration Time (sec): 5.000000E0
Scans to average: 1
Electric dark correction enabled: true
Nonlinearity correction enabled: false
Boxcar width: 0
XAxis mode: Raman Shifts
Number of Pixels in Spectrum: 1044
>>>>>Begin Spectral Data<<<<<
160.701	-25.5
166.742	1.5
172.777	71.5
178.805	305.5
184.826	861.5
190.841	1789.5
196.849	2824.5
202.85	3485.5
208.845	3624.5
214.833	3486.5
220.815	3354.5
226.789	3242.5
232.758	3165.5
238.719	3040.5
244.674	2932.5
250.623	2820.5
256.565	2675.5
262.5	2543.5
268.429	2430.5
274.351	2314.5
280.267	2243.5
286.176	2138.5
292.079	2082.5
297.975	2017.5
303.865	1942.5
309.748	1910.5
315.625	1853.5
321.495	1815.5
327.359	1799.5
333.217	1781.5
339.068	1737.5
344.912	1739.5
350.751	1750.5
356.583	1720.5
362.408	1730.5
368.227	1733.5
374.04	1758.5
379.847	1758.5
385.647	1762.5
391.44	1775.5
397.228	1781.5
403.009	1784.5
408.784	1799.5
414.553	1794.5
420.315	1809.5
426.071	1788.5
431.821	1806.5
437.565	1790.5
443.302	1794.5
449.033	1781.5
454.758	1777.5
460.477	1773.5
466.189	1751.5
471.896	1732.5
477.596	1717.5
483.29	1714.5
488.978	1703.5
494.66	1691.5
500.335	1678.5
506.005	1626.5
511.668	1602.5
517.325	1565.5
522.977	1539.5
528.622	1506.5
534.261	1493.5
539.894	1479.5
545.521	1458.5
551.141	1455.5
556.756	1433.5
562.365	1416.5
567.968	1415.5
573.565	1400.5
579.155	1384.5
584.74	1372.5
590.319	1369.5
595.892	1361.5
601.459	1355.5
607.02	1326.5
612.575	1336.5
618.124	1304.5
623.667	1293.5
629.204	1283.5
634.735	1267.5
640.261	1253.5
645.781	1249.5
651.294	1236.5
656.802	1230.5
662.304	1229.5
667.8	1210.5
673.29	1221.5
678.775	1210.5
684.254	1211.5
689.726	1184.5
695.193	1180.5
700.655	1156.5
706.11	1151.5
711.56	1145.5
717.004	1136.5
722.442	1139.5
727.874	1118.5
733.301	1122.5
738.722	1117.5
744.137	1092.5
749.547	1094.5
754.951	1096.5
760.349	1085.5
765.741	1075.5
771.128	1083.5
776.509	1066.5
781.885	1063.5
787.254	1076.5
792.618	1060.5
797.977	1047.5
803.33	1034.5
808.677	1037.5
814.019	1024.5
819.355	1016.5
824.686	1003.5
830.011	976.5
835.33	969.5
840.644	970.5
845.952	966.5
851.255	960.5
856.552	960.5
861.844	943.5
867.13	942.5
872.41	923.5
877.686	906.5
882.955	906.5
888.219	867.5
893.478	847.5
898.731	832.5
903.979	833.5
909.221	822.5
914.458	803.5
919.69	805.5
924.916	807.5
930.136	805.5
935.351	804.5
940.561	792.5
945.766	783.5
950.965	785.5
956.158	763.5
961.347	754.5
966.529	749.5
971.707	719.5
976.879	715.5
982.046	711.5
987.208	703.5
992.364	717.5
997.515	702.5
1002.66	718.5
1007.801	714.5
1012.936	712.5
1018.066	728.5
1023.19	738.5
1028.309	724.5
1033.423	729.5
1038.532	714.5
1043.636	716.5
1048.734	701.5
1053.827	692.5
1058.915	681.5
1063.998	684.5
1069.075	676.5
1074.147	670.5
1079.214	679.5
1084.276	684.5
1089.333	690.5
1094.385	688.5
1099.431	698.5
1104.472	693.5
1109.509	694.5
1114.54	677.5
1119.565	670.5
1124.586	660.5
1129.602	651.5
1134.613	649.5
1139.618	646.5
1144.619	648.5
1149.614	653.5
1154.604	656.5
1159.589	650.5
1164.57	654.5
1169.545	655.5
1174.515	656.5
1179.48	649.5
1184.44	650.5
1189.395	643.5
1194.345	642.5
1199.29	637.5
1204.23	635.5
1209.165	630.5
1214.095	634.5
1219.021	645.5
1223.941	657.5
1228.856	645.5
1233.766	663.5
1238.672	646.5
1243.572	661.5
1248.467	641.5
1253.358	637.5
1258.244	628.5
1263.124	613.5
1268	610.5
1272.871	604.5
1277.737	605.5
1282.599	589.5
1287.455	590.5
1292.306	591.5
1297.153	611.5
1301.995	594.5
1306.832	609.5
1311.664	602.5
1316.491	603.5
1321.314	606.5
1326.132	597.5
1330.945	580.5
1335.753	566.5
1340.556	547.5
1345.354	539.5
1350.148	528.5
1354.937	530.5
1359.722	528.5
1364.501	531.5
1369.276	538.5
1374.046	557.5
1378.811	559.5
1383.572	572.5
1388.327	543.5
1393.079	549.5
1397.825	532.5
1402.567	542.5
1407.304	517.5
1412.036	517.5
1416.764	503.5
1421.487	512.5
1426.205	513.5
1430.919	508.5
1435.628	517.5
1440.333	514.5
1445.032	512.5
1449.727	525.5
1454.418	524.5
1459.104	538.5
1463.785	519.5
1468.462	510.5
1473.134	514.5
1477.802	501.5
1482.465	502.5
1487.123	495.5
1491.777	508.5
1496.426	501.5
1501.071	526.5
1505.711	523.5
1510.347	532.5
1514.978	543.5
1519.604	550.5
1524.226	560.5
1528.844	560.5
1533.457	568.5
1538.065	567.5
1542.669	565.5
1547.269	570.5
1551.864	573.5
1556.454	571.5
1561.041	588.5
1565.622	596.5
1570.199	594.5
1574.772	597.5
1579.34	618.5
1583.904	638.5
1588.464	649.5
1593.019	651.5
1597.569	676.5
1602.115	692.5
1606.657	701.5
1611.195	715.5
1615.728	729.5
1620.256	730.5
1624.78	740.5
1629.3	767.5
1633.816	784.5
1638.327	795.5
1642.834	804.5
1647.336	800.5
1651.834	797.5
1656.328	811.5
1660.817	800.5
1665.302	786.5
1669.783	767.5
1674.259	724.5
1678.732	700.5
1683.199	658.5
1687.663	631.5
1692.122	602.5
1696.577	571.5
1701.028	557.5
1705.474	541.5
1709.917	526.5
1714.355	514.5
1718.788	483.5
1723.218	458.5
1727.643	443.5
1732.064	429.5
1736.481	411.5
1740.893	398.5
1745.301	381.5
1749.705	367.5
1754.105	347.5
1758.501	335.5
1762.893	319.5
1767.28	315.5
1771.663	318.5
1776.042	311.5
1780.417	291.5
1784.787	304.5
1789.154	302.5
1793.516	302.5
1797.874	305.5
1802.228	306.5
1806.578	305.5
1810.924	294.5
1815.266	292.5
1819.603	281.5
1823.937	268.5
1828.266	269.5
1832.591	267.5
1836.913	259.5
1841.23	263.5
1845.543	258.5
1849.852	251.5
1854.156	258.5
1858.457	252.5
1862.754	249.5
1867.047	259.5
1871.335	254.5
1875.62	256.5
1879.9	256.5
1884.177	252.5
1888.449	251.5
1892.718	255.5
1896.982	244.5
1901.243	247.5
1905.499	248.5
1909.752	255.5
1914	253.5
1918.245	254.5
1922.485	256.5
1926.722	254.5
1930.954	271.5
1935.183	269.5
1939.408	270.5
1943.628	264.5
1947.845	266.5
1952.058	264.5
1956.267	270.5
1960.472	264.5
1964.673	258.5
1968.87	250.5
1973.063	254.5
1977.252	260.5
1981.438	254.5
1985.619	255.5
1989.797	249.5
1993.971	252.5
1998.14	256.5
2002.306	249.5
2006.469	257.5
2010.627	258.5
2014.781	259.5
2018.932	266.5
2023.078	256.5
2027.221	261.5
2031.36	252.5
2035.495	255.5
2039.627	252.5
2043.754	255.5
2047.878	242.5
2051.998	256.5
2056.114	257.5
2060.226	254.5
2064.334	253.5
2068.439	268.5
2072.54	268.5
2076.637	261.5
2080.73	259.5
2084.82	266.5
2088.906	263.5
2092.988	265.5
2097.066	266.5
2101.14	270.5
2105.211	269.5
2109.278	270.5
2113.342	262.5
2117.401	258.5
2121.457	255.5
2125.509	255.5
2129.558	268.5
2133.602	259.5
2137.643	265.5
2141.681	254.5
2145.714	255.5
2149.744	244.5
2153.77	244.5
2157.793	235.5
2161.812	235.5
2165.827	239.5
2169.838	230.5
2173.846	224.5
2177.851	216.5
2181.851	211.5
2185.848	209.5
2189.841	212.5
2193.831	199.5
2197.817	192.5
2201.799	199.5
2205.778	196.5
2209.753	191.5
2213.725	201.5
2217.693	192.5
2221.657	193.5
2225.618	192.5
2229.575	182.5
2233.529	183.5
2237.479	175.5
2241.425	175.5
2245.368	180.5
2249.307	174.5
2253.243	179.5
2257.175	169.5
2261.104	164.5
2265.029	165.5
2268.95	155.5
2272.868	151.5
2276.783	148.5
2280.694	143.5
2284.601	135.5
2288.505	136.5
2292.405	141.5
2296.302	140.5
2300.195	133.5
2304.085	133.5
2307.971	124.5
2311.854	121.5
2315.734	121.5
2319.609	116.5
2323.482	116.5
2327.351	113.5
2331.216	115.5
2335.078	115.5
2338.937	116.5
2342.792	106.5
2346.643	103.5
2350.492	96.5
2354.336	101.5
2358.178	100.5
2362.015	98.5
2365.85	98.5
2369.681	102.5
2373.508	92.5
2377.333	108.5
2381.153	96.5
2384.971	95.5
2388.785	93.5
2392.595	92.5
2396.402	95.5
2400.206	88.5
2404.007	85.5
2407.804	87.5
2411.597	86.5
2415.388	90.5
2419.174	85.5
2422.958	83.5
2426.738	83.5
2430.515	76.5
2434.289	78.5
2438.059	79.5
2441.825	84.5
2445.589	77.5
2449.349	81.5
2453.106	78.5
2456.859	75.5
2460.61	70.5
2464.356	71.5
2468.1	67.5
2471.84	66.5
2475.577	71.5
2479.311	66.5
2483.041	58.5
2486.768	68.5
2490.492	63.5
2494.213	65.5
2497.93	62.5
2501.644	65.5
2505.355	60.5
2509.062	66.5
2512.766	65.5
2516.467	60.5
2520.165	62.5
2523.859	59.5
2527.551	59.5
2531.239	56.5
2534.923	55.5
2538.605	54.5
2542.283	59.5
2545.958	51.5
2549.63	58.5
2553.299	59.5
2556.964	62.5
2560.626	52.5
2564.285	55.5
2567.941	55.5
2571.594	57.5
2575.243	56.5
2578.89	47.5
2582.533	49.5
2586.173	42.5
2589.809	44.5
2593.443	47.5
2597.073	50.5
2600.701	46.5
2604.325	46.5
2607.946	45.5
2611.564	42.5
2615.178	46.5
2618.79	44.5
2622.398	42.5
2626.004	49.5
2629.606	40.5
2633.205	43.5
2636.801	43.5
2640.394	44.5
2643.983	38.5
2647.57	36.5
2651.153	35.5
2654.734	38.5
2658.311	31.5
2661.885	36.5
2665.456	30.5
2669.025	33.5
2672.589	37.5
2676.151	34.5
2679.71	38.5
2683.266	30.5
2686.819	28.5
2690.368	26.5
2693.915	26.5
2697.458	23.5
2700.999	23.5
2704.536	22.5
2708.071	27.5
2711.602	31.5
2715.13	24.5
2718.656	32.5
2722.178	27.5
2725.697	26.5
2729.214	26.5
2732.727	28.5
2736.237	30.5
2739.744	30.5
2743.249	36.5
2746.75	27.5
2750.248	38.5
2753.743	36.5
2757.236	40.5
2760.725	33.5
2764.211	33.5
2767.695	35.5
2771.175	30.5
2774.652	36.5
2778.127	36.5
2781.598	40.5
2785.067	34.5
2788.532	42.5
2791.995	46.5
2795.455	38.5
2798.911	47.5
2802.365	40.5
2805.816	39.5
2809.264	40.5
2812.709	43.5
2816.151	41.5
2819.59	49.5
2823.026	45.5
2826.46	44.5
2829.89	57.5
2833.318	49.5
2836.742	56.5
2840.164	53.5
2843.583	52.5
2846.999	58.5
2850.412	62.5
2853.822	64.5
2857.229	70.5
2860.634	72.5
2864.035	75.5
2867.434	71.5
2870.83	79.5
2874.223	81.5
2877.613	82.5
2881	79.5
2884.385	86.5
2887.766	81.5
2891.145	95.5
2894.521	89.5
2897.894	101.5
2901.264	97.5
2904.631	104.5
2907.996	103.5
2911.358	104.5
2914.717	106.5
2918.073	112.5
2921.426	115.5
2924.777	117.5
2928.124	120.5
2931.469	124.5
2934.811	133.5
2938.15	130.5
2941.487	147.5
2944.821	139.5
2948.152	152.5
2951.48	156.5
2954.805	151.5
2958.128	156.5
2961.447	171.5
2964.765	173.5
2968.079	176.5
2971.39	183.5
2974.699	189.5
2978.005	196.5
2981.308	201.5
2984.609	212.5
2987.907	223.5
2991.202	231.5
2994.494	237.5
2997.784	258.5
3001.07	264.5
3004.355	270.5
3007.636	283.5
3010.915	286.5
3014.191	296.5
3017.464	306.5
3020.734	314.5
3024.002	310.5
3027.267	320.5
3030.53	329.5
3033.789	346.5
3037.046	349.5
3040.301	363.5
3043.552	378.5
3046.801	379.5
3050.048	393.5
3053.291	413.5
3056.532	430.5
3059.771	440.5
3063.006	450.5
3066.239	466.5
3069.469	493.5
3072.697	502.5
3075.922	515.5
3079.144	531.5
3082.364	554.5
3085.581	556.5
3088.795	582.5
3092.007	593.5
3095.216	615.5
3098.423	615.5
3101.627	635.5
3104.828	658.5
3108.026	659.5
3111.222	691.5
3114.416	702.5
3117.607	744.5
3120.795	751.5
3123.98	767.5
3127.163	787.5
3130.344	811.5
3133.521	818.5
3136.696	840.5
3139.869	854.5
3143.039	877.5
3146.206	905.5
3149.371	894.5
3152.533	915.5
3155.693	915.5
3158.85	942.5
3162.005	929.5
3165.157	939.5
3168.306	946.5
3171.453	951.5
3174.597	957.5
3177.739	955.5
3180.878	962.5
3184.014	974.5
3187.149	973.5
3190.28	980.5
3193.409	983.5
3196.536	988.5
3199.659	994.5
3202.781	986.5
3205.9	1004.5
3209.016	987.5
3212.13	987.5
3215.241	985.5
3218.35	978.5
3221.456	968.5
3224.56	962.5
3227.661	955.5
3230.76	946.5
3233.856	948.5
3236.95	936.5
3240.041	928.5
3243.13	920.5
3246.216	920.5
3249.3	910.5
3252.382	905.5
3255.46	904.5
3258.537	900.5
3261.611	897.5
3264.682	893.5
3267.751	896.5
3270.818	885.5
3273.882	883.5
3276.943	889.5
3280.002	874.5
3283.059	862.5
3286.113	858.5
3289.165	840.5
3292.214	831.5
3295.261	817.5
3298.306	807.5
3301.348	784.5
3304.387	793.5
3307.425	765.5
3310.459	767.5
3313.492	754.5
3316.521	745.5
3319.549	741.5
3322.574	737.5
3325.597	720.5
3328.617	719.5
3331.635	718.5
3334.65	717.5
3337.663	704.5
3340.674	708.5
3343.682	698.5
3346.688	698.5
3349.691	702.5
3352.692	696.5
3355.691	682.5
3358.687	687.5
3361.681	666.5
3364.673	679.5
3367.662	651.5
3370.649	654.5
3373.633	659.5
3376.615	638.5
3379.595	630.5
3382.572	630.5
3385.547	616.5
3388.52	599.5
3391.49	594.5
3394.458	588.5
3397.424	578.5
3400.387	564.5
3403.348	577.5
3406.307	567.5
3409.263	556.5
3412.217	547.5
3415.168	537.5
3418.118	539.5
3421.065	530.5
3424.009	523.5
3426.951	523.5
3429.891	512.5
3432.829	490.5
3435.764	499.5
3438.697	485.5
3441.628	466.5
3444.557	452.5
3447.483	451.5
3450.407	433.5
3453.328	429.5
3456.247	408.5
3459.164	404.5
3462.079	386.5
3464.991	378.5
3467.902	367.5
3470.809	355.5
3473.715	338.5
3476.618	336.5
3479.519	321.5
3482.418	308.5
3485.315	304.5
3488.209	293.5
3491.101	288.5
3493.99	285.5
3496.878	266.5
3499.763	267.5
3502.646	253.5
3505.527	251.5
3508.405	227.5
3511.281	231.5
3514.155	223.5
3517.027	204.5
3519.897	194.5
3522.764	178.5
3525.629	179.5
3528.492	174.5
3531.352	151.5
3534.211	150.5
3537.067	143.5
3539.921	124.5
3542.773	126.5
3545.622	120.5
3548.469	116.5
3551.315	104.5
3554.157	99.5
3556.998	90.5
3559.837	88.5
3562.673	81.5
3565.507	75.5
3568.339	71.5
3571.169	65.5
3573.996	59.5
3576.822	57.5
3579.645	55.5
3582.466	42.5
3585.285	40.5
3588.101	32.5
3590.916	31.5
3593.728	26.5
3596.538	22.5
3599.346	22.5
3602.152	16.5
3604.956	13.5
3607.757	10.5
3610.556	4.5
3613.354	-0.5
3616.149	-4.5
3618.942	-7.5
3621.732	-9.5
3624.521	-11.5
3627.307	-11.5
3630.092	-17.5
3632.874	-16.5
3635.654	-21.5
3638.432	-23.5
3641.208	-23.5
3643.982	-26.5
3646.753	-24.5
3649.523	-30.5
3652.29	-26.5
3655.055	-36.5
3657.818	-33.5
3660.579	-34.5
3663.338	-41.5
3666.095	-43.5
3668.849	-45.5
3671.602	-54.5
3674.352	-50.5
3677.101	-50.5
3679.847	-52.5
3682.591	-55.5
3685.333	-53.5
3688.073	-59.5
3690.811	-54.5
3693.547	-58.5
3696.281	-59.5
3699.013	-61.5
3701.742	-59.5
3704.47	-63.5
3707.195	-64.5
3709.919	-66.5
3712.64	-67.5
3715.359	-65.5
3718.076	-65.5
3720.792	-68.5
3723.505	-68.5
3726.216	-67.5
3728.925	-67.5
3731.632	-69.5
3734.336	-70.5
3737.039	-67.5
3739.74	-72.5
3742.439	-73.5
3745.136	-76.5
3747.83	-77.5
3750.523	-79.5
3753.213	-77.5
3755.902	-80.5
3758.589	-72.5
3761.273	-75.5
3763.956	-75.5
3766.636	-74.5
3769.315	-76.5
3771.991	-72.5
3774.665	-79.5
3777.338	-79.5
3780.008	-79.5
3782.677	-80.5
3785.343	-78.5
3788.007	-75.5
3790.67	-79.5
3793.33	-75.5
3795.989	-82.5
3798.645	-82.5
3801.299	-82.5
3803.952	-80.5
3806.602	-83.5
3809.251	-82.5
3811.897	-81.5
3814.542	-79.5
3817.184	-79.5
3819.825	-77.5
3822.463	-83.5
3825.1	-78.5
3827.735	-80.5
3830.367	-82.5
3832.998	-83.5
3835.627	-84.5
3838.253	-85.5
3840.878	-84.5
3843.501	-83.5
3846.122	-82.5
3848.741	-81.5
3851.358	-83.5
3853.973	-84.5
3856.586	-79.5
3859.197	-84.5
3861.806	-81.5
3864.414	-81.5
3867.019	-81.5
3869.622	-79.5
3872.224	-82.5
3874.823	-77.5
3877.421	-76.5
3880.016	-80.5
3882.61	-77.5
3885.202	-76.5
3887.792	-80.5
3890.38	-83.5
3892.966	-81.5
3895.55	-85.5
3898.132	-84.5
3900.713	-83.5
3903.291	-82.5
3905.868	-83.5
3908.442	-82.5
3911.015	-83.5
3913.586	-86.5
3916.155	-86.5
3918.722	-89.5
3921.287	-85.5
3923.85	-84.5
3926.411	-85.5
3928.971	-91.5
3931.528	-86.5
3934.084	-87.5
3936.638	-89.5
3939.19	-89.5
3941.74	-84.5
3944.288	-89.5
3946.834	-87.5
3949.378	-83.5
3951.921	-85.5
3954.462	-81.5
3957	-86.5
3959.537	-88.5
3962.072	-86.5
3964.606	-88.5
3967.137	-88.5
3969.667	-88.5
3972.194	-87.5
3974.72	-83.5
3977.244	-84.5
3979.766	-84.5
3982.286	-82.5
3984.805	-84.5
3987.321	-84.5
3989.836	-84.5
3992.349	-85.5
3994.86	-86.5
3997.369	-87.5
3999.877	-90.5
4002.382	-86.5
4004.886	-85.5
4007.388	-86.5
4009.888	-85.5
4012.386	-86.5
4014.883	-83.5
4017.377	-87.5
4019.87	-83.5
4022.361	-83.5
4024.85	-81.5
4027.338	-81.5
4029.823	-84.5
4032.307	-87.5
4034.789	-83.5
4037.269	-88.5
4039.747	-86.5
4042.224	-86.5
4044.699	-86.5
4047.172	-90.5
4049.643	-86.5
4052.112	-89.5
4054.58	-85.5
4057.046	-86.5
4059.51	-84.5
4061.972	-87.5
4064.432	-81.5
4066.891	-85.5
4069.348	-83.5
4071.803	-88.5
4074.256	-87.5
4076.708	-88.5
4079.158	-85.5
4081.606	-85.5
4084.052	-86.5
4086.497	-84.5
4088.939	-86.5
4091.38	-84.5
4093.819	-83.5
4096.257	-90.5
4098.693	-93.5
4101.127	-90.5
4103.559	-88.5
4105.989	-61.5
4108.418	-49.5
4110.845	-49.5
4113.27	-48.5
4115.694	-48.5
4118.115	-38.5
4120.535	-86.5
4122.954	-85.5
4125.37	-88.5
4127.785	-87.5
4130.198	-84.5
4132.609	-84.5
4135.019	-88.5
4137.427	-88.5
4139.833	-88.5
4142.237	-87.5
