Data from B.sub_water_10000CFUA1_RamanShift_1.txt Node
Date: Wed Mar 08 15:07:57 IST 2017
User: aro
Spectrometer: QEPB0276
Trigger mode: 0
Integration Time (sec): 5.000000E0
Scans to average: 1
Electric dark correction enabled: true
Nonlinearity correction enabled: false
Boxcar width: 0
XAxis mode: Raman Shifts
Number of Pixels in Spectrum: 1044
>>>>>Begin Spectral Data<<<<<
160.701	-31.12
166.742	-4.12
172.777	72.88
178.805	356.88
184.826	977.88
190.841	2040.88
196.849	3200.88
202.85	3959.88
208.845	4116.88
214.833	3927.88
220.815	3782.88
226.789	3685.88
232.758	3538.88
238.719	3419.88
244.674	3282.88
250.623	3158.88
256.565	2976.88
262.5	2831.88
268.429	2722.88
274.351	2565.88
280.267	2463.88
286.176	2359.88
292.079	2275.88
297.975	2202.88
303.865	2137.88
309.748	2065.88
315.625	2028.88
321.495	1981.88
327.359	1940.88
333.217	1941.88
339.068	1917.88
344.912	1878.88
350.751	1893.88
356.583	1890.88
362.408	1902.88
368.227	1896.88
374.04	1892.88
379.847	1889.88
385.647	1932.88
391.44	1926.88
397.228	1920.88
403.009	1922.88
408.784	1935.88
414.553	1935.88
420.315	1973.88
426.071	1963.88
431.821	1961.88
437.565	1941.88
443.302	1941.88
449.033	1951.88
454.758	1913.88
460.477	1910.88
466.189	1905.88
471.896	1902.88
477.596	1875.88
483.29	1854.88
488.978	1855.88
494.66	1831.88
500.335	1826.88
506.005	1775.88
511.668	1711.88
517.325	1675.88
522.977	1648.88
528.622	1620.88
534.261	1611.88
539.894	1588.88
545.521	1573.88
551.141	1561.88
556.756	1547.88
562.365	1531.88
567.968	1506.88
573.565	1511.88
579.155	1497.88
584.74	1489.88
590.319	1451.88
595.892	1458.88
601.459	1435.88
607.02	1422.88
612.575	1411.88
618.124	1396.88
623.667	1383.88
629.204	1367.88
634.735	1354.88
640.261	1336.88
645.781	1333.88
651.294	1311.88
656.802	1299.88
662.304	1297.88
667.8	1285.88
673.29	1283.88
678.775	1269.88
684.254	1261.88
689.726	1264.88
695.193	1252.88
700.655	1227.88
706.11	1229.88
711.56	1234.88
717.004	1215.88
722.442	1195.88
727.874	1185.88
733.301	1182.88
738.722	1160.88
744.137	1146.88
749.547	1159.88
754.951	1162.88
760.349	1145.88
765.741	1146.88
771.128	1141.88
776.509	1128.88
781.885	1127.88
787.254	1126.88
792.618	1108.88
797.977	1109.88
803.33	1086.88
808.677	1081.88
814.019	1071.88
819.355	1057.88
824.686	1026.88
830.011	1023.88
835.33	1039.88
840.644	1006.88
845.952	1010.88
851.255	1003.88
856.552	995.88
861.844	979.88
867.13	974.88
872.41	978.88
877.686	948.88
882.955	927.88
888.219	930.88
893.478	887.88
898.731	882.88
903.979	856.88
909.221	845.88
914.458	837.88
919.69	822.88
924.916	821.88
930.136	813.88
935.351	821.88
940.561	807.88
945.766	803.88
950.965	790.88
956.158	795.88
961.347	766.88
966.529	756.88
971.707	743.88
976.879	734.88
982.046	716.88
987.208	706.88
992.364	712.88
997.515	721.88
1002.66	728.88
1007.801	724.88
1012.936	726.88
1018.066	733.88
1023.19	751.88
1028.309	751.88
1033.423	739.88
1038.532	737.88
1043.636	725.88
1048.734	712.88
1053.827	705.88
1058.915	695.88
1063.998	695.88
1069.075	687.88
1074.147	700.88
1079.214	699.88
1084.276	712.88
1089.333	717.88
1094.385	699.88
1099.431	709.88
1104.472	701.88
1109.509	704.88
1114.54	683.88
1119.565	688.88
1124.586	668.88
1129.602	655.88
1134.613	660.88
1139.618	667.88
1144.619	659.88
1149.614	660.88
1154.604	655.88
1159.589	665.88
1164.57	667.88
1169.545	674.88
1174.515	667.88
1179.48	660.88
1184.44	653.88
1189.395	650.88
1194.345	644.88
1199.29	642.88
1204.23	639.88
1209.165	650.88
1214.095	640.88
1219.021	649.88
1223.941	657.88
1228.856	666.88
1233.766	665.88
1238.672	660.88
1243.572	670.88
1248.467	651.88
1253.358	644.88
1258.244	642.88
1263.124	621.88
1268	617.88
1272.871	611.88
1277.737	603.88
1282.599	595.88
1287.455	600.88
1292.306	605.88
1297.153	603.88
1301.995	607.88
1306.832	606.88
1311.664	618.88
1316.491	615.88
1321.314	619.88
1326.132	596.88
1330.945	585.88
1335.753	578.88
1340.556	559.88
1345.354	542.88
1350.148	536.88
1354.937	532.88
1359.722	541.88
1364.501	550.88
1369.276	553.88
1374.046	562.88
1378.811	561.88
1383.572	561.88
1388.327	565.88
1393.079	559.88
1397.825	538.88
1402.567	533.88
1407.304	524.88
1412.036	527.88
1416.764	510.88
1421.487	523.88
1426.205	515.88
1430.919	518.88
1435.628	512.88
1440.333	531.88
1445.032	537.88
1449.727	523.88
1454.418	535.88
1459.104	541.88
1463.785	523.88
1468.462	522.88
1473.134	515.88
1477.802	510.88
1482.465	512.88
1487.123	510.88
1491.777	513.88
1496.426	517.88
1501.071	536.88
1505.711	539.88
1510.347	555.88
1514.978	552.88
1519.604	571.88
1524.226	580.88
1528.844	577.88
1533.457	574.88
1538.065	569.88
1542.669	582.88
1547.269	578.88
1551.864	591.88
1556.454	606.88
1561.041	606.88
1565.622	611.88
1570.199	614.88
1574.772	635.88
1579.34	642.88
1583.904	670.88
1588.464	686.88
1593.019	698.88
1597.569	715.88
1602.115	714.88
1606.657	747.88
1611.195	751.88
1615.728	762.88
1620.256	791.88
1624.78	805.88
1629.3	812.88
1633.816	835.88
1638.327	841.88
1642.834	861.88
1647.336	867.88
1651.834	856.88
1656.328	863.88
1660.817	852.88
1665.302	830.88
1669.783	805.88
1674.259	770.88
1678.732	746.88
1683.199	692.88
1687.663	663.88
1692.122	632.88
1696.577	597.88
1701.028	572.88
1705.474	563.88
1709.917	553.88
1714.355	518.88
1718.788	500.88
1723.218	485.88
1727.643	457.88
1732.064	425.88
1736.481	418.88
1740.893	401.88
1745.301	373.88
1749.705	362.88
1754.105	346.88
1758.501	338.88
1762.893	324.88
1767.28	312.88
1771.663	305.88
1776.042	302.88
1780.417	296.88
1784.787	291.88
1789.154	292.88
1793.516	301.88
1797.874	303.88
1802.228	301.88
1806.578	300.88
1810.924	294.88
1815.266	290.88
1819.603	284.88
1823.937	266.88
1828.266	266.88
1832.591	267.88
1836.913	260.88
1841.23	258.88
1845.543	254.88
1849.852	243.88
1854.156	249.88
1858.457	253.88
1862.754	253.88
1867.047	252.88
1871.335	246.88
1875.62	247.88
1879.9	258.88
1884.177	253.88
1888.449	245.88
1892.718	243.88
1896.982	240.88
1901.243	247.88
1905.499	247.88
1909.752	245.88
1914	246.88
1918.245	248.88
1922.485	250.88
1926.722	255.88
1930.954	254.88
1935.183	259.88
1939.408	268.88
1943.628	265.88
1947.845	257.88
1952.058	268.88
1956.267	271.88
1960.472	267.88
1964.673	258.88
1968.87	252.88
1973.063	253.88
1977.252	257.88
1981.438	253.88
1985.619	254.88
1989.797	241.88
1993.971	255.88
1998.14	261.88
2002.306	255.88
2006.469	261.88
2010.627	269.88
2014.781	257.88
2018.932	269.88
2023.078	262.88
2027.221	262.88
2031.36	262.88
2035.495	251.88
2039.627	258.88
2043.754	255.88
2047.878	254.88
2051.998	251.88
2056.114	255.88
2060.226	260.88
2064.334	256.88
2068.439	267.88
2072.54	269.88
2076.637	270.88
2080.73	267.88
2084.82	270.88
2088.906	263.88
2092.988	274.88
2097.066	279.88
2101.14	282.88
2105.211	272.88
2109.278	272.88
2113.342	269.88
2117.401	265.88
2121.457	266.88
2125.509	266.88
2129.558	269.88
2133.602	261.88
2137.643	251.88
2141.681	265.88
2145.714	253.88
2149.744	249.88
2153.77	251.88
2157.793	249.88
2161.812	242.88
2165.827	241.88
2169.838	230.88
2173.846	226.88
2177.851	226.88
2181.851	221.88
2185.848	217.88
2189.841	214.88
2193.831	201.88
2197.817	203.88
2201.799	201.88
2205.778	197.88
2209.753	200.88
2213.725	194.88
2217.693	194.88
2221.657	197.88
2225.618	201.88
2229.575	196.88
2233.529	191.88
2237.479	187.88
2241.425	185.88
2245.368	176.88
2249.307	181.88
2253.243	171.88
2257.175	170.88
2261.104	159.88
2265.029	161.88
2268.95	151.88
2272.868	152.88
2276.783	143.88
2280.694	148.88
2284.601	143.88
2288.505	148.88
2292.405	144.88
2296.302	145.88
2300.195	135.88
2304.085	131.88
2307.971	128.88
2311.854	129.88
2315.734	116.88
2319.609	107.88
2323.482	100.88
2327.351	112.88
2331.216	108.88
2335.078	104.88
2338.937	111.88
2342.792	105.88
2346.643	102.88
2350.492	98.88
2354.336	100.88
2358.178	95.88
2362.015	93.88
2365.85	99.88
2369.681	94.88
2373.508	92.88
2377.333	100.88
2381.153	94.88
2384.971	91.88
2388.785	90.88
2392.595	85.88
2396.402	87.88
2400.206	88.88
2404.007	80.88
2407.804	87.88
2411.597	80.88
2415.388	83.88
2419.174	79.88
2422.958	68.88
2426.738	77.88
2430.515	73.88
2434.289	74.88
2438.059	73.88
2441.825	74.88
2445.589	64.88
2449.349	70.88
2453.106	67.88
2456.859	66.88
2460.61	66.88
2464.356	65.88
2468.1	65.88
2471.84	60.88
2475.577	63.88
2479.311	66.88
2483.041	57.88
2486.768	59.88
2490.492	60.88
2494.213	60.88
2497.93	55.88
2501.644	58.88
2505.355	60.88
2509.062	62.88
2512.766	55.88
2516.467	58.88
2520.165	63.88
2523.859	54.88
2527.551	57.88
2531.239	53.88
2534.923	47.88
2538.605	52.88
2542.283	49.88
2545.958	46.88
2549.63	48.88
2553.299	55.88
2556.964	47.88
2560.626	53.88
2564.285	51.88
2567.941	50.88
2571.594	50.88
2575.243	45.88
2578.89	45.88
2582.533	49.88
2586.173	48.88
2589.809	43.88
2593.443	42.88
2597.073	42.88
2600.701	35.88
2604.325	41.88
2607.946	39.88
2611.564	33.88
2615.178	38.88
2618.79	43.88
2622.398	33.88
2626.004	46.88
2629.606	35.88
2633.205	40.88
2636.801	41.88
2640.394	38.88
2643.983	33.88
2647.57	32.88
2651.153	27.88
2654.734	30.88
2658.311	28.88
2661.885	28.88
2665.456	35.88
2669.025	30.88
2672.589	26.88
2676.151	26.88
2679.71	29.88
2683.266	27.88
2686.819	25.88
2690.368	26.88
2693.915	25.88
2697.458	22.88
2700.999	16.88
2704.536	18.88
2708.071	20.88
2711.602	20.88
2715.13	17.88
2718.656	28.88
2722.178	22.88
2725.697	16.88
2729.214	19.88
2732.727	21.88
2736.237	23.88
2739.744	29.88
2743.249	29.88
2746.75	28.88
2750.248	32.88
2753.743	25.88
2757.236	29.88
2760.725	23.88
2764.211	27.88
2767.695	31.88
2771.175	30.88
2774.652	33.88
2778.127	37.88
2781.598	38.88
2785.067	43.88
2788.532	39.88
2791.995	39.88
2795.455	39.88
2798.911	40.88
2802.365	36.88
2805.816	32.88
2809.264	36.88
2812.709	42.88
2816.151	47.88
2819.59	42.88
2823.026	47.88
2826.46	55.88
2829.89	50.88
2833.318	55.88
2836.742	55.88
2840.164	57.88
2843.583	54.88
2846.999	59.88
2850.412	60.88
2853.822	68.88
2857.229	66.88
2860.634	73.88
2864.035	79.88
2867.434	80.88
2870.83	83.88
2874.223	92.88
2877.613	90.88
2881	94.88
2884.385	94.88
2887.766	93.88
2891.145	101.88
2894.521	99.88
2897.894	102.88
2901.264	106.88
2904.631	110.88
2907.996	110.88
2911.358	112.88
2914.717	110.88
2918.073	120.88
2921.426	125.88
2924.777	126.88
2928.124	136.88
2931.469	142.88
2934.811	154.88
2938.15	155.88
2941.487	153.88
2944.821	156.88
2948.152	161.88
2951.48	169.88
2954.805	164.88
2958.128	178.88
2961.447	183.88
2964.765	194.88
2968.079	196.88
2971.39	207.88
2974.699	213.88
2978.005	220.88
2981.308	230.88
2984.609	233.88
2987.907	236.88
2991.202	257.88
2994.494	266.88
2997.784	282.88
3001.07	286.88
3004.355	300.88
3007.636	314.88
3010.915	322.88
3014.191	327.88
3017.464	342.88
3020.734	345.88
3024.002	349.88
3027.267	366.88
3030.53	365.88
3033.789	381.88
3037.046	402.88
3040.301	400.88
3043.552	423.88
3046.801	425.88
3050.048	434.88
3053.291	449.88
3056.532	467.88
3059.771	481.88
3063.006	500.88
3066.239	519.88
3069.469	548.88
3072.697	561.88
3075.922	584.88
3079.144	598.88
3082.364	603.88
3085.581	628.88
3088.795	643.88
3092.007	659.88
3095.216	677.88
3098.423	691.88
3101.627	713.88
3104.828	744.88
3108.026	744.88
3111.222	774.88
3114.416	786.88
3117.607	808.88
3120.795	834.88
3123.98	851.88
3127.163	872.88
3130.344	895.88
3133.521	913.88
3136.696	941.88
3139.869	958.88
3143.039	974.88
3146.206	999.88
3149.371	1009.88
3152.533	1021.88
3155.693	1030.88
3158.85	1039.88
3162.005	1037.88
3165.157	1045.88
3168.306	1065.88
3171.453	1062.88
3174.597	1063.88
3177.739	1064.88
3180.878	1081.88
3184.014	1087.88
3187.149	1081.88
3190.28	1093.88
3193.409	1092.88
3196.536	1096.88
3199.659	1096.88
3202.781	1105.88
3205.9	1101.88
3209.016	1123.88
3212.13	1124.88
3215.241	1095.88
3218.35	1093.88
3221.456	1092.88
3224.56	1075.88
3227.661	1063.88
3230.76	1055.88
3233.856	1055.88
3236.95	1037.88
3240.041	1030.88
3243.13	1022.88
3246.216	1021.88
3249.3	1020.88
3252.382	1026.88
3255.46	1003.88
3258.537	1009.88
3261.611	1004.88
3264.682	999.88
3267.751	998.88
3270.818	1004.88
3273.882	1000.88
3276.943	992.88
3280.002	966.88
3283.059	963.88
3286.113	948.88
3289.165	939.88
3292.214	929.88
3295.261	906.88
3298.306	890.88
3301.348	884.88
3304.387	878.88
3307.425	856.88
3310.459	853.88
3313.492	839.88
3316.521	833.88
3319.549	817.88
3322.574	813.88
3325.597	801.88
3328.617	802.88
3331.635	796.88
3334.65	796.88
3337.663	790.88
3340.674	780.88
3343.682	787.88
3346.688	777.88
3349.691	775.88
3352.692	772.88
3355.691	754.88
3358.687	749.88
3361.681	755.88
3364.673	753.88
3367.662	744.88
3370.649	733.88
3373.633	720.88
3376.615	701.88
3379.595	691.88
3382.572	679.88
3385.547	671.88
3388.52	669.88
3391.49	654.88
3394.458	660.88
3397.424	648.88
3400.387	647.88
3403.348	632.88
3406.307	625.88
3409.263	621.88
3412.217	617.88
3415.168	609.88
3418.118	593.88
3421.065	588.88
3424.009	585.88
3426.951	577.88
3429.891	562.88
3432.829	572.88
3435.764	543.88
3438.697	539.88
3441.628	527.88
3444.557	499.88
3447.483	504.88
3450.407	482.88
3453.328	478.88
3456.247	454.88
3459.164	446.88
3462.079	430.88
3464.991	417.88
3467.902	392.88
3470.809	380.88
3473.715	376.88
3476.618	364.88
3479.519	351.88
3482.418	346.88
3485.315	332.88
3488.209	329.88
3491.101	318.88
3493.99	307.88
3496.878	294.88
3499.763	287.88
3502.646	275.88
3505.527	268.88
3508.405	255.88
3511.281	240.88
3514.155	239.88
3517.027	222.88
3519.897	211.88
3522.764	198.88
3525.629	194.88
3528.492	179.88
3531.352	176.88
3534.211	157.88
3537.067	152.88
3539.921	149.88
3542.773	142.88
3545.622	125.88
3548.469	123.88
3551.315	113.88
3554.157	102.88
3556.998	93.88
3559.837	89.88
3562.673	80.88
3565.507	67.88
3568.339	72.88
3571.169	62.88
3573.996	57.88
3576.822	60.88
3579.645	49.88
3582.466	46.88
3585.285	37.88
3588.101	33.88
3590.916	24.88
3593.728	26.88
3596.538	18.88
3599.346	17.88
3602.152	14.88
3604.956	9.88
3607.757	1.88
3610.556	-1.12
3613.354	-9.12
3616.149	-8.12
3618.942	-7.12
3621.732	-11.12
3624.521	-14.12
3627.307	-14.12
3630.092	-16.12
3632.874	-21.12
3635.654	-22.12
3638.432	-29.12
3641.208	-31.12
3643.982	-35.12
3646.753	-35.12
3649.523	-42.12
3652.29	-38.12
3655.055	-40.12
3657.818	-43.12
3660.579	-46.12
3663.338	-47.12
3666.095	-48.12
3668.849	-55.12
3671.602	-57.12
3674.352	-61.12
3677.101	-58.12
3679.847	-63.12
3682.591	-65.12
3685.333	-67.12
3688.073	-68.12
3690.811	-68.12
3693.547	-74.12
3696.281	-71.12
3699.013	-70.12
3701.742	-71.12
3704.47	-79.12
3707.195	-74.12
3709.919	-72.12
3712.64	-77.12
3715.359	-76.12
3718.076	-76.12
3720.792	-80.12
3723.505	-80.12
3726.216	-83.12
3728.925	-83.12
3731.632	-84.12
3734.336	-84.12
3737.039	-83.12
3739.74	-83.12
3742.439	-84.12
3745.136	-87.12
3747.83	-85.12
3750.523	-88.12
3753.213	-86.12
3755.902	-87.12
3758.589	-87.12
3761.273	-88.12
3763.956	-91.12
3766.636	-89.12
3769.315	-92.12
3771.991	-89.12
3774.665	-95.12
3777.338	-91.12
3780.008	-98.12
3782.677	-94.12
3785.343	-89.12
3788.007	-91.12
3790.67	-90.12
3793.33	-88.12
3795.989	-91.12
3798.645	-95.12
3801.299	-91.12
3803.952	-95.12
3806.602	-96.12
3809.251	-95.12
3811.897	-97.12
3814.542	-94.12
3817.184	-95.12
3819.825	-93.12
3822.463	-94.12
3825.1	-92.12
3827.735	-93.12
3830.367	-95.12
3832.998	-96.12
3835.627	-93.12
3838.253	-96.12
3840.878	-96.12
3843.501	-97.12
3846.122	-94.12
3848.741	-96.12
3851.358	-98.12
3853.973	-97.12
3856.586	-96.12
3859.197	-101.12
3861.806	-96.12
3864.414	-95.12
3867.019	-95.12
3869.622	-93.12
3872.224	-97.12
3874.823	-89.12
3877.421	-87.12
3880.016	-91.12
3882.61	-86.12
3885.202	-87.12
3887.792	-94.12
3890.38	-98.12
3892.966	-95.12
3895.55	-95.12
3898.132	-96.12
3900.713	-90.12
3903.291	-99.12
3905.868	-99.12
3908.442	-96.12
3911.015	-98.12
3913.586	-99.12
3916.155	-98.12
3918.722	-101.12
3921.287	-97.12
3923.85	-95.12
3926.411	-99.12
3928.971	-100.12
3931.528	-97.12
3934.084	-100.12
3936.638	-100.12
3939.19	-101.12
3941.74	-93.12
3944.288	-100.12
3946.834	-99.12
3949.378	-100.12
3951.921	-102.12
3954.462	-97.12
3957	-100.12
3959.537	-103.12
3962.072	-102.12
3964.606	-98.12
3967.137	-102.12
3969.667	-98.12
3972.194	-97.12
3974.72	-99.12
3977.244	-95.12
3979.766	-98.12
3982.286	-93.12
3984.805	-102.12
3987.321	-96.12
3989.836	-98.12
3992.349	-101.12
3994.86	-99.12
3997.369	-103.12
3999.877	-101.12
4002.382	-99.12
4004.886	-96.12
4007.388	-98.12
4009.888	-95.12
4012.386	-98.12
4014.883	-96.12
4017.377	-98.12
4019.87	-99.12
4022.361	-97.12
4024.85	-97.12
4027.338	-98.12
4029.823	-99.12
4032.307	-102.12
4034.789	-99.12
4037.269	-102.12
4039.747	-97.12
4042.224	-98.12
4044.699	-97.12
4047.172	-100.12
4049.643	-99.12
4052.112	-98.12
4054.58	-96.12
4057.046	-98.12
4059.51	-101.12
4061.972	-102.12
4064.432	-100.12
4066.891	-100.12
4069.348	-100.12
4071.803	-101.12
4074.256	-99.12
4076.708	-99.12
4079.158	-99.12
4081.606	-96.12
4084.052	-98.12
4086.497	-94.12
4088.939	-93.12
4091.38	-97.12
4093.819	-99.12
4096.257	-102.12
4098.693	-102.12
4101.127	-104.12
4103.559	-100.12
4105.989	-67.12
4108.418	-61.12
4110.845	-58.12
4113.27	-57.12
4115.694	-51.12
4118.115	-44.12
4120.535	-104.12
4122.954	-103.12
4125.37	-101.12
4127.785	-105.12
4130.198	-100.12
4132.609	-98.12
4135.019	-99.12
4137.427	-98.12
4139.833	-99.12
4142.237	-98.12
