Data from B.sub_water_10000CFUA3_RamanShift_1.txt Node
Date: Wed Mar 08 15:12:22 IST 2017
User: aro
Spectrometer: QEPB0276
Trigger mode: 0
Integration Time (sec): 5.000000E0
Scans to average: 1
Electric dark correction enabled: true
Nonlinearity correction enabled: false
Boxcar width: 0
XAxis mode: Raman Shifts
Number of Pixels in Spectrum: 1044
>>>>>Begin Spectral Data<<<<<
160.701	-32.12
166.742	-3.12
172.777	80.88
178.805	335.88
184.826	921.88
190.841	1941.88
196.849	3066.88
202.85	3773.88
208.845	3927.88
214.833	3813.88
220.815	3629.88
226.789	3551.88
232.758	3447.88
238.719	3351.88
244.674	3228.88
250.623	3108.88
256.565	2958.88
262.5	2796.88
268.429	2696.88
274.351	2567.88
280.267	2478.88
286.176	2378.88
292.079	2325.88
297.975	2236.88
303.865	2161.88
309.748	2123.88
315.625	2067.88
321.495	2047.88
327.359	2007.88
333.217	1984.88
339.068	1976.88
344.912	1975.88
350.751	1951.88
356.583	1956.88
362.408	1942.88
368.227	1968.88
374.04	1955.88
379.847	1974.88
385.647	1987.88
391.44	1998.88
397.228	2001.88
403.009	2001.88
408.784	2028.88
414.553	2021.88
420.315	2020.88
426.071	2024.88
431.821	2034.88
437.565	2014.88
443.302	1995.88
449.033	2015.88
454.758	1997.88
460.477	2009.88
466.189	1974.88
471.896	1965.88
477.596	1944.88
483.29	1963.88
488.978	1939.88
494.66	1922.88
500.335	1893.88
506.005	1880.88
511.668	1823.88
517.325	1805.88
522.977	1783.88
528.622	1736.88
534.261	1726.88
539.894	1707.88
545.521	1693.88
551.141	1671.88
556.756	1657.88
562.365	1650.88
567.968	1639.88
573.565	1644.88
579.155	1628.88
584.74	1608.88
590.319	1595.88
595.892	1573.88
601.459	1574.88
607.02	1574.88
612.575	1556.88
618.124	1532.88
623.667	1519.88
629.204	1518.88
634.735	1501.88
640.261	1477.88
645.781	1464.88
651.294	1466.88
656.802	1456.88
662.304	1450.88
667.8	1430.88
673.29	1439.88
678.775	1427.88
684.254	1415.88
689.726	1425.88
695.193	1396.88
700.655	1404.88
706.11	1386.88
711.56	1380.88
717.004	1364.88
722.442	1353.88
727.874	1344.88
733.301	1333.88
738.722	1335.88
744.137	1326.88
749.547	1322.88
754.951	1328.88
760.349	1332.88
765.741	1322.88
771.128	1317.88
776.509	1306.88
781.885	1310.88
787.254	1298.88
792.618	1288.88
797.977	1277.88
803.33	1275.88
808.677	1264.88
814.019	1241.88
819.355	1229.88
824.686	1219.88
830.011	1227.88
835.33	1214.88
840.644	1212.88
845.952	1206.88
851.255	1172.88
856.552	1175.88
861.844	1161.88
867.13	1162.88
872.41	1159.88
877.686	1148.88
882.955	1140.88
888.219	1110.88
893.478	1092.88
898.731	1085.88
903.979	1056.88
909.221	1033.88
914.458	1049.88
919.69	1035.88
924.916	1043.88
930.136	1032.88
935.351	1013.88
940.561	1020.88
945.766	1029.88
950.965	1019.88
956.158	996.88
961.347	1004.88
966.529	978.88
971.707	957.88
976.879	951.88
982.046	946.88
987.208	935.88
992.364	935.88
997.515	949.88
1002.66	948.88
1007.801	949.88
1012.936	967.88
1018.066	977.88
1023.19	972.88
1028.309	969.88
1033.423	968.88
1038.532	978.88
1043.636	958.88
1048.734	947.88
1053.827	926.88
1058.915	909.88
1063.998	919.88
1069.075	912.88
1074.147	902.88
1079.214	927.88
1084.276	933.88
1089.333	944.88
1094.385	940.88
1099.431	936.88
1104.472	946.88
1109.509	942.88
1114.54	923.88
1119.565	923.88
1124.586	897.88
1129.602	892.88
1134.613	891.88
1139.618	886.88
1144.619	897.88
1149.614	890.88
1154.604	889.88
1159.589	891.88
1164.57	903.88
1169.545	903.88
1174.515	908.88
1179.48	897.88
1184.44	893.88
1189.395	886.88
1194.345	886.88
1199.29	889.88
1204.23	871.88
1209.165	881.88
1214.095	894.88
1219.021	894.88
1223.941	902.88
1228.856	906.88
1233.766	912.88
1238.672	909.88
1243.572	897.88
1248.467	911.88
1253.358	896.88
1258.244	878.88
1263.124	863.88
1268	863.88
1272.871	841.88
1277.737	856.88
1282.599	841.88
1287.455	843.88
1292.306	845.88
1297.153	845.88
1301.995	859.88
1306.832	846.88
1311.664	864.88
1316.491	865.88
1321.314	854.88
1326.132	853.88
1330.945	835.88
1335.753	816.88
1340.556	786.88
1345.354	776.88
1350.148	761.88
1354.937	762.88
1359.722	774.88
1364.501	775.88
1369.276	787.88
1374.046	806.88
1378.811	804.88
1383.572	795.88
1388.327	800.88
1393.079	769.88
1397.825	776.88
1402.567	763.88
1407.304	755.88
1412.036	750.88
1416.764	746.88
1421.487	739.88
1426.205	735.88
1430.919	751.88
1435.628	762.88
1440.333	757.88
1445.032	747.88
1449.727	768.88
1454.418	756.88
1459.104	766.88
1463.785	757.88
1468.462	746.88
1473.134	737.88
1477.802	727.88
1482.465	744.88
1487.123	743.88
1491.777	740.88
1496.426	737.88
1501.071	762.88
1505.711	776.88
1510.347	783.88
1514.978	806.88
1519.604	812.88
1524.226	818.88
1528.844	810.88
1533.457	818.88
1538.065	812.88
1542.669	802.88
1547.269	805.88
1551.864	820.88
1556.454	830.88
1561.041	833.88
1565.622	839.88
1570.199	848.88
1574.772	866.88
1579.34	874.88
1583.904	892.88
1588.464	909.88
1593.019	914.88
1597.569	919.88
1602.115	945.88
1606.657	945.88
1611.195	950.88
1615.728	946.88
1620.256	978.88
1624.78	974.88
1629.3	1000.88
1633.816	1025.88
1638.327	1040.88
1642.834	1046.88
1647.336	1053.88
1651.834	1048.88
1656.328	1064.88
1660.817	1052.88
1665.302	1043.88
1669.783	1013.88
1674.259	987.88
1678.732	943.88
1683.199	914.88
1687.663	869.88
1692.122	842.88
1696.577	803.88
1701.028	783.88
1705.474	770.88
1709.917	764.88
1714.355	747.88
1718.788	716.88
1723.218	693.88
1727.643	665.88
1732.064	648.88
1736.481	638.88
1740.893	611.88
1745.301	592.88
1749.705	576.88
1754.105	558.88
1758.501	541.88
1762.893	528.88
1767.28	526.88
1771.663	514.88
1776.042	508.88
1780.417	503.88
1784.787	510.88
1789.154	509.88
1793.516	511.88
1797.874	523.88
1802.228	512.88
1806.578	513.88
1810.924	509.88
1815.266	502.88
1819.603	507.88
1823.937	487.88
1828.266	484.88
1832.591	471.88
1836.913	466.88
1841.23	467.88
1845.543	467.88
1849.852	461.88
1854.156	459.88
1858.457	465.88
1862.754	450.88
1867.047	459.88
1871.335	455.88
1875.62	458.88
1879.9	454.88
1884.177	472.88
1888.449	464.88
1892.718	467.88
1896.982	459.88
1901.243	454.88
1905.499	449.88
1909.752	455.88
1914	458.88
1918.245	459.88
1922.485	464.88
1926.722	465.88
1930.954	469.88
1935.183	463.88
1939.408	472.88
1943.628	469.88
1947.845	465.88
1952.058	478.88
1956.267	470.88
1960.472	470.88
1964.673	455.88
1968.87	456.88
1973.063	452.88
1977.252	463.88
1981.438	441.88
1985.619	442.88
1989.797	437.88
1993.971	442.88
1998.14	447.88
2002.306	461.88
2006.469	450.88
2010.627	455.88
2014.781	456.88
2018.932	462.88
2023.078	449.88
2027.221	453.88
2031.36	438.88
2035.495	440.88
2039.627	429.88
2043.754	440.88
2047.878	423.88
2051.998	434.88
2056.114	428.88
2060.226	443.88
2064.334	442.88
2068.439	449.88
2072.54	448.88
2076.637	444.88
2080.73	445.88
2084.82	451.88
2088.906	454.88
2092.988	457.88
2097.066	452.88
2101.14	458.88
2105.211	453.88
2109.278	447.88
2113.342	435.88
2117.401	446.88
2121.457	443.88
2125.509	433.88
2129.558	436.88
2133.602	440.88
2137.643	432.88
2141.681	433.88
2145.714	427.88
2149.744	425.88
2153.77	418.88
2157.793	408.88
2161.812	410.88
2165.827	401.88
2169.838	400.88
2173.846	378.88
2177.851	381.88
2181.851	378.88
2185.848	369.88
2189.841	372.88
2193.831	370.88
2197.817	368.88
2201.799	364.88
2205.778	363.88
2209.753	353.88
2213.725	353.88
2217.693	356.88
2221.657	351.88
2225.618	350.88
2229.575	344.88
2233.529	346.88
2237.479	337.88
2241.425	330.88
2245.368	332.88
2249.307	326.88
2253.243	324.88
2257.175	317.88
2261.104	310.88
2265.029	305.88
2268.95	307.88
2272.868	300.88
2276.783	294.88
2280.694	300.88
2284.601	283.88
2288.505	279.88
2292.405	279.88
2296.302	281.88
2300.195	278.88
2304.085	267.88
2307.971	271.88
2311.854	262.88
2315.734	258.88
2319.609	246.88
2323.482	239.88
2327.351	241.88
2331.216	240.88
2335.078	246.88
2338.937	246.88
2342.792	230.88
2346.643	231.88
2350.492	221.88
2354.336	222.88
2358.178	221.88
2362.015	223.88
2365.85	229.88
2369.681	228.88
2373.508	225.88
2377.333	231.88
2381.153	221.88
2384.971	231.88
2388.785	220.88
2392.595	218.88
2396.402	213.88
2400.206	214.88
2404.007	212.88
2407.804	206.88
2411.597	210.88
2415.388	209.88
2419.174	207.88
2422.958	205.88
2426.738	208.88
2430.515	202.88
2434.289	194.88
2438.059	199.88
2441.825	199.88
2445.589	192.88
2449.349	192.88
2453.106	192.88
2456.859	185.88
2460.61	183.88
2464.356	175.88
2468.1	174.88
2471.84	183.88
2475.577	185.88
2479.311	174.88
2483.041	180.88
2486.768	188.88
2490.492	183.88
2494.213	178.88
2497.93	176.88
2501.644	172.88
2505.355	169.88
2509.062	173.88
2512.766	177.88
2516.467	174.88
2520.165	171.88
2523.859	174.88
2527.551	169.88
2531.239	175.88
2534.923	171.88
2538.605	167.88
2542.283	169.88
2545.958	165.88
2549.63	166.88
2553.299	162.88
2556.964	165.88
2560.626	163.88
2564.285	156.88
2567.941	158.88
2571.594	160.88
2575.243	150.88
2578.89	149.88
2582.533	151.88
2586.173	153.88
2589.809	149.88
2593.443	150.88
2597.073	150.88
2600.701	146.88
2604.325	147.88
2607.946	155.88
2611.564	145.88
2615.178	142.88
2618.79	144.88
2622.398	145.88
2626.004	140.88
2629.606	136.88
2633.205	136.88
2636.801	136.88
2640.394	138.88
2643.983	128.88
2647.57	131.88
2651.153	132.88
2654.734	125.88
2658.311	126.88
2661.885	125.88
2665.456	122.88
2669.025	121.88
2672.589	123.88
2676.151	115.88
2679.71	120.88
2683.266	120.88
2686.819	113.88
2690.368	108.88
2693.915	117.88
2697.458	103.88
2700.999	106.88
2704.536	107.88
2708.071	105.88
2711.602	104.88
2715.13	102.88
2718.656	107.88
2722.178	97.88
2725.697	103.88
2729.214	103.88
2732.727	103.88
2736.237	102.88
2739.744	106.88
2743.249	104.88
2746.75	113.88
2750.248	105.88
2753.743	106.88
2757.236	109.88
2760.725	107.88
2764.211	102.88
2767.695	112.88
2771.175	109.88
2774.652	110.88
2778.127	114.88
2781.598	111.88
2785.067	117.88
2788.532	119.88
2791.995	112.88
2795.455	110.88
2798.911	106.88
2802.365	108.88
2805.816	106.88
2809.264	117.88
2812.709	114.88
2816.151	110.88
2819.59	117.88
2823.026	122.88
2826.46	115.88
2829.89	114.88
2833.318	116.88
2836.742	120.88
2840.164	117.88
2843.583	121.88
2846.999	124.88
2850.412	127.88
2853.822	128.88
2857.229	130.88
2860.634	134.88
2864.035	135.88
2867.434	145.88
2870.83	144.88
2874.223	144.88
2877.613	145.88
2881	153.88
2884.385	152.88
2887.766	150.88
2891.145	149.88
2894.521	148.88
2897.894	153.88
2901.264	153.88
2904.631	163.88
2907.996	157.88
2911.358	164.88
2914.717	158.88
2918.073	163.88
2921.426	169.88
2924.777	176.88
2928.124	182.88
2931.469	179.88
2934.811	187.88
2938.15	196.88
2941.487	198.88
2944.821	190.88
2948.152	195.88
2951.48	209.88
2954.805	209.88
2958.128	212.88
2961.447	219.88
2964.765	224.88
2968.079	229.88
2971.39	234.88
2974.699	243.88
2978.005	244.88
2981.308	261.88
2984.609	257.88
2987.907	280.88
2991.202	285.88
2994.494	296.88
2997.784	298.88
3001.07	316.88
3004.355	329.88
3007.636	343.88
3010.915	344.88
3014.191	350.88
3017.464	354.88
3020.734	354.88
3024.002	375.88
3027.267	368.88
3030.53	389.88
3033.789	387.88
3037.046	406.88
3040.301	416.88
3043.552	429.88
3046.801	434.88
3050.048	440.88
3053.291	458.88
3056.532	457.88
3059.771	493.88
3063.006	500.88
3066.239	517.88
3069.469	532.88
3072.697	555.88
3075.922	572.88
3079.144	583.88
3082.364	603.88
3085.581	609.88
3088.795	632.88
3092.007	642.88
3095.216	658.88
3098.423	685.88
3101.627	695.88
3104.828	710.88
3108.026	730.88
3111.222	749.88
3114.416	758.88
3117.607	787.88
3120.795	801.88
3123.98	822.88
3127.163	842.88
3130.344	858.88
3133.521	879.88
3136.696	898.88
3139.869	924.88
3143.039	929.88
3146.206	946.88
3149.371	972.88
3152.533	986.88
3155.693	981.88
3158.85	991.88
3162.005	995.88
3165.157	1006.88
3168.306	1010.88
3171.453	1009.88
3174.597	1026.88
3177.739	1008.88
3180.878	1013.88
3184.014	1034.88
3187.149	1025.88
3190.28	1029.88
3193.409	1036.88
3196.536	1028.88
3199.659	1051.88
3202.781	1038.88
3205.9	1044.88
3209.016	1042.88
3212.13	1049.88
3215.241	1033.88
3218.35	1036.88
3221.456	1027.88
3224.56	1023.88
3227.661	1024.88
3230.76	997.88
3233.856	982.88
3236.95	1005.88
3240.041	978.88
3243.13	975.88
3246.216	981.88
3249.3	969.88
3252.382	970.88
3255.46	956.88
3258.537	940.88
3261.611	946.88
3264.682	942.88
3267.751	941.88
3270.818	947.88
3273.882	928.88
3276.943	936.88
3280.002	928.88
3283.059	912.88
3286.113	898.88
3289.165	885.88
3292.214	880.88
3295.261	865.88
3298.306	849.88
3301.348	835.88
3304.387	830.88
3307.425	810.88
3310.459	799.88
3313.492	788.88
3316.521	789.88
3319.549	756.88
3322.574	761.88
3325.597	746.88
3328.617	754.88
3331.635	746.88
3334.65	740.88
3337.663	750.88
3340.674	730.88
3343.682	726.88
3346.688	723.88
3349.691	727.88
3352.692	713.88
3355.691	726.88
3358.687	711.88
3361.681	698.88
3364.673	698.88
3367.662	685.88
3370.649	682.88
3373.633	668.88
3376.615	660.88
3379.595	648.88
3382.572	636.88
3385.547	638.88
3388.52	621.88
3391.49	613.88
3394.458	601.88
3397.424	599.88
3400.387	588.88
3403.348	599.88
3406.307	585.88
3409.263	574.88
3412.217	572.88
3415.168	573.88
3418.118	561.88
3421.065	548.88
3424.009	556.88
3426.951	550.88
3429.891	525.88
3432.829	522.88
3435.764	519.88
3438.697	497.88
3441.628	484.88
3444.557	470.88
3447.483	465.88
3450.407	454.88
3453.328	432.88
3456.247	432.88
3459.164	418.88
3462.079	409.88
3464.991	398.88
3467.902	385.88
3470.809	364.88
3473.715	358.88
3476.618	351.88
3479.519	327.88
3482.418	331.88
3485.315	319.88
3488.209	311.88
3491.101	296.88
3493.99	291.88
3496.878	278.88
3499.763	277.88
3502.646	257.88
3505.527	257.88
3508.405	238.88
3511.281	232.88
3514.155	225.88
3517.027	210.88
3519.897	202.88
3522.764	195.88
3525.629	181.88
3528.492	182.88
3531.352	161.88
3534.211	155.88
3537.067	148.88
3539.921	135.88
3542.773	130.88
3545.622	118.88
3548.469	106.88
3551.315	105.88
3554.157	106.88
3556.998	89.88
3559.837	84.88
3562.673	74.88
3565.507	72.88
3568.339	66.88
3571.169	60.88
3573.996	59.88
3576.822	54.88
3579.645	49.88
3582.466	44.88
3585.285	35.88
3588.101	32.88
3590.916	25.88
3593.728	23.88
3596.538	17.88
3599.346	15.88
3602.152	14.88
3604.956	10.88
3607.757	1.88
3610.556	1.88
3613.354	-4.12
3616.149	-9.12
3618.942	-9.12
3621.732	-9.12
3624.521	-16.12
3627.307	-21.12
3630.092	-17.12
3632.874	-18.12
3635.654	-24.12
3638.432	-25.12
3641.208	-28.12
3643.982	-33.12
3646.753	-36.12
3649.523	-39.12
3652.29	-40.12
3655.055	-39.12
3657.818	-40.12
3660.579	-41.12
3663.338	-46.12
3666.095	-47.12
3668.849	-48.12
3671.602	-57.12
3674.352	-60.12
3677.101	-58.12
3679.847	-57.12
3682.591	-61.12
3685.333	-61.12
3688.073	-64.12
3690.811	-66.12
3693.547	-66.12
3696.281	-69.12
3699.013	-68.12
3701.742	-70.12
3704.47	-66.12
3707.195	-67.12
3709.919	-72.12
3712.64	-71.12
3715.359	-74.12
3718.076	-71.12
3720.792	-79.12
3723.505	-76.12
3726.216	-78.12
3728.925	-79.12
3731.632	-78.12
3734.336	-76.12
3737.039	-77.12
3739.74	-78.12
3742.439	-79.12
3745.136	-82.12
3747.83	-80.12
3750.523	-84.12
3753.213	-86.12
3755.902	-83.12
3758.589	-81.12
3761.273	-83.12
3763.956	-86.12
3766.636	-86.12
3769.315	-85.12
3771.991	-83.12
3774.665	-87.12
3777.338	-86.12
3780.008	-86.12
3782.677	-85.12
3785.343	-90.12
3788.007	-83.12
3790.67	-85.12
3793.33	-83.12
3795.989	-86.12
3798.645	-89.12
3801.299	-88.12
3803.952	-92.12
3806.602	-92.12
3809.251	-91.12
3811.897	-92.12
3814.542	-87.12
3817.184	-90.12
3819.825	-87.12
3822.463	-88.12
3825.1	-89.12
3827.735	-89.12
3830.367	-91.12
3832.998	-92.12
3835.627	-88.12
3838.253	-92.12
3840.878	-91.12
3843.501	-95.12
3846.122	-89.12
3848.741	-87.12
3851.358	-93.12
3853.973	-92.12
3856.586	-94.12
3859.197	-96.12
3861.806	-93.12
3864.414	-91.12
3867.019	-90.12
3869.622	-88.12
3872.224	-91.12
3874.823	-87.12
3877.421	-84.12
3880.016	-91.12
3882.61	-84.12
3885.202	-85.12
3887.792	-85.12
3890.38	-92.12
3892.966	-90.12
3895.55	-95.12
3898.132	-92.12
3900.713	-89.12
3903.291	-90.12
3905.868	-94.12
3908.442	-95.12
3911.015	-92.12
3913.586	-94.12
3916.155	-94.12
3918.722	-93.12
3921.287	-89.12
3923.85	-93.12
3926.411	-93.12
3928.971	-98.12
3931.528	-93.12
3934.084	-97.12
3936.638	-97.12
3939.19	-97.12
3941.74	-92.12
3944.288	-96.12
3946.834	-97.12
3949.378	-93.12
3951.921	-94.12
3954.462	-91.12
3957	-94.12
3959.537	-92.12
3962.072	-95.12
3964.606	-96.12
3967.137	-98.12
3969.667	-97.12
3972.194	-96.12
3974.72	-93.12
3977.244	-93.12
3979.766	-92.12
3982.286	-89.12
3984.805	-93.12
3987.321	-91.12
3989.836	-92.12
3992.349	-91.12
3994.86	-93.12
3997.369	-97.12
3999.877	-97.12
4002.382	-96.12
4004.886	-95.12
4007.388	-94.12
4009.888	-95.12
4012.386	-99.12
4014.883	-93.12
4017.377	-96.12
4019.87	-90.12
4022.361	-94.12
4024.85	-92.12
4027.338	-94.12
4029.823	-95.12
4032.307	-96.12
4034.789	-93.12
4037.269	-94.12
4039.747	-95.12
4042.224	-96.12
4044.699	-96.12
4047.172	-99.12
4049.643	-94.12
4052.112	-95.12
4054.58	-92.12
4057.046	-95.12
4059.51	-96.12
4061.972	-95.12
4064.432	-91.12
4066.891	-91.12
4069.348	-92.12
4071.803	-97.12
4074.256	-98.12
4076.708	-94.12
4079.158	-94.12
4081.606	-95.12
4084.052	-96.12
4086.497	-94.12
4088.939	-93.12
4091.38	-93.12
4093.819	-98.12
4096.257	-97.12
4098.693	-97.12
4101.127	-99.12
4103.559	-99.12
4105.989	-63.12
4108.418	-57.12
4110.845	-56.12
4113.27	-49.12
4115.694	-53.12
4118.115	-39.12
4120.535	-96.12
4122.954	-95.12
4125.37	-96.12
4127.785	-96.12
4130.198	-95.12
4132.609	-92.12
4135.019	-94.12
4137.427	-95.12
4139.833	-97.12
4142.237	-95.12
