Data from B.sub_water_1000CFUB2_RamanShift_1.txt Node
Date: Wed Mar 08 15:58:36 IST 2017
User: aro
Spectrometer: QEPB0276
Trigger mode: 0
Integration Time (sec): 5.000000E0
Scans to average: 1
Electric dark correction enabled: true
Nonlinearity correction enabled: false
Boxcar width: 0
XAxis mode: Raman Shifts
Number of Pixels in Spectrum: 1044
>>>>>Begin Spectral Data<<<<<
160.701	-27.5
166.742	-1.5
172.777	79.5
178.805	345.5
184.826	980.5
190.841	2043.5
196.849	3219.5
202.85	3988.5
208.845	4131.5
214.833	3985.5
220.815	3823.5
226.789	3677.5
232.758	3580.5
238.719	3457.5
244.674	3304.5
250.623	3123.5
256.565	2986.5
262.5	2861.5
268.429	2715.5
274.351	2586.5
280.267	2481.5
286.176	2380.5
292.079	2293.5
297.975	2211.5
303.865	2166.5
309.748	2081.5
315.625	2032.5
321.495	1989.5
327.359	1962.5
333.217	1953.5
339.068	1909.5
344.912	1936.5
350.751	1906.5
356.583	1893.5
362.408	1895.5
368.227	1906.5
374.04	1909.5
379.847	1914.5
385.647	1938.5
391.44	1938.5
397.228	1937.5
403.009	1958.5
408.784	1949.5
414.553	1962.5
420.315	1973.5
426.071	1947.5
431.821	1984.5
437.565	1972.5
443.302	1949.5
449.033	1952.5
454.758	1925.5
460.477	1924.5
466.189	1923.5
471.896	1898.5
477.596	1868.5
483.29	1883.5
488.978	1865.5
494.66	1836.5
500.335	1814.5
506.005	1778.5
511.668	1746.5
517.325	1710.5
522.977	1675.5
528.622	1656.5
534.261	1616.5
539.894	1591.5
545.521	1587.5
551.141	1563.5
556.756	1568.5
562.365	1548.5
567.968	1529.5
573.565	1526.5
579.155	1506.5
584.74	1493.5
590.319	1471.5
595.892	1466.5
601.459	1438.5
607.02	1441.5
612.575	1416.5
618.124	1409.5
623.667	1406.5
629.204	1390.5
634.735	1369.5
640.261	1356.5
645.781	1326.5
651.294	1347.5
656.802	1334.5
662.304	1312.5
667.8	1301.5
673.29	1300.5
678.775	1286.5
684.254	1269.5
689.726	1268.5
695.193	1256.5
700.655	1248.5
706.11	1243.5
711.56	1226.5
717.004	1218.5
722.442	1215.5
727.874	1178.5
733.301	1185.5
738.722	1189.5
744.137	1172.5
749.547	1170.5
754.951	1159.5
760.349	1154.5
765.741	1158.5
771.128	1152.5
776.509	1151.5
781.885	1142.5
787.254	1121.5
792.618	1133.5
797.977	1126.5
803.33	1109.5
808.677	1093.5
814.019	1078.5
819.355	1072.5
824.686	1052.5
830.011	1043.5
835.33	1025.5
840.644	1011.5
845.952	1020.5
851.255	1010.5
856.552	994.5
861.844	996.5
867.13	983.5
872.41	975.5
877.686	954.5
882.955	952.5
888.219	913.5
893.478	889.5
898.731	896.5
903.979	866.5
909.221	846.5
914.458	841.5
919.69	835.5
924.916	835.5
930.136	844.5
935.351	817.5
940.561	811.5
945.766	796.5
950.965	811.5
956.158	798.5
961.347	791.5
966.529	766.5
971.707	767.5
976.879	736.5
982.046	742.5
987.208	732.5
992.364	728.5
997.515	731.5
1002.66	723.5
1007.801	736.5
1012.936	747.5
1018.066	754.5
1023.19	754.5
1028.309	752.5
1033.423	753.5
1038.532	750.5
1043.636	744.5
1048.734	725.5
1053.827	716.5
1058.915	713.5
1063.998	704.5
1069.075	699.5
1074.147	709.5
1079.214	703.5
1084.276	713.5
1089.333	714.5
1094.385	715.5
1099.431	714.5
1104.472	717.5
1109.509	701.5
1114.54	714.5
1119.565	677.5
1124.586	692.5
1129.602	682.5
1134.613	677.5
1139.618	660.5
1144.619	675.5
1149.614	660.5
1154.604	673.5
1159.589	667.5
1164.57	679.5
1169.545	680.5
1174.515	669.5
1179.48	670.5
1184.44	665.5
1189.395	662.5
1194.345	662.5
1199.29	662.5
1204.23	655.5
1209.165	651.5
1214.095	664.5
1219.021	658.5
1223.941	671.5
1228.856	674.5
1233.766	676.5
1238.672	681.5
1243.572	672.5
1248.467	661.5
1253.358	654.5
1258.244	649.5
1263.124	643.5
1268	638.5
1272.871	622.5
1277.737	609.5
1282.599	616.5
1287.455	610.5
1292.306	608.5
1297.153	622.5
1301.995	635.5
1306.832	624.5
1311.664	638.5
1316.491	621.5
1321.314	625.5
1326.132	611.5
1330.945	596.5
1335.753	581.5
1340.556	583.5
1345.354	574.5
1350.148	538.5
1354.937	562.5
1359.722	554.5
1364.501	558.5
1369.276	557.5
1374.046	582.5
1378.811	574.5
1383.572	580.5
1388.327	570.5
1393.079	556.5
1397.825	558.5
1402.567	545.5
1407.304	531.5
1412.036	545.5
1416.764	529.5
1421.487	527.5
1426.205	526.5
1430.919	531.5
1435.628	531.5
1440.333	543.5
1445.032	540.5
1449.727	546.5
1454.418	548.5
1459.104	553.5
1463.785	539.5
1468.462	548.5
1473.134	523.5
1477.802	525.5
1482.465	537.5
1487.123	511.5
1491.777	526.5
1496.426	534.5
1501.071	545.5
1505.711	539.5
1510.347	564.5
1514.978	585.5
1519.604	587.5
1524.226	585.5
1528.844	599.5
1533.457	596.5
1538.065	596.5
1542.669	598.5
1547.269	596.5
1551.864	609.5
1556.454	619.5
1561.041	621.5
1565.622	618.5
1570.199	639.5
1574.772	649.5
1579.34	656.5
1583.904	681.5
1588.464	685.5
1593.019	712.5
1597.569	717.5
1602.115	738.5
1606.657	754.5
1611.195	774.5
1615.728	788.5
1620.256	795.5
1624.78	825.5
1629.3	830.5
1633.816	853.5
1638.327	864.5
1642.834	884.5
1647.336	873.5
1651.834	875.5
1656.328	882.5
1660.817	876.5
1665.302	851.5
1669.783	829.5
1674.259	791.5
1678.732	763.5
1683.199	721.5
1687.663	683.5
1692.122	647.5
1696.577	616.5
1701.028	591.5
1705.474	587.5
1709.917	557.5
1714.355	551.5
1718.788	519.5
1723.218	500.5
1727.643	472.5
1732.064	441.5
1736.481	424.5
1740.893	416.5
1745.301	399.5
1749.705	382.5
1754.105	362.5
1758.501	359.5
1762.893	335.5
1767.28	325.5
1771.663	328.5
1776.042	310.5
1780.417	308.5
1784.787	310.5
1789.154	301.5
1793.516	317.5
1797.874	315.5
1802.228	313.5
1806.578	314.5
1810.924	305.5
1815.266	302.5
1819.603	298.5
1823.937	278.5
1828.266	283.5
1832.591	276.5
1836.913	269.5
1841.23	267.5
1845.543	265.5
1849.852	257.5
1854.156	266.5
1858.457	262.5
1862.754	248.5
1867.047	258.5
1871.335	261.5
1875.62	260.5
1879.9	264.5
1884.177	255.5
1888.449	264.5
1892.718	265.5
1896.982	256.5
1901.243	260.5
1905.499	255.5
1909.752	258.5
1914	256.5
1918.245	261.5
1922.485	264.5
1926.722	263.5
1930.954	267.5
1935.183	267.5
1939.408	279.5
1943.628	273.5
1947.845	276.5
1952.058	276.5
1956.267	283.5
1960.472	276.5
1964.673	272.5
1968.87	272.5
1973.063	264.5
1977.252	271.5
1981.438	263.5
1985.619	266.5
1989.797	269.5
1993.971	266.5
1998.14	266.5
2002.306	269.5
2006.469	263.5
2010.627	266.5
2014.781	270.5
2018.932	280.5
2023.078	269.5
2027.221	269.5
2031.36	268.5
2035.495	256.5
2039.627	259.5
2043.754	263.5
2047.878	256.5
2051.998	262.5
2056.114	265.5
2060.226	275.5
2064.334	272.5
2068.439	273.5
2072.54	275.5
2076.637	281.5
2080.73	277.5
2084.82	288.5
2088.906	286.5
2092.988	285.5
2097.066	290.5
2101.14	281.5
2105.211	289.5
2109.278	284.5
2113.342	275.5
2117.401	274.5
2121.457	269.5
2125.509	270.5
2129.558	267.5
2133.602	274.5
2137.643	271.5
2141.681	272.5
2145.714	263.5
2149.744	259.5
2153.77	252.5
2157.793	249.5
2161.812	253.5
2165.827	246.5
2169.838	243.5
2173.846	236.5
2177.851	227.5
2181.851	225.5
2185.848	221.5
2189.841	220.5
2193.831	214.5
2197.817	214.5
2201.799	213.5
2205.778	208.5
2209.753	209.5
2213.725	211.5
2217.693	207.5
2221.657	209.5
2225.618	205.5
2229.575	198.5
2233.529	195.5
2237.479	192.5
2241.425	188.5
2245.368	190.5
2249.307	185.5
2253.243	182.5
2257.175	176.5
2261.104	174.5
2265.029	165.5
2268.95	167.5
2272.868	160.5
2276.783	160.5
2280.694	150.5
2284.601	155.5
2288.505	144.5
2292.405	151.5
2296.302	140.5
2300.195	138.5
2304.085	135.5
2307.971	130.5
2311.854	131.5
2315.734	130.5
2319.609	125.5
2323.482	115.5
2327.351	113.5
2331.216	112.5
2335.078	116.5
2338.937	115.5
2342.792	107.5
2346.643	105.5
2350.492	109.5
2354.336	105.5
2358.178	110.5
2362.015	104.5
2365.85	100.5
2369.681	99.5
2373.508	102.5
2377.333	105.5
2381.153	99.5
2384.971	100.5
2388.785	100.5
2392.595	95.5
2396.402	86.5
2400.206	94.5
2404.007	87.5
2407.804	87.5
2411.597	89.5
2415.388	93.5
2419.174	91.5
2422.958	80.5
2426.738	88.5
2430.515	85.5
2434.289	78.5
2438.059	78.5
2441.825	79.5
2445.589	73.5
2449.349	77.5
2453.106	71.5
2456.859	74.5
2460.61	69.5
2464.356	73.5
2468.1	74.5
2471.84	65.5
2475.577	70.5
2479.311	70.5
2483.041	68.5
2486.768	70.5
2490.492	62.5
2494.213	68.5
2497.93	71.5
2501.644	68.5
2505.355	62.5
2509.062	63.5
2512.766	65.5
2516.467	63.5
2520.165	65.5
2523.859	65.5
2527.551	60.5
2531.239	70.5
2534.923	56.5
2538.605	60.5
2542.283	59.5
2545.958	53.5
2549.63	59.5
2553.299	60.5
2556.964	59.5
2560.626	55.5
2564.285	55.5
2567.941	53.5
2571.594	54.5
2575.243	49.5
2578.89	49.5
2582.533	52.5
2586.173	44.5
2589.809	46.5
2593.443	47.5
2597.073	50.5
2600.701	48.5
2604.325	48.5
2607.946	49.5
2611.564	51.5
2615.178	44.5
2618.79	45.5
2622.398	41.5
2626.004	40.5
2629.606	37.5
2633.205	43.5
2636.801	40.5
2640.394	43.5
2643.983	38.5
2647.57	31.5
2651.153	28.5
2654.734	30.5
2658.311	31.5
2661.885	32.5
2665.456	37.5
2669.025	33.5
2672.589	29.5
2676.151	34.5
2679.71	31.5
2683.266	36.5
2686.819	32.5
2690.368	29.5
2693.915	27.5
2697.458	27.5
2700.999	22.5
2704.536	25.5
2708.071	29.5
2711.602	23.5
2715.13	27.5
2718.656	23.5
2722.178	23.5
2725.697	24.5
2729.214	25.5
2732.727	23.5
2736.237	27.5
2739.744	33.5
2743.249	29.5
2746.75	29.5
2750.248	36.5
2753.743	30.5
2757.236	34.5
2760.725	33.5
2764.211	33.5
2767.695	38.5
2771.175	40.5
2774.652	36.5
2778.127	33.5
2781.598	40.5
2785.067	44.5
2788.532	46.5
2791.995	47.5
2795.455	38.5
2798.911	48.5
2802.365	42.5
2805.816	41.5
2809.264	46.5
2812.709	51.5
2816.151	45.5
2819.59	46.5
2823.026	45.5
2826.46	51.5
2829.89	56.5
2833.318	54.5
2836.742	55.5
2840.164	57.5
2843.583	67.5
2846.999	62.5
2850.412	75.5
2853.822	72.5
2857.229	73.5
2860.634	75.5
2864.035	86.5
2867.434	81.5
2870.83	89.5
2874.223	89.5
2877.613	95.5
2881	102.5
2884.385	91.5
2887.766	95.5
2891.145	101.5
2894.521	104.5
2897.894	100.5
2901.264	114.5
2904.631	122.5
2907.996	121.5
2911.358	118.5
2914.717	114.5
2918.073	124.5
2921.426	126.5
2924.777	134.5
2928.124	136.5
2931.469	151.5
2934.811	148.5
2938.15	157.5
2941.487	159.5
2944.821	163.5
2948.152	163.5
2951.48	177.5
2954.805	179.5
2958.128	178.5
2961.447	187.5
2964.765	201.5
2968.079	198.5
2971.39	208.5
2974.699	214.5
2978.005	231.5
2981.308	226.5
2984.609	242.5
2987.907	254.5
2991.202	264.5
2994.494	272.5
2997.784	284.5
3001.07	299.5
3004.355	315.5
3007.636	319.5
3010.915	319.5
3014.191	339.5
3017.464	350.5
3020.734	358.5
3024.002	354.5
3027.267	373.5
3030.53	371.5
3033.789	383.5
3037.046	391.5
3040.301	407.5
3043.552	433.5
3046.801	430.5
3050.048	451.5
3053.291	467.5
3056.532	475.5
3059.771	502.5
3063.006	528.5
3066.239	533.5
3069.469	549.5
3072.697	571.5
3075.922	595.5
3079.144	616.5
3082.364	634.5
3085.581	646.5
3088.795	659.5
3092.007	682.5
3095.216	699.5
3098.423	720.5
3101.627	728.5
3104.828	753.5
3108.026	766.5
3111.222	781.5
3114.416	812.5
3117.607	840.5
3120.795	857.5
3123.98	891.5
3127.163	907.5
3130.344	941.5
3133.521	949.5
3136.696	966.5
3139.869	981.5
3143.039	990.5
3146.206	1024.5
3149.371	1040.5
3152.533	1053.5
3155.693	1055.5
3158.85	1069.5
3162.005	1082.5
3165.157	1070.5
3168.306	1092.5
3171.453	1097.5
3174.597	1098.5
3177.739	1092.5
3180.878	1106.5
3184.014	1112.5
3187.149	1120.5
3190.28	1123.5
3193.409	1120.5
3196.536	1121.5
3199.659	1127.5
3202.781	1133.5
3205.9	1127.5
3209.016	1137.5
3212.13	1136.5
3215.241	1122.5
3218.35	1121.5
3221.456	1118.5
3224.56	1117.5
3227.661	1089.5
3230.76	1088.5
3233.856	1084.5
3236.95	1061.5
3240.041	1065.5
3243.13	1056.5
3246.216	1047.5
3249.3	1025.5
3252.382	1026.5
3255.46	1029.5
3258.537	1023.5
3261.611	1011.5
3264.682	1013.5
3267.751	1011.5
3270.818	1019.5
3273.882	1003.5
3276.943	1001.5
3280.002	993.5
3283.059	994.5
3286.113	974.5
3289.165	948.5
3292.214	963.5
3295.261	930.5
3298.306	923.5
3301.348	908.5
3304.387	891.5
3307.425	875.5
3310.459	871.5
3313.492	855.5
3316.521	838.5
3319.549	843.5
3322.574	834.5
3325.597	827.5
3328.617	820.5
3331.635	809.5
3334.65	817.5
3337.663	804.5
3340.674	800.5
3343.682	801.5
3346.688	797.5
3349.691	794.5
3352.692	782.5
3355.691	783.5
3358.687	769.5
3361.681	761.5
3364.673	765.5
3367.662	758.5
3370.649	737.5
3373.633	735.5
3376.615	717.5
3379.595	716.5
3382.572	703.5
3385.547	693.5
3388.52	670.5
3391.49	678.5
3394.458	668.5
3397.424	662.5
3400.387	639.5
3403.348	644.5
3406.307	636.5
3409.263	631.5
3412.217	623.5
3415.168	617.5
3418.118	615.5
3421.065	597.5
3424.009	597.5
3426.951	587.5
3429.891	576.5
3432.829	564.5
3435.764	560.5
3438.697	536.5
3441.628	533.5
3444.557	515.5
3447.483	509.5
3450.407	491.5
3453.328	474.5
3456.247	461.5
3459.164	454.5
3462.079	438.5
3464.991	424.5
3467.902	413.5
3470.809	389.5
3473.715	382.5
3476.618	370.5
3479.519	367.5
3482.418	350.5
3485.315	341.5
3488.209	333.5
3491.101	328.5
3493.99	305.5
3496.878	308.5
3499.763	290.5
3502.646	283.5
3505.527	278.5
3508.405	270.5
3511.281	253.5
3514.155	249.5
3517.027	238.5
3519.897	217.5
3522.764	206.5
3525.629	200.5
3528.492	193.5
3531.352	171.5
3534.211	163.5
3537.067	153.5
3539.921	154.5
3542.773	133.5
3545.622	128.5
3548.469	120.5
3551.315	108.5
3554.157	110.5
3556.998	95.5
3559.837	96.5
3562.673	78.5
3565.507	77.5
3568.339	81.5
3571.169	71.5
3573.996	60.5
3576.822	59.5
3579.645	56.5
3582.466	48.5
3585.285	30.5
3588.101	34.5
3590.916	32.5
3593.728	24.5
3596.538	26.5
3599.346	20.5
3602.152	22.5
3604.956	8.5
3607.757	5.5
3610.556	3.5
3613.354	-1.5
3616.149	-8.5
3618.942	-9.5
3621.732	-8.5
3624.521	-21.5
3627.307	-22.5
3630.092	-18.5
3632.874	-21.5
3635.654	-25.5
3638.432	-22.5
3641.208	-30.5
3643.982	-31.5
3646.753	-32.5
3649.523	-37.5
3652.29	-36.5
3655.055	-42.5
3657.818	-47.5
3660.579	-46.5
3663.338	-46.5
3666.095	-51.5
3668.849	-58.5
3671.602	-61.5
3674.352	-55.5
3677.101	-63.5
3679.847	-60.5
3682.591	-56.5
3685.333	-62.5
3688.073	-62.5
3690.811	-63.5
3693.547	-68.5
3696.281	-68.5
3699.013	-69.5
3701.742	-71.5
3704.47	-74.5
3707.195	-74.5
3709.919	-75.5
3712.64	-73.5
3715.359	-77.5
3718.076	-79.5
3720.792	-77.5
3723.505	-76.5
3726.216	-80.5
3728.925	-81.5
3731.632	-78.5
3734.336	-78.5
3737.039	-79.5
3739.74	-79.5
3742.439	-78.5
3745.136	-84.5
3747.83	-83.5
3750.523	-87.5
3753.213	-85.5
3755.902	-87.5
3758.589	-87.5
3761.273	-86.5
3763.956	-87.5
3766.636	-84.5
3769.315	-83.5
3771.991	-84.5
3774.665	-90.5
3777.338	-86.5
3780.008	-89.5
3782.677	-88.5
3785.343	-89.5
3788.007	-90.5
3790.67	-88.5
3793.33	-88.5
3795.989	-88.5
3798.645	-90.5
3801.299	-89.5
3803.952	-95.5
3806.602	-93.5
3809.251	-92.5
3811.897	-94.5
3814.542	-88.5
3817.184	-89.5
3819.825	-90.5
3822.463	-92.5
3825.1	-91.5
3827.735	-90.5
3830.367	-96.5
3832.998	-94.5
3835.627	-91.5
3838.253	-93.5
3840.878	-94.5
3843.501	-92.5
3846.122	-94.5
3848.741	-90.5
3851.358	-92.5
3853.973	-95.5
3856.586	-97.5
3859.197	-99.5
3861.806	-96.5
3864.414	-93.5
3867.019	-95.5
3869.622	-88.5
3872.224	-96.5
3874.823	-86.5
3877.421	-84.5
3880.016	-89.5
3882.61	-82.5
3885.202	-81.5
3887.792	-87.5
3890.38	-91.5
3892.966	-90.5
3895.55	-95.5
3898.132	-95.5
3900.713	-96.5
3903.291	-96.5
3905.868	-99.5
3908.442	-96.5
3911.015	-96.5
3913.586	-94.5
3916.155	-95.5
3918.722	-94.5
3921.287	-92.5
3923.85	-91.5
3926.411	-94.5
3928.971	-97.5
3931.528	-95.5
3934.084	-99.5
3936.638	-98.5
3939.19	-102.5
3941.74	-95.5
3944.288	-97.5
3946.834	-95.5
3949.378	-95.5
3951.921	-95.5
3954.462	-91.5
3957	-96.5
3959.537	-96.5
3962.072	-96.5
3964.606	-95.5
3967.137	-98.5
3969.667	-95.5
3972.194	-97.5
3974.72	-96.5
3977.244	-99.5
3979.766	-96.5
3982.286	-97.5
3984.805	-100.5
3987.321	-95.5
3989.836	-96.5
3992.349	-95.5
3994.86	-96.5
3997.369	-98.5
3999.877	-95.5
4002.382	-95.5
4004.886	-93.5
4007.388	-93.5
4009.888	-93.5
4012.386	-95.5
4014.883	-96.5
4017.377	-100.5
4019.87	-97.5
4022.361	-95.5
4024.85	-96.5
4027.338	-98.5
4029.823	-97.5
4032.307	-99.5
4034.789	-94.5
4037.269	-95.5
4039.747	-95.5
4042.224	-93.5
4044.699	-95.5
4047.172	-97.5
4049.643	-96.5
4052.112	-97.5
4054.58	-95.5
4057.046	-94.5
4059.51	-95.5
4061.972	-97.5
4064.432	-92.5
4066.891	-97.5
4069.348	-95.5
4071.803	-101.5
4074.256	-100.5
4076.708	-99.5
4079.158	-98.5
4081.606	-95.5
4084.052	-97.5
4086.497	-91.5
4088.939	-92.5
4091.38	-93.5
4093.819	-96.5
4096.257	-100.5
4098.693	-102.5
4101.127	-100.5
4103.559	-103.5
4105.989	-63.5
4108.418	-59.5
4110.845	-54.5
4113.27	-53.5
4115.694	-50.5
4118.115	-41.5
4120.535	-94.5
4122.954	-94.5
4125.37	-98.5
4127.785	-100.5
4130.198	-97.5
4132.609	-95.5
4135.019	-99.5
4137.427	-98.5
4139.833	-99.5
4142.237	-98.5
