Data from B.sub_water_100000CFUB3_RamanShift_1.txt Node
Date: Wed Mar 08 16:04:51 IST 2017
User: aro
Spectrometer: QEPB0276
Trigger mode: 0
Integration Time (sec): 5.000000E0
Scans to average: 1
Electric dark correction enabled: true
Nonlinearity correction enabled: false
Boxcar width: 0
XAxis mode: Raman Shifts
Number of Pixels in Spectrum: 1044
>>>>>Begin Spectral Data<<<<<
160.701	-28.25
166.742	-0.25
172.777	80.75
178.805	334.75
184.826	945.75
190.841	1964.75
196.849	3081.75
202.85	3820.75
208.845	3939.75
214.833	3838.75
220.815	3639.75
226.789	3532.75
232.758	3408.75
238.719	3307.75
244.674	3156.75
250.623	3012.75
256.565	2858.75
262.5	2707.75
268.429	2582.75
274.351	2478.75
280.267	2385.75
286.176	2251.75
292.079	2182.75
297.975	2095.75
303.865	2011.75
309.748	1962.75
315.625	1913.75
321.495	1885.75
327.359	1860.75
333.217	1824.75
339.068	1827.75
344.912	1810.75
350.751	1796.75
356.583	1797.75
362.408	1789.75
368.227	1804.75
374.04	1785.75
379.847	1807.75
385.647	1808.75
391.44	1839.75
397.228	1829.75
403.009	1842.75
408.784	1844.75
414.553	1846.75
420.315	1864.75
426.071	1856.75
431.821	1862.75
437.565	1833.75
443.302	1855.75
449.033	1844.75
454.758	1818.75
460.477	1817.75
466.189	1807.75
471.896	1791.75
477.596	1761.75
483.29	1772.75
488.978	1774.75
494.66	1731.75
500.335	1712.75
506.005	1677.75
511.668	1627.75
517.325	1605.75
522.977	1569.75
528.622	1539.75
534.261	1538.75
539.894	1518.75
545.521	1487.75
551.141	1468.75
556.756	1463.75
562.365	1448.75
567.968	1444.75
573.565	1436.75
579.155	1413.75
584.74	1393.75
590.319	1369.75
595.892	1376.75
601.459	1374.75
607.02	1368.75
612.575	1348.75
618.124	1328.75
623.667	1312.75
629.204	1297.75
634.735	1286.75
640.261	1261.75
645.781	1237.75
651.294	1232.75
656.802	1239.75
662.304	1227.75
667.8	1212.75
673.29	1210.75
678.775	1215.75
684.254	1196.75
689.726	1189.75
695.193	1182.75
700.655	1168.75
706.11	1156.75
711.56	1162.75
717.004	1128.75
722.442	1130.75
727.874	1116.75
733.301	1090.75
738.722	1105.75
744.137	1104.75
749.547	1099.75
754.951	1075.75
760.349	1080.75
765.741	1083.75
771.128	1072.75
776.509	1068.75
781.885	1060.75
787.254	1062.75
792.618	1053.75
797.977	1046.75
803.33	1033.75
808.677	1028.75
814.019	997.75
819.355	989.75
824.686	980.75
830.011	979.75
835.33	962.75
840.644	949.75
845.952	946.75
851.255	923.75
856.552	931.75
861.844	909.75
867.13	903.75
872.41	910.75
877.686	888.75
882.955	865.75
888.219	850.75
893.478	829.75
898.731	807.75
903.979	808.75
909.221	783.75
914.458	782.75
919.69	782.75
924.916	770.75
930.136	760.75
935.351	765.75
940.561	755.75
945.766	755.75
950.965	741.75
956.158	715.75
961.347	725.75
966.529	697.75
971.707	693.75
976.879	679.75
982.046	672.75
987.208	662.75
992.364	651.75
997.515	666.75
1002.66	666.75
1007.801	683.75
1012.936	685.75
1018.066	684.75
1023.19	692.75
1028.309	695.75
1033.423	689.75
1038.532	665.75
1043.636	660.75
1048.734	670.75
1053.827	659.75
1058.915	654.75
1063.998	642.75
1069.075	650.75
1074.147	642.75
1079.214	643.75
1084.276	650.75
1089.333	656.75
1094.385	646.75
1099.431	639.75
1104.472	652.75
1109.509	641.75
1114.54	647.75
1119.565	639.75
1124.586	617.75
1129.602	608.75
1134.613	623.75
1139.618	600.75
1144.619	618.75
1149.614	600.75
1154.604	616.75
1159.589	602.75
1164.57	605.75
1169.545	614.75
1174.515	615.75
1179.48	614.75
1184.44	609.75
1189.395	601.75
1194.345	602.75
1199.29	593.75
1204.23	595.75
1209.165	600.75
1214.095	600.75
1219.021	603.75
1223.941	600.75
1228.856	604.75
1233.766	613.75
1238.672	605.75
1243.572	611.75
1248.467	603.75
1253.358	596.75
1258.244	592.75
1263.124	581.75
1268	579.75
1272.871	562.75
1277.737	557.75
1282.599	547.75
1287.455	559.75
1292.306	560.75
1297.153	556.75
1301.995	567.75
1306.832	557.75
1311.664	568.75
1316.491	573.75
1321.314	563.75
1326.132	562.75
1330.945	534.75
1335.753	524.75
1340.556	512.75
1345.354	516.75
1350.148	505.75
1354.937	489.75
1359.722	493.75
1364.501	503.75
1369.276	510.75
1374.046	520.75
1378.811	525.75
1383.572	515.75
1388.327	519.75
1393.079	500.75
1397.825	499.75
1402.567	494.75
1407.304	475.75
1412.036	472.75
1416.764	480.75
1421.487	476.75
1426.205	464.75
1430.919	479.75
1435.628	486.75
1440.333	477.75
1445.032	490.75
1449.727	490.75
1454.418	496.75
1459.104	487.75
1463.785	480.75
1468.462	487.75
1473.134	474.75
1477.802	472.75
1482.465	478.75
1487.123	472.75
1491.777	473.75
1496.426	480.75
1501.071	481.75
1505.711	506.75
1510.347	523.75
1514.978	526.75
1519.604	533.75
1524.226	539.75
1528.844	537.75
1533.457	528.75
1538.065	543.75
1542.669	549.75
1547.269	542.75
1551.864	536.75
1556.454	550.75
1561.041	557.75
1565.622	574.75
1570.199	577.75
1574.772	594.75
1579.34	595.75
1583.904	611.75
1588.464	641.75
1593.019	643.75
1597.569	674.75
1602.115	671.75
1606.657	689.75
1611.195	710.75
1615.728	722.75
1620.256	741.75
1624.78	739.75
1629.3	771.75
1633.816	795.75
1638.327	805.75
1642.834	814.75
1647.336	841.75
1651.834	817.75
1656.328	816.75
1660.817	812.75
1665.302	789.75
1669.783	756.75
1674.259	734.75
1678.732	698.75
1683.199	668.75
1687.663	622.75
1692.122	594.75
1696.577	571.75
1701.028	553.75
1705.474	532.75
1709.917	513.75
1714.355	485.75
1718.788	465.75
1723.218	436.75
1727.643	420.75
1732.064	405.75
1736.481	393.75
1740.893	366.75
1745.301	356.75
1749.705	342.75
1754.105	322.75
1758.501	299.75
1762.893	290.75
1767.28	279.75
1771.663	289.75
1776.042	270.75
1780.417	254.75
1784.787	267.75
1789.154	267.75
1793.516	269.75
1797.874	275.75
1802.228	267.75
1806.578	275.75
1810.924	267.75
1815.266	257.75
1819.603	248.75
1823.937	243.75
1828.266	237.75
1832.591	237.75
1836.913	226.75
1841.23	235.75
1845.543	229.75
1849.852	223.75
1854.156	218.75
1858.457	225.75
1862.754	223.75
1867.047	216.75
1871.335	223.75
1875.62	219.75
1879.9	227.75
1884.177	221.75
1888.449	223.75
1892.718	216.75
1896.982	219.75
1901.243	222.75
1905.499	217.75
1909.752	227.75
1914	221.75
1918.245	220.75
1922.485	221.75
1926.722	233.75
1930.954	239.75
1935.183	234.75
1939.408	230.75
1943.628	239.75
1947.845	243.75
1952.058	240.75
1956.267	237.75
1960.472	239.75
1964.673	236.75
1968.87	239.75
1973.063	226.75
1977.252	239.75
1981.438	227.75
1985.619	227.75
1989.797	227.75
1993.971	231.75
1998.14	235.75
2002.306	238.75
2006.469	236.75
2010.627	233.75
2014.781	235.75
2018.932	235.75
2023.078	234.75
2027.221	237.75
2031.36	232.75
2035.495	236.75
2039.627	229.75
2043.754	231.75
2047.878	225.75
2051.998	235.75
2056.114	235.75
2060.226	233.75
2064.334	235.75
2068.439	246.75
2072.54	250.75
2076.637	252.75
2080.73	254.75
2084.82	253.75
2088.906	247.75
2092.988	258.75
2097.066	252.75
2101.14	259.75
2105.211	252.75
2109.278	245.75
2113.342	248.75
2117.401	244.75
2121.457	242.75
2125.509	246.75
2129.558	245.75
2133.602	246.75
2137.643	238.75
2141.681	238.75
2145.714	230.75
2149.744	225.75
2153.77	231.75
2157.793	228.75
2161.812	222.75
2165.827	212.75
2169.838	218.75
2173.846	206.75
2177.851	207.75
2181.851	196.75
2185.848	194.75
2189.841	196.75
2193.831	190.75
2197.817	182.75
2201.799	184.75
2205.778	182.75
2209.753	179.75
2213.725	180.75
2217.693	178.75
2221.657	177.75
2225.618	172.75
2229.575	173.75
2233.529	173.75
2237.479	162.75
2241.425	162.75
2245.368	156.75
2249.307	162.75
2253.243	155.75
2257.175	150.75
2261.104	146.75
2265.029	142.75
2268.95	138.75
2272.868	127.75
2276.783	128.75
2280.694	131.75
2284.601	129.75
2288.505	123.75
2292.405	127.75
2296.302	114.75
2300.195	125.75
2304.085	111.75
2307.971	114.75
2311.854	114.75
2315.734	105.75
2319.609	100.75
2323.482	92.75
2327.351	98.75
2331.216	101.75
2335.078	99.75
2338.937	93.75
2342.792	82.75
2346.643	88.75
2350.492	78.75
2354.336	80.75
2358.178	80.75
2362.015	85.75
2365.85	81.75
2369.681	81.75
2373.508	81.75
2377.333	83.75
2381.153	81.75
2384.971	82.75
2388.785	78.75
2392.595	74.75
2396.402	71.75
2400.206	73.75
2404.007	69.75
2407.804	67.75
2411.597	64.75
2415.388	74.75
2419.174	69.75
2422.958	66.75
2426.738	63.75
2430.515	67.75
2434.289	60.75
2438.059	63.75
2441.825	56.75
2445.589	65.75
2449.349	63.75
2453.106	58.75
2456.859	55.75
2460.61	60.75
2464.356	52.75
2468.1	51.75
2471.84	49.75
2475.577	46.75
2479.311	48.75
2483.041	44.75
2486.768	57.75
2490.492	47.75
2494.213	51.75
2497.93	58.75
2501.644	52.75
2505.355	48.75
2509.062	49.75
2512.766	49.75
2516.467	50.75
2520.165	54.75
2523.859	45.75
2527.551	44.75
2531.239	40.75
2534.923	39.75
2538.605	47.75
2542.283	40.75
2545.958	39.75
2549.63	42.75
2553.299	43.75
2556.964	35.75
2560.626	43.75
2564.285	38.75
2567.941	36.75
2571.594	40.75
2575.243	34.75
2578.89	36.75
2582.533	31.75
2586.173	33.75
2589.809	32.75
2593.443	30.75
2597.073	32.75
2600.701	34.75
2604.325	31.75
2607.946	34.75
2611.564	29.75
2615.178	35.75
2618.79	34.75
2622.398	28.75
2626.004	26.75
2629.606	28.75
2633.205	24.75
2636.801	26.75
2640.394	25.75
2643.983	27.75
2647.57	25.75
2651.153	18.75
2654.734	27.75
2658.311	19.75
2661.885	21.75
2665.456	21.75
2669.025	18.75
2672.589	26.75
2676.151	19.75
2679.71	20.75
2683.266	25.75
2686.819	14.75
2690.368	14.75
2693.915	19.75
2697.458	16.75
2700.999	11.75
2704.536	17.75
2708.071	17.75
2711.602	10.75
2715.13	18.75
2718.656	12.75
2722.178	14.75
2725.697	15.75
2729.214	12.75
2732.727	12.75
2736.237	23.75
2739.744	19.75
2743.249	20.75
2746.75	22.75
2750.248	24.75
2753.743	20.75
2757.236	21.75
2760.725	25.75
2764.211	21.75
2767.695	33.75
2771.175	28.75
2774.652	23.75
2778.127	29.75
2781.598	36.75
2785.067	33.75
2788.532	36.75
2791.995	35.75
2795.455	35.75
2798.911	34.75
2802.365	32.75
2805.816	33.75
2809.264	36.75
2812.709	42.75
2816.151	42.75
2819.59	37.75
2823.026	50.75
2826.46	43.75
2829.89	45.75
2833.318	49.75
2836.742	43.75
2840.164	54.75
2843.583	52.75
2846.999	58.75
2850.412	57.75
2853.822	60.75
2857.229	62.75
2860.634	69.75
2864.035	73.75
2867.434	74.75
2870.83	73.75
2874.223	79.75
2877.613	80.75
2881	88.75
2884.385	83.75
2887.766	89.75
2891.145	88.75
2894.521	93.75
2897.894	89.75
2901.264	104.75
2904.631	101.75
2907.996	108.75
2911.358	105.75
2914.717	105.75
2918.073	114.75
2921.426	113.75
2924.777	117.75
2928.124	125.75
2931.469	133.75
2934.811	141.75
2938.15	147.75
2941.487	148.75
2944.821	156.75
2948.152	160.75
2951.48	170.75
2954.805	164.75
2958.128	166.75
2961.447	177.75
2964.765	189.75
2968.079	188.75
2971.39	195.75
2974.699	203.75
2978.005	210.75
2981.308	219.75
2984.609	227.75
2987.907	244.75
2991.202	245.75
2994.494	263.75
2997.784	274.75
3001.07	280.75
3004.355	296.75
3007.636	311.75
3010.915	320.75
3014.191	326.75
3017.464	330.75
3020.734	334.75
3024.002	347.75
3027.267	353.75
3030.53	361.75
3033.789	370.75
3037.046	380.75
3040.301	397.75
3043.552	406.75
3046.801	416.75
3050.048	441.75
3053.291	443.75
3056.532	465.75
3059.771	495.75
3063.006	497.75
3066.239	507.75
3069.469	544.75
3072.697	561.75
3075.922	564.75
3079.144	586.75
3082.364	620.75
3085.581	614.75
3088.795	622.75
3092.007	647.75
3095.216	664.75
3098.423	688.75
3101.627	703.75
3104.828	735.75
3108.026	751.75
3111.222	768.75
3114.416	795.75
3117.607	812.75
3120.795	824.75
3123.98	832.75
3127.163	883.75
3130.344	890.75
3133.521	921.75
3136.696	930.75
3139.869	968.75
3143.039	990.75
3146.206	996.75
3149.371	1011.75
3152.533	1013.75
3155.693	1014.75
3158.85	1030.75
3162.005	1035.75
3165.157	1047.75
3168.306	1042.75
3171.453	1067.75
3174.597	1056.75
3177.739	1064.75
3180.878	1079.75
3184.014	1070.75
3187.149	1080.75
3190.28	1083.75
3193.409	1092.75
3196.536	1093.75
3199.659	1085.75
3202.781	1098.75
3205.9	1095.75
3209.016	1096.75
3212.13	1101.75
3215.241	1097.75
3218.35	1088.75
3221.456	1077.75
3224.56	1077.75
3227.661	1063.75
3230.76	1063.75
3233.856	1051.75
3236.95	1041.75
3240.041	1039.75
3243.13	1035.75
3246.216	1017.75
3249.3	1021.75
3252.382	1011.75
3255.46	1005.75
3258.537	998.75
3261.611	988.75
3264.682	986.75
3267.751	985.75
3270.818	984.75
3273.882	996.75
3276.943	975.75
3280.002	958.75
3283.059	959.75
3286.113	942.75
3289.165	931.75
3292.214	917.75
3295.261	902.75
3298.306	885.75
3301.348	864.75
3304.387	876.75
3307.425	849.75
3310.459	851.75
3313.492	841.75
3316.521	820.75
3319.549	804.75
3322.574	811.75
3325.597	792.75
3328.617	785.75
3331.635	782.75
3334.65	774.75
3337.663	785.75
3340.674	772.75
3343.682	779.75
3346.688	771.75
3349.691	766.75
3352.692	755.75
3355.691	753.75
3358.687	754.75
3361.681	741.75
3364.673	731.75
3367.662	711.75
3370.649	718.75
3373.633	703.75
3376.615	693.75
3379.595	694.75
3382.572	681.75
3385.547	651.75
3388.52	676.75
3391.49	650.75
3394.458	642.75
3397.424	637.75
3400.387	646.75
3403.348	636.75
3406.307	621.75
3409.263	615.75
3412.217	599.75
3415.168	598.75
3418.118	587.75
3421.065	582.75
3424.009	569.75
3426.951	572.75
3429.891	553.75
3432.829	566.75
3435.764	545.75
3438.697	535.75
3441.628	517.75
3444.557	511.75
3447.483	492.75
3450.407	484.75
3453.328	475.75
3456.247	447.75
3459.164	438.75
3462.079	427.75
3464.991	408.75
3467.902	400.75
3470.809	382.75
3473.715	368.75
3476.618	361.75
3479.519	363.75
3482.418	339.75
3485.315	334.75
3488.209	323.75
3491.101	315.75
3493.99	312.75
3496.878	302.75
3499.763	281.75
3502.646	275.75
3505.527	268.75
3508.405	265.75
3511.281	246.75
3514.155	241.75
3517.027	225.75
3519.897	211.75
3522.764	199.75
3525.629	193.75
3528.492	185.75
3531.352	169.75
3534.211	158.75
3537.067	156.75
3539.921	149.75
3542.773	135.75
3545.622	132.75
3548.469	121.75
3551.315	116.75
3554.157	104.75
3556.998	93.75
3559.837	89.75
3562.673	86.75
3565.507	79.75
3568.339	73.75
3571.169	69.75
3573.996	68.75
3576.822	55.75
3579.645	54.75
3582.466	50.75
3585.285	42.75
3588.101	35.75
3590.916	30.75
3593.728	27.75
3596.538	26.75
3599.346	17.75
3602.152	18.75
3604.956	8.75
3607.757	2.75
3610.556	-0.25
3613.354	-6.25
3616.149	-9.25
3618.942	-11.25
3621.732	-11.25
3624.521	-16.25
3627.307	-15.25
3630.092	-17.25
3632.874	-20.25
3635.654	-19.25
3638.432	-24.25
3641.208	-29.25
3643.982	-31.25
3646.753	-34.25
3649.523	-39.25
3652.29	-36.25
3655.055	-41.25
3657.818	-40.25
3660.579	-43.25
3663.338	-49.25
3666.095	-55.25
3668.849	-51.25
3671.602	-52.25
3674.352	-53.25
3677.101	-57.25
3679.847	-54.25
3682.591	-61.25
3685.333	-54.25
3688.073	-65.25
3690.811	-64.25
3693.547	-68.25
3696.281	-66.25
3699.013	-69.25
3701.742	-68.25
3704.47	-72.25
3707.195	-70.25
3709.919	-71.25
3712.64	-65.25
3715.359	-74.25
3718.076	-71.25
3720.792	-74.25
3723.505	-70.25
3726.216	-78.25
3728.925	-80.25
3731.632	-80.25
3734.336	-77.25
3737.039	-77.25
3739.74	-82.25
3742.439	-80.25
3745.136	-83.25
3747.83	-85.25
3750.523	-84.25
3753.213	-79.25
3755.902	-84.25
3758.589	-80.25
3761.273	-83.25
3763.956	-83.25
3766.636	-81.25
3769.315	-85.25
3771.991	-81.25
3774.665	-88.25
3777.338	-86.25
3780.008	-91.25
3782.677	-88.25
3785.343	-86.25
3788.007	-87.25
3790.67	-87.25
3793.33	-83.25
3795.989	-86.25
3798.645	-88.25
3801.299	-86.25
3803.952	-90.25
3806.602	-88.25
3809.251	-86.25
3811.897	-89.25
3814.542	-88.25
3817.184	-86.25
3819.825	-87.25
3822.463	-93.25
3825.1	-91.25
3827.735	-90.25
3830.367	-96.25
3832.998	-91.25
3835.627	-93.25
3838.253	-94.25
3840.878	-90.25
3843.501	-86.25
3846.122	-89.25
3848.741	-86.25
3851.358	-88.25
3853.973	-89.25
3856.586	-92.25
3859.197	-94.25
3861.806	-92.25
3864.414	-92.25
3867.019	-92.25
3869.622	-90.25
3872.224	-92.25
3874.823	-90.25
3877.421	-84.25
3880.016	-86.25
3882.61	-78.25
3885.202	-79.25
3887.792	-84.25
3890.38	-88.25
3892.966	-88.25
3895.55	-93.25
3898.132	-91.25
3900.713	-90.25
3903.291	-92.25
3905.868	-93.25
3908.442	-95.25
3911.015	-91.25
3913.586	-96.25
3916.155	-94.25
3918.722	-95.25
3921.287	-89.25
3923.85	-90.25
3926.411	-91.25
3928.971	-92.25
3931.528	-91.25
3934.084	-95.25
3936.638	-96.25
3939.19	-94.25
3941.74	-91.25
3944.288	-99.25
3946.834	-97.25
3949.378	-93.25
3951.921	-96.25
3954.462	-92.25
3957	-94.25
3959.537	-96.25
3962.072	-92.25
3964.606	-94.25
3967.137	-95.25
3969.667	-93.25
3972.194	-94.25
3974.72	-90.25
3977.244	-89.25
3979.766	-91.25
3982.286	-91.25
3984.805	-96.25
3987.321	-92.25
3989.836	-94.25
3992.349	-95.25
3994.86	-96.25
3997.369	-94.25
3999.877	-95.25
4002.382	-93.25
4004.886	-92.25
4007.388	-90.25
4009.888	-91.25
4012.386	-94.25
4014.883	-89.25
4017.377	-94.25
4019.87	-91.25
4022.361	-94.25
4024.85	-92.25
4027.338	-95.25
4029.823	-94.25
4032.307	-96.25
4034.789	-95.25
4037.269	-93.25
4039.747	-92.25
4042.224	-95.25
4044.699	-93.25
4047.172	-97.25
4049.643	-94.25
4052.112	-92.25
4054.58	-92.25
4057.046	-92.25
4059.51	-93.25
4061.972	-96.25
4064.432	-91.25
4066.891	-93.25
4069.348	-93.25
4071.803	-97.25
4074.256	-96.25
4076.708	-99.25
4079.158	-94.25
4081.606	-93.25
4084.052	-94.25
4086.497	-94.25
4088.939	-89.25
4091.38	-90.25
4093.819	-90.25
4096.257	-94.25
4098.693	-98.25
4101.127	-98.25
4103.559	-98.25
4105.989	-67.25
4108.418	-56.25
4110.845	-55.25
4113.27	-52.25
4115.694	-48.25
4118.115	-38.25
4120.535	-92.25
4122.954	-94.25
4125.37	-94.25
4127.785	-99.25
4130.198	-96.25
4132.609	-91.25
4135.019	-98.25
4137.427	-97.25
4139.833	-96.25
4142.237	-95.25
