Data from bs10_RamanShift_4.txt Node
Date: Tue Oct 17 17:45:54 IDT 2017
User: aro
Spectrometer: QEPB0276
Trigger mode: 0
Integration Time (sec): 5.000000E0
Scans to average: 3
Electric dark correction enabled: true
Nonlinearity correction enabled: false
Boxcar width: 0
XAxis mode: Raman Shifts
Number of Pixels in Spectrum: 1044
>>>>>Begin Spectral Data<<<<<
160.701	-2.75
166.742	6.58
172.777	28.58
178.805	82.92
184.826	243.25
190.841	536.92
196.849	909.58
202.85	1212.25
208.845	1358.25
214.833	1401.92
220.815	1435.92
226.789	1503.58
232.758	1562.92
238.719	1637.25
244.674	1677.25
250.623	1666.25
256.565	1651.92
262.5	1598.25
268.429	1558.58
274.351	1524.58
280.267	1499.92
286.176	1477.25
292.079	1470.58
297.975	1471.58
303.865	1477.92
309.748	1468.25
315.625	1460.58
321.495	1444.92
327.359	1415.58
333.217	1402.92
339.068	1390.25
344.912	1383.58
350.751	1357.25
356.583	1349.92
362.408	1337.58
368.227	1330.92
374.04	1331.58
379.847	1327.25
385.647	1321.25
391.44	1307.92
397.228	1291.25
403.009	1287.58
408.784	1295.58
414.553	1300.58
420.315	1318.58
426.071	1308.25
431.821	1284.25
437.565	1255.25
443.302	1226.25
449.033	1207.92
454.758	1203.25
460.477	1174.58
466.189	1151.25
471.896	1139.58
477.596	1122.58
483.29	1101.25
488.978	1071.58
494.66	1037.25
500.335	1000.92
506.005	984.58
511.668	997.25
517.325	1084.58
522.977	1228.58
528.622	1356.25
534.261	1404.25
539.894	1395.25
545.521	1357.25
551.141	1333.25
556.756	1310.25
562.365	1305.25
567.968	1285.92
573.565	1279.92
579.155	1258.92
584.74	1255.25
590.319	1246.92
595.892	1233.25
601.459	1228.25
607.02	1204.25
612.575	1198.25
618.124	1197.25
623.667	1198.25
629.204	1218.25
634.735	1227.92
640.261	1230.58
645.781	1244.92
651.294	1254.58
656.802	1262.58
662.304	1248.25
667.8	1261.25
673.29	1249.25
678.775	1265.58
684.254	1257.92
689.726	1263.92
695.193	1256.58
700.655	1269.25
706.11	1264.25
711.56	1259.58
717.004	1264.58
722.442	1273.25
727.874	1271.92
733.301	1275.92
738.722	1275.25
744.137	1284.92
749.547	1296.92
754.951	1302.92
760.349	1315.25
765.741	1322.25
771.128	1329.92
776.509	1326.25
781.885	1347.58
787.254	1352.58
792.618	1361.25
797.977	1360.92
803.33	1357.58
808.677	1358.25
814.019	1366.58
819.355	1373.25
824.686	1376.92
830.011	1381.92
835.33	1404.58
840.644	1406.25
845.952	1418.92
851.255	1430.25
856.552	1442.25
861.844	1458.92
867.13	1468.58
872.41	1473.25
877.686	1488.25
882.955	1482.58
888.219	1483.92
893.478	1484.58
898.731	1473.92
903.979	1480.58
909.221	1493.58
914.458	1494.92
919.69	1508.58
924.916	1524.92
930.136	1562.25
935.351	1584.92
940.561	1612.92
945.766	1636.58
950.965	1645.92
956.158	1631.58
961.347	1626.25
966.529	1604.58
971.707	1606.25
976.879	1589.58
982.046	1578.25
987.208	1570.58
992.364	1567.25
997.515	1575.25
1002.66	1578.92
1007.801	1596.25
1012.936	1611.92
1018.066	1631.92
1023.19	1640.25
1028.309	1648.92
1033.423	1644.58
1038.532	1643.25
1043.636	1639.25
1048.734	1620.25
1053.827	1604.92
1058.915	1596.92
1063.998	1589.25
1069.075	1588.25
1074.147	1604.58
1079.214	1610.92
1084.276	1625.58
1089.333	1628.25
1094.385	1648.58
1099.431	1663.58
1104.472	1668.25
1109.509	1662.58
1114.54	1646.25
1119.565	1627.25
1124.586	1604.92
1129.602	1590.25
1134.613	1593.92
1139.618	1580.58
1144.619	1587.58
1149.614	1580.92
1154.604	1597.58
1159.589	1605.58
1164.57	1609.58
1169.545	1608.25
1174.515	1612.58
1179.48	1606.25
1184.44	1594.92
1189.395	1585.92
1194.345	1568.58
1199.29	1567.58
1204.23	1570.58
1209.165	1573.58
1214.095	1576.25
1219.021	1589.58
1223.941	1601.58
1228.856	1602.25
1233.766	1611.25
1238.672	1612.58
1243.572	1607.25
1248.467	1587.92
1253.358	1577.92
1258.244	1550.25
1263.124	1525.25
1268	1514.25
1272.871	1497.92
1277.737	1491.58
1282.599	1471.92
1287.455	1478.25
1292.306	1480.92
1297.153	1492.92
1301.995	1493.92
1306.832	1501.25
1311.664	1509.25
1316.491	1508.25
1321.314	1503.58
1326.132	1485.92
1330.945	1466.58
1335.753	1423.58
1340.556	1400.25
1345.354	1363.92
1350.148	1340.25
1354.937	1332.92
1359.722	1349.25
1364.501	1379.92
1369.276	1415.25
1374.046	1449.25
1378.811	1471.58
1383.572	1479.58
1388.327	1465.58
1393.079	1432.25
1397.825	1404.92
1402.567	1374.25
1407.304	1352.58
1412.036	1331.58
1416.764	1333.58
1421.487	1311.92
1426.205	1318.25
1430.919	1319.92
1435.628	1332.25
1440.333	1333.25
1445.032	1337.25
1449.727	1342.58
1454.418	1340.92
1459.104	1340.58
1463.785	1327.58
1468.462	1317.92
1473.134	1311.25
1477.802	1304.58
1482.465	1304.25
1487.123	1303.92
1491.777	1318.25
1496.426	1328.58
1501.071	1344.25
1505.711	1366.92
1510.347	1388.58
1514.978	1400.25
1519.604	1419.58
1524.226	1413.92
1528.844	1420.92
1533.457	1413.92
1538.065	1405.92
1542.669	1402.92
1547.269	1386.58
1551.864	1392.92
1556.454	1384.58
1561.041	1371.58
1565.622	1366.25
1570.199	1375.58
1574.772	1372.25
1579.34	1381.92
1583.904	1376.58
1588.464	1385.25
1593.019	1374.58
1597.569	1362.58
1602.115	1356.25
1606.657	1339.25
1611.195	1319.25
1615.728	1315.25
1620.256	1308.92
1624.78	1318.58
1629.3	1313.92
1633.816	1327.92
1638.327	1338.58
1642.834	1343.25
1647.336	1361.25
1651.834	1370.92
1656.328	1394.92
1660.817	1404.58
1665.302	1417.92
1669.783	1412.25
1674.259	1406.58
1678.732	1424.92
1683.199	1393.25
1687.663	1371.58
1692.122	1349.58
1696.577	1369.92
1701.028	1393.58
1705.474	1435.58
1709.917	1471.58
1714.355	1482.25
1718.788	1473.25
1723.218	1472.25
1727.643	1457.58
1732.064	1455.58
1736.481	1442.92
1740.893	1440.92
1745.301	1424.58
1749.705	1421.58
1754.105	1396.25
1758.501	1398.25
1762.893	1397.58
1767.28	1389.92
1771.663	1389.25
1776.042	1393.58
1780.417	1406.92
1784.787	1439.92
1789.154	1477.25
1793.516	1514.58
1797.874	1544.25
1802.228	1583.25
1806.578	1602.25
1810.924	1604.25
1815.266	1601.25
1819.603	1589.25
1823.937	1572.25
1828.266	1571.25
1832.591	1552.92
1836.913	1536.92
1841.23	1535.25
1845.543	1533.25
1849.852	1543.92
1854.156	1546.25
1858.457	1550.25
1862.754	1568.58
1867.047	1577.92
1871.335	1602.25
1875.62	1597.92
1879.9	1616.58
1884.177	1620.58
1888.449	1621.58
1892.718	1619.58
1896.982	1629.58
1901.243	1628.92
1905.499	1625.92
1909.752	1635.92
1914	1648.92
1918.245	1674.92
1922.485	1683.92
1926.722	1724.92
1930.954	1727.58
1935.183	1747.58
1939.408	1769.92
1943.628	1775.58
1947.845	1791.58
1952.058	1793.25
1956.267	1793.25
1960.472	1792.92
1964.673	1772.92
1968.87	1765.92
1973.063	1749.58
1977.252	1753.92
1981.438	1739.92
1985.619	1746.58
1989.797	1725.25
1993.971	1733.25
1998.14	1739.25
2002.306	1731.92
2006.469	1739.58
2010.627	1746.25
2014.781	1755.58
2018.932	1749.25
2023.078	1739.25
2027.221	1740.25
2031.36	1726.92
2035.495	1705.25
2039.627	1691.92
2043.754	1690.25
2047.878	1689.58
2051.998	1690.92
2056.114	1699.92
2060.226	1718.58
2064.334	1718.58
2068.439	1727.58
2072.54	1745.92
2076.637	1754.25
2080.73	1769.92
2084.82	1786.92
2088.906	1787.58
2092.988	1788.92
2097.066	1784.92
2101.14	1792.58
2105.211	1788.25
2109.278	1780.25
2113.342	1779.92
2117.401	1779.58
2121.457	1777.58
2125.509	1782.58
2129.558	1789.58
2133.602	1777.25
2137.643	1792.58
2141.681	1783.58
2145.714	1791.25
2149.744	1778.58
2153.77	1776.25
2157.793	1785.58
2161.812	1764.25
2165.827	1741.92
2169.838	1729.58
2173.846	1721.58
2177.851	1706.58
2181.851	1691.58
2185.848	1676.92
2189.841	1677.25
2193.831	1667.92
2197.817	1674.92
2201.799	1667.58
2205.778	1679.92
2209.753	1671.58
2213.725	1682.92
2217.693	1697.58
2221.657	1705.92
2225.618	1704.92
2229.575	1714.25
2233.529	1721.25
2237.479	1709.25
2241.425	1707.25
2245.368	1697.92
2249.307	1687.25
2253.243	1680.92
2257.175	1678.58
2261.104	1682.58
2265.029	1666.92
2268.95	1660.25
2272.868	1651.58
2276.783	1656.58
2280.694	1643.92
2284.601	1646.92
2288.505	1632.58
2292.405	1637.25
2296.302	1634.92
2300.195	1621.58
2304.085	1605.25
2307.971	1602.92
2311.854	1576.58
2315.734	1564.92
2319.609	1556.92
2323.482	1546.25
2327.351	1524.92
2331.216	1531.25
2335.078	1524.92
2338.937	1525.92
2342.792	1516.25
2346.643	1518.25
2350.492	1526.92
2354.336	1517.92
2358.178	1537.25
2362.015	1536.58
2365.85	1552.58
2369.681	1557.25
2373.508	1563.25
2377.333	1563.92
2381.153	1563.92
2384.971	1566.92
2388.785	1559.58
2392.595	1566.25
2396.402	1561.58
2400.206	1555.92
2404.007	1559.25
2407.804	1567.58
2411.597	1566.25
2415.388	1561.58
2419.174	1554.58
2422.958	1560.25
2426.738	1563.25
2430.515	1568.25
2434.289	1569.92
2438.059	1573.92
2441.825	1575.25
2445.589	1567.58
2449.349	1568.25
2453.106	1558.58
2456.859	1561.92
2460.61	1566.25
2464.356	1553.92
2468.1	1560.25
2471.84	1560.58
2475.577	1560.25
2479.311	1564.92
2483.041	1589.58
2486.768	1574.25
2490.492	1587.58
2494.213	1608.92
2497.93	1610.58
2501.644	1623.25
2505.355	1631.92
2509.062	1638.92
2512.766	1647.25
2516.467	1645.25
2520.165	1650.92
2523.859	1659.25
2527.551	1667.25
2531.239	1661.25
2534.923	1655.92
2538.605	1672.92
2542.283	1681.58
2545.958	1684.58
2549.63	1693.58
2553.299	1700.25
2556.964	1697.58
2560.626	1702.58
2564.285	1710.25
2567.941	1713.58
2571.594	1708.25
2575.243	1715.58
2578.89	1722.92
2582.533	1716.92
2586.173	1719.58
2589.809	1724.92
2593.443	1729.58
2597.073	1729.92
2600.701	1729.25
2604.325	1724.92
2607.946	1738.25
2611.564	1750.58
2615.178	1756.58
2618.79	1753.25
2622.398	1758.92
2626.004	1762.25
2629.606	1752.58
2633.205	1740.58
2636.801	1748.25
2640.394	1736.58
2643.983	1731.92
2647.57	1734.25
2651.153	1722.58
2654.734	1722.92
2658.311	1711.92
2661.885	1707.92
2665.456	1695.58
2669.025	1707.58
2672.589	1702.58
2676.151	1698.58
2679.71	1692.25
2683.266	1688.58
2686.819	1682.92
2690.368	1672.58
2693.915	1659.92
2697.458	1643.58
2700.999	1643.25
2704.536	1628.25
2708.071	1633.92
2711.602	1628.25
2715.13	1618.92
2718.656	1625.92
2722.178	1625.92
2725.697	1619.58
2729.214	1630.92
2732.727	1648.92
2736.237	1657.92
2739.744	1680.58
2743.249	1704.92
2746.75	1727.58
2750.248	1743.25
2753.743	1764.25
2757.236	1779.92
2760.725	1784.25
2764.211	1795.92
2767.695	1799.58
2771.175	1801.25
2774.652	1799.25
2778.127	1795.58
2781.598	1790.25
2785.067	1783.58
2788.532	1778.92
2791.995	1786.25
2795.455	1784.25
2798.911	1781.92
2802.365	1792.25
2805.816	1790.58
2809.264	1791.25
2812.709	1782.92
2816.151	1770.25
2819.59	1765.92
2823.026	1775.92
2826.46	1757.58
2829.89	1763.92
2833.318	1755.92
2836.742	1767.92
2840.164	1756.92
2843.583	1750.25
2846.999	1764.58
2850.412	1774.92
2853.822	1786.25
2857.229	1777.25
2860.634	1783.92
2864.035	1781.25
2867.434	1801.25
2870.83	1795.25
2874.223	1804.58
2877.613	1795.58
2881	1799.25
2884.385	1776.58
2887.766	1774.92
2891.145	1752.25
2894.521	1742.58
2897.894	1746.25
2901.264	1734.92
2904.631	1719.58
2907.996	1732.25
2911.358	1708.92
2914.717	1707.25
2918.073	1700.92
2921.426	1693.92
2924.777	1692.92
2928.124	1683.92
2931.469	1687.92
2934.811	1678.58
2938.15	1680.92
2941.487	1676.25
2944.821	1669.92
2948.152	1663.25
2951.48	1647.58
2954.805	1647.92
2958.128	1622.25
2961.447	1632.25
2964.765	1614.25
2968.079	1619.25
2971.39	1619.25
2974.699	1623.92
2978.005	1620.25
2981.308	1628.58
2984.609	1636.58
2987.907	1647.25
2991.202	1648.92
2994.494	1649.25
2997.784	1659.58
3001.07	1672.58
3004.355	1673.25
3007.636	1668.92
3010.915	1663.58
3014.191	1652.58
3017.464	1643.92
3020.734	1626.92
3024.002	1602.58
3027.267	1595.58
3030.53	1570.58
3033.789	1554.92
3037.046	1536.58
3040.301	1531.92
3043.552	1527.25
3046.801	1507.58
3050.048	1504.92
3053.291	1507.92
3056.532	1504.58
3059.771	1503.58
3063.006	1499.58
3066.239	1505.92
3069.469	1497.58
3072.697	1496.92
3075.922	1491.58
3079.144	1495.92
3082.364	1488.58
3085.581	1474.25
3088.795	1470.25
3092.007	1462.25
3095.216	1455.25
3098.423	1451.58
3101.627	1433.92
3104.828	1431.92
3108.026	1425.92
3111.222	1423.25
3114.416	1420.92
3117.607	1411.58
3120.795	1415.58
3123.98	1403.25
3127.163	1399.58
3130.344	1399.25
3133.521	1397.25
3136.696	1400.58
3139.869	1397.58
3143.039	1396.92
3146.206	1377.58
3149.371	1370.25
3152.533	1356.92
3155.693	1329.58
3158.85	1332.25
3162.005	1330.58
3165.157	1303.92
3168.306	1282.25
3171.453	1267.92
3174.597	1262.25
3177.739	1249.58
3180.878	1233.25
3184.014	1215.58
3187.149	1216.25
3190.28	1206.25
3193.409	1199.25
3196.536	1186.25
3199.659	1193.58
3202.781	1174.92
3205.9	1174.25
3209.016	1167.58
3212.13	1170.92
3215.241	1143.58
3218.35	1131.58
3221.456	1130.58
3224.56	1119.25
3227.661	1099.58
3230.76	1090.58
3233.856	1076.58
3236.95	1072.58
3240.041	1069.58
3243.13	1055.58
3246.216	1046.92
3249.3	1044.25
3252.382	1040.58
3255.46	1032.25
3258.537	1026.92
3261.611	1032.92
3264.682	1023.92
3267.751	1018.25
3270.818	1029.92
3273.882	1021.58
3276.943	1020.92
3280.002	1017.92
3283.059	1011.58
3286.113	1002.25
3289.165	991.92
3292.214	978.58
3295.261	969.92
3298.306	956.92
3301.348	945.25
3304.387	937.25
3307.425	917.25
3310.459	911.92
3313.492	904.92
3316.521	890.25
3319.549	875.58
3322.574	871.58
3325.597	874.58
3328.617	858.92
3331.635	854.92
3334.65	855.58
3337.663	849.25
3340.674	845.25
3343.682	837.25
3346.688	837.92
3349.691	838.92
3352.692	825.58
3355.691	827.25
3358.687	814.25
3361.681	809.58
3364.673	806.25
3367.662	794.58
3370.649	786.92
3373.633	777.58
3376.615	761.25
3379.595	757.58
3382.572	749.58
3385.547	738.58
3388.52	735.25
3391.49	729.25
3394.458	721.92
3397.424	709.25
3400.387	699.58
3403.348	701.25
3406.307	693.58
3409.263	689.92
3412.217	686.58
3415.168	681.25
3418.118	679.92
3421.065	675.92
3424.009	670.58
3426.951	664.58
3429.891	662.25
3432.829	651.92
3435.764	646.58
3438.697	643.25
3441.628	631.92
3444.557	620.92
3447.483	613.58
3450.407	609.25
3453.328	592.92
3456.247	581.25
3459.164	580.92
3462.079	567.92
3464.991	561.25
3467.902	552.25
3470.809	542.92
3473.715	541.92
3476.618	536.25
3479.519	526.58
3482.418	522.25
3485.315	514.92
3488.209	511.25
3491.101	507.25
3493.99	505.25
3496.878	496.92
3499.763	499.92
3502.646	495.92
3505.527	485.58
3508.405	478.58
3511.281	468.58
3514.155	468.25
3517.027	460.25
3519.897	447.92
3522.764	438.25
3525.629	434.25
3528.492	421.58
3531.352	416.58
3534.211	401.58
3537.067	398.58
3539.921	384.92
3542.773	379.92
3545.622	368.25
3548.469	361.58
3551.315	360.25
3554.157	355.25
3556.998	350.58
3559.837	343.92
3562.673	336.92
3565.507	332.25
3568.339	331.92
3571.169	322.25
3573.996	322.92
3576.822	310.25
3579.645	311.58
3582.466	302.58
3585.285	298.58
3588.101	295.25
3590.916	285.58
3593.728	282.25
3596.538	269.58
3599.346	267.92
3602.152	262.58
3604.956	264.58
3607.757	250.25
3610.556	249.92
3613.354	243.58
3616.149	238.92
3618.942	237.58
3621.732	230.92
3624.521	230.92
3627.307	233.58
3630.092	227.25
3632.874	225.58
3635.654	225.25
3638.432	223.25
3641.208	217.58
3643.982	215.92
3646.753	212.25
3649.523	208.25
3652.29	204.58
3655.055	203.92
3657.818	199.58
3660.579	197.25
3663.338	193.58
3666.095	193.92
3668.849	187.25
3671.602	182.25
3674.352	183.92
3677.101	177.25
3679.847	174.92
3682.591	172.25
3685.333	171.58
3688.073	169.58
3690.811	172.92
3693.547	169.92
3696.281	170.58
3699.013	166.92
3701.742	166.92
3704.47	166.58
3707.195	166.58
3709.919	166.92
3712.64	166.25
3715.359	160.58
3718.076	158.58
3720.792	157.58
3723.505	155.58
3726.216	157.58
3728.925	151.92
3731.632	151.25
3734.336	147.58
3737.039	150.25
3739.74	145.58
3742.439	142.92
3745.136	139.25
3747.83	142.58
3750.523	140.92
3753.213	136.92
3755.902	137.92
3758.589	138.25
3761.273	138.58
3763.956	132.92
3766.636	133.92
3769.315	128.92
3771.991	127.25
3774.665	125.58
3777.338	124.92
3780.008	121.25
3782.677	117.25
3785.343	118.25
3788.007	115.25
3790.67	110.92
3793.33	108.25
3795.989	106.92
3798.645	104.92
3801.299	102.25
3803.952	102.58
3806.602	97.92
3809.251	100.25
3811.897	95.92
3814.542	94.92
3817.184	93.92
3819.825	91.25
3822.463	87.58
3825.1	89.92
3827.735	85.58
3830.367	81.25
3832.998	81.25
3835.627	81.25
3838.253	76.92
3840.878	73.25
3843.501	71.25
3846.122	68.25
3848.741	66.58
3851.358	65.92
3853.973	62.92
3856.586	61.58
3859.197	57.92
3861.806	58.25
3864.414	53.25
3867.019	54.92
3869.622	51.25
3872.224	50.92
3874.823	50.25
3877.421	45.58
3880.016	47.25
3882.61	43.58
3885.202	40.58
3887.792	39.58
3890.38	35.58
3892.966	32.58
3895.55	26.92
3898.132	26.58
3900.713	23.25
3903.291	21.25
3905.868	18.92
3908.442	17.25
3911.015	16.58
3913.586	13.92
3916.155	12.25
3918.722	10.92
3921.287	9.58
3923.85	6.92
3926.411	9.92
3928.971	6.58
3931.528	5.92
3934.084	3.58
3936.638	4.25
3939.19	0.92
3941.74	4.92
3944.288	-1.08
3946.834	-1.42
3949.378	-1.75
3951.921	-3.08
3954.462	-2.75
3957	-0.42
3959.537	-0.75
3962.072	-2.42
3964.606	-4.75
3967.137	-3.75
3969.667	-4.42
3972.194	-6.08
3974.72	-3.42
3977.244	-4.08
3979.766	-4.42
3982.286	-3.08
3984.805	-5.08
3987.321	-3.42
3989.836	-6.08
3992.349	-6.42
3994.86	-4.42
3997.369	-5.08
3999.877	-5.75
4002.382	-4.75
4004.886	-8.08
4007.388	-6.08
4009.888	-6.08
4012.386	-9.08
4014.883	-7.42
4017.377	-9.08
4019.87	-7.42
4022.361	-10.75
4024.85	-9.08
4027.338	-10.08
4029.823	-10.42
4032.307	-10.08
4034.789	-10.08
4037.269	-10.08
4039.747	-15.42
4042.224	-12.08
4044.699	-12.42
4047.172	-14.08
4049.643	-15.08
4052.112	-11.75
4054.58	-14.42
4057.046	-16.42
4059.51	-14.42
4061.972	-18.08
4064.432	-14.75
4066.891	-15.08
4069.348	-15.75
4071.803	-16.42
4074.256	-16.75
4076.708	-17.42
4079.158	-16.08
4081.606	-17.42
4084.052	-15.75
4086.497	-18.08
4088.939	-17.08
4091.38	-18.75
4093.819	-18.08
4096.257	-26.75
4098.693	-28.75
4101.127	-28.42
4103.559	-30.75
4105.989	-13.75
4108.418	-13.08
4110.845	-11.75
4113.27	-7.08
4115.694	-9.75
4118.115	-4.75
4120.535	-18.42
4122.954	-18.08
4125.37	-18.08
4127.785	-17.75
4130.198	-19.75
4132.609	-18.08
4135.019	-29.42
4137.427	-28.75
4139.833	-28.42
4142.237	-28.75
