Data from bs10_RamanShift_5.txt Node
Date: Tue Oct 17 17:46:54 IDT 2017
User: aro
Spectrometer: QEPB0276
Trigger mode: 0
Integration Time (sec): 5.000000E0
Scans to average: 3
Electric dark correction enabled: true
Nonlinearity correction enabled: false
Boxcar width: 0
XAxis mode: Raman Shifts
Number of Pixels in Spectrum: 1044
>>>>>Begin Spectral Data<<<<<
160.701	-5.17
166.742	8.5
172.777	32.83
178.805	110.17
184.826	321.17
190.841	689.5
196.849	1159.17
202.85	1529.17
208.845	1708.17
214.833	1767.17
220.815	1824.5
226.789	1896.5
232.758	1959.17
238.719	2018.83
244.674	2058.83
250.623	2042.5
256.565	2017.83
262.5	1967.17
268.429	1921.5
274.351	1878.83
280.267	1876.83
286.176	1859.5
292.079	1869.17
297.975	1867.17
303.865	1897.5
309.748	1897.17
315.625	1893.17
321.495	1877.5
327.359	1864.5
333.217	1866.83
339.068	1848.83
344.912	1832.17
350.751	1828.17
356.583	1812.5
362.408	1812.5
368.227	1803.83
374.04	1801.5
379.847	1796.5
385.647	1804.83
391.44	1804.5
397.228	1795.5
403.009	1801.17
408.784	1805.5
414.553	1823.83
420.315	1844.5
426.071	1837.17
431.821	1816.17
437.565	1801.17
443.302	1791.5
449.033	1778.17
454.758	1762.83
460.477	1755.83
466.189	1745.5
471.896	1739.5
477.596	1741.17
483.29	1721.17
488.978	1717.5
494.66	1705.5
500.335	1689.17
506.005	1692.5
511.668	1737.83
517.325	1835.83
522.977	1976.5
528.622	2065.83
534.261	2074.5
539.894	2007.83
545.521	1966.17
551.141	1933.83
556.756	1910.83
562.365	1890.17
567.968	1873.17
573.565	1859.5
579.155	1850.5
584.74	1838.5
590.319	1827.83
595.892	1815.17
601.459	1819.5
607.02	1782.17
612.575	1780.83
618.124	1773.17
623.667	1787.5
629.204	1801.17
634.735	1807.17
640.261	1817.83
645.781	1832.83
651.294	1851.5
656.802	1846.17
662.304	1830.5
667.8	1837.5
673.29	1838.5
678.775	1831.17
684.254	1835.83
689.726	1836.5
695.193	1822.17
700.655	1823.17
706.11	1816.17
711.56	1815.17
717.004	1817.17
722.442	1829.5
727.874	1823.17
733.301	1852.5
738.722	1856.5
744.137	1846.83
749.547	1835.17
754.951	1840.17
760.349	1827.83
765.741	1841.5
771.128	1861.83
776.509	1870.5
781.885	1862.83
787.254	1872.17
792.618	1894.83
797.977	1883.17
803.33	1880.5
808.677	1876.5
814.019	1862.5
819.355	1859.5
824.686	1857.5
830.011	1861.5
835.33	1874.17
840.644	1873.17
845.952	1885.5
851.255	1905.17
856.552	1906.17
861.844	1915.5
867.13	1928.83
872.41	1941.5
877.686	1944.17
882.955	1935.17
888.219	1922.83
893.478	1928.83
898.731	1912.83
903.979	1903.17
909.221	1917.5
914.458	1917.5
919.69	1929.5
924.916	1948.5
930.136	1975.83
935.351	2018.17
940.561	2042.5
945.766	2065.83
950.965	2060.17
956.158	2057.83
961.347	2052.17
966.529	2024.5
971.707	2008.83
976.879	1983.5
982.046	1966.83
987.208	1955.17
992.364	1954.5
997.515	1964.5
1002.66	1958.83
1007.801	1984.5
1012.936	1997.5
1018.066	2032.83
1023.19	2044.5
1028.309	2041.17
1033.423	2052.83
1038.532	2042.83
1043.636	2044.17
1048.734	2018.83
1053.827	2010.17
1058.915	1989.83
1063.998	1977.5
1069.075	1981.17
1074.147	1989.17
1079.214	2003.17
1084.276	2028.83
1089.333	2037.83
1094.385	2069.83
1099.431	2077.5
1104.472	2081.83
1109.509	2084.17
1114.54	2073.83
1119.565	2034.5
1124.586	2033.17
1129.602	2008.83
1134.613	1999.17
1139.618	2003.17
1144.619	2004.5
1149.614	2003.17
1154.604	2027.83
1159.589	2035.17
1164.57	2039.83
1169.545	2049.83
1174.515	2054.83
1179.48	2052.83
1184.44	2050.17
1189.395	2043.83
1194.345	2045.83
1199.29	2041.83
1204.23	2061.17
1209.165	2062.5
1214.095	2071.17
1219.021	2097.5
1223.941	2111.5
1228.856	2127.17
1233.766	2151.17
1238.672	2158.17
1243.572	2164.83
1248.467	2151.5
1253.358	2134.83
1258.244	2127.83
1263.124	2081.17
1268	2074.17
1272.871	2054.5
1277.737	2050.5
1282.599	2032.5
1287.455	2063.83
1292.306	2072.83
1297.153	2082.17
1301.995	2118.17
1306.832	2138.5
1311.664	2152.17
1316.491	2171.17
1321.314	2162.17
1326.132	2166.83
1330.945	2134.83
1335.753	2108.17
1340.556	2070.5
1345.354	2011.5
1350.148	1985.5
1354.937	1975.17
1359.722	2008.17
1364.501	2052.5
1369.276	2116.5
1374.046	2157.5
1378.811	2180.5
1383.572	2179.5
1388.327	2163.5
1393.079	2135.83
1397.825	2110.83
1402.567	2075.17
1407.304	2051.83
1412.036	2032.17
1416.764	2016.5
1421.487	2013.5
1426.205	2026.83
1430.919	2038.83
1435.628	2064.17
1440.333	2070.17
1445.032	2075.83
1449.727	2104.5
1454.418	2116.83
1459.104	2110.5
1463.785	2090.83
1468.462	2094.5
1473.134	2075.17
1477.802	2068.5
1482.465	2057.5
1487.123	2060.5
1491.777	2072.83
1496.426	2101.17
1501.071	2125.83
1505.711	2159.83
1510.347	2188.5
1514.978	2221.5
1519.604	2245.17
1524.226	2243.17
1528.844	2244.83
1533.457	2245.83
1538.065	2240.5
1542.669	2231.83
1547.269	2214.17
1551.864	2191.83
1556.454	2190.83
1561.041	2176.17
1565.622	2184.83
1570.199	2178.5
1574.772	2190.17
1579.34	2192.83
1583.904	2207.5
1588.464	2202.17
1593.019	2202.17
1597.569	2179.5
1602.115	2165.83
1606.657	2126.17
1611.195	2116.17
1615.728	2088.5
1620.256	2071.83
1624.78	2073.17
1629.3	2072.17
1633.816	2074.17
1638.327	2096.17
1642.834	2106.5
1647.336	2140.17
1651.834	2159.5
1656.328	2169.83
1660.817	2185.5
1665.302	2192.17
1669.783	2190.83
1674.259	2189.17
1678.732	2170.83
1683.199	2136.5
1687.663	2101.83
1692.122	2076.5
1696.577	2074.17
1701.028	2121.83
1705.474	2168.17
1709.917	2200.83
1714.355	2204.17
1718.788	2191.83
1723.218	2174.83
1727.643	2171.17
1732.064	2156.5
1736.481	2141.5
1740.893	2110.5
1745.301	2103.17
1749.705	2082.17
1754.105	2046.83
1758.501	2030.5
1762.893	2015.83
1767.28	2003.17
1771.663	1991.83
1776.042	1994.5
1780.417	2012.83
1784.787	2050.17
1789.154	2087.5
1793.516	2119.17
1797.874	2168.83
1802.228	2202.17
1806.578	2214.5
1810.924	2213.17
1815.266	2204.5
1819.603	2177.83
1823.937	2150.5
1828.266	2128.83
1832.591	2116.17
1836.913	2103.17
1841.23	2086.5
1845.543	2083.83
1849.852	2088.5
1854.156	2093.83
1858.457	2099.5
1862.754	2115.17
1867.047	2120.83
1871.335	2128.83
1875.62	2138.5
1879.9	2144.5
1884.177	2162.17
1888.449	2153.83
1892.718	2146.5
1896.982	2148.17
1901.243	2161.17
1905.499	2150.5
1909.752	2157.83
1914	2164.83
1918.245	2193.17
1922.485	2201.5
1926.722	2240.5
1930.954	2261.17
1935.183	2279.5
1939.408	2294.17
1943.628	2309.5
1947.845	2309.17
1952.058	2314.5
1956.267	2303.5
1960.472	2293.5
1964.673	2281.83
1968.87	2255.5
1973.063	2243.83
1977.252	2229.83
1981.438	2215.17
1985.619	2211.17
1989.797	2200.17
1993.971	2196.17
1998.14	2197.5
2002.306	2200.17
2006.469	2210.17
2010.627	2204.83
2014.781	2216.17
2018.932	2207.83
2023.078	2200.83
2027.221	2190.83
2031.36	2183.83
2035.495	2152.83
2039.627	2144.5
2043.754	2142.83
2047.878	2125.83
2051.998	2131.83
2056.114	2153.17
2060.226	2155.5
2064.334	2177.5
2068.439	2183.5
2072.54	2202.83
2076.637	2212.5
2080.73	2234.5
2084.82	2244.83
2088.906	2250.5
2092.988	2254.5
2097.066	2251.83
2101.14	2259.17
2105.211	2239.5
2109.278	2250.5
2113.342	2240.17
2117.401	2234.83
2121.457	2242.83
2125.509	2245.5
2129.558	2241.5
2133.602	2248.5
2137.643	2251.5
2141.681	2272.83
2145.714	2257.5
2149.744	2268.5
2153.77	2260.5
2157.793	2253.83
2161.812	2248.5
2165.827	2235.17
2169.838	2216.5
2173.846	2200.83
2177.851	2180.17
2181.851	2160.83
2185.848	2159.5
2189.841	2150.83
2193.831	2154.5
2197.817	2151.5
2201.799	2162.83
2205.778	2173.83
2209.753	2172.17
2213.725	2192.5
2217.693	2207.83
2221.657	2215.5
2225.618	2220.83
2229.575	2237.5
2233.529	2246.17
2237.479	2228.83
2241.425	2220.5
2245.368	2224.17
2249.307	2220.17
2253.243	2213.17
2257.175	2193.17
2261.104	2200.83
2265.029	2180.83
2268.95	2185.5
2272.868	2184.83
2276.783	2175.83
2280.694	2172.5
2284.601	2170.17
2288.505	2176.17
2292.405	2166.83
2296.302	2145.17
2300.195	2156.17
2304.085	2144.5
2307.971	2123.17
2311.854	2102.83
2315.734	2088.17
2319.609	2068.83
2323.482	2069.83
2327.351	2047.5
2331.216	2056.5
2335.078	2044.83
2338.937	2047.83
2342.792	2038.83
2346.643	2039.83
2350.492	2054.83
2354.336	2067.83
2358.178	2077.17
2362.015	2094.83
2365.85	2104.83
2369.681	2115.5
2373.508	2116.5
2377.333	2130.83
2381.153	2131.5
2384.971	2140.5
2388.785	2139.83
2392.595	2136.5
2396.402	2138.83
2400.206	2128.83
2404.007	2128.5
2407.804	2131.5
2411.597	2121.17
2415.388	2135.5
2419.174	2136.83
2422.958	2143.17
2426.738	2131.17
2430.515	2134.17
2434.289	2141.5
2438.059	2145.5
2441.825	2142.17
2445.589	2145.5
2449.349	2141.83
2453.106	2144.17
2456.859	2124.83
2460.61	2130.5
2464.356	2127.5
2468.1	2128.17
2471.84	2133.83
2475.577	2132.5
2479.311	2136.83
2483.041	2156.83
2486.768	2162.83
2490.492	2164.5
2494.213	2184.5
2497.93	2189.83
2501.644	2200.17
2505.355	2212.5
2509.062	2210.83
2512.766	2230.83
2516.467	2235.17
2520.165	2233.83
2523.859	2242.17
2527.551	2228.17
2531.239	2241.83
2534.923	2239.5
2538.605	2238.17
2542.283	2247.5
2545.958	2264.5
2549.63	2275.83
2553.299	2251.83
2556.964	2271.17
2560.626	2274.83
2564.285	2288.5
2567.941	2275.5
2571.594	2269.5
2575.243	2283.17
2578.89	2259.17
2582.533	2271.83
2586.173	2266.17
2589.809	2264.5
2593.443	2265.5
2597.073	2280.17
2600.701	2252.83
2604.325	2265.17
2607.946	2264.17
2611.564	2273.83
2615.178	2285.83
2618.79	2290.83
2622.398	2286.17
2626.004	2275.83
2629.606	2274.83
2633.205	2251.5
2636.801	2252.83
2640.394	2251.83
2643.983	2230.17
2647.57	2220.17
2651.153	2208.83
2654.734	2196.17
2658.311	2187.5
2661.885	2184.5
2665.456	2167.17
2669.025	2164.17
2672.589	2156.17
2676.151	2152.5
2679.71	2142.17
2683.266	2128.17
2686.819	2112.83
2690.368	2116.17
2693.915	2089.5
2697.458	2068.5
2700.999	2064.5
2704.536	2052.5
2708.071	2041.5
2711.602	2028.17
2715.13	2025.83
2718.656	2005.83
2722.178	2009.83
2725.697	2013.83
2729.214	2008.83
2732.727	2037.5
2736.237	2057.5
2739.744	2072.17
2743.249	2092.83
2746.75	2117.5
2750.248	2144.17
2753.743	2146.83
2757.236	2163.5
2760.725	2165.5
2764.211	2175.83
2767.695	2167.83
2771.175	2177.83
2774.652	2157.5
2778.127	2154.83
2781.598	2147.17
2785.067	2135.17
2788.532	2139.83
2791.995	2134.17
2795.455	2125.83
2798.911	2129.83
2802.365	2123.17
2805.816	2127.17
2809.264	2113.5
2812.709	2114.83
2816.151	2109.5
2819.59	2087.83
2823.026	2097.83
2826.46	2091.5
2829.89	2091.83
2833.318	2077.5
2836.742	2082.17
2840.164	2077.83
2843.583	2063.17
2846.999	2065.5
2850.412	2075.17
2853.822	2074.5
2857.229	2079.83
2860.634	2090.17
2864.035	2084.17
2867.434	2092.5
2870.83	2085.17
2874.223	2090.83
2877.613	2082.5
2881	2066.83
2884.385	2056.83
2887.766	2041.17
2891.145	2032.83
2894.521	2014.5
2897.894	1990.83
2901.264	1987.83
2904.631	1967.83
2907.996	1958.83
2911.358	1944.83
2914.717	1930.5
2918.073	1928.5
2921.426	1924.5
2924.777	1909.17
2928.124	1906.5
2931.469	1903.83
2934.811	1904.17
2938.15	1893.17
2941.487	1891.17
2944.821	1881.83
2948.152	1867.83
2951.48	1853.83
2954.805	1836.17
2958.128	1832.83
2961.447	1832.17
2964.765	1804.5
2968.079	1806.5
2971.39	1804.17
2974.699	1801.83
2978.005	1807.17
2981.308	1809.5
2984.609	1801.83
2987.907	1823.83
2991.202	1820.83
2994.494	1829.17
2997.784	1835.17
3001.07	1828.83
3004.355	1832.83
3007.636	1839.5
3010.915	1825.5
3014.191	1804.5
3017.464	1795.17
3020.734	1783.83
3024.002	1766.5
3027.267	1741.5
3030.53	1722.17
3033.789	1700.83
3037.046	1681.83
3040.301	1659.5
3043.552	1653.83
3046.801	1648.17
3050.048	1634.17
3053.291	1630.17
3056.532	1623.5
3059.771	1626.17
3063.006	1623.17
3066.239	1619.17
3069.469	1622.17
3072.697	1623.5
3075.922	1608.83
3079.144	1606.5
3082.364	1597.5
3085.581	1602.5
3088.795	1576.83
3092.007	1573.83
3095.216	1564.5
3098.423	1556.5
3101.627	1551.17
3104.828	1540.83
3108.026	1525.17
3111.222	1514.5
3114.416	1516.17
3117.607	1516.17
3120.795	1503.83
3123.98	1498.83
3127.163	1498.17
3130.344	1489.5
3133.521	1494.83
3136.696	1487.83
3139.869	1475.83
3143.039	1476.17
3146.206	1468.5
3149.371	1446.83
3152.533	1441.5
3155.693	1420.83
3158.85	1410.83
3162.005	1390.17
3165.157	1375.17
3168.306	1367.5
3171.453	1338.83
3174.597	1328.5
3177.739	1311.83
3180.878	1302.5
3184.014	1290.83
3187.149	1266.83
3190.28	1266.17
3193.409	1270.17
3196.536	1260.17
3199.659	1247.17
3202.781	1238.17
3205.9	1236.83
3209.016	1219.83
3212.13	1221.17
3215.241	1204.83
3218.35	1192.83
3221.456	1181.17
3224.56	1167.83
3227.661	1152.17
3230.76	1144.83
3233.856	1136.5
3236.95	1123.17
3240.041	1109.5
3243.13	1106.17
3246.216	1090.83
3249.3	1093.5
3252.382	1089.17
3255.46	1076.83
3258.537	1067.5
3261.611	1069.5
3264.682	1067.83
3267.751	1070.17
3270.818	1065.17
3273.882	1064.83
3276.943	1062.5
3280.002	1053.83
3283.059	1040.5
3286.113	1041.83
3289.165	1025.5
3292.214	1021.17
3295.261	1008.17
3298.306	990.5
3301.348	979.5
3304.387	959.83
3307.425	947.17
3310.459	939.17
3313.492	933.5
3316.521	922.5
3319.549	908.83
3322.574	907.83
3325.597	895.83
3328.617	890.5
3331.635	881.83
3334.65	875.83
3337.663	877.17
3340.674	864.83
3343.682	860.83
3346.688	861.83
3349.691	854.83
3352.692	856.83
3355.691	856.5
3358.687	840.17
3361.681	835.5
3364.673	825.17
3367.662	817.17
3370.649	805.83
3373.633	792.83
3376.615	785.5
3379.595	778.5
3382.572	769.83
3385.547	753.5
3388.52	761.5
3391.49	742.17
3394.458	739.83
3397.424	727.5
3400.387	722.83
3403.348	710.5
3406.307	705.83
3409.263	711.17
3412.217	697.5
3415.168	698.83
3418.118	693.5
3421.065	695.83
3424.009	689.83
3426.951	672.5
3429.891	671.5
3432.829	670.5
3435.764	666.83
3438.697	652.17
3441.628	643.5
3444.557	635.83
3447.483	627.5
3450.407	622.17
3453.328	606.17
3456.247	597.5
3459.164	584.83
3462.079	581.17
3464.991	576.5
3467.902	559.17
3470.809	553.5
3473.715	544.5
3476.618	538.5
3479.519	536.17
3482.418	530.83
3485.315	519.83
3488.209	520.5
3491.101	508.17
3493.99	516.83
3496.878	502.5
3499.763	499.83
3502.646	497.5
3505.527	490.17
3508.405	482.17
3511.281	476.83
3514.155	466.5
3517.027	464.83
3519.897	454.17
3522.764	443.83
3525.629	434.5
3528.492	424.5
3531.352	416.5
3534.211	408.83
3537.067	396.5
3539.921	389.83
3542.773	380.83
3545.622	373.83
3548.469	366.17
3551.315	361.5
3554.157	356.83
3556.998	348.17
3559.837	342.17
3562.673	339.17
3565.507	333.5
3568.339	330.83
3571.169	321.17
3573.996	317.83
3576.822	316.5
3579.645	306.83
3582.466	300.5
3585.285	303.5
3588.101	294.83
3590.916	289.5
3593.728	283.17
3596.538	271.83
3599.346	276.17
3602.152	262.5
3604.956	257.83
3607.757	254.17
3610.556	251.5
3613.354	241.5
3616.149	237.83
3618.942	234.17
3621.732	232.5
3624.521	229.5
3627.307	221.5
3630.092	224.17
3632.874	225.17
3635.654	220.17
3638.432	218.83
3641.208	212.5
3643.982	209.17
3646.753	211.83
3649.523	209.17
3652.29	201.83
3655.055	196.5
3657.818	197.17
3660.579	193.5
3663.338	188.83
3666.095	184.83
3668.849	182.83
3671.602	180.5
3674.352	176.5
3677.101	173.83
3679.847	171.17
3682.591	170.83
3685.333	172.17
3688.073	167.5
3690.811	166.5
3693.547	169.5
3696.281	163.83
3699.013	165.83
3701.742	165.17
3704.47	165.5
3707.195	164.5
3709.919	159.5
3712.64	161.17
3715.359	160.5
3718.076	156.5
3720.792	152.5
3723.505	151.5
3726.216	152.5
3728.925	147.83
3731.632	146.83
3734.336	143.5
3737.039	143.83
3739.74	142.83
3742.439	140.5
3745.136	138.17
3747.83	135.5
3750.523	132.17
3753.213	131.83
3755.902	133.83
3758.589	131.83
3761.273	131.17
3763.956	129.5
3766.636	125.5
3769.315	125.83
3771.991	122.17
3774.665	119.17
3777.338	117.17
3780.008	113.17
3782.677	112.83
3785.343	108.17
3788.007	108.5
3790.67	105.5
3793.33	98.17
3795.989	100.17
3798.645	100.83
3801.299	99.17
3803.952	94.83
3806.602	91.5
3809.251	94.83
3811.897	92.17
3814.542	88.5
3817.184	90.83
3819.825	87.5
3822.463	85.5
3825.1	83.83
3827.735	83.5
3830.367	78.83
3832.998	75.5
3835.627	77.17
3838.253	74.83
3840.878	69.5
3843.501	67.5
3846.122	62.83
3848.741	65.17
3851.358	62.17
3853.973	56.83
3856.586	55.5
3859.197	53.83
3861.806	51.17
3864.414	48.17
3867.019	48.5
3869.622	45.17
3872.224	44.83
3874.823	42.83
3877.421	39.83
3880.016	41.17
3882.61	37.17
3885.202	33.5
3887.792	33.83
3890.38	27.5
3892.966	25.17
3895.55	24.17
3898.132	18.17
3900.713	19.83
3903.291	15.17
3905.868	13.83
3908.442	9.83
3911.015	8.17
3913.586	6.83
3916.155	6.17
3918.722	4.83
3921.287	1.17
3923.85	0.17
3926.411	1.17
3928.971	-2.5
3931.528	-1.17
3934.084	-4.17
3936.638	-4.17
3939.19	-5.83
3941.74	-4.5
3944.288	-5.5
3946.834	-7.5
3949.378	-8.17
3951.921	-9.83
3954.462	-8.17
3957	-8.5
3959.537	-8.5
3962.072	-7.83
3964.606	-11.17
3967.137	-9.83
3969.667	-9.83
3972.194	-11.5
3974.72	-9.5
3977.244	-8.83
3979.766	-9.83
3982.286	-8.83
3984.805	-9.5
3987.321	-8.17
3989.836	-8.83
3992.349	-9.83
3994.86	-11.5
3997.369	-12.83
3999.877	-11.83
4002.382	-10.5
4004.886	-14.83
4007.388	-12.5
4009.888	-14.17
4012.386	-15.17
4014.883	-15.5
4017.377	-18.83
4019.87	-15.5
4022.361	-16.83
4024.85	-16.83
4027.338	-17.83
4029.823	-18.83
4032.307	-16.17
4034.789	-15.83
4037.269	-18.5
4039.747	-19.83
4042.224	-19.17
4044.699	-20.17
4047.172	-23.17
4049.643	-21.17
4052.112	-20.5
4054.58	-20.5
4057.046	-21.5
4059.51	-21.17
4061.972	-24.5
4064.432	-19.83
4066.891	-21.17
4069.348	-22.5
4071.803	-22.83
4074.256	-22.17
4076.708	-25.17
4079.158	-23.83
4081.606	-22.83
4084.052	-23.17
4086.497	-22.17
4088.939	-21.17
4091.38	-21.17
4093.819	-22.83
4096.257	-37.5
4098.693	-36.83
4101.127	-38.17
4103.559	-39.5
4105.989	-19.17
4108.418	-16.83
4110.845	-14.5
4113.27	-9.17
4115.694	-10.83
4118.115	-5.5
4120.535	-25.83
4122.954	-23.17
4125.37	-25.17
4127.785	-21.83
4130.198	-25.83
4132.609	-26.17
4135.019	-36.17
4137.427	-37.17
4139.833	-35.83
4142.237	-37.17
