Data from bs10_RamanShift_1.txt Node
Date: Tue Oct 17 17:42:54 IDT 2017
User: aro
Spectrometer: QEPB0276
Trigger mode: 0
Integration Time (sec): 5.000000E0
Scans to average: 3
Electric dark correction enabled: true
Nonlinearity correction enabled: false
Boxcar width: 0
XAxis mode: Raman Shifts
Number of Pixels in Spectrum: 1044
>>>>>Begin Spectral Data<<<<<
160.701	-0.92
166.742	7.75
172.777	28.42
178.805	91.75
184.826	262.42
190.841	580.42
196.849	985.42
202.85	1307.75
208.845	1480.08
214.833	1553.08
220.815	1635.42
226.789	1723.42
232.758	1848.42
238.719	1976.42
244.674	2024.75
250.623	2005.75
256.565	1931.42
262.5	1811.08
268.429	1691.42
274.351	1602.42
280.267	1537.08
286.176	1485.42
292.079	1444.42
297.975	1432.42
303.865	1424.75
309.748	1418.42
315.625	1381.42
321.495	1350.75
327.359	1334.08
333.217	1314.08
339.068	1293.75
344.912	1274.42
350.751	1267.08
356.583	1255.08
362.408	1233.42
368.227	1219.75
374.04	1217.75
379.847	1212.42
385.647	1197.42
391.44	1203.08
397.228	1178.75
403.009	1185.42
408.784	1167.42
414.553	1178.42
420.315	1194.42
426.071	1190.75
431.821	1150.75
437.565	1120.75
443.302	1094.08
449.033	1081.75
454.758	1056.42
460.477	1038.08
466.189	1018.08
471.896	991.75
477.596	965.42
483.29	949.75
488.978	920.42
494.66	880.42
500.335	852.42
506.005	810.08
511.668	835.75
517.325	934.42
522.977	1109.08
528.622	1236.42
534.261	1278.08
539.894	1257.75
545.521	1216.75
551.141	1200.75
556.756	1184.08
562.365	1161.42
567.968	1140.42
573.565	1119.75
579.155	1104.42
584.74	1079.08
590.319	1077.42
595.892	1063.42
601.459	1047.75
607.02	1030.42
612.575	1012.42
618.124	1003.42
623.667	1007.42
629.204	1017.75
634.735	1031.08
640.261	1032.42
645.781	1042.08
651.294	1050.08
656.802	1043.42
662.304	1037.08
667.8	1022.42
673.29	1020.42
678.775	1025.42
684.254	1016.75
689.726	1016.08
695.193	1009.08
700.655	1002.08
706.11	987.42
711.56	988.42
717.004	989.42
722.442	991.42
727.874	991.75
733.301	997.42
738.722	992.75
744.137	999.08
749.547	987.42
754.951	977.75
760.349	988.08
765.741	993.42
771.128	988.08
776.509	993.42
781.885	1002.75
787.254	1010.75
792.618	1010.08
797.977	999.75
803.33	1001.08
808.677	995.08
814.019	992.75
819.355	990.42
824.686	984.75
830.011	991.75
835.33	992.42
840.644	982.08
845.952	996.42
851.255	1001.75
856.552	1002.08
861.844	1007.08
867.13	1006.75
872.41	1016.08
877.686	1012.42
882.955	1013.75
888.219	1009.08
893.478	1007.75
898.731	1000.42
903.979	994.42
909.221	1004.08
914.458	1001.42
919.69	1007.08
924.916	1024.75
930.136	1037.42
935.351	1067.75
940.561	1084.42
945.766	1111.08
950.965	1109.42
956.158	1100.42
961.347	1107.08
966.529	1081.08
971.707	1067.75
976.879	1056.42
982.046	1041.75
987.208	1037.75
992.364	1033.42
997.515	1035.42
1002.66	1030.08
1007.801	1041.42
1012.936	1038.75
1018.066	1058.08
1023.19	1054.08
1028.309	1064.75
1033.423	1062.75
1038.532	1057.08
1043.636	1052.08
1048.734	1049.08
1053.827	1039.75
1058.915	1030.42
1063.998	1029.08
1069.075	1031.42
1074.147	1033.42
1079.214	1044.75
1084.276	1046.75
1089.333	1057.42
1094.385	1071.75
1099.431	1074.08
1104.472	1075.75
1109.509	1073.75
1114.54	1065.08
1119.565	1049.75
1124.586	1046.42
1129.602	1035.42
1134.613	1032.08
1139.618	1034.08
1144.619	1029.75
1149.614	1020.75
1154.604	1027.08
1159.589	1043.75
1164.57	1049.42
1169.545	1048.75
1174.515	1054.08
1179.48	1048.42
1184.44	1049.08
1189.395	1040.75
1194.345	1037.08
1199.29	1032.08
1204.23	1036.08
1209.165	1050.42
1214.095	1058.75
1219.021	1070.08
1223.941	1080.42
1228.856	1074.08
1233.766	1088.75
1238.672	1100.75
1243.572	1090.75
1248.467	1089.42
1253.358	1083.42
1258.244	1078.08
1263.124	1056.42
1268	1039.08
1272.871	1030.75
1277.737	1019.75
1282.599	1027.75
1287.455	1023.75
1292.306	1037.75
1297.153	1047.08
1301.995	1053.08
1306.832	1062.75
1311.664	1074.42
1316.491	1068.42
1321.314	1075.08
1326.132	1062.42
1330.945	1050.75
1335.753	1033.75
1340.556	1001.42
1345.354	983.42
1350.148	974.42
1354.937	974.75
1359.722	983.75
1364.501	1008.08
1369.276	1034.75
1374.046	1053.42
1378.811	1067.42
1383.572	1075.08
1388.327	1063.42
1393.079	1051.08
1397.825	1032.08
1402.567	1014.42
1407.304	996.75
1412.036	982.42
1416.764	974.08
1421.487	967.42
1426.205	979.42
1430.919	982.08
1435.628	992.42
1440.333	1000.08
1445.032	999.75
1449.727	1013.75
1454.418	1005.75
1459.104	1012.08
1463.785	1001.42
1468.462	989.75
1473.134	990.08
1477.802	977.08
1482.465	975.75
1487.123	978.42
1491.777	992.42
1496.426	1000.42
1501.071	1004.08
1505.711	1023.08
1510.347	1044.08
1514.978	1052.08
1519.604	1064.08
1524.226	1062.42
1528.844	1067.08
1533.457	1058.08
1538.065	1056.75
1542.669	1046.75
1547.269	1041.08
1551.864	1028.75
1556.454	1018.75
1561.041	1015.42
1565.622	1015.42
1570.199	1020.08
1574.772	1014.42
1579.34	1021.42
1583.904	1016.75
1588.464	1023.75
1593.019	1009.42
1597.569	1006.08
1602.115	996.08
1606.657	986.75
1611.195	969.42
1615.728	957.08
1620.256	950.08
1624.78	946.08
1629.3	947.08
1633.816	951.42
1638.327	956.42
1642.834	963.75
1647.336	973.75
1651.834	982.75
1656.328	988.75
1660.817	1002.42
1665.302	1003.75
1669.783	998.75
1674.259	997.75
1678.732	990.75
1683.199	972.08
1687.663	946.08
1692.122	950.08
1696.577	945.08
1701.028	965.42
1705.474	991.08
1709.917	1011.75
1714.355	1016.42
1718.788	1005.08
1723.218	995.75
1727.643	984.08
1732.064	978.08
1736.481	973.42
1740.893	961.42
1745.301	956.75
1749.705	945.08
1754.105	926.42
1758.501	920.42
1762.893	913.08
1767.28	903.42
1771.663	898.75
1776.042	896.75
1780.417	915.42
1784.787	929.42
1789.154	950.08
1793.516	964.42
1797.874	990.42
1802.228	1006.75
1806.578	1018.75
1810.924	1014.08
1815.266	1004.75
1819.603	999.08
1823.937	981.42
1828.266	965.42
1832.591	959.42
1836.913	955.08
1841.23	947.42
1845.543	948.75
1849.852	943.08
1854.156	949.75
1858.457	953.08
1862.754	958.75
1867.047	965.42
1871.335	963.08
1875.62	975.08
1879.9	979.08
1884.177	982.08
1888.449	979.42
1892.718	980.08
1896.982	974.75
1901.243	987.08
1905.499	988.42
1909.752	990.42
1914	995.08
1918.245	1004.42
1922.485	1019.75
1926.722	1029.42
1930.954	1038.75
1935.183	1050.75
1939.408	1055.08
1943.628	1062.42
1947.845	1068.08
1952.058	1072.42
1956.267	1072.75
1960.472	1062.08
1964.673	1050.08
1968.87	1048.75
1973.063	1036.42
1977.252	1040.75
1981.438	1027.42
1985.619	1032.08
1989.797	1023.75
1993.971	1033.42
1998.14	1035.75
2002.306	1031.08
2006.469	1031.08
2010.627	1038.08
2014.781	1043.75
2018.932	1038.75
2023.078	1040.08
2027.221	1036.42
2031.36	1029.75
2035.495	1019.42
2039.627	1011.42
2043.754	1013.08
2047.878	1010.75
2051.998	1024.08
2056.114	1024.42
2060.226	1030.75
2064.334	1038.08
2068.439	1039.42
2072.54	1056.08
2076.637	1071.08
2080.73	1075.08
2084.82	1092.08
2088.906	1092.08
2092.988	1098.42
2097.066	1097.08
2101.14	1093.42
2105.211	1090.75
2109.278	1107.75
2113.342	1105.08
2117.401	1109.42
2121.457	1116.08
2125.509	1117.42
2129.558	1115.08
2133.602	1125.42
2137.643	1126.42
2141.681	1130.42
2145.714	1124.75
2149.744	1130.42
2153.77	1135.42
2157.793	1135.08
2161.812	1130.08
2165.827	1128.08
2169.838	1124.42
2173.846	1112.42
2177.851	1107.75
2181.851	1103.08
2185.848	1103.75
2189.841	1102.08
2193.831	1096.75
2197.817	1109.75
2201.799	1116.08
2205.778	1126.42
2209.753	1132.42
2213.725	1131.75
2217.693	1145.08
2221.657	1152.42
2225.618	1154.08
2229.575	1166.08
2233.529	1167.75
2237.479	1182.08
2241.425	1179.75
2245.368	1179.75
2249.307	1173.42
2253.243	1167.08
2257.175	1179.08
2261.104	1168.75
2265.029	1184.42
2268.95	1175.08
2272.868	1177.42
2276.783	1181.75
2280.694	1182.42
2284.601	1192.08
2288.505	1188.08
2292.405	1193.42
2296.302	1189.08
2300.195	1184.75
2304.085	1187.75
2307.971	1185.42
2311.854	1175.42
2315.734	1169.08
2319.609	1159.75
2323.482	1159.08
2327.351	1148.08
2331.216	1164.42
2335.078	1157.08
2338.937	1162.42
2342.792	1167.75
2346.643	1168.42
2350.492	1176.08
2354.336	1184.08
2358.178	1195.08
2362.015	1207.75
2365.85	1214.75
2369.681	1225.75
2373.508	1227.42
2377.333	1231.42
2381.153	1241.42
2384.971	1247.75
2388.785	1255.08
2392.595	1253.75
2396.402	1247.75
2400.206	1260.42
2404.007	1263.08
2407.804	1264.75
2411.597	1262.75
2415.388	1269.08
2419.174	1283.42
2422.958	1287.42
2426.738	1286.42
2430.515	1300.75
2434.289	1298.75
2438.059	1307.75
2441.825	1306.42
2445.589	1316.08
2449.349	1313.08
2453.106	1316.08
2456.859	1315.42
2460.61	1321.08
2464.356	1320.08
2468.1	1321.75
2471.84	1335.75
2475.577	1326.42
2479.311	1348.75
2483.041	1348.08
2486.768	1360.42
2490.492	1380.75
2494.213	1383.75
2497.93	1393.08
2501.644	1398.75
2505.355	1414.75
2509.062	1417.75
2512.766	1445.08
2516.467	1438.42
2520.165	1442.42
2523.859	1449.42
2527.551	1461.08
2531.239	1468.75
2534.923	1473.42
2538.605	1475.08
2542.283	1477.42
2545.958	1491.08
2549.63	1499.75
2553.299	1502.75
2556.964	1512.42
2560.626	1515.42
2564.285	1516.42
2567.941	1528.42
2571.594	1534.42
2575.243	1537.75
2578.89	1531.42
2582.533	1541.75
2586.173	1545.08
2589.809	1551.08
2593.443	1546.08
2597.073	1550.08
2600.701	1560.08
2604.325	1558.08
2607.946	1576.42
2611.564	1577.75
2615.178	1589.75
2618.79	1596.75
2622.398	1591.08
2626.004	1592.75
2629.606	1588.42
2633.205	1591.42
2636.801	1590.08
2640.394	1588.42
2643.983	1582.75
2647.57	1573.42
2651.153	1578.08
2654.734	1561.08
2658.311	1561.42
2661.885	1554.08
2665.456	1557.42
2669.025	1554.08
2672.589	1544.75
2676.151	1559.42
2679.71	1548.42
2683.266	1558.08
2686.819	1536.08
2690.368	1528.42
2693.915	1533.08
2697.458	1516.75
2700.999	1517.42
2704.536	1506.75
2708.071	1512.75
2711.602	1498.08
2715.13	1490.08
2718.656	1482.75
2722.178	1488.75
2725.697	1483.42
2729.214	1508.08
2732.727	1510.08
2736.237	1527.75
2739.744	1544.42
2743.249	1578.08
2746.75	1592.42
2750.248	1611.75
2753.743	1634.08
2757.236	1638.42
2760.725	1650.08
2764.211	1654.75
2767.695	1662.08
2771.175	1655.42
2774.652	1660.08
2778.127	1661.75
2781.598	1653.75
2785.067	1650.75
2788.532	1646.08
2791.995	1654.75
2795.455	1651.08
2798.911	1655.08
2802.365	1656.08
2805.816	1655.08
2809.264	1652.08
2812.709	1649.42
2816.151	1640.42
2819.59	1646.08
2823.026	1648.75
2826.46	1644.08
2829.89	1645.75
2833.318	1640.08
2836.742	1642.08
2840.164	1642.42
2843.583	1636.42
2846.999	1653.08
2850.412	1649.42
2853.822	1653.42
2857.229	1663.42
2860.634	1667.75
2864.035	1668.08
2867.434	1682.08
2870.83	1680.42
2874.223	1691.42
2877.613	1689.42
2881	1672.42
2884.385	1659.08
2887.766	1658.42
2891.145	1641.75
2894.521	1628.42
2897.894	1623.42
2901.264	1615.08
2904.631	1609.42
2907.996	1602.42
2911.358	1606.75
2914.717	1598.08
2918.073	1581.42
2921.426	1595.75
2924.777	1588.75
2928.124	1579.08
2931.469	1575.75
2934.811	1581.75
2938.15	1570.08
2941.487	1574.42
2944.821	1557.75
2948.152	1564.42
2951.48	1552.42
2954.805	1537.75
2958.128	1539.42
2961.447	1534.08
2964.765	1529.42
2968.079	1528.42
2971.39	1530.42
2974.699	1524.75
2978.005	1537.42
2981.308	1539.75
2984.609	1550.42
2987.907	1551.75
2991.202	1566.42
2994.494	1575.08
2997.784	1566.75
3001.07	1584.08
3004.355	1576.08
3007.636	1583.42
3010.915	1575.08
3014.191	1569.75
3017.464	1560.42
3020.734	1544.75
3024.002	1527.08
3027.267	1509.08
3030.53	1492.42
3033.789	1477.08
3037.046	1473.75
3040.301	1452.42
3043.552	1438.75
3046.801	1442.42
3050.048	1425.42
3053.291	1426.42
3056.532	1424.08
3059.771	1432.08
3063.006	1435.08
3066.239	1427.75
3069.469	1425.42
3072.697	1428.75
3075.922	1419.75
3079.144	1420.42
3082.364	1409.75
3085.581	1409.08
3088.795	1404.75
3092.007	1408.75
3095.216	1386.42
3098.423	1386.42
3101.627	1381.08
3104.828	1372.08
3108.026	1364.75
3111.222	1355.42
3114.416	1352.75
3117.607	1349.75
3120.795	1351.42
3123.98	1346.08
3127.163	1351.42
3130.344	1339.42
3133.521	1344.08
3136.696	1341.75
3139.869	1342.75
3143.039	1331.08
3146.206	1321.42
3149.371	1309.08
3152.533	1296.42
3155.693	1292.08
3158.85	1279.42
3162.005	1261.75
3165.157	1258.42
3168.306	1244.42
3171.453	1226.75
3174.597	1220.75
3177.739	1198.42
3180.878	1189.75
3184.014	1184.08
3187.149	1173.75
3190.28	1171.42
3193.409	1166.42
3196.536	1150.75
3199.659	1153.42
3202.781	1140.42
3205.9	1139.42
3209.016	1133.75
3212.13	1118.42
3215.241	1123.08
3218.35	1107.42
3221.456	1095.75
3224.56	1089.75
3227.661	1072.42
3230.76	1060.08
3233.856	1059.08
3236.95	1042.08
3240.041	1040.08
3243.13	1023.75
3246.216	1017.42
3249.3	1021.08
3252.382	1013.08
3255.46	1014.08
3258.537	1009.42
3261.611	1007.75
3264.682	998.75
3267.751	998.75
3270.818	999.42
3273.882	1000.42
3276.943	1002.75
3280.002	996.42
3283.059	985.42
3286.113	981.75
3289.165	971.42
3292.214	963.08
3295.261	952.42
3298.306	937.42
3301.348	929.42
3304.387	914.75
3307.425	906.08
3310.459	899.42
3313.492	886.75
3316.521	877.42
3319.549	871.75
3322.574	856.75
3325.597	858.08
3328.617	847.75
3331.635	839.42
3334.65	841.75
3337.663	840.75
3340.674	832.75
3343.682	822.42
3346.688	831.08
3349.691	829.42
3352.692	821.75
3355.691	815.42
3358.687	812.75
3361.681	801.75
3364.673	785.42
3367.662	785.08
3370.649	776.08
3373.633	768.42
3376.615	761.08
3379.595	751.42
3382.572	741.42
3385.547	734.42
3388.52	726.75
3391.49	715.75
3394.458	719.75
3397.424	701.42
3400.387	696.08
3403.348	697.08
3406.307	694.75
3409.263	690.75
3412.217	684.42
3415.168	676.42
3418.118	682.42
3421.065	671.08
3424.009	669.75
3426.951	665.08
3429.891	662.75
3432.829	649.75
3435.764	648.75
3438.697	645.75
3441.628	631.75
3444.557	628.75
3447.483	614.08
3450.407	610.42
3453.328	596.42
3456.247	586.08
3459.164	573.75
3462.079	573.42
3464.991	563.75
3467.902	557.42
3470.809	546.42
3473.715	545.08
3476.618	537.42
3479.519	534.42
3482.418	521.42
3485.315	517.08
3488.209	509.08
3491.101	506.42
3493.99	509.75
3496.878	502.75
3499.763	497.42
3502.646	491.42
3505.527	488.75
3508.405	479.75
3511.281	473.75
3514.155	462.75
3517.027	461.75
3519.897	449.08
3522.764	444.08
3525.629	430.75
3528.492	422.75
3531.352	408.75
3534.211	408.08
3537.067	395.08
3539.921	386.08
3542.773	383.08
3545.622	370.42
3548.469	369.42
3551.315	359.42
3554.157	353.75
3556.998	354.08
3559.837	347.42
3562.673	341.75
3565.507	338.08
3568.339	329.75
3571.169	331.75
3573.996	321.42
3576.822	317.75
3579.645	311.42
3582.466	306.08
3585.285	293.42
3588.101	289.42
3590.916	292.42
3593.728	281.08
3596.538	275.42
3599.346	272.08
3602.152	266.75
3604.956	263.08
3607.757	258.08
3610.556	254.75
3613.354	245.75
3616.149	239.75
3618.942	241.08
3621.732	239.08
3624.521	238.75
3627.307	235.42
3630.092	229.75
3632.874	224.42
3635.654	225.75
3638.432	224.08
3641.208	217.42
3643.982	216.08
3646.753	218.75
3649.523	213.75
3652.29	207.42
3655.055	202.75
3657.818	204.42
3660.579	194.42
3663.338	197.42
3666.095	189.08
3668.849	186.75
3671.602	183.08
3674.352	184.42
3677.101	181.42
3679.847	179.08
3682.591	175.42
3685.333	176.42
3688.073	171.42
3690.811	176.42
3693.547	171.75
3696.281	173.42
3699.013	171.08
3701.742	171.75
3704.47	169.42
3707.195	171.42
3709.919	170.42
3712.64	169.08
3715.359	169.08
3718.076	164.75
3720.792	162.42
3723.505	160.75
3726.216	161.42
3728.925	158.08
3731.632	157.42
3734.336	147.08
3737.039	147.42
3739.74	144.75
3742.439	143.42
3745.136	140.08
3747.83	147.42
3750.523	140.08
3753.213	138.08
3755.902	140.08
3758.589	137.42
3761.273	138.08
3763.956	136.08
3766.636	136.42
3769.315	133.75
3771.991	134.75
3774.665	131.08
3777.338	124.75
3780.008	125.75
3782.677	120.42
3785.343	118.08
3788.007	118.42
3790.67	111.42
3793.33	109.08
3795.989	109.42
3798.645	108.42
3801.299	104.42
3803.952	104.08
3806.602	103.42
3809.251	99.75
3811.897	101.42
3814.542	97.08
3817.184	97.42
3819.825	93.75
3822.463	89.08
3825.1	90.75
3827.735	89.75
3830.367	83.75
3832.998	80.08
3835.627	81.08
3838.253	77.75
3840.878	74.42
3843.501	71.75
3846.122	66.42
3848.741	70.42
3851.358	64.75
3853.973	61.42
3856.586	60.42
3859.197	59.75
3861.806	58.08
3864.414	51.75
3867.019	52.08
3869.622	49.42
3872.224	49.08
3874.823	49.42
3877.421	46.42
3880.016	44.42
3882.61	42.08
3885.202	40.75
3887.792	40.75
3890.38	34.75
3892.966	31.08
3895.55	28.42
3898.132	25.08
3900.713	23.75
3903.291	19.42
3905.868	16.42
3908.442	17.08
3911.015	15.75
3913.586	13.75
3916.155	12.42
3918.722	9.75
3921.287	10.75
3923.85	9.08
3926.411	7.42
3928.971	4.75
3931.528	5.42
3934.084	5.08
3936.638	1.42
3939.19	4.42
3941.74	2.42
3944.288	-0.58
3946.834	1.42
3949.378	-1.92
3951.921	-3.92
3954.462	-1.25
3957	-5.58
3959.537	-4.92
3962.072	-5.25
3964.606	-4.92
3967.137	-4.58
3969.667	-4.58
3972.194	-7.58
3974.72	-4.92
3977.244	-6.25
3979.766	-5.92
3982.286	-5.92
3984.805	-7.25
3987.321	-6.25
3989.836	-5.92
3992.349	-6.58
3994.86	-5.58
3997.369	-10.92
3999.877	-9.25
4002.382	-6.92
4004.886	-10.92
4007.388	-8.92
4009.888	-9.92
4012.386	-10.92
4014.883	-10.58
4017.377	-13.92
4019.87	-11.92
4022.361	-12.58
4024.85	-10.92
4027.338	-10.58
4029.823	-12.25
4032.307	-13.58
4034.789	-10.25
4037.269	-12.92
4039.747	-14.58
4042.224	-13.25
4044.699	-13.58
4047.172	-14.25
4049.643	-15.25
4052.112	-15.58
4054.58	-15.58
4057.046	-19.25
4059.51	-14.58
4061.972	-20.92
4064.432	-15.92
4066.891	-19.58
4069.348	-18.25
4071.803	-17.58
4074.256	-17.58
4076.708	-19.58
4079.158	-20.25
4081.606	-20.25
4084.052	-19.58
4086.497	-18.92
4088.939	-21.25
4091.38	-20.58
4093.819	-19.58
4096.257	-29.25
4098.693	-30.92
4101.127	-30.58
4103.559	-31.58
4105.989	-15.58
4108.418	-12.58
4110.845	-12.92
4113.27	-7.92
4115.694	-7.58
4118.115	-4.58
4120.535	-21.92
4122.954	-21.58
4125.37	-20.92
4127.785	-19.58
4130.198	-24.58
4132.609	-22.25
4135.019	-33.58
4137.427	-31.58
4139.833	-30.58
4142.237	-31.25
