Data from bs10_RamanShift_6.txt Node
Date: Tue Oct 17 17:47:54 IDT 2017
User: aro
Spectrometer: QEPB0276
Trigger mode: 0
Integration Time (sec): 5.000000E0
Scans to average: 3
Electric dark correction enabled: true
Nonlinearity correction enabled: false
Boxcar width: 0
XAxis mode: Raman Shifts
Number of Pixels in Spectrum: 1044
>>>>>Begin Spectral Data<<<<<
160.701	-3.87
166.742	8.46
172.777	41.46
178.805	141.46
184.826	405.13
190.841	891.46
196.849	1508.46
202.85	2002.79
208.845	2255.46
214.833	2349.13
220.815	2411.46
226.789	2529.46
232.758	2645.79
238.719	2731.46
244.674	2753.46
250.623	2722.46
256.565	2639.79
262.5	2527.79
268.429	2431.79
274.351	2350.46
280.267	2302.13
286.176	2281.46
292.079	2264.13
297.975	2263.46
303.865	2248.13
309.748	2253.46
315.625	2238.79
321.495	2215.46
327.359	2216.79
333.217	2206.79
339.068	2180.46
344.912	2169.13
350.751	2167.79
356.583	2153.13
362.408	2128.46
368.227	2129.13
374.04	2123.46
379.847	2135.13
385.647	2126.79
391.44	2124.79
397.228	2119.46
403.009	2127.79
408.784	2130.79
414.553	2144.79
420.315	2166.46
426.071	2182.79
431.821	2155.46
437.565	2132.46
443.302	2113.79
449.033	2106.13
454.758	2104.79
460.477	2110.46
466.189	2095.46
471.896	2105.13
477.596	2099.13
483.29	2087.46
488.978	2079.13
494.66	2079.79
500.335	2075.46
506.005	2093.13
511.668	2139.13
517.325	2256.13
522.977	2377.46
528.622	2432.13
534.261	2392.46
539.894	2334.13
545.521	2285.79
551.141	2246.79
556.756	2234.46
562.365	2217.79
567.968	2200.79
573.565	2183.13
579.155	2169.79
584.74	2159.13
590.319	2172.79
595.892	2147.13
601.459	2132.13
607.02	2125.46
612.575	2108.13
618.124	2103.79
623.667	2125.79
629.204	2140.79
634.735	2149.46
640.261	2172.79
645.781	2182.13
651.294	2191.46
656.802	2190.46
662.304	2187.13
667.8	2187.79
673.29	2185.79
678.775	2194.79
684.254	2191.79
689.726	2187.13
695.193	2178.13
700.655	2174.79
706.11	2176.46
711.56	2173.13
717.004	2174.46
722.442	2182.13
727.874	2197.13
733.301	2218.46
738.722	2237.79
744.137	2219.13
749.547	2213.79
754.951	2213.79
760.349	2212.13
765.741	2204.79
771.128	2225.46
776.509	2237.79
781.885	2252.79
787.254	2256.46
792.618	2267.46
797.977	2264.79
803.33	2273.13
808.677	2254.79
814.019	2249.13
819.355	2234.46
824.686	2229.46
830.011	2238.46
835.33	2247.46
840.644	2266.79
845.952	2273.46
851.255	2295.46
856.552	2315.46
861.844	2320.46
867.13	2345.46
872.41	2348.46
877.686	2340.79
882.955	2340.79
888.219	2341.46
893.478	2326.79
898.731	2326.13
903.979	2322.46
909.221	2328.46
914.458	2332.13
919.69	2336.79
924.916	2373.79
930.136	2394.13
935.351	2428.79
940.561	2461.13
945.766	2486.13
950.965	2493.46
956.158	2491.46
961.347	2488.46
966.529	2468.13
971.707	2431.13
976.879	2407.13
982.046	2393.13
987.208	2373.79
992.364	2372.79
997.515	2403.46
1002.66	2418.79
1007.801	2436.13
1012.936	2463.79
1018.066	2494.46
1023.19	2506.79
1028.309	2508.46
1033.423	2520.46
1038.532	2508.13
1043.636	2504.46
1048.734	2479.13
1053.827	2466.13
1058.915	2439.13
1063.998	2440.13
1069.075	2430.79
1074.147	2455.13
1079.214	2479.46
1084.276	2491.13
1089.333	2515.46
1094.385	2532.13
1099.431	2552.46
1104.472	2578.79
1109.509	2568.46
1114.54	2544.13
1119.565	2524.79
1124.586	2491.79
1129.602	2481.13
1134.613	2468.13
1139.618	2475.46
1144.619	2469.13
1149.614	2491.79
1154.604	2498.13
1159.589	2522.79
1164.57	2531.46
1169.545	2551.79
1174.515	2556.13
1179.48	2550.46
1184.44	2543.13
1189.395	2537.13
1194.345	2525.79
1199.29	2548.46
1204.23	2545.79
1209.165	2565.13
1214.095	2583.79
1219.021	2606.13
1223.941	2646.79
1228.856	2665.46
1233.766	2683.13
1238.672	2687.46
1243.572	2698.13
1248.467	2698.79
1253.358	2662.79
1258.244	2631.79
1263.124	2607.79
1268	2587.79
1272.871	2569.13
1277.737	2550.46
1282.599	2564.46
1287.455	2564.13
1292.306	2584.79
1297.153	2609.79
1301.995	2637.79
1306.832	2659.13
1311.664	2694.13
1316.491	2702.79
1321.314	2704.79
1326.132	2697.13
1330.945	2651.79
1335.753	2603.79
1340.556	2561.46
1345.354	2509.79
1350.148	2477.46
1354.937	2491.46
1359.722	2510.13
1364.501	2557.79
1369.276	2600.46
1374.046	2664.46
1378.811	2725.13
1383.572	2738.79
1388.327	2726.46
1393.079	2690.46
1397.825	2644.79
1402.567	2610.46
1407.304	2566.46
1412.036	2537.46
1416.764	2527.79
1421.487	2527.79
1426.205	2531.46
1430.919	2552.13
1435.628	2566.46
1440.333	2597.46
1445.032	2615.13
1449.727	2622.79
1454.418	2644.79
1459.104	2647.46
1463.785	2617.46
1468.462	2615.79
1473.134	2595.46
1477.802	2592.46
1482.465	2579.79
1487.123	2588.79
1491.777	2609.79
1496.426	2630.79
1501.071	2672.13
1505.711	2706.79
1510.347	2747.13
1514.978	2782.13
1519.604	2814.13
1524.226	2818.79
1528.844	2827.13
1533.457	2813.79
1538.065	2834.46
1542.669	2808.79
1547.269	2780.13
1551.864	2763.13
1556.454	2762.46
1561.041	2751.13
1565.622	2750.79
1570.199	2751.13
1574.772	2771.13
1579.34	2776.13
1583.904	2782.46
1588.464	2785.13
1593.019	2765.13
1597.569	2738.13
1602.115	2720.79
1606.657	2685.79
1611.195	2662.46
1615.728	2634.79
1620.256	2610.46
1624.78	2601.46
1629.3	2611.46
1633.816	2632.46
1638.327	2633.13
1642.834	2651.46
1647.336	2700.13
1651.834	2713.79
1656.328	2748.46
1660.817	2748.46
1665.302	2769.13
1669.783	2761.79
1674.259	2749.13
1678.732	2730.46
1683.199	2695.46
1687.663	2655.13
1692.122	2623.46
1696.577	2605.46
1701.028	2652.46
1705.474	2706.13
1709.917	2752.46
1714.355	2783.79
1718.788	2755.13
1723.218	2747.13
1727.643	2708.79
1732.064	2710.46
1736.481	2675.46
1740.893	2659.79
1745.301	2628.79
1749.705	2594.79
1754.105	2569.13
1758.501	2538.46
1762.893	2521.46
1767.28	2493.79
1771.663	2503.46
1776.042	2498.46
1780.417	2516.13
1784.787	2566.13
1789.154	2618.46
1793.516	2675.13
1797.874	2720.79
1802.228	2765.13
1806.578	2778.13
1810.924	2790.46
1815.266	2770.13
1819.603	2745.46
1823.937	2710.46
1828.266	2685.13
1832.591	2644.46
1836.913	2628.46
1841.23	2609.13
1845.543	2625.13
1849.852	2610.13
1854.156	2616.46
1858.457	2631.46
1862.754	2652.79
1867.047	2655.13
1871.335	2670.79
1875.62	2685.46
1879.9	2699.13
1884.177	2701.13
1888.449	2693.46
1892.718	2685.46
1896.982	2688.79
1901.243	2683.79
1905.499	2696.79
1909.752	2697.13
1914	2717.46
1918.245	2738.46
1922.485	2764.13
1926.722	2802.13
1930.954	2812.13
1935.183	2841.79
1939.408	2869.13
1943.628	2883.79
1947.845	2887.79
1952.058	2890.46
1956.267	2881.79
1960.472	2873.79
1964.673	2843.13
1968.87	2827.13
1973.063	2786.13
1977.252	2785.79
1981.438	2776.79
1985.619	2751.13
1989.797	2739.46
1993.971	2741.13
1998.14	2744.46
2002.306	2748.46
2006.469	2751.13
2010.627	2745.13
2014.781	2766.13
2018.932	2739.79
2023.078	2741.46
2027.221	2736.46
2031.36	2694.46
2035.495	2688.79
2039.627	2674.79
2043.754	2671.79
2047.878	2650.46
2051.998	2647.13
2056.114	2664.46
2060.226	2669.46
2064.334	2690.46
2068.439	2707.46
2072.54	2713.46
2076.637	2743.46
2080.73	2770.46
2084.82	2770.46
2088.906	2782.79
2092.988	2801.79
2097.066	2791.46
2101.14	2785.13
2105.211	2775.13
2109.278	2777.46
2113.342	2771.46
2117.401	2767.79
2121.457	2767.13
2125.509	2782.79
2129.558	2787.13
2133.602	2778.79
2137.643	2784.46
2141.681	2787.46
2145.714	2795.46
2149.744	2782.79
2153.77	2780.79
2157.793	2772.13
2161.812	2758.79
2165.827	2741.13
2169.838	2723.46
2173.846	2691.79
2177.851	2678.13
2181.851	2657.79
2185.848	2647.13
2189.841	2646.79
2193.831	2632.13
2197.817	2654.13
2201.799	2637.79
2205.778	2637.79
2209.753	2655.46
2213.725	2664.13
2217.693	2690.46
2221.657	2708.13
2225.618	2718.13
2229.575	2739.46
2233.529	2734.46
2237.479	2732.46
2241.425	2713.46
2245.368	2713.13
2249.307	2687.13
2253.243	2695.79
2257.175	2675.13
2261.104	2664.46
2265.029	2660.79
2268.95	2650.79
2272.868	2648.46
2276.783	2645.13
2280.694	2640.79
2284.601	2641.13
2288.505	2637.46
2292.405	2621.13
2296.302	2628.13
2300.195	2600.13
2304.085	2589.13
2307.971	2569.13
2311.854	2558.13
2315.734	2542.46
2319.609	2504.13
2323.482	2496.46
2327.351	2475.13
2331.216	2464.79
2335.078	2455.46
2338.937	2463.13
2342.792	2463.13
2346.643	2460.46
2350.492	2474.13
2354.336	2489.13
2358.178	2496.13
2362.015	2522.13
2365.85	2515.13
2369.681	2541.46
2373.508	2538.13
2377.333	2554.13
2381.153	2545.13
2384.971	2550.46
2388.785	2553.79
2392.595	2539.46
2396.402	2545.13
2400.206	2534.13
2404.007	2533.79
2407.804	2545.46
2411.597	2546.79
2415.388	2553.46
2419.174	2540.46
2422.958	2540.46
2426.738	2560.46
2430.515	2550.13
2434.289	2546.13
2438.059	2553.46
2441.825	2556.13
2445.589	2547.13
2449.349	2541.46
2453.106	2535.13
2456.859	2541.79
2460.61	2533.79
2464.356	2515.13
2468.1	2506.79
2471.84	2520.46
2475.577	2509.79
2479.311	2532.13
2483.041	2537.13
2486.768	2541.13
2490.492	2547.13
2494.213	2562.79
2497.93	2589.46
2501.644	2591.79
2505.355	2609.46
2509.062	2608.13
2512.766	2628.13
2516.467	2632.46
2520.165	2626.46
2523.859	2634.79
2527.551	2625.79
2531.239	2626.13
2534.923	2614.46
2538.605	2630.46
2542.283	2623.79
2545.958	2634.13
2549.63	2632.46
2553.299	2645.79
2556.964	2651.79
2560.626	2652.46
2564.285	2638.79
2567.941	2644.79
2571.594	2655.13
2575.243	2650.79
2578.89	2635.46
2582.533	2638.79
2586.173	2636.13
2589.809	2637.46
2593.443	2642.13
2597.073	2621.13
2600.701	2616.46
2604.325	2613.46
2607.946	2617.13
2611.564	2632.13
2615.178	2636.79
2618.79	2629.46
2622.398	2621.13
2626.004	2638.46
2629.606	2618.13
2633.205	2614.79
2636.801	2588.79
2640.394	2577.79
2643.983	2564.79
2647.57	2560.46
2651.153	2530.46
2654.734	2514.46
2658.311	2512.79
2661.885	2489.46
2665.456	2481.46
2669.025	2471.79
2672.589	2471.79
2676.151	2458.46
2679.71	2451.46
2683.266	2428.46
2686.819	2414.13
2690.368	2390.79
2693.915	2378.79
2697.458	2357.79
2700.999	2347.13
2704.536	2326.13
2708.071	2313.46
2711.602	2304.46
2715.13	2287.79
2718.656	2269.46
2722.178	2259.79
2725.697	2269.79
2729.214	2278.13
2732.727	2282.13
2736.237	2305.46
2739.744	2318.46
2743.249	2358.79
2746.75	2372.13
2750.248	2390.13
2753.743	2410.79
2757.236	2411.79
2760.725	2427.13
2764.211	2423.79
2767.695	2422.46
2771.175	2432.79
2774.652	2409.79
2778.127	2394.79
2781.598	2394.46
2785.067	2375.79
2788.532	2378.13
2791.995	2365.13
2795.455	2372.79
2798.911	2356.79
2802.365	2351.13
2805.816	2343.46
2809.264	2329.13
2812.709	2340.46
2816.151	2315.46
2819.59	2308.79
2823.026	2312.46
2826.46	2308.79
2829.89	2279.13
2833.318	2268.79
2836.742	2268.13
2840.164	2260.46
2843.583	2268.13
2846.999	2252.46
2850.412	2263.46
2853.822	2248.13
2857.229	2258.79
2860.634	2266.79
2864.035	2266.46
2867.434	2281.46
2870.83	2270.79
2874.223	2260.46
2877.613	2256.79
2881	2242.13
2884.385	2233.79
2887.766	2207.79
2891.145	2185.79
2894.521	2175.13
2897.894	2154.79
2901.264	2145.13
2904.631	2129.79
2907.996	2107.13
2911.358	2103.79
2914.717	2089.46
2918.073	2077.13
2921.426	2069.79
2924.777	2052.13
2928.124	2057.13
2931.469	2042.46
2934.811	2039.79
2938.15	2025.79
2941.487	2019.46
2944.821	2008.79
2948.152	2000.46
2951.48	1969.79
2954.805	1961.46
2958.128	1960.79
2961.447	1937.46
2964.765	1921.46
2968.079	1911.46
2971.39	1914.79
2974.699	1914.13
2978.005	1919.79
2981.308	1919.46
2984.609	1924.46
2987.907	1914.79
2991.202	1928.13
2994.494	1939.13
2997.784	1943.13
3001.07	1937.79
3004.355	1934.13
3007.636	1940.79
3010.915	1926.13
3014.191	1912.46
3017.464	1902.79
3020.734	1865.79
3024.002	1854.13
3027.267	1827.46
3030.53	1804.79
3033.789	1776.13
3037.046	1763.79
3040.301	1747.79
3043.552	1728.79
3046.801	1728.46
3050.048	1714.13
3053.291	1704.13
3056.532	1705.13
3059.771	1709.79
3063.006	1687.46
3066.239	1700.46
3069.469	1700.79
3072.697	1688.46
3075.922	1690.46
3079.144	1683.13
3082.364	1671.46
3085.581	1658.13
3088.795	1652.13
3092.007	1640.79
3095.216	1627.79
3098.423	1612.46
3101.627	1598.79
3104.828	1591.46
3108.026	1582.46
3111.222	1565.13
3114.416	1569.79
3117.607	1559.46
3120.795	1550.46
3123.98	1542.13
3127.163	1536.46
3130.344	1540.79
3133.521	1532.79
3136.696	1528.13
3139.869	1533.79
3143.039	1519.79
3146.206	1512.13
3149.371	1489.13
3152.533	1478.46
3155.693	1461.13
3158.85	1449.13
3162.005	1432.46
3165.157	1410.46
3168.306	1403.79
3171.453	1377.46
3174.597	1363.46
3177.739	1348.13
3180.878	1339.79
3184.014	1322.13
3187.149	1300.46
3190.28	1293.79
3193.409	1291.13
3196.536	1273.13
3199.659	1264.46
3202.781	1260.79
3205.9	1248.46
3209.016	1252.46
3212.13	1238.46
3215.241	1228.79
3218.35	1205.79
3221.456	1201.13
3224.56	1181.13
3227.661	1173.13
3230.76	1160.13
3233.856	1146.13
3236.95	1135.79
3240.041	1121.46
3243.13	1119.46
3246.216	1100.13
3249.3	1099.46
3252.382	1098.13
3255.46	1094.79
3258.537	1083.79
3261.611	1084.13
3264.682	1079.46
3267.751	1078.13
3270.818	1073.46
3273.882	1071.13
3276.943	1068.13
3280.002	1054.46
3283.059	1051.46
3286.113	1034.13
3289.165	1032.13
3292.214	1022.46
3295.261	1008.13
3298.306	1000.79
3301.348	975.46
3304.387	965.79
3307.425	955.79
3310.459	938.46
3313.492	940.13
3316.521	925.79
3319.549	913.46
3322.574	904.46
3325.597	901.79
3328.617	887.46
3331.635	884.79
3334.65	872.46
3337.663	872.46
3340.674	864.79
3343.682	861.46
3346.688	868.13
3349.691	859.79
3352.692	857.46
3355.691	847.46
3358.687	838.13
3361.681	831.13
3364.673	825.46
3367.662	817.46
3370.649	797.13
3373.633	798.46
3376.615	782.79
3379.595	774.79
3382.572	763.13
3385.547	753.46
3388.52	747.13
3391.49	730.13
3394.458	733.79
3397.424	720.79
3400.387	715.13
3403.348	707.13
3406.307	703.46
3409.263	704.46
3412.217	696.79
3415.168	688.46
3418.118	685.46
3421.065	679.79
3424.009	678.79
3426.951	672.46
3429.891	666.46
3432.829	656.46
3435.764	649.13
3438.697	645.79
3441.628	634.13
3444.557	620.13
3447.483	619.79
3450.407	611.13
3453.328	594.13
3456.247	591.46
3459.164	577.46
3462.079	571.13
3464.991	558.13
3467.902	544.13
3470.809	540.13
3473.715	533.13
3476.618	525.46
3479.519	519.46
3482.418	518.46
3485.315	510.79
3488.209	507.79
3491.101	502.46
3493.99	503.79
3496.878	492.46
3499.763	485.46
3502.646	487.13
3505.527	477.13
3508.405	470.13
3511.281	460.13
3514.155	455.13
3517.027	449.46
3519.897	439.46
3522.764	435.79
3525.629	423.79
3528.492	412.79
3531.352	407.46
3534.211	397.46
3537.067	385.13
3539.921	372.46
3542.773	370.46
3545.622	359.46
3548.469	351.13
3551.315	353.46
3554.157	341.46
3556.998	335.13
3559.837	332.46
3562.673	326.46
3565.507	321.46
3568.339	317.46
3571.169	312.79
3573.996	304.46
3576.822	304.13
3579.645	300.79
3582.466	291.13
3585.285	282.13
3588.101	281.13
3590.916	272.79
3593.728	265.79
3596.538	261.13
3599.346	258.79
3602.152	245.46
3604.956	242.79
3607.757	238.13
3610.556	234.79
3613.354	227.13
3616.149	225.46
3618.942	223.46
3621.732	217.79
3624.521	217.46
3627.307	213.13
3630.092	210.79
3632.874	208.46
3635.654	205.46
3638.432	203.79
3641.208	195.79
3643.982	200.79
3646.753	195.46
3649.523	193.79
3652.29	187.46
3655.055	181.46
3657.818	181.79
3660.579	176.79
3663.338	180.46
3666.095	170.79
3668.849	171.13
3671.602	162.46
3674.352	160.46
3677.101	162.46
3679.847	155.46
3682.591	157.46
3685.333	158.46
3688.073	153.13
3690.811	154.46
3693.547	151.46
3696.281	153.79
3699.013	155.13
3701.742	152.46
3704.47	149.46
3707.195	151.13
3709.919	151.13
3712.64	147.79
3715.359	149.79
3718.076	142.79
3720.792	140.79
3723.505	139.79
3726.216	139.79
3728.925	135.46
3731.632	135.46
3734.336	133.79
3737.039	128.46
3739.74	125.13
3742.439	126.13
3745.136	125.13
3747.83	127.79
3750.523	124.13
3753.213	121.79
3755.902	119.79
3758.589	120.46
3761.273	120.46
3763.956	117.46
3766.636	116.79
3769.315	116.46
3771.991	111.79
3774.665	110.79
3777.338	105.13
3780.008	102.13
3782.677	99.79
3785.343	97.13
3788.007	97.79
3790.67	91.79
3793.33	89.79
3795.989	86.46
3798.645	87.13
3801.299	86.46
3803.952	82.46
3806.602	82.79
3809.251	81.13
3811.897	81.46
3814.542	79.13
3817.184	78.13
3819.825	76.46
3822.463	73.13
3825.1	71.46
3827.735	69.13
3830.367	66.79
3832.998	64.13
3835.627	62.46
3838.253	62.46
3840.878	54.13
3843.501	54.46
3846.122	51.13
3848.741	49.79
3851.358	48.13
3853.973	45.46
3856.586	43.13
3859.197	39.46
3861.806	40.13
3864.414	36.13
3867.019	36.79
3869.622	35.46
3872.224	33.13
3874.823	35.46
3877.421	30.13
3880.016	31.79
3882.61	27.79
3885.202	26.13
3887.792	22.13
3890.38	18.79
3892.966	15.46
3895.55	14.13
3898.132	10.13
3900.713	7.13
3903.291	5.13
3905.868	0.79
3908.442	0.46
3911.015	-1.21
3913.586	-4.87
3916.155	-2.54
3918.722	-6.21
3921.287	-7.21
3923.85	-8.87
3926.411	-9.87
3928.971	-10.21
3931.528	-10.87
3934.084	-14.54
3936.638	-16.21
3939.19	-14.21
3941.74	-15.54
3944.288	-15.54
3946.834	-19.21
3949.378	-18.87
3951.921	-20.21
3954.462	-20.87
3957	-20.54
3959.537	-22.21
3962.072	-20.21
3964.606	-18.21
3967.137	-21.21
3969.667	-20.87
3972.194	-22.21
3974.72	-20.54
3977.244	-21.54
3979.766	-21.21
3982.286	-20.54
3984.805	-20.54
3987.321	-18.21
3989.836	-21.87
3992.349	-19.87
3994.86	-22.21
3997.369	-21.21
3999.877	-22.21
4002.382	-23.21
4004.886	-23.21
4007.388	-21.54
4009.888	-25.21
4012.386	-23.87
4014.883	-24.21
4017.377	-29.21
4019.87	-24.21
4022.361	-26.54
4024.85	-25.21
4027.338	-26.21
4029.823	-27.87
4032.307	-27.54
4034.789	-25.54
4037.269	-27.54
4039.747	-30.54
4042.224	-27.87
4044.699	-28.87
4047.172	-29.87
4049.643	-32.21
4052.112	-29.21
4054.58	-30.54
4057.046	-32.21
4059.51	-30.54
4061.972	-34.87
4064.432	-31.54
4066.891	-31.87
4069.348	-33.21
4071.803	-33.54
4074.256	-32.87
4076.708	-34.21
4079.158	-33.87
4081.606	-34.21
4084.052	-35.21
4086.497	-33.87
4088.939	-33.87
4091.38	-33.21
4093.819	-33.54
4096.257	-45.87
4098.693	-47.54
4101.127	-47.21
4103.559	-47.87
4105.989	-25.87
4108.418	-22.54
4110.845	-23.21
4113.27	-15.54
4115.694	-14.87
4118.115	-9.54
4120.535	-33.87
4122.954	-33.87
4125.37	-34.21
4127.785	-33.21
4130.198	-36.21
4132.609	-35.54
4135.019	-47.21
4137.427	-46.21
4139.833	-46.21
4142.237	-47.87
