Data from bs10_RamanShift_2.txt Node
Date: Tue Oct 17 17:43:54 IDT 2017
User: aro
Spectrometer: QEPB0276
Trigger mode: 0
Integration Time (sec): 5.000000E0
Scans to average: 3
Electric dark correction enabled: true
Nonlinearity correction enabled: false
Boxcar width: 0
XAxis mode: Raman Shifts
Number of Pixels in Spectrum: 1044
>>>>>Begin Spectral Data<<<<<
160.701	-2.71
166.742	5.29
172.777	20.62
178.805	70.63
184.826	198.63
190.841	431.96
196.849	730.96
202.85	968.96
208.845	1060.96
214.833	1100.62
220.815	1124.63
226.789	1161.63
232.758	1211.96
238.719	1255.62
244.674	1275.96
250.623	1278.29
256.565	1263.96
262.5	1236.96
268.429	1205.29
274.351	1193.63
280.267	1179.62
286.176	1168.63
292.079	1175.29
297.975	1176.29
303.865	1191.63
309.748	1199.96
315.625	1181.62
321.495	1166.96
327.359	1152.96
333.217	1145.96
339.068	1126.29
344.912	1119.63
350.751	1115.63
356.583	1095.96
362.408	1081.29
368.227	1079.63
374.04	1080.63
379.847	1077.62
385.647	1072.62
391.44	1063.63
397.228	1055.63
403.009	1050.29
408.784	1059.63
414.553	1064.96
420.315	1087.29
426.071	1079.63
431.821	1050.96
437.565	1022.63
443.302	1003.29
449.033	982.62
454.758	966.96
460.477	949.96
466.189	932.63
471.896	924.63
477.596	899.96
483.29	881.63
488.978	858.29
494.66	828.96
500.335	787.29
506.005	773.29
511.668	787.96
517.325	879.96
522.977	1027.29
528.622	1133.96
534.261	1179.63
539.894	1162.96
545.521	1133.62
551.141	1115.96
556.756	1098.29
562.365	1079.96
567.968	1065.63
573.565	1049.96
579.155	1042.62
584.74	1035.29
590.319	1018.29
595.892	1008.96
601.459	999.63
607.02	983.29
612.575	976.29
618.124	966.29
623.667	979.96
629.204	992.62
634.735	1009.62
640.261	1008.29
645.781	1016.29
651.294	1029.62
656.802	1031.96
662.304	1024.62
667.8	1018.63
673.29	1017.29
678.775	1022.96
684.254	1014.63
689.726	1011.63
695.193	1012.63
700.655	1011.29
706.11	1010.29
711.56	1011.29
717.004	1009.96
722.442	1010.96
727.874	1016.63
733.301	1010.63
738.722	1014.63
744.137	1026.96
749.547	1016.63
754.951	1031.96
760.349	1032.63
765.741	1036.96
771.128	1041.62
776.509	1041.96
781.885	1052.62
787.254	1061.29
792.618	1055.96
797.977	1052.63
803.33	1055.96
808.677	1055.29
814.019	1055.96
819.355	1052.29
824.686	1053.63
830.011	1063.63
835.33	1058.63
840.644	1070.62
845.952	1077.62
851.255	1079.63
856.552	1086.63
861.844	1096.29
867.13	1102.63
872.41	1109.29
877.686	1107.63
882.955	1108.62
888.219	1107.96
893.478	1098.96
898.731	1093.96
903.979	1082.96
909.221	1097.96
914.458	1089.96
919.69	1108.29
924.916	1119.62
930.136	1138.29
935.351	1165.29
940.561	1193.62
945.766	1200.96
950.965	1198.96
956.158	1193.62
961.347	1191.29
966.529	1169.63
971.707	1156.63
976.879	1140.29
982.046	1137.62
987.208	1124.96
992.364	1123.96
997.515	1122.96
1002.66	1115.62
1007.801	1123.29
1012.936	1132.29
1018.066	1142.96
1023.19	1143.63
1028.309	1152.62
1033.423	1145.29
1038.532	1141.29
1043.636	1136.63
1048.734	1112.62
1053.827	1115.63
1058.915	1095.62
1063.998	1095.29
1069.075	1092.63
1074.147	1102.29
1079.214	1103.63
1084.276	1110.63
1089.333	1114.96
1094.385	1122.62
1099.431	1140.96
1104.472	1138.96
1109.509	1134.29
1114.54	1114.96
1119.565	1104.96
1124.586	1097.63
1129.602	1090.29
1134.613	1076.29
1139.618	1075.96
1144.619	1071.29
1149.614	1072.29
1154.604	1093.62
1159.589	1087.96
1164.57	1091.63
1169.545	1097.63
1174.515	1095.96
1179.48	1083.96
1184.44	1088.29
1189.395	1072.29
1194.345	1070.62
1199.29	1066.62
1204.23	1067.63
1209.165	1079.62
1214.095	1075.96
1219.021	1080.62
1223.941	1090.62
1228.856	1097.29
1233.766	1107.62
1238.672	1095.96
1243.572	1100.29
1248.467	1094.62
1253.358	1081.96
1258.244	1071.62
1263.124	1055.63
1268	1046.29
1272.871	1031.29
1277.737	1029.29
1282.599	1021.63
1287.455	1031.96
1292.306	1035.96
1297.153	1045.29
1301.995	1059.96
1306.832	1059.96
1311.664	1063.29
1316.491	1068.96
1321.314	1067.29
1326.132	1051.29
1330.945	1037.96
1335.753	1016.96
1340.556	1005.96
1345.354	978.96
1350.148	962.96
1354.937	966.29
1359.722	978.63
1364.501	1003.96
1369.276	1032.29
1374.046	1054.62
1378.811	1079.29
1383.572	1082.29
1388.327	1072.29
1393.079	1054.63
1397.825	1031.62
1402.567	1023.63
1407.304	995.63
1412.036	991.96
1416.764	979.29
1421.487	986.62
1426.205	986.29
1430.919	992.96
1435.628	999.29
1440.333	1014.96
1445.032	1020.63
1449.727	1022.96
1454.418	1028.96
1459.104	1029.96
1463.785	1025.96
1468.462	1029.29
1473.134	1015.96
1477.802	1009.29
1482.465	1011.62
1487.123	1011.96
1491.777	1021.29
1496.426	1037.96
1501.071	1058.29
1505.711	1073.62
1510.347	1085.62
1514.978	1103.29
1519.604	1109.62
1524.226	1121.96
1528.844	1121.63
1533.457	1119.96
1538.065	1113.96
1542.669	1118.63
1547.269	1113.62
1551.864	1104.62
1556.454	1104.63
1561.041	1104.96
1565.622	1099.96
1570.199	1099.62
1574.772	1102.96
1579.34	1109.63
1583.904	1105.96
1588.464	1118.63
1593.019	1109.96
1597.569	1106.96
1602.115	1097.63
1606.657	1089.63
1611.195	1073.29
1615.728	1067.63
1620.256	1056.63
1624.78	1060.96
1629.3	1066.63
1633.816	1065.29
1638.327	1087.96
1642.834	1097.29
1647.336	1107.96
1651.834	1125.96
1656.328	1133.96
1660.817	1144.96
1665.302	1155.63
1669.783	1160.63
1674.259	1154.96
1678.732	1146.96
1683.199	1137.63
1687.663	1118.29
1692.122	1116.62
1696.577	1107.62
1701.028	1142.96
1705.474	1170.63
1709.917	1184.96
1714.355	1198.63
1718.788	1191.29
1723.218	1190.62
1727.643	1176.96
1732.064	1177.96
1736.481	1176.62
1740.893	1162.63
1745.301	1143.63
1749.705	1140.29
1754.105	1124.96
1758.501	1122.29
1762.893	1112.63
1767.28	1105.96
1771.663	1114.96
1776.042	1105.29
1780.417	1114.62
1784.787	1145.29
1789.154	1179.63
1793.516	1202.29
1797.874	1232.29
1802.228	1252.29
1806.578	1257.96
1810.924	1256.29
1815.266	1247.63
1819.603	1234.62
1823.937	1227.96
1828.266	1211.62
1832.591	1206.29
1836.913	1196.96
1841.23	1190.63
1845.543	1201.96
1849.852	1195.96
1854.156	1199.29
1858.457	1202.62
1862.754	1205.63
1867.047	1219.63
1871.335	1223.62
1875.62	1235.29
1879.9	1235.29
1884.177	1242.29
1888.449	1247.63
1892.718	1236.96
1896.982	1247.29
1901.243	1252.96
1905.499	1249.96
1909.752	1257.29
1914	1264.63
1918.245	1276.96
1922.485	1297.62
1926.722	1307.96
1930.954	1308.96
1935.183	1329.63
1939.408	1339.96
1943.628	1362.63
1947.845	1371.29
1952.058	1358.96
1956.267	1349.96
1960.472	1346.96
1964.673	1333.96
1968.87	1328.96
1973.063	1322.63
1977.252	1310.63
1981.438	1301.62
1985.619	1295.96
1989.797	1290.29
1993.971	1292.96
1998.14	1300.63
2002.306	1297.29
2006.469	1295.63
2010.627	1296.29
2014.781	1302.96
2018.932	1304.96
2023.078	1288.29
2027.221	1293.29
2031.36	1285.62
2035.495	1273.29
2039.627	1266.29
2043.754	1263.96
2047.878	1269.96
2051.998	1263.63
2056.114	1270.96
2060.226	1272.62
2064.334	1275.96
2068.439	1294.63
2072.54	1304.96
2076.637	1320.96
2080.73	1326.29
2084.82	1342.29
2088.906	1333.63
2092.988	1336.96
2097.066	1347.29
2101.14	1332.29
2105.211	1334.29
2109.278	1333.63
2113.342	1330.96
2117.401	1337.63
2121.457	1338.29
2125.509	1336.96
2129.558	1342.96
2133.602	1339.63
2137.643	1350.29
2141.681	1355.29
2145.714	1354.62
2149.744	1351.63
2153.77	1351.29
2157.793	1351.62
2161.812	1335.29
2165.827	1331.29
2169.838	1322.63
2173.846	1306.29
2177.851	1302.29
2181.851	1292.63
2185.848	1295.29
2189.841	1292.96
2193.831	1293.29
2197.817	1296.63
2201.799	1289.96
2205.778	1309.96
2209.753	1309.29
2213.725	1314.96
2217.693	1326.96
2221.657	1324.96
2225.618	1340.29
2229.575	1348.96
2233.529	1342.29
2237.479	1354.96
2241.425	1342.29
2245.368	1348.29
2249.307	1350.96
2253.243	1338.29
2257.175	1339.29
2261.104	1334.63
2265.029	1335.96
2268.95	1328.63
2272.868	1328.63
2276.783	1323.96
2280.694	1332.96
2284.601	1323.96
2288.505	1330.29
2292.405	1329.62
2296.302	1332.29
2300.195	1323.29
2304.085	1318.63
2307.971	1316.63
2311.854	1296.29
2315.734	1288.29
2319.609	1288.96
2323.482	1274.62
2327.351	1272.62
2331.216	1269.63
2335.078	1274.29
2338.937	1276.63
2342.792	1275.29
2346.643	1277.29
2350.492	1285.29
2354.336	1300.29
2358.178	1307.29
2362.015	1318.29
2365.85	1316.96
2369.681	1339.29
2373.508	1336.96
2377.333	1347.29
2381.153	1358.96
2384.971	1359.96
2388.785	1357.96
2392.595	1358.63
2396.402	1357.63
2400.206	1360.96
2404.007	1365.29
2407.804	1361.63
2411.597	1364.96
2415.388	1370.63
2419.174	1374.29
2422.958	1378.29
2426.738	1376.29
2430.515	1389.29
2434.289	1403.63
2438.059	1405.96
2441.825	1403.29
2445.589	1399.29
2449.349	1409.29
2453.106	1403.96
2456.859	1411.29
2460.61	1410.96
2464.356	1401.63
2468.1	1403.96
2471.84	1417.96
2475.577	1419.63
2479.311	1426.62
2483.041	1439.63
2486.768	1443.96
2490.492	1461.62
2494.213	1465.96
2497.93	1486.29
2501.644	1482.63
2505.355	1503.29
2509.062	1504.29
2512.766	1525.63
2516.467	1523.62
2520.165	1536.29
2523.859	1540.62
2527.551	1542.29
2531.239	1549.29
2534.923	1547.29
2538.605	1550.96
2542.283	1568.29
2545.958	1562.29
2549.63	1585.29
2553.299	1581.96
2556.964	1595.96
2560.626	1585.96
2564.285	1602.29
2567.941	1606.29
2571.594	1612.29
2575.243	1611.96
2578.89	1616.96
2582.533	1616.29
2586.173	1624.29
2589.809	1622.63
2593.443	1627.29
2597.073	1637.29
2600.701	1626.96
2604.325	1651.62
2607.946	1654.96
2611.564	1646.63
2615.178	1670.96
2618.79	1664.29
2622.398	1671.63
2626.004	1682.62
2629.606	1671.96
2633.205	1670.29
2636.801	1662.62
2640.394	1656.62
2643.983	1656.96
2647.57	1645.62
2651.153	1641.29
2654.734	1633.96
2658.311	1638.29
2661.885	1625.29
2665.456	1622.29
2669.025	1622.96
2672.589	1628.96
2676.151	1621.29
2679.71	1615.63
2683.266	1610.29
2686.819	1604.29
2690.368	1598.62
2693.915	1578.96
2697.458	1581.29
2700.999	1575.29
2704.536	1573.63
2708.071	1562.29
2711.602	1550.29
2715.13	1554.96
2718.656	1543.63
2722.178	1550.96
2725.697	1552.63
2729.214	1571.63
2732.727	1577.63
2736.237	1595.62
2739.744	1613.29
2743.249	1635.29
2746.75	1649.63
2750.248	1671.96
2753.743	1688.96
2757.236	1702.62
2760.725	1708.29
2764.211	1718.29
2767.695	1719.96
2771.175	1717.63
2774.652	1724.29
2778.127	1717.29
2781.598	1708.96
2785.067	1701.29
2788.532	1714.29
2791.995	1705.29
2795.455	1703.96
2798.911	1708.29
2802.365	1708.62
2805.816	1694.63
2809.264	1700.63
2812.709	1703.29
2816.151	1690.96
2819.59	1695.96
2823.026	1690.29
2826.46	1686.96
2829.89	1687.29
2833.318	1683.96
2836.742	1673.96
2840.164	1684.63
2843.583	1682.63
2846.999	1686.96
2850.412	1695.29
2853.822	1690.96
2857.229	1704.96
2860.634	1710.96
2864.035	1697.63
2867.434	1711.29
2870.83	1714.62
2874.223	1716.63
2877.613	1707.96
2881	1701.63
2884.385	1698.96
2887.766	1687.29
2891.145	1663.29
2894.521	1664.63
2897.894	1658.29
2901.264	1642.29
2904.631	1637.96
2907.996	1628.29
2911.358	1626.62
2914.717	1612.96
2918.073	1615.63
2921.426	1604.96
2924.777	1610.29
2928.124	1601.96
2931.469	1606.62
2934.811	1603.29
2938.15	1594.62
2941.487	1586.96
2944.821	1589.62
2948.152	1571.96
2951.48	1567.96
2954.805	1558.96
2958.128	1553.96
2961.447	1545.29
2964.765	1542.62
2968.079	1544.29
2971.39	1535.63
2974.699	1541.96
2978.005	1551.29
2981.308	1556.29
2984.609	1555.62
2987.907	1548.96
2991.202	1572.96
2994.494	1578.29
2997.784	1574.29
3001.07	1584.63
3004.355	1587.96
3007.636	1592.62
3010.915	1577.29
3014.191	1577.62
3017.464	1570.96
3020.734	1546.63
3024.002	1526.96
3027.267	1507.63
3030.53	1503.29
3033.789	1487.29
3037.046	1471.63
3040.301	1462.29
3043.552	1452.29
3046.801	1446.63
3050.048	1440.29
3053.291	1427.29
3056.532	1424.96
3059.771	1429.63
3063.006	1433.96
3066.239	1428.96
3069.469	1429.96
3072.697	1434.29
3075.922	1425.29
3079.144	1421.63
3082.364	1414.29
3085.581	1409.63
3088.795	1406.29
3092.007	1391.96
3095.216	1389.63
3098.423	1385.63
3101.627	1370.96
3104.828	1363.29
3108.026	1362.96
3111.222	1355.29
3114.416	1350.63
3117.607	1345.96
3120.795	1343.96
3123.98	1344.96
3127.163	1330.96
3130.344	1339.29
3133.521	1332.29
3136.696	1325.96
3139.869	1327.96
3143.039	1321.29
3146.206	1319.29
3149.371	1303.29
3152.533	1298.96
3155.693	1280.29
3158.85	1272.29
3162.005	1257.96
3165.157	1239.29
3168.306	1226.63
3171.453	1212.96
3174.597	1202.96
3177.739	1188.63
3180.878	1177.62
3184.014	1166.29
3187.149	1160.63
3190.28	1153.29
3193.409	1148.63
3196.536	1138.63
3199.659	1139.29
3202.781	1129.29
3205.9	1124.96
3209.016	1112.62
3212.13	1115.29
3215.241	1097.96
3218.35	1092.96
3221.456	1074.96
3224.56	1069.29
3227.661	1064.29
3230.76	1045.63
3233.856	1034.96
3236.95	1018.62
3240.041	1017.96
3243.13	1018.29
3246.216	1001.96
3249.3	1005.29
3252.382	996.96
3255.46	991.63
3258.537	981.63
3261.611	988.96
3264.682	982.96
3267.751	980.96
3270.818	982.63
3273.882	978.29
3276.943	975.96
3280.002	966.96
3283.059	960.96
3286.113	958.63
3289.165	949.96
3292.214	934.29
3295.261	919.29
3298.306	908.96
3301.348	905.29
3304.387	890.63
3307.425	882.62
3310.459	873.96
3313.492	857.63
3316.521	856.62
3319.549	840.29
3322.574	842.96
3325.597	822.96
3328.617	823.63
3331.635	823.62
3334.65	822.96
3337.663	813.29
3340.674	808.96
3343.682	802.62
3346.688	803.96
3349.691	794.96
3352.692	797.62
3355.691	792.63
3358.687	784.96
3361.681	779.29
3364.673	766.96
3367.662	760.96
3370.649	750.96
3373.633	746.96
3376.615	735.96
3379.595	727.29
3382.572	719.96
3385.547	707.96
3388.52	702.96
3391.49	692.29
3394.458	692.62
3397.424	678.63
3400.387	677.62
3403.348	669.63
3406.307	666.96
3409.263	662.96
3412.217	656.29
3415.168	657.96
3418.118	651.62
3421.065	647.96
3424.009	640.63
3426.951	641.63
3429.891	631.29
3432.829	625.29
3435.764	614.63
3438.697	610.96
3441.628	601.96
3444.557	598.62
3447.483	589.63
3450.407	580.96
3453.328	567.29
3456.247	561.29
3459.164	551.96
3462.079	547.63
3464.991	534.96
3467.902	529.63
3470.809	520.63
3473.715	511.63
3476.618	512.62
3479.519	502.62
3482.418	507.29
3485.315	491.96
3488.209	485.63
3491.101	489.63
3493.99	479.29
3496.878	474.29
3499.763	473.96
3502.646	469.96
3505.527	462.96
3508.405	462.63
3511.281	448.96
3514.155	446.96
3517.027	444.63
3519.897	431.29
3522.764	417.63
3525.629	411.29
3528.492	402.63
3531.352	394.96
3534.211	388.29
3537.067	378.96
3539.921	366.96
3542.773	365.96
3545.622	349.96
3548.469	347.29
3551.315	341.96
3554.157	338.63
3556.998	332.63
3559.837	324.96
3562.673	317.63
3565.507	319.96
3568.339	311.96
3571.169	306.96
3573.996	302.96
3576.822	301.63
3579.645	294.29
3582.466	290.96
3585.285	286.29
3588.101	282.62
3590.916	273.96
3593.728	268.96
3596.538	255.29
3599.346	255.62
3602.152	256.29
3604.956	249.63
3607.757	241.29
3610.556	241.29
3613.354	233.29
3616.149	233.96
3618.942	226.29
3621.732	227.96
3624.521	224.63
3627.307	225.63
3630.092	219.62
3632.874	219.62
3635.654	215.96
3638.432	213.29
3641.208	207.96
3643.982	207.96
3646.753	202.63
3649.523	202.96
3652.29	198.96
3655.055	192.63
3657.818	192.29
3660.579	189.62
3663.338	186.62
3666.095	182.62
3668.849	178.63
3671.602	178.29
3674.352	174.63
3677.101	169.63
3679.847	166.29
3682.591	170.29
3685.333	164.29
3688.073	163.96
3690.811	164.29
3693.547	164.29
3696.281	163.63
3699.013	161.96
3701.742	164.29
3704.47	162.29
3707.195	159.96
3709.919	157.63
3712.64	157.29
3715.359	156.63
3718.076	156.96
3720.792	152.96
3723.505	149.62
3726.216	150.63
3728.925	147.29
3731.632	147.62
3734.336	144.96
3737.039	140.63
3739.74	142.62
3742.439	140.29
3745.136	133.96
3747.83	135.96
3750.523	132.96
3753.213	134.62
3755.902	133.63
3758.589	136.29
3761.273	133.29
3763.956	131.29
3766.636	129.63
3769.315	125.63
3771.991	123.62
3774.665	124.96
3777.338	121.62
3780.008	120.29
3782.677	113.63
3785.343	115.96
3788.007	110.62
3790.67	107.29
3793.33	106.96
3795.989	106.96
3798.645	102.63
3801.299	100.96
3803.952	101.29
3806.602	98.63
3809.251	96.96
3811.897	95.29
3814.542	97.96
3817.184	89.96
3819.825	92.29
3822.463	87.63
3825.1	87.63
3827.735	86.96
3830.367	82.29
3832.998	81.29
3835.627	79.62
3838.253	75.63
3840.878	70.96
3843.501	71.63
3846.122	66.29
3848.741	66.96
3851.358	64.96
3853.973	62.63
3856.586	62.29
3859.197	58.96
3861.806	57.29
3864.414	54.63
3867.019	53.63
3869.622	52.63
3872.224	52.62
3874.823	48.29
3877.421	47.63
3880.016	47.96
3882.61	45.96
3885.202	43.96
3887.792	40.96
3890.38	37.62
3892.966	34.63
3895.55	32.96
3898.132	29.62
3900.713	27.96
3903.291	25.63
3905.868	23.29
3908.442	22.63
3911.015	19.29
3913.586	19.29
3916.155	15.96
3918.722	16.29
3921.287	12.96
3923.85	12.62
3926.411	12.96
3928.971	8.62
3931.528	9.29
3934.084	7.96
3936.638	5.62
3939.19	5.63
3941.74	5.63
3944.288	3.96
3946.834	1.96
3949.378	0.96
3951.921	-1.71
3954.462	1.62
3957	0.96
3959.537	-0.04
3962.072	0.63
3964.606	-0.04
3967.137	0.29
3969.667	-1.04
3972.194	-3.04
3974.72	-1.04
3977.244	0.29
3979.766	-1.04
3982.286	1.96
3984.805	-0.38
3987.321	0.29
3989.836	-1.04
3992.349	-1.37
3994.86	2.63
3997.369	-1.04
3999.877	-0.71
4002.382	-1.71
4004.886	-2.71
4007.388	-0.37
4009.888	-3.71
4012.386	-2.37
4014.883	-2.37
4017.377	-5.38
4019.87	-1.04
4022.361	-5.04
4024.85	-3.04
4027.338	-4.38
4029.823	-4.37
4032.307	-3.71
4034.789	-5.37
4037.269	-7.37
4039.747	-8.71
4042.224	-8.38
4044.699	-6.71
4047.172	-11.37
4049.643	-11.04
4052.112	-9.37
4054.58	-10.37
4057.046	-12.71
4059.51	-12.38
4061.972	-15.04
4064.432	-11.37
4066.891	-12.04
4069.348	-12.71
4071.803	-13.71
4074.256	-12.38
4076.708	-12.71
4079.158	-12.71
4081.606	-13.38
4084.052	-12.37
4086.497	-13.04
4088.939	-14.37
4091.38	-12.38
4093.819	-13.71
4096.257	-23.04
4098.693	-22.71
4101.127	-23.37
4103.559	-24.04
4105.989	-10.71
4108.418	-9.37
4110.845	-8.04
4113.27	-5.38
4115.694	-3.71
4118.115	-4.38
4120.535	-15.04
4122.954	-14.04
4125.37	-13.71
4127.785	-11.71
4130.198	-15.71
4132.609	-13.71
4135.019	-24.04
4137.427	-23.04
4139.833	-23.04
4142.237	-23.71
