Data from bs1_RamanShift_6.txt Node
Date: Tue Oct 17 17:41:24 IDT 2017
User: aro
Spectrometer: QEPB0276
Trigger mode: 0
Integration Time (sec): 5.000000E0
Scans to average: 3
Electric dark correction enabled: true
Nonlinearity correction enabled: false
Boxcar width: 0
XAxis mode: Raman Shifts
Number of Pixels in Spectrum: 1044
>>>>>Begin Spectral Data<<<<<
160.701	-1.67
166.742	5.67
172.777	25
178.805	78.33
184.826	229
190.841	491.33
196.849	832
202.85	1096
208.845	1204.67
214.833	1236.67
220.815	1237
226.789	1278.33
232.758	1311.33
238.719	1336.33
244.674	1357.67
250.623	1378.67
256.565	1362.33
262.5	1388
268.429	1384
274.351	1376.67
280.267	1395.33
286.176	1402.33
292.079	1418.67
297.975	1441.67
303.865	1461
309.748	1463.33
315.625	1456.67
321.495	1425.67
327.359	1410.67
333.217	1399.33
339.068	1394.33
344.912	1377.67
350.751	1367.67
356.583	1350.33
362.408	1345.33
368.227	1323.33
374.04	1327.33
379.847	1320.67
385.647	1315.67
391.44	1303.67
397.228	1296
403.009	1291
408.784	1281.33
414.553	1295
420.315	1306
426.071	1309
431.821	1274
437.565	1238
443.302	1218
449.033	1202.33
454.758	1180
460.477	1156.67
466.189	1138.33
471.896	1116.33
477.596	1091.33
483.29	1069
488.978	1035.33
494.66	1008.67
500.335	966.33
506.005	936.33
511.668	966.33
517.325	1081.67
522.977	1265.67
528.622	1403
534.261	1444
539.894	1426.33
545.521	1375
551.141	1340
556.756	1326
562.365	1300
567.968	1277.33
573.565	1265.67
579.155	1259
584.74	1234.67
590.319	1221.33
595.892	1212
601.459	1192.33
607.02	1170.33
612.575	1147.33
618.124	1142.33
623.667	1154.33
629.204	1167.67
634.735	1176
640.261	1182.67
645.781	1191.67
651.294	1191.67
656.802	1182.33
662.304	1188
667.8	1180.67
673.29	1170.67
678.775	1175.67
684.254	1165
689.726	1161.67
695.193	1161.33
700.655	1151
706.11	1148
711.56	1140.67
717.004	1137.67
722.442	1127
727.874	1136.33
733.301	1127.67
738.722	1129
744.137	1127
749.547	1134
754.951	1135.67
760.349	1142.67
765.741	1139.33
771.128	1140.67
776.509	1151.33
781.885	1148
787.254	1145
792.618	1144
797.977	1150.33
803.33	1144.67
808.677	1151.33
814.019	1144
819.355	1145.67
824.686	1143.33
830.011	1143.67
835.33	1143
840.644	1148.33
845.952	1150
851.255	1163.67
856.552	1160.33
861.844	1162
867.13	1173
872.41	1171.33
877.686	1180
882.955	1170.33
888.219	1168
893.478	1159.67
898.731	1151
903.979	1154.33
909.221	1155.67
914.458	1156.67
919.69	1158.33
924.916	1178
930.136	1197
935.351	1228.33
940.561	1254.33
945.766	1272
950.965	1270.33
956.158	1260.33
961.347	1246
966.529	1234
971.707	1219.33
976.879	1203.33
982.046	1197.33
987.208	1178
992.364	1175.67
997.515	1175.33
1002.66	1177.33
1007.801	1168.33
1012.936	1178.67
1018.066	1195
1023.19	1185.67
1028.309	1190.33
1033.423	1186.67
1038.532	1176
1043.636	1180.33
1048.734	1165.67
1053.827	1164.67
1058.915	1147.33
1063.998	1154
1069.075	1135.67
1074.147	1141.67
1079.214	1152
1084.276	1156.33
1089.333	1168
1094.385	1175
1099.431	1188
1104.472	1184.33
1109.509	1178.33
1114.54	1162.33
1119.565	1148.67
1124.586	1145.67
1129.602	1137.33
1134.613	1126.67
1139.618	1132
1144.619	1123.33
1149.614	1125.67
1154.604	1134
1159.589	1147.67
1164.57	1132.33
1169.545	1148.67
1174.515	1150.33
1179.48	1143.33
1184.44	1135.33
1189.395	1118.33
1194.345	1128
1199.29	1116.33
1204.23	1119.33
1209.165	1123.33
1214.095	1133.67
1219.021	1138.67
1223.941	1153.67
1228.856	1150
1233.766	1155
1238.672	1159.33
1243.572	1160.33
1248.467	1142.67
1253.358	1139.67
1258.244	1123.33
1263.124	1115
1268	1097.67
1272.871	1093.33
1277.737	1078
1282.599	1073
1287.455	1079.33
1292.306	1088.67
1297.153	1098.33
1301.995	1098.67
1306.832	1107
1311.664	1106.33
1316.491	1113.33
1321.314	1115.33
1326.132	1096
1330.945	1090.67
1335.753	1061.67
1340.556	1039.33
1345.354	1013.67
1350.148	998.33
1354.937	1001.67
1359.722	1016.33
1364.501	1035.33
1369.276	1062.67
1374.046	1090.67
1378.811	1110.33
1383.572	1111.33
1388.327	1104
1393.079	1081.33
1397.825	1058.67
1402.567	1042.33
1407.304	1028
1412.036	1018.33
1416.764	1007
1421.487	1014
1426.205	1007.67
1430.919	1019.33
1435.628	1031.67
1440.333	1033.33
1445.032	1039.67
1449.727	1044
1454.418	1041.33
1459.104	1038.67
1463.785	1027.67
1468.462	1025.33
1473.134	1009
1477.802	1007.33
1482.465	1003
1487.123	1011
1491.777	1020
1496.426	1026.67
1501.071	1041.67
1505.711	1056.67
1510.347	1068.33
1514.978	1081.67
1519.604	1092.33
1524.226	1098.67
1528.844	1103.33
1533.457	1090
1538.065	1086.33
1542.669	1093
1547.269	1078.33
1551.864	1070.33
1556.454	1067
1561.041	1062.33
1565.622	1058.33
1570.199	1049.33
1574.772	1049.67
1579.34	1053.67
1583.904	1056
1588.464	1059.67
1593.019	1046
1597.569	1038.67
1602.115	1031.67
1606.657	1021.33
1611.195	1014
1615.728	997.67
1620.256	982.67
1624.78	994
1629.3	988
1633.816	987.67
1638.327	997.33
1642.834	1001.33
1647.336	1018
1651.834	1025.33
1656.328	1029.33
1660.817	1045.33
1665.302	1052.33
1669.783	1048.67
1674.259	1041
1678.732	1040.67
1683.199	1024.67
1687.663	1006.33
1692.122	988.67
1696.577	993
1701.028	1011.33
1705.474	1042.67
1709.917	1063.67
1714.355	1066.67
1718.788	1064
1723.218	1054
1727.643	1050.67
1732.064	1044
1736.481	1029
1740.893	1025.33
1745.301	1008
1749.705	1003
1754.105	991.67
1758.501	977
1762.893	967.67
1767.28	971
1771.663	961.67
1776.042	972
1780.417	978.67
1784.787	987
1789.154	1010
1793.516	1037
1797.874	1065.33
1802.228	1082.33
1806.578	1095.33
1810.924	1093.67
1815.266	1084.67
1819.603	1080.67
1823.937	1064.33
1828.266	1051.33
1832.591	1037.67
1836.913	1033.33
1841.23	1029
1845.543	1025.67
1849.852	1030.33
1854.156	1035
1858.457	1045.33
1862.754	1037.33
1867.047	1048.33
1871.335	1058.33
1875.62	1063.33
1879.9	1072
1884.177	1070.67
1888.449	1078.33
1892.718	1070.33
1896.982	1067
1901.243	1079.33
1905.499	1079.67
1909.752	1090.33
1914	1090
1918.245	1094
1922.485	1115.67
1926.722	1127.33
1930.954	1144
1935.183	1146.67
1939.408	1159.33
1943.628	1169
1947.845	1176.33
1952.058	1176.67
1956.267	1180
1960.472	1179.33
1964.673	1172
1968.87	1154.33
1973.063	1151.33
1977.252	1143.33
1981.438	1137
1985.619	1140.67
1989.797	1134
1993.971	1139
1998.14	1136.33
2002.306	1147
2006.469	1140.33
2010.627	1156.33
2014.781	1156
2018.932	1155.33
2023.078	1152
2027.221	1144.67
2031.36	1139.67
2035.495	1126.33
2039.627	1130
2043.754	1128
2047.878	1128.67
2051.998	1129.33
2056.114	1137
2060.226	1141.67
2064.334	1150
2068.439	1173
2072.54	1163
2076.637	1180.67
2080.73	1194.33
2084.82	1201.33
2088.906	1210.67
2092.988	1208.33
2097.066	1217.33
2101.14	1218.33
2105.211	1221.33
2109.278	1231
2113.342	1220.33
2117.401	1220.67
2121.457	1233.67
2125.509	1236.67
2129.558	1242
2133.602	1236
2137.643	1245
2141.681	1244.33
2145.714	1248.67
2149.744	1257.67
2153.77	1246
2157.793	1251.67
2161.812	1246.33
2165.827	1240
2169.838	1231.33
2173.846	1222.67
2177.851	1224.33
2181.851	1208
2185.848	1204
2189.841	1208.67
2193.831	1207.33
2197.817	1210.67
2201.799	1222.33
2205.778	1217.67
2209.753	1233.33
2213.725	1243.33
2217.693	1255.33
2221.657	1270.33
2225.618	1272.67
2229.575	1279.67
2233.529	1276.67
2237.479	1282.33
2241.425	1288.33
2245.368	1275.33
2249.307	1283
2253.243	1280.67
2257.175	1279.67
2261.104	1276.33
2265.029	1277.33
2268.95	1269.67
2272.868	1274
2276.783	1275
2280.694	1284.33
2284.601	1277.33
2288.505	1284.67
2292.405	1290
2296.302	1282.67
2300.195	1272.33
2304.085	1273.33
2307.971	1267.33
2311.854	1260.67
2315.734	1264.67
2319.609	1247.67
2323.482	1244.33
2327.351	1237
2331.216	1247
2335.078	1235.33
2338.937	1244
2342.792	1239
2346.643	1245
2350.492	1252.67
2354.336	1262
2358.178	1275.33
2362.015	1281
2365.85	1288.67
2369.681	1305.67
2373.508	1304
2377.333	1320.33
2381.153	1324.67
2384.971	1327
2388.785	1331.33
2392.595	1324
2396.402	1327.67
2400.206	1322.67
2404.007	1330.67
2407.804	1338
2411.597	1343.33
2415.388	1346.33
2419.174	1354.33
2422.958	1363.67
2426.738	1361.33
2430.515	1362
2434.289	1369
2438.059	1363.33
2441.825	1379.67
2445.589	1374
2449.349	1381.67
2453.106	1375
2456.859	1377.33
2460.61	1381.33
2464.356	1383.67
2468.1	1380.33
2471.84	1386.67
2475.577	1387.33
2479.311	1395.33
2483.041	1414.67
2486.768	1418.33
2490.492	1428
2494.213	1432
2497.93	1451.67
2501.644	1462
2505.355	1463.33
2509.062	1480.67
2512.766	1480.67
2516.467	1497
2520.165	1506.67
2523.859	1500.67
2527.551	1509.33
2531.239	1516
2534.923	1514
2538.605	1523.33
2542.283	1539
2545.958	1532.67
2549.63	1545.33
2553.299	1559
2556.964	1555.67
2560.626	1568
2564.285	1572.67
2567.941	1585.67
2571.594	1586.67
2575.243	1587.33
2578.89	1590.67
2582.533	1589.67
2586.173	1590
2589.809	1589
2593.443	1593.67
2597.073	1594
2600.701	1596.67
2604.325	1606
2607.946	1603.67
2611.564	1618.33
2615.178	1627
2618.79	1635
2622.398	1634.67
2626.004	1634
2629.606	1634.33
2633.205	1626.33
2636.801	1631
2640.394	1627.67
2643.983	1623
2647.57	1615.33
2651.153	1601.33
2654.734	1598.67
2658.311	1601.33
2661.885	1592
2665.456	1593.33
2669.025	1586.33
2672.589	1586
2676.151	1595
2679.71	1584.67
2683.266	1587.33
2686.819	1575.67
2690.368	1570.67
2693.915	1556.67
2697.458	1553.67
2700.999	1544.67
2704.536	1548.67
2708.071	1531.67
2711.602	1522.67
2715.13	1524.67
2718.656	1519
2722.178	1522.33
2725.697	1532
2729.214	1536.33
2732.727	1551.67
2736.237	1581.67
2739.744	1589.67
2743.249	1603.67
2746.75	1638
2750.248	1653.33
2753.743	1673.67
2757.236	1684
2760.725	1694.67
2764.211	1695.33
2767.695	1700
2771.175	1709
2774.652	1694
2778.127	1702
2781.598	1696.33
2785.067	1704
2788.532	1699
2791.995	1694
2795.455	1698
2798.911	1704.67
2802.365	1708
2805.816	1694.67
2809.264	1685.33
2812.709	1692
2816.151	1691
2819.59	1690.67
2823.026	1691.33
2826.46	1687
2829.89	1692
2833.318	1698.67
2836.742	1690
2840.164	1695.33
2843.583	1685.67
2846.999	1695.33
2850.412	1704.67
2853.822	1705.33
2857.229	1700.33
2860.634	1714.67
2864.035	1725.33
2867.434	1729.33
2870.83	1723
2874.223	1727.67
2877.613	1729.33
2881	1722.67
2884.385	1706.67
2887.766	1700.33
2891.145	1697
2894.521	1672.33
2897.894	1690.67
2901.264	1669.33
2904.631	1659.33
2907.996	1649
2911.358	1642
2914.717	1641
2918.073	1631.33
2921.426	1631
2924.777	1625.33
2928.124	1623
2931.469	1622.67
2934.811	1619
2938.15	1625
2941.487	1613
2944.821	1606.67
2948.152	1605.67
2951.48	1587.67
2954.805	1589.33
2958.128	1584
2961.447	1575.67
2964.765	1566.67
2968.079	1571.33
2971.39	1573
2974.699	1567.67
2978.005	1582
2981.308	1579.33
2984.609	1594
2987.907	1599
2991.202	1610.67
2994.494	1612.33
2997.784	1615.67
3001.07	1621
3004.355	1626
3007.636	1627.67
3010.915	1624.67
3014.191	1607.33
3017.464	1618.33
3020.734	1594
3024.002	1573.33
3027.267	1559.33
3030.53	1540.33
3033.789	1525.33
3037.046	1508.67
3040.301	1495.67
3043.552	1486.33
3046.801	1479
3050.048	1476
3053.291	1476.67
3056.532	1480.67
3059.771	1468.67
3063.006	1472
3066.239	1475.33
3069.469	1472.67
3072.697	1472.33
3075.922	1472.67
3079.144	1464.67
3082.364	1464
3085.581	1458.67
3088.795	1455.67
3092.007	1439
3095.216	1431
3098.423	1440.33
3101.627	1422
3104.828	1409
3108.026	1414.33
3111.222	1401.67
3114.416	1398.67
3117.607	1390
3120.795	1386.67
3123.98	1391
3127.163	1379.33
3130.344	1377
3133.521	1377
3136.696	1380.67
3139.869	1375
3143.039	1376.33
3146.206	1363.33
3149.371	1352
3152.533	1344.33
3155.693	1326.33
3158.85	1314
3162.005	1300.33
3165.157	1288.33
3168.306	1277.33
3171.453	1256
3174.597	1259.33
3177.739	1236.67
3180.878	1224.67
3184.014	1215.67
3187.149	1210.33
3190.28	1202.67
3193.409	1200
3196.536	1181.67
3199.659	1179.67
3202.781	1176.33
3205.9	1171
3209.016	1164.67
3212.13	1162
3215.241	1143
3218.35	1131
3221.456	1120
3224.56	1104.67
3227.661	1096
3230.76	1087.67
3233.856	1079.33
3236.95	1070.33
3240.041	1060.33
3243.13	1052.33
3246.216	1042.33
3249.3	1043.67
3252.382	1039.33
3255.46	1030
3258.537	1024.33
3261.611	1034
3264.682	1023.33
3267.751	1027.33
3270.818	1026.33
3273.882	1022.33
3276.943	1022.33
3280.002	1004
3283.059	1009.67
3286.113	998
3289.165	990
3292.214	982.67
3295.261	966.33
3298.306	961.67
3301.348	942.67
3304.387	929.67
3307.425	921.33
3310.459	910
3313.492	901
3316.521	886.33
3319.549	887.33
3322.574	874
3325.597	870
3328.617	863.67
3331.635	858
3334.65	859
3337.663	852.33
3340.674	848
3343.682	850.33
3346.688	841.33
3349.691	834.67
3352.692	839.33
3355.691	831.33
3358.687	824.33
3361.681	816
3364.673	808.67
3367.662	798
3370.649	793
3373.633	784.67
3376.615	771
3379.595	764
3382.572	759.33
3385.547	744.67
3388.52	740.33
3391.49	721.67
3394.458	729.33
3397.424	722.67
3400.387	713.67
3403.348	705.33
3406.307	700.67
3409.263	695
3412.217	701
3415.168	688.33
3418.118	692
3421.065	683.33
3424.009	677.67
3426.951	678
3429.891	678
3432.829	659
3435.764	654
3438.697	654.33
3441.628	643.33
3444.557	628.33
3447.483	618.67
3450.407	615.67
3453.328	603.33
3456.247	597
3459.164	588.67
3462.079	579.67
3464.991	571
3467.902	562.67
3470.809	559.33
3473.715	542.67
3476.618	536
3479.519	537
3482.418	533.33
3485.315	526.67
3488.209	517
3491.101	518.67
3493.99	513.33
3496.878	507.33
3499.763	506.67
3502.646	497.33
3505.527	495.67
3508.405	490.67
3511.281	479
3514.155	480
3517.027	467.67
3519.897	457
3522.764	453.67
3525.629	444.67
3528.492	430.67
3531.352	424.33
3534.211	417.33
3537.067	398.67
3539.921	396.67
3542.773	395.67
3545.622	382
3548.469	375
3551.315	369.67
3554.157	361.33
3556.998	354.67
3559.837	351
3562.673	344.67
3565.507	346
3568.339	341
3571.169	332.33
3573.996	326.33
3576.822	321.67
3579.645	320.67
3582.466	309
3585.285	311.67
3588.101	303
3590.916	295.33
3593.728	290.33
3596.538	282.33
3599.346	281
3602.152	273
3604.956	268
3607.757	264.33
3610.556	259.67
3613.354	251.33
3616.149	253
3618.942	250.67
3621.732	245.33
3624.521	241
3627.307	240.67
3630.092	235
3632.874	235.33
3635.654	233.67
3638.432	228.33
3641.208	224.67
3643.982	228.67
3646.753	222.33
3649.523	219
3652.29	218.33
3655.055	214.33
3657.818	210.67
3660.579	205.33
3663.338	205.33
3666.095	199.33
3668.849	196.33
3671.602	192.67
3674.352	192
3677.101	186
3679.847	184.67
3682.591	185.33
3685.333	183.33
3688.073	179.67
3690.811	183.67
3693.547	181
3696.281	179
3699.013	180.33
3701.742	181
3704.47	179
3707.195	177.67
3709.919	174.33
3712.64	178.33
3715.359	174.33
3718.076	167.67
3720.792	168
3723.505	164.33
3726.216	165.33
3728.925	162.33
3731.632	159
3734.336	161
3737.039	155
3739.74	151.67
3742.439	149.33
3745.136	152.67
3747.83	150.33
3750.523	148.67
3753.213	147.67
3755.902	148.33
3758.589	145.67
3761.273	146.67
3763.956	143.67
3766.636	143.67
3769.315	137.67
3771.991	139.33
3774.665	136.33
3777.338	134.33
3780.008	129.67
3782.677	127.67
3785.343	126.33
3788.007	123.67
3790.67	119.33
3793.33	119.67
3795.989	114.67
3798.645	116.33
3801.299	113.67
3803.952	111.33
3806.602	109
3809.251	108
3811.897	107.67
3814.542	106
3817.184	103.67
3819.825	103
3822.463	97
3825.1	98
3827.735	92.33
3830.367	92.67
3832.998	93
3835.627	87.67
3838.253	84.67
3840.878	82.67
3843.501	78.33
3846.122	74.33
3848.741	75
3851.358	72.33
3853.973	70.33
3856.586	68
3859.197	62.67
3861.806	64
3864.414	62
3867.019	58.67
3869.622	59.67
3872.224	52.33
3874.823	55.67
3877.421	54.33
3880.016	50.33
3882.61	48
3885.202	46
3887.792	42
3890.38	39
3892.966	35.67
3895.55	34.33
3898.132	28.67
3900.713	29.67
3903.291	25.67
3905.868	24.67
3908.442	22.67
3911.015	21
3913.586	20.33
3916.155	16
3918.722	15.33
3921.287	14.67
3923.85	13
3926.411	14.67
3928.971	13.33
3931.528	9.67
3934.084	8
3936.638	7
3939.19	5.33
3941.74	8
3944.288	5
3946.834	4
3949.378	3
3951.921	3
3954.462	3
3957	3
3959.537	3.33
3962.072	3
3964.606	1
3967.137	1.33
3969.667	1.33
3972.194	-3
3974.72	1
3977.244	-1.67
3979.766	-2
3982.286	1.33
3984.805	-4
3987.321	-1
3989.836	-1
3992.349	-1.33
3994.86	-0.67
3997.369	-5
3999.877	-3.33
4002.382	-2.67
4004.886	-6
4007.388	-6
4009.888	-6
4012.386	-8.33
4014.883	-7
4017.377	-8.33
4019.87	-6
4022.361	-7.33
4024.85	-7.33
4027.338	-5
4029.823	-6.67
4032.307	-7
4034.789	-8.67
4037.269	-8.33
4039.747	-11.67
4042.224	-10.33
4044.699	-9
4047.172	-10.33
4049.643	-11.67
4052.112	-10.33
4054.58	-10
4057.046	-13
4059.51	-11
4061.972	-13.67
4064.432	-10
4066.891	-12.67
4069.348	-11.67
4071.803	-13
4074.256	-12.67
4076.708	-15
4079.158	-12
4081.606	-15
4084.052	-13
4086.497	-12.33
4088.939	-14.33
4091.38	-14
4093.819	-14.67
4096.257	-27.33
4098.693	-27
4101.127	-27.67
4103.559	-28.67
4105.989	-13.33
4108.418	-10.33
4110.845	-11
4113.27	-5.33
4115.694	-6.33
4118.115	-7.67
4120.535	-16.33
4122.954	-15
4125.37	-16
4127.785	-14.67
4130.198	-18.33
4132.609	-17.33
4135.019	-27.67
4137.427	-27
4139.833	-26.33
4142.237	-26.33
