Data from bs1_RamanShift_2.txt Node
Date: Tue Oct 17 17:34:09 IDT 2017
User: aro
Spectrometer: QEPB0276
Trigger mode: 0
Integration Time (sec): 5.000000E0
Scans to average: 3
Electric dark correction enabled: true
Nonlinearity correction enabled: false
Boxcar width: 0
XAxis mode: Raman Shifts
Number of Pixels in Spectrum: 1044
>>>>>Begin Spectral Data<<<<<
160.701	-4.83
166.742	8.17
172.777	32.83
178.805	114.17
184.826	327.83
190.841	704.83
196.849	1194.17
202.85	1567.17
208.845	1713.5
214.833	1758.83
220.815	1784.17
226.789	1837.5
232.758	1881.5
238.719	1946.5
244.674	1960.5
250.623	1975.83
256.565	1986.17
262.5	1993.5
268.429	2019.17
274.351	2025.83
280.267	2052.17
286.176	2077.17
292.079	2099.17
297.975	2132.5
303.865	2158.17
309.748	2184.83
315.625	2178.17
321.495	2163.17
327.359	2147.83
333.217	2148.5
339.068	2134.17
344.912	2139.17
350.751	2121.17
356.583	2108.17
362.408	2109.83
368.227	2105.5
374.04	2094.5
379.847	2105.17
385.647	2119.5
391.44	2101.83
397.228	2091.5
403.009	2097.17
408.784	2110.5
414.553	2118.5
420.315	2151.83
426.071	2142.5
431.821	2122.83
437.565	2105.83
443.302	2098.83
449.033	2085.17
454.758	2080.5
460.477	2078.83
466.189	2070.17
471.896	2058.83
477.596	2044.5
483.29	2037.83
488.978	2033.83
494.66	2020.83
500.335	2016.5
506.005	2016.17
511.668	2069.17
517.325	2172.5
522.977	2288.5
528.622	2361.83
534.261	2338.17
539.894	2301.5
545.521	2249.5
551.141	2216.83
556.756	2195.17
562.365	2171.83
567.968	2148.17
573.565	2113.83
579.155	2117.17
584.74	2109.83
590.319	2107.5
595.892	2088.5
601.459	2063.5
607.02	2052.5
612.575	2027.17
618.124	2034.5
623.667	2029.83
629.204	2052.5
634.735	2067.5
640.261	2075.17
645.781	2072.17
651.294	2092.83
656.802	2100.5
662.304	2087.5
667.8	2092.17
673.29	2089.17
678.775	2094.17
684.254	2085.17
689.726	2091.83
695.193	2075.83
700.655	2071.5
706.11	2055.17
711.56	2044.17
717.004	2055.17
722.442	2045.5
727.874	2054.83
733.301	2058.83
738.722	2053.17
744.137	2065.83
749.547	2058.5
754.951	2060.5
760.349	2065.5
765.741	2061.17
771.128	2073.5
776.509	2076.5
781.885	2078.17
787.254	2077.83
792.618	2092.17
797.977	2067.83
803.33	2068.83
808.677	2075.5
814.019	2084.83
819.355	2077.17
824.686	2067.5
830.011	2079.5
835.33	2078.17
840.644	2081.5
845.952	2097.17
851.255	2109.83
856.552	2119.83
861.844	2132.83
867.13	2145.83
872.41	2142.83
877.686	2135.17
882.955	2128.83
888.219	2131.83
893.478	2119.17
898.731	2111.17
903.979	2098.83
909.221	2110.17
914.458	2105.17
919.69	2123.83
924.916	2140.5
930.136	2171.5
935.351	2194.5
940.561	2239.5
945.766	2246.5
950.965	2256.5
956.158	2240.5
961.347	2226.17
966.529	2204.17
971.707	2177.83
976.879	2151.5
982.046	2132.83
987.208	2127.83
992.364	2127.17
997.515	2115.5
1002.66	2128.83
1007.801	2143.17
1012.936	2163.17
1018.066	2178.5
1023.19	2190.17
1028.309	2196.83
1033.423	2205.83
1038.532	2191.5
1043.636	2172.17
1048.734	2154.5
1053.827	2132.17
1058.915	2103.5
1063.998	2099.83
1069.075	2119.5
1074.147	2124.83
1079.214	2130.5
1084.276	2152.83
1089.333	2160.17
1094.385	2186.83
1099.431	2202.5
1104.472	2214.5
1109.509	2205.17
1114.54	2203.83
1119.565	2183.5
1124.586	2154.17
1129.602	2146.5
1134.613	2133.83
1139.618	2140.17
1144.619	2130.5
1149.614	2141.83
1154.604	2133.83
1159.589	2145.83
1164.57	2156.5
1169.545	2157.83
1174.515	2162.83
1179.48	2156.5
1184.44	2146.5
1189.395	2129.17
1194.345	2130.83
1199.29	2123.17
1204.23	2129.5
1209.165	2134.83
1214.095	2149.5
1219.021	2182.83
1223.941	2197.17
1228.856	2210.5
1233.766	2215.17
1238.672	2224.5
1243.572	2221.83
1248.467	2210.17
1253.358	2177.5
1258.244	2160.5
1263.124	2134.17
1268	2110.83
1272.871	2096.83
1277.737	2093.5
1282.599	2090.5
1287.455	2091.5
1292.306	2110.83
1297.153	2129.83
1301.995	2143.83
1306.832	2170.5
1311.664	2182.17
1316.491	2178.5
1321.314	2177.17
1326.132	2165.83
1330.945	2130.5
1335.753	2099.83
1340.556	2059.17
1345.354	2031.5
1350.148	2007.83
1354.937	2004.83
1359.722	2028.83
1364.501	2056.17
1369.276	2101.83
1374.046	2149.17
1378.811	2177.83
1383.572	2193.83
1388.327	2174.83
1393.079	2144.5
1397.825	2102.5
1402.567	2067.83
1407.304	2035.5
1412.036	2006.5
1416.764	2005.17
1421.487	1994.83
1426.205	1998.5
1430.919	2024.17
1435.628	2042.83
1440.333	2066.5
1445.032	2074.17
1449.727	2081.17
1454.418	2091.5
1459.104	2080.17
1463.785	2072.5
1468.462	2061.83
1473.134	2042.83
1477.802	2035.83
1482.465	2033.5
1487.123	2043.17
1491.777	2048.5
1496.426	2064.5
1501.071	2095.5
1505.711	2126.5
1510.347	2163.5
1514.978	2180.17
1519.604	2203.17
1524.226	2210.5
1528.844	2207.83
1533.457	2207.83
1538.065	2206.5
1542.669	2193.5
1547.269	2171.83
1551.864	2166.83
1556.454	2165.5
1561.041	2163.83
1565.622	2157.83
1570.199	2157.17
1574.772	2144.83
1579.34	2142.83
1583.904	2137.5
1588.464	2131.5
1593.019	2115.5
1597.569	2097.5
1602.115	2078.17
1606.657	2049.83
1611.195	2025.17
1615.728	1993.17
1620.256	1985.17
1624.78	1978.83
1629.3	1979.5
1633.816	1987.17
1638.327	2002.83
1642.834	2007.5
1647.336	2035.83
1651.834	2046.5
1656.328	2075.17
1660.817	2092.83
1665.302	2094.83
1669.783	2102.5
1674.259	2078.5
1678.732	2060.83
1683.199	2043.17
1687.663	1999.5
1692.122	1995.83
1696.577	1995.83
1701.028	2023.17
1705.474	2059.5
1709.917	2088.17
1714.355	2105.83
1718.788	2088.17
1723.218	2080.17
1727.643	2070.17
1732.064	2051.5
1736.481	2042.83
1740.893	2012.83
1745.301	1997.5
1749.705	1962.17
1754.105	1947.5
1758.501	1918.5
1762.893	1911.83
1767.28	1902.83
1771.663	1890.83
1776.042	1895.17
1780.417	1914.83
1784.787	1943.17
1789.154	1985.83
1793.516	2037.83
1797.874	2049.17
1802.228	2090.83
1806.578	2095.5
1810.924	2098.83
1815.266	2081.17
1819.603	2054.83
1823.937	2031.5
1828.266	2008.5
1832.591	2005.5
1836.913	1974.83
1841.23	1971.83
1845.543	1958.17
1849.852	1965.17
1854.156	1972.83
1858.457	1984.5
1862.754	1981.17
1867.047	1996.17
1871.335	2010.5
1875.62	2012.83
1879.9	2022.5
1884.177	2028.5
1888.449	2029.5
1892.718	2020.5
1896.982	2017.17
1901.243	2012.83
1905.499	2020.5
1909.752	2023.83
1914	2037.17
1918.245	2052.5
1922.485	2074.83
1926.722	2082.5
1930.954	2113.17
1935.183	2130.5
1939.408	2141.17
1943.628	2154.83
1947.845	2156.17
1952.058	2162.83
1956.267	2163.83
1960.472	2134.5
1964.673	2121.5
1968.87	2116.83
1973.063	2079.83
1977.252	2069.17
1981.438	2061.83
1985.619	2058.5
1989.797	2046.17
1993.971	2048.5
1998.14	2051.83
2002.306	2053.5
2006.469	2049.17
2010.627	2058.17
2014.781	2046.83
2018.932	2062.83
2023.078	2052.83
2027.221	2033.17
2031.36	2016.17
2035.495	1994.17
2039.627	2002.17
2043.754	1984.17
2047.878	1983.17
2051.998	1982.17
2056.114	1994.17
2060.226	1986.83
2064.334	2012.17
2068.439	2025.5
2072.54	2037.5
2076.637	2050.83
2080.73	2069.5
2084.82	2076.83
2088.906	2087.17
2092.988	2098.5
2097.066	2088.17
2101.14	2090.5
2105.211	2097.5
2109.278	2079.83
2113.342	2071.5
2117.401	2071.17
2121.457	2067.83
2125.509	2079.5
2129.558	2084.17
2133.602	2070.5
2137.643	2081.17
2141.681	2089.17
2145.714	2085.5
2149.744	2079.83
2153.77	2088.17
2157.793	2076.17
2161.812	2068.5
2165.827	2051.5
2169.838	2029.83
2173.846	2021.5
2177.851	2008.17
2181.851	1982.5
2185.848	1988.17
2189.841	1981.5
2193.831	1972.17
2197.817	1971.83
2201.799	1989.83
2205.778	1995.5
2209.753	1993.17
2213.725	2004.5
2217.693	2022.17
2221.657	2031.17
2225.618	2047.17
2229.575	2049.17
2233.529	2056.83
2237.479	2058.5
2241.425	2052.83
2245.368	2035.17
2249.307	2025.5
2253.243	2028.5
2257.175	2020.17
2261.104	2017.17
2265.029	2003.83
2268.95	2001.5
2272.868	1991.83
2276.783	2001.17
2280.694	1998.83
2284.601	1987.5
2288.505	1991.83
2292.405	1988.17
2296.302	1969.17
2300.195	1974.83
2304.085	1958.83
2307.971	1941.5
2311.854	1927.17
2315.734	1912.17
2319.609	1910.17
2323.482	1892.5
2327.351	1883.17
2331.216	1873.83
2335.078	1877.83
2338.937	1871.17
2342.792	1872.5
2346.643	1872.83
2350.492	1885.17
2354.336	1901.83
2358.178	1902.5
2362.015	1924.5
2365.85	1909.83
2369.681	1941.83
2373.508	1947.83
2377.333	1960.5
2381.153	1955.83
2384.971	1958.17
2388.785	1950.5
2392.595	1949.5
2396.402	1951.5
2400.206	1942.17
2404.007	1948.83
2407.804	1958.83
2411.597	1964.5
2415.388	1957.83
2419.174	1965.83
2422.958	1964.83
2426.738	1962.17
2430.515	1959.5
2434.289	1966.5
2438.059	1973.5
2441.825	1977.17
2445.589	1969.83
2449.349	1973.5
2453.106	1962.5
2456.859	1964.17
2460.61	1954.17
2464.356	1954.17
2468.1	1959.17
2471.84	1959.83
2475.577	1961.5
2479.311	1972.83
2483.041	1973.5
2486.768	1980.5
2490.492	1987.83
2494.213	2012.5
2497.93	2010.5
2501.644	2035.83
2505.355	2037.83
2509.062	2048.83
2512.766	2045.17
2516.467	2060.5
2520.165	2074.83
2523.859	2059.5
2527.551	2060.17
2531.239	2069.5
2534.923	2076.5
2538.605	2068.17
2542.283	2067.17
2545.958	2076.5
2549.63	2087.17
2553.299	2101.83
2556.964	2103.5
2560.626	2095.17
2564.285	2105.5
2567.941	2102.83
2571.594	2097.17
2575.243	2087.5
2578.89	2099.17
2582.533	2095.83
2586.173	2108.83
2589.809	2097.17
2593.443	2090.5
2597.073	2097.5
2600.701	2104.83
2604.325	2091.5
2607.946	2091.5
2611.564	2106.17
2615.178	2122.17
2618.79	2112.5
2622.398	2122.83
2626.004	2120.17
2629.606	2105.83
2633.205	2106.83
2636.801	2085.17
2640.394	2074.83
2643.983	2070.83
2647.57	2050.83
2651.153	2057.5
2654.734	2035.17
2658.311	2028.17
2661.885	2010.83
2665.456	2008.83
2669.025	2007.83
2672.589	1997.17
2676.151	2002.5
2679.71	2005.83
2683.266	1986.17
2686.819	1971.17
2690.368	1960.5
2693.915	1946.83
2697.458	1930.5
2700.999	1927.17
2704.536	1916.17
2708.071	1897.17
2711.602	1888.5
2715.13	1878.5
2718.656	1885.17
2722.178	1876.17
2725.697	1872.17
2729.214	1886.17
2732.727	1899.83
2736.237	1931.5
2739.744	1929.83
2743.249	1959.17
2746.75	1974.5
2750.248	1988.5
2753.743	2002.83
2757.236	2017.83
2760.725	2033.17
2764.211	2017.17
2767.695	2030.5
2771.175	2022.17
2774.652	2013.83
2778.127	2012.17
2781.598	2006.17
2785.067	1988.5
2788.532	1992.17
2791.995	1986.83
2795.455	1990.83
2798.911	1995.5
2802.365	1997.5
2805.816	1985.17
2809.264	1980.17
2812.709	1974.5
2816.151	1954.5
2819.59	1960.5
2823.026	1953.17
2826.46	1951.17
2829.89	1947.83
2833.318	1934.5
2836.742	1941.17
2840.164	1933.83
2843.583	1934.5
2846.999	1936.5
2850.412	1937.5
2853.822	1934.17
2857.229	1947.83
2860.634	1947.83
2864.035	1948.83
2867.434	1951.17
2870.83	1960.17
2874.223	1963.5
2877.613	1954.5
2881	1938.17
2884.385	1926.83
2887.766	1897.83
2891.145	1900.5
2894.521	1886.17
2897.894	1872.83
2901.264	1857.5
2904.631	1845.83
2907.996	1838.5
2911.358	1823.5
2914.717	1826.83
2918.073	1802.17
2921.426	1805.5
2924.777	1792.5
2928.124	1789.5
2931.469	1792.83
2934.811	1794.5
2938.15	1775.5
2941.487	1773.17
2944.821	1761.83
2948.152	1759.17
2951.48	1738.5
2954.805	1731.83
2958.128	1727.5
2961.447	1715.83
2964.765	1712.83
2968.079	1701.5
2971.39	1709.17
2974.699	1707.17
2978.005	1708.83
2981.308	1709.83
2984.609	1713.5
2987.907	1721.5
2991.202	1723.83
2994.494	1735.17
2997.784	1738.5
3001.07	1741.17
3004.355	1736.83
3007.636	1735.83
3010.915	1726.5
3014.191	1709.83
3017.464	1703.83
3020.734	1685.17
3024.002	1674.17
3027.267	1654.83
3030.53	1635.17
3033.789	1610.17
3037.046	1590.83
3040.301	1575.5
3043.552	1565.83
3046.801	1565.5
3050.048	1555.5
3053.291	1553.83
3056.532	1543.17
3059.771	1553.17
3063.006	1539.5
3066.239	1550.83
3069.469	1542.5
3072.697	1541.83
3075.922	1538.5
3079.144	1537.83
3082.364	1524.17
3085.581	1525.83
3088.795	1513.17
3092.007	1499.5
3095.216	1494.17
3098.423	1490.83
3101.627	1474.17
3104.828	1468.17
3108.026	1460.83
3111.222	1452.83
3114.416	1447.5
3117.607	1445.5
3120.795	1442.83
3123.98	1434.17
3127.163	1428.83
3130.344	1427.5
3133.521	1431.17
3136.696	1429.17
3139.869	1420.83
3143.039	1410.83
3146.206	1402.5
3149.371	1391.17
3152.533	1385.17
3155.693	1365.83
3158.85	1353.17
3162.005	1337.17
3165.157	1320.83
3168.306	1312.5
3171.453	1294.83
3174.597	1284.17
3177.739	1259.17
3180.878	1249.83
3184.014	1240.83
3187.149	1226.5
3190.28	1214.83
3193.409	1211.83
3196.536	1201.17
3199.659	1203.83
3202.781	1181.83
3205.9	1183.83
3209.016	1179.5
3212.13	1172.83
3215.241	1161.5
3218.35	1149.83
3221.456	1131.17
3224.56	1120.17
3227.661	1112.17
3230.76	1100.83
3233.856	1090.83
3236.95	1080.83
3240.041	1063.83
3243.13	1061.83
3246.216	1056.17
3249.3	1048.17
3252.382	1043.5
3255.46	1043.17
3258.537	1023.17
3261.611	1028.5
3264.682	1027.83
3267.751	1034.83
3270.818	1024.17
3273.882	1024.5
3276.943	1018.83
3280.002	1015.83
3283.059	997.83
3286.113	994.83
3289.165	976.5
3292.214	975.5
3295.261	963.5
3298.306	948.5
3301.348	943.5
3304.387	926.17
3307.425	914.83
3310.459	909.17
3313.492	895.17
3316.521	876.83
3319.549	873.5
3322.574	871.17
3325.597	862.5
3328.617	854.17
3331.635	843.83
3334.65	852.17
3337.663	846.5
3340.674	839.5
3343.682	834.17
3346.688	846.17
3349.691	821.83
3352.692	817.17
3355.691	819.17
3358.687	816.83
3361.681	803.17
3364.673	798.83
3367.662	786.17
3370.649	781.17
3373.633	772.17
3376.615	753.17
3379.595	751.17
3382.572	748.17
3385.547	729.17
3388.52	725.17
3391.49	713.17
3394.458	711.5
3397.424	699.17
3400.387	693.83
3403.348	691.17
3406.307	689.5
3409.263	677.83
3412.217	681.17
3415.168	670.5
3418.118	671.5
3421.065	670.5
3424.009	666.5
3426.951	654.5
3429.891	651.17
3432.829	644.5
3435.764	634.83
3438.697	630.17
3441.628	622.5
3444.557	610.83
3447.483	606.17
3450.407	601.83
3453.328	587.83
3456.247	577.5
3459.164	567.83
3462.079	556.83
3464.991	550.17
3467.902	540.5
3470.809	533.17
3473.715	526.5
3476.618	527.17
3479.519	514.5
3482.418	516.5
3485.315	509.17
3488.209	507.5
3491.101	500.17
3493.99	496.17
3496.878	487.17
3499.763	486.5
3502.646	482.83
3505.527	479.17
3508.405	470.83
3511.281	460.83
3514.155	454.83
3517.027	445.83
3519.897	438.17
3522.764	432.83
3525.629	421.5
3528.492	412.5
3531.352	406.83
3534.211	395.17
3537.067	388.17
3539.921	376.17
3542.773	370.17
3545.622	365.17
3548.469	353.5
3551.315	347.17
3554.157	341.17
3556.998	337.17
3559.837	329.83
3562.673	324.83
3565.507	321.83
3568.339	317.17
3571.169	315.83
3573.996	308.83
3576.822	300.83
3579.645	295.17
3582.466	291.5
3585.285	284.5
3588.101	279.5
3590.916	272.83
3593.728	265.5
3596.538	260.5
3599.346	252.83
3602.152	249.17
3604.956	252.17
3607.757	242.83
3610.556	240.83
3613.354	233.5
3616.149	227.5
3618.942	224.83
3621.732	224.5
3624.521	223.83
3627.307	220.17
3630.092	214.83
3632.874	212.83
3635.654	217.17
3638.432	210.83
3641.208	210.5
3643.982	205.83
3646.753	199.5
3649.523	200.83
3652.29	194.5
3655.055	191.17
3657.818	186.83
3660.579	184.83
3663.338	181.17
3666.095	176.83
3668.849	177.5
3671.602	173.83
3674.352	173.83
3677.101	167.5
3679.847	168.5
3682.591	168.17
3685.333	160.5
3688.073	161.5
3690.811	160.17
3693.547	163.17
3696.281	157.17
3699.013	160.17
3701.742	158.83
3704.47	157.83
3707.195	159.17
3709.919	155.5
3712.64	154.5
3715.359	157.5
3718.076	149.5
3720.792	150.83
3723.505	144.5
3726.216	144.5
3728.925	143.17
3731.632	140.5
3734.336	136.83
3737.039	138.83
3739.74	132.83
3742.439	131.17
3745.136	131.5
3747.83	129.83
3750.523	129.83
3753.213	125.83
3755.902	126.5
3758.589	126.83
3761.273	125.17
3763.956	124.5
3766.636	125.5
3769.315	119.83
3771.991	118.83
3774.665	116.83
3777.338	113.5
3780.008	114.83
3782.677	109.5
3785.343	109.17
3788.007	104.5
3790.67	100.83
3793.33	98.17
3795.989	99.17
3798.645	95.83
3801.299	96.17
3803.952	94.5
3806.602	92.17
3809.251	91.5
3811.897	90.5
3814.542	88.83
3817.184	84.5
3819.825	83.17
3822.463	80.83
3825.1	80.83
3827.735	76.5
3830.367	76.83
3832.998	72.5
3835.627	71.5
3838.253	67.5
3840.878	66.83
3843.501	63.83
3846.122	59.5
3848.741	59.83
3851.358	54.5
3853.973	53.83
3856.586	50.83
3859.197	49.17
3861.806	48.5
3864.414	42.5
3867.019	44.5
3869.622	41.17
3872.224	40.17
3874.823	40.17
3877.421	37.17
3880.016	34.17
3882.61	34.83
3885.202	31.5
3887.792	28.17
3890.38	25.5
3892.966	21.83
3895.55	20.83
3898.132	15.17
3900.713	14.5
3903.291	12.5
3905.868	9.17
3908.442	8.5
3911.015	5.17
3913.586	4.83
3916.155	5.17
3918.722	2.83
3921.287	-0.17
3923.85	-0.5
3926.411	-0.83
3928.971	-2.5
3931.528	-2.83
3934.084	-5.5
3936.638	-2.83
3939.19	-7.83
3941.74	-6.17
3944.288	-5.5
3946.834	-9.83
3949.378	-8.83
3951.921	-10.83
3954.462	-9.83
3957	-11.83
3959.537	-7.83
3962.072	-9.17
3964.606	-10.83
3967.137	-11.5
3969.667	-11.5
3972.194	-12.83
3974.72	-11.83
3977.244	-14.83
3979.766	-12.17
3982.286	-11.5
3984.805	-11.83
3987.321	-11.83
3989.836	-13.17
3992.349	-12.83
3994.86	-11.17
3997.369	-13.17
3999.877	-13.83
4002.382	-12.17
4004.886	-14.17
4007.388	-14.5
4009.888	-17.83
4012.386	-17.17
4014.883	-14.17
4017.377	-17.5
4019.87	-15.83
4022.361	-18.83
4024.85	-17.17
4027.338	-17.83
4029.823	-17.17
4032.307	-16.83
4034.789	-17.17
4037.269	-19.83
4039.747	-21.17
4042.224	-19.83
4044.699	-20.17
4047.172	-22.17
4049.643	-22.83
4052.112	-22.5
4054.58	-22.17
4057.046	-25.17
4059.51	-23.5
4061.972	-28.17
4064.432	-23.5
4066.891	-25.5
4069.348	-25.5
4071.803	-25.5
4074.256	-25.5
4076.708	-26.83
4079.158	-25.5
4081.606	-28.17
4084.052	-24.83
4086.497	-25.5
4088.939	-26.17
4091.38	-24.5
4093.819	-25.5
4096.257	-36.5
4098.693	-36.83
4101.127	-37.17
4103.559	-38.17
4105.989	-17.83
4108.418	-16.17
4110.845	-15.83
4113.27	-11.5
4115.694	-8.17
4118.115	-7.83
4120.535	-27.5
4122.954	-24.5
4125.37	-26.17
4127.785	-25.5
4130.198	-28.17
4132.609	-28.5
4135.019	-37.83
4137.427	-38.17
4139.833	-37.17
4142.237	-37.17
