Data from bs1_RamanShift_3.txt Node
Date: Tue Oct 17 17:36:09 IDT 2017
User: aro
Spectrometer: QEPB0276
Trigger mode: 0
Integration Time (sec): 5.000000E0
Scans to average: 3
Electric dark correction enabled: true
Nonlinearity correction enabled: false
Boxcar width: 0
XAxis mode: Raman Shifts
Number of Pixels in Spectrum: 1044
>>>>>Begin Spectral Data<<<<<
160.701	-2.08
166.742	6.58
172.777	25.25
178.805	84.58
184.826	244.92
190.841	532.25
196.849	887.25
202.85	1160.25
208.845	1276.25
214.833	1307.92
220.815	1326.25
226.789	1347.92
232.758	1390.92
238.719	1417.25
244.674	1436.25
250.623	1451.25
256.565	1455.58
262.5	1455.25
268.429	1457.92
274.351	1473.58
280.267	1478.58
286.176	1495.92
292.079	1507.25
297.975	1526.25
303.865	1544.58
309.748	1559.25
315.625	1542.25
321.495	1530.25
327.359	1510.25
333.217	1492.25
339.068	1490.58
344.912	1479.25
350.751	1462.58
356.583	1462.25
362.408	1443.58
368.227	1433.92
374.04	1428.58
379.847	1435.25
385.647	1442.58
391.44	1419.25
397.228	1408.58
403.009	1407.58
408.784	1405.25
414.553	1423.58
420.315	1432.92
426.071	1430.25
431.821	1402.58
437.565	1367.58
443.302	1336.92
449.033	1334.92
454.758	1313.25
460.477	1292.58
466.189	1275.25
471.896	1259.92
477.596	1230.25
483.29	1208.92
488.978	1197.58
494.66	1160.92
500.335	1121.58
506.005	1104.92
511.668	1127.58
517.325	1225.25
522.977	1369.25
528.622	1501.25
534.261	1544.25
539.894	1515.25
545.521	1479.92
551.141	1450.92
556.756	1435.25
562.365	1411.25
567.968	1393.25
573.565	1377.58
579.155	1365.25
584.74	1355.92
590.319	1338.92
595.892	1321.58
601.459	1310.25
607.02	1291.25
612.575	1267.25
618.124	1268.25
623.667	1283.58
629.204	1292.92
634.735	1298.92
640.261	1300.92
645.781	1316.58
651.294	1316.25
656.802	1325.92
662.304	1316.25
667.8	1308.25
673.29	1312.58
678.775	1302.92
684.254	1302.92
689.726	1294.58
695.193	1286.92
700.655	1285.58
706.11	1282.58
711.56	1272.58
717.004	1266.92
722.442	1269.92
727.874	1263.92
733.301	1264.25
738.722	1266.25
744.137	1270.25
749.547	1273.25
754.951	1272.25
760.349	1286.58
765.741	1287.25
771.128	1275.92
776.509	1284.25
781.885	1283.25
787.254	1280.25
792.618	1289.92
797.977	1287.58
803.33	1289.58
808.677	1284.25
814.019	1289.25
819.355	1282.58
824.686	1270.25
830.011	1276.58
835.33	1284.58
840.644	1291.92
845.952	1293.25
851.255	1295.92
856.552	1312.25
861.844	1311.58
867.13	1314.25
872.41	1323.92
877.686	1321.92
882.955	1319.58
888.219	1308.58
893.478	1301.92
898.731	1300.58
903.979	1291.25
909.221	1299.25
914.458	1296.58
919.69	1310.58
924.916	1326.25
930.136	1351.92
935.351	1369.58
940.561	1396.58
945.766	1411.92
950.965	1415.92
956.158	1407.58
961.347	1390.92
966.529	1378.92
971.707	1354.92
976.879	1342.25
982.046	1335.25
987.208	1324.25
992.364	1326.58
997.515	1320.25
1002.66	1317.25
1007.801	1334.25
1012.936	1343.92
1018.066	1340.58
1023.19	1351.58
1028.309	1361.25
1033.423	1362.25
1038.532	1348.92
1043.636	1345.92
1048.734	1326.92
1053.827	1312.92
1058.915	1306.58
1063.998	1293.58
1069.075	1294.25
1074.147	1312.58
1079.214	1306.58
1084.276	1317.58
1089.333	1328.25
1094.385	1340.25
1099.431	1346.92
1104.472	1346.92
1109.509	1345.92
1114.54	1341.58
1119.565	1323.25
1124.586	1309.25
1129.602	1296.25
1134.613	1307.58
1139.618	1290.25
1144.619	1291.25
1149.614	1298.58
1154.604	1303.92
1159.589	1309.92
1164.57	1307.58
1169.545	1319.92
1174.515	1317.25
1179.48	1321.58
1184.44	1307.25
1189.395	1303.58
1194.345	1293.25
1199.29	1285.58
1204.23	1289.25
1209.165	1295.92
1214.095	1303.58
1219.021	1314.58
1223.941	1319.92
1228.856	1335.58
1233.766	1338.58
1238.672	1336.58
1243.572	1338.92
1248.467	1323.92
1253.358	1310.92
1258.244	1302.25
1263.124	1282.58
1268	1268.58
1272.871	1262.92
1277.737	1256.25
1282.599	1256.25
1287.455	1252.58
1292.306	1255.25
1297.153	1267.92
1301.995	1279.58
1306.832	1281.25
1311.664	1286.58
1316.491	1291.25
1321.314	1288.25
1326.132	1267.58
1330.945	1257.25
1335.753	1230.25
1340.556	1202.25
1345.354	1182.58
1350.148	1176.58
1354.937	1170.58
1359.722	1181.92
1364.501	1213.92
1369.276	1239.25
1374.046	1264.25
1378.811	1281.58
1383.572	1275.58
1388.327	1267.92
1393.079	1252.25
1397.825	1233.25
1402.567	1202.58
1407.304	1187.25
1412.036	1177.25
1416.764	1158.92
1421.487	1169.58
1426.205	1170.92
1430.919	1171.92
1435.628	1178.58
1440.333	1187.58
1445.032	1195.58
1449.727	1202.58
1454.418	1204.25
1459.104	1195.92
1463.785	1190.58
1468.462	1184.92
1473.134	1168.25
1477.802	1169.92
1482.465	1161.58
1487.123	1164.58
1491.777	1174.25
1496.426	1188.58
1501.071	1197.92
1505.711	1212.58
1510.347	1233.92
1514.978	1252.58
1519.604	1263.58
1524.226	1266.25
1528.844	1255.92
1533.457	1261.58
1538.065	1255.58
1542.669	1243.58
1547.269	1233.58
1551.864	1234.58
1556.454	1221.58
1561.041	1218.92
1565.622	1210.58
1570.199	1206.92
1574.772	1207.25
1579.34	1215.58
1583.904	1209.92
1588.464	1212.92
1593.019	1205.58
1597.569	1198.92
1602.115	1186.58
1606.657	1173.25
1611.195	1166.58
1615.728	1150.25
1620.256	1139.25
1624.78	1143.25
1629.3	1134.92
1633.816	1149.58
1638.327	1146.58
1642.834	1163.25
1647.336	1177.58
1651.834	1188.25
1656.328	1196.25
1660.817	1203.92
1665.302	1208.92
1669.783	1205.92
1674.259	1209.58
1678.732	1200.25
1683.199	1183.92
1687.663	1158.58
1692.122	1153.92
1696.577	1158.25
1701.028	1174.58
1705.474	1205.92
1709.917	1227.92
1714.355	1233.92
1718.788	1215.58
1723.218	1209.58
1727.643	1210.58
1732.064	1201.92
1736.481	1196.25
1740.893	1179.25
1745.301	1170.92
1749.705	1160.92
1754.105	1138.25
1758.501	1130.92
1762.893	1112.92
1767.28	1116.92
1771.663	1117.25
1776.042	1118.92
1780.417	1126.25
1784.787	1149.25
1789.154	1174.25
1793.516	1195.92
1797.874	1221.58
1802.228	1240.92
1806.578	1251.92
1810.924	1252.92
1815.266	1237.58
1819.603	1226.25
1823.937	1218.25
1828.266	1203.58
1832.591	1191.92
1836.913	1188.92
1841.23	1181.92
1845.543	1177.92
1849.852	1182.92
1854.156	1188.92
1858.457	1194.25
1862.754	1195.92
1867.047	1206.58
1871.335	1218.92
1875.62	1213.92
1879.9	1228.25
1884.177	1230.25
1888.449	1229.92
1892.718	1229.58
1896.982	1222.58
1901.243	1237.58
1905.499	1226.58
1909.752	1241.92
1914	1238.92
1918.245	1261.58
1922.485	1269.92
1926.722	1291.58
1930.954	1296.25
1935.183	1314.25
1939.408	1328.25
1943.628	1329.58
1947.845	1340.58
1952.058	1333.25
1956.267	1339.58
1960.472	1339.25
1964.673	1320.58
1968.87	1317.92
1973.063	1306.92
1977.252	1294.92
1981.438	1296.58
1985.619	1286.92
1989.797	1291.25
1993.971	1289.58
1998.14	1287.25
2002.306	1286.58
2006.469	1301.92
2010.627	1292.92
2014.781	1297.58
2018.932	1315.25
2023.078	1293.92
2027.221	1285.58
2031.36	1276.25
2035.495	1275.58
2039.627	1275.58
2043.754	1270.58
2047.878	1267.92
2051.998	1274.58
2056.114	1281.25
2060.226	1287.92
2064.334	1294.25
2068.439	1299.25
2072.54	1310.92
2076.637	1318.58
2080.73	1343.92
2084.82	1348.58
2088.906	1358.25
2092.988	1357.25
2097.066	1360.58
2101.14	1363.92
2105.211	1364.25
2109.278	1361.58
2113.342	1361.92
2117.401	1358.58
2121.457	1377.25
2125.509	1379.92
2129.558	1371.92
2133.602	1378.92
2137.643	1378.92
2141.681	1383.92
2145.714	1397.25
2149.744	1392.58
2153.77	1384.25
2157.793	1379.25
2161.812	1377.92
2165.827	1372.58
2169.838	1356.92
2173.846	1365.92
2177.851	1347.25
2181.851	1342.92
2185.848	1340.92
2189.841	1335.25
2193.831	1337.58
2197.817	1332.58
2201.799	1344.92
2205.778	1343.92
2209.753	1343.58
2213.725	1360.58
2217.693	1377.25
2221.657	1383.25
2225.618	1389.58
2229.575	1394.92
2233.529	1401.92
2237.479	1400.58
2241.425	1403.25
2245.368	1394.92
2249.307	1397.25
2253.243	1395.25
2257.175	1387.92
2261.104	1387.58
2265.029	1387.25
2268.95	1398.25
2272.868	1391.25
2276.783	1383.25
2280.694	1385.92
2284.601	1382.92
2288.505	1376.92
2292.405	1378.92
2296.302	1370.58
2300.195	1380.25
2304.085	1367.92
2307.971	1367.58
2311.854	1359.92
2315.734	1345.58
2319.609	1347.25
2323.482	1328.58
2327.351	1319.92
2331.216	1321.58
2335.078	1328.25
2338.937	1323.58
2342.792	1324.92
2346.643	1325.25
2350.492	1330.92
2354.336	1356.25
2358.178	1349.25
2362.015	1374.58
2365.85	1374.25
2369.681	1385.25
2373.508	1391.92
2377.333	1391.25
2381.153	1398.92
2384.971	1403.25
2388.785	1403.92
2392.595	1409.58
2396.402	1412.58
2400.206	1400.25
2404.007	1408.25
2407.804	1408.92
2411.597	1415.58
2415.388	1418.92
2419.174	1424.92
2422.958	1423.58
2426.738	1428.25
2430.515	1431.58
2434.289	1429.92
2438.059	1436.58
2441.825	1441.25
2445.589	1449.58
2449.349	1443.58
2453.106	1445.92
2456.859	1439.25
2460.61	1455.25
2464.356	1448.25
2468.1	1445.92
2471.84	1448.25
2475.577	1454.25
2479.311	1468.92
2483.041	1466.58
2486.768	1485.92
2490.492	1492.92
2494.213	1499.25
2497.93	1509.58
2501.644	1515.25
2505.355	1530.25
2509.062	1536.92
2512.766	1537.25
2516.467	1553.92
2520.165	1555.92
2523.859	1568.25
2527.551	1552.25
2531.239	1572.58
2534.923	1579.58
2538.605	1571.58
2542.283	1579.25
2545.958	1591.25
2549.63	1597.25
2553.299	1604.25
2556.964	1609.92
2560.626	1614.92
2564.285	1617.25
2567.941	1625.58
2571.594	1629.58
2575.243	1629.92
2578.89	1633.92
2582.533	1624.58
2586.173	1642.92
2589.809	1645.58
2593.443	1632.25
2597.073	1640.92
2600.701	1645.92
2604.325	1638.25
2607.946	1648.92
2611.564	1666.58
2615.178	1666.58
2618.79	1676.25
2622.398	1673.25
2626.004	1673.58
2629.606	1670.25
2633.205	1676.92
2636.801	1668.25
2640.394	1667.92
2643.983	1661.25
2647.57	1654.58
2651.153	1644.58
2654.734	1644.58
2658.311	1644.92
2661.885	1635.58
2665.456	1631.92
2669.025	1633.58
2672.589	1627.92
2676.151	1627.25
2679.71	1631.58
2683.266	1620.58
2686.819	1611.92
2690.368	1606.58
2693.915	1595.58
2697.458	1586.92
2700.999	1586.92
2704.536	1575.25
2708.071	1570.25
2711.602	1565.58
2715.13	1560.58
2718.656	1558.25
2722.178	1564.92
2725.697	1573.92
2729.214	1561.58
2732.727	1598.58
2736.237	1615.58
2739.744	1623.25
2743.249	1652.25
2746.75	1660.92
2750.248	1691.92
2753.743	1700.25
2757.236	1712.92
2760.725	1714.58
2764.211	1728.58
2767.695	1730.92
2771.175	1734.92
2774.652	1730.58
2778.127	1726.92
2781.598	1724.92
2785.067	1718.58
2788.532	1724.92
2791.995	1713.58
2795.455	1720.92
2798.911	1736.92
2802.365	1725.58
2805.816	1721.58
2809.264	1711.25
2812.709	1720.58
2816.151	1718.92
2819.59	1709.58
2823.026	1712.92
2826.46	1712.25
2829.89	1716.25
2833.318	1703.25
2836.742	1712.92
2840.164	1698.58
2843.583	1711.92
2846.999	1719.58
2850.412	1716.92
2853.822	1710.92
2857.229	1725.58
2860.634	1730.25
2864.035	1729.25
2867.434	1743.25
2870.83	1746.25
2874.223	1743.25
2877.613	1738.92
2881	1741.25
2884.385	1716.25
2887.766	1719.92
2891.145	1709.58
2894.521	1698.25
2897.894	1691.25
2901.264	1678.25
2904.631	1676.92
2907.996	1665.58
2911.358	1660.92
2914.717	1655.58
2918.073	1640.92
2921.426	1630.58
2924.777	1637.25
2928.124	1627.92
2931.469	1634.92
2934.811	1635.92
2938.15	1631.25
2941.487	1623.92
2944.821	1611.92
2948.152	1613.25
2951.48	1602.92
2954.805	1598.25
2958.128	1581.92
2961.447	1581.25
2964.765	1572.58
2968.079	1569.92
2971.39	1575.92
2974.699	1577.25
2978.005	1571.25
2981.308	1581.58
2984.609	1597.92
2987.907	1603.25
2991.202	1600.58
2994.494	1619.58
2997.784	1617.58
3001.07	1620.58
3004.355	1619.92
3007.636	1624.58
3010.915	1615.58
3014.191	1606.92
3017.464	1591.58
3020.734	1589.58
3024.002	1570.58
3027.267	1543.58
3030.53	1536.58
3033.789	1511.25
3037.046	1499.92
3040.301	1494.25
3043.552	1472.25
3046.801	1481.25
3050.048	1469.58
3053.291	1468.25
3056.532	1465.58
3059.771	1456.25
3063.006	1454.92
3066.239	1458.58
3069.469	1457.25
3072.697	1462.58
3075.922	1455.58
3079.144	1436.58
3082.364	1452.25
3085.581	1447.25
3088.795	1432.58
3092.007	1423.58
3095.216	1418.25
3098.423	1405.25
3101.627	1416.25
3104.828	1394.92
3108.026	1387.58
3111.222	1381.92
3114.416	1377.58
3117.607	1376.58
3120.795	1377.58
3123.98	1367.58
3127.163	1363.92
3130.344	1367.92
3133.521	1368.92
3136.696	1356.25
3139.869	1350.58
3143.039	1348.25
3146.206	1338.92
3149.371	1334.92
3152.533	1312.92
3155.693	1296.58
3158.85	1296.25
3162.005	1275.58
3165.157	1267.92
3168.306	1246.92
3171.453	1228.25
3174.597	1228.58
3177.739	1203.58
3180.878	1196.92
3184.014	1188.92
3187.149	1182.25
3190.28	1171.58
3193.409	1166.58
3196.536	1151.58
3199.659	1152.58
3202.781	1145.92
3205.9	1142.25
3209.016	1130.92
3212.13	1131.58
3215.241	1116.92
3218.35	1096.92
3221.456	1099.92
3224.56	1086.92
3227.661	1075.25
3230.76	1058.58
3233.856	1051.58
3236.95	1036.92
3240.041	1034.58
3243.13	1022.58
3246.216	1013.25
3249.3	1019.58
3252.382	1005.25
3255.46	1003.25
3258.537	996.92
3261.611	1008.58
3264.682	992.58
3267.751	1001.25
3270.818	988.92
3273.882	987.25
3276.943	987.25
3280.002	980.58
3283.059	969.25
3286.113	969.25
3289.165	950.25
3292.214	950.25
3295.261	932.58
3298.306	920.58
3301.348	916.58
3304.387	901.58
3307.425	886.92
3310.459	877.25
3313.492	866.92
3316.521	860.25
3319.549	844.58
3322.574	837.25
3325.597	832.25
3328.617	833.25
3331.635	824.58
3334.65	818.58
3337.663	820.58
3340.674	815.58
3343.682	812.92
3346.688	812.92
3349.691	803.92
3352.692	806.58
3355.691	797.92
3358.687	789.92
3361.681	787.25
3364.673	772.92
3367.662	767.25
3370.649	759.92
3373.633	755.58
3376.615	736.92
3379.595	733.25
3382.572	728.25
3385.547	716.58
3388.52	716.58
3391.49	702.25
3394.458	691.92
3397.424	687.25
3400.387	684.25
3403.348	675.25
3406.307	675.92
3409.263	671.92
3412.217	663.92
3415.168	654.92
3418.118	653.92
3421.065	656.58
3424.009	648.58
3426.951	640.58
3429.891	636.92
3432.829	636.58
3435.764	619.58
3438.697	624.25
3441.628	610.58
3444.557	601.25
3447.483	594.25
3450.407	586.92
3453.328	579.92
3456.247	561.25
3459.164	557.92
3462.079	548.58
3464.991	538.25
3467.902	530.25
3470.809	528.92
3473.715	526.25
3476.618	514.92
3479.519	512.58
3482.418	508.92
3485.315	501.58
3488.209	492.25
3491.101	492.92
3493.99	483.58
3496.878	477.58
3499.763	483.25
3502.646	473.25
3505.527	464.92
3508.405	464.58
3511.281	457.92
3514.155	446.92
3517.027	444.58
3519.897	431.92
3522.764	425.92
3525.629	418.92
3528.492	407.25
3531.352	396.25
3534.211	385.92
3537.067	381.92
3539.921	375.25
3542.773	362.92
3545.622	361.58
3548.469	352.25
3551.315	347.25
3554.157	339.92
3556.998	338.92
3559.837	331.25
3562.673	329.92
3565.507	322.25
3568.339	319.25
3571.169	317.58
3573.996	308.58
3576.822	304.92
3579.645	296.25
3582.466	298.92
3585.285	286.92
3588.101	281.25
3590.916	276.25
3593.728	267.58
3596.538	265.25
3599.346	259.92
3602.152	256.58
3604.956	250.25
3607.757	242.92
3610.556	240.92
3613.354	236.58
3616.149	233.92
3618.942	232.25
3621.732	229.58
3624.521	223.58
3627.307	224.92
3630.092	219.92
3632.874	222.58
3635.654	221.58
3638.432	217.25
3641.208	210.25
3643.982	209.25
3646.753	210.58
3649.523	204.92
3652.29	202.58
3655.055	197.92
3657.818	193.25
3660.579	190.92
3663.338	189.25
3666.095	189.58
3668.849	180.25
3671.602	180.58
3674.352	176.25
3677.101	174.58
3679.847	172.58
3682.591	170.92
3685.333	172.25
3688.073	166.92
3690.811	167.25
3693.547	168.92
3696.281	164.92
3699.013	165.58
3701.742	163.92
3704.47	168.25
3707.195	167.58
3709.919	162.58
3712.64	160.92
3715.359	161.58
3718.076	157.92
3720.792	156.25
3723.505	155.25
3726.216	151.58
3728.925	151.25
3731.632	148.92
3734.336	145.25
3737.039	140.92
3739.74	140.58
3742.439	142.92
3745.136	140.58
3747.83	137.92
3750.523	140.58
3753.213	136.58
3755.902	133.58
3758.589	133.25
3761.273	131.25
3763.956	131.58
3766.636	129.58
3769.315	126.58
3771.991	127.25
3774.665	123.25
3777.338	120.25
3780.008	118.25
3782.677	115.58
3785.343	112.25
3788.007	111.58
3790.67	107.25
3793.33	104.58
3795.989	102.58
3798.645	102.25
3801.299	99.25
3803.952	96.92
3806.602	99.92
3809.251	96.92
3811.897	98.25
3814.542	96.92
3817.184	92.58
3819.825	95.58
3822.463	90.58
3825.1	86.92
3827.735	87.92
3830.367	86.58
3832.998	81.25
3835.627	83.58
3838.253	77.25
3840.878	73.92
3843.501	72.25
3846.122	67.25
3848.741	67.92
3851.358	67.58
3853.973	61.58
3856.586	62.58
3859.197	60.58
3861.806	56.58
3864.414	55.25
3867.019	57.25
3869.622	50.58
3872.224	52.25
3874.823	49.92
3877.421	48.25
3880.016	46.25
3882.61	44.92
3885.202	44.92
3887.792	39.92
3890.38	35.25
3892.966	30.25
3895.55	26.58
3898.132	24.92
3900.713	25.92
3903.291	20.92
3905.868	20.92
3908.442	19.92
3911.015	18.25
3913.586	14.25
3916.155	13.25
3918.722	11.58
3921.287	7.58
3923.85	7.58
3926.411	9.92
3928.971	5.92
3931.528	4.92
3934.084	3.25
3936.638	4.25
3939.19	3.58
3941.74	2.92
3944.288	-0.08
3946.834	-2.75
3949.378	-1.42
3951.921	-2.75
3954.462	-5.08
3957	-2.75
3959.537	-1.08
3962.072	-3.08
3964.606	-3.42
3967.137	-4.75
3969.667	-4.08
3972.194	-6.42
3974.72	-4.08
3977.244	-2.75
3979.766	-4.42
3982.286	-4.75
3984.805	-4.42
3987.321	-4.75
3989.836	-5.42
3992.349	-3.75
3994.86	-3.75
3997.369	-8.08
3999.877	-6.75
4002.382	-5.08
4004.886	-8.75
4007.388	-2.42
4009.888	-8.08
4012.386	-8.08
4014.883	-7.75
4017.377	-10.75
4019.87	-7.42
4022.361	-9.42
4024.85	-8.42
4027.338	-6.42
4029.823	-7.75
4032.307	-7.08
4034.789	-7.75
4037.269	-8.08
4039.747	-12.42
4042.224	-9.75
4044.699	-10.08
4047.172	-14.75
4049.643	-13.42
4052.112	-12.08
4054.58	-13.08
4057.046	-15.08
4059.51	-14.42
4061.972	-17.08
4064.432	-13.08
4066.891	-16.08
4069.348	-16.42
4071.803	-17.42
4074.256	-15.42
4076.708	-18.08
4079.158	-15.08
4081.606	-16.75
4084.052	-15.42
4086.497	-15.75
4088.939	-17.42
4091.38	-15.42
4093.819	-15.08
4096.257	-28.08
4098.693	-28.75
4101.127	-28.08
4103.559	-30.42
4105.989	-13.08
4108.418	-11.75
4110.845	-11.08
4113.27	-6.75
4115.694	-7.75
4118.115	-5.75
4120.535	-19.08
4122.954	-19.75
4125.37	-18.42
4127.785	-15.08
4130.198	-21.42
4132.609	-17.42
4135.019	-29.75
4137.427	-28.08
4139.833	-27.42
4142.237	-29.08
