Data from bs1_RamanShift_1.txt Node
Date: Tue Oct 17 17:33:24 IDT 2017
User: aro
Spectrometer: QEPB0276
Trigger mode: 0
Integration Time (sec): 5.000000E0
Scans to average: 3
Electric dark correction enabled: true
Nonlinearity correction enabled: false
Boxcar width: 0
XAxis mode: Raman Shifts
Number of Pixels in Spectrum: 1044
>>>>>Begin Spectral Data<<<<<
160.701	-3.46
166.742	6.54
172.777	30.54
178.805	105.21
184.826	296.54
190.841	663.54
196.849	1101.21
202.85	1460.54
208.845	1613.21
214.833	1656.88
220.815	1675.54
226.789	1728.88
232.758	1772.88
238.719	1808.54
244.674	1841.21
250.623	1866.54
256.565	1876.88
262.5	1890.88
268.429	1905.21
274.351	1921.88
280.267	1947.54
286.176	1963.88
292.079	1988.54
297.975	2014.54
303.865	2047.54
309.748	2049.54
315.625	2068.21
321.495	2046.54
327.359	2033.21
333.217	2036.88
339.068	2028.21
344.912	2017.21
350.751	2019.88
356.583	2008.88
362.408	2001.21
368.227	2004.21
374.04	1993.21
379.847	1997.54
385.647	2007.88
391.44	2010.54
397.228	1991.21
403.009	2011.88
408.784	2013.88
414.553	2029.54
420.315	2063.88
426.071	2062.54
431.821	2050.88
437.565	2020.88
443.302	2007.88
449.033	2003.88
454.758	2005.54
460.477	1990.88
466.189	1996.21
471.896	1983.88
477.596	1995.54
483.29	1987.21
488.978	1979.21
494.66	1968.54
500.335	1966.54
506.005	1988.54
511.668	2037.54
517.325	2148.21
522.977	2280.54
528.622	2315.54
534.261	2282.88
539.894	2220.88
545.521	2180.21
551.141	2137.21
556.756	2124.88
562.365	2097.21
567.968	2073.54
573.565	2064.88
579.155	2055.21
584.74	2041.88
590.319	2036.21
595.892	2027.88
601.459	2027.21
607.02	1988.54
612.575	1984.88
618.124	1976.21
623.667	1988.21
629.204	2003.54
634.735	2013.88
640.261	2013.21
645.781	2019.88
651.294	2040.88
656.802	2033.21
662.304	2027.21
667.8	2030.54
673.29	2025.88
678.775	2033.21
684.254	2025.88
689.726	2021.54
695.193	2024.88
700.655	2010.88
706.11	2015.54
711.56	2014.88
717.004	2001.54
722.442	1998.21
727.874	2009.21
733.301	2002.54
738.722	2002.88
744.137	1991.21
749.547	2014.88
754.951	2018.54
760.349	2020.88
765.741	2033.88
771.128	2036.54
776.509	2033.88
781.885	2037.54
787.254	2044.54
792.618	2047.21
797.977	2050.54
803.33	2036.21
808.677	2038.88
814.019	2038.88
819.355	2040.21
824.686	2027.21
830.011	2038.54
835.33	2049.21
840.644	2054.21
845.952	2070.21
851.255	2070.88
856.552	2096.88
861.844	2094.54
867.13	2118.88
872.41	2113.21
877.686	2119.88
882.955	2113.54
888.219	2111.88
893.478	2089.21
898.731	2089.21
903.979	2079.21
909.221	2089.21
914.458	2089.88
919.69	2108.54
924.916	2121.21
930.136	2148.54
935.351	2187.88
940.561	2206.21
945.766	2226.21
950.965	2237.21
956.158	2221.54
961.347	2208.54
966.529	2187.88
971.707	2157.21
976.879	2140.21
982.046	2129.54
987.208	2120.88
992.364	2108.54
997.515	2108.88
1002.66	2127.54
1007.801	2140.21
1012.936	2160.54
1018.066	2190.21
1023.19	2187.54
1028.309	2197.88
1033.423	2198.21
1038.532	2190.21
1043.636	2175.54
1048.734	2154.54
1053.827	2127.88
1058.915	2128.21
1063.998	2110.88
1069.075	2105.54
1074.147	2127.88
1079.214	2136.54
1084.276	2157.88
1089.333	2188.21
1094.385	2192.54
1099.431	2210.88
1104.472	2214.21
1109.509	2204.54
1114.54	2191.88
1119.565	2171.54
1124.586	2156.54
1129.602	2132.54
1134.613	2124.88
1139.618	2120.54
1144.619	2131.54
1149.614	2126.88
1154.604	2153.54
1159.589	2168.54
1164.57	2174.88
1169.545	2187.21
1174.515	2180.54
1179.48	2178.54
1184.44	2168.21
1189.395	2159.21
1194.345	2153.21
1199.29	2146.88
1204.23	2150.54
1209.165	2155.88
1214.095	2173.21
1219.021	2186.54
1223.941	2216.88
1228.856	2243.21
1233.766	2252.88
1238.672	2266.21
1243.572	2249.88
1248.467	2237.54
1253.358	2223.88
1258.244	2205.21
1263.124	2177.88
1268	2176.88
1272.871	2139.21
1277.737	2127.54
1282.599	2136.88
1287.455	2144.88
1292.306	2153.54
1297.153	2168.54
1301.995	2194.54
1306.832	2205.88
1311.664	2213.88
1316.491	2236.54
1321.314	2215.54
1326.132	2214.54
1330.945	2191.54
1335.753	2171.21
1340.556	2134.54
1345.354	2088.88
1350.148	2075.54
1354.937	2068.21
1359.722	2057.54
1364.501	2089.54
1369.276	2120.54
1374.046	2175.88
1378.811	2224.54
1383.572	2244.88
1388.327	2237.88
1393.079	2218.54
1397.825	2179.21
1402.567	2151.21
1407.304	2116.54
1412.036	2091.21
1416.764	2081.21
1421.487	2075.54
1426.205	2082.54
1430.919	2106.88
1435.628	2124.21
1440.333	2144.54
1445.032	2149.54
1449.727	2165.54
1454.418	2179.21
1459.104	2171.54
1463.785	2156.88
1468.462	2133.21
1473.134	2111.21
1477.802	2110.54
1482.465	2111.54
1487.123	2110.21
1491.777	2119.21
1496.426	2139.88
1501.071	2151.54
1505.711	2185.54
1510.347	2224.54
1514.978	2247.88
1519.604	2281.21
1524.226	2292.88
1528.844	2287.54
1533.457	2284.88
1538.065	2261.21
1542.669	2270.88
1547.269	2262.21
1551.864	2221.54
1556.454	2225.54
1561.041	2208.21
1565.622	2211.88
1570.199	2206.54
1574.772	2212.88
1579.34	2228.54
1583.904	2228.21
1588.464	2221.88
1593.019	2198.21
1597.569	2207.21
1602.115	2174.21
1606.657	2152.21
1611.195	2127.21
1615.728	2118.54
1620.256	2091.88
1624.78	2071.21
1629.3	2076.21
1633.816	2083.54
1638.327	2096.54
1642.834	2121.88
1647.336	2146.21
1651.834	2163.88
1656.328	2181.88
1660.817	2186.88
1665.302	2205.21
1669.783	2204.88
1674.259	2202.88
1678.732	2174.21
1683.199	2160.88
1687.663	2123.54
1692.122	2099.54
1696.577	2086.88
1701.028	2101.88
1705.474	2145.88
1709.917	2195.54
1714.355	2216.21
1718.788	2201.21
1723.218	2191.88
1727.643	2170.88
1732.064	2158.21
1736.481	2145.21
1740.893	2112.88
1745.301	2104.21
1749.705	2080.88
1754.105	2048.21
1758.501	2046.88
1762.893	2022.88
1767.28	2010.21
1771.663	1999.88
1776.042	2002.54
1780.417	2019.88
1784.787	2046.21
1789.154	2093.21
1793.516	2128.88
1797.874	2158.21
1802.228	2192.88
1806.578	2205.88
1810.924	2211.54
1815.266	2195.88
1819.603	2176.21
1823.937	2149.54
1828.266	2136.54
1832.591	2111.54
1836.913	2092.88
1841.23	2078.21
1845.543	2085.88
1849.852	2091.88
1854.156	2090.54
1858.457	2102.54
1862.754	2096.88
1867.047	2131.21
1871.335	2132.54
1875.62	2142.54
1879.9	2154.21
1884.177	2143.88
1888.449	2154.88
1892.718	2137.88
1896.982	2143.21
1901.243	2155.54
1905.499	2147.54
1909.752	2167.21
1914	2149.54
1918.245	2169.21
1922.485	2188.21
1926.722	2211.54
1930.954	2246.54
1935.183	2249.88
1939.408	2266.54
1943.628	2294.21
1947.845	2296.88
1952.058	2291.88
1956.267	2285.54
1960.472	2275.54
1964.673	2264.21
1968.87	2235.88
1973.063	2223.54
1977.252	2214.88
1981.438	2203.54
1985.619	2187.88
1989.797	2170.21
1993.971	2183.88
1998.14	2181.54
2002.306	2205.54
2006.469	2186.88
2010.627	2201.54
2014.781	2192.54
2018.932	2200.21
2023.078	2175.21
2027.221	2173.54
2031.36	2150.54
2035.495	2134.88
2039.627	2128.21
2043.754	2116.21
2047.878	2106.54
2051.998	2118.54
2056.114	2128.21
2060.226	2122.54
2064.334	2134.88
2068.439	2147.88
2072.54	2163.88
2076.637	2185.88
2080.73	2184.88
2084.82	2212.21
2088.906	2210.21
2092.988	2231.21
2097.066	2235.21
2101.14	2212.54
2105.211	2207.88
2109.278	2221.21
2113.342	2206.88
2117.401	2208.21
2121.457	2206.21
2125.509	2199.21
2129.558	2205.88
2133.602	2212.21
2137.643	2218.88
2141.681	2224.54
2145.714	2222.54
2149.744	2228.88
2153.77	2214.21
2157.793	2211.21
2161.812	2199.54
2165.827	2191.54
2169.838	2172.54
2173.846	2166.88
2177.851	2137.54
2181.851	2119.88
2185.848	2121.54
2189.841	2109.21
2193.831	2083.21
2197.817	2100.88
2201.799	2104.21
2205.778	2114.88
2209.753	2125.88
2213.725	2141.88
2217.693	2141.54
2221.657	2160.88
2225.618	2174.54
2229.575	2175.88
2233.529	2172.88
2237.479	2177.54
2241.425	2168.88
2245.368	2158.54
2249.307	2157.54
2253.243	2147.54
2257.175	2135.21
2261.104	2130.88
2265.029	2123.54
2268.95	2132.21
2272.868	2127.88
2276.783	2114.54
2280.694	2112.54
2284.601	2101.88
2288.505	2097.21
2292.405	2082.21
2296.302	2093.88
2300.195	2079.54
2304.085	2074.88
2307.971	2065.21
2311.854	2044.54
2315.734	2019.54
2319.609	2004.54
2323.482	1984.88
2327.351	1987.21
2331.216	1972.88
2335.078	1964.88
2338.937	1956.54
2342.792	1970.88
2346.643	1967.21
2350.492	1977.88
2354.336	1985.54
2358.178	2003.54
2362.015	2024.21
2365.85	2034.21
2369.681	2039.21
2373.508	2052.21
2377.333	2048.21
2381.153	2043.88
2384.971	2059.21
2388.785	2049.21
2392.595	2047.21
2396.402	2047.54
2400.206	2041.54
2404.007	2041.88
2407.804	2044.88
2411.597	2043.54
2415.388	2044.54
2419.174	2073.54
2422.958	2056.88
2426.738	2060.88
2430.515	2067.54
2434.289	2058.54
2438.059	2062.54
2441.825	2067.21
2445.589	2062.88
2449.349	2056.54
2453.106	2057.21
2456.859	2054.21
2460.61	2047.88
2464.356	2034.21
2468.1	2038.54
2471.84	2045.21
2475.577	2049.21
2479.311	2059.88
2483.041	2064.88
2486.768	2072.54
2490.492	2088.88
2494.213	2095.21
2497.93	2119.54
2501.644	2122.88
2505.355	2126.88
2509.062	2119.88
2512.766	2143.21
2516.467	2139.88
2520.165	2144.21
2523.859	2157.21
2527.551	2150.54
2531.239	2150.88
2534.923	2154.21
2538.605	2155.54
2542.283	2166.21
2545.958	2164.54
2549.63	2167.21
2553.299	2180.88
2556.964	2177.54
2560.626	2192.21
2564.285	2185.54
2567.941	2182.54
2571.594	2186.54
2575.243	2181.88
2578.89	2181.54
2582.533	2184.21
2586.173	2189.54
2589.809	2175.21
2593.443	2179.54
2597.073	2176.54
2600.701	2170.54
2604.325	2168.54
2607.946	2183.88
2611.564	2199.54
2615.178	2201.21
2618.79	2204.54
2622.398	2194.21
2626.004	2191.54
2629.606	2180.88
2633.205	2172.21
2636.801	2172.88
2640.394	2160.21
2643.983	2151.88
2647.57	2140.88
2651.153	2126.54
2654.734	2115.21
2658.311	2107.54
2661.885	2099.54
2665.456	2093.21
2669.025	2089.21
2672.589	2079.54
2676.151	2069.54
2679.71	2069.21
2683.266	2055.54
2686.819	2038.21
2690.368	2033.54
2693.915	2027.88
2697.458	1997.54
2700.999	1984.54
2704.536	1981.88
2708.071	1973.54
2711.602	1962.21
2715.13	1948.88
2718.656	1941.54
2722.178	1940.54
2725.697	1945.21
2729.214	1946.54
2732.727	1960.21
2736.237	1977.54
2739.744	1992.88
2743.249	2019.21
2746.75	2026.54
2750.248	2052.88
2753.743	2060.54
2757.236	2070.54
2760.725	2079.54
2764.211	2090.21
2767.695	2093.54
2771.175	2081.21
2774.652	2086.54
2778.127	2076.88
2781.598	2064.21
2785.067	2070.54
2788.532	2053.21
2791.995	2046.21
2795.455	2048.88
2798.911	2049.88
2802.365	2037.21
2805.816	2038.21
2809.264	2032.21
2812.709	2025.54
2816.151	2027.21
2819.59	2006.54
2823.026	2006.88
2826.46	2000.88
2829.89	1998.21
2833.318	2000.54
2836.742	1979.21
2840.164	1988.21
2843.583	1987.88
2846.999	1982.54
2850.412	1987.54
2853.822	1989.54
2857.229	1986.54
2860.634	1997.54
2864.035	1997.54
2867.434	2005.21
2870.83	2005.21
2874.223	2001.88
2877.613	1992.54
2881	1982.21
2884.385	1977.88
2887.766	1955.54
2891.145	1931.21
2894.521	1937.21
2897.894	1913.88
2901.264	1905.88
2904.631	1899.21
2907.996	1871.54
2911.358	1860.54
2914.717	1848.88
2918.073	1853.88
2921.426	1844.21
2924.777	1835.21
2928.124	1830.88
2931.469	1824.21
2934.811	1820.21
2938.15	1812.88
2941.487	1805.21
2944.821	1801.88
2948.152	1792.88
2951.48	1777.54
2954.805	1762.88
2958.128	1750.54
2961.447	1747.88
2964.765	1737.21
2968.079	1721.88
2971.39	1725.54
2974.699	1728.21
2978.005	1732.54
2981.308	1724.54
2984.609	1732.88
2987.907	1744.21
2991.202	1750.88
2994.494	1750.54
2997.784	1753.88
3001.07	1764.54
3004.355	1758.54
3007.636	1756.88
3010.915	1751.21
3014.191	1735.88
3017.464	1732.88
3020.734	1699.21
3024.002	1678.88
3027.267	1664.21
3030.53	1641.88
3033.789	1625.54
3037.046	1607.88
3040.301	1592.21
3043.552	1591.88
3046.801	1572.21
3050.048	1573.21
3053.291	1560.54
3056.532	1556.54
3059.771	1562.54
3063.006	1549.88
3066.239	1547.54
3069.469	1551.21
3072.697	1551.54
3075.922	1552.88
3079.144	1537.54
3082.364	1540.21
3085.581	1523.21
3088.795	1523.88
3092.007	1507.54
3095.216	1509.54
3098.423	1491.21
3101.627	1476.54
3104.828	1475.21
3108.026	1467.88
3111.222	1457.88
3114.416	1451.21
3117.607	1455.21
3120.795	1439.88
3123.98	1442.21
3127.163	1442.21
3130.344	1432.88
3133.521	1422.54
3136.696	1432.21
3139.869	1419.54
3143.039	1418.88
3146.206	1406.88
3149.371	1401.54
3152.533	1381.88
3155.693	1367.21
3158.85	1348.54
3162.005	1335.21
3165.157	1329.54
3168.306	1310.21
3171.453	1288.54
3174.597	1277.21
3177.739	1268.88
3180.878	1248.21
3184.014	1237.88
3187.149	1223.88
3190.28	1224.21
3193.409	1212.54
3196.536	1202.88
3199.659	1202.88
3202.781	1195.21
3205.9	1186.21
3209.016	1184.54
3212.13	1170.88
3215.241	1158.54
3218.35	1146.21
3221.456	1136.21
3224.56	1120.54
3227.661	1104.54
3230.76	1099.21
3233.856	1086.54
3236.95	1075.88
3240.041	1069.54
3243.13	1061.54
3246.216	1052.88
3249.3	1040.88
3252.382	1038.21
3255.46	1026.21
3258.537	1023.21
3261.611	1024.54
3264.682	1032.88
3267.751	1019.54
3270.818	1029.54
3273.882	1020.21
3276.943	1012.88
3280.002	1014.88
3283.059	1004.88
3286.113	1004.88
3289.165	985.21
3292.214	975.54
3295.261	963.54
3298.306	943.54
3301.348	937.54
3304.387	924.21
3307.425	915.21
3310.459	899.88
3313.492	891.21
3316.521	884.21
3319.549	878.54
3322.574	865.54
3325.597	864.54
3328.617	851.21
3331.635	844.54
3334.65	843.21
3337.663	843.54
3340.674	837.21
3343.682	832.88
3346.688	826.88
3349.691	823.54
3352.692	820.88
3355.691	819.21
3358.687	806.54
3361.681	805.21
3364.673	795.88
3367.662	782.54
3370.649	775.54
3373.633	769.21
3376.615	753.21
3379.595	749.21
3382.572	744.54
3385.547	726.54
3388.52	722.54
3391.49	708.88
3394.458	707.21
3397.424	703.88
3400.387	693.88
3403.348	686.88
3406.307	685.54
3409.263	676.88
3412.217	680.54
3415.168	668.54
3418.118	675.21
3421.065	658.54
3424.009	661.54
3426.951	650.88
3429.891	648.54
3432.829	646.54
3435.764	633.88
3438.697	627.54
3441.628	615.88
3444.557	609.54
3447.483	601.54
3450.407	596.21
3453.328	584.54
3456.247	574.21
3459.164	564.21
3462.079	554.21
3464.991	550.88
3467.902	538.21
3470.809	535.21
3473.715	526.88
3476.618	519.88
3479.519	516.54
3482.418	508.54
3485.315	504.21
3488.209	498.88
3491.101	499.21
3493.99	497.21
3496.878	480.88
3499.763	483.21
3502.646	474.88
3505.527	473.54
3508.405	469.21
3511.281	457.88
3514.155	451.21
3517.027	451.88
3519.897	428.88
3522.764	428.88
3525.629	421.21
3528.492	410.54
3531.352	403.21
3534.211	393.54
3537.067	380.88
3539.921	377.88
3542.773	364.54
3545.622	362.21
3548.469	353.88
3551.315	347.54
3554.157	340.21
3556.998	334.54
3559.837	329.21
3562.673	324.21
3565.507	322.21
3568.339	313.54
3571.169	308.21
3573.996	306.88
3576.822	300.88
3579.645	292.88
3582.466	285.21
3585.285	282.54
3588.101	281.21
3590.916	274.54
3593.728	266.54
3596.538	259.54
3599.346	253.88
3602.152	250.88
3604.956	246.21
3607.757	239.88
3610.556	237.88
3613.354	232.21
3616.149	226.21
3618.942	224.88
3621.732	218.21
3624.521	218.88
3627.307	216.21
3630.092	212.54
3632.874	207.54
3635.654	208.54
3638.432	206.21
3641.208	207.21
3643.982	203.88
3646.753	198.21
3649.523	193.21
3652.29	193.54
3655.055	193.88
3657.818	183.54
3660.579	182.88
3663.338	180.88
3666.095	177.88
3668.849	174.88
3671.602	169.54
3674.352	169.54
3677.101	167.54
3679.847	165.54
3682.591	163.88
3685.333	159.54
3688.073	160.54
3690.811	158.54
3693.547	161.21
3696.281	155.54
3699.013	158.54
3701.742	158.21
3704.47	156.88
3707.195	161.21
3709.919	159.88
3712.64	154.21
3715.359	152.54
3718.076	148.88
3720.792	149.54
3723.505	143.21
3726.216	148.54
3728.925	145.21
3731.632	141.88
3734.336	136.21
3737.039	136.21
3739.74	135.88
3742.439	133.88
3745.136	130.88
3747.83	130.21
3750.523	130.21
3753.213	128.54
3755.902	124.21
3758.589	128.54
3761.273	124.21
3763.956	124.54
3766.636	124.54
3769.315	122.21
3771.991	120.54
3774.665	114.54
3777.338	111.88
3780.008	110.54
3782.677	106.54
3785.343	106.88
3788.007	104.54
3790.67	99.54
3793.33	93.88
3795.989	100.21
3798.645	94.54
3801.299	90.54
3803.952	88.88
3806.602	93.88
3809.251	88.54
3811.897	88.88
3814.542	87.88
3817.184	84.88
3819.825	85.54
3822.463	77.54
3825.1	80.88
3827.735	78.21
3830.367	77.88
3832.998	68.54
3835.627	69.54
3838.253	65.21
3840.878	67.54
3843.501	63.88
3846.122	58.21
3848.741	60.88
3851.358	59.88
3853.973	51.88
3856.586	53.88
3859.197	49.88
3861.806	48.54
3864.414	48.21
3867.019	47.21
3869.622	45.88
3872.224	42.21
3874.823	40.54
3877.421	40.54
3880.016	38.54
3882.61	36.54
3885.202	35.88
3887.792	30.88
3890.38	29.21
3892.966	28.54
3895.55	24.21
3898.132	17.54
3900.713	18.88
3903.291	16.21
3905.868	14.21
3908.442	13.88
3911.015	10.21
3913.586	8.54
3916.155	6.88
3918.722	4.21
3921.287	2.88
3923.85	2.54
3926.411	0.21
3928.971	0.21
3931.528	-0.79
3934.084	-1.46
3936.638	-2.46
3939.19	-2.46
3941.74	-2.12
3944.288	-5.12
3946.834	-6.79
3949.378	-8.79
3951.921	-9.12
3954.462	-7.46
3957	-8.79
3959.537	-8.12
3962.072	-8.12
3964.606	-9.46
3967.137	-8.12
3969.667	-9.79
3972.194	-12.46
3974.72	-9.46
3977.244	-11.46
3979.766	-11.12
3982.286	-9.12
3984.805	-10.12
3987.321	-10.46
3989.836	-10.79
3992.349	-9.46
3994.86	-10.46
3997.369	-11.46
3999.877	-12.12
4002.382	-12.46
4004.886	-11.79
4007.388	-10.12
4009.888	-12.12
4012.386	-11.46
4014.883	-13.12
4017.377	-14.12
4019.87	-13.12
4022.361	-16.79
4024.85	-12.12
4027.338	-13.46
4029.823	-14.79
4032.307	-14.79
4034.789	-14.46
4037.269	-15.79
4039.747	-19.12
4042.224	-14.12
4044.699	-15.79
4047.172	-19.12
4049.643	-19.12
4052.112	-19.12
4054.58	-16.46
4057.046	-19.79
4059.51	-20.12
4061.972	-22.46
4064.432	-19.12
4066.891	-20.12
4069.348	-20.79
4071.803	-21.79
4074.256	-21.12
4076.708	-22.46
4079.158	-22.46
4081.606	-21.79
4084.052	-22.79
4086.497	-20.79
4088.939	-22.12
4091.38	-22.12
4093.819	-21.46
4096.257	-34.12
4098.693	-34.12
4101.127	-35.79
4103.559	-37.12
4105.989	-18.46
4108.418	-15.79
4110.845	-13.79
4113.27	-11.79
4115.694	-9.12
4118.115	-6.12
4120.535	-23.79
4122.954	-22.79
4125.37	-24.12
4127.785	-20.12
4130.198	-24.79
4132.609	-24.46
4135.019	-35.12
4137.427	-33.79
4139.833	-34.12
4142.237	-35.79
