Data from bs1_RamanShift_5.txt Node
Date: Tue Oct 17 17:40:24 IDT 2017
User: aro
Spectrometer: QEPB0276
Trigger mode: 0
Integration Time (sec): 5.000000E0
Scans to average: 3
Electric dark correction enabled: true
Nonlinearity correction enabled: false
Boxcar width: 0
XAxis mode: Raman Shifts
Number of Pixels in Spectrum: 1044
>>>>>Begin Spectral Data<<<<<
160.701	-2.96
166.742	6.71
172.777	24.38
178.805	74.71
184.826	226.04
190.841	484.04
196.849	821.38
202.85	1084.38
208.845	1193.71
214.833	1210.38
220.815	1228.71
226.789	1253.04
232.758	1289.04
238.719	1322.04
244.674	1339.04
250.623	1348.71
256.565	1360.71
262.5	1353.38
268.429	1353.71
274.351	1371.71
280.267	1376.04
286.176	1395.38
292.079	1395.38
297.975	1423.38
303.865	1448.71
309.748	1448.71
315.625	1439.38
321.495	1416.04
327.359	1402.04
333.217	1383.71
339.068	1381.04
344.912	1366.71
350.751	1361.04
356.583	1348.04
362.408	1331.04
368.227	1330.71
374.04	1318.04
379.847	1326.71
385.647	1319.38
391.44	1304.38
397.228	1291.04
403.009	1286.71
408.784	1289.38
414.553	1298.71
420.315	1313.38
426.071	1301.38
431.821	1278.04
437.565	1249.04
443.302	1227.71
449.033	1203.71
454.758	1186.04
460.477	1170.38
466.189	1149.04
471.896	1123.71
477.596	1107.71
483.29	1084.38
488.978	1055.71
494.66	1026.04
500.335	989.71
506.005	951.71
511.668	973.71
517.325	1087.04
522.977	1266.38
528.622	1397.71
534.261	1439.04
539.894	1422.38
545.521	1389.04
551.141	1366.38
556.756	1342.38
562.365	1323.71
567.968	1313.71
573.565	1287.04
579.155	1275.38
584.74	1261.04
590.319	1257.04
595.892	1242.71
601.459	1228.38
607.02	1199.38
612.575	1197.04
618.124	1188.38
623.667	1201.71
629.204	1201.71
634.735	1214.04
640.261	1215.71
645.781	1232.71
651.294	1239.71
656.802	1239.71
662.304	1235.38
667.8	1230.71
673.29	1222.38
678.775	1235.04
684.254	1221.71
689.726	1227.71
695.193	1221.04
700.655	1214.38
706.11	1215.38
711.56	1207.04
717.004	1211.04
722.442	1205.71
727.874	1205.04
733.301	1207.38
738.722	1200.38
744.137	1210.04
749.547	1212.38
754.951	1222.04
760.349	1220.04
765.741	1218.38
771.128	1236.04
776.509	1223.04
781.885	1234.71
787.254	1234.38
792.618	1240.38
797.977	1235.04
803.33	1235.04
808.677	1231.71
814.019	1236.38
819.355	1224.71
824.686	1229.38
830.011	1237.71
835.33	1239.71
840.644	1247.38
845.952	1251.04
851.255	1261.71
856.552	1267.04
861.844	1275.38
867.13	1272.71
872.41	1281.38
877.686	1277.71
882.955	1284.71
888.219	1275.04
893.478	1273.71
898.731	1269.04
903.979	1258.71
909.221	1271.71
914.458	1267.04
919.69	1278.38
924.916	1287.71
930.136	1314.04
935.351	1342.04
940.561	1365.71
945.766	1385.04
950.965	1383.71
956.158	1377.04
961.347	1366.71
966.529	1351.38
971.707	1330.38
976.879	1310.71
982.046	1313.04
987.208	1285.38
992.364	1285.71
997.515	1282.71
1002.66	1278.04
1007.801	1291.38
1012.936	1311.71
1018.066	1312.04
1023.19	1311.04
1028.309	1319.38
1033.423	1315.38
1038.532	1306.38
1043.636	1293.04
1048.734	1283.04
1053.827	1272.71
1058.915	1268.04
1063.998	1255.04
1069.075	1257.04
1074.147	1265.04
1079.214	1258.04
1084.276	1273.04
1089.333	1269.38
1094.385	1287.38
1099.431	1298.71
1104.472	1304.38
1109.509	1294.04
1114.54	1282.38
1119.565	1270.38
1124.586	1256.04
1129.602	1240.04
1134.613	1238.38
1139.618	1241.71
1144.619	1240.71
1149.614	1241.71
1154.604	1241.71
1159.589	1245.38
1164.57	1256.38
1169.545	1259.38
1174.515	1255.38
1179.48	1253.71
1184.44	1238.04
1189.395	1244.04
1194.345	1235.71
1199.29	1215.71
1204.23	1230.38
1209.165	1233.38
1214.095	1239.38
1219.021	1251.71
1223.941	1252.04
1228.856	1271.38
1233.766	1273.04
1238.672	1266.71
1243.572	1272.04
1248.467	1255.71
1253.358	1246.38
1258.244	1230.71
1263.124	1218.04
1268	1198.71
1272.871	1197.04
1277.737	1176.04
1282.599	1176.38
1287.455	1185.71
1292.306	1184.71
1297.153	1189.38
1301.995	1204.71
1306.832	1206.71
1311.664	1217.38
1316.491	1215.38
1321.314	1211.04
1326.132	1203.71
1330.945	1187.38
1335.753	1163.04
1340.556	1141.04
1345.354	1117.38
1350.148	1095.71
1354.937	1104.71
1359.722	1117.38
1364.501	1138.38
1369.276	1163.71
1374.046	1197.04
1378.811	1215.71
1383.572	1213.71
1388.327	1214.38
1393.079	1189.71
1397.825	1163.71
1402.567	1142.38
1407.304	1133.04
1412.036	1118.04
1416.764	1115.71
1421.487	1112.38
1426.205	1109.38
1430.919	1122.71
1435.628	1128.71
1440.333	1137.71
1445.032	1142.71
1449.727	1149.38
1454.418	1157.38
1459.104	1146.71
1463.785	1147.04
1468.462	1139.71
1473.134	1126.38
1477.802	1117.71
1482.465	1120.71
1487.123	1127.71
1491.777	1133.04
1496.426	1137.38
1501.071	1159.38
1505.711	1176.71
1510.347	1193.71
1514.978	1206.38
1519.604	1217.04
1524.226	1229.71
1528.844	1234.71
1533.457	1223.04
1538.065	1222.71
1542.669	1212.38
1547.269	1211.38
1551.864	1209.04
1556.454	1196.04
1561.041	1187.38
1565.622	1188.04
1570.199	1186.04
1574.772	1187.38
1579.34	1195.04
1583.904	1189.71
1588.464	1199.04
1593.019	1195.04
1597.569	1185.04
1602.115	1176.38
1606.657	1159.71
1611.195	1134.38
1615.728	1137.38
1620.256	1133.04
1624.78	1126.04
1629.3	1133.71
1633.816	1141.71
1638.327	1140.38
1642.834	1158.71
1647.336	1165.38
1651.834	1182.71
1656.328	1185.71
1660.817	1197.38
1665.302	1210.04
1669.783	1201.04
1674.259	1202.04
1678.732	1195.04
1683.199	1184.71
1687.663	1158.04
1692.122	1150.04
1696.577	1158.71
1701.028	1183.04
1705.474	1216.04
1709.917	1229.04
1714.355	1243.71
1718.788	1239.71
1723.218	1232.71
1727.643	1216.04
1732.064	1220.38
1736.481	1199.38
1740.893	1205.38
1745.301	1185.71
1749.705	1175.71
1754.105	1166.04
1758.501	1148.04
1762.893	1144.38
1767.28	1135.71
1771.663	1134.38
1776.042	1139.04
1780.417	1155.04
1784.787	1171.04
1789.154	1203.04
1793.516	1238.71
1797.874	1259.04
1802.228	1277.38
1806.578	1288.38
1810.924	1284.71
1815.266	1274.38
1819.603	1263.71
1823.937	1257.04
1828.266	1244.38
1832.591	1234.04
1836.913	1215.71
1841.23	1218.38
1845.543	1218.71
1849.852	1217.38
1854.156	1218.71
1858.457	1234.38
1862.754	1233.04
1867.047	1247.04
1871.335	1259.04
1875.62	1256.71
1879.9	1273.04
1884.177	1269.71
1888.449	1278.38
1892.718	1269.38
1896.982	1272.38
1901.243	1284.71
1905.499	1281.38
1909.752	1296.38
1914	1294.38
1918.245	1306.38
1922.485	1317.38
1926.722	1334.38
1930.954	1351.38
1935.183	1359.38
1939.408	1375.71
1943.628	1379.04
1947.845	1397.71
1952.058	1388.04
1956.267	1399.04
1960.472	1390.04
1964.673	1371.71
1968.87	1366.71
1973.063	1350.38
1977.252	1340.38
1981.438	1343.04
1985.619	1340.38
1989.797	1331.38
1993.971	1332.71
1998.14	1332.38
2002.306	1343.71
2006.469	1340.38
2010.627	1345.38
2014.781	1342.38
2018.932	1346.04
2023.078	1344.38
2027.221	1338.04
2031.36	1325.38
2035.495	1317.04
2039.627	1318.04
2043.754	1312.04
2047.878	1312.04
2051.998	1314.71
2056.114	1315.04
2060.226	1326.04
2064.334	1343.04
2068.439	1342.38
2072.54	1356.38
2076.637	1369.38
2080.73	1376.04
2084.82	1399.38
2088.906	1401.71
2092.988	1397.04
2097.066	1405.04
2101.14	1407.04
2105.211	1405.04
2109.278	1402.04
2113.342	1403.38
2117.401	1408.71
2121.457	1407.71
2125.509	1404.71
2129.558	1411.38
2133.602	1399.71
2137.643	1404.71
2141.681	1417.38
2145.714	1425.38
2149.744	1421.38
2153.77	1421.38
2157.793	1412.71
2161.812	1409.71
2165.827	1404.04
2169.838	1388.38
2173.846	1387.38
2177.851	1375.71
2181.851	1360.38
2185.848	1366.04
2189.841	1359.04
2193.831	1357.04
2197.817	1355.71
2201.799	1368.04
2205.778	1374.04
2209.753	1379.04
2213.725	1389.71
2217.693	1405.71
2221.657	1407.38
2225.618	1416.04
2229.575	1417.04
2233.529	1426.04
2237.479	1430.04
2241.425	1423.71
2245.368	1435.71
2249.307	1424.04
2253.243	1421.04
2257.175	1413.71
2261.104	1401.04
2265.029	1404.71
2268.95	1413.38
2272.868	1410.04
2276.783	1402.04
2280.694	1404.71
2284.601	1401.04
2288.505	1400.38
2292.405	1409.38
2296.302	1408.71
2300.195	1398.38
2304.085	1393.71
2307.971	1386.38
2311.854	1368.38
2315.734	1372.71
2319.609	1347.04
2323.482	1347.38
2327.351	1352.38
2331.216	1345.71
2335.078	1353.38
2338.937	1348.38
2342.792	1356.38
2346.643	1352.04
2350.492	1359.71
2354.336	1375.04
2358.178	1376.04
2362.015	1392.71
2365.85	1396.71
2369.681	1411.71
2373.508	1416.71
2377.333	1417.04
2381.153	1424.04
2384.971	1429.38
2388.785	1433.71
2392.595	1433.38
2396.402	1430.38
2400.206	1424.71
2404.007	1434.38
2407.804	1438.38
2411.597	1451.38
2415.388	1454.04
2419.174	1455.71
2422.958	1456.04
2426.738	1459.71
2430.515	1461.38
2434.289	1472.38
2438.059	1479.38
2441.825	1485.04
2445.589	1486.71
2449.349	1478.04
2453.106	1479.71
2456.859	1477.71
2460.61	1481.38
2464.356	1481.04
2468.1	1481.71
2471.84	1481.04
2475.577	1485.04
2479.311	1505.04
2483.041	1503.38
2486.768	1511.04
2490.492	1521.71
2494.213	1531.38
2497.93	1549.04
2501.644	1558.71
2505.355	1564.04
2509.062	1575.71
2512.766	1587.71
2516.467	1588.38
2520.165	1592.04
2523.859	1602.71
2527.551	1608.38
2531.239	1621.38
2534.923	1605.04
2538.605	1628.04
2542.283	1623.04
2545.958	1632.04
2549.63	1640.71
2553.299	1656.71
2556.964	1658.71
2560.626	1661.04
2564.285	1668.04
2567.941	1664.71
2571.594	1671.38
2575.243	1676.04
2578.89	1681.38
2582.533	1681.38
2586.173	1681.71
2589.809	1680.38
2593.443	1699.71
2597.073	1701.71
2600.701	1690.04
2604.325	1700.04
2607.946	1713.04
2611.564	1716.71
2615.178	1727.38
2618.79	1729.71
2622.398	1723.04
2626.004	1735.38
2629.606	1726.71
2633.205	1725.04
2636.801	1722.38
2640.394	1722.04
2643.983	1701.04
2647.57	1707.04
2651.153	1711.71
2654.734	1701.04
2658.311	1690.38
2661.885	1679.04
2665.456	1671.71
2669.025	1687.38
2672.589	1681.38
2676.151	1678.38
2679.71	1681.71
2683.266	1673.04
2686.819	1657.71
2690.368	1653.04
2693.915	1646.04
2697.458	1641.04
2700.999	1622.04
2704.536	1620.04
2708.071	1617.04
2711.602	1614.71
2715.13	1606.38
2718.656	1606.71
2722.178	1611.04
2725.697	1615.38
2729.214	1619.71
2732.727	1638.71
2736.237	1656.38
2739.744	1670.04
2743.249	1693.38
2746.75	1713.38
2750.248	1731.38
2753.743	1749.04
2757.236	1761.71
2760.725	1774.04
2764.211	1780.04
2767.695	1784.38
2771.175	1784.71
2774.652	1785.38
2778.127	1783.71
2781.598	1778.04
2785.067	1770.71
2788.532	1765.38
2791.995	1774.04
2795.455	1766.38
2798.911	1771.38
2802.365	1771.71
2805.816	1770.04
2809.264	1766.71
2812.709	1768.71
2816.151	1766.04
2819.59	1763.71
2823.026	1764.71
2826.46	1755.04
2829.89	1748.38
2833.318	1750.04
2836.742	1752.38
2840.164	1753.71
2843.583	1745.38
2846.999	1758.71
2850.412	1760.38
2853.822	1757.71
2857.229	1778.71
2860.634	1774.71
2864.035	1790.71
2867.434	1795.04
2870.83	1788.71
2874.223	1793.38
2877.613	1789.71
2881	1775.04
2884.385	1778.71
2887.766	1758.04
2891.145	1746.71
2894.521	1742.71
2897.894	1733.38
2901.264	1724.38
2904.631	1714.04
2907.996	1707.38
2911.358	1690.04
2914.717	1689.38
2918.073	1681.38
2921.426	1681.04
2924.777	1681.04
2928.124	1671.71
2931.469	1675.38
2934.811	1674.04
2938.15	1664.71
2941.487	1653.71
2944.821	1658.38
2948.152	1645.38
2951.48	1633.38
2954.805	1619.71
2958.128	1620.71
2961.447	1610.38
2964.765	1604.38
2968.079	1598.04
2971.39	1601.71
2974.699	1603.38
2978.005	1602.04
2981.308	1616.38
2984.609	1624.38
2987.907	1624.04
2991.202	1626.71
2994.494	1647.38
2997.784	1652.04
3001.07	1655.04
3004.355	1654.04
3007.636	1648.38
3010.915	1648.04
3014.191	1633.71
3017.464	1631.38
3020.734	1606.71
3024.002	1592.71
3027.267	1587.04
3030.53	1557.38
3033.789	1534.04
3037.046	1527.38
3040.301	1520.04
3043.552	1512.38
3046.801	1499.38
3050.048	1493.38
3053.291	1492.04
3056.532	1494.04
3059.771	1486.71
3063.006	1494.38
3066.239	1490.38
3069.469	1484.71
3072.697	1488.71
3075.922	1482.04
3079.144	1470.71
3082.364	1471.04
3085.581	1464.38
3088.795	1460.38
3092.007	1452.04
3095.216	1445.38
3098.423	1433.38
3101.627	1430.71
3104.828	1430.04
3108.026	1415.04
3111.222	1403.38
3114.416	1400.38
3117.607	1397.04
3120.795	1396.04
3123.98	1383.38
3127.163	1387.38
3130.344	1388.04
3133.521	1391.71
3136.696	1385.38
3139.869	1379.04
3143.039	1371.71
3146.206	1361.71
3149.371	1359.38
3152.533	1341.04
3155.693	1335.71
3158.85	1322.38
3162.005	1297.71
3165.157	1287.71
3168.306	1275.04
3171.453	1261.38
3174.597	1246.71
3177.739	1240.71
3180.878	1233.38
3184.014	1221.04
3187.149	1210.04
3190.28	1196.04
3193.409	1189.04
3196.536	1193.04
3199.659	1179.04
3202.781	1175.38
3205.9	1169.04
3209.016	1165.04
3212.13	1149.38
3215.241	1143.38
3218.35	1128.71
3221.456	1124.71
3224.56	1106.04
3227.661	1100.38
3230.76	1087.04
3233.856	1078.38
3236.95	1065.71
3240.041	1064.38
3243.13	1052.71
3246.216	1046.38
3249.3	1023.71
3252.382	1036.38
3255.46	1034.04
3258.537	1019.04
3261.611	1015.04
3264.682	1019.38
3267.751	1022.38
3270.818	1022.04
3273.882	1017.71
3276.943	1012.38
3280.002	1010.38
3283.059	1006.04
3286.113	996.71
3289.165	985.38
3292.214	978.71
3295.261	963.71
3298.306	948.04
3301.348	944.38
3304.387	936.38
3307.425	914.71
3310.459	906.38
3313.492	904.38
3316.521	885.04
3319.549	878.38
3322.574	869.71
3325.597	868.71
3328.617	864.38
3331.635	860.04
3334.65	854.04
3337.663	849.38
3340.674	841.38
3343.682	850.71
3346.688	843.38
3349.691	836.04
3352.692	834.71
3355.691	830.38
3358.687	821.71
3361.681	817.71
3364.673	812.04
3367.662	802.71
3370.649	791.04
3373.633	776.38
3376.615	767.38
3379.595	764.38
3382.572	755.71
3385.547	741.71
3388.52	735.71
3391.49	730.38
3394.458	720.38
3397.424	721.71
3400.387	711.71
3403.348	708.38
3406.307	700.04
3409.263	690.71
3412.217	698.38
3415.168	685.04
3418.118	682.71
3421.065	679.04
3424.009	673.71
3426.951	676.71
3429.891	666.71
3432.829	663.71
3435.764	656.38
3438.697	650.04
3441.628	644.71
3444.557	633.04
3447.483	622.71
3450.407	613.04
3453.328	604.71
3456.247	592.71
3459.164	584.38
3462.079	579.71
3464.991	575.71
3467.902	565.04
3470.809	558.38
3473.715	550.71
3476.618	544.38
3479.519	541.38
3482.418	539.71
3485.315	529.71
3488.209	527.38
3491.101	518.71
3493.99	516.38
3496.878	503.38
3499.763	509.71
3502.646	510.38
3505.527	496.38
3508.405	496.04
3511.281	480.71
3514.155	477.71
3517.027	465.38
3519.897	460.04
3522.764	461.38
3525.629	445.38
3528.492	433.04
3531.352	424.38
3534.211	421.38
3537.067	401.38
3539.921	398.71
3542.773	391.38
3545.622	385.71
3548.469	376.38
3551.315	372.38
3554.157	364.38
3556.998	359.38
3559.837	352.04
3562.673	349.71
3565.507	346.38
3568.339	342.04
3571.169	333.38
3573.996	329.71
3576.822	327.71
3579.645	318.04
3582.466	316.04
3585.285	308.04
3588.101	302.38
3590.916	298.04
3593.728	290.38
3596.538	282.38
3599.346	282.38
3602.152	273.38
3604.956	271.04
3607.757	266.04
3610.556	262.38
3613.354	254.38
3616.149	248.38
3618.942	251.38
3621.732	247.38
3624.521	244.04
3627.307	244.71
3630.092	237.04
3632.874	238.04
3635.654	235.71
3638.432	233.04
3641.208	231.38
3643.982	227.71
3646.753	225.71
3649.523	221.71
3652.29	224.38
3655.055	215.04
3657.818	211.71
3660.579	210.71
3663.338	204.38
3666.095	200.04
3668.849	198.38
3671.602	196.38
3674.352	189.38
3677.101	191.38
3679.847	188.04
3682.591	184.71
3685.333	187.38
3688.073	183.71
3690.811	185.04
3693.547	182.04
3696.281	179.38
3699.013	183.71
3701.742	178.38
3704.47	181.38
3707.195	179.71
3709.919	177.71
3712.64	176.04
3715.359	177.04
3718.076	173.04
3720.792	167.71
3723.505	168.04
3726.216	166.71
3728.925	163.04
3731.632	162.71
3734.336	160.04
3737.039	154.04
3739.74	156.04
3742.439	154.38
3745.136	147.71
3747.83	149.38
3750.523	149.04
3753.213	149.71
3755.902	147.38
3758.589	152.71
3761.273	143.04
3763.956	145.04
3766.636	145.71
3769.315	140.71
3771.991	136.04
3774.665	142.38
3777.338	136.04
3780.008	132.38
3782.677	131.04
3785.343	126.71
3788.007	127.04
3790.67	119.38
3793.33	115.71
3795.989	120.71
3798.645	115.71
3801.299	116.38
3803.952	111.71
3806.602	113.04
3809.251	109.38
3811.897	105.71
3814.542	106.71
3817.184	105.04
3819.825	102.38
3822.463	101.38
3825.1	101.04
3827.735	96.38
3830.367	96.71
3832.998	90.04
3835.627	88.71
3838.253	84.71
3840.878	83.04
3843.501	82.04
3846.122	75.38
3848.741	75.04
3851.358	71.38
3853.973	66.38
3856.586	67.38
3859.197	64.71
3861.806	63.04
3864.414	60.71
3867.019	59.04
3869.622	60.38
3872.224	55.04
3874.823	52.71
3877.421	53.04
3880.016	49.38
3882.61	47.38
3885.202	46.04
3887.792	42.71
3890.38	41.04
3892.966	34.71
3895.55	33.04
3898.132	31.04
3900.713	29.04
3903.291	28.04
3905.868	25.71
3908.442	24.04
3911.015	21.71
3913.586	19.38
3916.155	17.38
3918.722	19.71
3921.287	14.71
3923.85	12.04
3926.411	13.38
3928.971	11.38
3931.528	11.71
3934.084	8.71
3936.638	9.38
3939.19	6.71
3941.74	8.04
3944.288	6.71
3946.834	4.38
3949.378	2.38
3951.921	3.71
3954.462	3.71
3957	4.71
3959.537	3.38
3962.072	2.71
3964.606	1.38
3967.137	2.38
3969.667	1.04
3972.194	-1.62
3974.72	0.38
3977.244	-0.29
3979.766	0.71
3982.286	-0.29
3984.805	0.38
3987.321	0.04
3989.836	-0.96
3992.349	-1.62
3994.86	-1.96
3997.369	-3.29
3999.877	-3.29
4002.382	-1.62
4004.886	-4.96
4007.388	-3.29
4009.888	-4.62
4012.386	-4.29
4014.883	-3.62
4017.377	-6.62
4019.87	-4.96
4022.361	-8.62
4024.85	-5.96
4027.338	-4.62
4029.823	-7.62
4032.307	-5.96
4034.789	-5.96
4037.269	-7.62
4039.747	-11.62
4042.224	-9.29
4044.699	-9.29
4047.172	-10.62
4049.643	-11.62
4052.112	-10.62
4054.58	-12.29
4057.046	-11.29
4059.51	-11.96
4061.972	-15.29
4064.432	-10.96
4066.891	-11.62
4069.348	-13.96
4071.803	-13.62
4074.256	-10.62
4076.708	-15.29
4079.158	-12.62
4081.606	-13.96
4084.052	-14.29
4086.497	-13.62
4088.939	-12.96
4091.38	-12.96
4093.819	-12.62
4096.257	-24.96
4098.693	-25.62
4101.127	-25.96
4103.559	-27.29
4105.989	-10.29
4108.418	-10.62
4110.845	-8.96
4113.27	-6.62
4115.694	-7.29
4118.115	-4.29
4120.535	-15.29
4122.954	-14.29
4125.37	-14.96
4127.785	-12.96
4130.198	-18.62
4132.609	-15.29
4135.019	-26.62
4137.427	-25.29
4139.833	-24.62
4142.237	-26.29
