Data from bs2_RamanShift_3.txt Node
Date: Tue Oct 17 17:50:39 IDT 2017
User: aro
Spectrometer: QEPB0276
Trigger mode: 0
Integration Time (sec): 5.000000E0
Scans to average: 3
Electric dark correction enabled: true
Nonlinearity correction enabled: false
Boxcar width: 0
XAxis mode: Raman Shifts
Number of Pixels in Spectrum: 1044
>>>>>Begin Spectral Data<<<<<
160.701	-4.04
166.742	4.96
172.777	20.96
178.805	69.29
184.826	203.96
190.841	441.63
196.849	749.63
202.85	973.63
208.845	1083.29
214.833	1107.62
220.815	1130.62
226.789	1161.62
232.758	1197.62
238.719	1224.96
244.674	1248.29
250.623	1241.96
256.565	1237.62
262.5	1234.29
268.429	1231.29
274.351	1218.96
280.267	1226.96
286.176	1220.96
292.079	1231.96
297.975	1241.96
303.865	1253.29
309.748	1253.29
315.625	1243.62
321.495	1225.96
327.359	1208.29
333.217	1205.63
339.068	1187.96
344.912	1174.96
350.751	1155.29
356.583	1146.96
362.408	1150.96
368.227	1134.29
374.04	1131.29
379.847	1128.96
385.647	1123.62
391.44	1110.29
397.228	1102.62
403.009	1091.63
408.784	1092.29
414.553	1104.96
420.315	1122.62
426.071	1119.62
431.821	1086.29
437.565	1057.96
443.302	1033.96
449.033	1014.29
454.758	993.96
460.477	975.29
466.189	960.62
471.896	942.62
477.596	924.96
483.29	898.29
488.978	876.96
494.66	846.96
500.335	811.29
506.005	779.96
511.668	794.29
517.325	861.29
522.977	990.29
528.622	1095.96
534.261	1130.96
539.894	1117.96
545.521	1092.96
551.141	1077.29
556.756	1061.63
562.365	1042.63
567.968	1031.96
573.565	1023.29
579.155	1005.29
584.74	995.62
590.319	985.29
595.892	975.96
601.459	967.63
607.02	952.96
612.575	946.62
618.124	939.29
623.667	948.29
629.204	960.96
634.735	965.96
640.261	981.29
645.781	986.96
651.294	992.96
656.802	992.96
662.304	985.62
667.8	981.63
673.29	983.96
678.775	981.62
684.254	983.63
689.726	991.29
695.193	985.96
700.655	988.96
706.11	986.29
711.56	982.29
717.004	977.29
722.442	977.63
727.874	986.29
733.301	996.62
738.722	994.29
744.137	997.96
749.547	1007.29
754.951	1017.29
760.349	1028.62
765.741	1026.62
771.128	1037.29
776.509	1042.29
781.885	1041.62
787.254	1052.62
792.618	1053.96
797.977	1061.29
803.33	1061.62
808.677	1061.29
814.019	1070.63
819.355	1065.96
824.686	1074.29
830.011	1082.96
835.33	1084.96
840.644	1100.29
845.952	1108.29
851.255	1127.96
856.552	1132.62
861.844	1135.29
867.13	1143.29
872.41	1152.29
877.686	1158.62
882.955	1155.62
888.219	1157.29
893.478	1157.29
898.731	1156.29
903.979	1156.96
909.221	1166.62
914.458	1164.96
919.69	1180.63
924.916	1196.62
930.136	1222.96
935.351	1254.63
940.561	1273.62
945.766	1293.29
950.965	1292.29
956.158	1287.62
961.347	1284.63
966.529	1271.29
971.707	1259.96
976.879	1252.96
982.046	1240.62
987.208	1233.63
992.364	1245.62
997.515	1242.29
1002.66	1247.62
1007.801	1256.96
1012.936	1266.63
1018.066	1272.96
1023.19	1284.29
1028.309	1292.29
1033.423	1290.62
1038.532	1275.96
1043.636	1280.62
1048.734	1275.96
1053.827	1252.96
1058.915	1250.96
1063.998	1255.29
1069.075	1243.29
1074.147	1247.62
1079.214	1252.62
1084.276	1272.96
1089.333	1275.96
1094.385	1280.62
1099.431	1287.96
1104.472	1300.96
1109.509	1281.96
1114.54	1283.62
1119.565	1264.62
1124.586	1252.29
1129.602	1239.96
1134.613	1232.63
1139.618	1230.29
1144.619	1227.62
1149.614	1231.29
1154.604	1241.62
1159.589	1245.29
1164.57	1247.62
1169.545	1245.63
1174.515	1248.29
1179.48	1237.62
1184.44	1225.62
1189.395	1220.29
1194.345	1215.96
1199.29	1210.29
1204.23	1210.62
1209.165	1220.96
1214.095	1216.62
1219.021	1234.62
1223.941	1226.96
1228.856	1243.29
1233.766	1242.96
1238.672	1240.62
1243.572	1237.63
1248.467	1237.96
1253.358	1216.96
1258.244	1201.62
1263.124	1186.62
1268	1176.96
1272.871	1154.62
1277.737	1149.29
1282.599	1143.96
1287.455	1149.62
1292.306	1162.96
1297.153	1163.96
1301.995	1167.63
1306.832	1176.96
1311.664	1185.96
1316.491	1179.96
1321.314	1173.29
1326.132	1168.96
1330.945	1150.96
1335.753	1128.29
1340.556	1099.96
1345.354	1088.96
1350.148	1062.29
1354.937	1062.62
1359.722	1078.96
1364.501	1101.96
1369.276	1128.62
1374.046	1158.29
1378.811	1174.96
1383.572	1176.96
1388.327	1156.62
1393.079	1147.63
1397.825	1125.29
1402.567	1111.29
1407.304	1095.29
1412.036	1088.29
1416.764	1072.96
1421.487	1069.29
1426.205	1081.96
1430.919	1084.29
1435.628	1088.96
1440.333	1103.62
1445.032	1109.62
1449.727	1123.62
1454.418	1119.29
1459.104	1128.62
1463.785	1113.29
1468.462	1114.96
1473.134	1108.63
1477.802	1101.63
1482.465	1099.62
1487.123	1109.96
1491.777	1119.29
1496.426	1122.29
1501.071	1148.96
1505.711	1167.96
1510.347	1186.96
1514.978	1211.29
1519.604	1217.96
1524.226	1223.62
1528.844	1234.29
1533.457	1230.96
1538.065	1234.96
1542.669	1224.96
1547.269	1221.96
1551.864	1216.96
1556.454	1216.29
1561.041	1217.63
1565.622	1214.62
1570.199	1210.96
1574.772	1211.96
1579.34	1222.96
1583.904	1224.96
1588.464	1221.63
1593.019	1223.96
1597.569	1231.29
1602.115	1213.62
1606.657	1200.96
1611.195	1190.62
1615.728	1192.29
1620.256	1190.62
1624.78	1190.96
1629.3	1189.62
1633.816	1197.96
1638.327	1210.96
1642.834	1228.29
1647.336	1254.29
1651.834	1259.29
1656.328	1276.63
1660.817	1284.29
1665.302	1292.62
1669.783	1304.62
1674.259	1308.63
1678.732	1291.62
1683.199	1276.62
1687.663	1261.29
1692.122	1254.62
1696.577	1260.29
1701.028	1291.62
1705.474	1318.63
1709.917	1356.96
1714.355	1366.29
1718.788	1357.29
1723.218	1349.96
1727.643	1351.62
1732.064	1346.62
1736.481	1330.96
1740.893	1328.96
1745.301	1310.96
1749.705	1309.63
1754.105	1287.63
1758.501	1286.96
1762.893	1282.96
1767.28	1270.62
1771.663	1277.29
1776.042	1278.96
1780.417	1300.29
1784.787	1325.96
1789.154	1352.62
1793.516	1384.62
1797.874	1414.63
1802.228	1439.96
1806.578	1447.29
1810.924	1453.62
1815.266	1449.96
1819.603	1433.96
1823.937	1427.62
1828.266	1415.96
1832.591	1399.96
1836.913	1395.96
1841.23	1387.62
1845.543	1387.29
1849.852	1391.63
1854.156	1395.29
1858.457	1398.62
1862.754	1408.63
1867.047	1420.96
1871.335	1421.29
1875.62	1439.29
1879.9	1445.96
1884.177	1442.96
1888.449	1460.96
1892.718	1445.63
1896.982	1442.62
1901.243	1450.63
1905.499	1450.29
1909.752	1466.29
1914	1472.62
1918.245	1490.62
1922.485	1502.29
1926.722	1520.96
1930.954	1529.96
1935.183	1550.63
1939.408	1556.96
1943.628	1562.63
1947.845	1570.96
1952.058	1566.29
1956.267	1569.96
1960.472	1560.96
1964.673	1548.29
1968.87	1532.96
1973.063	1522.96
1977.252	1516.29
1981.438	1513.62
1985.619	1491.63
1989.797	1491.62
1993.971	1483.62
1998.14	1498.96
2002.306	1487.62
2006.469	1492.29
2010.627	1484.96
2014.781	1487.63
2018.932	1482.62
2023.078	1485.96
2027.221	1476.62
2031.36	1457.29
2035.495	1447.29
2039.627	1441.63
2043.754	1449.29
2047.878	1435.96
2051.998	1439.96
2056.114	1443.29
2060.226	1445.96
2064.334	1457.96
2068.439	1472.29
2072.54	1477.63
2076.637	1498.62
2080.73	1501.29
2084.82	1512.62
2088.906	1515.29
2092.988	1523.62
2097.066	1523.62
2101.14	1521.96
2105.211	1512.96
2109.278	1507.29
2113.342	1509.96
2117.401	1502.63
2121.457	1502.62
2125.509	1505.63
2129.558	1515.29
2133.602	1493.96
2137.643	1497.62
2141.681	1504.63
2145.714	1510.62
2149.744	1511.29
2153.77	1497.29
2157.793	1489.29
2161.812	1487.96
2165.827	1472.63
2169.838	1460.96
2173.846	1452.62
2177.851	1436.29
2181.851	1420.62
2185.848	1426.29
2189.841	1420.29
2193.831	1406.63
2197.817	1420.62
2201.799	1419.62
2205.778	1423.62
2209.753	1415.96
2213.725	1444.29
2217.693	1448.96
2221.657	1450.29
2225.618	1450.62
2229.575	1466.96
2233.529	1454.29
2237.479	1464.96
2241.425	1461.96
2245.368	1465.29
2249.307	1463.29
2253.243	1446.63
2257.175	1449.96
2261.104	1441.63
2265.029	1437.29
2268.95	1440.29
2272.868	1443.62
2276.783	1432.62
2280.694	1439.96
2284.601	1432.62
2288.505	1435.63
2292.405	1428.29
2296.302	1424.29
2300.195	1419.62
2304.085	1421.62
2307.971	1409.96
2311.854	1393.29
2315.734	1383.96
2319.609	1394.96
2323.482	1367.96
2327.351	1364.29
2331.216	1358.63
2335.078	1360.63
2338.937	1366.96
2342.792	1365.96
2346.643	1368.63
2350.492	1378.96
2354.336	1387.96
2358.178	1390.96
2362.015	1395.96
2365.85	1408.62
2369.681	1427.96
2373.508	1428.96
2377.333	1428.63
2381.153	1430.29
2384.971	1438.96
2388.785	1445.96
2392.595	1435.96
2396.402	1430.63
2400.206	1441.96
2404.007	1443.62
2407.804	1441.96
2411.597	1445.63
2415.388	1451.29
2419.174	1458.96
2422.958	1453.96
2426.738	1473.62
2430.515	1464.29
2434.289	1471.29
2438.059	1479.62
2441.825	1472.29
2445.589	1483.29
2449.349	1487.29
2453.106	1487.29
2456.859	1485.29
2460.61	1483.29
2464.356	1488.62
2468.1	1483.29
2471.84	1494.96
2475.577	1493.29
2479.311	1504.62
2483.041	1522.63
2486.768	1526.29
2490.492	1535.29
2494.213	1546.62
2497.93	1564.96
2501.644	1571.96
2505.355	1586.62
2509.062	1587.96
2512.766	1613.62
2516.467	1614.62
2520.165	1611.62
2523.859	1618.29
2527.551	1631.29
2531.239	1630.62
2534.923	1633.96
2538.605	1636.63
2542.283	1637.96
2545.958	1658.29
2549.63	1675.63
2553.299	1666.62
2556.964	1681.96
2560.626	1683.62
2564.285	1692.96
2567.941	1690.96
2571.594	1697.29
2575.243	1701.62
2578.89	1706.96
2582.533	1703.29
2586.173	1710.96
2589.809	1716.96
2593.443	1725.29
2597.073	1712.96
2600.701	1720.62
2604.325	1729.29
2607.946	1732.29
2611.564	1745.96
2615.178	1751.62
2618.79	1760.62
2622.398	1768.63
2626.004	1758.96
2629.606	1762.96
2633.205	1760.62
2636.801	1756.29
2640.394	1746.29
2643.983	1746.96
2647.57	1752.96
2651.153	1730.63
2654.734	1726.29
2658.311	1721.96
2661.885	1722.63
2665.456	1704.29
2669.025	1717.29
2672.589	1725.62
2676.151	1706.96
2679.71	1704.29
2683.266	1706.29
2686.819	1697.29
2690.368	1688.62
2693.915	1672.62
2697.458	1662.96
2700.999	1660.63
2704.536	1660.63
2708.071	1642.96
2711.602	1646.96
2715.13	1638.62
2718.656	1645.29
2722.178	1633.62
2725.697	1639.96
2729.214	1653.29
2732.727	1657.96
2736.237	1678.29
2739.744	1698.29
2743.249	1719.62
2746.75	1734.29
2750.248	1751.96
2753.743	1767.96
2757.236	1797.96
2760.725	1794.63
2764.211	1799.29
2767.695	1808.63
2771.175	1808.29
2774.652	1808.62
2778.127	1798.96
2781.598	1797.29
2785.067	1786.96
2788.532	1789.29
2791.995	1801.29
2795.455	1787.96
2798.911	1791.29
2802.365	1787.29
2805.816	1799.96
2809.264	1774.63
2812.709	1777.29
2816.151	1774.62
2819.59	1772.29
2823.026	1761.29
2826.46	1766.62
2829.89	1759.29
2833.318	1755.96
2836.742	1750.29
2840.164	1755.96
2843.583	1753.96
2846.999	1761.62
2850.412	1755.96
2853.822	1762.63
2857.229	1756.62
2860.634	1774.29
2864.035	1771.63
2867.434	1785.29
2870.83	1775.29
2874.223	1788.29
2877.613	1776.96
2881	1760.96
2884.385	1749.96
2887.766	1741.96
2891.145	1726.96
2894.521	1717.63
2897.894	1701.29
2901.264	1694.29
2904.631	1690.29
2907.996	1669.62
2911.358	1659.62
2914.717	1656.96
2918.073	1643.62
2921.426	1648.62
2924.777	1641.96
2928.124	1637.29
2931.469	1629.62
2934.811	1627.29
2938.15	1632.29
2941.487	1606.96
2944.821	1610.62
2948.152	1594.62
2951.48	1585.96
2954.805	1582.29
2958.128	1570.63
2961.447	1557.29
2964.765	1556.29
2968.079	1554.29
2971.39	1558.29
2974.699	1552.29
2978.005	1558.29
2981.308	1568.62
2984.609	1565.29
2987.907	1568.96
2991.202	1582.29
2994.494	1585.29
2997.784	1590.62
3001.07	1586.96
3004.355	1587.96
3007.636	1585.62
3010.915	1584.29
3014.191	1568.62
3017.464	1565.29
3020.734	1545.96
3024.002	1523.29
3027.267	1511.63
3030.53	1483.29
3033.789	1472.29
3037.046	1455.63
3040.301	1433.29
3043.552	1428.29
3046.801	1424.63
3050.048	1401.96
3053.291	1413.96
3056.532	1406.96
3059.771	1403.29
3063.006	1399.96
3066.239	1398.62
3069.469	1401.96
3072.697	1399.29
3075.922	1393.62
3079.144	1387.62
3082.364	1385.63
3085.581	1375.29
3088.795	1381.62
3092.007	1353.63
3095.216	1355.96
3098.423	1337.96
3101.627	1337.96
3104.828	1330.62
3108.026	1312.63
3111.222	1320.63
3114.416	1305.29
3117.607	1302.96
3120.795	1304.62
3123.98	1304.29
3127.163	1284.96
3130.344	1294.29
3133.521	1279.29
3136.696	1285.63
3139.869	1269.62
3143.039	1263.96
3146.206	1266.96
3149.371	1252.63
3152.533	1236.62
3155.693	1224.29
3158.85	1216.96
3162.005	1203.62
3165.157	1188.96
3168.306	1175.96
3171.453	1160.29
3174.597	1152.63
3177.739	1130.29
3180.878	1134.62
3184.014	1115.96
3187.149	1111.63
3190.28	1093.62
3193.409	1082.29
3196.536	1091.29
3199.659	1075.62
3202.781	1075.29
3205.9	1067.96
3209.016	1047.96
3212.13	1054.62
3215.241	1044.29
3218.35	1033.62
3221.456	1021.62
3224.56	1013.96
3227.661	1000.63
3230.76	988.96
3233.856	979.62
3236.95	973.29
3240.041	960.63
3243.13	961.29
3246.216	947.29
3249.3	946.29
3252.382	937.29
3255.46	936.96
3258.537	928.96
3261.611	931.96
3264.682	922.29
3267.751	924.29
3270.818	920.29
3273.882	915.29
3276.943	920.62
3280.002	919.62
3283.059	904.29
3286.113	902.96
3289.165	893.96
3292.214	883.63
3295.261	872.62
3298.306	862.96
3301.348	850.96
3304.387	843.29
3307.425	832.62
3310.459	818.96
3313.492	811.96
3316.521	802.29
3319.549	800.29
3322.574	791.63
3325.597	787.29
3328.617	781.29
3331.635	771.96
3334.65	767.62
3337.663	761.29
3340.674	763.96
3343.682	755.96
3346.688	763.62
3349.691	751.62
3352.692	748.96
3355.691	753.63
3358.687	742.62
3361.681	734.96
3364.673	740.62
3367.662	721.62
3370.649	718.96
3373.633	708.29
3376.615	700.29
3379.595	694.96
3382.572	685.29
3385.547	676.96
3388.52	676.62
3391.49	662.29
3394.458	666.29
3397.424	654.63
3400.387	651.96
3403.348	643.96
3406.307	641.62
3409.263	635.96
3412.217	631.63
3415.168	623.29
3418.118	629.62
3421.065	620.96
3424.009	618.96
3426.951	616.29
3429.891	612.29
3432.829	605.29
3435.764	599.96
3438.697	594.29
3441.628	584.96
3444.557	579.62
3447.483	562.63
3450.407	557.29
3453.328	552.62
3456.247	541.63
3459.164	540.29
3462.079	532.29
3464.991	518.62
3467.902	511.29
3470.809	511.63
3473.715	502.96
3476.618	500.96
3479.519	495.29
3482.418	489.29
3485.315	485.29
3488.209	475.96
3491.101	480.63
3493.99	470.62
3496.878	463.96
3499.763	464.96
3502.646	465.29
3505.527	460.62
3508.405	451.62
3511.281	447.62
3514.155	438.29
3517.027	432.62
3519.897	421.63
3522.764	419.29
3525.629	409.63
3528.492	404.96
3531.352	394.96
3534.211	388.29
3537.067	382.96
3539.921	373.96
3542.773	367.29
3545.622	358.96
3548.469	345.29
3551.315	348.29
3554.157	343.63
3556.998	332.96
3559.837	331.62
3562.673	327.63
3565.507	320.96
3568.339	318.63
3571.169	314.62
3573.996	309.62
3576.822	308.63
3579.645	298.62
3582.466	297.29
3585.285	287.62
3588.101	286.96
3590.916	277.96
3593.728	271.96
3596.538	266.29
3599.346	262.96
3602.152	257.96
3604.956	252.29
3607.757	247.96
3610.556	245.96
3613.354	238.29
3616.149	233.96
3618.942	233.29
3621.732	225.96
3624.521	227.62
3627.307	224.96
3630.092	218.62
3632.874	217.96
3635.654	219.29
3638.432	220.29
3641.208	212.96
3643.982	211.96
3646.753	209.96
3649.523	205.29
3652.29	201.96
3655.055	200.63
3657.818	193.96
3660.579	190.96
3663.338	189.62
3666.095	187.96
3668.849	183.29
3671.602	180.29
3674.352	181.62
3677.101	175.96
3679.847	174.62
3682.591	171.29
3685.333	173.96
3688.073	168.62
3690.811	172.62
3693.547	170.29
3696.281	167.63
3699.013	169.96
3701.742	165.29
3704.47	171.96
3707.195	168.96
3709.919	163.63
3712.64	169.96
3715.359	166.63
3718.076	165.29
3720.792	157.62
3723.505	154.96
3726.216	160.29
3728.925	153.63
3731.632	151.29
3734.336	151.62
3737.039	145.63
3739.74	145.29
3742.439	144.63
3745.136	140.96
3747.83	143.96
3750.523	136.96
3753.213	142.62
3755.902	138.96
3758.589	138.29
3761.273	136.62
3763.956	134.62
3766.636	136.29
3769.315	131.62
3771.991	131.29
3774.665	126.96
3777.338	125.96
3780.008	119.62
3782.677	120.62
3785.343	118.96
3788.007	112.62
3790.67	112.29
3793.33	107.29
3795.989	109.29
3798.645	106.96
3801.299	104.96
3803.952	101.96
3806.602	103.96
3809.251	100.62
3811.897	98.62
3814.542	98.62
3817.184	94.96
3819.825	95.96
3822.463	91.62
3825.1	92.29
3827.735	87.29
3830.367	84.29
3832.998	82.62
3835.627	81.62
3838.253	79.96
3840.878	79.62
3843.501	75.29
3846.122	71.96
3848.741	72.29
3851.358	70.29
3853.973	64.29
3856.586	64.29
3859.197	61.96
3861.806	59.63
3864.414	56.29
3867.019	57.62
3869.622	55.29
3872.224	54.96
3874.823	52.96
3877.421	51.29
3880.016	49.29
3882.61	48.29
3885.202	43.63
3887.792	41.96
3890.38	37.96
3892.966	35.29
3895.55	32.29
3898.132	30.29
3900.713	28.63
3903.291	25.29
3905.868	21.62
3908.442	20.62
3911.015	19.63
3913.586	15.96
3916.155	17.29
3918.722	14.29
3921.287	11.29
3923.85	10.29
3926.411	11.62
3928.971	9.96
3931.528	11.29
3934.084	7.29
3936.638	5.62
3939.19	4.29
3941.74	7.29
3944.288	5.29
3946.834	3.63
3949.378	2.29
3951.921	2.63
3954.462	1.96
3957	2.29
3959.537	2.29
3962.072	2.29
3964.606	1.29
3967.137	0.96
3969.667	2.96
3972.194	-1.38
3974.72	1.96
3977.244	0.62
3979.766	0.96
3982.286	0.62
3984.805	-0.04
3987.321	-0.38
3989.836	0.62
3992.349	0.63
3994.86	0.29
3997.369	-2.71
3999.877	-0.71
4002.382	-2.37
4004.886	-4.04
4007.388	-1.71
4009.888	-2.38
4012.386	-2.71
4014.883	-5.38
4017.377	-5.38
4019.87	-4.71
4022.361	-6.38
4024.85	-5.04
4027.338	-4.04
4029.823	-6.71
4032.307	-6.38
4034.789	-4.71
4037.269	-7.04
4039.747	-9.04
4042.224	-9.38
4044.699	-8.04
4047.172	-8.71
4049.643	-9.04
4052.112	-10.04
4054.58	-10.38
4057.046	-12.38
4059.51	-11.71
4061.972	-12.71
4064.432	-10.38
4066.891	-11.38
4069.348	-12.04
4071.803	-11.71
4074.256	-12.38
4076.708	-13.38
4079.158	-11.71
4081.606	-14.38
4084.052	-11.38
4086.497	-13.37
4088.939	-13.04
4091.38	-13.04
4093.819	-14.04
4096.257	-20.71
4098.693	-22.71
4101.127	-23.04
4103.559	-23.71
4105.989	-10.71
4108.418	-9.38
4110.845	-8.04
4113.27	-6.04
4115.694	-6.71
4118.115	-3.38
4120.535	-12.71
4122.954	-13.04
4125.37	-14.38
4127.785	-12.04
4130.198	-13.04
4132.609	-12.71
4135.019	-23.04
4137.427	-22.71
4139.833	-21.71
4142.237	-23.71
