Data from bs2_RamanShift_4.txt Node
Date: Tue Oct 17 17:51:24 IDT 2017
User: aro
Spectrometer: QEPB0276
Trigger mode: 0
Integration Time (sec): 5.000000E0
Scans to average: 3
Electric dark correction enabled: true
Nonlinearity correction enabled: false
Boxcar width: 0
XAxis mode: Raman Shifts
Number of Pixels in Spectrum: 1044
>>>>>Begin Spectral Data<<<<<
160.701	-3
166.742	8.67
172.777	30
178.805	105.67
184.826	306
190.841	658
196.849	1123.33
202.85	1464
208.845	1623.33
214.833	1655.67
220.815	1693.67
226.789	1745
232.758	1785.33
238.719	1847.33
244.674	1875.33
250.623	1882
256.565	1876
262.5	1870.33
268.429	1872
274.351	1868
280.267	1887.67
286.176	1895
292.079	1906.33
297.975	1925
303.865	1945
309.748	1949
315.625	1946
321.495	1913.33
327.359	1926
333.217	1890.33
339.068	1870.67
344.912	1876.33
350.751	1855
356.583	1824.33
362.408	1828.33
368.227	1807.67
374.04	1791.33
379.847	1797.33
385.647	1797.67
391.44	1791.67
397.228	1770.33
403.009	1763.67
408.784	1754
414.553	1761
420.315	1785.67
426.071	1770.33
431.821	1742
437.565	1702.33
443.302	1674.33
449.033	1661
454.758	1645.67
460.477	1613.67
466.189	1593
471.896	1567.33
477.596	1545.67
483.29	1529.67
488.978	1500.67
494.66	1463.67
500.335	1420.67
506.005	1400.33
511.668	1405
517.325	1480
522.977	1629.33
528.622	1743
534.261	1766
539.894	1742
545.521	1710
551.141	1686.67
556.756	1652
562.365	1644.67
567.968	1619
573.565	1610
579.155	1585.67
584.74	1577
590.319	1572.33
595.892	1535
601.459	1519.67
607.02	1507
612.575	1489.33
618.124	1480
623.667	1493
629.204	1505.67
634.735	1499.67
640.261	1505
645.781	1507.67
651.294	1522.67
656.802	1521
662.304	1500.33
667.8	1501
673.29	1505
678.775	1503.67
684.254	1499.33
689.726	1505.67
695.193	1490.67
700.655	1502.33
706.11	1488.67
711.56	1488.33
717.004	1487.67
722.442	1482.67
727.874	1490.33
733.301	1493
738.722	1502.33
744.137	1503.33
749.547	1501.33
754.951	1504.67
760.349	1524.67
765.741	1522
771.128	1526
776.509	1540
781.885	1536.67
787.254	1546
792.618	1541
797.977	1552
803.33	1556.67
808.677	1564
814.019	1563.33
819.355	1551.33
824.686	1561
830.011	1576.67
835.33	1579.67
840.644	1581.33
845.952	1596.33
851.255	1608
856.552	1618
861.844	1633.67
867.13	1645.67
872.41	1664.33
877.686	1660
882.955	1655.33
888.219	1654.67
893.478	1653.67
898.731	1654
903.979	1654.33
909.221	1667.33
914.458	1665.33
919.69	1674.67
924.916	1694
930.136	1726.33
935.351	1759.33
940.561	1784.33
945.766	1800
950.965	1819.33
956.158	1797.33
961.347	1790
966.529	1776.67
971.707	1758.67
976.879	1735.67
982.046	1731.67
987.208	1730
992.364	1723.67
997.515	1736
1002.66	1735.67
1007.801	1755.67
1012.936	1769.67
1018.066	1787
1023.19	1801.67
1028.309	1802
1033.423	1799.33
1038.532	1792.67
1043.636	1777
1048.734	1780
1053.827	1752
1058.915	1739
1063.998	1737
1069.075	1723.33
1074.147	1736.33
1079.214	1732
1084.276	1758
1089.333	1766.67
1094.385	1776.33
1099.431	1774.67
1104.472	1786.67
1109.509	1788
1114.54	1766.33
1119.565	1744.33
1124.586	1722
1129.602	1703
1134.613	1694.67
1139.618	1693.33
1144.619	1686
1149.614	1692
1154.604	1698
1159.589	1711.67
1164.57	1700.33
1169.545	1715.67
1174.515	1705.67
1179.48	1693.33
1184.44	1682.33
1189.395	1660.33
1194.345	1660.67
1199.29	1653.67
1204.23	1643
1209.165	1661.67
1214.095	1649.67
1219.021	1672.67
1223.941	1681.33
1228.856	1695.67
1233.766	1690
1238.672	1685.67
1243.572	1683.67
1248.467	1670.67
1253.358	1645.33
1258.244	1621.67
1263.124	1601
1268	1586.33
1272.871	1564.33
1277.737	1548.33
1282.599	1548
1287.455	1550
1292.306	1550
1297.153	1566.67
1301.995	1568.33
1306.832	1567.67
1311.664	1578.67
1316.491	1577.33
1321.314	1580
1326.132	1564
1330.945	1534.67
1335.753	1504.67
1340.556	1472
1345.354	1449.67
1350.148	1426.33
1354.937	1419.33
1359.722	1449.33
1364.501	1476.67
1369.276	1499.33
1374.046	1527.33
1378.811	1560.67
1383.572	1556.67
1388.327	1560
1393.079	1527.33
1397.825	1492.33
1402.567	1470
1407.304	1447
1412.036	1437
1416.764	1426
1421.487	1421.67
1426.205	1421.33
1430.919	1431.67
1435.628	1445.33
1440.333	1465.33
1445.032	1466.67
1449.727	1473.33
1454.418	1476
1459.104	1484
1463.785	1465.67
1468.462	1459
1473.134	1453.67
1477.802	1449
1482.465	1443.33
1487.123	1446.67
1491.777	1452.67
1496.426	1483.67
1501.071	1499
1505.711	1523.67
1510.347	1544.67
1514.978	1560.33
1519.604	1586.67
1524.226	1601
1528.844	1604.67
1533.457	1598.33
1538.065	1600.33
1542.669	1590.67
1547.269	1585.67
1551.864	1577
1556.454	1574.33
1561.041	1564
1565.622	1562.33
1570.199	1563
1574.772	1573
1579.34	1575
1583.904	1585.67
1588.464	1586.33
1593.019	1575.67
1597.569	1569.33
1602.115	1565.67
1606.657	1547.33
1611.195	1540.33
1615.728	1528.33
1620.256	1518.67
1624.78	1525
1629.3	1520.67
1633.816	1532.67
1638.327	1538
1642.834	1558.33
1647.336	1594.33
1651.834	1604
1656.328	1627
1660.817	1643.33
1665.302	1657.33
1669.783	1659
1674.259	1655.67
1678.732	1643.33
1683.199	1630.33
1687.663	1592.67
1692.122	1578.67
1696.577	1601.67
1701.028	1633.67
1705.474	1684.33
1709.917	1714.33
1714.355	1734.67
1718.788	1716.33
1723.218	1704
1727.643	1691.67
1732.064	1688.67
1736.481	1679.33
1740.893	1676.67
1745.301	1654.67
1749.705	1646.33
1754.105	1627
1758.501	1600
1762.893	1598
1767.28	1596.33
1771.663	1602.67
1776.042	1600
1780.417	1618.67
1784.787	1635.67
1789.154	1686
1793.516	1720.67
1797.874	1756
1802.228	1795.33
1806.578	1812
1810.924	1805
1815.266	1794.67
1819.603	1783.33
1823.937	1749.33
1828.266	1746.33
1832.591	1728.33
1836.913	1709.67
1841.23	1714
1845.543	1700.33
1849.852	1704.67
1854.156	1711
1858.457	1733
1862.754	1721.33
1867.047	1741
1871.335	1761.33
1875.62	1765
1879.9	1773.33
1884.177	1772.33
1888.449	1770.67
1892.718	1772.33
1896.982	1763.67
1901.243	1772.67
1905.499	1780.33
1909.752	1791
1914	1788.67
1918.245	1812
1922.485	1820.67
1926.722	1842
1930.954	1860
1935.183	1872.33
1939.408	1896
1943.628	1907.33
1947.845	1911.33
1952.058	1920.67
1956.267	1894.67
1960.472	1895
1964.673	1872.67
1968.87	1850
1973.063	1830.67
1977.252	1818
1981.438	1808
1985.619	1794.67
1989.797	1786.33
1993.971	1793
1998.14	1797
2002.306	1784.67
2006.469	1782
2010.627	1787
2014.781	1780.67
2018.932	1781.33
2023.078	1773.67
2027.221	1752.33
2031.36	1741.33
2035.495	1732.67
2039.627	1724.67
2043.754	1712
2047.878	1706.67
2051.998	1701
2056.114	1718.67
2060.226	1726
2064.334	1726
2068.439	1734
2072.54	1743.67
2076.637	1762
2080.73	1779
2084.82	1791
2088.906	1792
2092.988	1790
2097.066	1786.67
2101.14	1782
2105.211	1776
2109.278	1769.33
2113.342	1778.33
2117.401	1771.33
2121.457	1777.33
2125.509	1769.33
2129.558	1770
2133.602	1761.67
2137.643	1768.33
2141.681	1770.33
2145.714	1766.67
2149.744	1765.33
2153.77	1759.33
2157.793	1752.33
2161.812	1750.33
2165.827	1714
2169.838	1719.33
2173.846	1690
2177.851	1685
2181.851	1673
2185.848	1670.33
2189.841	1663.67
2193.831	1661.33
2197.817	1654.67
2201.799	1669
2205.778	1662.67
2209.753	1686.67
2213.725	1677.33
2217.693	1689.67
2221.657	1696.67
2225.618	1723.67
2229.575	1724.67
2233.529	1726.67
2237.479	1727.33
2241.425	1726.33
2245.368	1714.67
2249.307	1712
2253.243	1702.67
2257.175	1693.67
2261.104	1688.67
2265.029	1693.67
2268.95	1689
2272.868	1684.33
2276.783	1687.33
2280.694	1692.33
2284.601	1687.67
2288.505	1693
2292.405	1681
2296.302	1675.33
2300.195	1679.33
2304.085	1671.67
2307.971	1660.67
2311.854	1638.33
2315.734	1627
2319.609	1629.67
2323.482	1608.67
2327.351	1599.67
2331.216	1601.33
2335.078	1610.67
2338.937	1606.33
2342.792	1603.33
2346.643	1614.33
2350.492	1623.67
2354.336	1626.67
2358.178	1628.67
2362.015	1656.67
2365.85	1660.67
2369.681	1674.33
2373.508	1681.33
2377.333	1687.67
2381.153	1696
2384.971	1703.33
2388.785	1690.67
2392.595	1701.67
2396.402	1694
2400.206	1702
2404.007	1700.67
2407.804	1710.67
2411.597	1710.67
2415.388	1717.67
2419.174	1720.67
2422.958	1725
2426.738	1749
2430.515	1740
2434.289	1743
2438.059	1746.33
2441.825	1754.33
2445.589	1758.67
2449.349	1763.33
2453.106	1751
2456.859	1757
2460.61	1772
2464.356	1758.33
2468.1	1759.33
2471.84	1766
2475.577	1773.33
2479.311	1784.67
2483.041	1792.67
2486.768	1806
2490.492	1823.67
2494.213	1845.33
2497.93	1841
2501.644	1858.67
2505.355	1879
2509.062	1880
2512.766	1892.33
2516.467	1902
2520.165	1905
2523.859	1915.33
2527.551	1914.67
2531.239	1921.33
2534.923	1923
2538.605	1940
2542.283	1938.67
2545.958	1957.33
2549.63	1956.33
2553.299	1964.33
2556.964	1982.67
2560.626	1981.33
2564.285	1992.67
2567.941	1990.67
2571.594	1991.67
2575.243	1992
2578.89	1992.33
2582.533	2011
2586.173	2007.67
2589.809	1995.33
2593.443	2014
2597.073	2005
2600.701	2006
2604.325	2017
2607.946	2025.33
2611.564	2032.67
2615.178	2038
2618.79	2042.67
2622.398	2041.67
2626.004	2044.33
2629.606	2042.67
2633.205	2022.33
2636.801	2029
2640.394	2027.67
2643.983	2006
2647.57	2010
2651.153	2001.67
2654.734	1990.67
2658.311	1970.33
2661.885	1972.67
2665.456	1966.33
2669.025	1973.67
2672.589	1956.33
2676.151	1947.67
2679.71	1948.67
2683.266	1935.33
2686.819	1932
2690.368	1920.67
2693.915	1911.33
2697.458	1895.67
2700.999	1881.67
2704.536	1875.67
2708.071	1864.33
2711.602	1853.67
2715.13	1855.67
2718.656	1838.33
2722.178	1841.67
2725.697	1841.67
2729.214	1853
2732.727	1866.33
2736.237	1882
2739.744	1907
2743.249	1918.33
2746.75	1947.33
2750.248	1974.33
2753.743	1976.33
2757.236	1987.67
2760.725	2006.67
2764.211	2007.33
2767.695	2008.33
2771.175	2010
2774.652	2007.33
2778.127	1992.67
2781.598	1988.67
2785.067	1974
2788.532	1977.67
2791.995	1979.33
2795.455	1965.33
2798.911	1967
2802.365	1973.33
2805.816	1952.67
2809.264	1957.33
2812.709	1948
2816.151	1937.33
2819.59	1927.33
2823.026	1920
2826.46	1926.67
2829.89	1912.67
2833.318	1912.33
2836.742	1909
2840.164	1904.33
2843.583	1911
2846.999	1903.67
2850.412	1905.33
2853.822	1911.33
2857.229	1907
2860.634	1912.33
2864.035	1909.67
2867.434	1916.67
2870.83	1927.33
2874.223	1920
2877.613	1911
2881	1888.67
2884.385	1884
2887.766	1857.33
2891.145	1850.33
2894.521	1841.67
2897.894	1821.33
2901.264	1808.33
2904.631	1792
2907.996	1785.67
2911.358	1780.67
2914.717	1768
2918.073	1759.67
2921.426	1746
2924.777	1737.67
2928.124	1741.33
2931.469	1736.67
2934.811	1729
2938.15	1725.67
2941.487	1718
2944.821	1708.33
2948.152	1703.67
2951.48	1690.67
2954.805	1676.33
2958.128	1662.33
2961.447	1655
2964.765	1654.67
2968.079	1642.67
2971.39	1641.33
2974.699	1638.33
2978.005	1657
2981.308	1644
2984.609	1654
2987.907	1654.33
2991.202	1665.67
2994.494	1655.67
2997.784	1674.33
3001.07	1678
3004.355	1674.67
3007.636	1675
3010.915	1655.67
3014.191	1659
3017.464	1652
3020.734	1624.67
3024.002	1599.33
3027.267	1580
3030.53	1562.67
3033.789	1539
3037.046	1540.33
3040.301	1516.67
3043.552	1504.33
3046.801	1499
3050.048	1495
3053.291	1491
3056.532	1487
3059.771	1481.33
3063.006	1474
3066.239	1480.33
3069.469	1485.33
3072.697	1477.67
3075.922	1473.67
3079.144	1466.67
3082.364	1468
3085.581	1448
3088.795	1442.33
3092.007	1438.67
3095.216	1420
3098.423	1428
3101.627	1408.33
3104.828	1406.33
3108.026	1399.67
3111.222	1386
3114.416	1387
3117.607	1384.67
3120.795	1384.67
3123.98	1368
3127.163	1378.33
3130.344	1365.33
3133.521	1367.67
3136.696	1361.33
3139.869	1362.33
3143.039	1352.33
3146.206	1354
3149.371	1333.67
3152.533	1318.67
3155.693	1314.33
3158.85	1305
3162.005	1280.67
3165.157	1281.67
3168.306	1259
3171.453	1247.67
3174.597	1234
3177.739	1217.33
3180.878	1207.67
3184.014	1206
3187.149	1187.33
3190.28	1178
3193.409	1181
3196.536	1165
3199.659	1168
3202.781	1155
3205.9	1147
3209.016	1143.33
3212.13	1143.67
3215.241	1125
3218.35	1120.33
3221.456	1108
3224.56	1096
3227.661	1080
3230.76	1079.33
3233.856	1065
3236.95	1058
3240.041	1042
3243.13	1033.67
3246.216	1031.33
3249.3	1033
3252.382	1017.67
3255.46	1021
3258.537	1012
3261.611	1013
3264.682	1012.67
3267.751	1013.67
3270.818	1015
3273.882	1011.67
3276.943	1009
3280.002	1000.33
3283.059	995.67
3286.113	990
3289.165	979
3292.214	969.67
3295.261	967
3298.306	941.67
3301.348	941
3304.387	922
3307.425	921
3310.459	909.33
3313.492	904
3316.521	887.67
3319.549	875.33
3322.574	861.33
3325.597	864
3328.617	864.33
3331.635	854.67
3334.65	854
3337.663	852.33
3340.674	851.33
3343.682	846.67
3346.688	840.67
3349.691	840.67
3352.692	843.67
3355.691	828.67
3358.687	829.67
3361.681	816
3364.673	803.33
3367.662	800.33
3370.649	795.67
3373.633	782.67
3376.615	773
3379.595	764.67
3382.572	761.67
3385.547	744.33
3388.52	747.33
3391.49	733
3394.458	730
3397.424	719
3400.387	715.33
3403.348	706
3406.307	703
3409.263	702.67
3412.217	696
3415.168	688.67
3418.118	685.33
3421.065	685.33
3424.009	680.33
3426.951	678.67
3429.891	676
3432.829	667.67
3435.764	664.67
3438.697	650.33
3441.628	649.67
3444.557	636
3447.483	624.33
3450.407	615.33
3453.328	604.67
3456.247	592.33
3459.164	587.33
3462.079	582
3464.991	570.33
3467.902	564.33
3470.809	555.67
3473.715	551.33
3476.618	545
3479.519	540.67
3482.418	530
3485.315	521.67
3488.209	521
3491.101	515.67
3493.99	512.67
3496.878	507.67
3499.763	507.67
3502.646	500.33
3505.527	492.33
3508.405	487.67
3511.281	478.33
3514.155	474
3517.027	468
3519.897	454.33
3522.764	448.67
3525.629	436.67
3528.492	427.67
3531.352	417.33
3534.211	412
3537.067	399.67
3539.921	393.67
3542.773	384.33
3545.622	378.67
3548.469	367.33
3551.315	364.67
3554.157	354.67
3556.998	351.33
3559.837	346.33
3562.673	348.67
3565.507	335.33
3568.339	331
3571.169	327.67
3573.996	325.33
3576.822	318
3579.645	309
3582.466	305.33
3585.285	298
3588.101	293.67
3590.916	286.33
3593.728	279.33
3596.538	273.33
3599.346	267
3602.152	260
3604.956	261
3607.757	251
3610.556	248.67
3613.354	240.33
3616.149	242.67
3618.942	236
3621.732	229.33
3624.521	227.33
3627.307	228.33
3630.092	224
3632.874	219.67
3635.654	222
3638.432	214.67
3641.208	217.67
3643.982	211.67
3646.753	209.33
3649.523	204.33
3652.29	204
3655.055	200
3657.818	192.67
3660.579	191.67
3663.338	186.67
3666.095	185.67
3668.849	177.67
3671.602	181.33
3674.352	176.33
3677.101	169.33
3679.847	170.33
3682.591	166.33
3685.333	169.33
3688.073	165
3690.811	165.67
3693.547	169.33
3696.281	163.67
3699.013	163.67
3701.742	159.33
3704.47	161
3707.195	165
3709.919	157.67
3712.64	157.67
3715.359	158.67
3718.076	156.33
3720.792	149
3723.505	145.67
3726.216	147.67
3728.925	148.33
3731.632	142.67
3734.336	143
3737.039	140.67
3739.74	132.67
3742.439	135.33
3745.136	132
3747.83	132.33
3750.523	131.33
3753.213	132
3755.902	130
3758.589	131.33
3761.273	126.33
3763.956	123.67
3766.636	127
3769.315	124.67
3771.991	122.67
3774.665	120
3777.338	116.67
3780.008	113
3782.677	110.67
3785.343	106.33
3788.007	105
3790.67	102.33
3793.33	98.33
3795.989	96.33
3798.645	98.33
3801.299	92.33
3803.952	93.33
3806.602	91.67
3809.251	88.33
3811.897	90
3814.542	86.67
3817.184	82.33
3819.825	87.33
3822.463	79.33
3825.1	79.33
3827.735	77
3830.367	75.33
3832.998	72
3835.627	72.33
3838.253	67
3840.878	65.67
3843.501	64.33
3846.122	61
3848.741	58
3851.358	56
3853.973	56
3856.586	54
3859.197	52.33
3861.806	48.67
3864.414	47.67
3867.019	46
3869.622	46.33
3872.224	44.33
3874.823	43.67
3877.421	38
3880.016	39.33
3882.61	36.33
3885.202	34.33
3887.792	30
3890.38	26.33
3892.966	25.33
3895.55	22.67
3898.132	20
3900.713	17.33
3903.291	13.33
3905.868	12.67
3908.442	12
3911.015	9
3913.586	6
3916.155	7.33
3918.722	3
3921.287	5.33
3923.85	0.67
3926.411	1
3928.971	-0.33
3931.528	-0.67
3934.084	-3.33
3936.638	-4.33
3939.19	-6.67
3941.74	-3.67
3944.288	-7
3946.834	-8
3949.378	-8
3951.921	-8.33
3954.462	-9
3957	-9
3959.537	-9.67
3962.072	-7.33
3964.606	-8.33
3967.137	-10.33
3969.667	-9.33
3972.194	-12.67
3974.72	-11.33
3977.244	-10.33
3979.766	-11.33
3982.286	-11
3984.805	-10
3987.321	-10.33
3989.836	-10.33
3992.349	-10.33
3994.86	-9.33
3997.369	-11.33
3999.877	-12
4002.382	-9.67
4004.886	-13.67
4007.388	-8.67
4009.888	-13.67
4012.386	-12.33
4014.883	-12
4017.377	-14.33
4019.87	-12.67
4022.361	-15
4024.85	-14.33
4027.338	-12
4029.823	-15.33
4032.307	-13.67
4034.789	-12.67
4037.269	-15
4039.747	-17.67
4042.224	-17.33
4044.699	-16
4047.172	-17.67
4049.643	-20.33
4052.112	-18.67
4054.58	-20.67
4057.046	-22.33
4059.51	-21
4061.972	-24.33
4064.432	-21
4066.891	-22
4069.348	-21.33
4071.803	-23.67
4074.256	-23
4076.708	-25.33
4079.158	-24
4081.606	-24.33
4084.052	-24.67
4086.497	-24
4088.939	-23.67
4091.38	-23.67
4093.819	-23.67
4096.257	-35.33
4098.693	-34
4101.127	-35.67
4103.559	-37.33
4105.989	-16.67
4108.418	-15.33
4110.845	-15.33
4113.27	-10.33
4115.694	-9
4118.115	-8.33
4120.535	-25.67
4122.954	-25.33
4125.37	-25.33
4127.785	-24
4130.198	-27.33
4132.609	-25.67
4135.019	-37
4137.427	-35
4139.833	-34.33
4142.237	-35
