Data from bs2_RamanShift_2.txt Node
Date: Tue Oct 17 17:50:09 IDT 2017
User: aro
Spectrometer: QEPB0276
Trigger mode: 0
Integration Time (sec): 5.000000E0
Scans to average: 3
Electric dark correction enabled: true
Nonlinearity correction enabled: false
Boxcar width: 0
XAxis mode: Raman Shifts
Number of Pixels in Spectrum: 1044
>>>>>Begin Spectral Data<<<<<
160.701	-3.71
166.742	5.63
172.777	20.96
178.805	70.63
184.826	205.63
190.841	446.96
196.849	752.63
202.85	984.63
208.845	1087.63
214.833	1110.63
220.815	1136.29
226.789	1159.63
232.758	1200.96
238.719	1243.29
244.674	1254.29
250.623	1248.29
256.565	1254.96
262.5	1243.63
268.429	1234.63
274.351	1221.96
280.267	1222.63
286.176	1242.96
292.079	1239.63
297.975	1250.96
303.865	1267.29
309.748	1274.63
315.625	1257.96
321.495	1232.29
327.359	1222.96
333.217	1211.96
339.068	1205.96
344.912	1193.63
350.751	1181.29
356.583	1174.29
362.408	1147.96
368.227	1152.29
374.04	1150.29
379.847	1139.96
385.647	1134.96
391.44	1128.29
397.228	1115.29
403.009	1104.29
408.784	1108.63
414.553	1121.96
420.315	1134.63
426.071	1132.96
431.821	1107.29
437.565	1055.63
443.302	1043.96
449.033	1033.29
454.758	1010.96
460.477	988.63
466.189	973.96
471.896	958.63
477.596	936.96
483.29	917.29
488.978	893.63
494.66	862.96
500.335	822.96
506.005	790.63
511.668	801.63
517.325	870.63
522.977	1001.29
528.622	1115.63
534.261	1143.29
539.894	1136.96
545.521	1113.96
551.141	1085.29
556.756	1071.63
562.365	1058.29
567.968	1051.96
573.565	1037.63
579.155	1023.63
584.74	1013.29
590.319	1013.29
595.892	990.96
601.459	983.63
607.02	970.96
612.575	961.29
618.124	954.29
623.667	959.63
629.204	968.63
634.735	981.29
640.261	986.63
645.781	1001.29
651.294	1001.96
656.802	1004.63
662.304	1012.63
667.8	1005.29
673.29	1009.96
678.775	999.29
684.254	998.96
689.726	1006.63
695.193	1001.63
700.655	1002.63
706.11	1002.63
711.56	1002.29
717.004	1002.29
722.442	1000.29
727.874	1011.63
733.301	1014.63
738.722	1013.63
744.137	1023.96
749.547	1035.29
754.951	1032.96
760.349	1045.96
765.741	1053.29
771.128	1063.29
776.509	1060.63
781.885	1071.63
787.254	1074.63
792.618	1080.63
797.977	1090.96
803.33	1084.29
808.677	1087.96
814.019	1094.29
819.355	1098.63
824.686	1097.29
830.011	1110.63
835.33	1120.29
840.644	1123.63
845.952	1132.63
851.255	1149.96
856.552	1162.29
861.844	1164.96
867.13	1183.96
872.41	1182.96
877.686	1189.29
882.955	1193.96
888.219	1193.29
893.478	1181.63
898.731	1192.96
903.979	1191.29
909.221	1204.96
914.458	1206.29
919.69	1220.96
924.916	1231.96
930.136	1245.29
935.351	1294.63
940.561	1310.29
945.766	1322.96
950.965	1328.96
956.158	1330.29
961.347	1322.63
966.529	1309.96
971.707	1297.96
976.879	1284.96
982.046	1282.96
987.208	1272.96
992.364	1274.63
997.515	1276.96
1002.66	1274.63
1007.801	1300.63
1012.936	1300.29
1018.066	1317.63
1023.19	1328.29
1028.309	1336.29
1033.423	1331.96
1038.532	1333.96
1043.636	1309.63
1048.734	1317.63
1053.827	1299.29
1058.915	1285.29
1063.998	1288.63
1069.075	1288.63
1074.147	1283.96
1079.214	1303.96
1084.276	1301.96
1089.333	1318.63
1094.385	1329.29
1099.431	1332.96
1104.472	1340.63
1109.509	1331.96
1114.54	1319.63
1119.565	1304.29
1124.586	1294.63
1129.602	1284.29
1134.613	1281.96
1139.618	1270.29
1144.619	1261.63
1149.614	1269.63
1154.604	1276.96
1159.589	1282.29
1164.57	1278.29
1169.545	1284.29
1174.515	1277.63
1179.48	1275.96
1184.44	1271.63
1189.395	1264.29
1194.345	1259.63
1199.29	1243.63
1204.23	1250.96
1209.165	1256.29
1214.095	1256.96
1219.021	1273.29
1223.941	1272.63
1228.856	1286.63
1233.766	1274.96
1238.672	1282.63
1243.572	1272.63
1248.467	1266.29
1253.358	1255.63
1258.244	1235.63
1263.124	1223.63
1268	1215.63
1272.871	1199.96
1277.737	1181.29
1282.599	1186.29
1287.455	1188.96
1292.306	1189.63
1297.153	1193.63
1301.995	1209.96
1306.832	1208.63
1311.664	1216.29
1316.491	1212.29
1321.314	1210.63
1326.132	1199.29
1330.945	1174.96
1335.753	1159.63
1340.556	1137.96
1345.354	1114.29
1350.148	1103.63
1354.937	1102.63
1359.722	1113.63
1364.501	1138.29
1369.276	1167.63
1374.046	1189.29
1378.811	1214.96
1383.572	1208.96
1388.327	1201.29
1393.079	1188.29
1397.825	1154.29
1402.567	1137.96
1407.304	1128.29
1412.036	1118.29
1416.764	1118.63
1421.487	1105.63
1426.205	1114.29
1430.919	1117.63
1435.628	1125.96
1440.333	1136.96
1445.032	1144.63
1449.727	1147.63
1454.418	1154.96
1459.104	1153.63
1463.785	1145.63
1468.462	1142.63
1473.134	1132.63
1477.802	1126.63
1482.465	1133.63
1487.123	1136.29
1491.777	1151.29
1496.426	1161.96
1501.071	1187.96
1505.711	1206.96
1510.347	1222.63
1514.978	1239.63
1519.604	1259.63
1524.226	1270.63
1528.844	1261.96
1533.457	1266.29
1538.065	1264.63
1542.669	1262.29
1547.269	1255.96
1551.864	1250.63
1556.454	1246.63
1561.041	1255.63
1565.622	1251.96
1570.199	1241.29
1574.772	1256.96
1579.34	1263.63
1583.904	1265.96
1588.464	1267.63
1593.019	1266.29
1597.569	1267.29
1602.115	1248.96
1606.657	1248.63
1611.195	1241.96
1615.728	1226.63
1620.256	1220.96
1624.78	1216.29
1629.3	1231.63
1633.816	1238.63
1638.327	1243.96
1642.834	1264.29
1647.336	1281.96
1651.834	1303.96
1656.328	1318.63
1660.817	1331.29
1665.302	1340.63
1669.783	1345.96
1674.259	1331.63
1678.732	1329.96
1683.199	1324.29
1687.663	1303.29
1692.122	1292.29
1696.577	1301.96
1701.028	1318.96
1705.474	1368.29
1709.917	1398.96
1714.355	1411.63
1718.788	1397.29
1723.218	1388.96
1727.643	1390.63
1732.064	1380.63
1736.481	1377.29
1740.893	1372.63
1745.301	1363.29
1749.705	1350.63
1754.105	1340.96
1758.501	1323.63
1762.893	1310.29
1767.28	1315.29
1771.663	1322.63
1776.042	1315.96
1780.417	1338.29
1784.787	1362.29
1789.154	1395.63
1793.516	1424.96
1797.874	1462.29
1802.228	1490.29
1806.578	1499.29
1810.924	1503.63
1815.266	1492.63
1819.603	1467.29
1823.937	1465.96
1828.266	1452.29
1832.591	1444.29
1836.913	1431.96
1841.23	1425.29
1845.543	1429.63
1849.852	1423.29
1854.156	1431.63
1858.457	1443.63
1862.754	1455.63
1867.047	1466.29
1871.335	1469.96
1875.62	1488.96
1879.9	1485.96
1884.177	1493.63
1888.449	1496.29
1892.718	1491.63
1896.982	1499.63
1901.243	1500.29
1905.499	1501.29
1909.752	1514.96
1914	1519.96
1918.245	1532.29
1922.485	1550.63
1926.722	1562.96
1930.954	1589.63
1935.183	1592.96
1939.408	1609.29
1943.628	1624.96
1947.845	1629.29
1952.058	1622.29
1956.267	1631.29
1960.472	1612.63
1964.673	1601.29
1968.87	1580.63
1973.063	1561.63
1977.252	1564.29
1981.438	1550.96
1985.619	1552.96
1989.797	1539.96
1993.971	1539.63
1998.14	1536.63
2002.306	1536.29
2006.469	1540.96
2010.627	1533.63
2014.781	1543.29
2018.932	1531.63
2023.078	1529.29
2027.221	1524.63
2031.36	1499.63
2035.495	1495.63
2039.627	1493.63
2043.754	1483.96
2047.878	1483.29
2051.998	1477.63
2056.114	1491.29
2060.226	1496.96
2064.334	1490.63
2068.439	1505.29
2072.54	1519.63
2076.637	1525.63
2080.73	1548.96
2084.82	1544.96
2088.906	1552.96
2092.988	1554.96
2097.066	1555.63
2101.14	1556.63
2105.211	1545.96
2109.278	1549.63
2113.342	1548.29
2117.401	1535.96
2121.457	1545.29
2125.509	1537.96
2129.558	1537.63
2133.602	1535.63
2137.643	1545.96
2141.681	1543.29
2145.714	1547.63
2149.744	1548.96
2153.77	1526.29
2157.793	1536.96
2161.812	1521.96
2165.827	1520.29
2169.838	1498.96
2173.846	1492.29
2177.851	1471.63
2181.851	1469.63
2185.848	1465.63
2189.841	1457.96
2193.831	1451.63
2197.817	1456.63
2201.799	1455.29
2205.778	1460.96
2209.753	1467.96
2213.725	1468.63
2217.693	1481.29
2221.657	1492.96
2225.618	1496.29
2229.575	1512.96
2233.529	1511.29
2237.479	1500.29
2241.425	1496.96
2245.368	1491.96
2249.307	1484.96
2253.243	1481.63
2257.175	1479.63
2261.104	1475.29
2265.029	1483.63
2268.95	1466.96
2272.868	1475.29
2276.783	1464.96
2280.694	1464.29
2284.601	1464.96
2288.505	1459.29
2292.405	1457.63
2296.302	1454.63
2300.195	1444.63
2304.085	1447.29
2307.971	1442.29
2311.854	1433.63
2315.734	1420.63
2319.609	1401.29
2323.482	1399.63
2327.351	1384.63
2331.216	1394.63
2335.078	1385.63
2338.937	1389.29
2342.792	1392.63
2346.643	1390.63
2350.492	1408.63
2354.336	1408.63
2358.178	1414.96
2362.015	1425.96
2365.85	1436.96
2369.681	1443.96
2373.508	1458.96
2377.333	1455.29
2381.153	1464.63
2384.971	1468.63
2388.785	1470.29
2392.595	1469.29
2396.402	1458.63
2400.206	1466.63
2404.007	1472.29
2407.804	1470.29
2411.597	1468.63
2415.388	1480.29
2419.174	1488.63
2422.958	1480.96
2426.738	1498.63
2430.515	1498.96
2434.289	1502.96
2438.059	1508.96
2441.825	1505.63
2445.589	1515.29
2449.349	1508.96
2453.106	1515.29
2456.859	1506.96
2460.61	1518.63
2464.356	1512.63
2468.1	1517.63
2471.84	1501.29
2475.577	1529.29
2479.311	1532.96
2483.041	1544.29
2486.768	1550.96
2490.492	1569.29
2494.213	1573.96
2497.93	1579.29
2501.644	1591.96
2505.355	1610.63
2509.062	1620.29
2512.766	1625.63
2516.467	1631.29
2520.165	1637.63
2523.859	1640.29
2527.551	1653.63
2531.239	1654.63
2534.923	1655.63
2538.605	1660.96
2542.283	1671.96
2545.958	1669.96
2549.63	1681.29
2553.299	1696.63
2556.964	1710.29
2560.626	1716.96
2564.285	1711.96
2567.941	1720.63
2571.594	1721.96
2575.243	1719.96
2578.89	1729.29
2582.533	1723.96
2586.173	1733.29
2589.809	1742.29
2593.443	1743.29
2597.073	1739.29
2600.701	1751.63
2604.325	1754.62
2607.946	1761.63
2611.564	1778.96
2615.178	1778.96
2618.79	1784.63
2622.398	1783.63
2626.004	1778.96
2629.606	1791.96
2633.205	1790.63
2636.801	1768.29
2640.394	1772.96
2643.983	1773.29
2647.57	1763.96
2651.153	1759.63
2654.734	1753.63
2658.311	1747.96
2661.885	1744.63
2665.456	1736.62
2669.025	1732.29
2672.589	1741.63
2676.151	1726.29
2679.71	1733.29
2683.266	1723.63
2686.819	1709.96
2690.368	1705.63
2693.915	1704.96
2697.458	1696.29
2700.999	1687.29
2704.536	1677.29
2708.071	1664.29
2711.602	1658.96
2715.13	1661.96
2718.656	1652.63
2722.178	1654.96
2725.697	1664.63
2729.214	1667.96
2732.727	1684.96
2736.237	1699.63
2739.744	1714.29
2743.249	1745.62
2746.75	1759.96
2750.248	1773.62
2753.743	1788.29
2757.236	1796.29
2760.725	1824.96
2764.211	1810.63
2767.695	1815.96
2771.175	1822.29
2774.652	1819.96
2778.127	1811.29
2781.598	1818.29
2785.067	1800.63
2788.532	1806.29
2791.995	1806.96
2795.455	1796.63
2798.911	1803.63
2802.365	1795.29
2805.816	1793.29
2809.264	1797.96
2812.709	1803.29
2816.151	1780.62
2819.59	1782.29
2823.026	1776.29
2826.46	1779.29
2829.89	1778.29
2833.318	1778.29
2836.742	1768.62
2840.164	1766.29
2843.583	1761.63
2846.999	1771.62
2850.412	1771.63
2853.822	1779.96
2857.229	1776.96
2860.634	1778.63
2864.035	1788.63
2867.434	1799.63
2870.83	1786.62
2874.223	1790.29
2877.613	1791.29
2881	1771.29
2884.385	1770.29
2887.766	1756.29
2891.145	1737.29
2894.521	1735.63
2897.894	1729.96
2901.264	1712.96
2904.631	1695.63
2907.996	1688.29
2911.358	1671.96
2914.717	1675.29
2918.073	1664.96
2921.426	1662.96
2924.777	1644.96
2928.124	1644.63
2931.469	1654.96
2934.811	1635.63
2938.15	1644.29
2941.487	1620.63
2944.821	1620.29
2948.152	1621.63
2951.48	1603.29
2954.805	1586.96
2958.128	1575.96
2961.447	1576.63
2964.765	1567.96
2968.079	1566.96
2971.39	1562.63
2974.699	1561.96
2978.005	1562.29
2981.308	1573.96
2984.609	1574.96
2987.907	1573.29
2991.202	1582.96
2994.494	1599.96
2997.784	1593.96
3001.07	1602.96
3004.355	1602.29
3007.636	1596.63
3010.915	1583.29
3014.191	1575.29
3017.464	1562.29
3020.734	1550.63
3024.002	1524.29
3027.267	1506.63
3030.53	1490.29
3033.789	1478.63
3037.046	1457.63
3040.301	1448.63
3043.552	1431.29
3046.801	1424.63
3050.048	1428.29
3053.291	1418.96
3056.532	1418.63
3059.771	1409.63
3063.006	1414.29
3066.239	1406.29
3069.469	1401.29
3072.697	1407.96
3075.922	1397.63
3079.144	1390.96
3082.364	1384.63
3085.581	1383.96
3088.795	1373.63
3092.007	1360.63
3095.216	1356.29
3098.423	1353.63
3101.627	1339.63
3104.828	1326.29
3108.026	1324.63
3111.222	1313.29
3114.416	1315.63
3117.607	1310.63
3120.795	1297.96
3123.98	1306.96
3127.163	1300.29
3130.344	1292.96
3133.521	1286.96
3136.696	1286.96
3139.869	1283.96
3143.039	1275.63
3146.206	1270.96
3149.371	1262.63
3152.533	1247.96
3155.693	1231.63
3158.85	1221.29
3162.005	1204.96
3165.157	1194.29
3168.306	1175.29
3171.453	1170.96
3174.597	1160.29
3177.739	1133.29
3180.878	1134.63
3184.014	1122.29
3187.149	1103.63
3190.28	1099.96
3193.409	1095.96
3196.536	1083.63
3199.659	1081.96
3202.781	1077.63
3205.9	1069.96
3209.016	1067.96
3212.13	1056.29
3215.241	1039.63
3218.35	1036.63
3221.456	1021.96
3224.56	1013.96
3227.661	1000.96
3230.76	990.96
3233.856	976.29
3236.95	973.29
3240.041	967.96
3243.13	964.96
3246.216	953.63
3249.3	945.63
3252.382	946.96
3255.46	936.96
3258.537	925.96
3261.611	933.96
3264.682	926.96
3267.751	931.63
3270.818	930.96
3273.882	936.29
3276.943	924.63
3280.002	913.96
3283.059	913.96
3286.113	911.63
3289.165	895.63
3292.214	881.29
3295.261	877.63
3298.306	863.63
3301.348	854.63
3304.387	843.96
3307.425	831.96
3310.459	830.63
3313.492	820.29
3316.521	806.29
3319.549	803.63
3322.574	793.96
3325.597	790.96
3328.617	781.96
3331.635	779.29
3334.65	778.96
3337.663	766.63
3340.674	759.29
3343.682	762.63
3346.688	767.96
3349.691	757.63
3352.692	756.96
3355.691	752.96
3358.687	739.96
3361.681	743.63
3364.673	733.96
3367.662	725.29
3370.649	718.63
3373.633	710.29
3376.615	696.96
3379.595	699.96
3382.572	684.29
3385.547	678.63
3388.52	671.96
3391.49	668.96
3394.458	663.29
3397.424	651.29
3400.387	650.96
3403.348	647.96
3406.307	641.29
3409.263	636.96
3412.217	629.29
3415.168	630.29
3418.118	625.63
3421.065	626.63
3424.009	619.96
3426.951	612.63
3429.891	612.96
3432.829	604.96
3435.764	600.63
3438.697	594.63
3441.628	585.29
3444.557	580.29
3447.483	570.63
3450.407	565.96
3453.328	552.29
3456.247	544.63
3459.164	540.63
3462.079	531.29
3464.991	519.29
3467.902	519.29
3470.809	508.96
3473.715	503.96
3476.618	502.63
3479.519	495.29
3482.418	492.29
3485.315	483.96
3488.209	481.96
3491.101	483.63
3493.99	474.96
3496.878	473.96
3499.763	467.63
3502.646	465.96
3505.527	452.96
3508.405	452.96
3511.281	442.63
3514.155	444.29
3517.027	430.63
3519.897	423.96
3522.764	420.29
3525.629	411.63
3528.492	402.29
3531.352	390.29
3534.211	387.63
3537.067	377.29
3539.921	370.29
3542.773	364.29
3545.622	354.29
3548.469	347.29
3551.315	344.29
3554.157	333.63
3556.998	335.29
3559.837	327.63
3562.673	323.63
3565.507	322.29
3568.339	318.63
3571.169	314.29
3573.996	310.63
3576.822	305.96
3579.645	302.96
3582.466	295.29
3585.285	290.96
3588.101	280.96
3590.916	280.63
3593.728	270.96
3596.538	263.29
3599.346	261.96
3602.152	258.29
3604.956	253.29
3607.757	246.29
3610.556	246.63
3613.354	245.96
3616.149	235.96
3618.942	231.29
3621.732	230.96
3624.521	226.96
3627.307	229.29
3630.092	217.96
3632.874	223.29
3635.654	221.29
3638.432	219.29
3641.208	214.63
3643.982	215.29
3646.753	209.63
3649.523	207.96
3652.29	202.63
3655.055	200.29
3657.818	197.96
3660.579	194.96
3663.338	189.96
3666.095	186.63
3668.849	184.96
3671.602	182.29
3674.352	183.96
3677.101	177.29
3679.847	174.29
3682.591	170.63
3685.333	170.29
3688.073	169.29
3690.811	173.63
3693.547	168.63
3696.281	171.63
3699.013	172.96
3701.742	167.96
3704.47	168.29
3707.195	169.29
3709.919	166.96
3712.64	165.63
3715.359	165.63
3718.076	161.63
3720.792	157.96
3723.505	157.96
3726.216	157.63
3728.925	152.29
3731.632	149.96
3734.336	150.96
3737.039	145.96
3739.74	148.63
3742.439	140.63
3745.136	142.29
3747.83	143.96
3750.523	141.63
3753.213	141.63
3755.902	141.63
3758.589	141.29
3761.273	139.96
3763.956	134.63
3766.636	136.63
3769.315	135.63
3771.991	129.63
3774.665	129.29
3777.338	127.63
3780.008	123.96
3782.677	121.29
3785.343	116.96
3788.007	114.96
3790.67	110.96
3793.33	108.96
3795.989	106.29
3798.645	105.63
3801.299	106.63
3803.952	102.29
3806.602	102.96
3809.251	99.29
3811.897	99.63
3814.542	98.63
3817.184	91.63
3819.825	94.29
3822.463	95.63
3825.1	91.63
3827.735	88.96
3830.367	83.63
3832.998	80.96
3835.627	82.63
3838.253	76.63
3840.878	77.29
3843.501	77.63
3846.122	68.29
3848.741	69.29
3851.358	63.29
3853.973	59.96
3856.586	63.29
3859.197	59.96
3861.806	57.96
3864.414	56.63
3867.019	56.63
3869.622	55.63
3872.224	52.63
3874.823	49.96
3877.421	48.63
3880.016	48.29
3882.61	44.29
3885.202	43.96
3887.792	41.63
3890.38	37.63
3892.966	36.63
3895.55	33.63
3898.132	29.96
3900.713	29.63
3903.291	25.29
3905.868	22.29
3908.442	21.96
3911.015	21.63
3913.586	18.96
3916.155	15.63
3918.722	16.96
3921.287	13.29
3923.85	13.63
3926.411	13.63
3928.971	11.63
3931.528	12.96
3934.084	6.63
3936.638	8.96
3939.19	8.96
3941.74	7.63
3944.288	4.63
3946.834	3.29
3949.378	2.29
3951.921	0.96
3954.462	2.63
3957	0.29
3959.537	1.29
3962.072	2.96
3964.606	-1.04
3967.137	0.63
3969.667	-1.04
3972.194	-3.04
3974.72	0.96
3977.244	-2.04
3979.766	-0.71
3982.286	-1.37
3984.805	-2.04
3987.321	-1.71
3989.836	-2.04
3992.349	-0.71
3994.86	-0.04
3997.369	-3.37
3999.877	-0.71
4002.382	-2.04
4004.886	-4.71
4007.388	-3.71
4009.888	-3.37
4012.386	-4.71
4014.883	-3.04
4017.377	-7.37
4019.87	-4.04
4022.361	-5.71
4024.85	-5.04
4027.338	-5.71
4029.823	-4.04
4032.307	-5.71
4034.789	-7.37
4037.269	-6.71
4039.747	-8.37
4042.224	-7.04
4044.699	-7.04
4047.172	-8.37
4049.643	-7.71
4052.112	-8.71
4054.58	-9.71
4057.046	-12.04
4059.51	-10.37
4061.972	-13.04
4064.432	-8.37
4066.891	-11.37
4069.348	-9.37
4071.803	-12.37
4074.256	-10.37
4076.708	-14.04
4079.158	-12.37
4081.606	-12.71
4084.052	-12.71
4086.497	-12.37
4088.939	-13.04
4091.38	-15.04
4093.819	-12.04
4096.257	-23.04
4098.693	-23.71
4101.127	-23.71
4103.559	-25.04
4105.989	-10.04
4108.418	-8.71
4110.845	-7.71
4113.27	-4.04
4115.694	-7.04
4118.115	-4.37
4120.535	-15.04
4122.954	-13.37
4125.37	-15.37
4127.785	-12.71
4130.198	-15.04
4132.609	-16.37
4135.019	-23.37
4137.427	-24.04
4139.833	-23.04
4142.237	-23.04
