Data from bs2_RamanShift_5.txt Node
Date: Tue Oct 17 17:52:09 IDT 2017
User: aro
Spectrometer: QEPB0276
Trigger mode: 0
Integration Time (sec): 5.000000E0
Scans to average: 3
Electric dark correction enabled: true
Nonlinearity correction enabled: false
Boxcar width: 0
XAxis mode: Raman Shifts
Number of Pixels in Spectrum: 1044
>>>>>Begin Spectral Data<<<<<
160.701	-3.42
166.742	7.25
172.777	28.92
178.805	98.25
184.826	282.92
190.841	629.25
196.849	1043.25
202.85	1372.58
208.845	1514.92
214.833	1545.58
220.815	1569.58
226.789	1610.25
232.758	1658.58
238.719	1692.58
244.674	1715.25
250.623	1723.25
256.565	1721.25
262.5	1701.58
268.429	1708.92
274.351	1699.58
280.267	1701.58
286.176	1704.58
292.079	1723.25
297.975	1722.25
303.865	1726.58
309.748	1738.58
315.625	1716.92
321.495	1693.58
327.359	1682.58
333.217	1665.92
339.068	1645.25
344.912	1629.58
350.751	1617.25
356.583	1596.92
362.408	1577.92
368.227	1566.92
374.04	1554.58
379.847	1558.25
385.647	1546.25
391.44	1544.92
397.228	1529.92
403.009	1517.58
408.784	1510.92
414.553	1527.92
420.315	1541.25
426.071	1529.58
431.821	1488.58
437.565	1459.25
443.302	1439.92
449.033	1426.92
454.758	1407.92
460.477	1383.25
466.189	1366.25
471.896	1344.58
477.596	1329.58
483.29	1308.58
488.978	1284.25
494.66	1250.25
500.335	1207.92
506.005	1191.92
511.668	1195.25
517.325	1276.25
522.977	1396.25
528.622	1518.25
534.261	1542.25
539.894	1533.25
545.521	1508.58
551.141	1481.92
556.756	1476.58
562.365	1453.58
567.968	1440.58
573.565	1423.25
579.155	1417.58
584.74	1413.25
590.319	1394.25
595.892	1384.58
601.459	1378.58
607.02	1369.92
612.575	1358.25
618.124	1361.25
623.667	1366.25
629.204	1381.58
634.735	1386.25
640.261	1401.58
645.781	1393.58
651.294	1414.25
656.802	1422.92
662.304	1416.58
667.8	1418.25
673.29	1415.58
678.775	1425.58
684.254	1428.92
689.726	1435.58
695.193	1431.92
700.655	1428.25
706.11	1429.92
711.56	1434.58
717.004	1436.25
722.442	1436.58
727.874	1445.58
733.301	1455.58
738.722	1456.25
744.137	1465.25
749.547	1481.92
754.951	1476.92
760.349	1480.58
765.741	1502.92
771.128	1506.58
776.509	1515.92
781.885	1524.92
787.254	1524.92
792.618	1532.25
797.977	1549.92
803.33	1546.25
808.677	1540.92
814.019	1537.92
819.355	1548.58
824.686	1547.58
830.011	1558.58
835.33	1569.58
840.644	1576.25
845.952	1582.92
851.255	1607.58
856.552	1614.92
861.844	1618.25
867.13	1638.58
872.41	1648.58
877.686	1650.92
882.955	1642.25
888.219	1634.58
893.478	1638.25
898.731	1630.92
903.979	1626.58
909.221	1627.58
914.458	1623.92
919.69	1639.92
924.916	1661.58
930.136	1691.58
935.351	1716.58
940.561	1737.92
945.766	1752.58
950.965	1763.25
956.158	1750.25
961.347	1738.25
966.529	1719.25
971.707	1696.58
976.879	1683.25
982.046	1669.25
987.208	1656.92
992.364	1656.58
997.515	1655.58
1002.66	1664.25
1007.801	1669.58
1012.936	1674.25
1018.066	1690.58
1023.19	1696.25
1028.309	1701.92
1033.423	1696.58
1038.532	1688.58
1043.636	1663.25
1048.734	1658.25
1053.827	1639.25
1058.915	1621.92
1063.998	1597.92
1069.075	1599.92
1074.147	1606.25
1079.214	1621.58
1084.276	1625.58
1089.333	1627.25
1094.385	1630.25
1099.431	1644.58
1104.472	1644.58
1109.509	1641.25
1114.54	1618.58
1119.565	1601.92
1124.586	1580.25
1129.602	1567.92
1134.613	1551.92
1139.618	1549.92
1144.619	1544.92
1149.614	1541.58
1154.604	1542.92
1159.589	1551.92
1164.57	1551.58
1169.545	1559.92
1174.515	1562.92
1179.48	1542.25
1184.44	1527.92
1189.395	1521.58
1194.345	1505.92
1199.29	1507.92
1204.23	1497.92
1209.165	1499.58
1214.095	1512.25
1219.021	1518.92
1223.941	1522.58
1228.856	1538.92
1233.766	1535.58
1238.672	1546.58
1243.572	1527.92
1248.467	1518.92
1253.358	1513.58
1258.244	1489.58
1263.124	1476.58
1268	1451.25
1272.871	1421.25
1277.737	1425.92
1282.599	1429.92
1287.455	1428.25
1292.306	1441.25
1297.153	1438.92
1301.995	1454.58
1306.832	1470.25
1311.664	1477.58
1316.491	1480.58
1321.314	1472.25
1326.132	1458.58
1330.945	1433.92
1335.753	1416.58
1340.556	1385.92
1345.354	1374.92
1350.148	1347.25
1354.937	1341.25
1359.722	1368.92
1364.501	1395.92
1369.276	1431.25
1374.046	1471.25
1378.811	1504.58
1383.572	1507.58
1388.327	1497.25
1393.079	1478.58
1397.825	1450.25
1402.567	1428.92
1407.304	1407.58
1412.036	1399.92
1416.764	1392.92
1421.487	1396.25
1426.205	1408.92
1430.919	1414.92
1435.628	1436.92
1440.333	1448.25
1445.032	1463.25
1449.727	1470.25
1454.418	1477.92
1459.104	1477.25
1463.785	1471.92
1468.462	1473.92
1473.134	1462.25
1477.802	1464.92
1482.465	1461.92
1487.123	1473.58
1491.777	1482.25
1496.426	1495.92
1501.071	1532.92
1505.711	1562.58
1510.347	1583.92
1514.978	1611.58
1519.604	1629.25
1524.226	1642.25
1528.844	1653.92
1533.457	1658.92
1538.065	1645.92
1542.669	1641.92
1547.269	1643.58
1551.864	1629.92
1556.454	1629.25
1561.041	1633.92
1565.622	1623.58
1570.199	1631.25
1574.772	1628.58
1579.34	1642.25
1583.904	1648.92
1588.464	1658.25
1593.019	1652.25
1597.569	1653.92
1602.115	1633.58
1606.657	1621.58
1611.195	1609.25
1615.728	1585.25
1620.256	1596.58
1624.78	1588.25
1629.3	1590.25
1633.816	1611.58
1638.327	1623.92
1642.834	1637.25
1647.336	1663.25
1651.834	1690.58
1656.328	1698.58
1660.817	1717.25
1665.302	1729.92
1669.783	1723.92
1674.259	1728.58
1678.732	1725.58
1683.199	1696.58
1687.663	1671.58
1692.122	1658.58
1696.577	1663.58
1701.028	1696.58
1705.474	1744.25
1709.917	1775.92
1714.355	1787.25
1718.788	1779.25
1723.218	1762.25
1727.643	1757.25
1732.064	1750.58
1736.481	1730.58
1740.893	1720.25
1745.301	1699.92
1749.705	1687.92
1754.105	1672.58
1758.501	1652.25
1762.893	1646.58
1767.28	1632.92
1771.663	1622.58
1776.042	1634.92
1780.417	1642.25
1784.787	1670.92
1789.154	1714.25
1793.516	1751.25
1797.874	1782.92
1802.228	1806.92
1806.578	1823.58
1810.924	1827.92
1815.266	1805.25
1819.603	1790.25
1823.937	1764.25
1828.266	1737.25
1832.591	1727.58
1836.913	1715.25
1841.23	1702.58
1845.543	1698.92
1849.852	1701.58
1854.156	1699.25
1858.457	1700.25
1862.754	1720.92
1867.047	1728.58
1871.335	1733.58
1875.62	1742.58
1879.9	1740.25
1884.177	1745.92
1888.449	1743.92
1892.718	1740.25
1896.982	1736.58
1901.243	1733.58
1905.499	1742.58
1909.752	1743.92
1914	1749.25
1918.245	1766.58
1922.485	1778.92
1926.722	1795.25
1930.954	1817.58
1935.183	1834.25
1939.408	1845.92
1943.628	1852.58
1947.845	1848.58
1952.058	1854.92
1956.267	1848.92
1960.472	1827.25
1964.673	1802.92
1968.87	1785.25
1973.063	1773.92
1977.252	1754.92
1981.438	1750.92
1985.619	1739.58
1989.797	1730.58
1993.971	1728.58
1998.14	1721.58
2002.306	1727.92
2006.469	1708.92
2010.627	1716.58
2014.781	1722.58
2018.932	1716.92
2023.078	1711.58
2027.221	1697.58
2031.36	1678.58
2035.495	1670.25
2039.627	1657.58
2043.754	1654.92
2047.878	1636.25
2051.998	1643.92
2056.114	1642.25
2060.226	1657.58
2064.334	1680.58
2068.439	1674.58
2072.54	1678.25
2076.637	1702.25
2080.73	1716.25
2084.82	1726.92
2088.906	1735.92
2092.988	1736.25
2097.066	1730.25
2101.14	1741.58
2105.211	1728.92
2109.278	1715.58
2113.342	1712.58
2117.401	1717.58
2121.457	1725.25
2125.509	1728.92
2129.558	1730.25
2133.602	1727.58
2137.643	1736.25
2141.681	1731.25
2145.714	1734.25
2149.744	1724.58
2153.77	1737.58
2157.793	1716.25
2161.812	1720.92
2165.827	1714.92
2169.838	1692.58
2173.846	1689.58
2177.851	1669.92
2181.851	1666.25
2185.848	1656.25
2189.841	1657.92
2193.831	1655.58
2197.817	1658.58
2201.799	1666.58
2205.778	1675.25
2209.753	1680.25
2213.725	1689.92
2217.693	1705.58
2221.657	1716.25
2225.618	1724.25
2229.575	1741.25
2233.529	1732.58
2237.479	1748.92
2241.425	1737.25
2245.368	1729.25
2249.307	1741.58
2253.243	1721.58
2257.175	1731.25
2261.104	1727.25
2265.029	1717.92
2268.95	1722.92
2272.868	1717.25
2276.783	1716.25
2280.694	1726.92
2284.601	1726.58
2288.505	1727.92
2292.405	1722.25
2296.302	1722.25
2300.195	1716.92
2304.085	1709.58
2307.971	1706.25
2311.854	1695.25
2315.734	1687.25
2319.609	1668.58
2323.482	1668.25
2327.351	1666.25
2331.216	1667.25
2335.078	1665.58
2338.937	1664.25
2342.792	1676.25
2346.643	1672.25
2350.492	1685.92
2354.336	1695.58
2358.178	1704.25
2362.015	1727.58
2365.85	1738.92
2369.681	1751.92
2373.508	1766.92
2377.333	1777.92
2381.153	1775.92
2384.971	1773.92
2388.785	1785.92
2392.595	1785.92
2396.402	1781.25
2400.206	1783.92
2404.007	1794.25
2407.804	1798.58
2411.597	1804.25
2415.388	1809.92
2419.174	1821.25
2422.958	1824.25
2426.738	1822.92
2430.515	1837.92
2434.289	1833.25
2438.059	1839.58
2441.825	1848.92
2445.589	1844.58
2449.349	1856.58
2453.106	1848.58
2456.859	1842.58
2460.61	1851.58
2464.356	1847.25
2468.1	1845.25
2471.84	1858.25
2475.577	1864.58
2479.311	1877.58
2483.041	1885.92
2486.768	1889.25
2490.492	1902.58
2494.213	1923.58
2497.93	1935.58
2501.644	1945.92
2505.355	1959.92
2509.062	1962.92
2512.766	1981.58
2516.467	1988.92
2520.165	1991.92
2523.859	1989.58
2527.551	1997.92
2531.239	2015.58
2534.923	2014.25
2538.605	2003.92
2542.283	2013.92
2545.958	2035.92
2549.63	2033.92
2553.299	2044.58
2556.964	2046.25
2560.626	2061.25
2564.285	2061.25
2567.941	2051.58
2571.594	2059.92
2575.243	2063.92
2578.89	2071.25
2582.533	2071.25
2586.173	2061.58
2589.809	2065.58
2593.443	2075.58
2597.073	2068.92
2600.701	2072.58
2604.325	2078.58
2607.946	2074.58
2611.564	2076.92
2615.178	2098.25
2618.79	2093.92
2622.398	2095.58
2626.004	2093.25
2629.606	2081.58
2633.205	2076.58
2636.801	2076.25
2640.394	2064.58
2643.983	2052.58
2647.57	2049.58
2651.153	2032.92
2654.734	2023.58
2658.311	2003.92
2661.885	2001.92
2665.456	1993.25
2669.025	1991.92
2672.589	1988.92
2676.151	1977.58
2679.71	1971.58
2683.266	1967.92
2686.819	1953.92
2690.368	1940.25
2693.915	1925.92
2697.458	1912.25
2700.999	1901.58
2704.536	1892.25
2708.071	1870.92
2711.602	1861.58
2715.13	1857.92
2718.656	1854.58
2722.178	1851.58
2725.697	1849.25
2729.214	1868.25
2732.727	1870.25
2736.237	1890.25
2739.744	1908.92
2743.249	1938.92
2746.75	1955.25
2750.248	1970.25
2753.743	1998.92
2757.236	2001.58
2760.725	1999.58
2764.211	2005.25
2767.695	2004.92
2771.175	2003.25
2774.652	2001.25
2778.127	1979.92
2781.598	1983.58
2785.067	1970.58
2788.532	1963.25
2791.995	1958.92
2795.455	1963.92
2798.911	1958.25
2802.365	1950.58
2805.816	1951.25
2809.264	1943.25
2812.709	1931.58
2816.151	1920.92
2819.59	1917.58
2823.026	1915.58
2826.46	1912.25
2829.89	1911.92
2833.318	1906.25
2836.742	1895.25
2840.164	1885.92
2843.583	1885.92
2846.999	1897.58
2850.412	1897.92
2853.822	1889.25
2857.229	1891.92
2860.634	1899.58
2864.035	1898.25
2867.434	1903.25
2870.83	1900.58
2874.223	1903.58
2877.613	1897.25
2881	1887.25
2884.385	1865.92
2887.766	1858.58
2891.145	1836.58
2894.521	1818.25
2897.894	1805.92
2901.264	1798.58
2904.631	1791.25
2907.996	1763.25
2911.358	1765.25
2914.717	1749.58
2918.073	1738.58
2921.426	1737.25
2924.777	1736.92
2928.124	1738.92
2931.469	1722.92
2934.811	1727.58
2938.15	1717.58
2941.487	1712.92
2944.821	1697.25
2948.152	1691.58
2951.48	1684.58
2954.805	1664.58
2958.128	1659.25
2961.447	1660.58
2964.765	1647.25
2968.079	1637.92
2971.39	1635.25
2974.699	1637.92
2978.005	1640.92
2981.308	1651.25
2984.609	1649.92
2987.907	1654.58
2991.202	1652.58
2994.494	1676.58
2997.784	1673.58
3001.07	1681.58
3004.355	1674.58
3007.636	1670.92
3010.915	1666.58
3014.191	1654.58
3017.464	1654.25
3020.734	1627.58
3024.002	1608.92
3027.267	1595.58
3030.53	1581.25
3033.789	1553.92
3037.046	1542.25
3040.301	1534.25
3043.552	1523.25
3046.801	1508.25
3050.048	1503.92
3053.291	1505.58
3056.532	1500.92
3059.771	1494.25
3063.006	1486.92
3066.239	1503.92
3069.469	1494.25
3072.697	1506.92
3075.922	1494.58
3079.144	1483.92
3082.364	1490.92
3085.581	1473.25
3088.795	1471.25
3092.007	1467.25
3095.216	1442.58
3098.423	1438.58
3101.627	1437.58
3104.828	1429.58
3108.026	1422.92
3111.222	1418.58
3114.416	1417.58
3117.607	1408.25
3120.795	1405.25
3123.98	1406.25
3127.163	1399.25
3130.344	1405.58
3133.521	1399.58
3136.696	1400.25
3139.869	1392.92
3143.039	1388.58
3146.206	1376.92
3149.371	1374.58
3152.533	1359.25
3155.693	1343.92
3158.85	1338.25
3162.005	1319.58
3165.157	1309.92
3168.306	1292.25
3171.453	1279.25
3174.597	1273.25
3177.739	1264.58
3180.878	1248.58
3184.014	1239.58
3187.149	1222.92
3190.28	1223.25
3193.409	1216.58
3196.536	1203.25
3199.659	1203.58
3202.781	1197.92
3205.9	1194.92
3209.016	1186.58
3212.13	1184.58
3215.241	1172.58
3218.35	1160.92
3221.456	1147.25
3224.56	1141.58
3227.661	1132.25
3230.76	1110.58
3233.856	1104.58
3236.95	1096.92
3240.041	1084.25
3243.13	1080.25
3246.216	1075.25
3249.3	1074.58
3252.382	1058.58
3255.46	1065.25
3258.537	1051.92
3261.611	1060.58
3264.682	1053.58
3267.751	1051.58
3270.818	1044.58
3273.882	1054.25
3276.943	1050.25
3280.002	1042.58
3283.059	1039.92
3286.113	1024.25
3289.165	1024.25
3292.214	1016.92
3295.261	1002.92
3298.306	986.92
3301.348	980.58
3304.387	964.25
3307.425	950.92
3310.459	949.25
3313.492	932.58
3316.521	923.58
3319.549	918.25
3322.574	903.58
3325.597	901.25
3328.617	898.25
3331.635	894.92
3334.65	883.25
3337.663	885.25
3340.674	880.25
3343.682	870.58
3346.688	872.92
3349.691	856.92
3352.692	863.25
3355.691	865.58
3358.687	849.58
3361.681	847.25
3364.673	832.58
3367.662	824.25
3370.649	818.92
3373.633	808.58
3376.615	798.25
3379.595	792.92
3382.572	788.25
3385.547	768.25
3388.52	768.25
3391.49	760.58
3394.458	748.92
3397.424	749.25
3400.387	739.25
3403.348	729.92
3406.307	727.58
3409.263	719.92
3412.217	718.58
3415.168	720.25
3418.118	705.92
3421.065	710.25
3424.009	701.25
3426.951	696.25
3429.891	692.25
3432.829	684.58
3435.764	674.58
3438.697	667.58
3441.628	656.92
3444.557	649.25
3447.483	647.25
3450.407	632.92
3453.328	620.25
3456.247	613.25
3459.164	605.92
3462.079	597.58
3464.991	582.58
3467.902	581.25
3470.809	571.25
3473.715	560.92
3476.618	558.92
3479.519	548.92
3482.418	540.92
3485.315	534.92
3488.209	530.58
3491.101	525.58
3493.99	519.92
3496.878	513.58
3499.763	515.25
3502.646	512.25
3505.527	502.58
3508.405	491.58
3511.281	489.92
3514.155	474.92
3517.027	469.92
3519.897	460.58
3522.764	453.92
3525.629	445.58
3528.492	439.58
3531.352	427.92
3534.211	415.25
3537.067	405.92
3539.921	394.58
3542.773	391.58
3545.622	381.25
3548.469	373.92
3551.315	368.58
3554.157	359.92
3556.998	355.58
3559.837	349.92
3562.673	346.92
3565.507	340.58
3568.339	333.58
3571.169	328.58
3573.996	327.92
3576.822	325.92
3579.645	316.92
3582.466	311.58
3585.285	306.58
3588.101	298.25
3590.916	295.25
3593.728	281.92
3596.538	283.58
3599.346	274.25
3602.152	267.92
3604.956	257.58
3607.757	254.92
3610.556	252.92
3613.354	244.92
3616.149	242.92
3618.942	238.58
3621.732	231.58
3624.521	232.25
3627.307	228.92
3630.092	228.92
3632.874	227.58
3635.654	220.58
3638.432	219.92
3641.208	213.92
3643.982	217.58
3646.753	210.58
3649.523	210.25
3652.29	203.92
3655.055	199.58
3657.818	193.92
3660.579	193.58
3663.338	188.58
3666.095	186.58
3668.849	182.92
3671.602	177.25
3674.352	181.25
3677.101	171.58
3679.847	172.25
3682.591	170.58
3685.333	170.58
3688.073	163.25
3690.811	167.25
3693.547	167.58
3696.281	168.58
3699.013	163.58
3701.742	161.92
3704.47	163.25
3707.195	162.25
3709.919	161.58
3712.64	159.58
3715.359	156.25
3718.076	155.58
3720.792	154.92
3723.505	151.58
3726.216	149.25
3728.925	149.58
3731.632	146.58
3734.336	147.58
3737.039	142.58
3739.74	142.58
3742.439	137.25
3745.136	136.25
3747.83	136.25
3750.523	133.92
3753.213	132.58
3755.902	131.58
3758.589	133.92
3761.273	128.25
3763.956	124.92
3766.636	129.92
3769.315	125.58
3771.991	122.92
3774.665	119.58
3777.338	114.25
3780.008	112.92
3782.677	110.58
3785.343	109.58
3788.007	109.58
3790.67	103.58
3793.33	100.25
3795.989	100.25
3798.645	99.25
3801.299	96.58
3803.952	91.25
3806.602	93.58
3809.251	92.92
3811.897	89.25
3814.542	88.58
3817.184	87.25
3819.825	89.25
3822.463	84.58
3825.1	79.58
3827.735	81.92
3830.367	78.25
3832.998	74.92
3835.627	74.92
3838.253	69.92
3840.878	67.58
3843.501	65.58
3846.122	60.25
3848.741	62.92
3851.358	58.25
3853.973	56.92
3856.586	55.92
3859.197	54.58
3861.806	51.25
3864.414	51.25
3867.019	50.58
3869.622	47.58
3872.224	44.92
3874.823	45.58
3877.421	38.92
3880.016	38.58
3882.61	36.92
3885.202	37.58
3887.792	31.92
3890.38	29.92
3892.966	26.25
3895.55	23.25
3898.132	21.25
3900.713	20.25
3903.291	17.58
3905.868	13.25
3908.442	12.58
3911.015	9.92
3913.586	10.25
3916.155	8.25
3918.722	5.92
3921.287	5.25
3923.85	1.92
3926.411	2.92
3928.971	0.58
3931.528	1.92
3934.084	-2.42
3936.638	-2.75
3939.19	-2.08
3941.74	-1.75
3944.288	-4.75
3946.834	-6.42
3949.378	-6.75
3951.921	-6.75
3954.462	-7.42
3957	-6.42
3959.537	-8.08
3962.072	-7.42
3964.606	-7.75
3967.137	-7.42
3969.667	-8.08
3972.194	-9.42
3974.72	-7.08
3977.244	-9.08
3979.766	-7.08
3982.286	-8.42
3984.805	-7.75
3987.321	-9.42
3989.836	-8.08
3992.349	-8.42
3994.86	-10.08
3997.369	-11.08
3999.877	-9.75
4002.382	-9.42
4004.886	-10.42
4007.388	-7.42
4009.888	-12.75
4012.386	-12.08
4014.883	-10.75
4017.377	-15.42
4019.87	-11.75
4022.361	-13.08
4024.85	-12.08
4027.338	-14.08
4029.823	-14.75
4032.307	-14.08
4034.789	-13.75
4037.269	-13.75
4039.747	-17.75
4042.224	-16.42
4044.699	-17.08
4047.172	-18.42
4049.643	-18.75
4052.112	-18.75
4054.58	-18.08
4057.046	-21.75
4059.51	-20.42
4061.972	-23.42
4064.432	-20.08
4066.891	-21.08
4069.348	-21.08
4071.803	-22.08
4074.256	-22.42
4076.708	-23.08
4079.158	-21.42
4081.606	-20.75
4084.052	-22.42
4086.497	-21.75
4088.939	-20.75
4091.38	-22.42
4093.819	-21.75
4096.257	-33.08
4098.693	-34.08
4101.127	-35.08
4103.559	-35.42
4105.989	-18.08
4108.418	-16.75
4110.845	-15.08
4113.27	-10.42
4115.694	-9.42
4118.115	-7.42
4120.535	-24.08
4122.954	-23.75
4125.37	-22.42
4127.785	-21.08
4130.198	-24.42
4132.609	-22.42
4135.019	-32.75
4137.427	-32.08
4139.833	-33.42
4142.237	-32.75
