Data from dw_RamanShift_4.txt Node
Date: Tue Oct 17 17:09:24 IDT 2017
User: aro
Spectrometer: QEPB0276
Trigger mode: 0
Integration Time (sec): 5.000000E0
Scans to average: 3
Electric dark correction enabled: true
Nonlinearity correction enabled: false
Boxcar width: 0
XAxis mode: Raman Shifts
Number of Pixels in Spectrum: 1044
>>>>>Begin Spectral Data<<<<<
160.701	-2.33
166.742	4.67
172.777	20
178.805	69.67
184.826	199.67
190.841	432.33
196.849	732
202.85	965
208.845	1055
214.833	1086
220.815	1104.67
226.789	1133.67
232.758	1170.33
238.719	1194
244.674	1204
250.623	1214.33
256.565	1221.67
262.5	1219.33
268.429	1231.33
274.351	1229.67
280.267	1238.67
286.176	1247.67
292.079	1262
297.975	1272
303.865	1282
309.748	1294.67
315.625	1287.33
321.495	1266.33
327.359	1250
333.217	1248
339.068	1229.33
344.912	1223.67
350.751	1218
356.583	1206.33
362.408	1189
368.227	1173.67
374.04	1177.33
379.847	1173.67
385.647	1170.33
391.44	1156.67
397.228	1151.33
403.009	1140.33
408.784	1141
414.553	1149.33
420.315	1177.33
426.071	1174
431.821	1129.33
437.565	1104
443.302	1085
449.033	1057
454.758	1040.33
460.477	1026.67
466.189	998
471.896	988
477.596	961.67
483.29	941
488.978	912
494.66	881
500.335	846
506.005	813
511.668	826
517.325	921
522.977	1070
528.622	1202
534.261	1237.33
539.894	1223
545.521	1193
551.141	1165.33
556.756	1139
562.365	1128.67
567.968	1108
573.565	1092.67
579.155	1084.33
584.74	1073.67
590.319	1060.33
595.892	1047
601.459	1033.33
607.02	1021.33
612.575	992.33
618.124	998
623.667	999.67
629.204	1022
634.735	1020.33
640.261	1025.33
645.781	1039.33
651.294	1045.67
656.802	1040
662.304	1031
667.8	1026
673.29	1027.33
678.775	1030.67
684.254	1023.67
689.726	1020.33
695.193	1026
700.655	1012
706.11	1012
711.56	1007
717.004	1013.67
722.442	1001.33
727.874	1009.33
733.301	1015
738.722	1013
744.137	1019.67
749.547	1028.33
754.951	1030.33
760.349	1039
765.741	1033.33
771.128	1040.67
776.509	1053
781.885	1047.67
787.254	1057.67
792.618	1052
797.977	1055
803.33	1060.33
808.677	1063.33
814.019	1063.67
819.355	1065.67
824.686	1067.33
830.011	1067
835.33	1070
840.644	1082
845.952	1091.67
851.255	1099
856.552	1116.33
861.844	1116.67
867.13	1125.33
872.41	1133
877.686	1141.67
882.955	1137.67
888.219	1138
893.478	1130.67
898.731	1130
903.979	1131.33
909.221	1139.67
914.458	1149.67
919.69	1158
924.916	1175.33
930.136	1208.33
935.351	1232.67
940.561	1248
945.766	1273.33
950.965	1285.33
956.158	1273.33
961.347	1267.67
966.529	1259.33
971.707	1247
976.879	1234.33
982.046	1226.67
987.208	1218.67
992.364	1220.33
997.515	1221
1002.66	1228.33
1007.801	1240.67
1012.936	1261.33
1018.066	1267.33
1023.19	1271
1028.309	1283.67
1033.423	1286.33
1038.532	1278
1043.636	1276.67
1048.734	1279.33
1053.827	1261
1058.915	1258
1063.998	1254.67
1069.075	1254
1074.147	1270
1079.214	1267
1084.276	1288.67
1089.333	1303
1094.385	1313.33
1099.431	1325
1104.472	1335
1109.509	1325.33
1114.54	1327
1119.565	1315
1124.586	1292
1129.602	1299
1134.613	1289
1139.618	1289.67
1144.619	1294.33
1149.614	1300.67
1154.604	1313
1159.589	1319
1164.57	1321
1169.545	1337
1174.515	1331.67
1179.48	1330
1184.44	1327.33
1189.395	1319.33
1194.345	1324
1199.29	1317
1204.23	1319.33
1209.165	1329
1214.095	1332
1219.021	1350.33
1223.941	1362
1228.856	1367
1233.766	1375.67
1238.672	1376
1243.572	1377.67
1248.467	1370
1253.358	1364
1258.244	1342
1263.124	1329.33
1268	1312.33
1272.871	1294.67
1277.737	1290
1282.599	1292
1287.455	1297.67
1292.306	1312.67
1297.153	1312.33
1301.995	1330.67
1306.832	1331
1311.664	1334
1316.491	1339
1321.314	1330.67
1326.132	1325
1330.945	1305.33
1335.753	1276
1340.556	1244.67
1345.354	1226.33
1350.148	1204
1354.937	1203.67
1359.722	1221
1364.501	1247
1369.276	1269.33
1374.046	1297.67
1378.811	1317.33
1383.572	1323.67
1388.327	1311.67
1393.079	1289
1397.825	1263.67
1402.567	1239.67
1407.304	1223.67
1412.036	1209.33
1416.764	1199
1421.487	1196.67
1426.205	1194.67
1430.919	1200.33
1435.628	1208.67
1440.333	1216.33
1445.032	1222.67
1449.727	1224.33
1454.418	1226.33
1459.104	1220.67
1463.785	1202.33
1468.462	1202.67
1473.134	1189.67
1477.802	1179.33
1482.465	1173
1487.123	1173
1491.777	1186.67
1496.426	1188.67
1501.071	1210
1505.711	1221
1510.347	1244.33
1514.978	1247.33
1519.604	1264
1524.226	1268
1528.844	1262.33
1533.457	1260.33
1538.065	1251.33
1542.669	1242.33
1547.269	1231.67
1551.864	1217
1556.454	1199.33
1561.041	1200.33
1565.622	1195.33
1570.199	1184.67
1574.772	1187.33
1579.34	1180.33
1583.904	1190.33
1588.464	1182
1593.019	1167
1597.569	1167.67
1602.115	1155.33
1606.657	1135.67
1611.195	1116
1615.728	1117.67
1620.256	1099
1624.78	1104.67
1629.3	1102.67
1633.816	1097
1638.327	1099.67
1642.834	1118.33
1647.336	1129.33
1651.834	1139.33
1656.328	1145.67
1660.817	1154.33
1665.302	1157.33
1669.783	1164.33
1674.259	1151
1678.732	1145
1683.199	1133
1687.663	1118.67
1692.122	1093.33
1696.577	1093.67
1701.028	1116
1705.474	1144.67
1709.917	1174
1714.355	1178.67
1718.788	1165.33
1723.218	1155.67
1727.643	1144
1732.064	1140.33
1736.481	1125.67
1740.893	1121.67
1745.301	1111.67
1749.705	1092.33
1754.105	1086.67
1758.501	1079.33
1762.893	1072.67
1767.28	1067
1771.663	1060.67
1776.042	1061.33
1780.417	1075.67
1784.787	1093.33
1789.154	1118
1793.516	1143.67
1797.874	1164.33
1802.228	1180.67
1806.578	1199
1810.924	1200.67
1815.266	1195.33
1819.603	1180.33
1823.937	1167
1828.266	1164.67
1832.591	1143.67
1836.913	1140.33
1841.23	1132
1845.543	1132.67
1849.852	1138.67
1854.156	1134.67
1858.457	1151.67
1862.754	1151.33
1867.047	1161.67
1871.335	1174
1875.62	1179.67
1879.9	1194.67
1884.177	1193.33
1888.449	1195.67
1892.718	1192.67
1896.982	1198
1901.243	1212.33
1905.499	1210
1909.752	1210.67
1914	1218.67
1918.245	1235.67
1922.485	1245.33
1926.722	1259
1930.954	1270.33
1935.183	1290.67
1939.408	1301.67
1943.628	1308.67
1947.845	1322.33
1952.058	1322.33
1956.267	1323
1960.472	1325.33
1964.673	1322
1968.87	1311
1973.063	1305.33
1977.252	1297
1981.438	1293
1985.619	1291
1989.797	1285.33
1993.971	1300.67
1998.14	1301
2002.306	1310.33
2006.469	1311.33
2010.627	1314
2014.781	1323.33
2018.932	1317
2023.078	1318.33
2027.221	1317
2031.36	1311.33
2035.495	1295.67
2039.627	1301.33
2043.754	1300
2047.878	1297.67
2051.998	1305
2056.114	1306.33
2060.226	1317.33
2064.334	1328.33
2068.439	1343.67
2072.54	1367.33
2076.637	1364
2080.73	1390.33
2084.82	1398
2088.906	1389
2092.988	1408
2097.066	1406.33
2101.14	1410.67
2105.211	1416.33
2109.278	1415.67
2113.342	1418
2117.401	1427
2121.457	1431
2125.509	1430.33
2129.558	1445.33
2133.602	1438.67
2137.643	1446.33
2141.681	1457
2145.714	1453.33
2149.744	1467
2153.77	1454.67
2157.793	1459.33
2161.812	1450.33
2165.827	1434.67
2169.838	1431.67
2173.846	1427
2177.851	1424.67
2181.851	1411.33
2185.848	1409
2189.841	1408.33
2193.831	1407
2197.817	1423
2201.799	1430.67
2205.778	1423
2209.753	1434.33
2213.725	1446.67
2217.693	1445.33
2221.657	1471.33
2225.618	1481.33
2229.575	1489
2233.529	1489
2237.479	1491.67
2241.425	1492.33
2245.368	1487.67
2249.307	1485.33
2253.243	1480
2257.175	1486.67
2261.104	1488
2265.029	1487.67
2268.95	1475
2272.868	1478.67
2276.783	1475
2280.694	1475.67
2284.601	1469.33
2288.505	1475.33
2292.405	1470
2296.302	1469.67
2300.195	1462.67
2304.085	1462.33
2307.971	1458.33
2311.854	1439
2315.734	1431
2319.609	1423
2323.482	1411.33
2327.351	1401
2331.216	1408
2335.078	1404
2338.937	1399.67
2342.792	1401.67
2346.643	1405.33
2350.492	1411.33
2354.336	1431
2358.178	1428.33
2362.015	1443
2365.85	1446
2369.681	1458
2373.508	1462
2377.333	1474.33
2381.153	1478.33
2384.971	1473.33
2388.785	1475.33
2392.595	1471.67
2396.402	1479
2400.206	1469.67
2404.007	1478.67
2407.804	1473
2411.597	1478
2415.388	1491
2419.174	1484
2422.958	1480
2426.738	1491.67
2430.515	1490
2434.289	1499.33
2438.059	1501.33
2441.825	1508.33
2445.589	1495.67
2449.349	1506.33
2453.106	1490
2456.859	1494
2460.61	1496
2464.356	1486.33
2468.1	1493
2471.84	1497
2475.577	1492
2479.311	1505.67
2483.041	1502.67
2486.768	1519.33
2490.492	1521
2494.213	1534.67
2497.93	1544.67
2501.644	1545.67
2505.355	1555.67
2509.062	1568.67
2512.766	1580.33
2516.467	1584
2520.165	1573.67
2523.859	1586.33
2527.551	1580.67
2531.239	1596.33
2534.923	1595
2538.605	1598
2542.283	1597.67
2545.958	1607.67
2549.63	1610
2553.299	1620.67
2556.964	1620.33
2560.626	1619
2564.285	1617
2567.941	1617.33
2571.594	1633.33
2575.243	1620
2578.89	1628
2582.533	1626.33
2586.173	1631
2589.809	1619
2593.443	1624.67
2597.073	1618
2600.701	1624.67
2604.325	1635
2607.946	1634.67
2611.564	1640.33
2615.178	1654.33
2618.79	1645.67
2622.398	1655
2626.004	1656.67
2629.606	1643
2633.205	1628.67
2636.801	1638.67
2640.394	1635.33
2643.983	1602.67
2647.57	1616
2651.153	1604.33
2654.734	1593
2658.311	1580.67
2661.885	1591.67
2665.456	1572.67
2669.025	1579.33
2672.589	1570.67
2676.151	1574.33
2679.71	1565.67
2683.266	1555.67
2686.819	1558.67
2690.368	1544
2693.915	1530.33
2697.458	1530.67
2700.999	1519.33
2704.536	1514.67
2708.071	1511
2711.602	1488
2715.13	1498
2718.656	1487.33
2722.178	1478.33
2725.697	1492.67
2729.214	1499
2732.727	1514.67
2736.237	1520
2739.744	1541.67
2743.249	1551.33
2746.75	1578
2750.248	1592.33
2753.743	1609
2757.236	1629
2760.725	1618.33
2764.211	1625.67
2767.695	1638
2771.175	1642
2774.652	1632.33
2778.127	1617
2781.598	1621.67
2785.067	1617.67
2788.532	1611.33
2791.995	1631.33
2795.455	1620.33
2798.911	1616.33
2802.365	1614.67
2805.816	1618.67
2809.264	1613.33
2812.709	1604.67
2816.151	1602.67
2819.59	1603.33
2823.026	1608.33
2826.46	1593.33
2829.89	1598.67
2833.318	1605.33
2836.742	1597.33
2840.164	1599
2843.583	1589
2846.999	1597.67
2850.412	1602
2853.822	1603.67
2857.229	1603.33
2860.634	1599.67
2864.035	1613.33
2867.434	1617.67
2870.83	1632.33
2874.223	1622
2877.613	1615.33
2881	1608
2884.385	1600.33
2887.766	1612.33
2891.145	1586.33
2894.521	1576
2897.894	1562.33
2901.264	1553
2904.631	1543.67
2907.996	1541
2911.358	1533.33
2914.717	1533.33
2918.073	1533
2921.426	1523
2924.777	1515.33
2928.124	1519.67
2931.469	1522.67
2934.811	1516.33
2938.15	1516.67
2941.487	1505
2944.821	1509
2948.152	1503
2951.48	1497
2954.805	1483.33
2958.128	1478
2961.447	1472.33
2964.765	1458.67
2968.079	1455
2971.39	1456
2974.699	1462.67
2978.005	1473.33
2981.308	1477.33
2984.609	1481
2987.907	1492.33
2991.202	1491.67
2994.494	1509.33
2997.784	1506.33
3001.07	1521
3004.355	1513.33
3007.636	1516.67
3010.915	1504.33
3014.191	1503
3017.464	1505.67
3020.734	1478.33
3024.002	1467
3027.267	1462.33
3030.53	1434.33
3033.789	1423
3037.046	1404.67
3040.301	1398.33
3043.552	1386.67
3046.801	1382.33
3050.048	1382.67
3053.291	1371.67
3056.532	1376.67
3059.771	1381
3063.006	1375.33
3066.239	1379.67
3069.469	1383
3072.697	1378.33
3075.922	1376
3079.144	1372
3082.364	1365
3085.581	1368
3088.795	1344.67
3092.007	1359
3095.216	1345
3098.423	1335
3101.627	1326.33
3104.828	1318.33
3108.026	1321.33
3111.222	1315.67
3114.416	1306
3117.607	1308.33
3120.795	1301.67
3123.98	1302.67
3127.163	1299.33
3130.344	1298.67
3133.521	1294.67
3136.696	1292
3139.869	1296.33
3143.039	1285.67
3146.206	1280.67
3149.371	1278.67
3152.533	1264.67
3155.693	1249.33
3158.85	1240
3162.005	1227.33
3165.157	1214.33
3168.306	1207.67
3171.453	1178.67
3174.597	1175.67
3177.739	1169
3180.878	1154.33
3184.014	1146
3187.149	1143.67
3190.28	1134
3193.409	1126.33
3196.536	1127.33
3199.659	1118.67
3202.781	1107.67
3205.9	1105.33
3209.016	1101.67
3212.13	1097.33
3215.241	1094.67
3218.35	1069.67
3221.456	1065.67
3224.56	1057.33
3227.661	1046
3230.76	1034.67
3233.856	1027.33
3236.95	1009.33
3240.041	1018.33
3243.13	1002.33
3246.216	992
3249.3	988
3252.382	979.33
3255.46	984
3258.537	969.67
3261.611	973.33
3264.682	979.33
3267.751	976.67
3270.818	967.67
3273.882	964.33
3276.943	969.67
3280.002	962
3283.059	957
3286.113	959.33
3289.165	934
3292.214	936
3295.261	926
3298.306	915.33
3301.348	900.33
3304.387	895
3307.425	884.67
3310.459	867
3313.492	859.67
3316.521	848
3319.549	843
3322.574	839.33
3325.597	828.33
3328.617	824
3331.635	824.33
3334.65	811.33
3337.663	815.67
3340.674	808.67
3343.682	805
3346.688	813.33
3349.691	799
3352.692	799.67
3355.691	801.33
3358.687	787.67
3361.681	779
3364.673	776
3367.662	769.33
3370.649	757.33
3373.633	748.33
3376.615	740.33
3379.595	725
3382.572	724.67
3385.547	713.67
3388.52	706.33
3391.49	698.67
3394.458	695.67
3397.424	689.33
3400.387	686.67
3403.348	670.67
3406.307	671
3409.263	668.67
3412.217	664.67
3415.168	659.33
3418.118	657.33
3421.065	654.33
3424.009	647.67
3426.951	648.33
3429.891	647
3432.829	632.33
3435.764	623.67
3438.697	624.67
3441.628	612.33
3444.557	609
3447.483	597.67
3450.407	586.67
3453.328	576.67
3456.247	570.67
3459.164	560.67
3462.079	562
3464.991	550.67
3467.902	541
3470.809	534.33
3473.715	528.33
3476.618	520.67
3479.519	513
3482.418	510.67
3485.315	500.67
3488.209	498
3491.101	498.67
3493.99	490.67
3496.878	481
3499.763	481.33
3502.646	481.33
3505.527	475.33
3508.405	470.33
3511.281	457.67
3514.155	451
3517.027	443.67
3519.897	436
3522.764	434.33
3525.629	419.67
3528.492	407
3531.352	400.33
3534.211	391
3537.067	388.33
3539.921	380.67
3542.773	369.67
3545.622	367
3548.469	350.33
3551.315	354.67
3554.157	345.33
3556.998	342
3559.837	336.67
3562.673	330.67
3565.507	329.67
3568.339	326
3571.169	318.67
3573.996	314
3576.822	309.33
3579.645	306.67
3582.466	302
3585.285	294
3588.101	284.33
3590.916	287.33
3593.728	278
3596.538	269
3599.346	261.67
3602.152	262.33
3604.956	253
3607.757	249.67
3610.556	249
3613.354	238
3616.149	231
3618.942	232.67
3621.732	228.67
3624.521	227.67
3627.307	228.33
3630.092	223.33
3632.874	222
3635.654	220.33
3638.432	213.33
3641.208	211.67
3643.982	213.33
3646.753	212
3649.523	208.33
3652.29	203.33
3655.055	197.67
3657.818	197
3660.579	191.33
3663.338	188.33
3666.095	186
3668.849	184
3671.602	182.67
3674.352	180.67
3677.101	178.33
3679.847	172.33
3682.591	176
3685.333	173
3688.073	168.33
3690.811	173.33
3693.547	169.33
3696.281	170
3699.013	170
3701.742	165
3704.47	171
3707.195	165.33
3709.919	164
3712.64	167
3715.359	161.33
3718.076	160.33
3720.792	151.67
3723.505	157
3726.216	156
3728.925	150.67
3731.632	146.67
3734.336	144.33
3737.039	143.67
3739.74	144
3742.439	142.67
3745.136	138
3747.83	140.33
3750.523	139
3753.213	137
3755.902	132
3758.589	138.33
3761.273	136
3763.956	132.67
3766.636	133.33
3769.315	129.67
3771.991	128.67
3774.665	128.67
3777.338	123.67
3780.008	122
3782.677	120.67
3785.343	113
3788.007	113
3790.67	114.33
3793.33	106
3795.989	105.67
3798.645	106.33
3801.299	103.33
3803.952	102
3806.602	102
3809.251	100
3811.897	98
3814.542	95.67
3817.184	91.67
3819.825	90.67
3822.463	87
3825.1	90.33
3827.735	85.33
3830.367	84.67
3832.998	81
3835.627	82.33
3838.253	76.67
3840.878	76.33
3843.501	73.67
3846.122	68
3848.741	70.33
3851.358	66.33
3853.973	63.33
3856.586	62.33
3859.197	63.67
3861.806	59.33
3864.414	57
3867.019	57
3869.622	54.67
3872.224	53.33
3874.823	52.67
3877.421	47.67
3880.016	47.33
3882.61	43.67
3885.202	43.67
3887.792	41.33
3890.38	38
3892.966	31.67
3895.55	34.67
3898.132	30
3900.713	29
3903.291	24.33
3905.868	21
3908.442	20.67
3911.015	19.67
3913.586	18
3916.155	16.33
3918.722	14.33
3921.287	13.33
3923.85	11.33
3926.411	11.67
3928.971	11.33
3931.528	9.67
3934.084	6.67
3936.638	6.67
3939.19	4.67
3941.74	5
3944.288	4.33
3946.834	2.67
3949.378	3
3951.921	2.67
3954.462	2.67
3957	2.33
3959.537	2.67
3962.072	1.67
3964.606	2.33
3967.137	2
3969.667	0
3972.194	-0.33
3974.72	1.67
3977.244	-1.33
3979.766	-0.67
3982.286	0.33
3984.805	0.67
3987.321	0.33
3989.836	-1.67
3992.349	0
3994.86	-0.33
3997.369	-1.33
3999.877	-2.33
4002.382	-2
4004.886	-3.67
4007.388	0
4009.888	-3.33
4012.386	-4
4014.883	-4.67
4017.377	-4.67
4019.87	-3
4022.361	-5.67
4024.85	-3
4027.338	-4.67
4029.823	-4.33
4032.307	-3.33
4034.789	-5
4037.269	-5.67
4039.747	-8.67
4042.224	-6.67
4044.699	-8
4047.172	-11
4049.643	-9.67
4052.112	-9.67
4054.58	-8.67
4057.046	-12
4059.51	-10.33
4061.972	-14
4064.432	-9.67
4066.891	-11.33
4069.348	-12.67
4071.803	-13.33
4074.256	-13.33
4076.708	-14.33
4079.158	-13.67
4081.606	-12.33
4084.052	-13
4086.497	-12.67
4088.939	-14
4091.38	-12.33
4093.819	-12
4096.257	-24
4098.693	-24
4101.127	-25.33
4103.559	-27.33
4105.989	-12.67
4108.418	-10.67
4110.845	-9.67
4113.27	-7.67
4115.694	-6
4118.115	-5.33
4120.535	-14.67
4122.954	-15
4125.37	-15.67
4127.785	-12.67
4130.198	-15.67
4132.609	-13.67
4135.019	-23
4137.427	-22
4139.833	-22.67
4142.237	-24.33
