Data from dw_RamanShift_6.txt Node
Date: Tue Oct 17 17:12:09 IDT 2017
User: aro
Spectrometer: QEPB0276
Trigger mode: 0
Integration Time (sec): 5.000000E0
Scans to average: 3
Electric dark correction enabled: true
Nonlinearity correction enabled: false
Boxcar width: 0
XAxis mode: Raman Shifts
Number of Pixels in Spectrum: 1044
>>>>>Begin Spectral Data<<<<<
160.701	-3.21
166.742	5.13
172.777	22.46
178.805	77.46
184.826	218.79
190.841	487.46
196.849	809.46
202.85	1061.13
208.845	1175.79
214.833	1198.46
220.815	1221.13
226.789	1251.13
232.758	1282.79
238.719	1328.46
244.674	1345.46
250.623	1334.79
256.565	1326.46
262.5	1308.13
268.429	1305.13
274.351	1307.79
280.267	1305.13
286.176	1301.13
292.079	1310.13
297.975	1314.13
303.865	1324.13
309.748	1326.79
315.625	1304.46
321.495	1284.13
327.359	1272.46
333.217	1248.79
339.068	1240.46
344.912	1227.13
350.751	1215.79
356.583	1201.46
362.408	1177.13
368.227	1171.79
374.04	1164.46
379.847	1157.79
385.647	1163.13
391.44	1149.79
397.228	1135.46
403.009	1126.46
408.784	1107.79
414.553	1124.13
420.315	1147.79
426.071	1132.46
431.821	1107.46
437.565	1070.46
443.302	1053.79
449.033	1023.46
454.758	1015.46
460.477	994.46
466.189	973.46
471.896	962.79
477.596	948.13
483.29	932.79
488.978	910.46
494.66	872.46
500.335	843.46
506.005	811.79
511.668	825.46
517.325	890.13
522.977	1032.13
528.622	1144.46
534.261	1187.46
539.894	1190.46
545.521	1165.13
551.141	1146.13
556.756	1134.79
562.365	1118.79
567.968	1115.13
573.565	1103.13
579.155	1100.13
584.74	1089.13
590.319	1093.13
595.892	1083.46
601.459	1072.13
607.02	1066.46
612.575	1068.46
618.124	1069.13
623.667	1076.79
629.204	1103.13
634.735	1122.13
640.261	1134.79
645.781	1145.13
651.294	1166.79
656.802	1172.79
662.304	1167.79
667.8	1172.79
673.29	1174.13
678.775	1184.79
684.254	1174.79
689.726	1192.79
695.193	1185.46
700.655	1193.79
706.11	1192.46
711.56	1199.46
717.004	1198.13
722.442	1201.79
727.874	1214.79
733.301	1224.13
738.722	1232.79
744.137	1244.46
749.547	1257.13
754.951	1259.79
760.349	1278.79
765.741	1278.79
771.128	1295.79
776.509	1289.79
781.885	1304.46
787.254	1322.46
792.618	1318.79
797.977	1320.13
803.33	1323.13
808.677	1323.13
814.019	1338.79
819.355	1326.13
824.686	1332.13
830.011	1341.46
835.33	1341.46
840.644	1337.79
845.952	1360.79
851.255	1366.79
856.552	1373.79
861.844	1378.46
867.13	1388.79
872.41	1394.13
877.686	1394.79
882.955	1393.79
888.219	1376.13
893.478	1371.46
898.731	1363.79
903.979	1359.79
909.221	1360.79
914.458	1357.79
919.69	1361.79
924.916	1367.46
930.136	1397.46
935.351	1411.46
940.561	1425.13
945.766	1443.79
950.965	1434.13
956.158	1422.13
961.347	1415.79
966.529	1389.46
971.707	1368.79
976.879	1345.79
982.046	1339.46
987.208	1310.79
992.364	1314.13
997.515	1296.46
1002.66	1300.46
1007.801	1293.46
1012.936	1304.79
1018.066	1305.46
1023.19	1307.46
1028.309	1312.79
1033.423	1296.79
1038.532	1283.46
1043.636	1270.46
1048.734	1246.46
1053.827	1234.79
1058.915	1212.46
1063.998	1203.13
1069.075	1192.13
1074.147	1201.46
1079.214	1192.13
1084.276	1202.79
1089.333	1207.13
1094.385	1205.46
1099.431	1212.79
1104.472	1208.13
1109.509	1207.46
1114.54	1178.79
1119.565	1171.79
1124.586	1156.79
1129.602	1144.13
1134.613	1137.13
1139.618	1136.13
1144.619	1134.79
1149.614	1135.46
1154.604	1124.79
1159.589	1141.13
1164.57	1141.79
1169.545	1140.79
1174.515	1136.13
1179.48	1135.46
1184.44	1126.46
1189.395	1120.13
1194.345	1120.46
1199.29	1115.46
1204.23	1116.46
1209.165	1124.79
1214.095	1132.79
1219.021	1147.46
1223.941	1163.13
1228.856	1163.46
1233.766	1179.79
1238.672	1182.46
1243.572	1182.13
1248.467	1181.46
1253.358	1169.79
1258.244	1169.13
1263.124	1149.46
1268	1149.13
1272.871	1138.13
1277.737	1145.46
1282.599	1155.13
1287.455	1168.13
1292.306	1179.46
1297.153	1195.13
1301.995	1211.79
1306.832	1211.13
1311.664	1241.13
1316.491	1245.46
1321.314	1247.79
1326.132	1253.46
1330.945	1237.79
1335.753	1234.46
1340.556	1203.13
1345.354	1190.46
1350.148	1185.46
1354.937	1194.46
1359.722	1219.79
1364.501	1258.46
1369.276	1298.13
1374.046	1342.46
1378.811	1366.46
1383.572	1381.13
1388.327	1380.46
1393.079	1372.13
1397.825	1347.79
1402.567	1336.13
1407.304	1332.13
1412.036	1332.79
1416.764	1329.46
1421.487	1331.46
1426.205	1346.13
1430.919	1363.13
1435.628	1382.13
1440.333	1402.46
1445.032	1428.79
1449.727	1445.46
1454.418	1445.46
1459.104	1458.13
1463.785	1452.13
1468.462	1459.46
1473.134	1449.79
1477.802	1437.46
1482.465	1447.79
1487.123	1469.13
1491.777	1481.46
1496.426	1501.13
1501.071	1537.46
1505.711	1558.13
1510.347	1589.13
1514.978	1608.46
1519.604	1630.13
1524.226	1646.46
1528.844	1655.79
1533.457	1658.13
1538.065	1658.46
1542.669	1649.46
1547.269	1642.46
1551.864	1634.13
1556.454	1646.46
1561.041	1638.13
1565.622	1626.13
1570.199	1626.46
1574.772	1643.46
1579.34	1638.13
1583.904	1644.13
1588.464	1642.13
1593.019	1633.13
1597.569	1641.13
1602.115	1612.13
1606.657	1597.46
1611.195	1576.13
1615.728	1564.13
1620.256	1542.46
1624.78	1537.79
1629.3	1531.79
1633.816	1537.46
1638.327	1537.79
1642.834	1544.13
1647.336	1561.46
1651.834	1569.46
1656.328	1569.13
1660.817	1577.13
1665.302	1569.79
1669.783	1578.13
1674.259	1561.79
1678.732	1546.13
1683.199	1522.46
1687.663	1489.46
1692.122	1471.13
1696.577	1471.13
1701.028	1500.46
1705.474	1531.13
1709.917	1551.46
1714.355	1545.79
1718.788	1524.13
1723.218	1505.79
1727.643	1492.13
1732.064	1474.13
1736.481	1465.13
1740.893	1444.13
1745.301	1421.46
1749.705	1396.46
1754.105	1374.46
1758.501	1353.13
1762.893	1338.46
1767.28	1314.79
1771.663	1317.13
1776.042	1309.79
1780.417	1324.46
1784.787	1330.79
1789.154	1359.13
1793.516	1384.79
1797.874	1414.46
1802.228	1427.13
1806.578	1424.79
1810.924	1433.13
1815.266	1409.46
1819.603	1385.46
1823.937	1371.13
1828.266	1352.46
1832.591	1332.46
1836.913	1324.13
1841.23	1310.13
1845.543	1301.13
1849.852	1298.46
1854.156	1298.13
1858.457	1309.79
1862.754	1312.79
1867.047	1321.46
1871.335	1323.79
1875.62	1326.79
1879.9	1331.79
1884.177	1331.46
1888.449	1332.79
1892.718	1324.46
1896.982	1321.13
1901.243	1318.79
1905.499	1321.46
1909.752	1329.79
1914	1327.79
1918.245	1351.46
1922.485	1349.13
1926.722	1379.79
1930.954	1392.79
1935.183	1394.13
1939.408	1400.46
1943.628	1423.46
1947.845	1424.46
1952.058	1430.79
1956.267	1424.13
1960.472	1417.79
1964.673	1422.13
1968.87	1413.46
1973.063	1403.13
1977.252	1390.46
1981.438	1393.79
1985.619	1392.13
1989.797	1392.79
1993.971	1386.46
1998.14	1394.13
2002.306	1404.79
2006.469	1399.13
2010.627	1411.79
2014.781	1420.13
2018.932	1415.79
2023.078	1422.79
2027.221	1413.79
2031.36	1411.13
2035.495	1398.46
2039.627	1401.46
2043.754	1404.79
2047.878	1403.79
2051.998	1408.46
2056.114	1415.13
2060.226	1421.13
2064.334	1436.13
2068.439	1457.13
2072.54	1482.13
2076.637	1491.46
2080.73	1503.79
2084.82	1522.46
2088.906	1528.79
2092.988	1536.46
2097.066	1545.13
2101.14	1550.79
2105.211	1550.46
2109.278	1568.13
2113.342	1561.79
2117.401	1572.13
2121.457	1579.79
2125.509	1587.13
2129.558	1591.13
2133.602	1605.13
2137.643	1613.79
2141.681	1623.13
2145.714	1640.46
2149.744	1632.46
2153.77	1642.46
2157.793	1640.13
2161.812	1636.46
2165.827	1628.79
2169.838	1624.13
2173.846	1619.79
2177.851	1616.79
2181.851	1609.13
2185.848	1608.46
2189.841	1611.46
2193.831	1606.79
2197.817	1616.46
2201.799	1622.13
2205.778	1644.46
2209.753	1641.79
2213.725	1660.13
2217.693	1666.13
2221.657	1684.79
2225.618	1707.13
2229.575	1709.13
2233.529	1720.79
2237.479	1722.79
2241.425	1725.46
2245.368	1714.79
2249.307	1723.79
2253.243	1715.13
2257.175	1711.46
2261.104	1704.46
2265.029	1699.13
2268.95	1705.46
2272.868	1705.79
2276.783	1715.46
2280.694	1712.46
2284.601	1709.79
2288.505	1701.13
2292.405	1704.79
2296.302	1697.79
2300.195	1693.79
2304.085	1682.13
2307.971	1667.79
2311.854	1656.79
2315.734	1636.46
2319.609	1628.13
2323.482	1616.13
2327.351	1594.46
2331.216	1605.46
2335.078	1605.13
2338.937	1596.79
2342.792	1596.13
2346.643	1606.79
2350.492	1605.46
2354.336	1622.13
2358.178	1631.13
2362.015	1643.13
2365.85	1657.46
2369.681	1648.79
2373.508	1646.13
2377.333	1667.13
2381.153	1661.13
2384.971	1652.46
2388.785	1663.13
2392.595	1657.79
2396.402	1642.46
2400.206	1642.46
2404.007	1645.79
2407.804	1642.79
2411.597	1641.79
2415.388	1645.13
2419.174	1647.46
2422.958	1651.46
2426.738	1640.13
2430.515	1649.13
2434.289	1648.46
2438.059	1641.13
2441.825	1639.46
2445.589	1632.46
2449.349	1640.79
2453.106	1630.13
2456.859	1633.46
2460.61	1624.13
2464.356	1605.79
2468.1	1620.46
2471.84	1615.13
2475.577	1611.79
2479.311	1624.13
2483.041	1616.79
2486.768	1621.13
2490.492	1628.13
2494.213	1641.13
2497.93	1655.46
2501.644	1656.79
2505.355	1657.46
2509.062	1676.13
2512.766	1672.79
2516.467	1672.13
2520.165	1674.13
2523.859	1670.46
2527.551	1682.13
2531.239	1672.13
2534.923	1674.46
2538.605	1680.79
2542.283	1682.79
2545.958	1689.46
2549.63	1688.46
2553.299	1697.46
2556.964	1703.46
2560.626	1701.13
2564.285	1698.79
2567.941	1697.46
2571.594	1700.79
2575.243	1699.13
2578.89	1696.79
2582.533	1691.13
2586.173	1696.13
2589.809	1695.13
2593.443	1690.46
2597.073	1691.13
2600.701	1683.13
2604.325	1688.46
2607.946	1701.13
2611.564	1701.46
2615.178	1701.46
2618.79	1708.46
2622.398	1701.79
2626.004	1707.79
2629.606	1705.46
2633.205	1688.46
2636.801	1688.13
2640.394	1676.79
2643.983	1683.46
2647.57	1672.46
2651.153	1667.13
2654.734	1656.46
2658.311	1647.13
2661.885	1630.79
2665.456	1631.46
2669.025	1639.13
2672.589	1633.46
2676.151	1635.46
2679.71	1629.46
2683.266	1617.79
2686.819	1615.79
2690.368	1603.79
2693.915	1592.46
2697.458	1589.13
2700.999	1583.79
2704.536	1573.79
2708.071	1571.46
2711.602	1552.79
2715.13	1550.79
2718.656	1554.79
2722.178	1559.13
2725.697	1559.79
2729.214	1575.13
2732.727	1596.79
2736.237	1605.46
2739.744	1623.13
2743.249	1645.79
2746.75	1661.46
2750.248	1688.13
2753.743	1697.46
2757.236	1712.13
2760.725	1715.79
2764.211	1732.13
2767.695	1740.46
2771.175	1736.13
2774.652	1742.79
2778.127	1738.79
2781.598	1729.46
2785.067	1740.46
2788.532	1731.13
2791.995	1734.46
2795.455	1738.79
2798.911	1739.13
2802.365	1738.46
2805.816	1729.13
2809.264	1740.46
2812.709	1731.13
2816.151	1725.46
2819.59	1727.79
2823.026	1728.13
2826.46	1726.46
2829.89	1731.46
2833.318	1729.46
2836.742	1726.79
2840.164	1729.79
2843.583	1734.79
2846.999	1733.13
2850.412	1744.46
2853.822	1747.79
2857.229	1760.79
2860.634	1758.79
2864.035	1761.46
2867.434	1779.79
2870.83	1788.46
2874.223	1782.46
2877.613	1782.46
2881	1768.46
2884.385	1775.46
2887.766	1758.13
2891.145	1745.79
2894.521	1743.46
2897.894	1731.79
2901.264	1725.13
2904.631	1719.46
2907.996	1724.13
2911.358	1702.13
2914.717	1703.79
2918.073	1698.79
2921.426	1687.79
2924.777	1689.46
2928.124	1681.79
2931.469	1693.79
2934.811	1690.79
2938.15	1682.13
2941.487	1677.46
2944.821	1672.79
2948.152	1668.46
2951.48	1658.79
2954.805	1648.46
2958.128	1641.79
2961.447	1636.46
2964.765	1632.13
2968.079	1631.79
2971.39	1632.13
2974.699	1630.46
2978.005	1640.46
2981.308	1638.46
2984.609	1642.46
2987.907	1653.13
2991.202	1658.46
2994.494	1672.79
2997.784	1671.46
3001.07	1678.46
3004.355	1683.13
3007.636	1685.79
3010.915	1674.46
3014.191	1657.13
3017.464	1655.46
3020.734	1643.46
3024.002	1619.79
3027.267	1595.46
3030.53	1572.46
3033.789	1560.13
3037.046	1550.79
3040.301	1540.79
3043.552	1514.46
3046.801	1511.13
3050.048	1500.46
3053.291	1507.13
3056.532	1501.13
3059.771	1509.13
3063.006	1506.46
3066.239	1499.46
3069.469	1488.46
3072.697	1500.46
3075.922	1492.13
3079.144	1474.79
3082.364	1479.79
3085.581	1469.46
3088.795	1466.46
3092.007	1453.79
3095.216	1443.79
3098.423	1433.46
3101.627	1429.13
3104.828	1425.79
3108.026	1402.79
3111.222	1402.46
3114.416	1386.79
3117.607	1390.79
3120.795	1386.13
3123.98	1368.13
3127.163	1371.46
3130.344	1374.13
3133.521	1370.79
3136.696	1365.13
3139.869	1368.46
3143.039	1349.13
3146.206	1342.79
3149.371	1336.46
3152.533	1326.79
3155.693	1308.79
3158.85	1291.79
3162.005	1270.79
3165.157	1257.46
3168.306	1240.13
3171.453	1228.79
3174.597	1214.13
3177.739	1199.79
3180.878	1189.46
3184.014	1177.13
3187.149	1163.13
3190.28	1158.79
3193.409	1152.46
3196.536	1134.13
3199.659	1133.46
3202.781	1124.79
3205.9	1113.13
3209.016	1103.46
3212.13	1101.13
3215.241	1092.13
3218.35	1079.79
3221.456	1063.13
3224.56	1052.46
3227.661	1043.13
3230.76	1037.46
3233.856	1027.46
3236.95	1015.79
3240.041	999.79
3243.13	994.46
3246.216	985.79
3249.3	974.46
3252.382	976.46
3255.46	965.13
3258.537	964.79
3261.611	965.46
3264.682	958.79
3267.751	959.79
3270.818	950.13
3273.882	953.13
3276.943	943.13
3280.002	943.79
3283.059	936.46
3286.113	929.46
3289.165	917.13
3292.214	909.13
3295.261	895.46
3298.306	881.79
3301.348	870.46
3304.387	862.46
3307.425	846.79
3310.459	841.79
3313.492	825.79
3316.521	819.13
3319.549	809.79
3322.574	804.46
3325.597	801.46
3328.617	795.46
3331.635	787.46
3334.65	780.79
3337.663	775.79
3340.674	775.79
3343.682	765.46
3346.688	774.13
3349.691	769.13
3352.692	764.46
3355.691	762.79
3358.687	750.13
3361.681	749.79
3364.673	731.13
3367.662	726.46
3370.649	725.79
3373.633	711.79
3376.615	704.79
3379.595	698.46
3382.572	694.46
3385.547	683.79
3388.52	673.46
3391.49	664.13
3394.458	661.79
3397.424	657.13
3400.387	649.13
3403.348	642.46
3406.307	639.46
3409.263	632.79
3412.217	634.13
3415.168	623.79
3418.118	623.46
3421.065	622.79
3424.009	616.13
3426.951	616.79
3429.891	606.79
3432.829	604.13
3435.764	592.46
3438.697	591.79
3441.628	579.46
3444.557	577.46
3447.483	567.46
3450.407	559.13
3453.328	551.13
3456.247	550.46
3459.164	537.79
3462.079	528.79
3464.991	518.13
3467.902	512.79
3470.809	502.79
3473.715	499.79
3476.618	498.46
3479.519	493.46
3482.418	489.13
3485.315	479.46
3488.209	478.79
3491.101	479.13
3493.99	474.46
3496.878	464.46
3499.763	463.46
3502.646	458.79
3505.527	453.13
3508.405	451.13
3511.281	444.13
3514.155	435.13
3517.027	428.79
3519.897	416.46
3522.764	407.46
3525.629	404.13
3528.492	396.79
3531.352	388.79
3534.211	382.46
3537.067	371.79
3539.921	365.13
3542.773	356.46
3545.622	355.13
3548.469	345.46
3551.315	343.79
3554.157	336.79
3556.998	333.46
3559.837	324.79
3562.673	327.46
3565.507	319.79
3568.339	312.13
3571.169	309.79
3573.996	303.79
3576.822	303.79
3579.645	298.13
3582.466	293.79
3585.285	285.46
3588.101	280.13
3590.916	275.79
3593.728	264.13
3596.538	260.79
3599.346	261.46
3602.152	254.46
3604.956	255.46
3607.757	242.13
3610.556	241.13
3613.354	235.79
3616.149	233.46
3618.942	230.13
3621.732	231.46
3624.521	224.46
3627.307	223.79
3630.092	221.13
3632.874	218.13
3635.654	218.79
3638.432	214.46
3641.208	213.46
3643.982	211.79
3646.753	208.79
3649.523	204.79
3652.29	200.79
3655.055	197.46
3657.818	193.13
3660.579	190.13
3663.338	187.46
3666.095	184.46
3668.849	180.13
3671.602	176.13
3674.352	181.79
3677.101	173.46
3679.847	178.79
3682.591	172.79
3685.333	171.46
3688.073	167.13
3690.811	169.13
3693.547	170.46
3696.281	168.13
3699.013	169.46
3701.742	171.46
3704.47	168.46
3707.195	167.13
3709.919	165.46
3712.64	164.46
3715.359	164.46
3718.076	161.13
3720.792	158.79
3723.505	155.79
3726.216	157.79
3728.925	150.13
3731.632	152.13
3734.336	146.46
3737.039	144.79
3739.74	142.46
3742.439	137.79
3745.136	137.79
3747.83	139.46
3750.523	137.13
3753.213	136.79
3755.902	136.46
3758.589	136.46
3761.273	135.79
3763.956	130.46
3766.636	130.79
3769.315	128.13
3771.991	125.13
3774.665	125.13
3777.338	122.13
3780.008	118.13
3782.677	114.13
3785.343	114.13
3788.007	114.13
3790.67	107.46
3793.33	107.13
3795.989	103.79
3798.645	106.79
3801.299	102.13
3803.952	98.46
3806.602	99.13
3809.251	99.46
3811.897	95.46
3814.542	97.13
3817.184	93.46
3819.825	93.46
3822.463	90.13
3825.1	89.46
3827.735	89.46
3830.367	82.46
3832.998	81.46
3835.627	80.79
3838.253	72.79
3840.878	72.79
3843.501	72.13
3846.122	66.46
3848.741	66.46
3851.358	61.46
3853.973	61.13
3856.586	60.79
3859.197	57.46
3861.806	57.13
3864.414	52.46
3867.019	51.46
3869.622	50.79
3872.224	47.79
3874.823	46.79
3877.421	44.79
3880.016	44.13
3882.61	41.79
3885.202	37.13
3887.792	35.79
3890.38	33.46
3892.966	30.79
3895.55	27.46
3898.132	24.79
3900.713	23.79
3903.291	20.46
3905.868	17.13
3908.442	17.79
3911.015	16.13
3913.586	14.79
3916.155	16.46
3918.722	11.13
3921.287	11.46
3923.85	9.46
3926.411	10.46
3928.971	9.13
3931.528	7.13
3934.084	6.46
3936.638	4.46
3939.19	3.46
3941.74	4.13
3944.288	4.13
3946.834	-0.54
3949.378	-0.87
3951.921	-1.21
3954.462	1.13
3957	-1.54
3959.537	-0.21
3962.072	-1.54
3964.606	-3.21
3967.137	-3.87
3969.667	-2.54
3972.194	-2.87
3974.72	-3.21
3977.244	-3.87
3979.766	-4.21
3982.286	-3.87
3984.805	-2.21
3987.321	-3.21
3989.836	-4.21
3992.349	-3.87
3994.86	-3.21
3997.369	-5.21
3999.877	-4.54
4002.382	-4.21
4004.886	-7.21
4007.388	-4.21
4009.888	-6.21
4012.386	-6.87
4014.883	-5.54
4017.377	-9.87
4019.87	-7.21
4022.361	-8.54
4024.85	-8.87
4027.338	-5.54
4029.823	-7.54
4032.307	-6.87
4034.789	-8.21
4037.269	-7.54
4039.747	-9.21
4042.224	-9.21
4044.699	-9.87
4047.172	-10.87
4049.643	-13.21
4052.112	-10.54
4054.58	-10.87
4057.046	-14.87
4059.51	-13.21
4061.972	-17.54
4064.432	-12.21
4066.891	-13.54
4069.348	-11.87
4071.803	-15.21
4074.256	-13.87
4076.708	-17.21
4079.158	-14.54
4081.606	-17.54
4084.052	-15.54
4086.497	-15.87
4088.939	-15.87
4091.38	-15.87
4093.819	-17.87
4096.257	-25.54
4098.693	-27.21
4101.127	-26.87
4103.559	-27.54
4105.989	-13.54
4108.418	-10.54
4110.845	-10.87
4113.27	-6.54
4115.694	-6.21
4118.115	-5.87
4120.535	-18.21
4122.954	-18.87
4125.37	-18.54
4127.785	-16.21
4130.198	-19.54
4132.609	-16.54
4135.019	-25.21
4137.427	-26.54
4139.833	-24.87
4142.237	-25.21
