Data from dw_RamanShift_3.txt Node
Date: Tue Oct 17 17:08:09 IDT 2017
User: aro
Spectrometer: QEPB0276
Trigger mode: 0
Integration Time (sec): 5.000000E0
Scans to average: 3
Electric dark correction enabled: true
Nonlinearity correction enabled: false
Boxcar width: 0
XAxis mode: Raman Shifts
Number of Pixels in Spectrum: 1044
>>>>>Begin Spectral Data<<<<<
160.701	-2.54
166.742	4.13
172.777	18.46
178.805	65.46
184.826	189.46
190.841	401.13
196.849	681.13
202.85	888.46
208.845	989.46
214.833	1011.46
220.815	1018.46
226.789	1048.79
232.758	1080.46
238.719	1101.13
244.674	1116.46
250.623	1120.46
256.565	1129.79
262.5	1131.79
268.429	1139.13
274.351	1136.46
280.267	1148.13
286.176	1160.13
292.079	1168.79
297.975	1187.79
303.865	1198.13
309.748	1214.79
315.625	1193.13
321.495	1172.79
327.359	1176.46
333.217	1157.79
339.068	1142.46
344.912	1134.13
350.751	1137.79
356.583	1113.46
362.408	1105.13
368.227	1105.13
374.04	1102.79
379.847	1095.46
385.647	1091.46
391.44	1082.46
397.228	1073.79
403.009	1064.46
408.784	1068.46
414.553	1084.79
420.315	1102.79
426.071	1089.13
431.821	1057.13
437.565	1030.13
443.302	1009.13
449.033	989.46
454.758	974.13
460.477	954.13
466.189	934.79
471.896	916.46
477.596	894.13
483.29	870.79
488.978	852.46
494.66	814.13
500.335	778.13
506.005	740.46
511.668	767.79
517.325	847.79
522.977	1010.79
528.622	1135.13
534.261	1170.46
539.894	1150.13
545.521	1126.79
551.141	1092.79
556.756	1076.46
562.365	1058.79
567.968	1035.46
573.565	1024.13
579.155	1013.46
584.74	995.46
590.319	986.13
595.892	967.46
601.459	966.46
607.02	938.13
612.575	921.46
618.124	920.79
623.667	928.13
629.204	936.13
634.735	951.46
640.261	952.79
645.781	961.79
651.294	967.13
656.802	970.13
662.304	952.46
667.8	955.79
673.29	947.46
678.775	947.79
684.254	935.46
689.726	941.46
695.193	935.79
700.655	927.13
706.11	926.13
711.56	920.13
717.004	925.13
722.442	920.13
727.874	908.79
733.301	912.46
738.722	918.79
744.137	915.79
749.547	922.13
754.951	927.13
760.349	927.79
765.741	931.46
771.128	939.46
776.509	935.46
781.885	937.13
787.254	943.46
792.618	941.13
797.977	941.79
803.33	940.13
808.677	941.46
814.019	933.13
819.355	929.46
824.686	941.79
830.011	940.79
835.33	945.13
840.644	941.46
845.952	952.13
851.255	956.13
856.552	966.79
861.844	974.79
867.13	978.79
872.41	982.46
877.686	978.13
882.955	972.13
888.219	974.46
893.478	974.79
898.731	971.46
903.979	973.79
909.221	977.46
914.458	975.46
919.69	984.46
924.916	1007.13
930.136	1018.13
935.351	1045.13
940.561	1069.79
945.766	1086.46
950.965	1092.46
956.158	1090.46
961.347	1079.79
966.529	1070.79
971.707	1063.13
976.879	1050.46
982.046	1044.13
987.208	1024.13
992.364	1034.79
997.515	1028.13
1002.66	1022.79
1007.801	1030.46
1012.936	1044.46
1018.066	1057.13
1023.19	1054.46
1028.309	1066.46
1033.423	1067.79
1038.532	1058.13
1043.636	1053.13
1048.734	1053.13
1053.827	1038.46
1058.915	1034.79
1063.998	1031.79
1069.075	1030.79
1074.147	1043.13
1079.214	1049.46
1084.276	1057.79
1089.333	1073.46
1094.385	1076.79
1099.431	1085.46
1104.472	1093.13
1109.509	1089.13
1114.54	1084.46
1119.565	1069.46
1124.586	1061.79
1129.602	1061.46
1134.613	1052.79
1139.618	1059.79
1144.619	1063.46
1149.614	1066.79
1154.604	1071.46
1159.589	1077.13
1164.57	1078.79
1169.545	1090.13
1174.515	1101.79
1179.48	1088.46
1184.44	1081.79
1189.395	1080.46
1194.345	1076.79
1199.29	1073.13
1204.23	1079.46
1209.165	1079.79
1214.095	1093.46
1219.021	1107.79
1223.941	1109.13
1228.856	1117.46
1233.766	1121.46
1238.672	1125.79
1243.572	1127.46
1248.467	1120.79
1253.358	1115.79
1258.244	1107.46
1263.124	1090.79
1268	1069.79
1272.871	1068.46
1277.737	1058.46
1282.599	1056.46
1287.455	1061.46
1292.306	1071.79
1297.153	1085.79
1301.995	1094.13
1306.832	1097.46
1311.664	1095.46
1316.491	1109.46
1321.314	1104.13
1326.132	1095.79
1330.945	1083.13
1335.753	1059.46
1340.556	1032.13
1345.354	1012.13
1350.148	1003.13
1354.937	1006.46
1359.722	1014.13
1364.501	1036.79
1369.276	1059.46
1374.046	1089.13
1378.811	1106.13
1383.572	1101.13
1388.327	1106.46
1393.079	1079.13
1397.825	1066.79
1402.567	1045.79
1407.304	1028.13
1412.036	1024.79
1416.764	1005.79
1421.487	1008.13
1426.205	1012.13
1430.919	1017.79
1435.628	1028.46
1440.333	1035.13
1445.032	1035.79
1449.727	1041.46
1454.418	1045.79
1459.104	1041.79
1463.785	1031.79
1468.462	1026.79
1473.134	1010.13
1477.802	1009.79
1482.465	1011.79
1487.123	1008.79
1491.777	1019.79
1496.426	1029.79
1501.071	1032.79
1505.711	1061.13
1510.347	1073.46
1514.978	1083.13
1519.604	1084.46
1524.226	1092.79
1528.844	1093.46
1533.457	1092.13
1538.065	1078.79
1542.669	1075.46
1547.269	1069.46
1551.864	1062.46
1556.454	1057.46
1561.041	1045.13
1565.622	1041.13
1570.199	1038.79
1574.772	1035.46
1579.34	1042.13
1583.904	1038.79
1588.464	1040.79
1593.019	1032.13
1597.569	1024.13
1602.115	1018.79
1606.657	1005.46
1611.195	991.79
1615.728	978.46
1620.256	973.46
1624.78	973.46
1629.3	964.46
1633.816	964.46
1638.327	974.13
1642.834	983.46
1647.336	994.79
1651.834	1009.79
1656.328	1010.79
1660.817	1016.79
1665.302	1012.13
1669.783	1023.79
1674.259	1016.46
1678.732	1005.46
1683.199	995.79
1687.663	981.46
1692.122	967.79
1696.577	972.13
1701.028	984.46
1705.474	1012.46
1709.917	1033.13
1714.355	1039.46
1718.788	1020.46
1723.218	1026.79
1727.643	1016.13
1732.064	1007.79
1736.481	1003.79
1740.893	993.79
1745.301	979.79
1749.705	975.13
1754.105	954.46
1758.501	944.79
1762.893	940.13
1767.28	936.79
1771.663	937.13
1776.042	937.46
1780.417	938.13
1784.787	961.46
1789.154	982.46
1793.516	1010.79
1797.874	1024.46
1802.228	1042.46
1806.578	1052.13
1810.924	1041.79
1815.266	1041.79
1819.603	1034.46
1823.937	1026.46
1828.266	1013.13
1832.591	992.46
1836.913	991.79
1841.23	992.79
1845.543	989.13
1849.852	988.46
1854.156	988.46
1858.457	1004.79
1862.754	1000.13
1867.047	1010.13
1871.335	1026.79
1875.62	1026.13
1879.9	1036.13
1884.177	1031.79
1888.449	1034.79
1892.718	1040.46
1896.982	1033.46
1901.243	1036.13
1905.499	1039.13
1909.752	1049.13
1914	1054.13
1918.245	1069.13
1922.485	1067.46
1926.722	1094.13
1930.954	1094.46
1935.183	1107.13
1939.408	1114.79
1943.628	1129.46
1947.845	1131.46
1952.058	1138.79
1956.267	1136.13
1960.472	1141.79
1964.673	1132.79
1968.87	1115.79
1973.063	1106.46
1977.252	1106.79
1981.438	1099.79
1985.619	1100.13
1989.797	1100.79
1993.971	1107.79
1998.14	1102.13
2002.306	1108.13
2006.469	1109.46
2010.627	1108.79
2014.781	1120.13
2018.932	1110.79
2023.078	1122.46
2027.221	1111.13
2031.36	1119.46
2035.495	1111.79
2039.627	1098.46
2043.754	1102.46
2047.878	1098.46
2051.998	1102.79
2056.114	1109.79
2060.226	1116.13
2064.334	1128.79
2068.439	1132.79
2072.54	1143.46
2076.637	1155.79
2080.73	1165.79
2084.82	1172.13
2088.906	1182.13
2092.988	1185.79
2097.066	1192.46
2101.14	1182.13
2105.211	1194.46
2109.278	1204.79
2113.342	1191.79
2117.401	1197.79
2121.457	1200.79
2125.509	1209.79
2129.558	1212.46
2133.602	1217.46
2137.643	1231.13
2141.681	1222.79
2145.714	1231.13
2149.744	1223.79
2153.77	1231.46
2157.793	1232.79
2161.812	1231.13
2165.827	1217.46
2169.838	1212.13
2173.846	1213.79
2177.851	1200.13
2181.851	1193.46
2185.848	1194.13
2189.841	1198.46
2193.831	1188.79
2197.817	1190.79
2201.799	1204.79
2205.778	1217.13
2209.753	1215.13
2213.725	1227.13
2217.693	1241.46
2221.657	1254.46
2225.618	1258.79
2229.575	1262.79
2233.529	1269.13
2237.479	1277.79
2241.425	1270.46
2245.368	1269.13
2249.307	1266.13
2253.243	1270.13
2257.175	1266.46
2261.104	1260.79
2265.029	1261.79
2268.95	1266.13
2272.868	1275.79
2276.783	1259.79
2280.694	1264.13
2284.601	1266.13
2288.505	1275.79
2292.405	1267.46
2296.302	1261.79
2300.195	1261.13
2304.085	1254.79
2307.971	1263.13
2311.854	1253.13
2315.734	1246.46
2319.609	1225.46
2323.482	1217.46
2327.351	1220.13
2331.216	1216.13
2335.078	1221.46
2338.937	1210.79
2342.792	1217.79
2346.643	1227.13
2350.492	1224.13
2354.336	1238.46
2358.178	1252.79
2362.015	1269.46
2365.85	1274.79
2369.681	1284.79
2373.508	1289.46
2377.333	1293.13
2381.153	1303.46
2384.971	1307.13
2388.785	1298.13
2392.595	1311.13
2396.402	1300.79
2400.206	1294.79
2404.007	1308.79
2407.804	1313.13
2411.597	1312.13
2415.388	1308.13
2419.174	1315.46
2422.958	1334.46
2426.738	1336.46
2430.515	1332.46
2434.289	1333.13
2438.059	1335.13
2441.825	1342.13
2445.589	1341.79
2449.349	1343.13
2453.106	1333.79
2456.859	1329.13
2460.61	1343.13
2464.356	1333.79
2468.1	1339.46
2471.84	1337.13
2475.577	1340.46
2479.311	1354.13
2483.041	1358.79
2486.768	1372.13
2490.492	1382.13
2494.213	1385.79
2497.93	1398.46
2501.644	1406.79
2505.355	1409.46
2509.062	1417.79
2512.766	1432.13
2516.467	1432.13
2520.165	1443.13
2523.859	1443.79
2527.551	1451.13
2531.239	1449.79
2534.923	1450.79
2538.605	1455.46
2542.283	1461.13
2545.958	1469.79
2549.63	1476.79
2553.299	1484.46
2556.964	1498.13
2560.626	1490.79
2564.285	1501.46
2567.941	1495.79
2571.594	1502.13
2575.243	1496.13
2578.89	1514.46
2582.533	1501.13
2586.173	1497.13
2589.809	1498.13
2593.443	1509.79
2597.073	1509.13
2600.701	1507.13
2604.325	1520.46
2607.946	1510.79
2611.564	1532.46
2615.178	1539.46
2618.79	1532.46
2622.398	1537.79
2626.004	1527.46
2629.606	1541.46
2633.205	1526.46
2636.801	1521.79
2640.394	1516.46
2643.983	1508.79
2647.57	1504.46
2651.153	1495.46
2654.734	1499.13
2658.311	1481.79
2661.885	1481.79
2665.456	1485.46
2669.025	1478.46
2672.589	1472.79
2676.151	1468.79
2679.71	1474.46
2683.266	1467.13
2686.819	1464.13
2690.368	1454.46
2693.915	1456.13
2697.458	1435.79
2700.999	1432.13
2704.536	1420.13
2708.071	1415.79
2711.602	1418.13
2715.13	1405.79
2718.656	1400.46
2722.178	1400.79
2725.697	1416.79
2729.214	1411.79
2732.727	1427.46
2736.237	1440.13
2739.744	1450.46
2743.249	1477.13
2746.75	1489.79
2750.248	1507.79
2753.743	1516.79
2757.236	1530.79
2760.725	1547.79
2764.211	1553.13
2767.695	1549.79
2771.175	1551.79
2774.652	1549.46
2778.127	1548.46
2781.598	1537.46
2785.067	1540.46
2788.532	1533.79
2791.995	1533.46
2795.455	1539.13
2798.911	1540.46
2802.365	1541.13
2805.816	1535.79
2809.264	1535.79
2812.709	1527.79
2816.151	1521.13
2819.59	1528.13
2823.026	1531.79
2826.46	1517.79
2829.89	1516.13
2833.318	1511.79
2836.742	1508.13
2840.164	1513.79
2843.583	1517.13
2846.999	1515.13
2850.412	1519.79
2853.822	1519.13
2857.229	1528.46
2860.634	1536.79
2864.035	1542.13
2867.434	1540.79
2870.83	1549.79
2874.223	1550.13
2877.613	1535.79
2881	1541.46
2884.385	1532.13
2887.766	1517.79
2891.145	1505.79
2894.521	1504.13
2897.894	1494.13
2901.264	1484.13
2904.631	1473.13
2907.996	1465.79
2911.358	1463.13
2914.717	1466.46
2918.073	1458.46
2921.426	1446.13
2924.777	1442.79
2928.124	1446.79
2931.469	1440.46
2934.811	1442.13
2938.15	1450.79
2941.487	1428.79
2944.821	1433.46
2948.152	1425.79
2951.48	1421.46
2954.805	1414.46
2958.128	1414.46
2961.447	1404.79
2964.765	1396.46
2968.079	1383.79
2971.39	1395.13
2974.699	1394.46
2978.005	1402.13
2981.308	1399.13
2984.609	1411.79
2987.907	1411.79
2991.202	1420.79
2994.494	1431.79
2997.784	1438.13
3001.07	1434.79
3004.355	1448.79
3007.636	1443.46
3010.915	1433.79
3014.191	1423.13
3017.464	1423.79
3020.734	1403.79
3024.002	1389.46
3027.267	1377.13
3030.53	1368.79
3033.789	1344.46
3037.046	1331.13
3040.301	1332.13
3043.552	1321.79
3046.801	1310.46
3050.048	1310.13
3053.291	1301.13
3056.532	1296.46
3059.771	1301.79
3063.006	1306.13
3066.239	1305.79
3069.469	1304.79
3072.697	1315.13
3075.922	1299.46
3079.144	1293.46
3082.364	1293.46
3085.581	1290.13
3088.795	1283.46
3092.007	1282.13
3095.216	1266.46
3098.423	1274.46
3101.627	1256.13
3104.828	1256.79
3108.026	1247.13
3111.222	1239.46
3114.416	1235.46
3117.607	1233.79
3120.795	1228.79
3123.98	1236.46
3127.163	1222.79
3130.344	1224.13
3133.521	1223.13
3136.696	1232.13
3139.869	1224.13
3143.039	1217.79
3146.206	1208.13
3149.371	1204.79
3152.533	1190.79
3155.693	1184.79
3158.85	1162.79
3162.005	1148.46
3165.157	1149.13
3168.306	1138.46
3171.453	1119.13
3174.597	1110.13
3177.739	1097.79
3180.878	1095.46
3184.014	1076.13
3187.149	1073.46
3190.28	1076.79
3193.409	1064.13
3196.536	1053.79
3199.659	1051.79
3202.781	1048.13
3205.9	1042.13
3209.016	1032.46
3212.13	1026.46
3215.241	1021.13
3218.35	1015.79
3221.456	1006.13
3224.56	995.46
3227.661	976.46
3230.76	979.13
3233.856	964.46
3236.95	957.13
3240.041	946.13
3243.13	937.46
3246.216	937.13
3249.3	934.13
3252.382	928.79
3255.46	925.13
3258.537	922.13
3261.611	916.46
3264.682	919.13
3267.751	919.79
3270.818	918.79
3273.882	914.46
3276.943	912.46
3280.002	908.79
3283.059	911.13
3286.113	893.13
3289.165	883.46
3292.214	874.46
3295.261	866.13
3298.306	857.13
3301.348	846.46
3304.387	838.79
3307.425	825.13
3310.459	822.46
3313.492	805.79
3316.521	796.13
3319.549	789.13
3322.574	788.46
3325.597	772.79
3328.617	780.79
3331.635	764.46
3334.65	764.46
3337.663	766.13
3340.674	761.46
3343.682	749.79
3346.688	753.79
3349.691	750.79
3352.692	749.79
3355.691	745.13
3358.687	734.79
3361.681	731.79
3364.673	726.79
3367.662	712.79
3370.649	712.13
3373.633	701.46
3376.615	690.46
3379.595	684.79
3382.572	687.13
3385.547	673.79
3388.52	668.46
3391.49	656.46
3394.458	653.46
3397.424	645.13
3400.387	638.46
3403.348	630.46
3406.307	631.13
3409.263	628.79
3412.217	625.46
3415.168	624.13
3418.118	618.13
3421.065	618.79
3424.009	607.13
3426.951	605.46
3429.891	601.13
3432.829	597.79
3435.764	588.79
3438.697	583.79
3441.628	577.79
3444.557	563.79
3447.483	563.79
3450.407	550.13
3453.328	543.13
3456.247	531.79
3459.164	528.46
3462.079	516.79
3464.991	513.13
3467.902	506.46
3470.809	499.46
3473.715	488.46
3476.618	486.79
3479.519	480.79
3482.418	474.13
3485.315	472.46
3488.209	472.79
3491.101	469.79
3493.99	459.13
3496.878	459.79
3499.763	457.46
3502.646	449.79
3505.527	448.13
3508.405	438.13
3511.281	428.13
3514.155	425.79
3517.027	422.13
3519.897	407.46
3522.764	404.79
3525.629	393.13
3528.492	386.46
3531.352	379.13
3534.211	371.13
3537.067	364.13
3539.921	355.13
3542.773	346.46
3545.622	341.13
3548.469	333.46
3551.315	331.46
3554.157	323.79
3556.998	320.79
3559.837	311.13
3562.673	309.79
3565.507	304.46
3568.339	299.46
3571.169	298.79
3573.996	290.46
3576.822	289.13
3579.645	282.13
3582.466	278.13
3585.285	270.79
3588.101	269.13
3590.916	263.79
3593.728	259.79
3596.538	254.79
3599.346	251.46
3602.152	244.46
3604.956	236.13
3607.757	234.79
3610.556	230.79
3613.354	225.46
3616.149	222.46
3618.942	221.13
3621.732	216.46
3624.521	212.13
3627.307	210.13
3630.092	212.46
3632.874	208.13
3635.654	208.46
3638.432	205.13
3641.208	197.46
3643.982	199.13
3646.753	201.79
3649.523	198.46
3652.29	189.79
3655.055	186.13
3657.818	184.79
3660.579	183.13
3663.338	177.13
3666.095	172.79
3668.849	168.79
3671.602	167.46
3674.352	170.13
3677.101	162.46
3679.847	163.13
3682.591	159.13
3685.333	160.13
3688.073	155.46
3690.811	159.46
3693.547	160.79
3696.281	158.79
3699.013	155.46
3701.742	158.13
3704.47	153.79
3707.195	158.46
3709.919	154.46
3712.64	153.79
3715.359	154.13
3718.076	152.13
3720.792	150.13
3723.505	145.13
3726.216	146.13
3728.925	146.79
3731.632	144.46
3734.336	139.13
3737.039	140.13
3739.74	137.13
3742.439	133.79
3745.136	135.79
3747.83	132.46
3750.523	130.46
3753.213	129.79
3755.902	130.13
3758.589	126.13
3761.273	131.13
3763.956	126.79
3766.636	125.46
3769.315	123.46
3771.991	121.46
3774.665	120.13
3777.338	116.13
3780.008	114.79
3782.677	112.79
3785.343	108.13
3788.007	107.46
3790.67	103.13
3793.33	98.79
3795.989	100.13
3798.645	94.46
3801.299	93.13
3803.952	94.13
3806.602	94.46
3809.251	94.13
3811.897	92.46
3814.542	89.13
3817.184	91.13
3819.825	89.13
3822.463	84.46
3825.1	84.13
3827.735	80.79
3830.367	80.46
3832.998	77.13
3835.627	76.79
3838.253	74.46
3840.878	71.13
3843.501	70.46
3846.122	64.79
3848.741	66.46
3851.358	65.13
3853.973	58.79
3856.586	60.46
3859.197	58.46
3861.806	55.13
3864.414	54.46
3867.019	55.13
3869.622	52.13
3872.224	48.13
3874.823	51.13
3877.421	46.79
3880.016	44.79
3882.61	42.46
3885.202	41.13
3887.792	40.79
3890.38	35.46
3892.966	33.46
3895.55	32.46
3898.132	27.46
3900.713	26.13
3903.291	24.13
3905.868	20.79
3908.442	20.46
3911.015	16.46
3913.586	16.13
3916.155	14.46
3918.722	13.79
3921.287	11.13
3923.85	10.13
3926.411	11.79
3928.971	7.79
3931.528	7.13
3934.084	5.13
3936.638	4.46
3939.19	4.79
3941.74	5.79
3944.288	3.13
3946.834	1.13
3949.378	0.46
3951.921	0.46
3954.462	-0.54
3957	1.79
3959.537	1.13
3962.072	1.79
3964.606	0.13
3967.137	0.79
3969.667	0.79
3972.194	-1.21
3974.72	1.13
3977.244	-1.54
3979.766	1.13
3982.286	1.46
3984.805	-0.54
3987.321	2.79
3989.836	1.79
3992.349	1.13
3994.86	1.79
3997.369	-0.21
3999.877	-1.21
4002.382	-1.54
4004.886	-1.87
4007.388	-0.54
4009.888	-3.21
4012.386	-3.21
4014.883	-2.54
4017.377	-5.21
4019.87	-2.54
4022.361	-6.87
4024.85	-4.54
4027.338	-5.54
4029.823	-4.54
4032.307	-6.87
4034.789	-6.21
4037.269	-7.87
4039.747	-9.54
4042.224	-8.87
4044.699	-7.21
4047.172	-8.87
4049.643	-11.21
4052.112	-10.54
4054.58	-11.21
4057.046	-10.87
4059.51	-11.54
4061.972	-14.21
4064.432	-11.21
4066.891	-11.87
4069.348	-11.87
4071.803	-11.21
4074.256	-12.87
4076.708	-15.54
4079.158	-12.21
4081.606	-14.21
4084.052	-12.87
4086.497	-12.54
4088.939	-12.54
4091.38	-11.21
4093.819	-11.87
4096.257	-22.87
4098.693	-21.21
4101.127	-24.54
4103.559	-25.21
4105.989	-11.87
4108.418	-8.54
4110.845	-10.21
4113.27	-5.87
4115.694	-6.87
4118.115	-5.87
4120.535	-14.21
4122.954	-12.87
4125.37	-14.21
4127.785	-12.54
4130.198	-15.21
4132.609	-14.87
4135.019	-22.87
4137.427	-20.87
4139.833	-21.21
4142.237	-20.54
