Data from ec10_RamanShift_3.txt Node
Date: Tue Oct 17 17:22:24 IDT 2017
User: aro
Spectrometer: QEPB0276
Trigger mode: 0
Integration Time (sec): 5.000000E0
Scans to average: 3
Electric dark correction enabled: true
Nonlinearity correction enabled: false
Boxcar width: 0
XAxis mode: Raman Shifts
Number of Pixels in Spectrum: 1044
>>>>>Begin Spectral Data<<<<<
160.701	-3
166.742	6.67
172.777	21.67
178.805	79.67
184.826	226.33
190.841	499.33
196.849	834.67
202.85	1101.67
208.845	1209
214.833	1240.67
220.815	1266.33
226.789	1302
232.758	1333.67
238.719	1373.33
244.674	1383.33
250.623	1400
256.565	1397
262.5	1397.67
268.429	1405
274.351	1408
280.267	1411
286.176	1415.33
292.079	1444
297.975	1455.67
303.865	1477
309.748	1481
315.625	1467.67
321.495	1444.67
327.359	1433.67
333.217	1426.33
339.068	1400.67
344.912	1387.33
350.751	1377
356.583	1373.67
362.408	1348.67
368.227	1344.67
374.04	1324.67
379.847	1336.33
385.647	1325.67
391.44	1309
397.228	1293.33
403.009	1293.67
408.784	1284.33
414.553	1297.33
420.315	1305.33
426.071	1306.33
431.821	1274
437.565	1235.33
443.302	1214.33
449.033	1187.33
454.758	1168.33
460.477	1148
466.189	1116.33
471.896	1097
477.596	1078.33
483.29	1043
488.978	1013.67
494.66	971.33
500.335	931.33
506.005	893.33
511.668	915.67
517.325	1001.67
522.977	1158.33
528.622	1307.67
534.261	1360.67
539.894	1343.67
545.521	1325.67
551.141	1288.67
556.756	1270.67
562.365	1246.33
567.968	1226.67
573.565	1217.67
579.155	1206
584.74	1187.67
590.319	1172.67
595.892	1159.67
601.459	1145
607.02	1128.33
612.575	1113
618.124	1107.33
623.667	1123.33
629.204	1130
634.735	1139.33
640.261	1136
645.781	1147.67
651.294	1167.67
656.802	1159.67
662.304	1146
667.8	1142.67
673.29	1144.67
678.775	1146.33
684.254	1155.33
689.726	1152.67
695.193	1146.33
700.655	1145
706.11	1144.67
711.56	1137
717.004	1141.67
722.442	1140
727.874	1144.33
733.301	1152
738.722	1159.33
744.137	1154
749.547	1164.67
754.951	1172.33
760.349	1174.67
765.741	1183.33
771.128	1191
776.509	1197.67
781.885	1202
787.254	1210.67
792.618	1210.67
797.977	1215
803.33	1211
808.677	1218.67
814.019	1222.33
819.355	1223.67
824.686	1219.33
830.011	1230.67
835.33	1240.67
840.644	1247.67
845.952	1253.33
851.255	1266
856.552	1278.33
861.844	1284
867.13	1301.67
872.41	1301.67
877.686	1304.33
882.955	1303.33
888.219	1296.67
893.478	1303.33
898.731	1297.67
903.979	1303
909.221	1304.67
914.458	1319
919.69	1331.67
924.916	1343.33
930.136	1366
935.351	1393
940.561	1429.67
945.766	1446.67
950.965	1451
956.158	1456
961.347	1443
966.529	1420
971.707	1405.33
976.879	1396.33
982.046	1393.33
987.208	1382.33
992.364	1381.33
997.515	1378.67
1002.66	1381.67
1007.801	1392.33
1012.936	1400.67
1018.066	1415.33
1023.19	1423
1028.309	1437.67
1033.423	1426.33
1038.532	1423.67
1043.636	1410
1048.734	1392.67
1053.827	1388
1058.915	1375
1063.998	1358.67
1069.075	1357.33
1074.147	1375
1079.214	1372
1084.276	1387
1089.333	1400
1094.385	1409.33
1099.431	1412.33
1104.472	1428.67
1109.509	1413
1114.54	1390.67
1119.565	1383.33
1124.586	1358
1129.602	1351
1134.613	1345.67
1139.618	1339.67
1144.619	1337.67
1149.614	1335
1154.604	1357.67
1159.589	1343.33
1164.57	1352.33
1169.545	1365.33
1174.515	1353.33
1179.48	1348
1184.44	1341.33
1189.395	1329.33
1194.345	1333
1199.29	1325.67
1204.23	1315.67
1209.165	1322
1214.095	1323
1219.021	1337.67
1223.941	1339.33
1228.856	1349.33
1233.766	1352.33
1238.672	1354.33
1243.572	1360
1248.467	1344.33
1253.358	1331.67
1258.244	1311
1263.124	1283.33
1268	1277.67
1272.871	1268.67
1277.737	1265
1282.599	1253.33
1287.455	1263
1292.306	1267.33
1297.153	1265.33
1301.995	1274
1306.832	1290
1311.664	1289
1316.491	1295
1321.314	1291.67
1326.132	1276
1330.945	1260
1335.753	1233
1340.556	1213.67
1345.354	1195.33
1350.148	1182.67
1354.937	1185.33
1359.722	1196.33
1364.501	1222
1369.276	1254.67
1374.046	1286.33
1378.811	1305.67
1383.572	1307.67
1388.327	1294.33
1393.079	1286.67
1397.825	1259
1402.567	1236.67
1407.304	1226
1412.036	1215.33
1416.764	1208
1421.487	1210.67
1426.205	1213.33
1430.919	1216.67
1435.628	1242.67
1440.333	1259.67
1445.032	1257
1449.727	1278
1454.418	1271.33
1459.104	1272.67
1463.785	1273.67
1468.462	1269
1473.134	1253.67
1477.802	1256
1482.465	1256
1487.123	1262.33
1491.777	1283
1496.426	1288.67
1501.071	1311.33
1505.711	1344.67
1510.347	1360
1514.978	1382.33
1519.604	1394.33
1524.226	1412.33
1528.844	1411.33
1533.457	1412.33
1538.065	1419.33
1542.669	1419
1547.269	1407.33
1551.864	1414
1556.454	1402
1561.041	1404.67
1565.622	1404
1570.199	1407.33
1574.772	1413
1579.34	1430.33
1583.904	1430
1588.464	1436.67
1593.019	1430.33
1597.569	1427
1602.115	1415.67
1606.657	1401.67
1611.195	1395.33
1615.728	1385.67
1620.256	1392.33
1624.78	1395
1629.3	1388
1633.816	1402
1638.327	1410.67
1642.834	1434
1647.336	1464.33
1651.834	1470
1656.328	1489
1660.817	1499
1665.302	1510.67
1669.783	1506.33
1674.259	1516.33
1678.732	1516.33
1683.199	1493.33
1687.663	1467.33
1692.122	1452.67
1696.577	1466
1701.028	1490.33
1705.474	1539
1709.917	1575.33
1714.355	1580
1718.788	1571
1723.218	1571.67
1727.643	1555
1732.064	1549
1736.481	1554.33
1740.893	1536.67
1745.301	1528.67
1749.705	1511.67
1754.105	1496
1758.501	1476.67
1762.893	1474.33
1767.28	1468.33
1771.663	1462
1776.042	1464
1780.417	1477.33
1784.787	1515.67
1789.154	1534
1793.516	1583.33
1797.874	1612.67
1802.228	1650
1806.578	1647.67
1810.924	1643.33
1815.266	1647.33
1819.603	1634.67
1823.937	1612.33
1828.266	1592.67
1832.591	1568
1836.913	1557
1841.23	1551
1845.543	1561.33
1849.852	1558.67
1854.156	1558.33
1858.457	1568.33
1862.754	1576.33
1867.047	1589
1871.335	1592.67
1875.62	1595.33
1879.9	1610.33
1884.177	1605.33
1888.449	1602
1892.718	1603.33
1896.982	1595
1901.243	1595.67
1905.499	1595.33
1909.752	1611.67
1914	1618.33
1918.245	1636
1922.485	1651
1926.722	1662.67
1930.954	1677.33
1935.183	1690.33
1939.408	1693.33
1943.628	1709.33
1947.845	1708.33
1952.058	1707
1956.267	1709.33
1960.472	1700.33
1964.673	1677.67
1968.87	1665.67
1973.063	1653
1977.252	1645.67
1981.438	1617
1985.619	1607
1989.797	1611.67
1993.971	1597
1998.14	1599.33
2002.306	1594
2006.469	1599.67
2010.627	1599.67
2014.781	1606
2018.932	1588.67
2023.078	1594.67
2027.221	1571.33
2031.36	1568
2035.495	1548
2039.627	1546
2043.754	1535
2047.878	1528.33
2051.998	1534.33
2056.114	1529
2060.226	1537.67
2064.334	1548
2068.439	1564.67
2072.54	1573.33
2076.637	1576.67
2080.73	1588.33
2084.82	1600.33
2088.906	1605.33
2092.988	1609.33
2097.066	1611
2101.14	1608
2105.211	1599
2109.278	1615
2113.342	1595.33
2117.401	1602.33
2121.457	1603
2125.509	1603.67
2129.558	1606
2133.602	1595.33
2137.643	1613
2141.681	1611.67
2145.714	1608
2149.744	1607
2153.77	1610
2157.793	1607.67
2161.812	1600.67
2165.827	1591
2169.838	1566
2173.846	1554
2177.851	1551
2181.851	1550.33
2185.848	1544.33
2189.841	1547.67
2193.831	1538
2197.817	1537
2201.799	1554.33
2205.778	1548.33
2209.753	1554.67
2213.725	1566.33
2217.693	1590.33
2221.657	1600.33
2225.618	1611.67
2229.575	1623.67
2233.529	1623.67
2237.479	1627.33
2241.425	1635.67
2245.368	1613.33
2249.307	1619.67
2253.243	1610.33
2257.175	1617.67
2261.104	1612.67
2265.029	1618.67
2268.95	1604.33
2272.868	1614
2276.783	1610.33
2280.694	1617.33
2284.601	1622
2288.505	1616.67
2292.405	1611.33
2296.302	1618.67
2300.195	1622
2304.085	1617.33
2307.971	1609
2311.854	1600
2315.734	1582.67
2319.609	1577.33
2323.482	1575
2327.351	1570.33
2331.216	1564
2335.078	1567.33
2338.937	1574
2342.792	1583
2346.643	1581.67
2350.492	1593.33
2354.336	1602.67
2358.178	1618.33
2362.015	1644.67
2365.85	1651.33
2369.681	1657.67
2373.508	1673.33
2377.333	1693.33
2381.153	1693
2384.971	1700.67
2388.785	1691
2392.595	1702.33
2396.402	1705.33
2400.206	1707.33
2404.007	1710
2407.804	1723.67
2411.597	1727.33
2415.388	1734.33
2419.174	1734.33
2422.958	1756
2426.738	1755.67
2430.515	1765.33
2434.289	1764.33
2438.059	1774.67
2441.825	1779.67
2445.589	1786.67
2449.349	1790.33
2453.106	1780.67
2456.859	1796
2460.61	1791.67
2464.356	1795.67
2468.1	1794
2471.84	1801
2475.577	1804.33
2479.311	1824.33
2483.041	1824
2486.768	1860
2490.492	1873.33
2494.213	1877
2497.93	1890
2501.644	1899.67
2505.355	1914.33
2509.062	1930.67
2512.766	1939
2516.467	1948.33
2520.165	1954
2523.859	1969.33
2527.551	1973.67
2531.239	1976.33
2534.923	1982.67
2538.605	1984.33
2542.283	1992.67
2545.958	1995.67
2549.63	2005.67
2553.299	2028
2556.964	2033.33
2560.626	2038
2564.285	2040
2567.941	2038
2571.594	2033.67
2575.243	2048
2578.89	2046
2582.533	2055.67
2586.173	2067.33
2589.809	2055.67
2593.443	2055.33
2597.073	2047
2600.701	2064.33
2604.325	2060.67
2607.946	2069.33
2611.564	2078.33
2615.178	2086.67
2618.79	2099.33
2622.398	2098.33
2626.004	2090.67
2629.606	2089.67
2633.205	2084.67
2636.801	2078.67
2640.394	2065.67
2643.983	2051.67
2647.57	2047.33
2651.153	2031
2654.734	2036.67
2658.311	2011.67
2661.885	2008.33
2665.456	2004
2669.025	1995.33
2672.589	1986.67
2676.151	1991
2679.71	1976.33
2683.266	1963
2686.819	1962.67
2690.368	1944.33
2693.915	1937.33
2697.458	1926
2700.999	1913.67
2704.536	1901.67
2708.071	1892
2711.602	1874
2715.13	1868.67
2718.656	1864.33
2722.178	1869.67
2725.697	1868
2729.214	1876.33
2732.727	1878.33
2736.237	1921
2739.744	1932
2743.249	1938.33
2746.75	1959.67
2750.248	1985.33
2753.743	1998.67
2757.236	2011
2760.725	2021.67
2764.211	2020.33
2767.695	2018.67
2771.175	2019
2774.652	2018.67
2778.127	2008.67
2781.598	1998
2785.067	1993
2788.532	1985
2791.995	1976.67
2795.455	1980.33
2798.911	1981.33
2802.365	1985.33
2805.816	1961
2809.264	1960
2812.709	1954
2816.151	1934.33
2819.59	1926
2823.026	1932.67
2826.46	1933
2829.89	1920.67
2833.318	1916.33
2836.742	1923.33
2840.164	1913.33
2843.583	1911.33
2846.999	1907.33
2850.412	1906
2853.822	1911.33
2857.229	1920
2860.634	1918.33
2864.035	1925.33
2867.434	1926
2870.83	1915
2874.223	1936
2877.613	1912.33
2881	1904.67
2884.385	1888.33
2887.766	1875.33
2891.145	1865
2894.521	1838.67
2897.894	1844.33
2901.264	1831.67
2904.631	1812
2907.996	1800.67
2911.358	1791.67
2914.717	1784.67
2918.073	1763.33
2921.426	1768.67
2924.777	1763.33
2928.124	1755.33
2931.469	1756
2934.811	1742
2938.15	1744
2941.487	1735
2944.821	1732
2948.152	1715
2951.48	1706.33
2954.805	1712
2958.128	1692
2961.447	1692.33
2964.765	1667
2968.079	1659
2971.39	1670
2974.699	1672
2978.005	1678.67
2981.308	1681.67
2984.609	1682
2987.907	1686.67
2991.202	1694
2994.494	1708
2997.784	1707.33
3001.07	1720.67
3004.355	1714.67
3007.636	1714.33
3010.915	1709.67
3014.191	1702.33
3017.464	1684.67
3020.734	1671.67
3024.002	1646.67
3027.267	1638.67
3030.53	1611.33
3033.789	1596
3037.046	1587.33
3040.301	1579
3043.552	1570.33
3046.801	1559
3050.048	1553.67
3053.291	1548.33
3056.532	1546.33
3059.771	1542.33
3063.006	1551.67
3066.239	1552.67
3069.469	1553
3072.697	1544.33
3075.922	1544
3079.144	1538
3082.364	1542.33
3085.581	1527.67
3088.795	1531.33
3092.007	1521.67
3095.216	1500.67
3098.423	1505
3101.627	1498.33
3104.828	1486.33
3108.026	1484
3111.222	1469
3114.416	1471.33
3117.607	1469.67
3120.795	1462.67
3123.98	1463
3127.163	1455
3130.344	1463
3133.521	1451.33
3136.696	1462.33
3139.869	1457.33
3143.039	1453.67
3146.206	1438
3149.371	1441
3152.533	1418
3155.693	1413
3158.85	1397
3162.005	1386.33
3165.157	1371.33
3168.306	1358
3171.453	1343.67
3174.597	1336.67
3177.739	1331
3180.878	1316
3184.014	1302.67
3187.149	1299.67
3190.28	1286
3193.409	1283
3196.536	1274
3199.659	1268.67
3202.781	1270
3205.9	1262.33
3209.016	1248
3212.13	1247
3215.241	1229.33
3218.35	1230.33
3221.456	1216
3224.56	1203.33
3227.661	1196.67
3230.76	1188.33
3233.856	1172.67
3236.95	1167.33
3240.041	1154.33
3243.13	1150.33
3246.216	1140.33
3249.3	1141.33
3252.382	1139
3255.46	1123.67
3258.537	1121
3261.611	1128
3264.682	1119.67
3267.751	1119.33
3270.818	1125.33
3273.882	1126.67
3276.943	1124.33
3280.002	1116.33
3283.059	1106
3286.113	1105
3289.165	1093.33
3292.214	1088.33
3295.261	1078.67
3298.306	1062.67
3301.348	1052.33
3304.387	1032.33
3307.425	1021
3310.459	1015.33
3313.492	995.33
3316.521	989.67
3319.549	980
3322.574	977.33
3325.597	969.33
3328.617	961.67
3331.635	953.33
3334.65	964.67
3337.663	951
3340.674	943.67
3343.682	943
3346.688	947.67
3349.691	944
3352.692	943.67
3355.691	927
3358.687	924
3361.681	917.33
3364.673	905.67
3367.662	897
3370.649	891.67
3373.633	875.33
3376.615	864.67
3379.595	859.33
3382.572	847.33
3385.547	837
3388.52	829.33
3391.49	827
3394.458	816.33
3397.424	800.67
3400.387	798
3403.348	799.33
3406.307	791
3409.263	781
3412.217	783
3415.168	771.33
3418.118	777
3421.065	767.67
3424.009	770
3426.951	756.67
3429.891	750.33
3432.829	745
3435.764	735
3438.697	727.67
3441.628	712.67
3444.557	712
3447.483	705
3450.407	683.67
3453.328	675.67
3456.247	673.67
3459.164	658.67
3462.079	654
3464.991	635.67
3467.902	628.33
3470.809	623
3473.715	617.33
3476.618	607
3479.519	601
3482.418	592.33
3485.315	593
3488.209	581
3491.101	583
3493.99	576.33
3496.878	566.33
3499.763	560.67
3502.646	558.33
3505.527	551.67
3508.405	548
3511.281	539
3514.155	522.33
3517.027	517.67
3519.897	511
3522.764	494.67
3525.629	487
3528.492	478.67
3531.352	460.33
3534.211	461
3537.067	446.67
3539.921	436.67
3542.773	425
3545.622	418
3548.469	410
3551.315	403.67
3554.157	400
3556.998	393.33
3559.837	388.33
3562.673	383
3565.507	372.33
3568.339	365
3571.169	361.67
3573.996	356.33
3576.822	350.33
3579.645	344.67
3582.466	336.33
3585.285	333.33
3588.101	324.33
3590.916	320.33
3593.728	311.33
3596.538	302
3599.346	298.67
3602.152	295.67
3604.956	291.33
3607.757	277.67
3610.556	278.67
3613.354	268.33
3616.149	264.33
3618.942	261.67
3621.732	257
3624.521	256.67
3627.307	253
3630.092	249
3632.874	246.33
3635.654	242.67
3638.432	243.67
3641.208	239.33
3643.982	239
3646.753	234.33
3649.523	233
3652.29	226
3655.055	223
3657.818	224
3660.579	212
3663.338	209.33
3666.095	205
3668.849	201
3671.602	197.33
3674.352	196.67
3677.101	191.33
3679.847	191.33
3682.591	187.67
3685.333	189
3688.073	182
3690.811	186.67
3693.547	187.33
3696.281	179.33
3699.013	185.33
3701.742	182.67
3704.47	183.33
3707.195	184.67
3709.919	181
3712.64	176.67
3715.359	179
3718.076	174.67
3720.792	171.33
3723.505	166
3726.216	166.67
3728.925	169
3731.632	162.67
3734.336	161.67
3737.039	160
3739.74	155
3742.439	155.67
3745.136	153.67
3747.83	153.33
3750.523	149.33
3753.213	150
3755.902	149.33
3758.589	147.33
3761.273	144.67
3763.956	143.33
3766.636	145
3769.315	141
3771.991	140
3774.665	135.33
3777.338	130.33
3780.008	134
3782.677	128.33
3785.343	125
3788.007	122.33
3790.67	117.33
3793.33	114.33
3795.989	110.67
3798.645	111.33
3801.299	111
3803.952	109
3806.602	106.33
3809.251	107
3811.897	101
3814.542	102
3817.184	99.67
3819.825	100
3822.463	97.33
3825.1	94.67
3827.735	94.67
3830.367	91.67
3832.998	85.33
3835.627	85.33
3838.253	81.33
3840.878	80.33
3843.501	77.33
3846.122	75
3848.741	73.67
3851.358	71.33
3853.973	70.33
3856.586	67
3859.197	67.33
3861.806	64
3864.414	61.33
3867.019	60.33
3869.622	58
3872.224	57.33
3874.823	54.33
3877.421	51.33
3880.016	52.33
3882.61	47.33
3885.202	47.33
3887.792	45
3890.38	40
3892.966	36.67
3895.55	34.67
3898.132	29.33
3900.713	30.33
3903.291	26.67
3905.868	23
3908.442	23.33
3911.015	20.33
3913.586	19
3916.155	17
3918.722	16.33
3921.287	12.33
3923.85	12.67
3926.411	11.67
3928.971	8.67
3931.528	9.67
3934.084	8
3936.638	6
3939.19	6
3941.74	6.67
3944.288	6
3946.834	2.67
3949.378	2
3951.921	-1
3954.462	0.67
3957	2.67
3959.537	1
3962.072	0.33
3964.606	-1.33
3967.137	-0.67
3969.667	-0.33
3972.194	-0.33
3974.72	1.33
3977.244	-2
3979.766	0.67
3982.286	-0.33
3984.805	-1
3987.321	-0.33
3989.836	-1
3992.349	-2.33
3994.86	-2.67
3997.369	-2.33
3999.877	-2
4002.382	-0.67
4004.886	-3.67
4007.388	-1.33
4009.888	-6
4012.386	-6
4014.883	-3.67
4017.377	-5.67
4019.87	-4.67
4022.361	-5
4024.85	-6
4027.338	-6.33
4029.823	-4.67
4032.307	-7.33
4034.789	-8
4037.269	-6.67
4039.747	-9.67
4042.224	-9
4044.699	-8.33
4047.172	-11
4049.643	-12.67
4052.112	-10.67
4054.58	-12.67
4057.046	-12.67
4059.51	-13
4061.972	-15.67
4064.432	-10.67
4066.891	-11.33
4069.348	-12
4071.803	-12.67
4074.256	-12
4076.708	-13.33
4079.158	-14
4081.606	-15
4084.052	-14.33
4086.497	-13.67
4088.939	-12.33
4091.38	-15
4093.819	-15.33
4096.257	-27.33
4098.693	-27
4101.127	-27.67
4103.559	-27.67
4105.989	-12.67
4108.418	-12.33
4110.845	-9.33
4113.27	-8
4115.694	-6.67
4118.115	-5.33
4120.535	-16.33
4122.954	-16
4125.37	-15.67
4127.785	-14.33
4130.198	-18.33
4132.609	-15.33
4135.019	-27.33
4137.427	-26.33
4139.833	-24.67
4142.237	-26.67
