Data from ec10_RamanShift_2.txt Node
Date: Tue Oct 17 17:21:09 IDT 2017
User: aro
Spectrometer: QEPB0276
Trigger mode: 0
Integration Time (sec): 5.000000E0
Scans to average: 3
Electric dark correction enabled: true
Nonlinearity correction enabled: false
Boxcar width: 0
XAxis mode: Raman Shifts
Number of Pixels in Spectrum: 1044
>>>>>Begin Spectral Data<<<<<
160.701	-3.12
166.742	5.88
172.777	21.54
178.805	74.88
184.826	213.88
190.841	460.88
196.849	770.54
202.85	993.54
208.845	1104.54
214.833	1127.21
220.815	1136.88
226.789	1165.21
232.758	1197.21
238.719	1224.21
244.674	1240.88
250.623	1246.54
256.565	1246.88
262.5	1236.54
268.429	1228.54
274.351	1241.54
280.267	1235.21
286.176	1243.54
292.079	1251.54
297.975	1262.21
303.865	1268.21
309.748	1285.88
315.625	1276.54
321.495	1250.54
327.359	1236.21
333.217	1233.88
339.068	1226.21
344.912	1224.54
350.751	1209.54
356.583	1210.21
362.408	1193.54
368.227	1188.54
374.04	1192.54
379.847	1193.54
385.647	1193.88
391.44	1188.21
397.228	1177.88
403.009	1178.54
408.784	1176.88
414.553	1197.54
420.315	1219.54
426.071	1215.88
431.821	1193.21
437.565	1177.54
443.302	1149.88
449.033	1141.54
454.758	1125.88
460.477	1117.21
466.189	1102.54
471.896	1090.21
477.596	1069.21
483.29	1056.21
488.978	1043.88
494.66	1011.88
500.335	977.88
506.005	952.88
511.668	972.21
517.325	1056.88
522.977	1207.88
528.622	1319.88
534.261	1373.21
539.894	1369.54
545.521	1344.54
551.141	1321.21
556.756	1314.88
562.365	1304.21
567.968	1288.88
573.565	1287.88
579.155	1272.54
584.74	1274.88
590.319	1261.54
595.892	1252.54
601.459	1248.21
607.02	1226.21
612.575	1215.21
618.124	1209.21
623.667	1217.88
629.204	1249.88
634.735	1261.54
640.261	1261.21
645.781	1275.21
651.294	1294.54
656.802	1294.54
662.304	1291.21
667.8	1277.88
673.29	1288.54
678.775	1290.88
684.254	1283.54
689.726	1298.21
695.193	1285.88
700.655	1277.54
706.11	1277.88
711.56	1274.21
717.004	1270.88
722.442	1273.88
727.874	1273.88
733.301	1275.21
738.722	1280.54
744.137	1285.88
749.547	1286.21
754.951	1283.88
760.349	1293.21
765.741	1294.21
771.128	1307.88
776.509	1300.21
781.885	1309.54
787.254	1312.21
792.618	1318.21
797.977	1312.21
803.33	1304.54
808.677	1303.88
814.019	1298.21
819.355	1302.54
824.686	1294.88
830.011	1298.54
835.33	1300.54
840.644	1311.88
845.952	1314.54
851.255	1327.54
856.552	1320.54
861.844	1320.54
867.13	1328.88
872.41	1326.88
877.686	1328.54
882.955	1319.54
888.219	1315.21
893.478	1313.54
898.731	1297.21
903.979	1295.88
909.221	1292.21
914.458	1293.88
919.69	1303.88
924.916	1314.54
930.136	1333.21
935.351	1360.21
940.561	1375.88
945.766	1387.21
950.965	1391.54
956.158	1376.21
961.347	1373.21
966.529	1346.88
971.707	1326.88
976.879	1313.88
982.046	1306.54
987.208	1299.54
992.364	1292.88
997.515	1290.54
1002.66	1283.54
1007.801	1298.54
1012.936	1304.54
1018.066	1312.88
1023.19	1319.54
1028.309	1322.54
1033.423	1323.21
1038.532	1308.54
1043.636	1304.54
1048.734	1281.88
1053.827	1277.88
1058.915	1267.88
1063.998	1264.21
1069.075	1269.88
1074.147	1270.21
1079.214	1272.88
1084.276	1282.21
1089.333	1289.21
1094.385	1307.21
1099.431	1312.21
1104.472	1318.88
1109.509	1312.54
1114.54	1309.21
1119.565	1298.88
1124.586	1283.21
1129.602	1272.88
1134.613	1265.21
1139.618	1272.54
1144.619	1278.88
1149.614	1284.54
1154.604	1293.88
1159.589	1297.88
1164.57	1296.54
1169.545	1312.88
1174.515	1315.21
1179.48	1307.88
1184.44	1313.88
1189.395	1306.88
1194.345	1310.21
1199.29	1304.21
1204.23	1310.21
1209.165	1314.88
1214.095	1328.88
1219.021	1338.21
1223.941	1348.21
1228.856	1372.54
1233.766	1374.54
1238.672	1386.54
1243.572	1385.54
1248.467	1391.54
1253.358	1375.88
1258.244	1377.54
1263.124	1354.88
1268	1343.21
1272.871	1333.54
1277.737	1328.88
1282.599	1328.54
1287.455	1342.21
1292.306	1360.54
1297.153	1373.88
1301.995	1393.88
1306.832	1406.54
1311.664	1407.21
1316.491	1424.88
1321.314	1415.54
1326.132	1414.88
1330.945	1391.21
1335.753	1378.54
1340.556	1351.54
1345.354	1337.54
1350.148	1324.54
1354.937	1334.21
1359.722	1350.54
1364.501	1383.88
1369.276	1416.54
1374.046	1456.88
1378.811	1492.21
1383.572	1496.21
1388.327	1479.54
1393.079	1474.54
1397.825	1439.21
1402.567	1428.88
1407.304	1404.54
1412.036	1396.88
1416.764	1390.21
1421.487	1393.88
1426.205	1399.21
1430.919	1410.54
1435.628	1432.88
1440.333	1434.88
1445.032	1452.21
1449.727	1468.88
1454.418	1472.54
1459.104	1474.21
1463.785	1461.88
1468.462	1463.88
1473.134	1448.54
1477.802	1441.88
1482.465	1442.54
1487.123	1445.88
1491.777	1467.88
1496.426	1477.54
1501.071	1507.54
1505.711	1525.88
1510.347	1556.88
1514.978	1569.88
1519.604	1586.21
1524.226	1598.88
1528.844	1594.88
1533.457	1592.88
1538.065	1592.54
1542.669	1582.88
1547.269	1576.54
1551.864	1556.21
1556.454	1569.54
1561.041	1544.54
1565.622	1541.21
1570.199	1534.54
1574.772	1538.54
1579.34	1545.88
1583.904	1552.88
1588.464	1541.88
1593.019	1538.54
1597.569	1525.88
1602.115	1518.54
1606.657	1496.21
1611.195	1481.54
1615.728	1470.88
1620.256	1453.88
1624.78	1443.88
1629.3	1459.88
1633.816	1454.54
1638.327	1455.21
1642.834	1474.54
1647.336	1495.88
1651.834	1505.21
1656.328	1518.88
1660.817	1520.88
1665.302	1539.54
1669.783	1530.21
1674.259	1520.21
1678.732	1500.54
1683.199	1485.21
1687.663	1467.54
1692.122	1440.21
1696.577	1449.88
1701.028	1486.21
1705.474	1514.54
1709.917	1543.21
1714.355	1541.54
1718.788	1522.54
1723.218	1513.88
1727.643	1502.54
1732.064	1500.54
1736.481	1474.54
1740.893	1468.54
1745.301	1446.54
1749.705	1435.88
1754.105	1416.88
1758.501	1391.21
1762.893	1375.54
1767.28	1374.88
1771.663	1365.88
1776.042	1369.54
1780.417	1382.88
1784.787	1414.21
1789.154	1452.21
1793.516	1479.21
1797.874	1501.54
1802.228	1518.21
1806.578	1523.21
1810.924	1530.21
1815.266	1505.88
1819.603	1503.54
1823.937	1468.88
1828.266	1458.88
1832.591	1446.88
1836.913	1433.54
1841.23	1433.54
1845.543	1427.54
1849.852	1426.54
1854.156	1431.88
1858.457	1425.21
1862.754	1436.88
1867.047	1449.21
1871.335	1464.54
1875.62	1477.88
1879.9	1476.88
1884.177	1479.21
1888.449	1482.21
1892.718	1467.21
1896.982	1475.54
1901.243	1472.54
1905.499	1478.54
1909.752	1486.21
1914	1506.21
1918.245	1502.88
1922.485	1527.21
1926.722	1536.21
1930.954	1557.21
1935.183	1568.54
1939.408	1590.88
1943.628	1593.54
1947.845	1605.88
1952.058	1612.88
1956.267	1612.21
1960.472	1602.88
1964.673	1580.88
1968.87	1588.21
1973.063	1564.21
1977.252	1561.54
1981.438	1559.21
1985.619	1555.21
1989.797	1554.54
1993.971	1555.88
1998.14	1559.54
2002.306	1562.21
2006.469	1562.88
2010.627	1579.21
2014.781	1572.21
2018.932	1573.21
2023.078	1581.54
2027.221	1570.54
2031.36	1563.54
2035.495	1542.21
2039.627	1541.88
2043.754	1539.88
2047.878	1541.21
2051.998	1549.21
2056.114	1555.54
2060.226	1562.21
2064.334	1583.88
2068.439	1596.54
2072.54	1606.88
2076.637	1619.88
2080.73	1650.88
2084.82	1657.88
2088.906	1672.54
2092.988	1663.88
2097.066	1675.54
2101.14	1670.54
2105.211	1671.21
2109.278	1679.54
2113.342	1687.54
2117.401	1688.88
2121.457	1689.88
2125.509	1710.54
2129.558	1702.21
2133.602	1701.88
2137.643	1717.54
2141.681	1723.88
2145.714	1737.54
2149.744	1734.54
2153.77	1738.21
2157.793	1740.54
2161.812	1729.54
2165.827	1725.88
2169.838	1711.88
2173.846	1708.88
2177.851	1698.88
2181.851	1687.21
2185.848	1689.21
2189.841	1686.54
2193.831	1691.54
2197.817	1705.21
2201.799	1702.54
2205.778	1705.54
2209.753	1719.88
2213.725	1739.88
2217.693	1752.54
2221.657	1756.21
2225.618	1782.54
2229.575	1784.21
2233.529	1791.54
2237.479	1807.54
2241.425	1797.88
2245.368	1796.88
2249.307	1785.88
2253.243	1777.21
2257.175	1783.88
2261.104	1787.21
2265.029	1772.88
2268.95	1780.88
2272.868	1781.21
2276.783	1779.54
2280.694	1781.88
2284.601	1784.88
2288.505	1781.21
2292.405	1779.88
2296.302	1775.54
2300.195	1777.54
2304.085	1763.21
2307.971	1752.88
2311.854	1744.54
2315.734	1734.54
2319.609	1717.54
2323.482	1704.88
2327.351	1705.21
2331.216	1705.21
2335.078	1705.21
2338.937	1695.21
2342.792	1699.54
2346.643	1704.54
2350.492	1714.21
2354.336	1725.21
2358.178	1729.54
2362.015	1753.54
2365.85	1753.21
2369.681	1763.54
2373.508	1780.54
2377.333	1771.21
2381.153	1782.88
2384.971	1787.21
2388.785	1789.21
2392.595	1786.54
2396.402	1774.21
2400.206	1767.88
2404.007	1776.88
2407.804	1786.54
2411.597	1776.21
2415.388	1791.21
2419.174	1793.54
2422.958	1799.54
2426.738	1799.21
2430.515	1796.54
2434.289	1801.54
2438.059	1799.54
2441.825	1789.88
2445.589	1802.21
2449.349	1784.54
2453.106	1801.88
2456.859	1788.54
2460.61	1784.21
2464.356	1783.54
2468.1	1781.88
2471.84	1790.21
2475.577	1787.88
2479.311	1795.21
2483.041	1815.54
2486.768	1800.88
2490.492	1819.54
2494.213	1821.21
2497.93	1837.88
2501.644	1850.21
2505.355	1849.88
2509.062	1858.54
2512.766	1862.54
2516.467	1868.54
2520.165	1873.21
2523.859	1881.88
2527.551	1881.21
2531.239	1881.88
2534.923	1885.88
2538.605	1874.88
2542.283	1882.54
2545.958	1881.88
2549.63	1889.54
2553.299	1902.88
2556.964	1903.21
2560.626	1891.54
2564.285	1903.88
2567.941	1910.88
2571.594	1908.54
2575.243	1902.21
2578.89	1905.21
2582.533	1897.21
2586.173	1905.21
2589.809	1907.54
2593.443	1889.54
2597.073	1902.88
2600.701	1896.88
2604.325	1893.21
2607.946	1897.21
2611.564	1901.54
2615.178	1903.88
2618.79	1903.88
2622.398	1906.88
2626.004	1905.21
2629.606	1895.54
2633.205	1891.54
2636.801	1885.21
2640.394	1871.88
2643.983	1871.88
2647.57	1862.21
2651.153	1841.54
2654.734	1834.54
2658.311	1820.21
2661.885	1806.88
2665.456	1811.88
2669.025	1805.88
2672.589	1810.54
2676.151	1792.88
2679.71	1796.88
2683.266	1787.21
2686.819	1779.88
2690.368	1761.54
2693.915	1751.21
2697.458	1746.88
2700.999	1738.54
2704.536	1726.88
2708.071	1715.54
2711.602	1700.54
2715.13	1706.54
2718.656	1707.21
2722.178	1702.88
2725.697	1700.88
2729.214	1722.54
2732.727	1709.54
2736.237	1734.88
2739.744	1756.21
2743.249	1786.54
2746.75	1790.21
2750.248	1820.88
2753.743	1826.21
2757.236	1840.88
2760.725	1858.54
2764.211	1856.88
2767.695	1857.21
2771.175	1854.21
2774.652	1858.54
2778.127	1863.21
2781.598	1840.54
2785.067	1854.54
2788.532	1839.54
2791.995	1843.54
2795.455	1840.21
2798.911	1833.54
2802.365	1840.21
2805.816	1842.21
2809.264	1833.54
2812.709	1823.88
2816.151	1830.88
2819.59	1833.88
2823.026	1829.54
2826.46	1821.88
2829.89	1817.88
2833.318	1809.88
2836.742	1819.54
2840.164	1816.21
2843.583	1814.88
2846.999	1815.88
2850.412	1822.21
2853.822	1827.54
2857.229	1830.54
2860.634	1842.88
2864.035	1838.88
2867.434	1852.54
2870.83	1854.88
2874.223	1850.21
2877.613	1854.54
2881	1851.21
2884.385	1834.54
2887.766	1824.54
2891.145	1823.54
2894.521	1807.21
2897.894	1808.54
2901.264	1786.54
2904.631	1789.88
2907.996	1776.88
2911.358	1771.21
2914.717	1755.88
2918.073	1750.21
2921.426	1754.88
2924.777	1743.88
2928.124	1741.54
2931.469	1743.88
2934.811	1749.21
2938.15	1749.54
2941.487	1742.54
2944.821	1736.21
2948.152	1728.88
2951.48	1726.21
2954.805	1712.88
2958.128	1706.88
2961.447	1692.21
2964.765	1695.88
2968.079	1689.54
2971.39	1699.21
2974.699	1701.54
2978.005	1697.21
2981.308	1706.88
2984.609	1715.88
2987.907	1714.54
2991.202	1735.88
2994.494	1735.21
2997.784	1739.88
3001.07	1747.88
3004.355	1752.88
3007.636	1763.54
3010.915	1750.21
3014.191	1745.54
3017.464	1735.21
3020.734	1713.54
3024.002	1702.54
3027.267	1670.88
3030.53	1669.21
3033.789	1640.88
3037.046	1634.21
3040.301	1624.54
3043.552	1607.54
3046.801	1607.54
3050.048	1594.54
3053.291	1593.54
3056.532	1589.21
3059.771	1602.21
3063.006	1597.21
3066.239	1602.54
3069.469	1588.54
3072.697	1597.54
3075.922	1595.54
3079.144	1593.54
3082.364	1579.88
3085.581	1576.54
3088.795	1566.88
3092.007	1572.54
3095.216	1553.21
3098.423	1547.21
3101.627	1542.88
3104.828	1523.54
3108.026	1523.88
3111.222	1514.21
3114.416	1510.88
3117.607	1516.54
3120.795	1509.21
3123.98	1497.54
3127.163	1501.54
3130.344	1495.54
3133.521	1491.21
3136.696	1493.54
3139.869	1487.21
3143.039	1486.88
3146.206	1475.21
3149.371	1468.21
3152.533	1447.88
3155.693	1435.88
3158.85	1408.21
3162.005	1402.21
3165.157	1391.88
3168.306	1366.21
3171.453	1354.54
3174.597	1344.21
3177.739	1328.21
3180.878	1326.88
3184.014	1305.21
3187.149	1295.88
3190.28	1289.21
3193.409	1275.88
3196.536	1270.54
3199.659	1267.54
3202.781	1255.54
3205.9	1252.88
3209.016	1241.88
3212.13	1234.88
3215.241	1224.88
3218.35	1206.88
3221.456	1197.88
3224.56	1193.54
3227.661	1165.88
3230.76	1162.88
3233.856	1147.21
3236.95	1132.88
3240.041	1130.88
3243.13	1124.21
3246.216	1107.54
3249.3	1109.88
3252.382	1103.54
3255.46	1093.88
3258.537	1095.21
3261.611	1094.88
3264.682	1087.88
3267.751	1086.21
3270.818	1085.54
3273.882	1067.54
3276.943	1072.88
3280.002	1064.54
3283.059	1062.21
3286.113	1045.88
3289.165	1035.21
3292.214	1019.54
3295.261	1013.54
3298.306	1000.54
3301.348	984.88
3304.387	981.21
3307.425	964.88
3310.459	941.88
3313.492	934.88
3316.521	926.21
3319.549	919.54
3322.574	901.21
3325.597	904.88
3328.617	885.54
3331.635	884.21
3334.65	882.21
3337.663	875.54
3340.674	871.88
3343.682	865.54
3346.688	863.54
3349.691	862.88
3352.692	857.21
3355.691	857.21
3358.687	839.88
3361.681	836.54
3364.673	826.88
3367.662	812.88
3370.649	801.88
3373.633	796.21
3376.615	782.21
3379.595	772.21
3382.572	772.54
3385.547	754.54
3388.52	743.54
3391.49	743.21
3394.458	733.54
3397.424	722.54
3400.387	720.21
3403.348	711.21
3406.307	708.54
3409.263	700.21
3412.217	701.88
3415.168	688.88
3418.118	689.21
3421.065	683.54
3424.009	681.88
3426.951	676.54
3429.891	674.21
3432.829	659.88
3435.764	656.54
3438.697	646.88
3441.628	636.88
3444.557	630.54
3447.483	614.88
3450.407	611.88
3453.328	602.88
3456.247	588.88
3459.164	586.88
3462.079	578.88
3464.991	565.21
3467.902	556.21
3470.809	548.54
3473.715	544.88
3476.618	537.54
3479.519	533.88
3482.418	521.54
3485.315	519.88
3488.209	511.54
3491.101	512.54
3493.99	504.21
3496.878	499.21
3499.763	496.21
3502.646	495.88
3505.527	490.54
3508.405	478.54
3511.281	474.88
3514.155	461.54
3517.027	459.21
3519.897	448.54
3522.764	441.21
3525.629	428.88
3528.492	421.54
3531.352	413.21
3534.211	405.88
3537.067	399.21
3539.921	392.21
3542.773	380.88
3545.622	370.54
3548.469	360.21
3551.315	361.88
3554.157	356.21
3556.998	348.88
3559.837	341.88
3562.673	337.88
3565.507	332.54
3568.339	329.54
3571.169	329.21
3573.996	321.54
3576.822	317.88
3579.645	312.21
3582.466	302.88
3585.285	295.88
3588.101	292.21
3590.916	286.88
3593.728	280.21
3596.538	273.54
3599.346	272.21
3602.152	265.21
3604.956	262.88
3607.757	253.88
3610.556	249.54
3613.354	245.88
3616.149	244.21
3618.942	239.54
3621.732	238.21
3624.521	233.88
3627.307	228.88
3630.092	229.54
3632.874	226.88
3635.654	230.21
3638.432	226.21
3641.208	220.88
3643.982	219.88
3646.753	215.88
3649.523	214.21
3652.29	213.88
3655.055	209.54
3657.818	200.88
3660.579	200.54
3663.338	195.54
3666.095	193.88
3668.849	194.21
3671.602	190.21
3674.352	187.88
3677.101	184.88
3679.847	178.54
3682.591	180.21
3685.333	177.88
3688.073	176.88
3690.811	175.88
3693.547	179.21
3696.281	175.21
3699.013	178.21
3701.742	175.21
3704.47	178.54
3707.195	174.54
3709.919	173.54
3712.64	170.21
3715.359	170.88
3718.076	168.88
3720.792	167.88
3723.505	169.54
3726.216	168.54
3728.925	163.88
3731.632	159.88
3734.336	160.54
3737.039	156.54
3739.74	154.88
3742.439	153.54
3745.136	150.88
3747.83	148.21
3750.523	148.21
3753.213	147.21
3755.902	147.21
3758.589	147.21
3761.273	146.54
3763.956	143.21
3766.636	143.54
3769.315	142.21
3771.991	137.21
3774.665	138.21
3777.338	134.21
3780.008	132.88
3782.677	127.21
3785.343	125.54
3788.007	125.88
3790.67	119.88
3793.33	117.54
3795.989	116.21
3798.645	117.21
3801.299	113.88
3803.952	109.88
3806.602	114.21
3809.251	108.88
3811.897	109.54
3814.542	108.88
3817.184	103.21
3819.825	102.88
3822.463	100.54
3825.1	99.88
3827.735	98.21
3830.367	96.21
3832.998	92.54
3835.627	91.54
3838.253	88.54
3840.878	86.88
3843.501	81.54
3846.122	79.88
3848.741	76.88
3851.358	77.21
3853.973	69.21
3856.586	73.21
3859.197	70.54
3861.806	68.54
3864.414	65.54
3867.019	64.88
3869.622	63.21
3872.224	59.21
3874.823	59.54
3877.421	59.88
3880.016	55.88
3882.61	51.54
3885.202	49.21
3887.792	49.21
3890.38	43.21
3892.966	40.88
3895.55	37.54
3898.132	33.54
3900.713	33.54
3903.291	28.88
3905.868	26.54
3908.442	24.54
3911.015	23.21
3913.586	21.88
3916.155	20.54
3918.722	18.54
3921.287	14.88
3923.85	13.54
3926.411	14.21
3928.971	12.54
3931.528	14.54
3934.084	9.88
3936.638	9.21
3939.19	8.88
3941.74	8.88
3944.288	7.54
3946.834	5.88
3949.378	5.88
3951.921	1.21
3954.462	4.21
3957	3.54
3959.537	2.88
3962.072	3.88
3964.606	1.54
3967.137	2.21
3969.667	1.21
3972.194	0.54
3974.72	0.54
3977.244	0.21
3979.766	1.21
3982.286	4.21
3984.805	0.88
3987.321	1.88
3989.836	2.21
3992.349	1.88
3994.86	1.21
3997.369	0.21
3999.877	-0.79
4002.382	0.54
4004.886	-3.79
4007.388	0.54
4009.888	-2.79
4012.386	-1.46
4014.883	-2.12
4017.377	-4.12
4019.87	-2.46
4022.361	-3.46
4024.85	-3.12
4027.338	-4.12
4029.823	-3.79
4032.307	-3.79
4034.789	-4.12
4037.269	-6.79
4039.747	-7.12
4042.224	-5.46
4044.699	-6.12
4047.172	-9.12
4049.643	-9.46
4052.112	-8.12
4054.58	-6.46
4057.046	-11.79
4059.51	-10.12
4061.972	-12.12
4064.432	-7.79
4066.891	-11.46
4069.348	-10.79
4071.803	-10.79
4074.256	-11.46
4076.708	-13.46
4079.158	-11.46
4081.606	-14.79
4084.052	-13.46
4086.497	-14.46
4088.939	-12.46
4091.38	-15.12
4093.819	-15.12
4096.257	-25.12
4098.693	-23.46
4101.127	-24.79
4103.559	-25.79
4105.989	-12.12
4108.418	-9.79
4110.845	-11.12
4113.27	-5.46
4115.694	-7.46
4118.115	-5.12
4120.535	-15.12
4122.954	-15.12
4125.37	-12.46
4127.785	-12.79
4130.198	-18.12
4132.609	-15.46
4135.019	-25.79
4137.427	-25.46
4139.833	-23.12
4142.237	-24.79
