Data from ec10_RamanShift_0.txt Node
Date: Tue Oct 17 17:20:09 IDT 2017
User: aro
Spectrometer: QEPB0276
Trigger mode: 0
Integration Time (sec): 5.000000E0
Scans to average: 3
Electric dark correction enabled: true
Nonlinearity correction enabled: false
Boxcar width: 0
XAxis mode: Raman Shifts
Number of Pixels in Spectrum: 1044
>>>>>Begin Spectral Data<<<<<
160.701	-3.92
166.742	7.08
172.777	21.42
178.805	87.42
184.826	249.42
190.841	541.42
196.849	910.08
202.85	1191.08
208.845	1326.42
214.833	1371.08
220.815	1407.75
226.789	1457.08
232.758	1519.08
238.719	1557.42
244.674	1575.42
250.623	1571.75
256.565	1540.75
262.5	1510.08
268.429	1483.42
274.351	1449.75
280.267	1413.75
286.176	1404.42
292.079	1385.08
297.975	1371.42
303.865	1375.75
309.748	1358.75
315.625	1338.42
321.495	1319.08
327.359	1290.42
333.217	1279.42
339.068	1261.42
344.912	1237.42
350.751	1230.42
356.583	1215.75
362.408	1202.42
368.227	1192.08
374.04	1179.42
379.847	1173.75
385.647	1173.08
391.44	1153.08
397.228	1138.08
403.009	1135.42
408.784	1135.75
414.553	1151.08
420.315	1157.42
426.071	1150.75
431.821	1113.08
437.565	1091.08
443.302	1057.75
449.033	1042.75
454.758	1031.08
460.477	1006.08
466.189	991.42
471.896	971.08
477.596	946.42
483.29	923.75
488.978	901.75
494.66	873.08
500.335	840.08
506.005	810.42
511.668	817.75
517.325	896.08
522.977	1025.08
528.622	1133.42
534.261	1169.08
539.894	1154.42
545.521	1135.75
551.141	1132.42
556.756	1110.08
562.365	1087.75
567.968	1077.08
573.565	1068.42
579.155	1060.08
584.74	1049.42
590.319	1041.75
595.892	1028.08
601.459	1022.08
607.02	1012.08
612.575	1012.08
618.124	1002.08
623.667	1017.75
629.204	1028.75
634.735	1044.75
640.261	1052.08
645.781	1066.08
651.294	1091.42
656.802	1088.08
662.304	1085.42
667.8	1081.08
673.29	1090.08
678.775	1098.42
684.254	1094.08
689.726	1102.08
695.193	1104.42
700.655	1109.08
706.11	1103.75
711.56	1116.42
717.004	1115.08
722.442	1122.08
727.874	1128.08
733.301	1134.08
738.722	1146.75
744.137	1153.08
749.547	1161.75
754.951	1190.08
760.349	1190.75
765.741	1198.42
771.128	1211.75
776.509	1221.42
781.885	1233.08
787.254	1238.75
792.618	1257.08
797.977	1258.08
803.33	1272.42
808.677	1271.75
814.019	1284.42
819.355	1286.42
824.686	1283.08
830.011	1300.75
835.33	1311.08
840.644	1327.42
845.952	1334.42
851.255	1348.42
856.552	1373.42
861.844	1383.42
867.13	1390.75
872.41	1403.42
877.686	1410.42
882.955	1412.75
888.219	1425.08
893.478	1412.42
898.731	1408.42
903.979	1416.08
909.221	1429.42
914.458	1434.42
919.69	1444.42
924.916	1461.42
930.136	1481.75
935.351	1511.42
940.561	1538.42
945.766	1567.42
950.965	1573.08
956.158	1569.42
961.347	1547.75
966.529	1530.75
971.707	1520.08
976.879	1503.75
982.046	1497.75
987.208	1482.08
992.364	1492.08
997.515	1485.42
1002.66	1483.42
1007.801	1503.42
1012.936	1508.75
1018.066	1524.08
1023.19	1523.75
1028.309	1526.08
1033.423	1526.75
1038.532	1515.08
1043.636	1494.08
1048.734	1493.42
1053.827	1468.75
1058.915	1452.75
1063.998	1450.42
1069.075	1435.42
1074.147	1450.42
1079.214	1446.08
1084.276	1466.08
1089.333	1463.75
1094.385	1469.42
1099.431	1480.75
1104.472	1481.42
1109.509	1465.08
1114.54	1455.08
1119.565	1429.75
1124.586	1418.08
1129.602	1404.42
1134.613	1367.08
1139.618	1373.42
1144.619	1374.42
1149.614	1371.08
1154.604	1375.42
1159.589	1373.75
1164.57	1372.75
1169.545	1374.08
1174.515	1371.75
1179.48	1358.42
1184.44	1351.42
1189.395	1342.08
1194.345	1333.42
1199.29	1313.08
1204.23	1322.42
1209.165	1327.08
1214.095	1323.75
1219.021	1332.75
1223.941	1334.08
1228.856	1344.08
1233.766	1341.75
1238.672	1333.08
1243.572	1343.08
1248.467	1327.42
1253.358	1321.42
1258.244	1294.42
1263.124	1275.42
1268	1263.08
1272.871	1242.75
1277.737	1235.08
1282.599	1232.08
1287.455	1237.75
1292.306	1240.42
1297.153	1249.75
1301.995	1258.42
1306.832	1264.42
1311.664	1272.42
1316.491	1270.42
1321.314	1281.08
1326.132	1259.08
1330.945	1237.75
1335.753	1219.08
1340.556	1195.42
1345.354	1174.75
1350.148	1156.08
1354.937	1162.08
1359.722	1184.42
1364.501	1200.42
1369.276	1240.08
1374.046	1274.08
1378.811	1299.42
1383.572	1310.08
1388.327	1293.75
1393.079	1274.42
1397.825	1260.42
1402.567	1247.42
1407.304	1234.08
1412.036	1219.75
1416.764	1205.75
1421.487	1209.42
1426.205	1222.75
1430.919	1233.08
1435.628	1254.75
1440.333	1268.08
1445.032	1276.75
1449.727	1287.75
1454.418	1292.42
1459.104	1309.75
1463.785	1298.08
1468.462	1303.42
1473.134	1288.08
1477.802	1288.08
1482.465	1295.08
1487.123	1305.42
1491.777	1321.42
1496.426	1342.75
1501.071	1368.75
1505.711	1397.42
1510.347	1416.42
1514.978	1443.08
1519.604	1463.42
1524.226	1484.75
1528.844	1485.08
1533.457	1491.08
1538.065	1497.42
1542.669	1509.42
1547.269	1493.08
1551.864	1488.75
1556.454	1496.42
1561.041	1499.42
1565.622	1501.08
1570.199	1509.08
1574.772	1516.08
1579.34	1537.42
1583.904	1537.75
1588.464	1547.42
1593.019	1536.75
1597.569	1534.08
1602.115	1529.75
1606.657	1524.75
1611.195	1518.42
1615.728	1511.42
1620.256	1513.75
1624.78	1506.42
1629.3	1510.08
1633.816	1532.08
1638.327	1538.42
1642.834	1565.75
1647.336	1580.08
1651.834	1608.75
1656.328	1629.75
1660.817	1636.08
1665.302	1659.42
1669.783	1667.42
1674.259	1662.75
1678.732	1660.42
1683.199	1652.42
1687.663	1622.42
1692.122	1605.08
1696.577	1613.08
1701.028	1648.08
1705.474	1684.08
1709.917	1741.42
1714.355	1748.75
1718.788	1731.08
1723.218	1734.08
1727.643	1715.42
1732.064	1716.75
1736.481	1703.42
1740.893	1679.08
1745.301	1678.08
1749.705	1659.75
1754.105	1644.08
1758.501	1618.08
1762.893	1619.08
1767.28	1602.75
1771.663	1599.42
1776.042	1611.75
1780.417	1624.42
1784.787	1648.08
1789.154	1687.08
1793.516	1739.75
1797.874	1766.42
1802.228	1790.42
1806.578	1814.42
1810.924	1807.75
1815.266	1791.08
1819.603	1782.08
1823.937	1742.08
1828.266	1719.08
1832.591	1715.08
1836.913	1689.75
1841.23	1688.08
1845.543	1675.42
1849.852	1674.42
1854.156	1678.75
1858.457	1695.08
1862.754	1692.08
1867.047	1697.42
1871.335	1706.08
1875.62	1710.75
1879.9	1714.75
1884.177	1720.08
1888.449	1712.75
1892.718	1703.42
1896.982	1700.08
1901.243	1702.08
1905.499	1704.08
1909.752	1716.42
1914	1723.42
1918.245	1737.42
1922.485	1744.08
1926.722	1752.08
1930.954	1768.08
1935.183	1788.42
1939.408	1792.42
1943.628	1802.75
1947.845	1798.42
1952.058	1795.08
1956.267	1784.08
1960.472	1767.42
1964.673	1748.42
1968.87	1730.75
1973.063	1708.08
1977.252	1685.75
1981.438	1681.42
1985.619	1668.08
1989.797	1646.42
1993.971	1654.75
1998.14	1636.42
2002.306	1648.42
2006.469	1649.08
2010.627	1641.75
2014.781	1632.08
2018.932	1637.42
2023.078	1625.08
2027.221	1611.42
2031.36	1587.75
2035.495	1582.75
2039.627	1565.08
2043.754	1574.08
2047.878	1551.42
2051.998	1563.08
2056.114	1558.08
2060.226	1566.08
2064.334	1575.42
2068.439	1583.75
2072.54	1597.42
2076.637	1599.75
2080.73	1611.75
2084.82	1619.75
2088.906	1637.08
2092.988	1628.42
2097.066	1634.42
2101.14	1620.75
2105.211	1625.08
2109.278	1616.08
2113.342	1615.08
2117.401	1614.75
2121.457	1618.08
2125.509	1606.75
2129.558	1613.08
2133.602	1614.75
2137.643	1618.08
2141.681	1624.75
2145.714	1623.75
2149.744	1627.75
2153.77	1620.08
2157.793	1609.42
2161.812	1606.08
2165.827	1601.75
2169.838	1592.08
2173.846	1579.42
2177.851	1573.75
2181.851	1557.42
2185.848	1554.42
2189.841	1563.08
2193.831	1551.75
2197.817	1546.08
2201.799	1562.42
2205.778	1573.75
2209.753	1585.75
2213.725	1587.08
2217.693	1602.42
2221.657	1610.42
2225.618	1633.42
2229.575	1632.42
2233.529	1635.75
2237.479	1650.42
2241.425	1643.75
2245.368	1647.08
2249.307	1643.08
2253.243	1640.75
2257.175	1639.75
2261.104	1639.08
2265.029	1644.08
2268.95	1638.08
2272.868	1637.75
2276.783	1651.75
2280.694	1641.42
2284.601	1645.08
2288.505	1646.42
2292.405	1654.75
2296.302	1648.42
2300.195	1654.42
2304.085	1640.08
2307.971	1650.08
2311.854	1636.42
2315.734	1619.75
2319.609	1625.75
2323.482	1596.75
2327.351	1609.75
2331.216	1605.75
2335.078	1611.42
2338.937	1618.08
2342.792	1617.08
2346.643	1616.42
2350.492	1640.08
2354.336	1647.42
2358.178	1659.08
2362.015	1682.42
2365.85	1695.08
2369.681	1707.75
2373.508	1718.08
2377.333	1719.75
2381.153	1740.08
2384.971	1740.75
2388.785	1754.75
2392.595	1744.42
2396.402	1751.08
2400.206	1753.75
2404.007	1756.75
2407.804	1772.42
2411.597	1769.42
2415.388	1772.08
2419.174	1793.42
2422.958	1793.08
2426.738	1807.08
2430.515	1817.08
2434.289	1818.08
2438.059	1833.42
2441.825	1823.42
2445.589	1833.42
2449.349	1844.75
2453.106	1832.75
2456.859	1840.08
2460.61	1830.42
2464.356	1836.42
2468.1	1854.75
2471.84	1844.08
2475.577	1846.08
2479.311	1868.75
2483.041	1885.75
2486.768	1896.08
2490.492	1905.08
2494.213	1922.75
2497.93	1937.08
2501.644	1948.08
2505.355	1963.08
2509.062	1977.42
2512.766	1979.42
2516.467	1991.08
2520.165	2006.08
2523.859	2013.75
2527.551	2017.75
2531.239	2015.42
2534.923	2012.08
2538.605	2019.42
2542.283	2028.08
2545.958	2040.42
2549.63	2059.75
2553.299	2056.75
2556.964	2065.42
2560.626	2073.08
2564.285	2075.08
2567.941	2082.08
2571.594	2086.42
2575.243	2086.75
2578.89	2082.42
2582.533	2080.75
2586.173	2091.08
2589.809	2087.75
2593.443	2081.08
2597.073	2100.08
2600.701	2092.42
2604.325	2085.08
2607.946	2103.42
2611.564	2102.08
2615.178	2101.42
2618.79	2111.08
2622.398	2108.42
2626.004	2101.08
2629.606	2097.42
2633.205	2099.42
2636.801	2080.42
2640.394	2071.08
2643.983	2050.42
2647.57	2044.42
2651.153	2038.75
2654.734	2026.42
2658.311	2023.75
2661.885	2006.75
2665.456	2001.42
2669.025	1991.75
2672.589	1992.42
2676.151	1974.08
2679.71	1974.08
2683.266	1962.42
2686.819	1947.42
2690.368	1938.75
2693.915	1918.75
2697.458	1905.08
2700.999	1892.08
2704.536	1882.42
2708.071	1864.75
2711.602	1850.75
2715.13	1852.08
2718.656	1840.42
2722.178	1829.08
2725.697	1838.42
2729.214	1847.08
2732.727	1857.42
2736.237	1872.42
2739.744	1892.75
2743.249	1918.75
2746.75	1929.08
2750.248	1952.08
2753.743	1960.42
2757.236	1965.08
2760.725	1987.08
2764.211	1978.75
2767.695	1981.75
2771.175	1979.75
2774.652	1968.08
2778.127	1964.08
2781.598	1952.08
2785.067	1943.75
2788.532	1935.08
2791.995	1932.08
2795.455	1921.08
2798.911	1933.42
2802.365	1919.42
2805.816	1912.08
2809.264	1902.08
2812.709	1898.75
2816.151	1891.75
2819.59	1884.08
2823.026	1884.75
2826.46	1884.75
2829.89	1878.75
2833.318	1865.08
2836.742	1850.42
2840.164	1854.42
2843.583	1856.42
2846.999	1844.42
2850.412	1861.08
2853.822	1865.42
2857.229	1853.75
2860.634	1860.75
2864.035	1860.08
2867.434	1868.08
2870.83	1862.42
2874.223	1852.42
2877.613	1854.08
2881	1841.08
2884.385	1822.75
2887.766	1807.42
2891.145	1805.75
2894.521	1788.42
2897.894	1772.75
2901.264	1768.08
2904.631	1750.08
2907.996	1739.75
2911.358	1729.42
2914.717	1720.42
2918.073	1712.08
2921.426	1712.75
2924.777	1706.42
2928.124	1702.08
2931.469	1691.42
2934.811	1698.75
2938.15	1683.75
2941.487	1674.08
2944.821	1670.42
2948.152	1661.08
2951.48	1653.42
2954.805	1650.75
2958.128	1635.75
2961.447	1627.75
2964.765	1621.42
2968.079	1623.08
2971.39	1610.75
2974.699	1625.75
2978.005	1614.42
2981.308	1614.42
2984.609	1619.42
2987.907	1631.75
2991.202	1636.42
2994.494	1658.08
2997.784	1666.42
3001.07	1666.08
3004.355	1659.42
3007.636	1649.75
3010.915	1649.08
3014.191	1647.08
3017.464	1641.42
3020.734	1615.75
3024.002	1599.42
3027.267	1583.42
3030.53	1571.75
3033.789	1551.42
3037.046	1523.75
3040.301	1523.75
3043.552	1525.42
3046.801	1508.75
3050.048	1499.75
3053.291	1496.08
3056.532	1500.42
3059.771	1497.08
3063.006	1496.75
3066.239	1493.08
3069.469	1499.75
3072.697	1508.08
3075.922	1496.08
3079.144	1490.08
3082.364	1486.75
3085.581	1476.75
3088.795	1471.42
3092.007	1467.75
3095.216	1462.08
3098.423	1459.42
3101.627	1451.08
3104.828	1441.75
3108.026	1427.42
3111.222	1427.42
3114.416	1429.42
3117.607	1425.42
3120.795	1419.75
3123.98	1418.75
3127.163	1407.75
3130.344	1416.08
3133.521	1408.42
3136.696	1417.08
3139.869	1405.75
3143.039	1397.75
3146.206	1401.08
3149.371	1387.75
3152.533	1378.08
3155.693	1366.42
3158.85	1348.42
3162.005	1344.75
3165.157	1329.75
3168.306	1310.75
3171.453	1300.42
3174.597	1286.75
3177.739	1277.75
3180.878	1278.42
3184.014	1251.75
3187.149	1245.08
3190.28	1245.42
3193.409	1225.75
3196.536	1231.75
3199.659	1225.42
3202.781	1220.42
3205.9	1212.75
3209.016	1210.75
3212.13	1200.08
3215.241	1195.75
3218.35	1176.75
3221.456	1165.42
3224.56	1165.42
3227.661	1149.08
3230.76	1125.08
3233.856	1126.42
3236.95	1119.42
3240.041	1110.08
3243.13	1102.42
3246.216	1098.75
3249.3	1091.42
3252.382	1092.08
3255.46	1087.08
3258.537	1081.08
3261.611	1079.75
3264.682	1083.75
3267.751	1085.42
3270.818	1079.75
3273.882	1069.08
3276.943	1070.75
3280.002	1071.42
3283.059	1071.42
3286.113	1059.75
3289.165	1047.42
3292.214	1041.42
3295.261	1029.75
3298.306	1008.42
3301.348	1001.75
3304.387	992.08
3307.425	972.42
3310.459	964.75
3313.492	964.42
3316.521	945.75
3319.549	940.42
3322.574	929.75
3325.597	925.08
3328.617	920.08
3331.635	909.42
3334.65	906.08
3337.663	902.75
3340.674	895.08
3343.682	899.42
3346.688	896.42
3349.691	887.08
3352.692	883.75
3355.691	880.42
3358.687	865.75
3361.681	857.08
3364.673	855.08
3367.662	843.42
3370.649	835.42
3373.633	825.75
3376.615	814.75
3379.595	809.75
3382.572	799.75
3385.547	793.08
3388.52	781.75
3391.49	766.75
3394.458	770.08
3397.424	755.08
3400.387	752.75
3403.348	746.42
3406.307	741.42
3409.263	731.08
3412.217	723.75
3415.168	727.08
3418.118	727.75
3421.065	713.75
3424.009	710.42
3426.951	710.42
3429.891	698.42
3432.829	693.08
3435.764	685.75
3438.697	672.75
3441.628	676.75
3444.557	665.42
3447.483	649.42
3450.407	639.08
3453.328	634.08
3456.247	618.42
3459.164	613.42
3462.079	603.42
3464.991	594.75
3467.902	591.75
3470.809	578.75
3473.715	565.08
3476.618	568.42
3479.519	553.08
3482.418	553.75
3485.315	543.75
3488.209	539.75
3491.101	536.08
3493.99	534.08
3496.878	520.75
3499.763	521.75
3502.646	518.75
3505.527	510.75
3508.405	499.75
3511.281	489.75
3514.155	492.42
3517.027	476.08
3519.897	469.42
3522.764	459.75
3525.629	454.42
3528.492	443.42
3531.352	429.42
3534.211	424.75
3537.067	408.08
3539.921	403.42
3542.773	401.42
3545.622	383.08
3548.469	373.75
3551.315	372.42
3554.157	364.08
3556.998	359.08
3559.837	354.75
3562.673	349.75
3565.507	344.42
3568.339	335.42
3571.169	336.08
3573.996	323.42
3576.822	319.42
3579.645	318.42
3582.466	307.42
3585.285	301.42
3588.101	298.75
3590.916	288.08
3593.728	287.75
3596.538	280.08
3599.346	273.08
3602.152	265.75
3604.956	264.08
3607.757	258.42
3610.556	252.08
3613.354	244.75
3616.149	241.75
3618.942	238.75
3621.732	233.75
3624.521	232.08
3627.307	226.08
3630.092	229.75
3632.874	221.42
3635.654	226.42
3638.432	219.75
3641.208	218.75
3643.982	214.42
3646.753	211.75
3649.523	207.75
3652.29	208.42
3655.055	204.08
3657.818	197.42
3660.579	195.75
3663.338	194.75
3666.095	187.75
3668.849	185.75
3671.602	183.08
3674.352	180.75
3677.101	179.08
3679.847	175.42
3682.591	171.08
3685.333	173.08
3688.073	172.42
3690.811	176.75
3693.547	170.08
3696.281	170.08
3699.013	170.08
3701.742	166.75
3704.47	169.08
3707.195	168.75
3709.919	164.42
3712.64	164.75
3715.359	162.42
3718.076	161.42
3720.792	155.08
3723.505	155.08
3726.216	153.75
3728.925	146.75
3731.632	151.08
3734.336	145.08
3737.039	145.42
3739.74	144.42
3742.439	140.08
3745.136	141.08
3747.83	137.42
3750.523	135.42
3753.213	135.08
3755.902	134.75
3758.589	134.08
3761.273	134.75
3763.956	135.08
3766.636	131.75
3769.315	128.08
3771.991	126.42
3774.665	127.75
3777.338	123.08
3780.008	121.42
3782.677	118.42
3785.343	113.08
3788.007	111.08
3790.67	108.42
3793.33	105.08
3795.989	105.42
3798.645	100.75
3801.299	100.75
3803.952	100.42
3806.602	97.42
3809.251	99.42
3811.897	94.08
3814.542	92.42
3817.184	91.42
3819.825	93.75
3822.463	89.42
3825.1	91.08
3827.735	84.08
3830.367	82.42
3832.998	81.08
3835.627	81.08
3838.253	77.08
3840.878	75.42
3843.501	74.42
3846.122	68.08
3848.741	66.08
3851.358	65.42
3853.973	60.42
3856.586	61.42
3859.197	58.75
3861.806	57.42
3864.414	54.75
3867.019	55.42
3869.622	56.08
3872.224	49.08
3874.823	49.42
3877.421	49.42
3880.016	45.42
3882.61	44.08
3885.202	40.08
3887.792	39.75
3890.38	38.08
3892.966	33.42
3895.55	30.75
3898.132	26.75
3900.713	28.08
3903.291	20.42
3905.868	18.08
3908.442	18.75
3911.015	17.08
3913.586	14.75
3916.155	11.75
3918.722	11.75
3921.287	10.75
3923.85	8.08
3926.411	10.08
3928.971	6.08
3931.528	7.08
3934.084	4.08
3936.638	3.42
3939.19	3.75
3941.74	1.75
3944.288	0.42
3946.834	0.08
3949.378	-0.25
3951.921	-0.58
3954.462	-0.58
3957	0.42
3959.537	-1.92
3962.072	-0.92
3964.606	-1.92
3967.137	-3.92
3969.667	-0.58
3972.194	-3.92
3974.72	-4.25
3977.244	-5.25
3979.766	-2.58
3982.286	-2.58
3984.805	-3.58
3987.321	-1.25
3989.836	-3.58
3992.349	-2.25
3994.86	-2.92
3997.369	-5.25
3999.877	-5.25
4002.382	-4.92
4004.886	-5.92
4007.388	-3.58
4009.888	-6.58
4012.386	-7.25
4014.883	-6.58
4017.377	-8.92
4019.87	-6.58
4022.361	-9.92
4024.85	-8.25
4027.338	-7.92
4029.823	-6.92
4032.307	-9.58
4034.789	-11.25
4037.269	-8.58
4039.747	-10.92
4042.224	-8.92
4044.699	-10.92
4047.172	-12.25
4049.643	-14.92
4052.112	-11.25
4054.58	-11.92
4057.046	-13.25
4059.51	-13.58
4061.972	-18.58
4064.432	-11.92
4066.891	-14.92
4069.348	-14.92
4071.803	-15.25
4074.256	-16.58
4076.708	-18.25
4079.158	-14.58
4081.606	-16.58
4084.052	-16.58
4086.497	-15.92
4088.939	-14.25
4091.38	-15.25
4093.819	-15.58
4096.257	-26.58
4098.693	-27.92
4101.127	-27.92
4103.559	-27.92
4105.989	-13.25
4108.418	-10.58
4110.845	-10.58
4113.27	-8.25
4115.694	-6.58
4118.115	-4.58
4120.535	-17.25
4122.954	-16.58
4125.37	-17.58
4127.785	-16.25
4130.198	-19.25
4132.609	-17.25
4135.019	-28.58
4137.427	-28.25
4139.833	-27.58
4142.237	-27.58
