Data from ec10_RamanShift_4.txt Node
Date: Tue Oct 17 17:23:54 IDT 2017
User: aro
Spectrometer: QEPB0276
Trigger mode: 0
Integration Time (sec): 5.000000E0
Scans to average: 3
Electric dark correction enabled: true
Nonlinearity correction enabled: false
Boxcar width: 0
XAxis mode: Raman Shifts
Number of Pixels in Spectrum: 1044
>>>>>Begin Spectral Data<<<<<
160.701	-2.58
166.742	4.75
172.777	21.42
178.805	70.08
184.826	194.08
190.841	429.42
196.849	718.42
202.85	938.42
208.845	1032.42
214.833	1051.08
220.815	1072.75
226.789	1104.08
232.758	1137.75
238.719	1170.75
244.674	1188.42
250.623	1195.75
256.565	1195.42
262.5	1192.08
268.429	1186.75
274.351	1188.75
280.267	1193.08
286.176	1195.42
292.079	1212.75
297.975	1219.08
303.865	1234.42
309.748	1241.75
315.625	1232.75
321.495	1211.08
327.359	1195.08
333.217	1183.42
339.068	1171.75
344.912	1168.08
350.751	1149.08
356.583	1144.08
362.408	1133.75
368.227	1131.42
374.04	1115.42
379.847	1120.75
385.647	1121.08
391.44	1106.42
397.228	1094.42
403.009	1098.08
408.784	1092.75
414.553	1108.75
420.315	1120.75
426.071	1119.08
431.821	1088.42
437.565	1051.08
443.302	1030.75
449.033	1010.42
454.758	991.08
460.477	971.08
466.189	954.75
471.896	933.75
477.596	910.75
483.29	887.08
488.978	863.75
494.66	820.75
500.335	780.75
506.005	747.75
511.668	772.75
517.325	868.08
522.977	1030.42
528.622	1166.42
534.261	1200.42
539.894	1189.42
545.521	1157.42
551.141	1126.75
556.756	1108.42
562.365	1082.42
567.968	1060.08
573.565	1056.75
579.155	1028.08
584.74	1022.75
590.319	1010.42
595.892	992.08
601.459	981.42
607.02	960.75
612.575	940.42
618.124	931.42
623.667	944.75
629.204	948.08
634.735	962.75
640.261	966.08
645.781	964.75
651.294	972.42
656.802	976.75
662.304	962.75
667.8	954.08
673.29	951.08
678.775	950.42
684.254	940.75
689.726	938.08
695.193	933.42
700.655	922.42
706.11	918.75
711.56	909.08
717.004	903.42
722.442	905.08
727.874	897.08
733.301	896.75
738.722	894.42
744.137	890.08
749.547	897.75
754.951	900.08
760.349	896.42
765.741	894.42
771.128	896.75
776.509	901.42
781.885	898.08
787.254	898.75
792.618	893.42
797.977	894.75
803.33	890.08
808.677	888.42
814.019	882.75
819.355	877.08
824.686	877.75
830.011	874.42
835.33	881.08
840.644	875.08
845.952	880.75
851.255	890.08
856.552	877.42
861.844	892.08
867.13	886.08
872.41	892.08
877.686	889.75
882.955	881.42
888.219	876.08
893.478	873.75
898.731	871.08
903.979	866.42
909.221	874.75
914.458	869.75
919.69	877.75
924.916	882.08
930.136	901.08
935.351	928.08
940.561	947.08
945.766	956.08
950.965	961.42
956.158	958.75
961.347	941.08
966.529	929.75
971.707	910.08
976.879	914.42
982.046	902.75
987.208	884.42
992.364	877.08
997.515	872.75
1002.66	873.75
1007.801	872.75
1012.936	879.08
1018.066	894.42
1023.19	887.75
1028.309	891.42
1033.423	890.75
1038.532	881.08
1043.636	877.75
1048.734	874.08
1053.827	856.75
1058.915	859.42
1063.998	842.08
1069.075	850.08
1074.147	849.75
1079.214	858.42
1084.276	863.75
1089.333	877.75
1094.385	878.75
1099.431	874.75
1104.472	895.08
1109.509	883.08
1114.54	870.75
1119.565	866.08
1124.586	859.42
1129.602	856.42
1134.613	846.75
1139.618	847.75
1144.619	845.75
1149.614	847.75
1154.604	864.08
1159.589	865.42
1164.57	871.08
1169.545	868.42
1174.515	874.08
1179.48	867.42
1184.44	867.08
1189.395	866.75
1194.345	857.42
1199.29	860.08
1204.23	860.08
1209.165	874.42
1214.095	873.42
1219.021	883.75
1223.941	885.42
1228.856	895.42
1233.766	900.75
1238.672	901.42
1243.572	907.75
1248.467	897.75
1253.358	895.75
1258.244	885.08
1263.124	875.42
1268	869.75
1272.871	865.75
1277.737	855.08
1282.599	862.42
1287.455	861.08
1292.306	863.42
1297.153	874.75
1301.995	885.08
1306.832	899.75
1311.664	889.08
1316.491	898.75
1321.314	894.42
1326.132	882.08
1330.945	874.42
1335.753	860.08
1340.556	848.42
1345.354	833.42
1350.148	814.75
1354.937	822.42
1359.722	833.42
1364.501	848.75
1369.276	874.08
1374.046	900.75
1378.811	921.75
1383.572	928.75
1388.327	920.75
1393.079	905.08
1397.825	888.75
1402.567	878.08
1407.304	865.08
1412.036	860.08
1416.764	859.42
1421.487	852.75
1426.205	855.75
1430.919	856.75
1435.628	869.42
1440.333	876.42
1445.032	887.42
1449.727	887.75
1454.418	889.42
1459.104	895.08
1463.785	884.75
1468.462	891.08
1473.134	872.42
1477.802	868.08
1482.465	878.08
1487.123	875.75
1491.777	880.75
1496.426	898.75
1501.071	906.75
1505.711	932.08
1510.347	944.08
1514.978	959.08
1519.604	966.42
1524.226	970.75
1528.844	975.75
1533.457	969.42
1538.065	975.08
1542.669	965.75
1547.269	963.08
1551.864	957.75
1556.454	955.08
1561.041	953.42
1565.622	951.08
1570.199	944.08
1574.772	947.75
1579.34	954.75
1583.904	959.75
1588.464	955.75
1593.019	948.75
1597.569	948.08
1602.115	934.08
1606.657	927.08
1611.195	923.42
1615.728	915.75
1620.256	912.75
1624.78	907.75
1629.3	909.08
1633.816	907.42
1638.327	915.08
1642.834	928.42
1647.336	943.75
1651.834	943.42
1656.328	963.08
1660.817	963.75
1665.302	965.75
1669.783	969.42
1674.259	970.75
1678.732	970.75
1683.199	954.75
1687.663	936.08
1692.122	918.08
1696.577	925.08
1701.028	950.75
1705.474	980.75
1709.917	995.42
1714.355	998.75
1718.788	1000.08
1723.218	988.08
1727.643	977.75
1732.064	976.75
1736.481	959.75
1740.893	958.08
1745.301	950.75
1749.705	943.75
1754.105	938.08
1758.501	919.08
1762.893	908.08
1767.28	909.08
1771.663	906.08
1776.042	907.42
1780.417	915.42
1784.787	934.75
1789.154	958.75
1793.516	975.42
1797.874	994.42
1802.228	1020.75
1806.578	1018.08
1810.924	1023.08
1815.266	1019.08
1819.603	1010.08
1823.937	1001.08
1828.266	982.75
1832.591	983.08
1836.913	967.75
1841.23	969.75
1845.543	974.75
1849.852	961.42
1854.156	964.75
1858.457	970.42
1862.754	977.75
1867.047	995.42
1871.335	988.42
1875.62	1005.42
1879.9	1003.42
1884.177	1002.08
1888.449	1010.75
1892.718	1003.75
1896.982	1007.42
1901.243	1005.75
1905.499	1005.75
1909.752	1011.08
1914	1025.42
1918.245	1033.42
1922.485	1040.75
1926.722	1060.42
1930.954	1061.42
1935.183	1076.75
1939.408	1091.75
1943.628	1088.42
1947.845	1098.42
1952.058	1098.75
1956.267	1101.08
1960.472	1088.75
1964.673	1088.75
1968.87	1073.75
1973.063	1072.75
1977.252	1068.42
1981.438	1064.42
1985.619	1056.08
1989.797	1049.42
1993.971	1058.75
1998.14	1055.42
2002.306	1062.08
2006.469	1057.08
2010.627	1065.75
2014.781	1071.75
2018.932	1063.42
2023.078	1054.08
2027.221	1057.42
2031.36	1047.08
2035.495	1045.42
2039.627	1040.08
2043.754	1033.75
2047.878	1040.08
2051.998	1034.08
2056.114	1046.75
2060.226	1048.42
2064.334	1061.08
2068.439	1061.75
2072.54	1078.42
2076.637	1085.08
2080.73	1090.42
2084.82	1107.08
2088.906	1106.08
2092.988	1113.75
2097.066	1115.75
2101.14	1110.75
2105.211	1115.42
2109.278	1112.42
2113.342	1111.42
2117.401	1113.42
2121.457	1122.42
2125.509	1120.08
2129.558	1128.42
2133.602	1128.42
2137.643	1138.42
2141.681	1128.08
2145.714	1135.08
2149.744	1139.42
2153.77	1134.08
2157.793	1133.08
2161.812	1128.42
2165.827	1122.75
2169.838	1116.08
2173.846	1115.42
2177.851	1096.42
2181.851	1100.75
2185.848	1097.42
2189.841	1095.75
2193.831	1095.08
2197.817	1092.08
2201.799	1099.42
2205.778	1110.75
2209.753	1116.08
2213.725	1120.42
2217.693	1131.08
2221.657	1141.08
2225.618	1145.42
2229.575	1158.08
2233.529	1162.08
2237.479	1161.75
2241.425	1163.08
2245.368	1150.42
2249.307	1159.42
2253.243	1153.75
2257.175	1154.08
2261.104	1147.42
2265.029	1149.08
2268.95	1149.08
2272.868	1149.42
2276.783	1152.08
2280.694	1157.75
2284.601	1149.08
2288.505	1153.08
2292.405	1154.42
2296.302	1161.42
2300.195	1155.75
2304.085	1147.08
2307.971	1149.08
2311.854	1137.75
2315.734	1119.75
2319.609	1125.08
2323.482	1109.08
2327.351	1117.42
2331.216	1118.08
2335.078	1113.42
2338.937	1115.75
2342.792	1119.75
2346.643	1118.42
2350.492	1128.08
2354.336	1139.75
2358.178	1143.08
2362.015	1151.75
2365.85	1158.42
2369.681	1176.75
2373.508	1179.08
2377.333	1185.42
2381.153	1194.08
2384.971	1189.08
2388.785	1195.42
2392.595	1188.08
2396.402	1195.08
2400.206	1191.08
2404.007	1191.42
2407.804	1206.42
2411.597	1212.42
2415.388	1208.75
2419.174	1220.08
2422.958	1214.42
2426.738	1229.75
2430.515	1224.42
2434.289	1233.08
2438.059	1233.08
2441.825	1241.08
2445.589	1241.75
2449.349	1247.42
2453.106	1238.75
2456.859	1244.42
2460.61	1240.42
2464.356	1242.42
2468.1	1244.08
2471.84	1249.75
2475.577	1252.75
2479.311	1260.75
2483.041	1267.75
2486.768	1279.42
2490.492	1291.42
2494.213	1298.75
2497.93	1308.75
2501.644	1320.42
2505.355	1331.08
2509.062	1342.08
2512.766	1347.42
2516.467	1349.42
2520.165	1354.75
2523.859	1363.42
2527.551	1358.42
2531.239	1358.08
2534.923	1369.42
2538.605	1374.08
2542.283	1378.75
2545.958	1389.75
2549.63	1393.75
2553.299	1404.75
2556.964	1421.08
2560.626	1424.42
2564.285	1422.42
2567.941	1431.42
2571.594	1425.42
2575.243	1434.42
2578.89	1444.75
2582.533	1444.75
2586.173	1446.42
2589.809	1451.08
2593.443	1444.08
2597.073	1458.75
2600.701	1440.42
2604.325	1459.75
2607.946	1469.75
2611.564	1476.42
2615.178	1472.75
2618.79	1488.75
2622.398	1484.42
2626.004	1491.75
2629.606	1484.42
2633.205	1481.75
2636.801	1479.08
2640.394	1474.42
2643.983	1463.75
2647.57	1478.08
2651.153	1461.08
2654.734	1454.08
2658.311	1464.42
2661.885	1458.42
2665.456	1448.42
2669.025	1442.08
2672.589	1454.08
2676.151	1449.08
2679.71	1444.75
2683.266	1444.42
2686.819	1431.75
2690.368	1431.75
2693.915	1422.75
2697.458	1404.75
2700.999	1412.42
2704.536	1397.75
2708.071	1400.08
2711.602	1391.42
2715.13	1391.75
2718.656	1384.42
2722.178	1388.75
2725.697	1391.08
2729.214	1393.42
2732.727	1410.42
2736.237	1428.75
2739.744	1443.42
2743.249	1471.42
2746.75	1483.42
2750.248	1507.08
2753.743	1520.08
2757.236	1528.42
2760.725	1537.08
2764.211	1550.42
2767.695	1553.42
2771.175	1554.75
2774.652	1547.75
2778.127	1547.42
2781.598	1550.75
2785.067	1553.42
2788.532	1550.08
2791.995	1556.42
2795.455	1553.08
2798.911	1547.42
2802.365	1555.75
2805.816	1545.08
2809.264	1552.08
2812.709	1547.08
2816.151	1540.42
2819.59	1546.75
2823.026	1539.42
2826.46	1545.75
2829.89	1536.75
2833.318	1540.42
2836.742	1539.42
2840.164	1548.75
2843.583	1543.75
2846.999	1551.08
2850.412	1551.08
2853.822	1552.75
2857.229	1559.08
2860.634	1569.08
2864.035	1577.75
2867.434	1578.42
2870.83	1581.75
2874.223	1589.08
2877.613	1589.75
2881	1583.08
2884.385	1574.42
2887.766	1556.42
2891.145	1547.42
2894.521	1539.08
2897.894	1534.08
2901.264	1525.75
2904.631	1521.08
2907.996	1514.42
2911.358	1504.08
2914.717	1498.75
2918.073	1503.75
2921.426	1498.75
2924.777	1488.75
2928.124	1503.08
2931.469	1488.75
2934.811	1496.75
2938.15	1487.08
2941.487	1475.08
2944.821	1487.42
2948.152	1474.42
2951.48	1465.08
2954.805	1462.42
2958.128	1446.75
2961.447	1447.08
2964.765	1440.08
2968.079	1443.42
2971.39	1445.42
2974.699	1442.42
2978.005	1455.42
2981.308	1463.08
2984.609	1469.42
2987.907	1483.08
2991.202	1483.42
2994.494	1494.75
2997.784	1484.42
3001.07	1505.08
3004.355	1509.75
3007.636	1511.42
3010.915	1502.42
3014.191	1494.42
3017.464	1479.75
3020.734	1479.42
3024.002	1464.75
3027.267	1449.08
3030.53	1431.75
3033.789	1422.42
3037.046	1413.42
3040.301	1393.42
3043.552	1392.75
3046.801	1386.08
3050.048	1381.75
3053.291	1380.75
3056.532	1381.42
3059.771	1371.75
3063.006	1376.08
3066.239	1374.08
3069.469	1371.75
3072.697	1379.42
3075.922	1373.42
3079.144	1367.08
3082.364	1365.75
3085.581	1373.42
3088.795	1342.75
3092.007	1347.42
3095.216	1342.08
3098.423	1342.08
3101.627	1325.75
3104.828	1319.75
3108.026	1324.75
3111.222	1320.42
3114.416	1317.42
3117.607	1317.08
3120.795	1314.08
3123.98	1307.75
3127.163	1310.75
3130.344	1301.08
3133.521	1301.42
3136.696	1311.08
3139.869	1298.08
3143.039	1289.42
3146.206	1285.42
3149.371	1285.42
3152.533	1264.08
3155.693	1265.42
3158.85	1248.42
3162.005	1236.08
3165.157	1220.75
3168.306	1212.75
3171.453	1191.08
3174.597	1188.75
3177.739	1177.42
3180.878	1161.42
3184.014	1155.75
3187.149	1152.08
3190.28	1140.75
3193.409	1139.75
3196.536	1126.42
3199.659	1129.42
3202.781	1124.08
3205.9	1112.42
3209.016	1109.08
3212.13	1106.08
3215.241	1095.75
3218.35	1083.75
3221.456	1073.08
3224.56	1066.08
3227.661	1053.08
3230.76	1044.08
3233.856	1031.08
3236.95	1026.08
3240.041	1015.75
3243.13	1013.75
3246.216	1007.75
3249.3	999.75
3252.382	998.42
3255.46	996.42
3258.537	988.75
3261.611	990.42
3264.682	984.08
3267.751	994.75
3270.818	991.75
3273.882	995.42
3276.943	986.75
3280.002	982.75
3283.059	973.42
3286.113	965.75
3289.165	960.42
3292.214	951.42
3295.261	940.75
3298.306	928.08
3301.348	922.42
3304.387	906.42
3307.425	900.42
3310.459	889.75
3313.492	878.42
3316.521	874.75
3319.549	863.75
3322.574	851.75
3325.597	852.42
3328.617	837.75
3331.635	838.08
3334.65	837.42
3337.663	832.42
3340.674	832.75
3343.682	823.75
3346.688	824.75
3349.691	821.08
3352.692	821.42
3355.691	816.08
3358.687	811.42
3361.681	805.42
3364.673	795.75
3367.662	780.75
3370.649	774.75
3373.633	770.42
3376.615	756.08
3379.595	743.75
3382.572	744.75
3385.547	731.42
3388.52	733.08
3391.49	718.75
3394.458	714.42
3397.424	702.42
3400.387	710.75
3403.348	698.75
3406.307	695.42
3409.263	689.42
3412.217	684.08
3415.168	682.75
3418.118	676.08
3421.065	677.08
3424.009	671.75
3426.951	666.75
3429.891	661.42
3432.829	656.75
3435.764	653.08
3438.697	645.42
3441.628	637.42
3444.557	622.08
3447.483	620.75
3450.407	605.08
3453.328	597.42
3456.247	589.75
3459.164	582.08
3462.079	572.42
3464.991	567.42
3467.902	558.75
3470.809	550.75
3473.715	542.75
3476.618	538.08
3479.519	534.75
3482.418	530.42
3485.315	518.08
3488.209	516.08
3491.101	515.08
3493.99	510.75
3496.878	500.75
3499.763	499.75
3502.646	499.75
3505.527	492.08
3508.405	489.42
3511.281	480.42
3514.155	469.75
3517.027	460.75
3519.897	449.08
3522.764	448.42
3525.629	439.75
3528.492	429.08
3531.352	415.75
3534.211	410.75
3537.067	402.42
3539.921	390.08
3542.773	391.42
3545.622	375.08
3548.469	375.75
3551.315	361.75
3554.157	363.75
3556.998	354.42
3559.837	346.75
3562.673	345.08
3565.507	336.75
3568.339	339.42
3571.169	335.08
3573.996	326.75
3576.822	324.75
3579.645	318.08
3582.466	311.42
3585.285	301.42
3588.101	299.08
3590.916	297.75
3593.728	287.75
3596.538	281.42
3599.346	280.42
3602.152	269.42
3604.956	269.08
3607.757	261.75
3610.556	260.08
3613.354	251.42
3616.149	248.42
3618.942	248.42
3621.732	240.08
3624.521	241.08
3627.307	240.75
3630.092	231.08
3632.874	231.75
3635.654	232.75
3638.432	228.08
3641.208	229.08
3643.982	222.42
3646.753	220.75
3649.523	213.75
3652.29	214.75
3655.055	214.42
3657.818	206.08
3660.579	204.42
3663.338	203.08
3666.095	198.75
3668.849	194.42
3671.602	193.42
3674.352	189.75
3677.101	187.42
3679.847	181.42
3682.591	179.75
3685.333	182.08
3688.073	180.75
3690.811	177.75
3693.547	174.08
3696.281	180.08
3699.013	177.75
3701.742	176.42
3704.47	175.42
3707.195	178.42
3709.919	174.42
3712.64	175.08
3715.359	170.08
3718.076	167.42
3720.792	165.42
3723.505	164.75
3726.216	166.08
3728.925	161.42
3731.632	158.42
3734.336	158.75
3737.039	153.75
3739.74	153.08
3742.439	147.75
3745.136	147.42
3747.83	146.08
3750.523	145.08
3753.213	145.75
3755.902	145.42
3758.589	146.08
3761.273	140.75
3763.956	137.75
3766.636	139.75
3769.315	136.42
3771.991	136.08
3774.665	134.08
3777.338	129.75
3780.008	127.75
3782.677	128.75
3785.343	125.75
3788.007	124.42
3790.67	119.42
3793.33	109.08
3795.989	113.75
3798.645	109.08
3801.299	110.75
3803.952	108.08
3806.602	107.75
3809.251	104.75
3811.897	102.42
3814.542	100.75
3817.184	100.42
3819.825	99.42
3822.463	96.08
3825.1	97.08
3827.735	92.75
3830.367	90.42
3832.998	88.42
3835.627	86.08
3838.253	84.42
3840.878	81.42
3843.501	78.42
3846.122	74.75
3848.741	76.08
3851.358	71.08
3853.973	66.42
3856.586	66.75
3859.197	64.42
3861.806	61.42
3864.414	57.75
3867.019	56.42
3869.622	56.08
3872.224	54.42
3874.823	54.75
3877.421	52.08
3880.016	50.42
3882.61	45.42
3885.202	45.75
3887.792	43.75
3890.38	39.75
3892.966	36.42
3895.55	34.08
3898.132	30.08
3900.713	28.08
3903.291	26.75
3905.868	23.08
3908.442	23.42
3911.015	18.75
3913.586	19.08
3916.155	17.42
3918.722	18.08
3921.287	13.42
3923.85	12.42
3926.411	13.75
3928.971	12.42
3931.528	11.75
3934.084	6.42
3936.638	9.08
3939.19	5.75
3941.74	7.42
3944.288	3.75
3946.834	2.42
3949.378	3.42
3951.921	2.08
3954.462	3.08
3957	3.75
3959.537	1.42
3962.072	4.42
3964.606	1.08
3967.137	1.42
3969.667	-0.25
3972.194	-0.92
3974.72	2.08
3977.244	-0.58
3979.766	0.42
3982.286	3.42
3984.805	0.75
3987.321	-1.25
3989.836	0.08
3992.349	1.75
3994.86	0.08
3997.369	-0.25
3999.877	-3.25
4002.382	-1.25
4004.886	-4.25
4007.388	-1.58
4009.888	-5.25
4012.386	-3.25
4014.883	-3.92
4017.377	-5.92
4019.87	-5.92
4022.361	-5.58
4024.85	-4.25
4027.338	-4.58
4029.823	-5.58
4032.307	-5.58
4034.789	-3.92
4037.269	-4.25
4039.747	-9.58
4042.224	-8.25
4044.699	-7.25
4047.172	-10.25
4049.643	-9.58
4052.112	-8.25
4054.58	-10.92
4057.046	-10.92
4059.51	-9.92
4061.972	-15.25
4064.432	-9.25
4066.891	-10.92
4069.348	-11.25
4071.803	-13.25
4074.256	-11.25
4076.708	-15.25
4079.158	-11.25
4081.606	-12.92
4084.052	-12.92
4086.497	-12.92
4088.939	-12.92
4091.38	-12.92
4093.819	-10.92
4096.257	-25.25
4098.693	-24.58
4101.127	-23.58
4103.559	-25.25
4105.989	-12.58
4108.418	-11.58
4110.845	-10.25
4113.27	-5.92
4115.694	-5.92
4118.115	-5.58
4120.535	-14.92
4122.954	-14.25
4125.37	-15.92
4127.785	-13.25
4130.198	-17.58
4132.609	-13.58
4135.019	-23.92
4137.427	-24.25
4139.833	-21.25
4142.237	-24.25
