Data from ec1_RamanShift_2.txt Node
Date: Tue Oct 17 17:14:54 IDT 2017
User: aro
Spectrometer: QEPB0276
Trigger mode: 0
Integration Time (sec): 5.000000E0
Scans to average: 3
Electric dark correction enabled: true
Nonlinearity correction enabled: false
Boxcar width: 0
XAxis mode: Raman Shifts
Number of Pixels in Spectrum: 1044
>>>>>Begin Spectral Data<<<<<
160.701	-4.71
166.742	6.96
172.777	30.96
178.805	101.63
184.826	280.63
190.841	616.63
196.849	1044.29
202.85	1349.63
208.845	1498.29
214.833	1545.96
220.815	1568.63
226.789	1608.63
232.758	1659.96
238.719	1701.63
244.674	1735.63
250.623	1745.63
256.565	1752.29
262.5	1752.96
268.429	1758.96
274.351	1774.96
280.267	1792.62
286.176	1809.63
292.079	1829.29
297.975	1848.96
303.865	1862.63
309.748	1881.96
315.625	1873.96
321.495	1860.29
327.359	1851.62
333.217	1854.29
339.068	1841.96
344.912	1829.63
350.751	1822.63
356.583	1822.63
362.408	1798.29
368.227	1801.96
374.04	1799.29
379.847	1799.62
385.647	1799.96
391.44	1802.29
397.228	1791.29
403.009	1795.96
408.784	1802.63
414.553	1812.63
420.315	1838.29
426.071	1845.29
431.821	1815.96
437.565	1783.29
443.302	1772.96
449.033	1768.62
454.758	1761.29
460.477	1744.29
466.189	1734.63
471.896	1719.29
477.596	1712.63
483.29	1699.63
488.978	1689.63
494.66	1666.96
500.335	1653.29
506.005	1638.63
511.668	1668.96
517.325	1749.62
522.977	1871.96
528.622	1977.96
534.261	1987.29
539.894	1948.96
545.521	1914.29
551.141	1879.63
556.756	1862.63
562.365	1840.63
567.968	1824.29
573.565	1817.96
579.155	1802.96
584.74	1797.63
590.319	1779.29
595.892	1764.29
601.459	1757.29
607.02	1738.63
612.575	1716.62
618.124	1715.96
623.667	1725.63
629.204	1744.29
634.735	1746.62
640.261	1757.29
645.781	1764.29
651.294	1777.96
656.802	1764.96
662.304	1769.96
667.8	1761.96
673.29	1763.29
678.775	1748.29
684.254	1754.29
689.726	1754.96
695.193	1753.29
700.655	1749.96
706.11	1746.29
711.56	1734.29
717.004	1732.63
722.442	1735.96
727.874	1725.96
733.301	1741.63
738.722	1734.29
744.137	1740.29
749.547	1735.63
754.951	1750.62
760.349	1751.96
765.741	1755.62
771.128	1756.62
776.509	1767.63
781.885	1755.62
787.254	1767.63
792.618	1763.62
797.977	1758.96
803.33	1769.63
808.677	1758.96
814.019	1750.63
819.355	1762.29
824.686	1762.29
830.011	1760.63
835.33	1751.29
840.644	1774.29
845.952	1766.29
851.255	1796.96
856.552	1797.29
861.844	1803.96
867.13	1806.96
872.41	1821.96
877.686	1823.96
882.955	1813.96
888.219	1811.96
893.478	1801.96
898.731	1795.96
903.979	1802.96
909.221	1800.96
914.458	1806.63
919.69	1820.96
924.916	1833.96
930.136	1858.63
935.351	1890.96
940.561	1910.96
945.766	1923.62
950.965	1923.96
956.158	1927.62
961.347	1913.63
966.529	1884.29
971.707	1863.96
976.879	1845.96
982.046	1831.29
987.208	1830.96
992.364	1817.62
997.515	1824.29
1002.66	1846.96
1007.801	1852.63
1012.936	1869.96
1018.066	1887.62
1023.19	1890.63
1028.309	1907.96
1033.423	1913.29
1038.532	1891.29
1043.636	1897.96
1048.734	1877.29
1053.827	1848.29
1058.915	1844.29
1063.998	1840.29
1069.075	1842.63
1074.147	1842.29
1079.214	1851.96
1084.276	1882.63
1089.333	1891.96
1094.385	1908.96
1099.431	1908.96
1104.472	1922.29
1109.509	1925.63
1114.54	1914.62
1119.565	1886.96
1124.586	1865.96
1129.602	1863.96
1134.613	1852.96
1139.618	1844.63
1144.619	1844.63
1149.614	1862.29
1154.604	1875.62
1159.589	1879.29
1164.57	1886.29
1169.545	1900.63
1174.515	1901.29
1179.48	1900.63
1184.44	1883.96
1189.395	1882.96
1194.345	1876.62
1199.29	1883.29
1204.23	1882.29
1209.165	1892.29
1214.095	1910.62
1219.021	1915.96
1223.941	1940.62
1228.856	1955.63
1233.766	1964.96
1238.672	1973.96
1243.572	1975.96
1248.467	1963.96
1253.358	1937.96
1258.244	1926.62
1263.124	1912.29
1268	1892.29
1272.871	1867.62
1277.737	1864.63
1282.599	1867.63
1287.455	1864.63
1292.306	1881.29
1297.153	1892.96
1301.995	1927.29
1306.832	1945.29
1311.664	1934.96
1316.491	1953.96
1321.314	1939.29
1326.132	1943.63
1330.945	1913.63
1335.753	1880.96
1340.556	1841.63
1345.354	1807.96
1350.148	1790.29
1354.937	1793.63
1359.722	1818.29
1364.501	1844.29
1369.276	1887.29
1374.046	1933.29
1378.811	1973.62
1383.572	1970.63
1388.327	1955.29
1393.079	1936.96
1397.825	1909.96
1402.567	1861.29
1407.304	1842.96
1412.036	1810.29
1416.764	1812.96
1421.487	1816.62
1426.205	1826.62
1430.919	1837.29
1435.628	1865.96
1440.333	1871.29
1445.032	1886.29
1449.727	1893.29
1454.418	1900.63
1459.104	1892.63
1463.785	1879.29
1468.462	1873.63
1473.134	1861.96
1477.802	1852.96
1482.465	1854.62
1487.123	1851.63
1491.777	1861.96
1496.426	1897.29
1501.071	1906.29
1505.711	1938.96
1510.347	1972.62
1514.978	2003.29
1519.604	2019.29
1524.226	2027.96
1528.844	2037.96
1533.457	2038.29
1538.065	2025.29
1542.669	2012.63
1547.269	1994.62
1551.864	1979.96
1556.454	1971.29
1561.041	1965.63
1565.622	1964.96
1570.199	1966.62
1574.772	1960.96
1579.34	1970.63
1583.904	1969.96
1588.464	1977.96
1593.019	1963.62
1597.569	1951.63
1602.115	1939.63
1606.657	1906.96
1611.195	1892.63
1615.728	1876.63
1620.256	1863.63
1624.78	1863.96
1629.3	1872.29
1633.816	1880.96
1638.327	1882.63
1642.834	1903.62
1647.336	1932.29
1651.834	1939.29
1656.328	1969.63
1660.817	1972.29
1665.302	1980.29
1669.783	1983.63
1674.259	1976.29
1678.732	1975.62
1683.199	1942.63
1687.663	1905.29
1692.122	1883.29
1696.577	1900.62
1701.028	1923.63
1705.474	1968.63
1709.917	1994.29
1714.355	2014.63
1718.788	2009.29
1723.218	1983.96
1727.643	1961.29
1732.064	1967.29
1736.481	1949.29
1740.893	1929.29
1745.301	1914.63
1749.705	1894.63
1754.105	1867.96
1758.501	1846.29
1762.893	1837.29
1767.28	1831.63
1771.663	1830.62
1776.042	1829.96
1780.417	1833.29
1784.787	1865.63
1789.154	1908.29
1793.516	1953.29
1797.874	1990.29
1802.228	2017.96
1806.578	2032.62
1810.924	2029.96
1815.266	2031.63
1819.603	1990.96
1823.937	1964.96
1828.266	1946.62
1832.591	1933.63
1836.913	1904.29
1841.23	1917.29
1845.543	1900.29
1849.852	1895.63
1854.156	1911.96
1858.457	1917.96
1862.754	1922.63
1867.047	1952.63
1871.335	1962.62
1875.62	1959.63
1879.9	1973.96
1884.177	1964.96
1888.449	1974.29
1892.718	1958.29
1896.982	1968.96
1901.243	1967.96
1905.499	1968.96
1909.752	1980.29
1914	1994.63
1918.245	2002.29
1922.485	2036.29
1926.722	2042.29
1930.954	2058.62
1935.183	2079.29
1939.408	2098.96
1943.628	2104.96
1947.845	2111.63
1952.058	2113.96
1956.267	2113.62
1960.472	2093.63
1964.673	2083.63
1968.87	2064.63
1973.063	2058.29
1977.252	2026.63
1981.438	2026.62
1985.619	2011.29
1989.797	2001.62
1993.971	2011.29
1998.14	2008.29
2002.306	2007.29
2006.469	2018.96
2010.627	2005.63
2014.781	2013.63
2018.932	2013.29
2023.078	2022.62
2027.221	2004.96
2031.36	1974.96
2035.495	1966.96
2039.627	1950.63
2043.754	1954.62
2047.878	1946.96
2051.998	1943.63
2056.114	1953.29
2060.226	1959.29
2064.334	1968.63
2068.439	2000.29
2072.54	2000.29
2076.637	2017.96
2080.73	2032.29
2084.82	2041.96
2088.906	2048.29
2092.988	2059.29
2097.066	2052.96
2101.14	2044.96
2105.211	2035.29
2109.278	2048.29
2113.342	2041.96
2117.401	2040.63
2121.457	2039.62
2125.509	2046.63
2129.558	2044.63
2133.602	2043.63
2137.643	2054.62
2141.681	2054.96
2145.714	2055.96
2149.744	2053.29
2153.77	2053.96
2157.793	2051.62
2161.812	2028.62
2165.827	2024.29
2169.838	2013.96
2173.846	2000.62
2177.851	1972.63
2181.851	1969.96
2185.848	1968.96
2189.841	1962.29
2193.831	1953.29
2197.817	1958.63
2201.799	1959.62
2205.778	1971.29
2209.753	1972.96
2213.725	1990.96
2217.693	1995.62
2221.657	2015.96
2225.618	2021.63
2229.575	2035.96
2233.529	2039.29
2237.479	2041.96
2241.425	2032.63
2245.368	2023.29
2249.307	2024.96
2253.243	2010.63
2257.175	2006.29
2261.104	1996.63
2265.029	1984.96
2268.95	1988.63
2272.868	1986.96
2276.783	1977.29
2280.694	1975.29
2284.601	1977.96
2288.505	1984.63
2292.405	1965.29
2296.302	1969.96
2300.195	1951.63
2304.085	1953.63
2307.971	1943.63
2311.854	1921.62
2315.734	1908.29
2319.609	1887.63
2323.482	1885.96
2327.351	1865.62
2331.216	1874.96
2335.078	1861.63
2338.937	1857.63
2342.792	1871.29
2346.643	1876.63
2350.492	1874.62
2354.336	1889.96
2358.178	1892.96
2362.015	1905.96
2365.85	1918.96
2369.681	1930.29
2373.508	1943.96
2377.333	1938.63
2381.153	1945.29
2384.971	1949.96
2388.785	1956.62
2392.595	1953.29
2396.402	1945.29
2400.206	1943.96
2404.007	1945.96
2407.804	1948.29
2411.597	1946.96
2415.388	1957.96
2419.174	1966.29
2422.958	1966.63
2426.738	1954.96
2430.515	1967.29
2434.289	1974.96
2438.059	1970.29
2441.825	1979.96
2445.589	1972.96
2449.349	1973.62
2453.106	1954.29
2456.859	1965.29
2460.61	1958.29
2464.356	1964.63
2468.1	1949.29
2471.84	1965.63
2475.577	1960.96
2479.311	1967.96
2483.041	1978.63
2486.768	1979.29
2490.492	1998.29
2494.213	2006.96
2497.93	2019.29
2501.644	2017.63
2505.355	2032.63
2509.062	2040.29
2512.766	2056.29
2516.467	2063.96
2520.165	2071.29
2523.859	2068.29
2527.551	2067.96
2531.239	2055.63
2534.923	2057.96
2538.605	2077.63
2542.283	2067.96
2545.958	2077.63
2549.63	2086.63
2553.299	2086.29
2556.964	2095.96
2560.626	2091.62
2564.285	2102.63
2567.941	2100.29
2571.594	2101.63
2575.243	2111.62
2578.89	2097.96
2582.533	2091.29
2586.173	2091.29
2589.809	2087.96
2593.443	2095.29
2597.073	2097.96
2600.701	2090.29
2604.325	2084.62
2607.946	2102.63
2611.564	2105.63
2615.178	2108.63
2618.79	2107.96
2622.398	2114.29
2626.004	2111.29
2629.606	2107.63
2633.205	2085.63
2636.801	2079.62
2640.394	2081.96
2643.983	2066.96
2647.57	2052.96
2651.153	2034.96
2654.734	2042.63
2658.311	2027.29
2661.885	2014.29
2665.456	2005.96
2669.025	2005.63
2672.589	1992.63
2676.151	1989.29
2679.71	1984.63
2683.266	1975.63
2686.819	1963.96
2690.368	1954.62
2693.915	1942.63
2697.458	1926.63
2700.999	1913.29
2704.536	1903.96
2708.071	1887.29
2711.602	1884.63
2715.13	1876.29
2718.656	1867.29
2722.178	1866.63
2725.697	1864.29
2729.214	1881.96
2732.727	1883.96
2736.237	1903.62
2739.744	1918.63
2743.249	1938.96
2746.75	1964.63
2750.248	1974.29
2753.743	1997.96
2757.236	2009.62
2760.725	2005.63
2764.211	2013.63
2767.695	2013.96
2771.175	2014.96
2774.652	2000.29
2778.127	2003.62
2781.598	1992.29
2785.067	1992.63
2788.532	1993.62
2791.995	1981.63
2795.455	1977.63
2798.911	1966.29
2802.365	1971.62
2805.816	1962.29
2809.264	1963.96
2812.709	1959.96
2816.151	1947.29
2819.59	1945.96
2823.026	1951.29
2826.46	1936.62
2829.89	1939.62
2833.318	1923.62
2836.742	1925.29
2840.164	1915.63
2843.583	1920.29
2846.999	1918.29
2850.412	1923.63
2853.822	1925.29
2857.229	1930.96
2860.634	1935.29
2864.035	1939.63
2867.434	1940.96
2870.83	1946.96
2874.223	1941.96
2877.613	1935.96
2881	1929.96
2884.385	1913.63
2887.766	1903.29
2891.145	1882.63
2894.521	1873.96
2897.894	1852.63
2901.264	1842.29
2904.631	1832.29
2907.996	1820.29
2911.358	1811.62
2914.717	1807.96
2918.073	1791.96
2921.426	1792.96
2924.777	1776.29
2928.124	1776.29
2931.469	1774.96
2934.811	1773.96
2938.15	1761.96
2941.487	1760.96
2944.821	1765.96
2948.152	1738.29
2951.48	1737.29
2954.805	1721.63
2958.128	1701.29
2961.447	1692.96
2964.765	1693.96
2968.079	1690.63
2971.39	1685.63
2974.699	1684.63
2978.005	1695.29
2981.308	1700.63
2984.609	1691.29
2987.907	1699.96
2991.202	1705.29
2994.494	1711.96
2997.784	1717.29
3001.07	1727.29
3004.355	1725.29
3007.636	1727.62
3010.915	1711.63
3014.191	1702.96
3017.464	1697.29
3020.734	1674.63
3024.002	1649.29
3027.267	1633.29
3030.53	1615.29
3033.789	1597.63
3037.046	1579.29
3040.301	1563.63
3043.552	1558.96
3046.801	1550.29
3050.048	1531.96
3053.291	1538.96
3056.532	1534.63
3059.771	1535.29
3063.006	1534.29
3066.239	1526.29
3069.469	1537.29
3072.697	1527.96
3075.922	1523.29
3079.144	1523.96
3082.364	1518.96
3085.581	1514.29
3088.795	1491.96
3092.007	1492.96
3095.216	1472.96
3098.423	1459.29
3101.627	1471.29
3104.828	1445.96
3108.026	1447.63
3111.222	1433.96
3114.416	1432.63
3117.607	1422.29
3120.795	1412.29
3123.98	1416.29
3127.163	1417.63
3130.344	1412.29
3133.521	1408.96
3136.696	1403.29
3139.869	1405.96
3143.039	1403.29
3146.206	1379.96
3149.371	1379.96
3152.533	1363.63
3155.693	1350.96
3158.85	1335.96
3162.005	1321.96
3165.157	1306.63
3168.306	1289.63
3171.453	1283.63
3174.597	1256.63
3177.739	1242.63
3180.878	1241.63
3184.014	1227.96
3187.149	1213.29
3190.28	1210.96
3193.409	1195.29
3196.536	1192.96
3199.659	1183.96
3202.781	1179.96
3205.9	1167.63
3209.016	1160.63
3212.13	1157.29
3215.241	1141.29
3218.35	1140.96
3221.456	1119.63
3224.56	1114.29
3227.661	1098.96
3230.76	1093.29
3233.856	1073.29
3236.95	1064.29
3240.041	1062.29
3243.13	1043.96
3246.216	1040.63
3249.3	1038.96
3252.382	1022.63
3255.46	1031.96
3258.537	1021.96
3261.611	1025.63
3264.682	1009.96
3267.751	1013.63
3270.818	1014.63
3273.882	1008.63
3276.943	1007.29
3280.002	998.29
3283.059	1000.29
3286.113	986.29
3289.165	978.63
3292.214	969.29
3295.261	951.29
3298.306	940.96
3301.348	929.96
3304.387	919.63
3307.425	903.29
3310.459	895.63
3313.492	885.63
3316.521	865.29
3319.549	859.63
3322.574	861.63
3325.597	851.96
3328.617	843.96
3331.635	836.63
3334.65	834.96
3337.663	831.96
3340.674	823.29
3343.682	816.29
3346.688	823.63
3349.691	817.29
3352.692	815.96
3355.691	818.63
3358.687	799.29
3361.681	792.29
3364.673	782.96
3367.662	778.96
3370.649	767.63
3373.633	764.96
3376.615	748.29
3379.595	742.63
3382.572	735.29
3385.547	722.29
3388.52	718.96
3391.49	711.29
3394.458	699.63
3397.424	690.96
3400.387	691.63
3403.348	687.63
3406.307	678.63
3409.263	674.96
3412.217	669.29
3415.168	665.63
3418.118	662.96
3421.065	652.63
3424.009	654.29
3426.951	645.29
3429.891	645.29
3432.829	635.63
3435.764	633.29
3438.697	625.29
3441.628	613.29
3444.557	603.29
3447.483	595.63
3450.407	589.63
3453.328	584.29
3456.247	570.96
3459.164	558.96
3462.079	554.63
3464.991	545.29
3467.902	536.63
3470.809	528.63
3473.715	521.63
3476.618	515.29
3479.519	507.96
3482.418	502.96
3485.315	495.63
3488.209	490.96
3491.101	492.63
3493.99	485.96
3496.878	481.63
3499.763	478.63
3502.646	470.63
3505.527	470.29
3508.405	459.96
3511.281	456.63
3514.155	449.29
3517.027	443.63
3519.897	433.29
3522.764	420.96
3525.629	419.29
3528.492	405.63
3531.352	394.96
3534.211	387.96
3537.067	380.29
3539.921	373.63
3542.773	366.96
3545.622	355.29
3548.469	347.96
3551.315	344.96
3554.157	335.29
3556.998	335.63
3559.837	327.96
3562.673	323.29
3565.507	323.96
3568.339	310.63
3571.169	311.63
3573.996	304.29
3576.822	300.29
3579.645	296.29
3582.466	289.29
3585.285	287.29
3588.101	282.29
3590.916	275.29
3593.728	267.96
3596.538	258.63
3599.346	256.29
3602.152	253.29
3604.956	245.29
3607.757	236.63
3610.556	237.63
3613.354	234.96
3616.149	228.29
3618.942	224.63
3621.732	218.29
3624.521	215.63
3627.307	220.29
3630.092	213.29
3632.874	213.29
3635.654	212.96
3638.432	209.29
3641.208	206.96
3643.982	203.63
3646.753	206.29
3649.523	194.29
3652.29	196.29
3655.055	192.96
3657.818	189.96
3660.579	183.29
3663.338	181.96
3666.095	178.29
3668.849	171.29
3671.602	170.96
3674.352	169.96
3677.101	166.63
3679.847	163.96
3682.591	163.96
3685.333	164.96
3688.073	161.63
3690.811	161.96
3693.547	160.63
3696.281	160.29
3699.013	160.96
3701.742	160.63
3704.47	160.29
3707.195	161.29
3709.919	156.29
3712.64	155.63
3715.359	155.96
3718.076	148.96
3720.792	150.29
3723.505	146.96
3726.216	148.96
3728.925	143.29
3731.632	144.29
3734.336	142.63
3737.039	134.63
3739.74	133.63
3742.439	136.96
3745.136	130.96
3747.83	130.63
3750.523	129.63
3753.213	131.29
3755.902	129.29
3758.589	127.96
3761.273	127.63
3763.956	124.29
3766.636	123.96
3769.315	123.63
3771.991	115.63
3774.665	118.63
3777.338	115.63
3780.008	109.63
3782.677	108.96
3785.343	108.96
3788.007	101.96
3790.67	105.29
3793.33	101.96
3795.989	99.29
3798.645	97.29
3801.299	95.29
3803.952	91.63
3806.602	92.63
3809.251	90.63
3811.897	91.96
3814.542	89.96
3817.184	90.29
3819.825	87.63
3822.463	83.29
3825.1	82.96
3827.735	79.96
3830.367	79.96
3832.998	74.29
3835.627	69.96
3838.253	71.63
3840.878	69.96
3843.501	64.96
3846.122	60.29
3848.741	63.63
3851.358	58.63
3853.973	54.29
3856.586	54.63
3859.197	48.96
3861.806	50.29
3864.414	48.96
3867.019	47.63
3869.622	48.63
3872.224	44.96
3874.823	41.63
3877.421	39.96
3880.016	40.29
3882.61	36.63
3885.202	34.29
3887.792	32.63
3890.38	28.29
3892.966	27.29
3895.55	22.96
3898.132	19.63
3900.713	20.29
3903.291	15.96
3905.868	10.96
3908.442	9.63
3911.015	9.96
3913.586	8.29
3916.155	7.63
3918.722	7.63
3921.287	5.63
3923.85	2.96
3926.411	4.63
3928.971	1.96
3931.528	2.63
3934.084	-1.37
3936.638	-0.71
3939.19	-1.71
3941.74	-1.71
3944.288	-5.37
3946.834	-6.04
3949.378	-5.37
3951.921	-6.37
3954.462	-4.37
3957	-6.37
3959.537	-3.37
3962.072	-5.71
3964.606	-5.37
3967.137	-6.71
3969.667	-7.04
3972.194	-9.37
3974.72	-6.71
3977.244	-6.37
3979.766	-7.71
3982.286	-8.71
3984.805	-8.71
3987.321	-8.37
3989.836	-7.71
3992.349	-8.37
3994.86	-9.37
3997.369	-11.71
3999.877	-10.71
4002.382	-10.37
4004.886	-12.71
4007.388	-9.37
4009.888	-14.71
4012.386	-14.37
4014.883	-12.71
4017.377	-15.71
4019.87	-13.37
4022.361	-16.04
4024.85	-12.71
4027.338	-14.71
4029.823	-14.37
4032.307	-15.71
4034.789	-14.37
4037.269	-14.04
4039.747	-17.37
4042.224	-14.71
4044.699	-17.37
4047.172	-17.04
4049.643	-17.71
4052.112	-14.71
4054.58	-17.71
4057.046	-18.04
4059.51	-16.71
4061.972	-19.04
4064.432	-18.71
4066.891	-18.71
4069.348	-17.71
4071.803	-20.04
4074.256	-20.04
4076.708	-19.71
4079.158	-18.71
4081.606	-21.04
4084.052	-21.37
4086.497	-20.71
4088.939	-20.04
4091.38	-20.04
4093.819	-20.71
4096.257	-33.37
4098.693	-34.71
4101.127	-35.04
4103.559	-34.37
4105.989	-16.04
4108.418	-15.71
4110.845	-13.71
4113.27	-10.37
4115.694	-9.04
4118.115	-5.71
4120.535	-21.04
4122.954	-22.04
4125.37	-23.37
4127.785	-20.04
4130.198	-24.37
4132.609	-21.71
4135.019	-34.71
4137.427	-33.71
4139.833	-32.37
4142.237	-34.04
