Data from ec1_RamanShift_4.txt Node
Date: Tue Oct 17 17:16:39 IDT 2017
User: aro
Spectrometer: QEPB0276
Trigger mode: 0
Integration Time (sec): 5.000000E0
Scans to average: 3
Electric dark correction enabled: true
Nonlinearity correction enabled: false
Boxcar width: 0
XAxis mode: Raman Shifts
Number of Pixels in Spectrum: 1044
>>>>>Begin Spectral Data<<<<<
160.701	-5.33
166.742	9.67
172.777	46.67
178.805	160
184.826	464.67
190.841	1025.33
196.849	1729.67
202.85	2288
208.845	2533.33
214.833	2592.67
220.815	2622
226.789	2709.33
232.758	2794.67
238.719	2858
244.674	2902
250.623	2930
256.565	2942.67
262.5	2935.67
268.429	2950.33
274.351	2975.33
280.267	2992.33
286.176	3023.67
292.079	3055.33
297.975	3079.67
303.865	3117.33
309.748	3134
315.625	3135.67
321.495	3144.67
327.359	3120.67
333.217	3111.33
339.068	3106.67
344.912	3110
350.751	3098.67
356.583	3091.33
362.408	3085
368.227	3075
374.04	3065
379.847	3079
385.647	3081
391.44	3076.67
397.228	3085
403.009	3085.33
408.784	3082.67
414.553	3111.67
420.315	3143
426.071	3149.33
431.821	3127.67
437.565	3110.33
443.302	3080.33
449.033	3100.33
454.758	3080.33
460.477	3087.67
466.189	3074
471.896	3085.33
477.596	3088.33
483.29	3089.33
488.978	3072
494.66	3078
500.335	3083.33
506.005	3112
511.668	3141.33
517.325	3229
522.977	3293.67
528.622	3313.67
534.261	3269.67
539.894	3211.33
545.521	3151.33
551.141	3098.33
556.756	3096.33
562.365	3053
567.968	3031.33
573.565	3020.33
579.155	3008.33
584.74	2997.33
590.319	2985
595.892	2957.33
601.459	2941
607.02	2940.33
612.575	2906.67
618.124	2907.67
623.667	2916
629.204	2930
634.735	2927.67
640.261	2920.67
645.781	2949
651.294	2953.67
656.802	2943.33
662.304	2941
667.8	2926.67
673.29	2920
678.775	2925.33
684.254	2910.67
689.726	2920.33
695.193	2899
700.655	2891.67
706.11	2879
711.56	2863
717.004	2869.33
722.442	2854.33
727.874	2849.67
733.301	2853
738.722	2852.33
744.137	2855.67
749.547	2855.33
754.951	2861.33
760.349	2859
765.741	2855
771.128	2861.33
776.509	2860.33
781.885	2884.33
787.254	2862.33
792.618	2861.67
797.977	2860.33
803.33	2855.33
808.677	2853.67
814.019	2844.33
819.355	2835.33
824.686	2820.67
830.011	2825.33
835.33	2822.33
840.644	2832.67
845.952	2849
851.255	2872.33
856.552	2873.67
861.844	2894
867.13	2900.67
872.41	2909.33
877.686	2891
882.955	2889.33
888.219	2884.67
893.478	2868.33
898.731	2852
903.979	2838.33
909.221	2843.67
914.458	2856.33
919.69	2865.67
924.916	2882.33
930.136	2909
935.351	2932.67
940.561	2954.67
945.766	2962
950.965	2972.67
956.158	2959
961.347	2958.33
966.529	2909.33
971.707	2885
976.879	2857
982.046	2830.33
987.208	2823.67
992.364	2805.67
997.515	2821.67
1002.66	2835.67
1007.801	2857.67
1012.936	2878.67
1018.066	2900.67
1023.19	2919
1028.309	2917
1033.423	2910.33
1038.532	2902
1043.636	2864
1048.734	2844.33
1053.827	2827.33
1058.915	2814
1063.998	2780
1069.075	2778.67
1074.147	2784
1079.214	2810.67
1084.276	2821
1089.333	2835
1094.385	2869.67
1099.431	2885
1104.472	2889.67
1109.509	2875.67
1114.54	2859.33
1119.565	2823.67
1124.586	2791
1129.602	2771
1134.613	2755
1139.618	2745.67
1144.619	2748
1149.614	2755.33
1154.604	2765.33
1159.589	2786.33
1164.57	2798
1169.545	2791.67
1174.515	2802.67
1179.48	2792.33
1184.44	2777.33
1189.395	2762
1194.345	2745
1199.29	2732.67
1204.23	2748.67
1209.165	2751.33
1214.095	2766.33
1219.021	2787
1223.941	2808
1228.856	2826.33
1233.766	2842.67
1238.672	2840
1243.572	2837
1248.467	2827
1253.358	2809
1258.244	2763.33
1263.124	2730.67
1268	2705.33
1272.871	2688
1277.737	2675.67
1282.599	2673
1287.455	2665
1292.306	2686.33
1297.153	2698.67
1301.995	2734.33
1306.832	2749
1311.664	2750.33
1316.491	2761.33
1321.314	2752.67
1326.132	2725.33
1330.945	2693.67
1335.753	2661.67
1340.556	2615.67
1345.354	2589
1350.148	2550.33
1354.937	2517.67
1359.722	2502.67
1364.501	2529.67
1369.276	2588.33
1374.046	2631.33
1378.811	2681.33
1383.572	2702.33
1388.327	2708.33
1393.079	2669.67
1397.825	2619
1402.567	2585
1407.304	2539.67
1412.036	2513.33
1416.764	2505.67
1421.487	2498.33
1426.205	2499
1430.919	2512.67
1435.628	2533
1440.333	2566.67
1445.032	2568
1449.727	2579
1454.418	2591
1459.104	2570
1463.785	2545.67
1468.462	2541.33
1473.134	2509
1477.802	2489
1482.465	2476
1487.123	2483.67
1491.777	2494
1496.426	2511.67
1501.071	2551.67
1505.711	2577.33
1510.347	2616.67
1514.978	2655
1519.604	2691.33
1524.226	2679
1528.844	2685.67
1533.457	2668
1538.065	2669
1542.669	2637
1547.269	2639.33
1551.864	2606.67
1556.454	2588.67
1561.041	2581.67
1565.622	2586
1570.199	2558.67
1574.772	2573.67
1579.34	2579.33
1583.904	2573.67
1588.464	2585.67
1593.019	2562.33
1597.569	2537.33
1602.115	2518.33
1606.657	2480
1611.195	2457.67
1615.728	2427.67
1620.256	2406.67
1624.78	2405.67
1629.3	2409.67
1633.816	2412.33
1638.327	2440.33
1642.834	2432.33
1647.336	2467.67
1651.834	2477
1656.328	2516
1660.817	2524.33
1665.302	2538.67
1669.783	2537.67
1674.259	2522.33
1678.732	2506.33
1683.199	2479.33
1687.663	2448.67
1692.122	2424.67
1696.577	2400
1701.028	2409.67
1705.474	2446
1709.917	2496.67
1714.355	2521.33
1718.788	2507.33
1723.218	2501.33
1727.643	2473
1732.064	2475.67
1736.481	2439.67
1740.893	2425.33
1745.301	2384
1749.705	2368.67
1754.105	2338
1758.501	2299.67
1762.893	2295.33
1767.28	2274.67
1771.663	2258
1776.042	2262
1780.417	2286.67
1784.787	2303.67
1789.154	2344
1793.516	2396.67
1797.874	2434
1802.228	2465.33
1806.578	2490.67
1810.924	2490
1815.266	2468.33
1819.603	2435.33
1823.937	2418.33
1828.266	2379.67
1832.591	2361.33
1836.913	2329
1841.23	2327.33
1845.543	2328.33
1849.852	2315.67
1854.156	2326.67
1858.457	2344
1862.754	2344.67
1867.047	2371.33
1871.335	2371.33
1875.62	2373.33
1879.9	2380.33
1884.177	2386.67
1888.449	2372.33
1892.718	2373.67
1896.982	2370.67
1901.243	2364
1905.499	2377.33
1909.752	2377.33
1914	2389
1918.245	2388.33
1922.485	2417
1926.722	2437.67
1930.954	2460.67
1935.183	2471
1939.408	2495.67
1943.628	2512.33
1947.845	2511.33
1952.058	2522
1956.267	2499.33
1960.472	2477.67
1964.673	2455.33
1968.87	2440
1973.063	2408.33
1977.252	2392
1981.438	2397.67
1985.619	2376.33
1989.797	2365.67
1993.971	2358
1998.14	2363.67
2002.306	2356.67
2006.469	2369.67
2010.627	2362.67
2014.781	2376.33
2018.932	2366.67
2023.078	2342
2027.221	2341.67
2031.36	2310.33
2035.495	2289.33
2039.627	2269
2043.754	2271.67
2047.878	2272.67
2051.998	2280
2056.114	2269.33
2060.226	2275
2064.334	2296
2068.439	2311
2072.54	2329.33
2076.637	2334
2080.73	2356.33
2084.82	2363.33
2088.906	2367.33
2092.988	2376.33
2097.066	2365.67
2101.14	2357.67
2105.211	2346.33
2109.278	2351.67
2113.342	2331.67
2117.401	2347.33
2121.457	2339.67
2125.509	2350
2129.558	2333.67
2133.602	2344
2137.643	2342.33
2141.681	2335.33
2145.714	2350.67
2149.744	2347.67
2153.77	2335
2157.793	2347
2161.812	2326
2165.827	2299
2169.838	2267.33
2173.846	2252
2177.851	2249
2181.851	2227.33
2185.848	2209.33
2189.841	2221.67
2193.831	2202.67
2197.817	2202.67
2201.799	2215
2205.778	2221.33
2209.753	2216.67
2213.725	2234
2217.693	2244.67
2221.657	2243.67
2225.618	2265.33
2229.575	2272.67
2233.529	2287.67
2237.479	2283.33
2241.425	2260.33
2245.368	2252
2249.307	2246
2253.243	2253
2257.175	2226.67
2261.104	2222.67
2265.029	2218.33
2268.95	2199.33
2272.868	2197
2276.783	2187
2280.694	2196.67
2284.601	2192.67
2288.505	2175.67
2292.405	2179.33
2296.302	2152.33
2300.195	2145.33
2304.085	2144.33
2307.971	2145.33
2311.854	2106.33
2315.734	2101
2319.609	2071.33
2323.482	2049.33
2327.351	2036.33
2331.216	2045
2335.078	2028.67
2338.937	2031
2342.792	2025.33
2346.643	2033.33
2350.492	2037
2354.336	2047.67
2358.178	2061.67
2362.015	2074.33
2365.85	2086.33
2369.681	2089
2373.508	2093.33
2377.333	2104.33
2381.153	2096.33
2384.971	2105.33
2388.785	2116.33
2392.595	2095.33
2396.402	2094.67
2400.206	2074
2404.007	2100.33
2407.804	2089
2411.597	2093
2415.388	2092.67
2419.174	2103
2422.958	2107
2426.738	2105.67
2430.515	2103.67
2434.289	2101
2438.059	2106.67
2441.825	2111
2445.589	2095.67
2449.349	2096.33
2453.106	2079
2456.859	2083.67
2460.61	2092.33
2464.356	2078
2468.1	2077
2471.84	2081.67
2475.577	2074.33
2479.311	2087.67
2483.041	2093.67
2486.768	2100.33
2490.492	2109.33
2494.213	2138
2497.93	2123.67
2501.644	2143.33
2505.355	2155.67
2509.062	2156.33
2512.766	2159.33
2516.467	2164
2520.165	2169.33
2523.859	2182
2527.551	2180.67
2531.239	2168
2534.923	2170.33
2538.605	2166.33
2542.283	2166
2545.958	2187.33
2549.63	2173.67
2553.299	2188.33
2556.964	2191.33
2560.626	2183
2564.285	2186.33
2567.941	2188.67
2571.594	2194
2575.243	2185.33
2578.89	2183
2582.533	2189.67
2586.173	2184.33
2589.809	2171
2593.443	2166
2597.073	2160.33
2600.701	2153
2604.325	2157.67
2607.946	2161.33
2611.564	2171.67
2615.178	2178
2618.79	2171
2622.398	2172.67
2626.004	2174.33
2629.606	2161
2633.205	2151.33
2636.801	2143.33
2640.394	2127
2643.983	2128.33
2647.57	2116.33
2651.153	2086.67
2654.734	2085.33
2658.311	2077.33
2661.885	2063.67
2665.456	2052.67
2669.025	2047.67
2672.589	2038.33
2676.151	2030
2679.71	2014.33
2683.266	2017.33
2686.819	2004.33
2690.368	1988
2693.915	1972
2697.458	1963
2700.999	1956.67
2704.536	1941.33
2708.071	1923
2711.602	1906.67
2715.13	1911.67
2718.656	1896.33
2722.178	1897.33
2725.697	1894.67
2729.214	1907.33
2732.727	1915.33
2736.237	1940.67
2739.744	1948
2743.249	1965.33
2746.75	1979.33
2750.248	1997.33
2753.743	2006.33
2757.236	2007.33
2760.725	2014
2764.211	2019.33
2767.695	2017.33
2771.175	2021.33
2774.652	2004.33
2778.127	1992.67
2781.598	1985.33
2785.067	1982
2788.532	1979
2791.995	1973.67
2795.455	1977
2798.911	1977.67
2802.365	1969
2805.816	1970
2809.264	1954.33
2812.709	1947.33
2816.151	1941.67
2819.59	1935
2823.026	1933.33
2826.46	1935.33
2829.89	1916.33
2833.318	1917.67
2836.742	1901.33
2840.164	1904
2843.583	1899.33
2846.999	1905
2850.412	1906
2853.822	1904.33
2857.229	1899.33
2860.634	1904.33
2864.035	1918.33
2867.434	1908.67
2870.83	1898.67
2874.223	1916
2877.613	1910.33
2881	1889.67
2884.385	1876.67
2887.766	1862
2891.145	1849
2894.521	1830.67
2897.894	1811.67
2901.264	1803.33
2904.631	1790
2907.996	1777
2911.358	1768
2914.717	1773.33
2918.073	1755.67
2921.426	1739.67
2924.777	1743.33
2928.124	1725
2931.469	1735.33
2934.811	1729
2938.15	1719.33
2941.487	1715.33
2944.821	1701
2948.152	1696.67
2951.48	1683.67
2954.805	1672.67
2958.128	1656
2961.447	1648.33
2964.765	1632.67
2968.079	1641
2971.39	1637
2974.699	1629.67
2978.005	1632.67
2981.308	1642
2984.609	1632.33
2987.907	1643.67
2991.202	1641.67
2994.494	1651.33
2997.784	1647.67
3001.07	1653.67
3004.355	1650.67
3007.636	1650
3010.915	1642.33
3014.191	1615.33
3017.464	1618.67
3020.734	1602
3024.002	1587
3027.267	1561.33
3030.53	1549.33
3033.789	1517.33
3037.046	1503
3040.301	1493.33
3043.552	1484.67
3046.801	1481.67
3050.048	1468.33
3053.291	1454.67
3056.532	1461.67
3059.771	1466.67
3063.006	1458.67
3066.239	1454
3069.469	1455
3072.697	1461.33
3075.922	1453.67
3079.144	1439.33
3082.364	1434.67
3085.581	1425.67
3088.795	1425.33
3092.007	1402.33
3095.216	1400
3098.423	1401.67
3101.627	1385.67
3104.828	1383
3108.026	1377.33
3111.222	1365.33
3114.416	1356.33
3117.607	1357
3120.795	1348
3123.98	1341.33
3127.163	1335.33
3130.344	1334.67
3133.521	1330.67
3136.696	1333
3139.869	1325.33
3143.039	1313
3146.206	1309.67
3149.371	1302.33
3152.533	1284.33
3155.693	1265
3158.85	1264.67
3162.005	1239
3165.157	1240.67
3168.306	1213
3171.453	1196.33
3174.597	1188.33
3177.739	1168.67
3180.878	1158.67
3184.014	1148.67
3187.149	1140.33
3190.28	1132.67
3193.409	1108.67
3196.536	1111
3199.659	1110
3202.781	1096.33
3205.9	1095.33
3209.016	1083
3212.13	1084
3215.241	1090
3218.35	1074.67
3221.456	1055.67
3224.56	1026.33
3227.661	1025.33
3230.76	1012.33
3233.856	997
3236.95	991.67
3240.041	981
3243.13	974.33
3246.216	971.33
3249.3	954.67
3252.382	955.67
3255.46	953.67
3258.537	930.67
3261.611	947
3264.682	941
3267.751	935.33
3270.818	936
3273.882	938
3276.943	931.67
3280.002	925
3283.059	917.33
3286.113	913
3289.165	900.67
3292.214	896.67
3295.261	880.33
3298.306	868.33
3301.348	859.67
3304.387	843
3307.425	835
3310.459	821.33
3313.492	810.33
3316.521	802.33
3319.549	795.67
3322.574	778
3325.597	776.67
3328.617	776.33
3331.635	768
3334.65	761.67
3337.663	770.67
3340.674	759.33
3343.682	751.33
3346.688	760.67
3349.691	747.67
3352.692	742.67
3355.691	739.33
3358.687	729.67
3361.681	732
3364.673	716.67
3367.662	708
3370.649	699
3373.633	696.33
3376.615	675.33
3379.595	681
3382.572	667
3385.547	661.67
3388.52	652.67
3391.49	649.67
3394.458	636.33
3397.424	632.67
3400.387	618.33
3403.348	620.67
3406.307	615.67
3409.263	606
3412.217	611.33
3415.168	606
3418.118	604
3421.065	600.33
3424.009	594
3426.951	589.33
3429.891	583.33
3432.829	578.33
3435.764	572.67
3438.697	567.33
3441.628	554
3444.557	547.67
3447.483	534.67
3450.407	526.67
3453.328	525.33
3456.247	509
3459.164	504.33
3462.079	498
3464.991	488
3467.902	484
3470.809	475
3473.715	463.33
3476.618	459.33
3479.519	458.33
3482.418	453
3485.315	446.67
3488.209	437.67
3491.101	439.33
3493.99	437.33
3496.878	428.67
3499.763	417.67
3502.646	417.67
3505.527	415
3508.405	407
3511.281	405
3514.155	394
3517.027	387
3519.897	386.67
3522.764	373.33
3525.629	364.33
3528.492	358
3531.352	348.67
3534.211	340.67
3537.067	333.33
3539.921	324
3542.773	315
3545.622	309.67
3548.469	304.67
3551.315	297.33
3554.157	294
3556.998	288.67
3559.837	283.67
3562.673	283.67
3565.507	279.33
3568.339	269
3571.169	266
3573.996	264
3576.822	257.67
3579.645	259
3582.466	250
3585.285	239.33
3588.101	237.33
3590.916	232
3593.728	228.67
3596.538	221
3599.346	220.67
3602.152	209.33
3604.956	208.33
3607.757	201.67
3610.556	201.67
3613.354	191.67
3616.149	191
3618.942	184.33
3621.732	183.33
3624.521	182.67
3627.307	179.67
3630.092	176.33
3632.874	173.33
3635.654	169.33
3638.432	168.33
3641.208	167.67
3643.982	167.33
3646.753	162.67
3649.523	161
3652.29	160.33
3655.055	155.33
3657.818	151
3660.579	148.67
3663.338	143.33
3666.095	143.33
3668.849	141
3671.602	137
3674.352	133.33
3677.101	134
3679.847	127.67
3682.591	131.33
3685.333	129.67
3688.073	128.33
3690.811	127.33
3693.547	127
3696.281	125.67
3699.013	126
3701.742	128
3704.47	130
3707.195	127.67
3709.919	121.33
3712.64	123.67
3715.359	123
3718.076	119.67
3720.792	117.33
3723.505	115.67
3726.216	113.67
3728.925	114.33
3731.632	107
3734.336	108
3737.039	107
3739.74	104
3742.439	103
3745.136	99.67
3747.83	102
3750.523	98.67
3753.213	101
3755.902	97.67
3758.589	97.67
3761.273	97.67
3763.956	96
3766.636	94.33
3769.315	90.67
3771.991	90.33
3774.665	88.33
3777.338	87
3780.008	82.33
3782.677	79
3785.343	79.33
3788.007	78.33
3790.67	71
3793.33	72.67
3795.989	68.67
3798.645	66.33
3801.299	63.67
3803.952	65
3806.602	62.33
3809.251	60.67
3811.897	60.33
3814.542	62.33
3817.184	58
3819.825	57.33
3822.463	53.33
3825.1	51.33
3827.735	50.33
3830.367	47.33
3832.998	45.67
3835.627	46.33
3838.253	41.67
3840.878	41.67
3843.501	38.33
3846.122	37.67
3848.741	35
3851.358	33.67
3853.973	27.33
3856.586	30
3859.197	26.33
3861.806	25.67
3864.414	21.33
3867.019	23
3869.622	22.67
3872.224	18.33
3874.823	19
3877.421	15.67
3880.016	15.33
3882.61	12.67
3885.202	11
3887.792	11
3890.38	4.67
3892.966	1.67
3895.55	-1.33
3898.132	-4
3900.713	-5.33
3903.291	-7.67
3905.868	-10.33
3908.442	-12.33
3911.015	-11.67
3913.586	-14.67
3916.155	-13.67
3918.722	-18
3921.287	-21
3923.85	-20
3926.411	-20
3928.971	-21.67
3931.528	-24.33
3934.084	-25.67
3936.638	-26
3939.19	-26.67
3941.74	-26.33
3944.288	-28
3946.834	-28.33
3949.378	-28
3951.921	-31
3954.462	-29
3957	-31
3959.537	-30
3962.072	-29
3964.606	-30.67
3967.137	-29.67
3969.667	-30.33
3972.194	-33.33
3974.72	-28.67
3977.244	-31
3979.766	-29.67
3982.286	-28
3984.805	-28.67
3987.321	-30.33
3989.836	-31.67
3992.349	-30.33
3994.86	-29.67
3997.369	-31.33
3999.877	-30.67
4002.382	-29
4004.886	-33
4007.388	-29.67
4009.888	-32.67
4012.386	-34.33
4014.883	-33
4017.377	-36
4019.87	-31.67
4022.361	-34.33
4024.85	-34
4027.338	-35
4029.823	-34
4032.307	-36
4034.789	-36.33
4037.269	-38.33
4039.747	-39.33
4042.224	-37
4044.699	-37.67
4047.172	-40
4049.643	-39.67
4052.112	-38.33
4054.58	-41
4057.046	-43
4059.51	-42.33
4061.972	-44.33
4064.432	-39.67
4066.891	-42
4069.348	-41
4071.803	-41.33
4074.256	-42.67
4076.708	-43
4079.158	-39.67
4081.606	-43
4084.052	-41.67
4086.497	-41.33
4088.939	-41.33
4091.38	-42.33
4093.819	-40.67
4096.257	-52.33
4098.693	-55
4101.127	-56
4103.559	-56
4105.989	-31.33
4108.418	-26
4110.845	-24
4113.27	-19
4115.694	-17
4118.115	-10.67
4120.535	-42.67
4122.954	-39.67
4125.37	-41.33
4127.785	-38.33
4130.198	-44.33
4132.609	-44
4135.019	-54
4137.427	-52.33
4139.833	-52
4142.237	-52.67
