Data from ec1_RamanShift_5.txt Node
Date: Tue Oct 17 17:17:54 IDT 2017
User: aro
Spectrometer: QEPB0276
Trigger mode: 0
Integration Time (sec): 5.000000E0
Scans to average: 3
Electric dark correction enabled: true
Nonlinearity correction enabled: false
Boxcar width: 0
XAxis mode: Raman Shifts
Number of Pixels in Spectrum: 1044
>>>>>Begin Spectral Data<<<<<
160.701	-4.38
166.742	9.29
172.777	40.96
178.805	146.29
184.826	419.63
190.841	922.96
196.849	1560.29
202.85	2079.96
208.845	2356.29
214.833	2483.62
220.815	2603.63
226.789	2766.63
232.758	2931.62
238.719	3048.29
244.674	3078.62
250.623	3032.96
256.565	2912.63
262.5	2764.29
268.429	2612.29
274.351	2453.29
280.267	2317.96
286.176	2187.63
292.079	2099.96
297.975	2005.96
303.865	1943.62
309.748	1877.96
315.625	1824.96
321.495	1767.63
327.359	1715.96
333.217	1690.96
339.068	1663.29
344.912	1636.62
350.751	1625.29
356.583	1596.62
362.408	1584.29
368.227	1572.96
374.04	1561.96
379.847	1561.62
385.647	1551.96
391.44	1543.62
397.228	1546.29
403.009	1523.96
408.784	1534.96
414.553	1546.29
420.315	1574.96
426.071	1574.96
431.821	1540.96
437.565	1516.96
443.302	1495.29
449.033	1490.62
454.758	1470.63
460.477	1452.63
466.189	1448.62
471.896	1445.29
477.596	1430.62
483.29	1404.96
488.978	1390.62
494.66	1360.63
500.335	1332.96
506.005	1313.62
511.668	1333.63
517.325	1413.62
522.977	1562.62
528.622	1674.96
534.261	1725.62
539.894	1698.96
545.521	1691.29
551.141	1670.63
556.756	1644.96
562.365	1638.63
567.968	1621.63
573.565	1630.29
579.155	1616.29
584.74	1614.29
590.319	1613.96
595.892	1600.62
601.459	1594.29
607.02	1584.63
612.575	1570.96
618.124	1584.62
623.667	1591.62
629.204	1618.96
634.735	1638.62
640.261	1646.29
645.781	1667.29
651.294	1680.96
656.802	1678.96
662.304	1689.29
667.8	1685.29
673.29	1691.96
678.775	1688.29
684.254	1687.96
689.726	1698.63
695.193	1684.63
700.655	1689.96
706.11	1676.29
711.56	1687.29
717.004	1697.96
722.442	1690.63
727.874	1718.62
733.301	1711.63
738.722	1719.63
744.137	1718.62
749.547	1730.96
754.951	1718.62
760.349	1720.29
765.741	1736.96
771.128	1730.62
776.509	1737.96
781.885	1747.29
787.254	1751.63
792.618	1758.96
797.977	1768.29
803.33	1765.63
808.677	1765.29
814.019	1758.96
819.355	1746.62
824.686	1752.29
830.011	1745.96
835.33	1751.96
840.644	1771.62
845.952	1773.96
851.255	1784.29
856.552	1803.96
861.844	1807.63
867.13	1812.29
872.41	1819.63
877.686	1823.29
882.955	1816.96
888.219	1807.29
893.478	1787.29
898.731	1788.63
903.979	1785.63
909.221	1784.63
914.458	1786.29
919.69	1787.96
924.916	1805.29
930.136	1818.62
935.351	1850.29
940.561	1864.62
945.766	1879.29
950.965	1878.29
956.158	1861.62
961.347	1854.96
966.529	1836.96
971.707	1805.62
976.879	1799.96
982.046	1771.29
987.208	1758.62
992.364	1761.62
997.515	1756.62
1002.66	1766.29
1007.801	1767.29
1012.936	1791.96
1018.066	1794.29
1023.19	1809.29
1028.309	1811.96
1033.423	1808.96
1038.532	1800.29
1043.636	1788.29
1048.734	1773.29
1053.827	1742.96
1058.915	1738.96
1063.998	1718.96
1069.075	1709.29
1074.147	1716.63
1079.214	1727.96
1084.276	1744.62
1089.333	1754.29
1094.385	1773.96
1099.431	1772.96
1104.472	1775.96
1109.509	1770.62
1114.54	1750.29
1119.565	1739.96
1124.586	1718.96
1129.602	1705.29
1134.613	1701.29
1139.618	1687.96
1144.619	1697.96
1149.614	1693.62
1154.604	1699.29
1159.589	1712.62
1164.57	1725.63
1169.545	1729.62
1174.515	1741.96
1179.48	1730.96
1184.44	1713.63
1189.395	1713.62
1194.345	1708.96
1199.29	1699.29
1204.23	1717.96
1209.165	1727.62
1214.095	1742.62
1219.021	1751.29
1223.941	1781.29
1228.856	1797.29
1233.766	1798.29
1238.672	1814.63
1243.572	1826.29
1248.467	1815.96
1253.358	1808.63
1258.244	1794.29
1263.124	1771.96
1268	1751.62
1272.871	1737.62
1277.737	1730.96
1282.599	1734.29
1287.455	1730.96
1292.306	1750.63
1297.153	1769.96
1301.995	1788.96
1306.832	1815.63
1311.664	1823.96
1316.491	1834.29
1321.314	1833.63
1326.132	1819.62
1330.945	1790.29
1335.753	1768.29
1340.556	1730.29
1345.354	1689.96
1350.148	1672.29
1354.937	1683.96
1359.722	1711.96
1364.501	1755.62
1369.276	1809.29
1374.046	1857.62
1378.811	1906.29
1383.572	1927.96
1388.327	1915.63
1393.079	1893.29
1397.825	1862.62
1402.567	1817.62
1407.304	1802.62
1412.036	1801.62
1416.764	1787.96
1421.487	1787.96
1426.205	1796.29
1430.919	1808.63
1435.628	1826.29
1440.333	1856.62
1445.032	1854.29
1449.727	1870.96
1454.418	1886.96
1459.104	1872.29
1463.785	1873.96
1468.462	1850.29
1473.134	1855.96
1477.802	1839.96
1482.465	1842.29
1487.123	1855.29
1491.777	1867.29
1496.426	1890.29
1501.071	1924.96
1505.711	1967.62
1510.347	1981.96
1514.978	2025.62
1519.604	2049.62
1524.226	2061.96
1528.844	2067.29
1533.457	2062.62
1538.065	2059.29
1542.669	2041.63
1547.269	2039.96
1551.864	2025.62
1556.454	2029.62
1561.041	2020.62
1565.622	2012.96
1570.199	2009.96
1574.772	2017.63
1579.34	2022.62
1583.904	2024.96
1588.464	2027.96
1593.019	2023.96
1597.569	2010.29
1602.115	1997.29
1606.657	1960.96
1611.195	1954.96
1615.728	1928.96
1620.256	1912.29
1624.78	1912.29
1629.3	1915.29
1633.816	1927.96
1638.327	1932.96
1642.834	1953.96
1647.336	1964.29
1651.834	1978.62
1656.328	1998.96
1660.817	2010.29
1665.302	2021.96
1669.783	2027.96
1674.259	2009.96
1678.732	1982.96
1683.199	1967.29
1687.663	1922.29
1692.122	1885.62
1696.577	1890.96
1701.028	1934.96
1705.474	1993.62
1709.917	2029.96
1714.355	2038.29
1718.788	2011.96
1723.218	1994.29
1727.643	1965.29
1732.064	1955.96
1736.481	1928.96
1740.893	1909.29
1745.301	1891.63
1749.705	1857.62
1754.105	1833.62
1758.501	1813.96
1762.893	1796.63
1767.28	1782.63
1771.663	1762.96
1776.042	1761.62
1780.417	1782.29
1784.787	1820.96
1789.154	1844.96
1793.516	1897.96
1797.874	1934.96
1802.228	1966.29
1806.578	1967.62
1810.924	1962.63
1815.266	1955.29
1819.603	1914.29
1823.937	1898.29
1828.266	1883.96
1832.591	1841.63
1836.913	1831.29
1841.23	1814.63
1845.543	1815.29
1849.852	1807.62
1854.156	1809.29
1858.457	1817.62
1862.754	1809.29
1867.047	1831.96
1871.335	1836.29
1875.62	1843.62
1879.9	1839.63
1884.177	1845.29
1888.449	1835.96
1892.718	1839.29
1896.982	1829.96
1901.243	1822.29
1905.499	1823.96
1909.752	1827.29
1914	1842.63
1918.245	1859.29
1922.485	1865.62
1926.722	1881.29
1930.954	1905.96
1935.183	1924.62
1939.408	1925.62
1943.628	1942.29
1947.845	1953.96
1952.058	1956.63
1956.267	1945.29
1960.472	1926.96
1964.673	1908.63
1968.87	1891.96
1973.063	1877.96
1977.252	1862.29
1981.438	1853.62
1985.619	1837.29
1989.797	1830.96
1993.971	1835.96
1998.14	1842.62
2002.306	1839.29
2006.469	1839.96
2010.627	1837.62
2014.781	1841.62
2018.932	1834.96
2023.078	1834.62
2027.221	1815.63
2031.36	1799.62
2035.495	1789.63
2039.627	1782.62
2043.754	1771.29
2047.878	1759.62
2051.998	1791.96
2056.114	1783.96
2060.226	1783.62
2064.334	1802.29
2068.439	1819.96
2072.54	1821.96
2076.637	1830.96
2080.73	1856.62
2084.82	1864.96
2088.906	1881.62
2092.988	1873.29
2097.066	1879.29
2101.14	1884.96
2105.211	1880.29
2109.278	1885.96
2113.342	1866.29
2117.401	1880.96
2121.457	1884.62
2125.509	1900.29
2129.558	1886.96
2133.602	1898.96
2137.643	1910.29
2141.681	1910.62
2145.714	1912.62
2149.744	1919.63
2153.77	1919.96
2157.793	1910.62
2161.812	1900.62
2165.827	1887.96
2169.838	1869.96
2173.846	1862.96
2177.851	1851.96
2181.851	1842.29
2185.848	1838.29
2189.841	1833.96
2193.831	1833.62
2197.817	1836.29
2201.799	1856.62
2205.778	1855.96
2209.753	1859.96
2213.725	1870.96
2217.693	1890.96
2221.657	1899.62
2225.618	1911.63
2229.575	1925.96
2233.529	1923.62
2237.479	1934.62
2241.425	1927.29
2245.368	1924.63
2249.307	1913.96
2253.243	1908.62
2257.175	1914.62
2261.104	1899.96
2265.029	1903.29
2268.95	1904.29
2272.868	1914.63
2276.783	1899.63
2280.694	1892.96
2284.601	1890.96
2288.505	1895.96
2292.405	1884.96
2296.302	1882.63
2300.195	1884.29
2304.085	1878.96
2307.971	1869.29
2311.854	1858.29
2315.734	1831.96
2319.609	1834.29
2323.482	1803.96
2327.351	1798.62
2331.216	1799.62
2335.078	1792.96
2338.937	1794.29
2342.792	1795.62
2346.643	1810.62
2350.492	1810.62
2354.336	1821.62
2358.178	1838.63
2362.015	1832.29
2365.85	1857.62
2369.681	1869.96
2373.508	1868.29
2377.333	1869.29
2381.153	1881.29
2384.971	1883.96
2388.785	1881.96
2392.595	1884.29
2396.402	1876.62
2400.206	1883.96
2404.007	1873.63
2407.804	1880.29
2411.597	1879.62
2415.388	1877.63
2419.174	1890.29
2422.958	1896.62
2426.738	1886.29
2430.515	1891.62
2434.289	1902.29
2438.059	1904.96
2441.825	1893.29
2445.589	1884.62
2449.349	1890.62
2453.106	1891.29
2456.859	1880.96
2460.61	1886.62
2464.356	1872.29
2468.1	1867.29
2471.84	1869.96
2475.577	1868.62
2479.311	1890.29
2483.041	1886.96
2486.768	1901.29
2490.492	1898.62
2494.213	1921.29
2497.93	1929.62
2501.644	1943.63
2505.355	1939.63
2509.062	1950.96
2512.766	1952.29
2516.467	1972.62
2520.165	1974.62
2523.859	1967.96
2527.551	1981.62
2531.239	1960.96
2534.923	1978.62
2538.605	1971.96
2542.283	1973.62
2545.958	1987.63
2549.63	1995.62
2553.299	2009.96
2556.964	2003.63
2560.626	2002.62
2564.285	1994.29
2567.941	2001.96
2571.594	2003.29
2575.243	1993.29
2578.89	1998.29
2582.533	2001.62
2586.173	1996.96
2589.809	1991.62
2593.443	1990.29
2597.073	1988.96
2600.701	1985.63
2604.325	1981.62
2607.946	2000.29
2611.564	2044.96
2615.178	2031.96
2618.79	2006.96
2622.398	2006.29
2626.004	1996.29
2629.606	1981.96
2633.205	1985.29
2636.801	1964.29
2640.394	1955.62
2643.983	1947.96
2647.57	1927.29
2651.153	1933.96
2654.734	1918.63
2658.311	1900.29
2661.885	1887.29
2665.456	1877.29
2669.025	1880.29
2672.589	1878.29
2676.151	1861.29
2679.71	1854.29
2683.266	1840.96
2686.819	1836.62
2690.368	1819.96
2693.915	1806.96
2697.458	1795.62
2700.999	1784.96
2704.536	1756.62
2708.071	1752.29
2711.602	1755.96
2715.13	1741.96
2718.656	1726.96
2722.178	1724.96
2725.697	1727.62
2729.214	1735.96
2732.727	1739.63
2736.237	1762.29
2739.744	1778.29
2743.249	1800.62
2746.75	1812.29
2750.248	1840.29
2753.743	1847.63
2757.236	1856.62
2760.725	1868.96
2764.211	1882.62
2767.695	1877.63
2771.175	1871.96
2774.652	1869.29
2778.127	1866.96
2781.598	1857.62
2785.067	1849.63
2788.532	1845.96
2791.995	1857.29
2795.455	1842.96
2798.911	1842.96
2802.365	1829.96
2805.816	1820.29
2809.264	1819.63
2812.709	1823.96
2816.151	1819.96
2819.59	1804.62
2823.026	1799.62
2826.46	1803.96
2829.89	1801.62
2833.318	1794.29
2836.742	1782.29
2840.164	1793.63
2843.583	1781.63
2846.999	1783.29
2850.412	1783.96
2853.822	1793.96
2857.229	1791.62
2860.634	1794.29
2864.035	1813.29
2867.434	1809.29
2870.83	1805.29
2874.223	1810.96
2877.613	1808.96
2881	1797.29
2884.385	1790.63
2887.766	1773.96
2891.145	1755.29
2894.521	1752.29
2897.894	1737.63
2901.264	1730.62
2904.631	1717.29
2907.996	1720.62
2911.358	1693.62
2914.717	1687.29
2918.073	1694.29
2921.426	1688.62
2924.777	1686.29
2928.124	1677.96
2931.469	1678.96
2934.811	1668.96
2938.15	1668.29
2941.487	1666.29
2944.821	1651.29
2948.152	1647.62
2951.48	1630.62
2954.805	1621.62
2958.128	1601.29
2961.447	1594.29
2964.765	1587.62
2968.079	1598.29
2971.39	1587.63
2974.699	1579.96
2978.005	1596.63
2981.308	1585.62
2984.609	1592.29
2987.907	1599.29
2991.202	1607.29
2994.494	1616.29
2997.784	1618.96
3001.07	1628.29
3004.355	1638.29
3007.636	1619.62
3010.915	1619.96
3014.191	1599.29
3017.464	1598.29
3020.734	1581.63
3024.002	1556.96
3027.267	1551.63
3030.53	1528.63
3033.789	1504.29
3037.046	1486.29
3040.301	1475.63
3043.552	1471.96
3046.801	1468.96
3050.048	1455.29
3053.291	1454.29
3056.532	1445.96
3059.771	1447.63
3063.006	1455.62
3066.239	1443.96
3069.469	1452.62
3072.697	1449.96
3075.922	1444.96
3079.144	1439.29
3082.364	1433.63
3085.581	1427.62
3088.795	1413.62
3092.007	1401.96
3095.216	1404.96
3098.423	1393.29
3101.627	1389.62
3104.828	1373.29
3108.026	1377.96
3111.222	1371.29
3114.416	1358.62
3117.607	1355.96
3120.795	1352.29
3123.98	1346.62
3127.163	1351.29
3130.344	1348.96
3133.521	1343.96
3136.696	1349.63
3139.869	1344.62
3143.039	1323.29
3146.206	1325.96
3149.371	1316.29
3152.533	1298.96
3155.693	1283.29
3158.85	1276.96
3162.005	1261.62
3165.157	1251.29
3168.306	1236.96
3171.453	1218.29
3174.597	1203.29
3177.739	1191.29
3180.878	1190.96
3184.014	1175.29
3187.149	1163.29
3190.28	1149.29
3193.409	1149.62
3196.536	1141.63
3199.659	1138.29
3202.781	1132.62
3205.9	1122.62
3209.016	1115.62
3212.13	1113.62
3215.241	1106.63
3218.35	1079.96
3221.456	1084.29
3224.56	1069.63
3227.661	1058.29
3230.76	1047.29
3233.856	1025.29
3236.95	1020.62
3240.041	1022.29
3243.13	1017.29
3246.216	1003.29
3249.3	997.62
3252.382	992.29
3255.46	984.62
3258.537	987.29
3261.611	991.29
3264.682	982.62
3267.751	974.96
3270.818	976.63
3273.882	975.62
3276.943	972.29
3280.002	968.96
3283.059	960.29
3286.113	952.96
3289.165	941.96
3292.214	932.96
3295.261	923.96
3298.306	905.96
3301.348	904.62
3304.387	887.96
3307.425	874.96
3310.459	866.62
3313.492	850.96
3316.521	844.62
3319.549	834.63
3322.574	828.63
3325.597	825.62
3328.617	823.29
3331.635	802.96
3334.65	807.62
3337.663	804.96
3340.674	790.62
3343.682	790.29
3346.688	792.62
3349.691	790.29
3352.692	787.96
3355.691	774.63
3358.687	768.62
3361.681	766.62
3364.673	752.96
3367.662	744.96
3370.649	738.96
3373.633	727.62
3376.615	718.63
3379.595	712.62
3382.572	706.63
3385.547	693.62
3388.52	685.96
3391.49	680.96
3394.458	669.62
3397.424	660.96
3400.387	657.29
3403.348	656.29
3406.307	659.29
3409.263	647.62
3412.217	639.63
3415.168	639.29
3418.118	634.29
3421.065	630.29
3424.009	628.29
3426.951	620.96
3429.891	614.62
3432.829	607.29
3435.764	605.63
3438.697	600.29
3441.628	583.62
3444.557	576.29
3447.483	564.63
3450.407	567.96
3453.328	550.96
3456.247	546.96
3459.164	533.96
3462.079	527.96
3464.991	513.62
3467.902	508.96
3470.809	500.63
3473.715	495.29
3476.618	490.29
3479.519	485.29
3482.418	481.63
3485.315	473.29
3488.209	461.62
3491.101	466.63
3493.99	461.96
3496.878	456.62
3499.763	446.62
3502.646	447.96
3505.527	439.29
3508.405	433.62
3511.281	426.62
3514.155	422.96
3517.027	409.29
3519.897	400.29
3522.764	401.96
3525.629	388.63
3528.492	374.96
3531.352	370.29
3534.211	356.62
3537.067	349.96
3539.921	347.63
3542.773	336.29
3545.622	329.29
3548.469	325.96
3551.315	321.96
3554.157	312.29
3556.998	308.29
3559.837	299.29
3562.673	296.96
3565.507	293.63
3568.339	289.63
3571.169	281.62
3573.996	279.62
3576.822	274.29
3579.645	266.96
3582.466	263.96
3585.285	257.29
3588.101	254.29
3590.916	247.63
3593.728	241.29
3596.538	233.96
3599.346	232.96
3602.152	224.29
3604.956	221.63
3607.757	215.96
3610.556	213.29
3613.354	206.29
3616.149	206.96
3618.942	200.96
3621.732	200.29
3624.521	198.29
3627.307	195.63
3630.092	193.96
3632.874	189.96
3635.654	190.96
3638.432	186.96
3641.208	185.96
3643.982	179.62
3646.753	179.96
3649.523	174.63
3652.29	172.29
3655.055	172.29
3657.818	164.29
3660.579	161.29
3663.338	156.96
3666.095	155.96
3668.849	152.62
3671.602	148.96
3674.352	145.62
3677.101	145.62
3679.847	141.62
3682.591	142.62
3685.333	142.96
3688.073	136.62
3690.811	135.62
3693.547	140.62
3696.281	138.29
3699.013	133.96
3701.742	132.96
3704.47	135.96
3707.195	135.96
3709.919	133.96
3712.64	129.96
3715.359	131.63
3718.076	127.96
3720.792	125.62
3723.505	125.62
3726.216	123.29
3728.925	125.96
3731.632	117.62
3734.336	115.62
3737.039	116.96
3739.74	114.29
3742.439	114.63
3745.136	110.62
3747.83	107.63
3750.523	109.96
3753.213	112.29
3755.902	105.96
3758.589	105.63
3761.273	107.29
3763.956	103.62
3766.636	103.96
3769.315	101.96
3771.991	100.62
3774.665	99.62
3777.338	97.96
3780.008	94.62
3782.677	90.96
3785.343	88.62
3788.007	84.62
3790.67	81.63
3793.33	79.62
3795.989	78.96
3798.645	80.96
3801.299	76.29
3803.952	73.29
3806.602	73.63
3809.251	72.96
3811.897	68.96
3814.542	70.96
3817.184	66.29
3819.825	67.29
3822.463	63.62
3825.1	63.96
3827.735	61.96
3830.367	55.96
3832.998	56.62
3835.627	56.62
3838.253	52.29
3840.878	47.62
3843.501	46.29
3846.122	38.62
3848.741	41.29
3851.358	38.96
3853.973	36.96
3856.586	37.96
3859.197	36.96
3861.806	33.29
3864.414	28.29
3867.019	30.96
3869.622	28.63
3872.224	26.62
3874.823	23.62
3877.421	25.29
3880.016	21.29
3882.61	20.62
3885.202	18.63
3887.792	15.62
3890.38	9.96
3892.966	8.96
3895.55	5.96
3898.132	2.96
3900.713	-0.37
3903.291	-2.37
3905.868	-2.38
3908.442	-3.38
3911.015	-6.37
3913.586	-8.04
3916.155	-10.71
3918.722	-11.37
3921.287	-12.37
3923.85	-12.04
3926.411	-13.04
3928.971	-15.04
3931.528	-14.71
3934.084	-19.38
3936.638	-17.04
3939.19	-18.71
3941.74	-18.71
3944.288	-20.38
3946.834	-20.71
3949.378	-22.04
3951.921	-22.71
3954.462	-21.38
3957	-21.04
3959.537	-22.71
3962.072	-22.04
3964.606	-23.04
3967.137	-24.38
3969.667	-24.04
3972.194	-25.71
3974.72	-23.04
3977.244	-24.04
3979.766	-24.04
3982.286	-21.38
3984.805	-23.04
3987.321	-22.38
3989.836	-22.04
3992.349	-22.37
3994.86	-23.04
3997.369	-25.37
3999.877	-24.71
4002.382	-24.04
4004.886	-28.38
4007.388	-25.38
4009.888	-26.38
4012.386	-28.71
4014.883	-26.71
4017.377	-30.38
4019.87	-30.71
4022.361	-31.71
4024.85	-28.38
4027.338	-29.71
4029.823	-30.38
4032.307	-30.38
4034.789	-31.04
4037.269	-30.37
4039.747	-32.71
4042.224	-32.38
4044.699	-33.04
4047.172	-34.04
4049.643	-35.37
4052.112	-34.04
4054.58	-34.38
4057.046	-36.04
4059.51	-33.71
4061.972	-38.37
4064.432	-33.38
4066.891	-37.38
4069.348	-35.04
4071.803	-35.38
4074.256	-34.38
4076.708	-37.38
4079.158	-35.04
4081.606	-36.04
4084.052	-37.38
4086.497	-37.04
4088.939	-35.37
4091.38	-36.38
4093.819	-38.04
4096.257	-47.38
4098.693	-46.37
4101.127	-47.04
4103.559	-49.37
4105.989	-26.04
4108.418	-23.04
4110.845	-20.71
4113.27	-15.71
4115.694	-14.71
4118.115	-12.38
4120.535	-38.04
4122.954	-37.04
4125.37	-37.38
4127.785	-36.37
4130.198	-41.04
4132.609	-37.38
4135.019	-48.71
4137.427	-47.71
4139.833	-48.38
4142.237	-47.38
