Data from ec1_RamanShift_1.txt Node
Date: Tue Oct 17 17:14:09 IDT 2017
User: aro
Spectrometer: QEPB0276
Trigger mode: 0
Integration Time (sec): 5.000000E0
Scans to average: 3
Electric dark correction enabled: true
Nonlinearity correction enabled: false
Boxcar width: 0
XAxis mode: Raman Shifts
Number of Pixels in Spectrum: 1044
>>>>>Begin Spectral Data<<<<<
160.701	-4.17
166.742	7.17
172.777	29.17
178.805	106.83
184.826	309.5
190.841	672.17
196.849	1136.83
202.85	1497.83
208.845	1680.5
214.833	1773.5
220.815	1856.5
226.789	1973.17
232.758	2094.5
238.719	2204.83
244.674	2265.17
250.623	2280.5
256.565	2210.83
262.5	2095.17
268.429	1986.83
274.351	1899.5
280.267	1806.83
286.176	1719.83
292.079	1653.5
297.975	1591.83
303.865	1554.17
309.748	1529.17
315.625	1481.83
321.495	1446.17
327.359	1400.17
333.217	1380.17
339.068	1352.83
344.912	1335.17
350.751	1315.83
356.583	1282.83
362.408	1274.83
368.227	1257.5
374.04	1261.17
379.847	1240.17
385.647	1234.17
391.44	1223.83
397.228	1210.5
403.009	1204.5
408.784	1192.5
414.553	1205.5
420.315	1217.17
426.071	1215.5
431.821	1181.83
437.565	1143.17
443.302	1118.5
449.033	1103.5
454.758	1078.17
460.477	1059.5
466.189	1036.5
471.896	1012.17
477.596	1001.83
483.29	969.17
488.978	934.83
494.66	896.83
500.335	854.83
506.005	815.17
511.668	833.5
517.325	923.83
522.977	1073.17
528.622	1201.83
534.261	1242.83
539.894	1227.17
545.521	1193.5
551.141	1172.5
556.756	1145.5
562.365	1136.5
567.968	1109.83
573.565	1090.17
579.155	1079.83
584.74	1061.5
590.319	1054.83
595.892	1029.83
601.459	1012.5
607.02	987.17
612.575	965.5
618.124	964.5
623.667	971.17
629.204	982.83
634.735	990.5
640.261	991.17
645.781	997.17
651.294	1010.5
656.802	1001.83
662.304	986.17
667.8	977.5
673.29	965.5
678.775	965.17
684.254	955.17
689.726	955.17
695.193	944.17
700.655	934.83
706.11	925.5
711.56	933.17
717.004	927.17
722.442	935.5
727.874	946.17
733.301	966.83
738.722	974.5
744.137	965.83
749.547	949.17
754.951	926.17
760.349	912.5
765.741	915.17
771.128	915.17
776.509	918.5
781.885	919.83
787.254	923.83
792.618	920.17
797.977	913.17
803.33	912.17
808.677	907.83
814.019	911.17
819.355	894.17
824.686	896.5
830.011	900.17
835.33	896.5
840.644	894.83
845.952	900.83
851.255	897.83
856.552	903.83
861.844	907.5
867.13	905.17
872.41	908.17
877.686	904.17
882.955	908.83
888.219	895.83
893.478	893.5
898.731	891.5
903.979	886.83
909.221	888.83
914.458	892.5
919.69	896.83
924.916	914.5
930.136	928.17
935.351	958.83
940.561	967.83
945.766	993.17
950.965	988.83
956.158	994.5
961.347	987.83
966.529	972.17
971.707	958.5
976.879	941.17
982.046	924.83
987.208	915.17
992.364	909.83
997.515	920.83
1002.66	916.83
1007.801	922.5
1012.936	911.5
1018.066	926.5
1023.19	927.83
1028.309	941.17
1033.423	940.17
1038.532	933.83
1043.636	927.83
1048.734	920.17
1053.827	912.83
1058.915	904.5
1063.998	899.17
1069.075	900.5
1074.147	898.5
1079.214	914.17
1084.276	909.83
1089.333	931.17
1094.385	927.17
1099.431	947.83
1104.472	944.83
1109.509	939.17
1114.54	933.83
1119.565	917.17
1124.586	921.17
1129.602	916.83
1134.613	901.17
1139.618	901.17
1144.619	904.83
1149.614	907.17
1154.604	912.17
1159.589	914.83
1164.57	924.5
1169.545	939.83
1174.515	935.83
1179.48	931.83
1184.44	925.5
1189.395	922.83
1194.345	920.5
1199.29	925.83
1204.23	924.17
1209.165	934.5
1214.095	949.17
1219.021	953.83
1223.941	966.17
1228.856	968.17
1233.766	987.5
1238.672	988.83
1243.572	982.5
1248.467	980.5
1253.358	970.5
1258.244	959.5
1263.124	954.17
1268	935.83
1272.871	939.17
1277.737	933.83
1282.599	932.83
1287.455	944.83
1292.306	939.83
1297.153	947.5
1301.995	959.17
1306.832	975.17
1311.664	971.83
1316.491	990.5
1321.314	995.83
1326.132	992.17
1330.945	987.5
1335.753	967.5
1340.556	951.5
1345.354	917.5
1350.148	910.5
1354.937	893.5
1359.722	909.83
1364.501	930.5
1369.276	960.5
1374.046	982.5
1378.811	995.5
1383.572	1007.83
1388.327	987.5
1393.079	972.5
1397.825	963.5
1402.567	945.83
1407.304	939.5
1412.036	923.17
1416.764	906.17
1421.487	901.17
1426.205	909.17
1430.919	903.5
1435.628	915.83
1440.333	924.17
1445.032	920.83
1449.727	928.17
1454.418	925.83
1459.104	921.5
1463.785	924.5
1468.462	923.17
1473.134	918.83
1477.802	902.83
1482.465	905.5
1487.123	907.17
1491.777	909.5
1496.426	924.5
1501.071	930.17
1505.711	940.5
1510.347	955.5
1514.978	977.5
1519.604	982.83
1524.226	991.5
1528.844	994.17
1533.457	989.17
1538.065	986.5
1542.669	976.17
1547.269	965.17
1551.864	958.5
1556.454	967.5
1561.041	956.17
1565.622	949.17
1570.199	947.17
1574.772	945.83
1579.34	953.83
1583.904	948.5
1588.464	946.17
1593.019	936.83
1597.569	940.5
1602.115	922.5
1606.657	907.5
1611.195	903.83
1615.728	892.83
1620.256	877.83
1624.78	876.5
1629.3	879.83
1633.816	876.83
1638.327	885.83
1642.834	888.5
1647.336	897.5
1651.834	909.5
1656.328	908.5
1660.817	913.5
1665.302	915.17
1669.783	912.17
1674.259	896.83
1678.732	888.17
1683.199	880.5
1687.663	857.5
1692.122	846.5
1696.577	851.5
1701.028	868.5
1705.474	883.83
1709.917	899.17
1714.355	904.17
1718.788	891.5
1723.218	889.83
1727.643	874.17
1732.064	869.5
1736.481	863.5
1740.893	849.83
1745.301	841.5
1749.705	832.5
1754.105	822.17
1758.501	804.83
1762.893	804.5
1767.28	800.17
1771.663	790.5
1776.042	800.17
1780.417	809.17
1784.787	819.5
1789.154	839.17
1793.516	862.5
1797.874	871.83
1802.228	880.5
1806.578	890.83
1810.924	887.5
1815.266	875.83
1819.603	866.83
1823.937	859.17
1828.266	844.5
1832.591	835.83
1836.913	831.17
1841.23	827.83
1845.543	815.17
1849.852	825.5
1854.156	819.83
1858.457	827.17
1862.754	827.17
1867.047	832.5
1871.335	840.83
1875.62	850.83
1879.9	846.5
1884.177	853.83
1888.449	850.83
1892.718	849.83
1896.982	848.17
1901.243	849.17
1905.499	853.5
1909.752	860.17
1914	861.83
1918.245	862.5
1922.485	867.17
1926.722	881.83
1930.954	893.5
1935.183	894.83
1939.408	904.5
1943.628	911.5
1947.845	912.5
1952.058	921.17
1956.267	919.17
1960.472	907.5
1964.673	905.17
1968.87	889.17
1973.063	882.17
1977.252	884.17
1981.438	882.83
1985.619	874.5
1989.797	871.17
1993.971	871.5
1998.14	870.17
2002.306	877.5
2006.469	875.5
2010.627	879.5
2014.781	874.83
2018.932	880.17
2023.078	876.17
2027.221	869.5
2031.36	859.83
2035.495	863.17
2039.627	857.17
2043.754	855.5
2047.878	852.5
2051.998	858.83
2056.114	858.5
2060.226	862.83
2064.334	869.17
2068.439	877.83
2072.54	886.5
2076.637	894.83
2080.73	901.5
2084.82	911.5
2088.906	910.17
2092.988	917.17
2097.066	914.83
2101.14	914.5
2105.211	911.5
2109.278	917.17
2113.342	907.5
2117.401	915.17
2121.457	920.5
2125.509	915.17
2129.558	925.83
2133.602	919.5
2137.643	929.5
2141.681	927.5
2145.714	933.17
2149.744	937.5
2153.77	929.17
2157.793	933.83
2161.812	934.17
2165.827	926.17
2169.838	922.83
2173.846	917.17
2177.851	916.17
2181.851	910.5
2185.848	905.17
2189.841	910.5
2193.831	900.5
2197.817	901.17
2201.799	909.17
2205.778	913.5
2209.753	930.83
2213.725	931.5
2217.693	945.83
2221.657	946.5
2225.618	953.17
2229.575	961.83
2233.529	968.83
2237.479	967.5
2241.425	965.5
2245.368	963.17
2249.307	964.17
2253.243	958.5
2257.175	960.17
2261.104	963.83
2265.029	961.5
2268.95	965.17
2272.868	960.83
2276.783	967.83
2280.694	965.17
2284.601	966.17
2288.505	968.17
2292.405	966.5
2296.302	964.5
2300.195	971.83
2304.085	959.83
2307.971	959.17
2311.854	954.17
2315.734	946.17
2319.609	943.5
2323.482	936.83
2327.351	933.17
2331.216	936.17
2335.078	949.5
2338.937	944.17
2342.792	947.5
2346.643	951.17
2350.492	958.5
2354.336	954.17
2358.178	970.17
2362.015	976.5
2365.85	993.5
2369.681	996.83
2373.508	1001.5
2377.333	1011.83
2381.153	1011.17
2384.971	1014.83
2388.785	1019.83
2392.595	1025.17
2396.402	1023.83
2400.206	1026.83
2404.007	1017.5
2407.804	1030.83
2411.597	1037.83
2415.388	1038.5
2419.174	1048.5
2422.958	1042.83
2426.738	1053.5
2430.515	1061.83
2434.289	1066.5
2438.059	1072.5
2441.825	1065.17
2445.589	1071.5
2449.349	1075.17
2453.106	1069.5
2456.859	1071.83
2460.61	1078.5
2464.356	1066.83
2468.1	1077.17
2471.84	1081.17
2475.577	1081.5
2479.311	1095.17
2483.041	1099.17
2486.768	1114.17
2490.492	1124.17
2494.213	1138.17
2497.93	1144.83
2501.644	1138.17
2505.355	1157.83
2509.062	1165.17
2512.766	1178.5
2516.467	1183.83
2520.165	1180.17
2523.859	1186.83
2527.551	1190.5
2531.239	1201.5
2534.923	1202.5
2538.605	1205.83
2542.283	1211.5
2545.958	1221.5
2549.63	1231.17
2553.299	1237.5
2556.964	1246.83
2560.626	1246.83
2564.285	1259.5
2567.941	1262.17
2571.594	1262.83
2575.243	1258.17
2578.89	1266.83
2582.533	1273.83
2586.173	1269.17
2589.809	1283.5
2593.443	1276.17
2597.073	1278.5
2600.701	1288.5
2604.325	1283.83
2607.946	1288.17
2611.564	1298.83
2615.178	1311.5
2618.79	1315.17
2622.398	1309.17
2626.004	1316.83
2629.606	1328.5
2633.205	1306.83
2636.801	1314.17
2640.394	1318.17
2643.983	1305.83
2647.57	1301.17
2651.153	1303.5
2654.734	1303.17
2658.311	1295.17
2661.885	1295.17
2665.456	1292.5
2669.025	1288.83
2672.589	1288.83
2676.151	1289.17
2679.71	1291.83
2683.266	1287.83
2686.819	1289.83
2690.368	1280.5
2693.915	1274.5
2697.458	1268.83
2700.999	1263.5
2704.536	1255.83
2708.071	1257.5
2711.602	1245.5
2715.13	1248.17
2718.656	1245.17
2722.178	1247.17
2725.697	1257.83
2729.214	1259.5
2732.727	1271.83
2736.237	1290.5
2739.744	1298.17
2743.249	1321.83
2746.75	1333.83
2750.248	1350.83
2753.743	1367.5
2757.236	1377.17
2760.725	1386.17
2764.211	1387.5
2767.695	1397.5
2771.175	1403.83
2774.652	1406.5
2778.127	1397.83
2781.598	1399.5
2785.067	1394.83
2788.532	1392.83
2791.995	1393.83
2795.455	1398.5
2798.911	1399.5
2802.365	1394.83
2805.816	1391.83
2809.264	1396.5
2812.709	1389.83
2816.151	1385.83
2819.59	1388.5
2823.026	1389.5
2826.46	1386.83
2829.89	1389.83
2833.318	1386.5
2836.742	1382.17
2840.164	1389.5
2843.583	1390.5
2846.999	1399.5
2850.412	1401.5
2853.822	1409.83
2857.229	1403.83
2860.634	1406.83
2864.035	1423.5
2867.434	1427.17
2870.83	1438.83
2874.223	1435.5
2877.613	1429.5
2881	1417.5
2884.385	1414.17
2887.766	1402.5
2891.145	1395.83
2894.521	1391.83
2897.894	1390.17
2901.264	1382.83
2904.631	1372.5
2907.996	1368.17
2911.358	1354.17
2914.717	1354.83
2918.073	1356.83
2921.426	1352.17
2924.777	1344.5
2928.124	1350.5
2931.469	1349.83
2934.811	1355.5
2938.15	1343.83
2941.487	1345.17
2944.821	1335.17
2948.152	1334.83
2951.48	1325.17
2954.805	1322.83
2958.128	1313.83
2961.447	1301.5
2964.765	1301.5
2968.079	1301.17
2971.39	1298.5
2974.699	1310.17
2978.005	1309.17
2981.308	1314.17
2984.609	1320.5
2987.907	1325.5
2991.202	1326.17
2994.494	1344.17
2997.784	1343.5
3001.07	1351.83
3004.355	1352.5
3007.636	1353.17
3010.915	1346.17
3014.191	1339.17
3017.464	1332.83
3020.734	1319.17
3024.002	1299.5
3027.267	1289.17
3030.53	1279.17
3033.789	1263.83
3037.046	1254.83
3040.301	1245.83
3043.552	1229.83
3046.801	1232.17
3050.048	1222.17
3053.291	1224.17
3056.532	1223.83
3059.771	1224.17
3063.006	1221.17
3066.239	1217.5
3069.469	1217.83
3072.697	1232.17
3075.922	1218.5
3079.144	1217.83
3082.364	1214.17
3085.581	1210.5
3088.795	1206.83
3092.007	1191.17
3095.216	1197.5
3098.423	1191.83
3101.627	1186.5
3104.828	1186.17
3108.026	1175.83
3111.222	1178.17
3114.416	1169.83
3117.607	1160.5
3120.795	1149.17
3123.98	1157.17
3127.163	1157.17
3130.344	1147.83
3133.521	1145.83
3136.696	1150.17
3139.869	1146.83
3143.039	1144.83
3146.206	1127.5
3149.371	1128.17
3152.533	1114.17
3155.693	1106.83
3158.85	1097.5
3162.005	1083.5
3165.157	1074.17
3168.306	1071.83
3171.453	1058.17
3174.597	1046.5
3177.739	1032.17
3180.878	1025.5
3184.014	1012.83
3187.149	1004.83
3190.28	1000.5
3193.409	994.5
3196.536	990.83
3199.659	985.17
3202.781	977.83
3205.9	978.83
3209.016	975.5
3212.13	965.83
3215.241	963.17
3218.35	951.17
3221.456	941.83
3224.56	933.5
3227.661	918.83
3230.76	911.5
3233.856	911.17
3236.95	896.5
3240.041	889.17
3243.13	885.17
3246.216	881.83
3249.3	874.83
3252.382	864.17
3255.46	873.5
3258.537	865.83
3261.611	862.17
3264.682	857.83
3267.751	865.17
3270.818	855.83
3273.882	862.17
3276.943	859.5
3280.002	852.17
3283.059	842.17
3286.113	840.17
3289.165	832.17
3292.214	820.83
3295.261	810.5
3298.306	803.5
3301.348	797.17
3304.387	783.17
3307.425	769.17
3310.459	764.5
3313.492	749.5
3316.521	748.5
3319.549	737.17
3322.574	735.5
3325.597	735.83
3328.617	719.17
3331.635	723.17
3334.65	721.17
3337.663	728.83
3340.674	714.83
3343.682	711.5
3346.688	712.17
3349.691	704.5
3352.692	707.17
3355.691	702.17
3358.687	691.83
3361.681	685.17
3364.673	677.17
3367.662	664.17
3370.649	666.5
3373.633	661.17
3376.615	646.17
3379.595	638.17
3382.572	635.5
3385.547	622.17
3388.52	617.17
3391.49	610.83
3394.458	612.5
3397.424	605.83
3400.387	601.83
3403.348	595.5
3406.307	585.17
3409.263	583.17
3412.217	583.5
3415.168	578.83
3418.118	577.5
3421.065	574.5
3424.009	564.83
3426.951	569.17
3429.891	559.83
3432.829	554.83
3435.764	554.83
3438.697	544.5
3441.628	539.5
3444.557	531.17
3447.483	527.17
3450.407	517.83
3453.328	508.17
3456.247	496.5
3459.164	494.83
3462.079	482.83
3464.991	477.83
3467.902	472.5
3470.809	467.5
3473.715	459.5
3476.618	450.83
3479.519	450.83
3482.418	445.17
3485.315	438.83
3488.209	439.5
3491.101	440.83
3493.99	427.5
3496.878	420.83
3499.763	423.17
3502.646	420.83
3505.527	414.83
3508.405	412.17
3511.281	405.83
3514.155	397.17
3517.027	390.17
3519.897	385.5
3522.764	372.83
3525.629	364.17
3528.492	361.5
3531.352	354.17
3534.211	349.17
3537.067	335.83
3539.921	332.5
3542.773	323.17
3545.622	313.5
3548.469	307.17
3551.315	306.83
3554.157	299.5
3556.998	296.83
3559.837	291.5
3562.673	287.17
3565.507	284.5
3568.339	282.5
3571.169	274.83
3573.996	271.17
3576.822	266.5
3579.645	262.83
3582.466	257.83
3585.285	257.17
3588.101	249.83
3590.916	241.17
3593.728	237.17
3596.538	231.5
3599.346	229.17
3602.152	224.17
3604.956	218.17
3607.757	215.83
3610.556	213.5
3613.354	204.5
3616.149	202.17
3618.942	199.83
3621.732	195.17
3624.521	194.83
3627.307	195.17
3630.092	189.5
3632.874	189.17
3635.654	190.5
3638.432	188.17
3641.208	182.17
3643.982	182.5
3646.753	183.17
3649.523	179.17
3652.29	173.17
3655.055	169.17
3657.818	169.5
3660.579	163.83
3663.338	161.17
3666.095	156.83
3668.849	154.83
3671.602	150.83
3674.352	150.83
3677.101	146.83
3679.847	143.17
3682.591	146.83
3685.333	143.5
3688.073	141.17
3690.811	141.5
3693.547	142.17
3696.281	140.83
3699.013	137.83
3701.742	136.17
3704.47	137.17
3707.195	144.83
3709.919	139.83
3712.64	138.5
3715.359	134.17
3718.076	133.17
3720.792	133.17
3723.505	129.5
3726.216	128.5
3728.925	129.83
3731.632	124.17
3734.336	122.83
3737.039	121.17
3739.74	119.5
3742.439	119.17
3745.136	119.5
3747.83	115.83
3750.523	116.17
3753.213	114.83
3755.902	115.83
3758.589	116.17
3761.273	112.17
3763.956	112.17
3766.636	108.17
3769.315	108.83
3771.991	107.17
3774.665	103.5
3777.338	102.83
3780.008	100.5
3782.677	98.83
3785.343	96.5
3788.007	93.17
3790.67	88.5
3793.33	88.5
3795.989	86.17
3798.645	86.5
3801.299	84.5
3803.952	83.83
3806.602	79.5
3809.251	79.5
3811.897	79.5
3814.542	78.17
3817.184	76.5
3819.825	73.5
3822.463	72.83
3825.1	69.17
3827.735	68.83
3830.367	67.5
3832.998	62.5
3835.627	62.5
3838.253	59.5
3840.878	56.83
3843.501	56.17
3846.122	51.83
3848.741	50.83
3851.358	49.17
3853.973	47.83
3856.586	47.5
3859.197	43.83
3861.806	42.5
3864.414	41.17
3867.019	40.5
3869.622	39.83
3872.224	37.17
3874.823	35.17
3877.421	29.83
3880.016	31.17
3882.61	30.83
3885.202	31.17
3887.792	25.83
3890.38	21.83
3892.966	20.17
3895.55	15.5
3898.132	14.17
3900.713	12.83
3903.291	10.83
3905.868	9.17
3908.442	7.5
3911.015	3.83
3913.586	3.5
3916.155	4.5
3918.722	1.83
3921.287	-0.17
3923.85	-1.5
3926.411	-1.5
3928.971	-5.17
3931.528	-2.83
3934.084	-5.5
3936.638	-5.83
3939.19	-9.5
3941.74	-7.5
3944.288	-8.83
3946.834	-8.83
3949.378	-9.17
3951.921	-12.5
3954.462	-10.5
3957	-10.5
3959.537	-9.5
3962.072	-8.5
3964.606	-10.83
3967.137	-12.83
3969.667	-11.83
3972.194	-16.17
3974.72	-12.5
3977.244	-13.83
3979.766	-10.5
3982.286	-10.83
3984.805	-13.83
3987.321	-11.17
3989.836	-12.83
3992.349	-11.83
3994.86	-11.17
3997.369	-14.5
3999.877	-12.5
4002.382	-14.17
4004.886	-15.5
4007.388	-13.17
4009.888	-15.17
4012.386	-17.5
4014.883	-16.5
4017.377	-18.17
4019.87	-16.5
4022.361	-18.5
4024.85	-15.5
4027.338	-19.17
4029.823	-17.5
4032.307	-17.83
4034.789	-17.5
4037.269	-18.83
4039.747	-20.5
4042.224	-20.5
4044.699	-19.83
4047.172	-22.5
4049.643	-21.17
4052.112	-20.17
4054.58	-20.5
4057.046	-23.5
4059.51	-22.5
4061.972	-25.83
4064.432	-22.17
4066.891	-23.17
4069.348	-22.17
4071.803	-24.17
4074.256	-22.5
4076.708	-25.17
4079.158	-25.5
4081.606	-24.83
4084.052	-24.83
4086.497	-23.17
4088.939	-22.5
4091.38	-23.83
4093.819	-25.17
4096.257	-33.5
4098.693	-33.5
4101.127	-34.5
4103.559	-35.5
4105.989	-16.83
4108.418	-15.17
4110.845	-15.83
4113.27	-10.17
4115.694	-10.17
4118.115	-9.17
4120.535	-25.83
4122.954	-25.5
4125.37	-25.83
4127.785	-24.17
4130.198	-26.83
4132.609	-25.17
4135.019	-35.83
4137.427	-33.5
4139.833	-34.17
4142.237	-35.5
