Data from SERS_Bac2_20uL_I=0.5_T=50s_RamanShift_5.txt Node
Date: Wed Jun 14 14:52:40 IDT 2017
User: aro
Spectrometer: QEPB0276
Trigger mode: 0
Integration Time (sec): 5.000000E1
Scans to average: 1
Electric dark correction enabled: true
Nonlinearity correction enabled: false
Boxcar width: 0
XAxis mode: Raman Shifts
Number of Pixels in Spectrum: 1044
>>>>>Begin Spectral Data<<<<<
160.701	3.25
166.742	53.25
172.777	177.25
178.805	576.25
184.826	1527.25
190.841	3269.25
196.849	5487.25
202.85	7172.25
208.845	7872.25
214.833	7883.25
220.815	7917.25
226.789	7979.25
232.758	8111.25
238.719	8238.25
244.674	8193.25
250.623	8145.25
256.565	8010.25
262.5	7903.25
268.429	7784.25
274.351	7637.25
280.267	7595.25
286.176	7512.25
292.079	7501.25
297.975	7495.25
303.865	7508.25
309.748	7480.25
315.625	7412.25
321.495	7177.25
327.359	7071.25
333.217	7017.25
339.068	6944.25
344.912	6816.25
350.751	6812.25
356.583	6730.25
362.408	6629.25
368.227	6593.25
374.04	6623.25
379.847	6617.25
385.647	6582.25
391.44	6501.25
397.228	6428.25
403.009	6401.25
408.784	6446.25
414.553	6638.25
420.315	6793.25
426.071	6790.25
431.821	6415.25
437.565	6083.25
443.302	5902.25
449.033	5749.25
454.758	5565.25
460.477	5426.25
466.189	5243.25
471.896	5055.25
477.596	4865.25
483.29	4717.25
488.978	4501.25
494.66	4249.25
500.335	3913.25
506.005	3613.25
511.668	3620.25
517.325	4220.25
522.977	5310.25
528.622	6199.25
534.261	6595.25
539.894	6586.25
545.521	6447.25
551.141	6299.25
556.756	6180.25
562.365	6091.25
567.968	5941.25
573.565	5836.25
579.155	5738.25
584.74	5658.25
590.319	5559.25
595.892	5412.25
601.459	5302.25
607.02	5177.25
612.575	5060.25
618.124	4992.25
623.667	5055.25
629.204	5135.25
634.735	5160.25
640.261	5163.25
645.781	5258.25
651.294	5308.25
656.802	5225.25
662.304	5113.25
667.8	5029.25
673.29	5001.25
678.775	4969.25
684.254	4915.25
689.726	4865.25
695.193	4796.25
700.655	4750.25
706.11	4700.25
711.56	4641.25
717.004	4585.25
722.442	4597.25
727.874	4562.25
733.301	4552.25
738.722	4559.25
744.137	4584.25
749.547	4610.25
754.951	4542.25
760.349	4485.25
765.741	4421.25
771.128	4408.25
776.509	4405.25
781.885	4351.25
787.254	4368.25
792.618	4376.25
797.977	4316.25
803.33	4283.25
808.677	4252.25
814.019	4192.25
819.355	4147.25
824.686	4093.25
830.011	4079.25
835.33	4012.25
840.644	4009.25
845.952	4014.25
851.255	3957.25
856.552	3959.25
861.844	3947.25
867.13	3908.25
872.41	3892.25
877.686	3832.25
882.955	3851.25
888.219	3789.25
893.478	3746.25
898.731	3682.25
903.979	3676.25
909.221	3659.25
914.458	3649.25
919.69	3666.25
924.916	3698.25
930.136	3732.25
935.351	3881.25
940.561	3984.25
945.766	4054.25
950.965	3987.25
956.158	3956.25
961.347	3868.25
966.529	3763.25
971.707	3678.25
976.879	3612.25
982.046	3562.25
987.208	3482.25
992.364	3417.25
997.515	3390.25
1002.66	3313.25
1007.801	3316.25
1012.936	3331.25
1018.066	3366.25
1023.19	3326.25
1028.309	3311.25
1033.423	3280.25
1038.532	3224.25
1043.636	3226.25
1048.734	3200.25
1053.827	3147.25
1058.915	3095.25
1063.998	3071.25
1069.075	3057.25
1074.147	3021.25
1079.214	3067.25
1084.276	3062.25
1089.333	3077.25
1094.385	3073.25
1099.431	3124.25
1104.472	3093.25
1109.509	3071.25
1114.54	3043.25
1119.565	2958.25
1124.586	2937.25
1129.602	2923.25
1134.613	2906.25
1139.618	2893.25
1144.619	2866.25
1149.614	2887.25
1154.604	2923.25
1159.589	2894.25
1164.57	2895.25
1169.545	2905.25
1174.515	2903.25
1179.48	2919.25
1184.44	2865.25
1189.395	2828.25
1194.345	2849.25
1199.29	2827.25
1204.23	2856.25
1209.165	2850.25
1214.095	2885.25
1219.021	2887.25
1223.941	2914.25
1228.856	2919.25
1233.766	2958.25
1238.672	2915.25
1243.572	2903.25
1248.467	2880.25
1253.358	2852.25
1258.244	2812.25
1263.124	2773.25
1268	2730.25
1272.871	2727.25
1277.737	2699.25
1282.599	2715.25
1287.455	2714.25
1292.306	2726.25
1297.153	2796.25
1301.995	2801.25
1306.832	2859.25
1311.664	2868.25
1316.491	2911.25
1321.314	2918.25
1326.132	2919.25
1330.945	2902.25
1335.753	2911.25
1340.556	2924.25
1345.354	2914.25
1350.148	2890.25
1354.937	2838.25
1359.722	2794.25
1364.501	2699.25
1369.276	2564.25
1374.046	2421.25
1378.811	2394.25
1383.572	2327.25
1388.327	2309.25
1393.079	2331.25
1397.825	2342.25
1402.567	2316.25
1407.304	2340.25
1412.036	2329.25
1416.764	2354.25
1421.487	2369.25
1426.205	2368.25
1430.919	2408.25
1435.628	2468.25
1440.333	2500.25
1445.032	2516.25
1449.727	2522.25
1454.418	2526.25
1459.104	2542.25
1463.785	2582.25
1468.462	2511.25
1473.134	2533.25
1477.802	2512.25
1482.465	2537.25
1487.123	2473.25
1491.777	2488.25
1496.426	2495.25
1501.071	2461.25
1505.711	2460.25
1510.347	2423.25
1514.978	2414.25
1519.604	2379.25
1524.226	2343.25
1528.844	2293.25
1533.457	2233.25
1538.065	2248.25
1542.669	2217.25
1547.269	2168.25
1551.864	2179.25
1556.454	2200.25
1561.041	2202.25
1565.622	2199.25
1570.199	2179.25
1574.772	2206.25
1579.34	2209.25
1583.904	2229.25
1588.464	2261.25
1593.019	2265.25
1597.569	2267.25
1602.115	2246.25
1606.657	2251.25
1611.195	2223.25
1615.728	2204.25
1620.256	2228.25
1624.78	2257.25
1629.3	2257.25
1633.816	2296.25
1638.327	2329.25
1642.834	2334.25
1647.336	2402.25
1651.834	2381.25
1656.328	2403.25
1660.817	2428.25
1665.302	2460.25
1669.783	2430.25
1674.259	2406.25
1678.732	2430.25
1683.199	2415.25
1687.663	2427.25
1692.122	2409.25
1696.577	2312.25
1701.028	2198.25
1705.474	2108.25
1709.917	2020.25
1714.355	1981.25
1718.788	1977.25
1723.218	2019.25
1727.643	2047.25
1732.064	2020.25
1736.481	2024.25
1740.893	1987.25
1745.301	1970.25
1749.705	1960.25
1754.105	1932.25
1758.501	1944.25
1762.893	1909.25
1767.28	1971.25
1771.663	1960.25
1776.042	1993.25
1780.417	2016.25
1784.787	2051.25
1789.154	2097.25
1793.516	2063.25
1797.874	2035.25
1802.228	1997.25
1806.578	1934.25
1810.924	1864.25
1815.266	1936.25
1819.603	1836.25
1823.937	1852.25
1828.266	1860.25
1832.591	1881.25
1836.913	1915.25
1841.23	1931.25
1845.543	1969.25
1849.852	1990.25
1854.156	2022.25
1858.457	2070.25
1862.754	2113.25
1867.047	2131.25
1871.335	2134.25
1875.62	2166.25
1879.9	2239.25
1884.177	2254.25
1888.449	2253.25
1892.718	2278.25
1896.982	2298.25
1901.243	2318.25
1905.499	2346.25
1909.752	2360.25
1914	2400.25
1918.245	2400.25
1922.485	2434.25
1926.722	2441.25
1930.954	2467.25
1935.183	2483.25
1939.408	2461.25
1943.628	2450.25
1947.845	2420.25
1952.058	2382.25
1956.267	2384.25
1960.472	2306.25
1964.673	2269.25
1968.87	2274.25
1973.063	2248.25
1977.252	2234.25
1981.438	2217.25
1985.619	2240.25
1989.797	2251.25
1993.971	2284.25
1998.14	2290.25
2002.306	2332.25
2006.469	2349.25
2010.627	2388.25
2014.781	2399.25
2018.932	2412.25
2023.078	2436.25
2027.221	2446.25
2031.36	2427.25
2035.495	2460.25
2039.627	2482.25
2043.754	2477.25
2047.878	2487.25
2051.998	2510.25
2056.114	2554.25
2060.226	2581.25
2064.334	2623.25
2068.439	2633.25
2072.54	2710.25
2076.637	2762.25
2080.73	2755.25
2084.82	2810.25
2088.906	2813.25
2092.988	2806.25
2097.066	2821.25
2101.14	2785.25
2105.211	2773.25
2109.278	2749.25
2113.342	2717.25
2117.401	2711.25
2121.457	2720.25
2125.509	2714.25
2129.558	2692.25
2133.602	2701.25
2137.643	2732.25
2141.681	2737.25
2145.714	2753.25
2149.744	2749.25
2153.77	2753.25
2157.793	2784.25
2161.812	2771.25
2165.827	2782.25
2169.838	2787.25
2173.846	2761.25
2177.851	2771.25
2181.851	2777.25
2185.848	2794.25
2189.841	2775.25
2193.831	2787.25
2197.817	2808.25
2201.799	2832.25
2205.778	2856.25
2209.753	2919.25
2213.725	2939.25
2217.693	2945.25
2221.657	2986.25
2225.618	3005.25
2229.575	3039.25
2233.529	3023.25
2237.479	3058.25
2241.425	3076.25
2245.368	3052.25
2249.307	3061.25
2253.243	3052.25
2257.175	3039.25
2261.104	3028.25
2265.029	3023.25
2268.95	3029.25
2272.868	3035.25
2276.783	3064.25
2280.694	3053.25
2284.601	3049.25
2288.505	3056.25
2292.405	3049.25
2296.302	3062.25
2300.195	3074.25
2304.085	3060.25
2307.971	3029.25
2311.854	3076.25
2315.734	3051.25
2319.609	3018.25
2323.482	3054.25
2327.351	3043.25
2331.216	3090.25
2335.078	3128.25
2338.937	3132.25
2342.792	3144.25
2346.643	3165.25
2350.492	3210.25
2354.336	3255.25
2358.178	3294.25
2362.015	3364.25
2365.85	3408.25
2369.681	3458.25
2373.508	3523.25
2377.333	3545.25
2381.153	3623.25
2384.971	3668.25
2388.785	3678.25
2392.595	3684.25
2396.402	3714.25
2400.206	3768.25
2404.007	3788.25
2407.804	3830.25
2411.597	3874.25
2415.388	3923.25
2419.174	3952.25
2422.958	4011.25
2426.738	4046.25
2430.515	4098.25
2434.289	4122.25
2438.059	4168.25
2441.825	4194.25
2445.589	4203.25
2449.349	4269.25
2453.106	4251.25
2456.859	4297.25
2460.61	4317.25
2464.356	4367.25
2468.1	4386.25
2471.84	4421.25
2475.577	4466.25
2479.311	4521.25
2483.041	4590.25
2486.768	4607.25
2490.492	4661.25
2494.213	4762.25
2497.93	4816.25
2501.644	4878.25
2505.355	4925.25
2509.062	4983.25
2512.766	5012.25
2516.467	5117.25
2520.165	5136.25
2523.859	5176.25
2527.551	5214.25
2531.239	5255.25
2534.923	5277.25
2538.605	5342.25
2542.283	5380.25
2545.958	5397.25
2549.63	5443.25
2553.299	5519.25
2556.964	5541.25
2560.626	5562.25
2564.285	5566.25
2567.941	5573.25
2571.594	5596.25
2575.243	5598.25
2578.89	5619.25
2582.533	5633.25
2586.173	5591.25
2589.809	5593.25
2593.443	5631.25
2597.073	5588.25
2600.701	5596.25
2604.325	5599.25
2607.946	5648.25
2611.564	5667.25
2615.178	5670.25
2618.79	5707.25
2622.398	5758.25
2626.004	5767.25
2629.606	5746.25
2633.205	5787.25
2636.801	5787.25
2640.394	5776.25
2643.983	5778.25
2647.57	5789.25
2651.153	5783.25
2654.734	5770.25
2658.311	5862.25
2661.885	5871.25
2665.456	5854.25
2669.025	5879.25
2672.589	5925.25
2676.151	5985.25
2679.71	5983.25
2683.266	6005.25
2686.819	6037.25
2690.368	6053.25
2693.915	6012.25
2697.458	6042.25
2700.999	6034.25
2704.536	6100.25
2708.071	6089.25
2711.602	6123.25
2715.13	6186.25
2718.656	6227.25
2722.178	6318.25
2725.697	6384.25
2729.214	6475.25
2732.727	6594.25
2736.237	6670.25
2739.744	6774.25
2743.249	6831.25
2746.75	6854.25
2750.248	6847.25
2753.743	6758.25
2757.236	6667.25
2760.725	6562.25
2764.211	6513.25
2767.695	6373.25
2771.175	6326.25
2774.652	6250.25
2778.127	6253.25
2781.598	6287.25
2785.067	6347.25
2788.532	6426.25
2791.995	6477.25
2795.455	6598.25
2798.911	6677.25
2802.365	6782.25
2805.816	6853.25
2809.264	6875.25
2812.709	6977.25
2816.151	6994.25
2819.59	7060.25
2823.026	7020.25
2826.46	7065.25
2829.89	7077.25
2833.318	7141.25
2836.742	7132.25
2840.164	7107.25
2843.583	7108.25
2846.999	7126.25
2850.412	7177.25
2853.822	7197.25
2857.229	7169.25
2860.634	7184.25
2864.035	7210.25
2867.434	7219.25
2870.83	7206.25
2874.223	7166.25
2877.613	7132.25
2881	7117.25
2884.385	7018.25
2887.766	6986.25
2891.145	6965.25
2894.521	6922.25
2897.894	6882.25
2901.264	6819.25
2904.631	6850.25
2907.996	6799.25
2911.358	6770.25
2914.717	6807.25
2918.073	6814.25
2921.426	6816.25
2924.777	6833.25
2928.124	6858.25
2931.469	6865.25
2934.811	6946.25
2938.15	6941.25
2941.487	6978.25
2944.821	6963.25
2948.152	6953.25
2951.48	7008.25
2954.805	6993.25
2958.128	6969.25
2961.447	6996.25
2964.765	6999.25
2968.079	7044.25
2971.39	7060.25
2974.699	7089.25
2978.005	7143.25
2981.308	7121.25
2984.609	7161.25
2987.907	7138.25
2991.202	7120.25
2994.494	7139.25
2997.784	7057.25
3001.07	6975.25
3004.355	6922.25
3007.636	6859.25
3010.915	6776.25
3014.191	6695.25
3017.464	6610.25
3020.734	6546.25
3024.002	6493.25
3027.267	6508.25
3030.53	6415.25
3033.789	6443.25
3037.046	6479.25
3040.301	6446.25
3043.552	6447.25
3046.801	6516.25
3050.048	6562.25
3053.291	6613.25
3056.532	6657.25
3059.771	6775.25
3063.006	6793.25
3066.239	6801.25
3069.469	6893.25
3072.697	6943.25
3075.922	6966.25
3079.144	6967.25
3082.364	6991.25
3085.581	6973.25
3088.795	7009.25
3092.007	6988.25
3095.216	7022.25
3098.423	6966.25
3101.627	6998.25
3104.828	6966.25
3108.026	6992.25
3111.222	7010.25
3114.416	6999.25
3117.607	6967.25
3120.795	6995.25
3123.98	6986.25
3127.163	7018.25
3130.344	7077.25
3133.521	7065.25
3136.696	7051.25
3139.869	7026.25
3143.039	7047.25
3146.206	6929.25
3149.371	6960.25
3152.533	6861.25
3155.693	6823.25
3158.85	6737.25
3162.005	6694.25
3165.157	6607.25
3168.306	6537.25
3171.453	6485.25
3174.597	6417.25
3177.739	6350.25
3180.878	6318.25
3184.014	6279.25
3187.149	6214.25
3190.28	6180.25
3193.409	6165.25
3196.536	6131.25
3199.659	6134.25
3202.781	6092.25
3205.9	6118.25
3209.016	6120.25
3212.13	6051.25
3215.241	6038.25
3218.35	5993.25
3221.456	5962.25
3224.56	5917.25
3227.661	5854.25
3230.76	5829.25
3233.856	5778.25
3236.95	5743.25
3240.041	5703.25
3243.13	5632.25
3246.216	5595.25
3249.3	5578.25
3252.382	5526.25
3255.46	5545.25
3258.537	5538.25
3261.611	5468.25
3264.682	5415.25
3267.751	5377.25
3270.818	5334.25
3273.882	5273.25
3276.943	5216.25
3280.002	5189.25
3283.059	5139.25
3286.113	5096.25
3289.165	5015.25
3292.214	4940.25
3295.261	4872.25
3298.306	4862.25
3301.348	4785.25
3304.387	4711.25
3307.425	4656.25
3310.459	4659.25
3313.492	4599.25
3316.521	4580.25
3319.549	4567.25
3322.574	4530.25
3325.597	4546.25
3328.617	4481.25
3331.635	4505.25
3334.65	4524.25
3337.663	4476.25
3340.674	4473.25
3343.682	4489.25
3346.688	4510.25
3349.691	4526.25
3352.692	4500.25
3355.691	4461.25
3358.687	4462.25
3361.681	4393.25
3364.673	4393.25
3367.662	4350.25
3370.649	4277.25
3373.633	4285.25
3376.615	4233.25
3379.595	4195.25
3382.572	4121.25
3385.547	4104.25
3388.52	4096.25
3391.49	4007.25
3394.458	3973.25
3397.424	3931.25
3400.387	3928.25
3403.348	3913.25
3406.307	3863.25
3409.263	3893.25
3412.217	3857.25
3415.168	3829.25
3418.118	3809.25
3421.065	3795.25
3424.009	3781.25
3426.951	3776.25
3429.891	3701.25
3432.829	3704.25
3435.764	3642.25
3438.697	3634.25
3441.628	3529.25
3444.557	3502.25
3447.483	3441.25
3450.407	3375.25
3453.328	3344.25
3456.247	3276.25
3459.164	3271.25
3462.079	3155.25
3464.991	3153.25
3467.902	3069.25
3470.809	3033.25
3473.715	2997.25
3476.618	2950.25
3479.519	2933.25
3482.418	2907.25
3485.315	2841.25
3488.209	2843.25
3491.101	2768.25
3493.99	2762.25
3496.878	2750.25
3499.763	2692.25
3502.646	2650.25
3505.527	2648.25
3508.405	2602.25
3511.281	2583.25
3514.155	2487.25
3517.027	2419.25
3519.897	2401.25
3522.764	2306.25
3525.629	2258.25
3528.492	2212.25
3531.352	2153.25
3534.211	2076.25
3537.067	2056.25
3539.921	2026.25
3542.773	1960.25
3545.622	1904.25
3548.469	1894.25
3551.315	1863.25
3554.157	1816.25
3556.998	1768.25
3559.837	1754.25
3562.673	1725.25
3565.507	1704.25
3568.339	1672.25
3571.169	1642.25
3573.996	1619.25
3576.822	1594.25
3579.645	1590.25
3582.466	1539.25
3585.285	1491.25
3588.101	1473.25
3590.916	1443.25
3593.728	1400.25
3596.538	1371.25
3599.346	1323.25
3602.152	1329.25
3604.956	1305.25
3607.757	1262.25
3610.556	1225.25
3613.354	1188.25
3616.149	1170.25
3618.942	1145.25
3621.732	1114.25
3624.521	1127.25
3627.307	1093.25
3630.092	1076.25
3632.874	1056.25
3635.654	1063.25
3638.432	1061.25
3641.208	1019.25
3643.982	1001.25
3646.753	1005.25
3649.523	1013.25
3652.29	964.25
3655.055	956.25
3657.818	955.25
3660.579	924.25
3663.338	935.25
3666.095	919.25
3668.849	936.25
3671.602	874.25
3674.352	908.25
3677.101	880.25
3679.847	861.25
3682.591	872.25
3685.333	897.25
3688.073	862.25
3690.811	872.25
3693.547	900.25
3696.281	866.25
3699.013	882.25
3701.742	873.25
3704.47	892.25
3707.195	872.25
3709.919	860.25
3712.64	854.25
3715.359	867.25
3718.076	832.25
3720.792	827.25
3723.505	837.25
3726.216	804.25
3728.925	829.25
3731.632	801.25
3734.336	799.25
3737.039	783.25
3739.74	766.25
3742.439	798.25
3745.136	770.25
3747.83	755.25
3750.523	752.25
3753.213	845.25
3755.902	751.25
3758.589	769.25
3761.273	742.25
3763.956	735.25
3766.636	736.25
3769.315	703.25
3771.991	703.25
3774.665	696.25
3777.338	683.25
3780.008	676.25
3782.677	653.25
3785.343	642.25
3788.007	651.25
3790.67	593.25
3793.33	616.25
3795.989	594.25
3798.645	577.25
3801.299	592.25
3803.952	579.25
3806.602	559.25
3809.251	552.25
3811.897	539.25
3814.542	549.25
3817.184	550.25
3819.825	532.25
3822.463	506.25
3825.1	507.25
3827.735	487.25
3830.367	491.25
3832.998	471.25
3835.627	442.25
3838.253	424.25
3840.878	425.25
3843.501	397.25
3846.122	406.25
3848.741	383.25
3851.358	378.25
3853.973	378.25
3856.586	348.25
3859.197	340.25
3861.806	338.25
3864.414	334.25
3867.019	325.25
3869.622	322.25
3872.224	305.25
3874.823	308.25
3877.421	303.25
3880.016	280.25
3882.61	289.25
3885.202	284.25
3887.792	262.25
3890.38	230.25
3892.966	209.25
3895.55	212.25
3898.132	165.25
3900.713	155.25
3903.291	154.25
3905.868	148.25
3908.442	117.25
3911.015	109.25
3913.586	98.25
3916.155	90.25
3918.722	81.25
3921.287	73.25
3923.85	87.25
3926.411	67.25
3928.971	51.25
3931.528	49.25
3934.084	49.25
3936.638	41.25
3939.19	42.25
3941.74	21.25
3944.288	14.25
3946.834	16.25
3949.378	9.25
3951.921	16.25
3954.462	6.25
3957	-3.75
3959.537	-0.75
3962.072	21.25
3964.606	18.25
3967.137	-10.75
3969.667	-3.75
3972.194	-6.75
3974.72	-8.75
3977.244	18.25
3979.766	11.25
3982.286	4.25
3984.805	-17.75
3987.321	-24.75
3989.836	-12.75
3992.349	-15.75
3994.86	-20.75
3997.369	-6.75
3999.877	-33.75
4002.382	-30.75
4004.886	-33.75
4007.388	-27.75
4009.888	-40.75
4012.386	-39.75
4014.883	-42.75
4017.377	-37.75
4019.87	-43.75
4022.361	-40.75
4024.85	-41.75
4027.338	-45.75
4029.823	-53.75
4032.307	-44.75
4034.789	-54.75
4037.269	-49.75
4039.747	-30.75
4042.224	-63.75
4044.699	-31.75
4047.172	-68.75
4049.643	-77.75
4052.112	-44.75
4054.58	-71.75
4057.046	-58.75
4059.51	-65.75
4061.972	-74.75
4064.432	-38.75
4066.891	-87.75
4069.348	-81.75
4071.803	-81.75
4074.256	-92.75
4076.708	-92.75
4079.158	-87.75
4081.606	-106.75
4084.052	-80.75
4086.497	-103.75
4088.939	-94.75
4091.38	-91.75
4093.819	-92.75
4096.257	-183.75
4098.693	-195.75
4101.127	-200.75
4103.559	-192.75
4105.989	-45.75
4108.418	-41.75
4110.845	-30.75
4113.27	-30.75
4115.694	-21.75
4118.115	1.25
4120.535	-113.75
4122.954	-106.75
4125.37	-120.75
4127.785	-112.75
4130.198	-105.75
4132.609	-109.75
4135.019	-203.75
4137.427	-198.75
4139.833	-203.75
4142.237	-203.75
