Data from SERS_Bac2_20uL_I=0.5_T=20s_RamanShift_3.txt Node
Date: Wed Jun 14 14:46:02 IDT 2017
User: aro
Spectrometer: QEPB0276
Trigger mode: 0
Integration Time (sec): 2.000000E1
Scans to average: 1
Electric dark correction enabled: true
Nonlinearity correction enabled: false
Boxcar width: 0
XAxis mode: Raman Shifts
Number of Pixels in Spectrum: 1044
>>>>>Begin Spectral Data<<<<<
160.701	-2.88
166.742	10.12
172.777	59.12
178.805	220.12
184.826	641.12
190.841	1390.12
196.849	2331.12
202.85	3041.12
208.845	3292.12
214.833	3336.12
220.815	3366.12
226.789	3412.12
232.758	3421.12
238.719	3456.12
244.674	3491.12
250.623	3441.12
256.565	3411.12
262.5	3329.12
268.429	3246.12
274.351	3221.12
280.267	3183.12
286.176	3151.12
292.079	3144.12
297.975	3120.12
303.865	3125.12
309.748	3117.12
315.625	3071.12
321.495	3014.12
327.359	2970.12
333.217	2908.12
339.068	2900.12
344.912	2876.12
350.751	2851.12
356.583	2803.12
362.408	2785.12
368.227	2765.12
374.04	2755.12
379.847	2790.12
385.647	2789.12
391.44	2717.12
397.228	2678.12
403.009	2651.12
408.784	2701.12
414.553	2764.12
420.315	2832.12
426.071	2824.12
431.821	2676.12
437.565	2555.12
443.302	2486.12
449.033	2393.12
454.758	2325.12
460.477	2283.12
466.189	2219.12
471.896	2125.12
477.596	2072.12
483.29	1998.12
488.978	1887.12
494.66	1785.12
500.335	1654.12
506.005	1549.12
511.668	1530.12
517.325	1788.12
522.977	2216.12
528.622	2604.12
534.261	2739.12
539.894	2742.12
545.521	2697.12
551.141	2637.12
556.756	2596.12
562.365	2536.12
567.968	2503.12
573.565	2445.12
579.155	2377.12
584.74	2362.12
590.319	2343.12
595.892	2278.12
601.459	2234.12
607.02	2185.12
612.575	2147.12
618.124	2119.12
623.667	2127.12
629.204	2161.12
634.735	2163.12
640.261	2166.12
645.781	2219.12
651.294	2206.12
656.802	2190.12
662.304	2123.12
667.8	2109.12
673.29	2090.12
678.775	2069.12
684.254	2053.12
689.726	2027.12
695.193	1999.12
700.655	1984.12
706.11	1968.12
711.56	1952.12
717.004	1925.12
722.442	1929.12
727.874	1921.12
733.301	1903.12
738.722	1900.12
744.137	1914.12
749.547	1919.12
754.951	1912.12
760.349	1890.12
765.741	1868.12
771.128	1840.12
776.509	1881.12
781.885	1847.12
787.254	1839.12
792.618	1853.12
797.977	1827.12
803.33	1819.12
808.677	1809.12
814.019	1762.12
819.355	1752.12
824.686	1718.12
830.011	1724.12
835.33	1717.12
840.644	1686.12
845.952	1702.12
851.255	1664.12
856.552	1679.12
861.844	1659.12
867.13	1660.12
872.41	1664.12
877.686	1633.12
882.955	1623.12
888.219	1583.12
893.478	1586.12
898.731	1578.12
903.979	1566.12
909.221	1556.12
914.458	1549.12
919.69	1566.12
924.916	1565.12
930.136	1594.12
935.351	1655.12
940.561	1697.12
945.766	1710.12
950.965	1707.12
956.158	1681.12
961.347	1620.12
966.529	1601.12
971.707	1569.12
976.879	1539.12
982.046	1518.12
987.208	1479.12
992.364	1442.12
997.515	1441.12
1002.66	1423.12
1007.801	1425.12
1012.936	1413.12
1018.066	1412.12
1023.19	1421.12
1028.309	1424.12
1033.423	1416.12
1038.532	1391.12
1043.636	1382.12
1048.734	1360.12
1053.827	1338.12
1058.915	1324.12
1063.998	1311.12
1069.075	1290.12
1074.147	1311.12
1079.214	1309.12
1084.276	1311.12
1089.333	1316.12
1094.385	1324.12
1099.431	1334.12
1104.472	1325.12
1109.509	1314.12
1114.54	1294.12
1119.565	1267.12
1124.586	1261.12
1129.602	1243.12
1134.613	1232.12
1139.618	1222.12
1144.619	1236.12
1149.614	1225.12
1154.604	1241.12
1159.589	1230.12
1164.57	1233.12
1169.545	1250.12
1174.515	1238.12
1179.48	1242.12
1184.44	1233.12
1189.395	1207.12
1194.345	1206.12
1199.29	1213.12
1204.23	1199.12
1209.165	1207.12
1214.095	1220.12
1219.021	1227.12
1223.941	1226.12
1228.856	1230.12
1233.766	1236.12
1238.672	1228.12
1243.572	1229.12
1248.467	1235.12
1253.358	1199.12
1258.244	1189.12
1263.124	1182.12
1268	1173.12
1272.871	1165.12
1277.737	1147.12
1282.599	1144.12
1287.455	1148.12
1292.306	1155.12
1297.153	1163.12
1301.995	1173.12
1306.832	1185.12
1311.664	1178.12
1316.491	1204.12
1321.314	1210.12
1326.132	1189.12
1330.945	1219.12
1335.753	1185.12
1340.556	1202.12
1345.354	1196.12
1350.148	1196.12
1354.937	1173.12
1359.722	1149.12
1364.501	1115.12
1369.276	1083.12
1374.046	1037.12
1378.811	998.12
1383.572	986.12
1388.327	965.12
1393.079	962.12
1397.825	955.12
1402.567	965.12
1407.304	976.12
1412.036	980.12
1416.764	984.12
1421.487	990.12
1426.205	1007.12
1430.919	1015.12
1435.628	1020.12
1440.333	1029.12
1445.032	1044.12
1449.727	1050.12
1454.418	1051.12
1459.104	1062.12
1463.785	1061.12
1468.462	1040.12
1473.134	1052.12
1477.802	1029.12
1482.465	1030.12
1487.123	1030.12
1491.777	1019.12
1496.426	1030.12
1501.071	1042.12
1505.711	1023.12
1510.347	1035.12
1514.978	1008.12
1519.604	1010.12
1524.226	978.12
1528.844	973.12
1533.457	948.12
1538.065	927.12
1542.669	931.12
1547.269	909.12
1551.864	920.12
1556.454	916.12
1561.041	924.12
1565.622	925.12
1570.199	922.12
1574.772	924.12
1579.34	945.12
1583.904	956.12
1588.464	960.12
1593.019	955.12
1597.569	953.12
1602.115	971.12
1606.657	948.12
1611.195	953.12
1615.728	956.12
1620.256	935.12
1624.78	961.12
1629.3	969.12
1633.816	983.12
1638.327	976.12
1642.834	997.12
1647.336	1007.12
1651.834	1014.12
1656.328	1028.12
1660.817	1040.12
1665.302	1028.12
1669.783	1031.12
1674.259	1015.12
1678.732	1029.12
1683.199	1021.12
1687.663	1028.12
1692.122	1012.12
1696.577	978.12
1701.028	956.12
1705.474	907.12
1709.917	845.12
1714.355	842.12
1718.788	835.12
1723.218	850.12
1727.643	853.12
1732.064	854.12
1736.481	864.12
1740.893	836.12
1745.301	831.12
1749.705	808.12
1754.105	799.12
1758.501	792.12
1762.893	798.12
1767.28	817.12
1771.663	806.12
1776.042	840.12
1780.417	847.12
1784.787	862.12
1789.154	855.12
1793.516	865.12
1797.874	847.12
1802.228	820.12
1806.578	795.12
1810.924	790.12
1815.266	744.12
1819.603	763.12
1823.937	774.12
1828.266	766.12
1832.591	782.12
1836.913	787.12
1841.23	793.12
1845.543	808.12
1849.852	818.12
1854.156	815.12
1858.457	856.12
1862.754	837.12
1867.047	880.12
1871.335	880.12
1875.62	908.12
1879.9	905.12
1884.177	915.12
1888.449	919.12
1892.718	930.12
1896.982	930.12
1901.243	937.12
1905.499	958.12
1909.752	964.12
1914	976.12
1918.245	982.12
1922.485	991.12
1926.722	990.12
1930.954	1011.12
1935.183	997.12
1939.408	999.12
1943.628	987.12
1947.845	994.12
1952.058	974.12
1956.267	949.12
1960.472	943.12
1964.673	912.12
1968.87	909.12
1973.063	915.12
1977.252	902.12
1981.438	892.12
1985.619	902.12
1989.797	909.12
1993.971	915.12
1998.14	920.12
2002.306	935.12
2006.469	951.12
2010.627	959.12
2014.781	966.12
2018.932	965.12
2023.078	986.12
2027.221	987.12
2031.36	991.12
2035.495	990.12
2039.627	983.12
2043.754	999.12
2047.878	1012.12
2051.998	1014.12
2056.114	1033.12
2060.226	1032.12
2064.334	1072.12
2068.439	1088.12
2072.54	1084.12
2076.637	1109.12
2080.73	1112.12
2084.82	1129.12
2088.906	1129.12
2092.988	1128.12
2097.066	1112.12
2101.14	1127.12
2105.211	1108.12
2109.278	1110.12
2113.342	1094.12
2117.401	1104.12
2121.457	1087.12
2125.509	1094.12
2129.558	1088.12
2133.602	1079.12
2137.643	1097.12
2141.681	1093.12
2145.714	1114.12
2149.744	1100.12
2153.77	1109.12
2157.793	1117.12
2161.812	1107.12
2165.827	1105.12
2169.838	1112.12
2173.846	1105.12
2177.851	1125.12
2181.851	1127.12
2185.848	1121.12
2189.841	1100.12
2193.831	1122.12
2197.817	1129.12
2201.799	1152.12
2205.778	1150.12
2209.753	1167.12
2213.725	1164.12
2217.693	1188.12
2221.657	1190.12
2225.618	1209.12
2229.575	1241.12
2233.529	1210.12
2237.479	1229.12
2241.425	1237.12
2245.368	1230.12
2249.307	1218.12
2253.243	1218.12
2257.175	1226.12
2261.104	1215.12
2265.029	1200.12
2268.95	1219.12
2272.868	1215.12
2276.783	1224.12
2280.694	1212.12
2284.601	1228.12
2288.505	1223.12
2292.405	1216.12
2296.302	1219.12
2300.195	1226.12
2304.085	1235.12
2307.971	1210.12
2311.854	1211.12
2315.734	1202.12
2319.609	1220.12
2323.482	1222.12
2327.351	1220.12
2331.216	1233.12
2335.078	1256.12
2338.937	1251.12
2342.792	1250.12
2346.643	1276.12
2350.492	1287.12
2354.336	1300.12
2358.178	1320.12
2362.015	1334.12
2365.85	1376.12
2369.681	1390.12
2373.508	1404.12
2377.333	1426.12
2381.153	1433.12
2384.971	1454.12
2388.785	1462.12
2392.595	1471.12
2396.402	1487.12
2400.206	1493.12
2404.007	1510.12
2407.804	1526.12
2411.597	1550.12
2415.388	1561.12
2419.174	1573.12
2422.958	1596.12
2426.738	1595.12
2430.515	1613.12
2434.289	1648.12
2438.059	1653.12
2441.825	1683.12
2445.589	1677.12
2449.349	1699.12
2453.106	1712.12
2456.859	1695.12
2460.61	1725.12
2464.356	1721.12
2468.1	1732.12
2471.84	1760.12
2475.577	1761.12
2479.311	1784.12
2483.041	1811.12
2486.768	1834.12
2490.492	1863.12
2494.213	1879.12
2497.93	1916.12
2501.644	1940.12
2505.355	1954.12
2509.062	1964.12
2512.766	1993.12
2516.467	2020.12
2520.165	2027.12
2523.859	2042.12
2527.551	2065.12
2531.239	2062.12
2534.923	2084.12
2538.605	2121.12
2542.283	2103.12
2545.958	2137.12
2549.63	2172.12
2553.299	2172.12
2556.964	2195.12
2560.626	2195.12
2564.285	2197.12
2567.941	2201.12
2571.594	2211.12
2575.243	2228.12
2578.89	2212.12
2582.533	2214.12
2586.173	2218.12
2589.809	2209.12
2593.443	2232.12
2597.073	2216.12
2600.701	2216.12
2604.325	2220.12
2607.946	2243.12
2611.564	2232.12
2615.178	2268.12
2618.79	2269.12
2622.398	2273.12
2626.004	2282.12
2629.606	2280.12
2633.205	2289.12
2636.801	2296.12
2640.394	2282.12
2643.983	2286.12
2647.57	2300.12
2651.153	2292.12
2654.734	2330.12
2658.311	2332.12
2661.885	2307.12
2665.456	2309.12
2669.025	2339.12
2672.589	2343.12
2676.151	2368.12
2679.71	2373.12
2683.266	2390.12
2686.819	2400.12
2690.368	2379.12
2693.915	2389.12
2697.458	2403.12
2700.999	2405.12
2704.536	2411.12
2708.071	2439.12
2711.602	2429.12
2715.13	2462.12
2718.656	2476.12
2722.178	2483.12
2725.697	2539.12
2729.214	2566.12
2732.727	2604.12
2736.237	2656.12
2739.744	2689.12
2743.249	2711.12
2746.75	2710.12
2750.248	2726.12
2753.743	2679.12
2757.236	2644.12
2760.725	2600.12
2764.211	2554.12
2767.695	2497.12
2771.175	2496.12
2774.652	2477.12
2778.127	2474.12
2781.598	2492.12
2785.067	2528.12
2788.532	2545.12
2791.995	2585.12
2795.455	2625.12
2798.911	2662.12
2802.365	2687.12
2805.816	2704.12
2809.264	2723.12
2812.709	2777.12
2816.151	2778.12
2819.59	2778.12
2823.026	2798.12
2826.46	2807.12
2829.89	2808.12
2833.318	2850.12
2836.742	2819.12
2840.164	2833.12
2843.583	2822.12
2846.999	2850.12
2850.412	2834.12
2853.822	2853.12
2857.229	2880.12
2860.634	2860.12
2864.035	2863.12
2867.434	2861.12
2870.83	2860.12
2874.223	2854.12
2877.613	2833.12
2881	2815.12
2884.385	2793.12
2887.766	2800.12
2891.145	2765.12
2894.521	2751.12
2897.894	2721.12
2901.264	2727.12
2904.631	2712.12
2907.996	2713.12
2911.358	2717.12
2914.717	2691.12
2918.073	2701.12
2921.426	2707.12
2924.777	2738.12
2928.124	2726.12
2931.469	2775.12
2934.811	2767.12
2938.15	2773.12
2941.487	2764.12
2944.821	2777.12
2948.152	2794.12
2951.48	2783.12
2954.805	2802.12
2958.128	2777.12
2961.447	2792.12
2964.765	2823.12
2968.079	2826.12
2971.39	2808.12
2974.699	2842.12
2978.005	2853.12
2981.308	2873.12
2984.609	2854.12
2987.907	2854.12
2991.202	2847.12
2994.494	2860.12
2997.784	2832.12
3001.07	2790.12
3004.355	2775.12
3007.636	2738.12
3010.915	2709.12
3014.191	2684.12
3017.464	2655.12
3020.734	2601.12
3024.002	2627.12
3027.267	2610.12
3030.53	2594.12
3033.789	2602.12
3037.046	2580.12
3040.301	2576.12
3043.552	2595.12
3046.801	2605.12
3050.048	2628.12
3053.291	2663.12
3056.532	2678.12
3059.771	2701.12
3063.006	2723.12
3066.239	2731.12
3069.469	2757.12
3072.697	2764.12
3075.922	2787.12
3079.144	2796.12
3082.364	2813.12
3085.581	2811.12
3088.795	2831.12
3092.007	2798.12
3095.216	2825.12
3098.423	2833.12
3101.627	2807.12
3104.828	2841.12
3108.026	2793.12
3111.222	2796.12
3114.416	2814.12
3117.607	2827.12
3120.795	2821.12
3123.98	2847.12
3127.163	2822.12
3130.344	2846.12
3133.521	2833.12
3136.696	2864.12
3139.869	2847.12
3143.039	2813.12
3146.206	2835.12
3149.371	2808.12
3152.533	2777.12
3155.693	2768.12
3158.85	2716.12
3162.005	2696.12
3165.157	2664.12
3168.306	2639.12
3171.453	2616.12
3174.597	2580.12
3177.739	2565.12
3180.878	2542.12
3184.014	2512.12
3187.149	2514.12
3190.28	2508.12
3193.409	2504.12
3196.536	2486.12
3199.659	2467.12
3202.781	2471.12
3205.9	2493.12
3209.016	2467.12
3212.13	2449.12
3215.241	2454.12
3218.35	2425.12
3221.456	2420.12
3224.56	2399.12
3227.661	2384.12
3230.76	2356.12
3233.856	2322.12
3236.95	2317.12
3240.041	2309.12
3243.13	2294.12
3246.216	2259.12
3249.3	2249.12
3252.382	2238.12
3255.46	2237.12
3258.537	2216.12
3261.611	2208.12
3264.682	2183.12
3267.751	2180.12
3270.818	2143.12
3273.882	2142.12
3276.943	2109.12
3280.002	2103.12
3283.059	2094.12
3286.113	2073.12
3289.165	2029.12
3292.214	2026.12
3295.261	1996.12
3298.306	1955.12
3301.348	1946.12
3304.387	1892.12
3307.425	1917.12
3310.459	1875.12
3313.492	1876.12
3316.521	1833.12
3319.549	1852.12
3322.574	1844.12
3325.597	1832.12
3328.617	1839.12
3331.635	1845.12
3334.65	1832.12
3337.663	1843.12
3340.674	1819.12
3343.682	1837.12
3346.688	1834.12
3349.691	1821.12
3352.692	1812.12
3355.691	1825.12
3358.687	1808.12
3361.681	1798.12
3364.673	1778.12
3367.662	1760.12
3370.649	1724.12
3373.633	1741.12
3376.615	1709.12
3379.595	1682.12
3382.572	1679.12
3385.547	1663.12
3388.52	1647.12
3391.49	1642.12
3394.458	1621.12
3397.424	1607.12
3400.387	1590.12
3403.348	1572.12
3406.307	1586.12
3409.263	1573.12
3412.217	1566.12
3415.168	1565.12
3418.118	1556.12
3421.065	1547.12
3424.009	1535.12
3426.951	1501.12
3429.891	1498.12
3432.829	1504.12
3435.764	1460.12
3438.697	1462.12
3441.628	1430.12
3444.557	1409.12
3447.483	1382.12
3450.407	1374.12
3453.328	1340.12
3456.247	1328.12
3459.164	1295.12
3462.079	1269.12
3464.991	1262.12
3467.902	1248.12
3470.809	1224.12
3473.715	1200.12
3476.618	1187.12
3479.519	1184.12
3482.418	1153.12
3485.315	1134.12
3488.209	1137.12
3491.101	1124.12
3493.99	1112.12
3496.878	1095.12
3499.763	1099.12
3502.646	1082.12
3505.527	1056.12
3508.405	1048.12
3511.281	1014.12
3514.155	992.12
3517.027	976.12
3519.897	965.12
3522.764	929.12
3525.629	896.12
3528.492	896.12
3531.352	864.12
3534.211	834.12
3537.067	815.12
3539.921	808.12
3542.773	783.12
3545.622	756.12
3548.469	758.12
3551.315	735.12
3554.157	730.12
3556.998	711.12
3559.837	683.12
3562.673	688.12
3565.507	678.12
3568.339	672.12
3571.169	653.12
3573.996	652.12
3576.822	626.12
3579.645	623.12
3582.466	614.12
3585.285	596.12
3588.101	589.12
3590.916	590.12
3593.728	567.12
3596.538	552.12
3599.346	533.12
3602.152	525.12
3604.956	517.12
3607.757	497.12
3610.556	487.12
3613.354	473.12
3616.149	456.12
3618.942	451.12
3621.732	441.12
3624.521	437.12
3627.307	423.12
3630.092	412.12
3632.874	415.12
3635.654	416.12
3638.432	406.12
3641.208	405.12
3643.982	395.12
3646.753	397.12
3649.523	389.12
3652.29	386.12
3655.055	388.12
3657.818	378.12
3660.579	368.12
3663.338	351.12
3666.095	358.12
3668.849	352.12
3671.602	350.12
3674.352	349.12
3677.101	355.12
3679.847	338.12
3682.591	338.12
3685.333	342.12
3688.073	337.12
3690.811	336.12
3693.547	342.12
3696.281	342.12
3699.013	346.12
3701.742	354.12
3704.47	351.12
3707.195	351.12
3709.919	341.12
3712.64	347.12
3715.359	330.12
3718.076	333.12
3720.792	329.12
3723.505	327.12
3726.216	310.12
3728.925	319.12
3731.632	310.12
3734.336	305.12
3737.039	298.12
3739.74	288.12
3742.439	295.12
3745.136	299.12
3747.83	294.12
3750.523	285.12
3753.213	294.12
3755.902	286.12
3758.589	292.12
3761.273	291.12
3763.956	286.12
3766.636	292.12
3769.315	279.12
3771.991	285.12
3774.665	266.12
3777.338	274.12
3780.008	258.12
3782.677	259.12
3785.343	244.12
3788.007	235.12
3790.67	233.12
3793.33	234.12
3795.989	222.12
3798.645	214.12
3801.299	220.12
3803.952	219.12
3806.602	219.12
3809.251	209.12
3811.897	200.12
3814.542	207.12
3817.184	199.12
3819.825	201.12
3822.463	201.12
3825.1	203.12
3827.735	186.12
3830.367	180.12
3832.998	181.12
3835.627	174.12
3838.253	166.12
3840.878	159.12
3843.501	151.12
3846.122	153.12
3848.741	146.12
3851.358	143.12
3853.973	138.12
3856.586	135.12
3859.197	124.12
3861.806	124.12
3864.414	120.12
3867.019	118.12
3869.622	122.12
3872.224	113.12
3874.823	112.12
3877.421	108.12
3880.016	99.12
3882.61	103.12
3885.202	92.12
3887.792	95.12
3890.38	76.12
3892.966	69.12
3895.55	65.12
3898.132	55.12
3900.713	49.12
3903.291	40.12
3905.868	34.12
3908.442	30.12
3911.015	30.12
3913.586	27.12
3916.155	21.12
3918.722	13.12
3921.287	18.12
3923.85	15.12
3926.411	13.12
3928.971	18.12
3931.528	3.12
3934.084	10.12
3936.638	7.12
3939.19	4.12
3941.74	-3.88
3944.288	-2.88
3946.834	-7.88
3949.378	-4.88
3951.921	-6.88
3954.462	-14.88
3957	-10.88
3959.537	-11.88
3962.072	-18.88
3964.606	-15.88
3967.137	-10.88
3969.667	-16.88
3972.194	-18.88
3974.72	-14.88
3977.244	-10.88
3979.766	-11.88
3982.286	-17.88
3984.805	-16.88
3987.321	-21.88
3989.836	-20.88
3992.349	-19.88
3994.86	-25.88
3997.369	-24.88
3999.877	-22.88
4002.382	-23.88
4004.886	-25.88
4007.388	-30.88
4009.888	-25.88
4012.386	-32.88
4014.883	-23.88
4017.377	-36.88
4019.87	-30.88
4022.361	-31.88
4024.85	-35.88
4027.338	-31.88
4029.823	-29.88
4032.307	-33.88
4034.789	-32.88
4037.269	-36.88
4039.747	-28.88
4042.224	-32.88
4044.699	-35.88
4047.172	-42.88
4049.643	-33.88
4052.112	-39.88
4054.58	-35.88
4057.046	-40.88
4059.51	-43.88
4061.972	-42.88
4064.432	-43.88
4066.891	-47.88
4069.348	-48.88
4071.803	-45.88
4074.256	-49.88
4076.708	-50.88
4079.158	-51.88
4081.606	-49.88
4084.052	-50.88
4086.497	-51.88
4088.939	-51.88
4091.38	-51.88
4093.819	-46.88
4096.257	-69.88
4098.693	-70.88
4101.127	-69.88
4103.559	-70.88
4105.989	-32.88
4108.418	-28.88
4110.845	-31.88
4113.27	-19.88
4115.694	-24.88
4118.115	-11.88
4120.535	-48.88
4122.954	-49.88
4125.37	-50.88
4127.785	-48.88
4130.198	-49.88
4132.609	-62.88
4135.019	-71.88
4137.427	-71.88
4139.833	-71.88
4142.237	-70.88
