Data from SERS_Bac_20uL_I=0.5_T=20s_RamanShift_4.txt Node
Date: Wed Jun 14 14:39:21 IDT 2017
User: aro
Spectrometer: QEPB0276
Trigger mode: 0
Integration Time (sec): 2.000000E1
Scans to average: 1
Electric dark correction enabled: true
Nonlinearity correction enabled: false
Boxcar width: 0
XAxis mode: Raman Shifts
Number of Pixels in Spectrum: 1044
>>>>>Begin Spectral Data<<<<<
160.701	-5.12
166.742	8.88
172.777	55.88
178.805	206.88
184.826	592.88
190.841	1274.88
196.849	2137.88
202.85	2805.88
208.845	3060.88
214.833	3122.88
220.815	3137.88
226.789	3178.88
232.758	3267.88
238.719	3327.88
244.674	3340.88
250.623	3308.88
256.565	3284.88
262.5	3220.88
268.429	3138.88
274.351	3097.88
280.267	3042.88
286.176	3002.88
292.079	2991.88
297.975	2986.88
303.865	2999.88
309.748	2963.88
315.625	2930.88
321.495	2878.88
327.359	2815.88
333.217	2760.88
339.068	2752.88
344.912	2727.88
350.751	2672.88
356.583	2656.88
362.408	2627.88
368.227	2620.88
374.04	2612.88
379.847	2627.88
385.647	2625.88
391.44	2555.88
397.228	2518.88
403.009	2529.88
408.784	2546.88
414.553	2602.88
420.315	2690.88
426.071	2678.88
431.821	2520.88
437.565	2397.88
443.302	2304.88
449.033	2256.88
454.758	2194.88
460.477	2141.88
466.189	2048.88
471.896	1979.88
477.596	1916.88
483.29	1838.88
488.978	1745.88
494.66	1624.88
500.335	1486.88
506.005	1380.88
511.668	1371.88
517.325	1642.88
522.977	2076.88
528.622	2501.88
534.261	2632.88
539.894	2613.88
545.521	2570.88
551.141	2511.88
556.756	2491.88
562.365	2413.88
567.968	2366.88
573.565	2343.88
579.155	2304.88
584.74	2252.88
590.319	2221.88
595.892	2171.88
601.459	2118.88
607.02	2075.88
612.575	2023.88
618.124	2003.88
623.667	2039.88
629.204	2067.88
634.735	2058.88
640.261	2084.88
645.781	2080.88
651.294	2102.88
656.802	2075.88
662.304	2042.88
667.8	1995.88
673.29	1989.88
678.775	1965.88
684.254	1947.88
689.726	1927.88
695.193	1907.88
700.655	1893.88
706.11	1884.88
711.56	1852.88
717.004	1832.88
722.442	1822.88
727.874	1804.88
733.301	1787.88
738.722	1781.88
744.137	1788.88
749.547	1794.88
754.951	1806.88
760.349	1785.88
765.741	1790.88
771.128	1755.88
776.509	1767.88
781.885	1769.88
787.254	1766.88
792.618	1768.88
797.977	1752.88
803.33	1741.88
808.677	1720.88
814.019	1698.88
819.355	1686.88
824.686	1658.88
830.011	1631.88
835.33	1627.88
840.644	1628.88
845.952	1606.88
851.255	1606.88
856.552	1595.88
861.844	1597.88
867.13	1587.88
872.41	1589.88
877.686	1562.88
882.955	1547.88
888.219	1538.88
893.478	1529.88
898.731	1528.88
903.979	1503.88
909.221	1511.88
914.458	1492.88
919.69	1516.88
924.916	1520.88
930.136	1551.88
935.351	1577.88
940.561	1645.88
945.766	1658.88
950.965	1645.88
956.158	1621.88
961.347	1582.88
966.529	1542.88
971.707	1509.88
976.879	1475.88
982.046	1453.88
987.208	1420.88
992.364	1374.88
997.515	1363.88
1002.66	1360.88
1007.801	1348.88
1012.936	1360.88
1018.066	1364.88
1023.19	1351.88
1028.309	1356.88
1033.423	1353.88
1038.532	1332.88
1043.636	1317.88
1048.734	1309.88
1053.827	1291.88
1058.915	1269.88
1063.998	1265.88
1069.075	1241.88
1074.147	1244.88
1079.214	1258.88
1084.276	1257.88
1089.333	1252.88
1094.385	1250.88
1099.431	1255.88
1104.472	1254.88
1109.509	1247.88
1114.54	1233.88
1119.565	1214.88
1124.586	1201.88
1129.602	1194.88
1134.613	1195.88
1139.618	1180.88
1144.619	1176.88
1149.614	1171.88
1154.604	1171.88
1159.589	1184.88
1164.57	1194.88
1169.545	1188.88
1174.515	1203.88
1179.48	1188.88
1184.44	1183.88
1189.395	1168.88
1194.345	1158.88
1199.29	1172.88
1204.23	1157.88
1209.165	1156.88
1214.095	1175.88
1219.021	1181.88
1223.941	1176.88
1228.856	1190.88
1233.766	1200.88
1238.672	1178.88
1243.572	1187.88
1248.467	1175.88
1253.358	1175.88
1258.244	1139.88
1263.124	1144.88
1268	1133.88
1272.871	1107.88
1277.737	1104.88
1282.599	1093.88
1287.455	1105.88
1292.306	1119.88
1297.153	1120.88
1301.995	1134.88
1306.832	1153.88
1311.664	1164.88
1316.491	1170.88
1321.314	1175.88
1326.132	1166.88
1330.945	1169.88
1335.753	1159.88
1340.556	1160.88
1345.354	1161.88
1350.148	1163.88
1354.937	1136.88
1359.722	1110.88
1364.501	1085.88
1369.276	1045.88
1374.046	978.88
1378.811	960.88
1383.572	947.88
1388.327	937.88
1393.079	936.88
1397.825	931.88
1402.567	953.88
1407.304	955.88
1412.036	962.88
1416.764	967.88
1421.487	973.88
1426.205	993.88
1430.919	987.88
1435.628	1007.88
1440.333	1007.88
1445.032	1026.88
1449.727	1024.88
1454.418	1024.88
1459.104	1020.88
1463.785	1017.88
1468.462	1025.88
1473.134	1015.88
1477.802	1025.88
1482.465	1004.88
1487.123	1012.88
1491.777	1019.88
1496.426	1008.88
1501.071	1010.88
1505.711	1011.88
1510.347	1019.88
1514.978	993.88
1519.604	977.88
1524.226	962.88
1528.844	948.88
1533.457	914.88
1538.065	905.88
1542.669	886.88
1547.269	875.88
1551.864	875.88
1556.454	883.88
1561.041	906.88
1565.622	885.88
1570.199	890.88
1574.772	872.88
1579.34	893.88
1583.904	903.88
1588.464	915.88
1593.019	908.88
1597.569	917.88
1602.115	921.88
1606.657	910.88
1611.195	902.88
1615.728	904.88
1620.256	900.88
1624.78	909.88
1629.3	923.88
1633.816	918.88
1638.327	940.88
1642.834	939.88
1647.336	960.88
1651.834	964.88
1656.328	987.88
1660.817	990.88
1665.302	981.88
1669.783	981.88
1674.259	980.88
1678.732	981.88
1683.199	989.88
1687.663	983.88
1692.122	972.88
1696.577	947.88
1701.028	895.88
1705.474	861.88
1709.917	834.88
1714.355	809.88
1718.788	810.88
1723.218	822.88
1727.643	832.88
1732.064	837.88
1736.481	828.88
1740.893	813.88
1745.301	819.88
1749.705	787.88
1754.105	797.88
1758.501	786.88
1762.893	795.88
1767.28	796.88
1771.663	812.88
1776.042	809.88
1780.417	833.88
1784.787	859.88
1789.154	867.88
1793.516	848.88
1797.874	838.88
1802.228	821.88
1806.578	784.88
1810.924	761.88
1815.266	748.88
1819.603	755.88
1823.937	761.88
1828.266	764.88
1832.591	779.88
1836.913	791.88
1841.23	795.88
1845.543	813.88
1849.852	824.88
1854.156	842.88
1858.457	857.88
1862.754	849.88
1867.047	872.88
1871.335	885.88
1875.62	894.88
1879.9	908.88
1884.177	920.88
1888.449	935.88
1892.718	927.88
1896.982	946.88
1901.243	954.88
1905.499	959.88
1909.752	963.88
1914	981.88
1918.245	982.88
1922.485	1001.88
1926.722	1004.88
1930.954	1017.88
1935.183	1013.88
1939.408	1016.88
1943.628	995.88
1947.845	981.88
1952.058	971.88
1956.267	955.88
1960.472	949.88
1964.673	924.88
1968.87	930.88
1973.063	911.88
1977.252	904.88
1981.438	904.88
1985.619	909.88
1989.797	897.88
1993.971	926.88
1998.14	924.88
2002.306	954.88
2006.469	953.88
2010.627	976.88
2014.781	976.88
2018.932	991.88
2023.078	990.88
2027.221	991.88
2031.36	1004.88
2035.495	1008.88
2039.627	1014.88
2043.754	1002.88
2047.878	1025.88
2051.998	1033.88
2056.114	1051.88
2060.226	1054.88
2064.334	1077.88
2068.439	1098.88
2072.54	1109.88
2076.637	1140.88
2080.73	1127.88
2084.82	1146.88
2088.906	1160.88
2092.988	1155.88
2097.066	1148.88
2101.14	1140.88
2105.211	1120.88
2109.278	1123.88
2113.342	1117.88
2117.401	1115.88
2121.457	1101.88
2125.509	1101.88
2129.558	1101.88
2133.602	1098.88
2137.643	1105.88
2141.681	1110.88
2145.714	1126.88
2149.744	1112.88
2153.77	1117.88
2157.793	1130.88
2161.812	1124.88
2165.827	1119.88
2169.838	1123.88
2173.846	1131.88
2177.851	1143.88
2181.851	1126.88
2185.848	1145.88
2189.841	1138.88
2193.831	1150.88
2197.817	1147.88
2201.799	1156.88
2205.778	1180.88
2209.753	1190.88
2213.725	1186.88
2217.693	1215.88
2221.657	1222.88
2225.618	1218.88
2229.575	1238.88
2233.529	1243.88
2237.479	1246.88
2241.425	1263.88
2245.368	1236.88
2249.307	1255.88
2253.243	1252.88
2257.175	1244.88
2261.104	1264.88
2265.029	1248.88
2268.95	1231.88
2272.868	1231.88
2276.783	1231.88
2280.694	1247.88
2284.601	1254.88
2288.505	1251.88
2292.405	1235.88
2296.302	1255.88
2300.195	1246.88
2304.085	1258.88
2307.971	1246.88
2311.854	1258.88
2315.734	1238.88
2319.609	1253.88
2323.482	1229.88
2327.351	1244.88
2331.216	1272.88
2335.078	1273.88
2338.937	1280.88
2342.792	1283.88
2346.643	1314.88
2350.492	1328.88
2354.336	1339.88
2358.178	1366.88
2362.015	1374.88
2365.85	1412.88
2369.681	1433.88
2373.508	1434.88
2377.333	1462.88
2381.153	1469.88
2384.971	1500.88
2388.785	1501.88
2392.595	1518.88
2396.402	1527.88
2400.206	1545.88
2404.007	1560.88
2407.804	1581.88
2411.597	1588.88
2415.388	1602.88
2419.174	1628.88
2422.958	1647.88
2426.738	1662.88
2430.515	1679.88
2434.289	1699.88
2438.059	1707.88
2441.825	1716.88
2445.589	1739.88
2449.349	1739.88
2453.106	1754.88
2456.859	1754.88
2460.61	1754.88
2464.356	1793.88
2468.1	1802.88
2471.84	1798.88
2475.577	1803.88
2479.311	1853.88
2483.041	1867.88
2486.768	1910.88
2490.492	1942.88
2494.213	1947.88
2497.93	1978.88
2501.644	2003.88
2505.355	2033.88
2509.062	2057.88
2512.766	2063.88
2516.467	2087.88
2520.165	2107.88
2523.859	2117.88
2527.551	2138.88
2531.239	2164.88
2534.923	2197.88
2538.605	2188.88
2542.283	2203.88
2545.958	2229.88
2549.63	2232.88
2553.299	2245.88
2556.964	2265.88
2560.626	2276.88
2564.285	2302.88
2567.941	2300.88
2571.594	2292.88
2575.243	2308.88
2578.89	2331.88
2582.533	2292.88
2586.173	2307.88
2589.809	2292.88
2593.443	2297.88
2597.073	2280.88
2600.701	2287.88
2604.325	2313.88
2607.946	2323.88
2611.564	2298.88
2615.178	2316.88
2618.79	2350.88
2622.398	2361.88
2626.004	2347.88
2629.606	2349.88
2633.205	2350.88
2636.801	2358.88
2640.394	2356.88
2643.983	2374.88
2647.57	2380.88
2651.153	2366.88
2654.734	2369.88
2658.311	2384.88
2661.885	2383.88
2665.456	2406.88
2669.025	2408.88
2672.589	2431.88
2676.151	2457.88
2679.71	2458.88
2683.266	2460.88
2686.819	2454.88
2690.368	2484.88
2693.915	2488.88
2697.458	2479.88
2700.999	2483.88
2704.536	2487.88
2708.071	2498.88
2711.602	2519.88
2715.13	2543.88
2718.656	2564.88
2722.178	2581.88
2725.697	2591.88
2729.214	2658.88
2732.727	2696.88
2736.237	2745.88
2739.744	2765.88
2743.249	2793.88
2746.75	2828.88
2750.248	2805.88
2753.743	2756.88
2757.236	2712.88
2760.725	2679.88
2764.211	2621.88
2767.695	2583.88
2771.175	2550.88
2774.652	2540.88
2778.127	2536.88
2781.598	2568.88
2785.067	2552.88
2788.532	2635.88
2791.995	2656.88
2795.455	2716.88
2798.911	2730.88
2802.365	2773.88
2805.816	2802.88
2809.264	2823.88
2812.709	2857.88
2816.151	2854.88
2819.59	2850.88
2823.026	2871.88
2826.46	2892.88
2829.89	2897.88
2833.318	2919.88
2836.742	2891.88
2840.164	2889.88
2843.583	2938.88
2846.999	2915.88
2850.412	2905.88
2853.822	2895.88
2857.229	2952.88
2860.634	2938.88
2864.035	2923.88
2867.434	2927.88
2870.83	2944.88
2874.223	2947.88
2877.613	2899.88
2881	2879.88
2884.385	2870.88
2887.766	2842.88
2891.145	2834.88
2894.521	2812.88
2897.894	2812.88
2901.264	2775.88
2904.631	2761.88
2907.996	2773.88
2911.358	2779.88
2914.717	2769.88
2918.073	2779.88
2921.426	2780.88
2924.777	2773.88
2928.124	2778.88
2931.469	2788.88
2934.811	2810.88
2938.15	2832.88
2941.487	2840.88
2944.821	2840.88
2948.152	2840.88
2951.48	2854.88
2954.805	2848.88
2958.128	2828.88
2961.447	2841.88
2964.765	2844.88
2968.079	2869.88
2971.39	2891.88
2974.699	2870.88
2978.005	2896.88
2981.308	2881.88
2984.609	2891.88
2987.907	2913.88
2991.202	2854.88
2994.494	2866.88
2997.784	2843.88
3001.07	2813.88
3004.355	2807.88
3007.636	2760.88
3010.915	2743.88
3014.191	2703.88
3017.464	2674.88
3020.734	2636.88
3024.002	2619.88
3027.267	2617.88
3030.53	2608.88
3033.789	2609.88
3037.046	2618.88
3040.301	2600.88
3043.552	2620.88
3046.801	2648.88
3050.048	2656.88
3053.291	2672.88
3056.532	2708.88
3059.771	2716.88
3063.006	2747.88
3066.239	2749.88
3069.469	2776.88
3072.697	2793.88
3075.922	2801.88
3079.144	2802.88
3082.364	2805.88
3085.581	2824.88
3088.795	2837.88
3092.007	2826.88
3095.216	2839.88
3098.423	2818.88
3101.627	2837.88
3104.828	2837.88
3108.026	2790.88
3111.222	2798.88
3114.416	2816.88
3117.607	2791.88
3120.795	2819.88
3123.98	2812.88
3127.163	2826.88
3130.344	2812.88
3133.521	2836.88
3136.696	2810.88
3139.869	2811.88
3143.039	2807.88
3146.206	2793.88
3149.371	2764.88
3152.533	2750.88
3155.693	2734.88
3158.85	2690.88
3162.005	2667.88
3165.157	2651.88
3168.306	2618.88
3171.453	2569.88
3174.597	2566.88
3177.739	2534.88
3180.878	2508.88
3184.014	2492.88
3187.149	2468.88
3190.28	2438.88
3193.409	2461.88
3196.536	2453.88
3199.659	2433.88
3202.781	2425.88
3205.9	2426.88
3209.016	2397.88
3212.13	2411.88
3215.241	2412.88
3218.35	2380.88
3221.456	2362.88
3224.56	2345.88
3227.661	2327.88
3230.76	2304.88
3233.856	2289.88
3236.95	2274.88
3240.041	2270.88
3243.13	2236.88
3246.216	2208.88
3249.3	2209.88
3252.382	2202.88
3255.46	2161.88
3258.537	2172.88
3261.611	2149.88
3264.682	2147.88
3267.751	2123.88
3270.818	2089.88
3273.882	2089.88
3276.943	2073.88
3280.002	2054.88
3283.059	2041.88
3286.113	2007.88
3289.165	2001.88
3292.214	1954.88
3295.261	1931.88
3298.306	1916.88
3301.348	1876.88
3304.387	1862.88
3307.425	1846.88
3310.459	1847.88
3313.492	1833.88
3316.521	1831.88
3319.549	1816.88
3322.574	1800.88
3325.597	1827.88
3328.617	1801.88
3331.635	1782.88
3334.65	1802.88
3337.663	1802.88
3340.674	1790.88
3343.682	1776.88
3346.688	1789.88
3349.691	1776.88
3352.692	1801.88
3355.691	1780.88
3358.687	1766.88
3361.681	1742.88
3364.673	1743.88
3367.662	1725.88
3370.649	1703.88
3373.633	1684.88
3376.615	1693.88
3379.595	1655.88
3382.572	1642.88
3385.547	1624.88
3388.52	1606.88
3391.49	1592.88
3394.458	1569.88
3397.424	1576.88
3400.387	1554.88
3403.348	1579.88
3406.307	1558.88
3409.263	1542.88
3412.217	1527.88
3415.168	1527.88
3418.118	1515.88
3421.065	1505.88
3424.009	1510.88
3426.951	1491.88
3429.891	1485.88
3432.829	1476.88
3435.764	1444.88
3438.697	1437.88
3441.628	1403.88
3444.557	1390.88
3447.483	1368.88
3450.407	1350.88
3453.328	1316.88
3456.247	1303.88
3459.164	1286.88
3462.079	1273.88
3464.991	1244.88
3467.902	1231.88
3470.809	1201.88
3473.715	1186.88
3476.618	1172.88
3479.519	1177.88
3482.418	1129.88
3485.315	1134.88
3488.209	1122.88
3491.101	1102.88
3493.99	1100.88
3496.878	1074.88
3499.763	1071.88
3502.646	1065.88
3505.527	1050.88
3508.405	1018.88
3511.281	1012.88
3514.155	987.88
3517.027	968.88
3519.897	941.88
3522.764	922.88
3525.629	902.88
3528.492	880.88
3531.352	866.88
3534.211	831.88
3537.067	803.88
3539.921	808.88
3542.773	764.88
3545.622	772.88
3548.469	741.88
3551.315	733.88
3554.157	720.88
3556.998	722.88
3559.837	687.88
3562.673	676.88
3565.507	672.88
3568.339	664.88
3571.169	653.88
3573.996	636.88
3576.822	641.88
3579.645	615.88
3582.466	595.88
3585.285	594.88
3588.101	581.88
3590.916	576.88
3593.728	568.88
3596.538	546.88
3599.346	538.88
3602.152	515.88
3604.956	502.88
3607.757	498.88
3610.556	483.88
3613.354	465.88
3616.149	465.88
3618.942	461.88
3621.732	447.88
3624.521	436.88
3627.307	427.88
3630.092	421.88
3632.874	415.88
3635.654	430.88
3638.432	400.88
3641.208	406.88
3643.982	396.88
3646.753	398.88
3649.523	387.88
3652.29	394.88
3655.055	386.88
3657.818	387.88
3660.579	371.88
3663.338	370.88
3666.095	351.88
3668.849	364.88
3671.602	362.88
3674.352	357.88
3677.101	356.88
3679.847	351.88
3682.591	348.88
3685.333	342.88
3688.073	351.88
3690.811	342.88
3693.547	346.88
3696.281	346.88
3699.013	349.88
3701.742	340.88
3704.47	347.88
3707.195	346.88
3709.919	350.88
3712.64	348.88
3715.359	343.88
3718.076	347.88
3720.792	336.88
3723.505	330.88
3726.216	339.88
3728.925	332.88
3731.632	326.88
3734.336	328.88
3737.039	314.88
3739.74	311.88
3742.439	303.88
3745.136	308.88
3747.83	311.88
3750.523	307.88
3753.213	306.88
3755.902	296.88
3758.589	304.88
3761.273	293.88
3763.956	297.88
3766.636	291.88
3769.315	286.88
3771.991	275.88
3774.665	278.88
3777.338	275.88
3780.008	273.88
3782.677	263.88
3785.343	270.88
3788.007	260.88
3790.67	252.88
3793.33	242.88
3795.989	240.88
3798.645	234.88
3801.299	229.88
3803.952	222.88
3806.602	231.88
3809.251	226.88
3811.897	213.88
3814.542	221.88
3817.184	204.88
3819.825	215.88
3822.463	212.88
3825.1	206.88
3827.735	194.88
3830.367	182.88
3832.998	184.88
3835.627	179.88
3838.253	170.88
3840.878	161.88
3843.501	162.88
3846.122	159.88
3848.741	159.88
3851.358	149.88
3853.973	142.88
3856.586	144.88
3859.197	134.88
3861.806	128.88
3864.414	131.88
3867.019	129.88
3869.622	124.88
3872.224	121.88
3874.823	114.88
3877.421	116.88
3880.016	116.88
3882.61	103.88
3885.202	94.88
3887.792	92.88
3890.38	80.88
3892.966	69.88
3895.55	70.88
3898.132	55.88
3900.713	49.88
3903.291	44.88
3905.868	40.88
3908.442	34.88
3911.015	37.88
3913.586	33.88
3916.155	23.88
3918.722	21.88
3921.287	21.88
3923.85	17.88
3926.411	22.88
3928.971	18.88
3931.528	12.88
3934.084	15.88
3936.638	8.88
3939.19	6.88
3941.74	-0.12
3944.288	0.88
3946.834	0.88
3949.378	2.88
3951.921	-4.12
3954.462	-10.12
3957	-8.12
3959.537	-4.12
3962.072	-12.12
3964.606	-10.12
3967.137	-8.12
3969.667	-15.12
3972.194	-15.12
3974.72	-11.12
3977.244	-14.12
3979.766	-14.12
3982.286	-12.12
3984.805	-13.12
3987.321	-12.12
3989.836	-15.12
3992.349	-15.12
3994.86	-19.12
3997.369	-18.12
3999.877	-17.12
4002.382	-20.12
4004.886	-21.12
4007.388	-21.12
4009.888	-16.12
4012.386	-25.12
4014.883	-25.12
4017.377	-27.12
4019.87	-26.12
4022.361	-30.12
4024.85	-29.12
4027.338	-26.12
4029.823	-29.12
4032.307	-30.12
4034.789	-32.12
4037.269	-30.12
4039.747	-35.12
4042.224	-32.12
4044.699	-31.12
4047.172	-36.12
4049.643	-33.12
4052.112	-40.12
4054.58	-31.12
4057.046	-38.12
4059.51	-37.12
4061.972	-37.12
4064.432	-42.12
4066.891	-43.12
4069.348	-41.12
4071.803	-40.12
4074.256	-45.12
4076.708	-45.12
4079.158	-47.12
4081.606	-50.12
4084.052	-47.12
4086.497	-50.12
4088.939	-48.12
4091.38	-55.12
4093.819	-49.12
4096.257	-68.12
4098.693	-66.12
4101.127	-67.12
4103.559	-69.12
4105.989	-29.12
4108.418	-26.12
4110.845	-30.12
4113.27	-20.12
4115.694	-25.12
4118.115	-11.12
4120.535	-49.12
4122.954	-50.12
4125.37	-49.12
4127.785	-46.12
4130.198	-50.12
4132.609	-55.12
4135.019	-65.12
4137.427	-65.12
4139.833	-66.12
4142.237	-70.12
