Data from SERS_DW_20uL_I=0.5_T=20s_RamanShift_8.txt Node
Date: Wed Jun 14 14:29:23 IDT 2017
User: aro
Spectrometer: QEPB0276
Trigger mode: 0
Integration Time (sec): 2.000000E1
Scans to average: 1
Electric dark correction enabled: true
Nonlinearity correction enabled: false
Boxcar width: 0
XAxis mode: Raman Shifts
Number of Pixels in Spectrum: 1044
>>>>>Begin Spectral Data<<<<<
160.701	-2.25
166.742	11.75
172.777	49.75
178.805	174.75
184.826	479.75
190.841	1054.75
196.849	1754.75
202.85	2307.75
208.845	2541.75
214.833	2563.75
220.815	2574.75
226.789	2612.75
232.758	2678.75
238.719	2699.75
244.674	2711.75
250.623	2717.75
256.565	2691.75
262.5	2649.75
268.429	2654.75
274.351	2629.75
280.267	2643.75
286.176	2647.75
292.079	2652.75
297.975	2661.75
303.865	2697.75
309.748	2723.75
315.625	2669.75
321.495	2610.75
327.359	2583.75
333.217	2542.75
339.068	2524.75
344.912	2508.75
350.751	2459.75
356.583	2441.75
362.408	2398.75
368.227	2376.75
374.04	2386.75
379.847	2408.75
385.647	2389.75
391.44	2354.75
397.228	2297.75
403.009	2277.75
408.784	2315.75
414.553	2379.75
420.315	2475.75
426.071	2432.75
431.821	2284.75
437.565	2160.75
443.302	2078.75
449.033	1995.75
454.758	1937.75
460.477	1890.75
466.189	1825.75
471.896	1745.75
477.596	1676.75
483.29	1603.75
488.978	1524.75
494.66	1394.75
500.335	1267.75
506.005	1148.75
511.668	1155.75
517.325	1396.75
522.977	1848.75
528.622	2243.75
534.261	2391.75
539.894	2375.75
545.521	2311.75
551.141	2267.75
556.756	2226.75
562.365	2157.75
567.968	2143.75
573.565	2077.75
579.155	2054.75
584.74	2012.75
590.319	1967.75
595.892	1915.75
601.459	1884.75
607.02	1835.75
612.575	1759.75
618.124	1762.75
623.667	1760.75
629.204	1816.75
634.735	1813.75
640.261	1851.75
645.781	1889.75
651.294	1886.75
656.802	1847.75
662.304	1804.75
667.8	1772.75
673.29	1777.75
678.775	1755.75
684.254	1716.75
689.726	1705.75
695.193	1692.75
700.655	1676.75
706.11	1675.75
711.56	1619.75
717.004	1630.75
722.442	1624.75
727.874	1581.75
733.301	1597.75
738.722	1580.75
744.137	1591.75
749.547	1584.75
754.951	1595.75
760.349	1583.75
765.741	1560.75
771.128	1560.75
776.509	1548.75
781.885	1545.75
787.254	1559.75
792.618	1533.75
797.977	1535.75
803.33	1498.75
808.677	1494.75
814.019	1476.75
819.355	1495.75
824.686	1449.75
830.011	1439.75
835.33	1436.75
840.644	1428.75
845.952	1409.75
851.255	1416.75
856.552	1398.75
861.844	1398.75
867.13	1408.75
872.41	1393.75
877.686	1368.75
882.955	1357.75
888.219	1345.75
893.478	1315.75
898.731	1294.75
903.979	1303.75
909.221	1313.75
914.458	1311.75
919.69	1315.75
924.916	1311.75
930.136	1348.75
935.351	1404.75
940.561	1454.75
945.766	1474.75
950.965	1454.75
956.158	1432.75
961.347	1401.75
966.529	1370.75
971.707	1337.75
976.879	1310.75
982.046	1303.75
987.208	1272.75
992.364	1225.75
997.515	1192.75
1002.66	1176.75
1007.801	1188.75
1012.936	1179.75
1018.066	1188.75
1023.19	1185.75
1028.309	1168.75
1033.423	1182.75
1038.532	1168.75
1043.636	1145.75
1048.734	1127.75
1053.827	1119.75
1058.915	1091.75
1063.998	1087.75
1069.075	1072.75
1074.147	1091.75
1079.214	1099.75
1084.276	1083.75
1089.333	1102.75
1094.385	1097.75
1099.431	1105.75
1104.472	1104.75
1109.509	1095.75
1114.54	1069.75
1119.565	1053.75
1124.586	1038.75
1129.602	1035.75
1134.613	1026.75
1139.618	1016.75
1144.619	1021.75
1149.614	1022.75
1154.604	1019.75
1159.589	1017.75
1164.57	1021.75
1169.545	1020.75
1174.515	1038.75
1179.48	1022.75
1184.44	1003.75
1189.395	1000.75
1194.345	995.75
1199.29	999.75
1204.23	986.75
1209.165	990.75
1214.095	1003.75
1219.021	1006.75
1223.941	1017.75
1228.856	1013.75
1233.766	1028.75
1238.672	1032.75
1243.572	1021.75
1248.467	1006.75
1253.358	993.75
1258.244	981.75
1263.124	965.75
1268	960.75
1272.871	934.75
1277.737	925.75
1282.599	925.75
1287.455	921.75
1292.306	941.75
1297.153	941.75
1301.995	943.75
1306.832	975.75
1311.664	962.75
1316.491	965.75
1321.314	973.75
1326.132	965.75
1330.945	963.75
1335.753	965.75
1340.556	964.75
1345.354	954.75
1350.148	960.75
1354.937	951.75
1359.722	933.75
1364.501	897.75
1369.276	870.75
1374.046	836.75
1378.811	811.75
1383.572	787.75
1388.327	788.75
1393.079	789.75
1397.825	794.75
1402.567	795.75
1407.304	805.75
1412.036	793.75
1416.764	807.75
1421.487	821.75
1426.205	818.75
1430.919	814.75
1435.628	840.75
1440.333	852.75
1445.032	855.75
1449.727	864.75
1454.418	870.75
1459.104	879.75
1463.785	869.75
1468.462	874.75
1473.134	871.75
1477.802	865.75
1482.465	872.75
1487.123	872.75
1491.777	869.75
1496.426	859.75
1501.071	870.75
1505.711	850.75
1510.347	851.75
1514.978	851.75
1519.604	840.75
1524.226	804.75
1528.844	801.75
1533.457	771.75
1538.065	775.75
1542.669	756.75
1547.269	756.75
1551.864	747.75
1556.454	773.75
1561.041	779.75
1565.622	779.75
1570.199	761.75
1574.772	776.75
1579.34	796.75
1583.904	785.75
1588.464	784.75
1593.019	796.75
1597.569	790.75
1602.115	792.75
1606.657	798.75
1611.195	782.75
1615.728	771.75
1620.256	783.75
1624.78	773.75
1629.3	763.75
1633.816	796.75
1638.327	818.75
1642.834	812.75
1647.336	827.75
1651.834	825.75
1656.328	841.75
1660.817	859.75
1665.302	868.75
1669.783	868.75
1674.259	863.75
1678.732	881.75
1683.199	878.75
1687.663	880.75
1692.122	869.75
1696.577	858.75
1701.028	822.75
1705.474	783.75
1709.917	750.75
1714.355	732.75
1718.788	738.75
1723.218	736.75
1727.643	754.75
1732.064	752.75
1736.481	750.75
1740.893	739.75
1745.301	725.75
1749.705	729.75
1754.105	725.75
1758.501	714.75
1762.893	718.75
1767.28	726.75
1771.663	732.75
1776.042	752.75
1780.417	773.75
1784.787	774.75
1789.154	784.75
1793.516	781.75
1797.874	751.75
1802.228	740.75
1806.578	717.75
1810.924	709.75
1815.266	673.75
1819.603	685.75
1823.937	697.75
1828.266	691.75
1832.591	715.75
1836.913	715.75
1841.23	730.75
1845.543	733.75
1849.852	760.75
1854.156	765.75
1858.457	782.75
1862.754	798.75
1867.047	810.75
1871.335	822.75
1875.62	835.75
1879.9	832.75
1884.177	853.75
1888.449	866.75
1892.718	874.75
1896.982	871.75
1901.243	876.75
1905.499	897.75
1909.752	912.75
1914	904.75
1918.245	907.75
1922.485	920.75
1926.722	922.75
1930.954	942.75
1935.183	924.75
1939.408	930.75
1943.628	914.75
1947.845	903.75
1952.058	895.75
1956.267	884.75
1960.472	879.75
1964.673	847.75
1968.87	848.75
1973.063	840.75
1977.252	832.75
1981.438	837.75
1985.619	833.75
1989.797	853.75
1993.971	846.75
1998.14	866.75
2002.306	884.75
2006.469	895.75
2010.627	914.75
2014.781	902.75
2018.932	925.75
2023.078	925.75
2027.221	928.75
2031.36	937.75
2035.495	939.75
2039.627	945.75
2043.754	930.75
2047.878	963.75
2051.998	982.75
2056.114	968.75
2060.226	981.75
2064.334	1026.75
2068.439	1045.75
2072.54	1046.75
2076.637	1076.75
2080.73	1061.75
2084.82	1088.75
2088.906	1108.75
2092.988	1094.75
2097.066	1084.75
2101.14	1088.75
2105.211	1068.75
2109.278	1083.75
2113.342	1053.75
2117.401	1056.75
2121.457	1046.75
2125.509	1054.75
2129.558	1049.75
2133.602	1057.75
2137.643	1063.75
2141.681	1059.75
2145.714	1079.75
2149.744	1076.75
2153.77	1080.75
2157.793	1100.75
2161.812	1089.75
2165.827	1091.75
2169.838	1109.75
2173.846	1092.75
2177.851	1105.75
2181.851	1102.75
2185.848	1094.75
2189.841	1106.75
2193.831	1098.75
2197.817	1113.75
2201.799	1150.75
2205.778	1155.75
2209.753	1161.75
2213.725	1178.75
2217.693	1184.75
2221.657	1206.75
2225.618	1202.75
2229.575	1219.75
2233.529	1232.75
2237.479	1234.75
2241.425	1244.75
2245.368	1219.75
2249.307	1235.75
2253.243	1228.75
2257.175	1225.75
2261.104	1242.75
2265.029	1242.75
2268.95	1239.75
2272.868	1236.75
2276.783	1228.75
2280.694	1246.75
2284.601	1246.75
2288.505	1246.75
2292.405	1246.75
2296.302	1237.75
2300.195	1244.75
2304.085	1257.75
2307.971	1247.75
2311.854	1239.75
2315.734	1237.75
2319.609	1240.75
2323.482	1252.75
2327.351	1253.75
2331.216	1270.75
2335.078	1284.75
2338.937	1268.75
2342.792	1284.75
2346.643	1296.75
2350.492	1311.75
2354.336	1344.75
2358.178	1381.75
2362.015	1377.75
2365.85	1418.75
2369.681	1413.75
2373.508	1441.75
2377.333	1474.75
2381.153	1483.75
2384.971	1507.75
2388.785	1511.75
2392.595	1518.75
2396.402	1511.75
2400.206	1563.75
2404.007	1564.75
2407.804	1587.75
2411.597	1600.75
2415.388	1629.75
2419.174	1637.75
2422.958	1650.75
2426.738	1667.75
2430.515	1687.75
2434.289	1700.75
2438.059	1729.75
2441.825	1724.75
2445.589	1752.75
2449.349	1764.75
2453.106	1758.75
2456.859	1761.75
2460.61	1798.75
2464.356	1799.75
2468.1	1802.75
2471.84	1821.75
2475.577	1853.75
2479.311	1875.75
2483.041	1890.75
2486.768	1913.75
2490.492	1918.75
2494.213	1945.75
2497.93	1981.75
2501.644	1994.75
2505.355	2023.75
2509.062	2031.75
2512.766	2064.75
2516.467	2097.75
2520.165	2105.75
2523.859	2137.75
2527.551	2154.75
2531.239	2148.75
2534.923	2174.75
2538.605	2190.75
2542.283	2213.75
2545.958	2238.75
2549.63	2244.75
2553.299	2257.75
2556.964	2266.75
2560.626	2288.75
2564.285	2294.75
2567.941	2334.75
2571.594	2334.75
2575.243	2304.75
2578.89	2307.75
2582.533	2317.75
2586.173	2308.75
2589.809	2305.75
2593.443	2309.75
2597.073	2290.75
2600.701	2306.75
2604.325	2299.75
2607.946	2327.75
2611.564	2336.75
2615.178	2331.75
2618.79	2347.75
2622.398	2348.75
2626.004	2360.75
2629.606	2370.75
2633.205	2391.75
2636.801	2398.75
2640.394	2389.75
2643.983	2412.75
2647.57	2410.75
2651.153	2393.75
2654.734	2421.75
2658.311	2405.75
2661.885	2433.75
2665.456	2420.75
2669.025	2451.75
2672.589	2475.75
2676.151	2486.75
2679.71	2487.75
2683.266	2498.75
2686.819	2510.75
2690.368	2518.75
2693.915	2513.75
2697.458	2524.75
2700.999	2510.75
2704.536	2527.75
2708.071	2533.75
2711.602	2539.75
2715.13	2572.75
2718.656	2600.75
2722.178	2629.75
2725.697	2672.75
2729.214	2704.75
2732.727	2749.75
2736.237	2782.75
2739.744	2836.75
2743.249	2854.75
2746.75	2851.75
2750.248	2842.75
2753.743	2813.75
2757.236	2793.75
2760.725	2719.75
2764.211	2688.75
2767.695	2626.75
2771.175	2603.75
2774.652	2606.75
2778.127	2593.75
2781.598	2594.75
2785.067	2639.75
2788.532	2645.75
2791.995	2709.75
2795.455	2762.75
2798.911	2781.75
2802.365	2826.75
2805.816	2846.75
2809.264	2899.75
2812.709	2918.75
2816.151	2914.75
2819.59	2946.75
2823.026	2936.75
2826.46	2975.75
2829.89	2977.75
2833.318	2961.75
2836.742	2982.75
2840.164	2965.75
2843.583	2995.75
2846.999	2983.75
2850.412	3001.75
2853.822	2970.75
2857.229	2994.75
2860.634	3005.75
2864.035	3017.75
2867.434	3022.75
2870.83	3019.75
2874.223	3004.75
2877.613	2992.75
2881	2984.75
2884.385	2944.75
2887.766	2906.75
2891.145	2891.75
2894.521	2875.75
2897.894	2890.75
2901.264	2869.75
2904.631	2848.75
2907.996	2854.75
2911.358	2833.75
2914.717	2819.75
2918.073	2823.75
2921.426	2825.75
2924.777	2837.75
2928.124	2848.75
2931.469	2851.75
2934.811	2879.75
2938.15	2872.75
2941.487	2873.75
2944.821	2904.75
2948.152	2881.75
2951.48	2891.75
2954.805	2895.75
2958.128	2904.75
2961.447	2887.75
2964.765	2900.75
2968.079	2905.75
2971.39	2931.75
2974.699	2912.75
2978.005	2932.75
2981.308	2923.75
2984.609	2934.75
2987.907	2936.75
2991.202	2920.75
2994.494	2904.75
2997.784	2874.75
3001.07	2854.75
3004.355	2821.75
3007.636	2798.75
3010.915	2747.75
3014.191	2729.75
3017.464	2689.75
3020.734	2673.75
3024.002	2647.75
3027.267	2633.75
3030.53	2599.75
3033.789	2613.75
3037.046	2605.75
3040.301	2614.75
3043.552	2648.75
3046.801	2626.75
3050.048	2659.75
3053.291	2700.75
3056.532	2699.75
3059.771	2735.75
3063.006	2730.75
3066.239	2757.75
3069.469	2802.75
3072.697	2808.75
3075.922	2817.75
3079.144	2815.75
3082.364	2818.75
3085.581	2836.75
3088.795	2834.75
3092.007	2802.75
3095.216	2819.75
3098.423	2787.75
3101.627	2816.75
3104.828	2798.75
3108.026	2798.75
3111.222	2796.75
3114.416	2797.75
3117.607	2793.75
3120.795	2791.75
3123.98	2806.75
3127.163	2817.75
3130.344	2807.75
3133.521	2808.75
3136.696	2789.75
3139.869	2798.75
3143.039	2795.75
3146.206	2760.75
3149.371	2712.75
3152.533	2708.75
3155.693	2684.75
3158.85	2652.75
3162.005	2627.75
3165.157	2598.75
3168.306	2558.75
3171.453	2541.75
3174.597	2496.75
3177.739	2479.75
3180.878	2460.75
3184.014	2431.75
3187.149	2430.75
3190.28	2417.75
3193.409	2389.75
3196.536	2407.75
3199.659	2379.75
3202.781	2370.75
3205.9	2393.75
3209.016	2375.75
3212.13	2351.75
3215.241	2348.75
3218.35	2324.75
3221.456	2314.75
3224.56	2304.75
3227.661	2276.75
3230.76	2273.75
3233.856	2241.75
3236.95	2216.75
3240.041	2219.75
3243.13	2182.75
3246.216	2175.75
3249.3	2163.75
3252.382	2148.75
3255.46	2139.75
3258.537	2124.75
3261.611	2107.75
3264.682	2086.75
3267.751	2064.75
3270.818	2065.75
3273.882	2033.75
3276.943	2020.75
3280.002	2014.75
3283.059	1992.75
3286.113	1969.75
3289.165	1943.75
3292.214	1885.75
3295.261	1897.75
3298.306	1869.75
3301.348	1860.75
3304.387	1820.75
3307.425	1824.75
3310.459	1805.75
3313.492	1792.75
3316.521	1786.75
3319.549	1767.75
3322.574	1767.75
3325.597	1768.75
3328.617	1763.75
3331.635	1770.75
3334.65	1764.75
3337.663	1757.75
3340.674	1756.75
3343.682	1760.75
3346.688	1752.75
3349.691	1759.75
3352.692	1773.75
3355.691	1768.75
3358.687	1742.75
3361.681	1741.75
3364.673	1732.75
3367.662	1691.75
3370.649	1679.75
3373.633	1677.75
3376.615	1658.75
3379.595	1647.75
3382.572	1615.75
3385.547	1619.75
3388.52	1608.75
3391.49	1576.75
3394.458	1574.75
3397.424	1556.75
3400.387	1551.75
3403.348	1531.75
3406.307	1521.75
3409.263	1518.75
3412.217	1519.75
3415.168	1523.75
3418.118	1500.75
3421.065	1487.75
3424.009	1504.75
3426.951	1474.75
3429.891	1454.75
3432.829	1461.75
3435.764	1442.75
3438.697	1420.75
3441.628	1411.75
3444.557	1377.75
3447.483	1357.75
3450.407	1338.75
3453.328	1328.75
3456.247	1310.75
3459.164	1269.75
3462.079	1253.75
3464.991	1256.75
3467.902	1212.75
3470.809	1197.75
3473.715	1186.75
3476.618	1167.75
3479.519	1166.75
3482.418	1138.75
3485.315	1128.75
3488.209	1121.75
3491.101	1092.75
3493.99	1106.75
3496.878	1089.75
3499.763	1076.75
3502.646	1067.75
3505.527	1045.75
3508.405	1036.75
3511.281	1019.75
3514.155	996.75
3517.027	976.75
3519.897	945.75
3522.764	931.75
3525.629	909.75
3528.492	892.75
3531.352	867.75
3534.211	849.75
3537.067	815.75
3539.921	811.75
3542.773	787.75
3545.622	780.75
3548.469	744.75
3551.315	741.75
3554.157	715.75
3556.998	718.75
3559.837	699.75
3562.673	691.75
3565.507	689.75
3568.339	670.75
3571.169	671.75
3573.996	645.75
3576.822	639.75
3579.645	634.75
3582.466	623.75
3585.285	601.75
3588.101	601.75
3590.916	587.75
3593.728	572.75
3596.538	558.75
3599.346	548.75
3602.152	535.75
3604.956	518.75
3607.757	520.75
3610.556	497.75
3613.354	486.75
3616.149	476.75
3618.942	477.75
3621.732	464.75
3624.521	453.75
3627.307	446.75
3630.092	442.75
3632.874	424.75
3635.654	437.75
3638.432	428.75
3641.208	420.75
3643.982	404.75
3646.753	401.75
3649.523	401.75
3652.29	400.75
3655.055	406.75
3657.818	392.75
3660.579	384.75
3663.338	377.75
3666.095	385.75
3668.849	380.75
3671.602	375.75
3674.352	368.75
3677.101	364.75
3679.847	367.75
3682.591	364.75
3685.333	365.75
3688.073	373.75
3690.811	369.75
3693.547	370.75
3696.281	376.75
3699.013	364.75
3701.742	362.75
3704.47	374.75
3707.195	369.75
3709.919	371.75
3712.64	361.75
3715.359	359.75
3718.076	354.75
3720.792	360.75
3723.505	359.75
3726.216	347.75
3728.925	345.75
3731.632	342.75
3734.336	338.75
3737.039	327.75
3739.74	318.75
3742.439	321.75
3745.136	326.75
3747.83	311.75
3750.523	317.75
3753.213	314.75
3755.902	317.75
3758.589	321.75
3761.273	318.75
3763.956	318.75
3766.636	317.75
3769.315	311.75
3771.991	303.75
3774.665	306.75
3777.338	291.75
3780.008	288.75
3782.677	282.75
3785.343	268.75
3788.007	268.75
3790.67	265.75
3793.33	252.75
3795.989	254.75
3798.645	246.75
3801.299	242.75
3803.952	233.75
3806.602	239.75
3809.251	237.75
3811.897	227.75
3814.542	233.75
3817.184	222.75
3819.825	228.75
3822.463	220.75
3825.1	217.75
3827.735	209.75
3830.367	210.75
3832.998	199.75
3835.627	195.75
3838.253	194.75
3840.878	181.75
3843.501	176.75
3846.122	176.75
3848.741	168.75
3851.358	158.75
3853.973	160.75
3856.586	157.75
3859.197	145.75
3861.806	143.75
3864.414	136.75
3867.019	132.75
3869.622	132.75
3872.224	130.75
3874.823	132.75
3877.421	124.75
3880.016	120.75
3882.61	117.75
3885.202	116.75
3887.792	111.75
3890.38	102.75
3892.966	90.75
3895.55	83.75
3898.132	79.75
3900.713	69.75
3903.291	59.75
3905.868	51.75
3908.442	54.75
3911.015	48.75
3913.586	46.75
3916.155	33.75
3918.722	34.75
3921.287	31.75
3923.85	27.75
3926.411	28.75
3928.971	32.75
3931.528	21.75
3934.084	19.75
3936.638	20.75
3939.19	16.75
3941.74	16.75
3944.288	12.75
3946.834	9.75
3949.378	11.75
3951.921	7.75
3954.462	2.75
3957	3.75
3959.537	6.75
3962.072	4.75
3964.606	5.75
3967.137	4.75
3969.667	1.75
3972.194	-2.25
3974.72	-0.25
3977.244	2.75
3979.766	-0.25
3982.286	-3.25
3984.805	-3.25
3987.321	-4.25
3989.836	-5.25
3992.349	-9.25
3994.86	-10.25
3997.369	-6.25
3999.877	-16.25
4002.382	-13.25
4004.886	-13.25
4007.388	-16.25
4009.888	-8.25
4012.386	-8.25
4014.883	-11.25
4017.377	-11.25
4019.87	-10.25
4022.361	-17.25
4024.85	-15.25
4027.338	-18.25
4029.823	-18.25
4032.307	-19.25
4034.789	-17.25
4037.269	-20.25
4039.747	-19.25
4042.224	-19.25
4044.699	-20.25
4047.172	-30.25
4049.643	-20.25
4052.112	-30.25
4054.58	-23.25
4057.046	-29.25
4059.51	-29.25
4061.972	-29.25
4064.432	-26.25
4066.891	-30.25
4069.348	-32.25
4071.803	-31.25
4074.256	-34.25
4076.708	-34.25
4079.158	-31.25
4081.606	-33.25
4084.052	-32.25
4086.497	-35.25
4088.939	-34.25
4091.38	-39.25
4093.819	-33.25
4096.257	-55.25
4098.693	-62.25
4101.127	-57.25
4103.559	-57.25
4105.989	-25.25
4108.418	-19.25
4110.845	-24.25
4113.27	-12.25
4115.694	-22.25
4118.115	-10.25
4120.535	-37.25
4122.954	-39.25
4125.37	-39.25
4127.785	-43.25
4130.198	-38.25
4132.609	-44.25
4135.019	-58.25
4137.427	-59.25
4139.833	-57.25
4142.237	-59.25
