Data from SERS_DW_20uL_I=0.5_T=20s_RamanShift_7.txt Node
Date: Wed Jun 14 14:29:03 IDT 2017
User: aro
Spectrometer: QEPB0276
Trigger mode: 0
Integration Time (sec): 2.000000E1
Scans to average: 1
Electric dark correction enabled: true
Nonlinearity correction enabled: false
Boxcar width: 0
XAxis mode: Raman Shifts
Number of Pixels in Spectrum: 1044
>>>>>Begin Spectral Data<<<<<
160.701	-5.88
166.742	12.12
172.777	49.12
178.805	171.12
184.826	478.12
190.841	1038.12
196.849	1762.12
202.85	2313.12
208.845	2523.12
214.833	2552.12
220.815	2575.12
226.789	2594.12
232.758	2626.12
238.719	2679.12
244.674	2679.12
250.623	2693.12
256.565	2673.12
262.5	2642.12
268.429	2632.12
274.351	2628.12
280.267	2627.12
286.176	2623.12
292.079	2655.12
297.975	2687.12
303.865	2695.12
309.748	2703.12
315.625	2662.12
321.495	2608.12
327.359	2546.12
333.217	2512.12
339.068	2510.12
344.912	2487.12
350.751	2443.12
356.583	2423.12
362.408	2394.12
368.227	2366.12
374.04	2366.12
379.847	2389.12
385.647	2404.12
391.44	2352.12
397.228	2311.12
403.009	2297.12
408.784	2308.12
414.553	2361.12
420.315	2457.12
426.071	2426.12
431.821	2297.12
437.565	2179.12
443.302	2085.12
449.033	2011.12
454.758	1945.12
460.477	1889.12
466.189	1813.12
471.896	1727.12
477.596	1685.12
483.29	1589.12
488.978	1519.12
494.66	1407.12
500.335	1260.12
506.005	1146.12
511.668	1165.12
517.325	1404.12
522.977	1842.12
528.622	2236.12
534.261	2391.12
539.894	2367.12
545.521	2311.12
551.141	2272.12
556.756	2223.12
562.365	2166.12
567.968	2156.12
573.565	2084.12
579.155	2050.12
584.74	2005.12
590.319	1962.12
595.892	1928.12
601.459	1875.12
607.02	1832.12
612.575	1775.12
618.124	1764.12
623.667	1775.12
629.204	1830.12
634.735	1821.12
640.261	1824.12
645.781	1866.12
651.294	1890.12
656.802	1852.12
662.304	1790.12
667.8	1762.12
673.29	1756.12
678.775	1718.12
684.254	1710.12
689.726	1691.12
695.193	1684.12
700.655	1669.12
706.11	1670.12
711.56	1628.12
717.004	1616.12
722.442	1593.12
727.874	1594.12
733.301	1576.12
738.722	1583.12
744.137	1574.12
749.547	1586.12
754.951	1604.12
760.349	1568.12
765.741	1550.12
771.128	1544.12
776.509	1545.12
781.885	1541.12
787.254	1547.12
792.618	1540.12
797.977	1541.12
803.33	1518.12
808.677	1509.12
814.019	1481.12
819.355	1467.12
824.686	1443.12
830.011	1439.12
835.33	1443.12
840.644	1414.12
845.952	1407.12
851.255	1428.12
856.552	1410.12
861.844	1407.12
867.13	1389.12
872.41	1402.12
877.686	1371.12
882.955	1366.12
888.219	1348.12
893.478	1338.12
898.731	1337.12
903.979	1311.12
909.221	1302.12
914.458	1299.12
919.69	1319.12
924.916	1336.12
930.136	1358.12
935.351	1398.12
940.561	1457.12
945.766	1461.12
950.965	1449.12
956.158	1432.12
961.347	1408.12
966.529	1363.12
971.707	1346.12
976.879	1324.12
982.046	1283.12
987.208	1252.12
992.364	1244.12
997.515	1226.12
1002.66	1195.12
1007.801	1195.12
1012.936	1185.12
1018.066	1203.12
1023.19	1204.12
1028.309	1198.12
1033.423	1176.12
1038.532	1162.12
1043.636	1131.12
1048.734	1137.12
1053.827	1114.12
1058.915	1108.12
1063.998	1091.12
1069.075	1074.12
1074.147	1087.12
1079.214	1087.12
1084.276	1095.12
1089.333	1103.12
1094.385	1103.12
1099.431	1107.12
1104.472	1101.12
1109.509	1093.12
1114.54	1086.12
1119.565	1076.12
1124.586	1044.12
1129.602	1041.12
1134.613	1038.12
1139.618	1032.12
1144.619	1029.12
1149.614	1034.12
1154.604	1026.12
1159.589	1031.12
1164.57	1029.12
1169.545	1029.12
1174.515	1033.12
1179.48	1033.12
1184.44	996.12
1189.395	1006.12
1194.345	989.12
1199.29	987.12
1204.23	990.12
1209.165	1008.12
1214.095	1001.12
1219.021	1012.12
1223.941	1002.12
1228.856	1012.12
1233.766	1029.12
1238.672	1018.12
1243.572	1013.12
1248.467	1011.12
1253.358	1003.12
1258.244	976.12
1263.124	971.12
1268	959.12
1272.871	943.12
1277.737	945.12
1282.599	925.12
1287.455	937.12
1292.306	942.12
1297.153	947.12
1301.995	957.12
1306.832	952.12
1311.664	964.12
1316.491	973.12
1321.314	952.12
1326.132	973.12
1330.945	975.12
1335.753	962.12
1340.556	964.12
1345.354	970.12
1350.148	958.12
1354.937	948.12
1359.722	933.12
1364.501	899.12
1369.276	876.12
1374.046	853.12
1378.811	814.12
1383.572	806.12
1388.327	773.12
1393.079	788.12
1397.825	794.12
1402.567	804.12
1407.304	807.12
1412.036	817.12
1416.764	830.12
1421.487	808.12
1426.205	827.12
1430.919	824.12
1435.628	825.12
1440.333	856.12
1445.032	866.12
1449.727	875.12
1454.418	876.12
1459.104	871.12
1463.785	878.12
1468.462	866.12
1473.134	862.12
1477.802	871.12
1482.465	871.12
1487.123	877.12
1491.777	850.12
1496.426	870.12
1501.071	874.12
1505.711	866.12
1510.347	862.12
1514.978	855.12
1519.604	837.12
1524.226	817.12
1528.844	800.12
1533.457	778.12
1538.065	772.12
1542.669	764.12
1547.269	774.12
1551.864	763.12
1556.454	757.12
1561.041	784.12
1565.622	769.12
1570.199	763.12
1574.772	778.12
1579.34	793.12
1583.904	798.12
1588.464	786.12
1593.019	794.12
1597.569	792.12
1602.115	787.12
1606.657	781.12
1611.195	798.12
1615.728	774.12
1620.256	788.12
1624.78	788.12
1629.3	788.12
1633.816	809.12
1638.327	803.12
1642.834	808.12
1647.336	827.12
1651.834	840.12
1656.328	850.12
1660.817	862.12
1665.302	865.12
1669.783	867.12
1674.259	868.12
1678.732	865.12
1683.199	872.12
1687.663	885.12
1692.122	864.12
1696.577	836.12
1701.028	800.12
1705.474	769.12
1709.917	735.12
1714.355	714.12
1718.788	730.12
1723.218	741.12
1727.643	744.12
1732.064	756.12
1736.481	745.12
1740.893	747.12
1745.301	729.12
1749.705	740.12
1754.105	728.12
1758.501	707.12
1762.893	718.12
1767.28	736.12
1771.663	734.12
1776.042	749.12
1780.417	776.12
1784.787	779.12
1789.154	778.12
1793.516	781.12
1797.874	774.12
1802.228	744.12
1806.578	716.12
1810.924	710.12
1815.266	686.12
1819.603	684.12
1823.937	699.12
1828.266	694.12
1832.591	698.12
1836.913	720.12
1841.23	730.12
1845.543	741.12
1849.852	756.12
1854.156	763.12
1858.457	780.12
1862.754	779.12
1867.047	811.12
1871.335	821.12
1875.62	828.12
1879.9	839.12
1884.177	847.12
1888.449	869.12
1892.718	864.12
1896.982	878.12
1901.243	883.12
1905.499	887.12
1909.752	902.12
1914	909.12
1918.245	905.12
1922.485	923.12
1926.722	928.12
1930.954	932.12
1935.183	930.12
1939.408	919.12
1943.628	913.12
1947.845	910.12
1952.058	889.12
1956.267	884.12
1960.472	887.12
1964.673	852.12
1968.87	839.12
1973.063	852.12
1977.252	833.12
1981.438	838.12
1985.619	834.12
1989.797	855.12
1993.971	854.12
1998.14	862.12
2002.306	875.12
2006.469	888.12
2010.627	902.12
2014.781	918.12
2018.932	917.12
2023.078	937.12
2027.221	915.12
2031.36	939.12
2035.495	953.12
2039.627	947.12
2043.754	954.12
2047.878	962.12
2051.998	980.12
2056.114	978.12
2060.226	1017.12
2064.334	1015.12
2068.439	1041.12
2072.54	1044.12
2076.637	1078.12
2080.73	1085.12
2084.82	1091.12
2088.906	1097.12
2092.988	1088.12
2097.066	1086.12
2101.14	1090.12
2105.211	1072.12
2109.278	1073.12
2113.342	1067.12
2117.401	1054.12
2121.457	1048.12
2125.509	1043.12
2129.558	1048.12
2133.602	1039.12
2137.643	1059.12
2141.681	1054.12
2145.714	1075.12
2149.744	1068.12
2153.77	1088.12
2157.793	1092.12
2161.812	1091.12
2165.827	1100.12
2169.838	1085.12
2173.846	1093.12
2177.851	1111.12
2181.851	1105.12
2185.848	1106.12
2189.841	1113.12
2193.831	1115.12
2197.817	1107.12
2201.799	1151.12
2205.778	1148.12
2209.753	1148.12
2213.725	1163.12
2217.693	1170.12
2221.657	1190.12
2225.618	1202.12
2229.575	1203.12
2233.529	1221.12
2237.479	1213.12
2241.425	1230.12
2245.368	1204.12
2249.307	1240.12
2253.243	1214.12
2257.175	1223.12
2261.104	1213.12
2265.029	1210.12
2268.95	1222.12
2272.868	1215.12
2276.783	1231.12
2280.694	1240.12
2284.601	1225.12
2288.505	1235.12
2292.405	1232.12
2296.302	1233.12
2300.195	1251.12
2304.085	1241.12
2307.971	1249.12
2311.854	1239.12
2315.734	1230.12
2319.609	1234.12
2323.482	1220.12
2327.351	1247.12
2331.216	1262.12
2335.078	1260.12
2338.937	1268.12
2342.792	1286.12
2346.643	1291.12
2350.492	1307.12
2354.336	1334.12
2358.178	1354.12
2362.015	1373.12
2365.85	1395.12
2369.681	1409.12
2373.508	1427.12
2377.333	1450.12
2381.153	1467.12
2384.971	1492.12
2388.785	1502.12
2392.595	1523.12
2396.402	1512.12
2400.206	1537.12
2404.007	1536.12
2407.804	1570.12
2411.597	1592.12
2415.388	1618.12
2419.174	1626.12
2422.958	1650.12
2426.738	1671.12
2430.515	1665.12
2434.289	1691.12
2438.059	1717.12
2441.825	1724.12
2445.589	1737.12
2449.349	1748.12
2453.106	1747.12
2456.859	1756.12
2460.61	1778.12
2464.356	1793.12
2468.1	1807.12
2471.84	1813.12
2475.577	1831.12
2479.311	1841.12
2483.041	1875.12
2486.768	1899.12
2490.492	1927.12
2494.213	1939.12
2497.93	1967.12
2501.644	2005.12
2505.355	2017.12
2509.062	2049.12
2512.766	2063.12
2516.467	2075.12
2520.165	2086.12
2523.859	2117.12
2527.551	2127.12
2531.239	2153.12
2534.923	2148.12
2538.605	2193.12
2542.283	2213.12
2545.958	2211.12
2549.63	2235.12
2553.299	2252.12
2556.964	2261.12
2560.626	2272.12
2564.285	2290.12
2567.941	2311.12
2571.594	2282.12
2575.243	2300.12
2578.89	2305.12
2582.533	2307.12
2586.173	2299.12
2589.809	2295.12
2593.443	2313.12
2597.073	2301.12
2600.701	2280.12
2604.325	2291.12
2607.946	2303.12
2611.564	2308.12
2615.178	2344.12
2618.79	2320.12
2622.398	2349.12
2626.004	2359.12
2629.606	2358.12
2633.205	2348.12
2636.801	2368.12
2640.394	2381.12
2643.983	2384.12
2647.57	2400.12
2651.153	2390.12
2654.734	2394.12
2658.311	2409.12
2661.885	2431.12
2665.456	2425.12
2669.025	2431.12
2672.589	2471.12
2676.151	2470.12
2679.71	2477.12
2683.266	2498.12
2686.819	2475.12
2690.368	2496.12
2693.915	2492.12
2697.458	2509.12
2700.999	2504.12
2704.536	2504.12
2708.071	2505.12
2711.602	2530.12
2715.13	2548.12
2718.656	2582.12
2722.178	2621.12
2725.697	2643.12
2729.214	2710.12
2732.727	2723.12
2736.237	2772.12
2739.744	2787.12
2743.249	2854.12
2746.75	2831.12
2750.248	2822.12
2753.743	2790.12
2757.236	2737.12
2760.725	2697.12
2764.211	2674.12
2767.695	2613.12
2771.175	2608.12
2774.652	2574.12
2778.127	2559.12
2781.598	2578.12
2785.067	2617.12
2788.532	2652.12
2791.995	2710.12
2795.455	2751.12
2798.911	2764.12
2802.365	2817.12
2805.816	2843.12
2809.264	2873.12
2812.709	2885.12
2816.151	2921.12
2819.59	2912.12
2823.026	2913.12
2826.46	2932.12
2829.89	2936.12
2833.318	2957.12
2836.742	2953.12
2840.164	2945.12
2843.583	2950.12
2846.999	2966.12
2850.412	2962.12
2853.822	2988.12
2857.229	2975.12
2860.634	3001.12
2864.035	2974.12
2867.434	2983.12
2870.83	3000.12
2874.223	2966.12
2877.613	2956.12
2881	2930.12
2884.385	2915.12
2887.766	2876.12
2891.145	2870.12
2894.521	2857.12
2897.894	2830.12
2901.264	2832.12
2904.631	2830.12
2907.996	2793.12
2911.358	2802.12
2914.717	2822.12
2918.073	2813.12
2921.426	2808.12
2924.777	2818.12
2928.124	2852.12
2931.469	2854.12
2934.811	2851.12
2938.15	2858.12
2941.487	2850.12
2944.821	2876.12
2948.152	2862.12
2951.48	2895.12
2954.805	2887.12
2958.128	2873.12
2961.447	2898.12
2964.765	2888.12
2968.079	2888.12
2971.39	2908.12
2974.699	2890.12
2978.005	2924.12
2981.308	2886.12
2984.609	2911.12
2987.907	2932.12
2991.202	2890.12
2994.494	2898.12
2997.784	2877.12
3001.07	2829.12
3004.355	2794.12
3007.636	2769.12
3010.915	2734.12
3014.191	2711.12
3017.464	2678.12
3020.734	2663.12
3024.002	2626.12
3027.267	2621.12
3030.53	2607.12
3033.789	2609.12
3037.046	2606.12
3040.301	2615.12
3043.552	2610.12
3046.801	2622.12
3050.048	2645.12
3053.291	2657.12
3056.532	2699.12
3059.771	2720.12
3063.006	2755.12
3066.239	2768.12
3069.469	2744.12
3072.697	2788.12
3075.922	2808.12
3079.144	2799.12
3082.364	2795.12
3085.581	2795.12
3088.795	2791.12
3092.007	2809.12
3095.216	2802.12
3098.423	2798.12
3101.627	2793.12
3104.828	2799.12
3108.026	2774.12
3111.222	2767.12
3114.416	2778.12
3117.607	2765.12
3120.795	2775.12
3123.98	2763.12
3127.163	2766.12
3130.344	2788.12
3133.521	2781.12
3136.696	2777.12
3139.869	2772.12
3143.039	2764.12
3146.206	2740.12
3149.371	2725.12
3152.533	2701.12
3155.693	2681.12
3158.85	2639.12
3162.005	2623.12
3165.157	2578.12
3168.306	2549.12
3171.453	2507.12
3174.597	2494.12
3177.739	2473.12
3180.878	2457.12
3184.014	2444.12
3187.149	2418.12
3190.28	2389.12
3193.409	2383.12
3196.536	2386.12
3199.659	2353.12
3202.781	2359.12
3205.9	2359.12
3209.016	2349.12
3212.13	2345.12
3215.241	2343.12
3218.35	2303.12
3221.456	2293.12
3224.56	2281.12
3227.661	2256.12
3230.76	2237.12
3233.856	2221.12
3236.95	2196.12
3240.041	2198.12
3243.13	2168.12
3246.216	2163.12
3249.3	2171.12
3252.382	2121.12
3255.46	2131.12
3258.537	2114.12
3261.611	2104.12
3264.682	2105.12
3267.751	2066.12
3270.818	2045.12
3273.882	2040.12
3276.943	2026.12
3280.002	2002.12
3283.059	1975.12
3286.113	1950.12
3289.165	1935.12
3292.214	1912.12
3295.261	1876.12
3298.306	1840.12
3301.348	1866.12
3304.387	1826.12
3307.425	1812.12
3310.459	1807.12
3313.492	1769.12
3316.521	1778.12
3319.549	1772.12
3322.574	1761.12
3325.597	1769.12
3328.617	1745.12
3331.635	1762.12
3334.65	1779.12
3337.663	1751.12
3340.674	1736.12
3343.682	1754.12
3346.688	1764.12
3349.691	1761.12
3352.692	1754.12
3355.691	1730.12
3358.687	1729.12
3361.681	1725.12
3364.673	1714.12
3367.662	1712.12
3370.649	1675.12
3373.633	1675.12
3376.615	1649.12
3379.595	1625.12
3382.572	1617.12
3385.547	1593.12
3388.52	1577.12
3391.49	1564.12
3394.458	1554.12
3397.424	1546.12
3400.387	1538.12
3403.348	1531.12
3406.307	1532.12
3409.263	1521.12
3412.217	1522.12
3415.168	1507.12
3418.118	1508.12
3421.065	1487.12
3424.009	1491.12
3426.951	1477.12
3429.891	1468.12
3432.829	1449.12
3435.764	1435.12
3438.697	1421.12
3441.628	1396.12
3444.557	1367.12
3447.483	1346.12
3450.407	1339.12
3453.328	1315.12
3456.247	1297.12
3459.164	1269.12
3462.079	1252.12
3464.991	1237.12
3467.902	1212.12
3470.809	1191.12
3473.715	1184.12
3476.618	1168.12
3479.519	1149.12
3482.418	1131.12
3485.315	1134.12
3488.209	1116.12
3491.101	1100.12
3493.99	1097.12
3496.878	1088.12
3499.763	1060.12
3502.646	1062.12
3505.527	1048.12
3508.405	1025.12
3511.281	1015.12
3514.155	994.12
3517.027	968.12
3519.897	944.12
3522.764	915.12
3525.629	898.12
3528.492	889.12
3531.352	857.12
3534.211	844.12
3537.067	808.12
3539.921	798.12
3542.773	783.12
3545.622	768.12
3548.469	749.12
3551.315	750.12
3554.157	720.12
3556.998	710.12
3559.837	687.12
3562.673	702.12
3565.507	685.12
3568.339	683.12
3571.169	666.12
3573.996	650.12
3576.822	637.12
3579.645	635.12
3582.466	613.12
3585.285	601.12
3588.101	595.12
3590.916	580.12
3593.728	577.12
3596.538	560.12
3599.346	542.12
3602.152	528.12
3604.956	513.12
3607.757	505.12
3610.556	497.12
3613.354	478.12
3616.149	479.12
3618.942	468.12
3621.732	462.12
3624.521	443.12
3627.307	434.12
3630.092	437.12
3632.874	425.12
3635.654	431.12
3638.432	424.12
3641.208	417.12
3643.982	403.12
3646.753	407.12
3649.523	406.12
3652.29	409.12
3655.055	404.12
3657.818	397.12
3660.579	387.12
3663.338	388.12
3666.095	371.12
3668.849	371.12
3671.602	371.12
3674.352	367.12
3677.101	367.12
3679.847	372.12
3682.591	365.12
3685.333	367.12
3688.073	364.12
3690.811	355.12
3693.547	365.12
3696.281	365.12
3699.013	376.12
3701.742	369.12
3704.47	371.12
3707.195	369.12
3709.919	366.12
3712.64	354.12
3715.359	358.12
3718.076	357.12
3720.792	353.12
3723.505	345.12
3726.216	349.12
3728.925	341.12
3731.632	343.12
3734.336	332.12
3737.039	330.12
3739.74	322.12
3742.439	315.12
3745.136	322.12
3747.83	317.12
3750.523	314.12
3753.213	316.12
3755.902	320.12
3758.589	327.12
3761.273	315.12
3763.956	321.12
3766.636	304.12
3769.315	309.12
3771.991	300.12
3774.665	300.12
3777.338	302.12
3780.008	285.12
3782.677	283.12
3785.343	277.12
3788.007	269.12
3790.67	267.12
3793.33	253.12
3795.989	247.12
3798.645	252.12
3801.299	245.12
3803.952	229.12
3806.602	239.12
3809.251	239.12
3811.897	228.12
3814.542	222.12
3817.184	226.12
3819.825	222.12
3822.463	222.12
3825.1	219.12
3827.735	205.12
3830.367	200.12
3832.998	204.12
3835.627	190.12
3838.253	185.12
3840.878	187.12
3843.501	180.12
3846.122	171.12
3848.741	170.12
3851.358	158.12
3853.973	156.12
3856.586	148.12
3859.197	145.12
3861.806	146.12
3864.414	143.12
3867.019	135.12
3869.622	133.12
3872.224	133.12
3874.823	125.12
3877.421	126.12
3880.016	121.12
3882.61	119.12
3885.202	115.12
3887.792	112.12
3890.38	98.12
3892.966	84.12
3895.55	81.12
3898.132	65.12
3900.713	75.12
3903.291	56.12
3905.868	51.12
3908.442	53.12
3911.015	54.12
3913.586	50.12
3916.155	39.12
3918.722	36.12
3921.287	30.12
3923.85	35.12
3926.411	29.12
3928.971	31.12
3931.528	23.12
3934.084	24.12
3936.638	16.12
3939.19	20.12
3941.74	14.12
3944.288	6.12
3946.834	9.12
3949.378	10.12
3951.921	10.12
3954.462	-2.88
3957	6.12
3959.537	3.12
3962.072	-0.88
3964.606	1.12
3967.137	0.12
3969.667	3.12
3972.194	-3.88
3974.72	2.12
3977.244	0.12
3979.766	-1.88
3982.286	1.12
3984.805	-0.88
3987.321	-2.88
3989.836	-7.88
3992.349	-1.88
3994.86	-10.88
3997.369	-9.88
3999.877	-7.88
4002.382	-6.88
4004.886	-12.88
4007.388	-11.88
4009.888	-11.88
4012.386	-17.88
4014.883	-13.88
4017.377	-17.88
4019.87	-13.88
4022.361	-18.88
4024.85	-17.88
4027.338	-20.88
4029.823	-17.88
4032.307	-20.88
4034.789	-19.88
4037.269	-19.88
4039.747	-17.88
4042.224	-20.88
4044.699	-24.88
4047.172	-19.88
4049.643	-20.88
4052.112	-29.88
4054.58	-20.88
4057.046	-21.88
4059.51	-27.88
4061.972	-25.88
4064.432	-26.88
4066.891	-26.88
4069.348	-29.88
4071.803	-27.88
4074.256	-32.88
4076.708	-41.88
4079.158	-36.88
4081.606	-34.88
4084.052	-38.88
4086.497	-37.88
4088.939	-35.88
4091.38	-40.88
4093.819	-35.88
4096.257	-53.88
4098.693	-56.88
4101.127	-54.88
4103.559	-54.88
4105.989	-22.88
4108.418	-16.88
4110.845	-23.88
4113.27	-11.88
4115.694	-19.88
4118.115	-11.88
4120.535	-41.88
4122.954	-38.88
4125.37	-39.88
4127.785	-33.88
4130.198	-35.88
4132.609	-46.88
4135.019	-53.88
4137.427	-55.88
4139.833	-57.88
4142.237	-58.88
