Data from SERS_Bac_20uL_I=0.5_T=20s_RamanShift_1.txt Node
Date: Wed Jun 14 14:38:21 IDT 2017
User: aro
Spectrometer: QEPB0276
Trigger mode: 0
Integration Time (sec): 2.000000E1
Scans to average: 1
Electric dark correction enabled: true
Nonlinearity correction enabled: false
Boxcar width: 0
XAxis mode: Raman Shifts
Number of Pixels in Spectrum: 1044
>>>>>Begin Spectral Data<<<<<
160.701	-4.25
166.742	4.75
172.777	55.75
178.805	200.75
184.826	561.75
190.841	1223.75
196.849	2053.75
202.85	2680.75
208.845	2922.75
214.833	2966.75
220.815	2976.75
226.789	3017.75
232.758	3067.75
238.719	3110.75
244.674	3130.75
250.623	3118.75
256.565	3070.75
262.5	3023.75
268.429	2996.75
274.351	2956.75
280.267	2932.75
286.176	2911.75
292.079	2912.75
297.975	2948.75
303.865	2933.75
309.748	2937.75
315.625	2876.75
321.495	2858.75
327.359	2788.75
333.217	2763.75
339.068	2719.75
344.912	2720.75
350.751	2684.75
356.583	2640.75
362.408	2612.75
368.227	2631.75
374.04	2599.75
379.847	2633.75
385.647	2608.75
391.44	2594.75
397.228	2522.75
403.009	2511.75
408.784	2539.75
414.553	2620.75
420.315	2692.75
426.071	2650.75
431.821	2524.75
437.565	2400.75
443.302	2322.75
449.033	2254.75
454.758	2197.75
460.477	2119.75
466.189	2033.75
471.896	1978.75
477.596	1903.75
483.29	1839.75
488.978	1733.75
494.66	1625.75
500.335	1486.75
506.005	1363.75
511.668	1383.75
517.325	1622.75
522.977	2067.75
528.622	2465.75
534.261	2623.75
539.894	2618.75
545.521	2553.75
551.141	2509.75
556.756	2451.75
562.365	2411.75
567.968	2353.75
573.565	2305.75
579.155	2275.75
584.74	2242.75
590.319	2204.75
595.892	2139.75
601.459	2096.75
607.02	2060.75
612.575	1981.75
618.124	1995.75
623.667	1995.75
629.204	1999.75
634.735	2046.75
640.261	2045.75
645.781	2087.75
651.294	2084.75
656.802	2058.75
662.304	1987.75
667.8	1961.75
673.29	1960.75
678.775	1929.75
684.254	1927.75
689.726	1910.75
695.193	1876.75
700.655	1853.75
706.11	1846.75
711.56	1803.75
717.004	1791.75
722.442	1785.75
727.874	1782.75
733.301	1756.75
738.722	1752.75
744.137	1754.75
749.547	1768.75
754.951	1785.75
760.349	1749.75
765.741	1743.75
771.128	1738.75
776.509	1723.75
781.885	1727.75
787.254	1714.75
792.618	1717.75
797.977	1700.75
803.33	1689.75
808.677	1672.75
814.019	1640.75
819.355	1623.75
824.686	1622.75
830.011	1604.75
835.33	1587.75
840.644	1590.75
845.952	1590.75
851.255	1580.75
856.552	1553.75
861.844	1544.75
867.13	1539.75
872.41	1531.75
877.686	1532.75
882.955	1520.75
888.219	1492.75
893.478	1485.75
898.731	1497.75
903.979	1463.75
909.221	1478.75
914.458	1467.75
919.69	1477.75
924.916	1477.75
930.136	1502.75
935.351	1553.75
940.561	1609.75
945.766	1621.75
950.965	1609.75
956.158	1596.75
961.347	1560.75
966.529	1534.75
971.707	1491.75
976.879	1457.75
982.046	1439.75
987.208	1403.75
992.364	1380.75
997.515	1359.75
1002.66	1363.75
1007.801	1338.75
1012.936	1347.75
1018.066	1341.75
1023.19	1333.75
1028.309	1360.75
1033.423	1354.75
1038.532	1320.75
1043.636	1290.75
1048.734	1286.75
1053.827	1285.75
1058.915	1245.75
1063.998	1256.75
1069.075	1234.75
1074.147	1236.75
1079.214	1240.75
1084.276	1239.75
1089.333	1256.75
1094.385	1246.75
1099.431	1283.75
1104.472	1264.75
1109.509	1240.75
1114.54	1225.75
1119.565	1215.75
1124.586	1199.75
1129.602	1190.75
1134.613	1189.75
1139.618	1179.75
1144.619	1179.75
1149.614	1172.75
1154.604	1182.75
1159.589	1187.75
1164.57	1171.75
1169.545	1197.75
1174.515	1193.75
1179.48	1182.75
1184.44	1163.75
1189.395	1170.75
1194.345	1141.75
1199.29	1141.75
1204.23	1154.75
1209.165	1153.75
1214.095	1156.75
1219.021	1172.75
1223.941	1167.75
1228.856	1174.75
1233.766	1189.75
1238.672	1179.75
1243.572	1174.75
1248.467	1171.75
1253.358	1145.75
1258.244	1124.75
1263.124	1121.75
1268	1101.75
1272.871	1086.75
1277.737	1082.75
1282.599	1083.75
1287.455	1084.75
1292.306	1083.75
1297.153	1095.75
1301.995	1093.75
1306.832	1101.75
1311.664	1099.75
1316.491	1116.75
1321.314	1115.75
1326.132	1097.75
1330.945	1108.75
1335.753	1105.75
1340.556	1110.75
1345.354	1120.75
1350.148	1112.75
1354.937	1098.75
1359.722	1072.75
1364.501	1038.75
1369.276	996.75
1374.046	964.75
1378.811	930.75
1383.572	918.75
1388.327	895.75
1393.079	891.75
1397.825	893.75
1402.567	921.75
1407.304	912.75
1412.036	922.75
1416.764	933.75
1421.487	934.75
1426.205	931.75
1430.919	939.75
1435.628	964.75
1440.333	971.75
1445.032	975.75
1449.727	966.75
1454.418	976.75
1459.104	970.75
1463.785	991.75
1468.462	987.75
1473.134	974.75
1477.802	974.75
1482.465	967.75
1487.123	972.75
1491.777	982.75
1496.426	956.75
1501.071	976.75
1505.711	957.75
1510.347	961.75
1514.978	955.75
1519.604	962.75
1524.226	909.75
1528.844	909.75
1533.457	868.75
1538.065	862.75
1542.669	861.75
1547.269	841.75
1551.864	836.75
1556.454	859.75
1561.041	872.75
1565.622	862.75
1570.199	871.75
1574.772	867.75
1579.34	871.75
1583.904	874.75
1588.464	894.75
1593.019	890.75
1597.569	898.75
1602.115	898.75
1606.657	897.75
1611.195	884.75
1615.728	888.75
1620.256	887.75
1624.78	875.75
1629.3	886.75
1633.816	906.75
1638.327	913.75
1642.834	929.75
1647.336	938.75
1651.834	941.75
1656.328	958.75
1660.817	972.75
1665.302	971.75
1669.783	965.75
1674.259	965.75
1678.732	974.75
1683.199	972.75
1687.663	984.75
1692.122	962.75
1696.577	936.75
1701.028	901.75
1705.474	854.75
1709.917	830.75
1714.355	799.75
1718.788	792.75
1723.218	824.75
1727.643	820.75
1732.064	830.75
1736.481	826.75
1740.893	801.75
1745.301	805.75
1749.705	784.75
1754.105	792.75
1758.501	776.75
1762.893	777.75
1767.28	781.75
1771.663	799.75
1776.042	812.75
1780.417	822.75
1784.787	848.75
1789.154	841.75
1793.516	857.75
1797.874	827.75
1802.228	805.75
1806.578	782.75
1810.924	765.75
1815.266	738.75
1819.603	754.75
1823.937	756.75
1828.266	762.75
1832.591	752.75
1836.913	777.75
1841.23	797.75
1845.543	798.75
1849.852	796.75
1854.156	817.75
1858.457	826.75
1862.754	847.75
1867.047	870.75
1871.335	883.75
1875.62	889.75
1879.9	897.75
1884.177	897.75
1888.449	919.75
1892.718	920.75
1896.982	931.75
1901.243	932.75
1905.499	951.75
1909.752	970.75
1914	973.75
1918.245	981.75
1922.485	972.75
1926.722	987.75
1930.954	1000.75
1935.183	978.75
1939.408	984.75
1943.628	970.75
1947.845	947.75
1952.058	945.75
1956.267	927.75
1960.472	915.75
1964.673	904.75
1968.87	890.75
1973.063	890.75
1977.252	885.75
1981.438	867.75
1985.619	902.75
1989.797	892.75
1993.971	895.75
1998.14	901.75
2002.306	929.75
2006.469	924.75
2010.627	948.75
2014.781	946.75
2018.932	948.75
2023.078	950.75
2027.221	944.75
2031.36	960.75
2035.495	964.75
2039.627	971.75
2043.754	976.75
2047.878	988.75
2051.998	1001.75
2056.114	1001.75
2060.226	1011.75
2064.334	1045.75
2068.439	1055.75
2072.54	1061.75
2076.637	1095.75
2080.73	1098.75
2084.82	1097.75
2088.906	1103.75
2092.988	1095.75
2097.066	1099.75
2101.14	1114.75
2105.211	1084.75
2109.278	1073.75
2113.342	1068.75
2117.401	1068.75
2121.457	1060.75
2125.509	1063.75
2129.558	1065.75
2133.602	1052.75
2137.643	1051.75
2141.681	1063.75
2145.714	1073.75
2149.744	1070.75
2153.77	1080.75
2157.793	1096.75
2161.812	1079.75
2165.827	1091.75
2169.838	1084.75
2173.846	1088.75
2177.851	1097.75
2181.851	1090.75
2185.848	1095.75
2189.841	1097.75
2193.831	1094.75
2197.817	1111.75
2201.799	1119.75
2205.778	1134.75
2209.753	1147.75
2213.725	1151.75
2217.693	1166.75
2221.657	1170.75
2225.618	1179.75
2229.575	1186.75
2233.529	1210.75
2237.479	1219.75
2241.425	1209.75
2245.368	1207.75
2249.307	1202.75
2253.243	1196.75
2257.175	1192.75
2261.104	1210.75
2265.029	1199.75
2268.95	1203.75
2272.868	1176.75
2276.783	1193.75
2280.694	1202.75
2284.601	1211.75
2288.505	1210.75
2292.405	1212.75
2296.302	1196.75
2300.195	1214.75
2304.085	1218.75
2307.971	1209.75
2311.854	1205.75
2315.734	1211.75
2319.609	1204.75
2323.482	1200.75
2327.351	1213.75
2331.216	1231.75
2335.078	1243.75
2338.937	1242.75
2342.792	1250.75
2346.643	1250.75
2350.492	1282.75
2354.336	1300.75
2358.178	1322.75
2362.015	1349.75
2365.85	1368.75
2369.681	1379.75
2373.508	1393.75
2377.333	1400.75
2381.153	1445.75
2384.971	1449.75
2388.785	1462.75
2392.595	1479.75
2396.402	1473.75
2400.206	1514.75
2404.007	1511.75
2407.804	1519.75
2411.597	1552.75
2415.388	1572.75
2419.174	1584.75
2422.958	1613.75
2426.738	1616.75
2430.515	1626.75
2434.289	1649.75
2438.059	1668.75
2441.825	1687.75
2445.589	1697.75
2449.349	1700.75
2453.106	1699.75
2456.859	1734.75
2460.61	1727.75
2464.356	1728.75
2468.1	1745.75
2471.84	1769.75
2475.577	1788.75
2479.311	1803.75
2483.041	1838.75
2486.768	1847.75
2490.492	1873.75
2494.213	1897.75
2497.93	1927.75
2501.644	1929.75
2505.355	1987.75
2509.062	1991.75
2512.766	2005.75
2516.467	2022.75
2520.165	2042.75
2523.859	2057.75
2527.551	2085.75
2531.239	2095.75
2534.923	2128.75
2538.605	2111.75
2542.283	2137.75
2545.958	2156.75
2549.63	2187.75
2553.299	2183.75
2556.964	2202.75
2560.626	2214.75
2564.285	2213.75
2567.941	2217.75
2571.594	2232.75
2575.243	2222.75
2578.89	2226.75
2582.533	2234.75
2586.173	2219.75
2589.809	2241.75
2593.443	2228.75
2597.073	2224.75
2600.701	2207.75
2604.325	2213.75
2607.946	2236.75
2611.564	2245.75
2615.178	2254.75
2618.79	2261.75
2622.398	2269.75
2626.004	2259.75
2629.606	2299.75
2633.205	2294.75
2636.801	2283.75
2640.394	2297.75
2643.983	2299.75
2647.57	2301.75
2651.153	2300.75
2654.734	2312.75
2658.311	2327.75
2661.885	2323.75
2665.456	2351.75
2669.025	2338.75
2672.589	2359.75
2676.151	2372.75
2679.71	2382.75
2683.266	2379.75
2686.819	2413.75
2690.368	2372.75
2693.915	2426.75
2697.458	2424.75
2700.999	2396.75
2704.536	2429.75
2708.071	2432.75
2711.602	2423.75
2715.13	2471.75
2718.656	2461.75
2722.178	2509.75
2725.697	2526.75
2729.214	2593.75
2732.727	2627.75
2736.237	2663.75
2739.744	2697.75
2743.249	2716.75
2746.75	2724.75
2750.248	2715.75
2753.743	2675.75
2757.236	2646.75
2760.725	2600.75
2764.211	2565.75
2767.695	2525.75
2771.175	2485.75
2774.652	2488.75
2778.127	2488.75
2781.598	2499.75
2785.067	2524.75
2788.532	2537.75
2791.995	2605.75
2795.455	2625.75
2798.911	2673.75
2802.365	2702.75
2805.816	2732.75
2809.264	2750.75
2812.709	2773.75
2816.151	2805.75
2819.59	2823.75
2823.026	2803.75
2826.46	2804.75
2829.89	2823.75
2833.318	2835.75
2836.742	2834.75
2840.164	2858.75
2843.583	2845.75
2846.999	2854.75
2850.412	2858.75
2853.822	2856.75
2857.229	2890.75
2860.634	2864.75
2864.035	2878.75
2867.434	2882.75
2870.83	2884.75
2874.223	2853.75
2877.613	2839.75
2881	2815.75
2884.385	2797.75
2887.766	2799.75
2891.145	2781.75
2894.521	2762.75
2897.894	2732.75
2901.264	2720.75
2904.631	2732.75
2907.996	2692.75
2911.358	2699.75
2914.717	2692.75
2918.073	2707.75
2921.426	2710.75
2924.777	2740.75
2928.124	2733.75
2931.469	2744.75
2934.811	2738.75
2938.15	2762.75
2941.487	2775.75
2944.821	2767.75
2948.152	2777.75
2951.48	2804.75
2954.805	2775.75
2958.128	2788.75
2961.447	2786.75
2964.765	2804.75
2968.079	2818.75
2971.39	2807.75
2974.699	2834.75
2978.005	2846.75
2981.308	2860.75
2984.609	2835.75
2987.907	2844.75
2991.202	2837.75
2994.494	2809.75
2997.784	2780.75
3001.07	2749.75
3004.355	2747.75
3007.636	2702.75
3010.915	2669.75
3014.191	2650.75
3017.464	2620.75
3020.734	2599.75
3024.002	2584.75
3027.267	2566.75
3030.53	2566.75
3033.789	2565.75
3037.046	2569.75
3040.301	2587.75
3043.552	2570.75
3046.801	2591.75
3050.048	2607.75
3053.291	2643.75
3056.532	2642.75
3059.771	2671.75
3063.006	2698.75
3066.239	2712.75
3069.469	2743.75
3072.697	2754.75
3075.922	2743.75
3079.144	2776.75
3082.364	2780.75
3085.581	2786.75
3088.795	2775.75
3092.007	2790.75
3095.216	2793.75
3098.423	2772.75
3101.627	2749.75
3104.828	2766.75
3108.026	2779.75
3111.222	2769.75
3114.416	2776.75
3117.607	2753.75
3120.795	2748.75
3123.98	2768.75
3127.163	2775.75
3130.344	2779.75
3133.521	2782.75
3136.696	2799.75
3139.869	2771.75
3143.039	2760.75
3146.206	2760.75
3149.371	2755.75
3152.533	2721.75
3155.693	2680.75
3158.85	2663.75
3162.005	2621.75
3165.157	2610.75
3168.306	2572.75
3171.453	2545.75
3174.597	2520.75
3177.739	2499.75
3180.878	2495.75
3184.014	2458.75
3187.149	2427.75
3190.28	2433.75
3193.409	2414.75
3196.536	2426.75
3199.659	2404.75
3202.781	2396.75
3205.9	2397.75
3209.016	2390.75
3212.13	2380.75
3215.241	2362.75
3218.35	2348.75
3221.456	2325.75
3224.56	2313.75
3227.661	2286.75
3230.76	2276.75
3233.856	2264.75
3236.95	2270.75
3240.041	2243.75
3243.13	2206.75
3246.216	2183.75
3249.3	2192.75
3252.382	2153.75
3255.46	2149.75
3258.537	2136.75
3261.611	2137.75
3264.682	2124.75
3267.751	2095.75
3270.818	2093.75
3273.882	2060.75
3276.943	2056.75
3280.002	2025.75
3283.059	2002.75
3286.113	1969.75
3289.165	1942.75
3292.214	1932.75
3295.261	1908.75
3298.306	1888.75
3301.348	1880.75
3304.387	1864.75
3307.425	1826.75
3310.459	1815.75
3313.492	1814.75
3316.521	1796.75
3319.549	1796.75
3322.574	1781.75
3325.597	1791.75
3328.617	1776.75
3331.635	1778.75
3334.65	1778.75
3337.663	1768.75
3340.674	1761.75
3343.682	1771.75
3346.688	1776.75
3349.691	1778.75
3352.692	1770.75
3355.691	1754.75
3358.687	1748.75
3361.681	1740.75
3364.673	1708.75
3367.662	1695.75
3370.649	1681.75
3373.633	1671.75
3376.615	1656.75
3379.595	1660.75
3382.572	1631.75
3385.547	1622.75
3388.52	1598.75
3391.49	1569.75
3394.458	1568.75
3397.424	1558.75
3400.387	1559.75
3403.348	1541.75
3406.307	1529.75
3409.263	1537.75
3412.217	1511.75
3415.168	1502.75
3418.118	1504.75
3421.065	1496.75
3424.009	1488.75
3426.951	1480.75
3429.891	1481.75
3432.829	1447.75
3435.764	1441.75
3438.697	1415.75
3441.628	1404.75
3444.557	1379.75
3447.483	1348.75
3450.407	1334.75
3453.328	1310.75
3456.247	1305.75
3459.164	1257.75
3462.079	1250.75
3464.991	1237.75
3467.902	1220.75
3470.809	1201.75
3473.715	1175.75
3476.618	1162.75
3479.519	1149.75
3482.418	1123.75
3485.315	1121.75
3488.209	1103.75
3491.101	1090.75
3493.99	1081.75
3496.878	1079.75
3499.763	1079.75
3502.646	1055.75
3505.527	1041.75
3508.405	1037.75
3511.281	996.75
3514.155	966.75
3517.027	961.75
3519.897	920.75
3522.764	914.75
3525.629	893.75
3528.492	877.75
3531.352	844.75
3534.211	818.75
3537.067	808.75
3539.921	790.75
3542.773	774.75
3545.622	750.75
3548.469	744.75
3551.315	715.75
3554.157	693.75
3556.998	690.75
3559.837	690.75
3562.673	680.75
3565.507	680.75
3568.339	659.75
3571.169	646.75
3573.996	638.75
3576.822	630.75
3579.645	616.75
3582.466	608.75
3585.285	597.75
3588.101	575.75
3590.916	581.75
3593.728	558.75
3596.538	554.75
3599.346	534.75
3602.152	518.75
3604.956	510.75
3607.757	505.75
3610.556	485.75
3613.354	466.75
3616.149	452.75
3618.942	462.75
3621.732	446.75
3624.521	432.75
3627.307	424.75
3630.092	424.75
3632.874	417.75
3635.654	410.75
3638.432	416.75
3641.208	408.75
3643.982	391.75
3646.753	400.75
3649.523	387.75
3652.29	375.75
3655.055	385.75
3657.818	381.75
3660.579	360.75
3663.338	362.75
3666.095	363.75
3668.849	348.75
3671.602	361.75
3674.352	352.75
3677.101	359.75
3679.847	353.75
3682.591	349.75
3685.333	345.75
3688.073	343.75
3690.811	344.75
3693.547	346.75
3696.281	351.75
3699.013	361.75
3701.742	343.75
3704.47	356.75
3707.195	351.75
3709.919	360.75
3712.64	351.75
3715.359	345.75
3718.076	342.75
3720.792	342.75
3723.505	338.75
3726.216	335.75
3728.925	330.75
3731.632	323.75
3734.336	315.75
3737.039	310.75
3739.74	300.75
3742.439	305.75
3745.136	298.75
3747.83	298.75
3750.523	306.75
3753.213	307.75
3755.902	301.75
3758.589	302.75
3761.273	301.75
3763.956	297.75
3766.636	295.75
3769.315	291.75
3771.991	290.75
3774.665	281.75
3777.338	275.75
3780.008	276.75
3782.677	266.75
3785.343	261.75
3788.007	258.75
3790.67	246.75
3793.33	238.75
3795.989	236.75
3798.645	226.75
3801.299	224.75
3803.952	226.75
3806.602	229.75
3809.251	222.75
3811.897	211.75
3814.542	229.75
3817.184	211.75
3819.825	217.75
3822.463	211.75
3825.1	204.75
3827.735	185.75
3830.367	186.75
3832.998	190.75
3835.627	174.75
3838.253	171.75
3840.878	170.75
3843.501	166.75
3846.122	166.75
3848.741	152.75
3851.358	150.75
3853.973	140.75
3856.586	136.75
3859.197	137.75
3861.806	131.75
3864.414	125.75
3867.019	128.75
3869.622	124.75
3872.224	125.75
3874.823	119.75
3877.421	117.75
3880.016	102.75
3882.61	106.75
3885.202	109.75
3887.792	102.75
3890.38	88.75
3892.966	81.75
3895.55	69.75
3898.132	65.75
3900.713	57.75
3903.291	49.75
3905.868	40.75
3908.442	39.75
3911.015	40.75
3913.586	30.75
3916.155	24.75
3918.722	20.75
3921.287	21.75
3923.85	16.75
3926.411	19.75
3928.971	24.75
3931.528	13.75
3934.084	21.75
3936.638	9.75
3939.19	12.75
3941.74	1.75
3944.288	9.75
3946.834	3.75
3949.378	6.75
3951.921	1.75
3954.462	-11.25
3957	-3.25
3959.537	0.75
3962.072	-1.25
3964.606	-10.25
3967.137	-5.25
3969.667	-4.25
3972.194	-10.25
3974.72	-8.25
3977.244	-12.25
3979.766	-16.25
3982.286	-7.25
3984.805	-18.25
3987.321	-11.25
3989.836	-15.25
3992.349	-10.25
3994.86	-18.25
3997.369	-13.25
3999.877	-19.25
4002.382	-19.25
4004.886	-21.25
4007.388	-20.25
4009.888	-18.25
4012.386	-19.25
4014.883	-20.25
4017.377	-25.25
4019.87	-25.25
4022.361	-26.25
4024.85	-27.25
4027.338	-27.25
4029.823	-25.25
4032.307	-23.25
4034.789	-28.25
4037.269	-29.25
4039.747	-30.25
4042.224	-28.25
4044.699	-32.25
4047.172	-37.25
4049.643	-29.25
4052.112	-34.25
4054.58	-31.25
4057.046	-31.25
4059.51	-34.25
4061.972	-37.25
4064.432	-38.25
4066.891	-38.25
4069.348	-40.25
4071.803	-37.25
4074.256	-43.25
4076.708	-41.25
4079.158	-43.25
4081.606	-42.25
4084.052	-43.25
4086.497	-45.25
4088.939	-45.25
4091.38	-46.25
4093.819	-41.25
4096.257	-64.25
4098.693	-66.25
4101.127	-64.25
4103.559	-62.25
4105.989	-26.25
4108.418	-26.25
4110.845	-26.25
4113.27	-16.25
4115.694	-20.25
4118.115	-16.25
4120.535	-49.25
4122.954	-49.25
4125.37	-49.25
4127.785	-44.25
4130.198	-49.25
4132.609	-53.25
4135.019	-65.25
4137.427	-62.25
4139.833	-63.25
4142.237	-66.25
