Data from SERS_Bac2_20uL_I=0.5_T=20s_RamanShift_5.txt Node
Date: Wed Jun 14 14:46:42 IDT 2017
User: aro
Spectrometer: QEPB0276
Trigger mode: 0
Integration Time (sec): 2.000000E1
Scans to average: 1
Electric dark correction enabled: true
Nonlinearity correction enabled: false
Boxcar width: 0
XAxis mode: Raman Shifts
Number of Pixels in Spectrum: 1044
>>>>>Begin Spectral Data<<<<<
160.701	-9.12
166.742	10.88
172.777	66.88
178.805	226.88
184.826	634.88
190.841	1369.88
196.849	2298.88
202.85	2972.88
208.845	3237.88
214.833	3275.88
220.815	3276.88
226.789	3306.88
232.758	3361.88
238.719	3377.88
244.674	3410.88
250.623	3350.88
256.565	3318.88
262.5	3279.88
268.429	3211.88
274.351	3152.88
280.267	3126.88
286.176	3091.88
292.079	3106.88
297.975	3087.88
303.865	3084.88
309.748	3096.88
315.625	3020.88
321.495	2957.88
327.359	2932.88
333.217	2895.88
339.068	2867.88
344.912	2823.88
350.751	2808.88
356.583	2782.88
362.408	2760.88
368.227	2714.88
374.04	2724.88
379.847	2730.88
385.647	2741.88
391.44	2689.88
397.228	2643.88
403.009	2635.88
408.784	2666.88
414.553	2743.88
420.315	2806.88
426.071	2785.88
431.821	2662.88
437.565	2520.88
443.302	2456.88
449.033	2370.88
454.758	2308.88
460.477	2245.88
466.189	2180.88
471.896	2109.88
477.596	2042.88
483.29	1958.88
488.978	1860.88
494.66	1752.88
500.335	1619.88
506.005	1534.88
511.668	1513.88
517.325	1761.88
522.977	2182.88
528.622	2547.88
534.261	2710.88
539.894	2706.88
545.521	2662.88
551.141	2605.88
556.756	2553.88
562.365	2510.88
567.968	2459.88
573.565	2422.88
579.155	2381.88
584.74	2336.88
590.319	2291.88
595.892	2289.88
601.459	2193.88
607.02	2147.88
612.575	2115.88
618.124	2087.88
623.667	2129.88
629.204	2109.88
634.735	2140.88
640.261	2149.88
645.781	2178.88
651.294	2187.88
656.802	2155.88
662.304	2099.88
667.8	2079.88
673.29	2049.88
678.775	2044.88
684.254	2027.88
689.726	1984.88
695.193	1969.88
700.655	1964.88
706.11	1928.88
711.56	1911.88
717.004	1907.88
722.442	1905.88
727.874	1864.88
733.301	1872.88
738.722	1874.88
744.137	1871.88
749.547	1863.88
754.951	1893.88
760.349	1875.88
765.741	1833.88
771.128	1807.88
776.509	1814.88
781.885	1808.88
787.254	1810.88
792.618	1808.88
797.977	1796.88
803.33	1781.88
808.677	1755.88
814.019	1753.88
819.355	1709.88
824.686	1671.88
830.011	1684.88
835.33	1660.88
840.644	1663.88
845.952	1676.88
851.255	1634.88
856.552	1630.88
861.844	1635.88
867.13	1641.88
872.41	1608.88
877.686	1601.88
882.955	1575.88
888.219	1569.88
893.478	1557.88
898.731	1529.88
903.979	1534.88
909.221	1526.88
914.458	1524.88
919.69	1526.88
924.916	1528.88
930.136	1562.88
935.351	1637.88
940.561	1661.88
945.766	1693.88
950.965	1663.88
956.158	1630.88
961.347	1604.88
966.529	1570.88
971.707	1540.88
976.879	1521.88
982.046	1494.88
987.208	1462.88
992.364	1430.88
997.515	1409.88
1002.66	1399.88
1007.801	1384.88
1012.936	1385.88
1018.066	1394.88
1023.19	1384.88
1028.309	1384.88
1033.423	1364.88
1038.532	1366.88
1043.636	1336.88
1048.734	1324.88
1053.827	1327.88
1058.915	1286.88
1063.998	1277.88
1069.075	1272.88
1074.147	1266.88
1079.214	1285.88
1084.276	1289.88
1089.333	1283.88
1094.385	1284.88
1099.431	1308.88
1104.472	1276.88
1109.509	1289.88
1114.54	1277.88
1119.565	1241.88
1124.586	1234.88
1129.602	1222.88
1134.613	1191.88
1139.618	1198.88
1144.619	1188.88
1149.614	1206.88
1154.604	1200.88
1159.589	1211.88
1164.57	1211.88
1169.545	1222.88
1174.515	1211.88
1179.48	1210.88
1184.44	1196.88
1189.395	1195.88
1194.345	1186.88
1199.29	1190.88
1204.23	1186.88
1209.165	1186.88
1214.095	1196.88
1219.021	1210.88
1223.941	1186.88
1228.856	1211.88
1233.766	1216.88
1238.672	1201.88
1243.572	1204.88
1248.467	1193.88
1253.358	1186.88
1258.244	1172.88
1263.124	1144.88
1268	1146.88
1272.871	1129.88
1277.737	1121.88
1282.599	1113.88
1287.455	1107.88
1292.306	1116.88
1297.153	1133.88
1301.995	1156.88
1306.832	1175.88
1311.664	1191.88
1316.491	1203.88
1321.314	1179.88
1326.132	1189.88
1330.945	1168.88
1335.753	1177.88
1340.556	1175.88
1345.354	1167.88
1350.148	1174.88
1354.937	1164.88
1359.722	1127.88
1364.501	1087.88
1369.276	1047.88
1374.046	1000.88
1378.811	972.88
1383.572	973.88
1388.327	947.88
1393.079	951.88
1397.825	952.88
1402.567	942.88
1407.304	961.88
1412.036	955.88
1416.764	966.88
1421.487	973.88
1426.205	971.88
1430.919	982.88
1435.628	1007.88
1440.333	1012.88
1445.032	1017.88
1449.727	1042.88
1454.418	1033.88
1459.104	1042.88
1463.785	1036.88
1468.462	1021.88
1473.134	1014.88
1477.802	1025.88
1482.465	1012.88
1487.123	1010.88
1491.777	1022.88
1496.426	1016.88
1501.071	1009.88
1505.711	1010.88
1510.347	1007.88
1514.978	993.88
1519.604	982.88
1524.226	975.88
1528.844	941.88
1533.457	914.88
1538.065	904.88
1542.669	899.88
1547.269	882.88
1551.864	882.88
1556.454	908.88
1561.041	906.88
1565.622	911.88
1570.199	898.88
1574.772	911.88
1579.34	931.88
1583.904	921.88
1588.464	947.88
1593.019	943.88
1597.569	945.88
1602.115	946.88
1606.657	924.88
1611.195	951.88
1615.728	934.88
1620.256	921.88
1624.78	940.88
1629.3	959.88
1633.816	962.88
1638.327	970.88
1642.834	973.88
1647.336	1001.88
1651.834	998.88
1656.328	1013.88
1660.817	1023.88
1665.302	1012.88
1669.783	1012.88
1674.259	1020.88
1678.732	1007.88
1683.199	1001.88
1687.663	1010.88
1692.122	993.88
1696.577	970.88
1701.028	915.88
1705.474	888.88
1709.917	853.88
1714.355	823.88
1718.788	816.88
1723.218	833.88
1727.643	835.88
1732.064	834.88
1736.481	841.88
1740.893	820.88
1745.301	808.88
1749.705	801.88
1754.105	784.88
1758.501	785.88
1762.893	783.88
1767.28	786.88
1771.663	806.88
1776.042	826.88
1780.417	833.88
1784.787	850.88
1789.154	862.88
1793.516	854.88
1797.874	838.88
1802.228	814.88
1806.578	784.88
1810.924	760.88
1815.266	742.88
1819.603	737.88
1823.937	769.88
1828.266	765.88
1832.591	761.88
1836.913	785.88
1841.23	796.88
1845.543	791.88
1849.852	821.88
1854.156	826.88
1858.457	834.88
1862.754	855.88
1867.047	870.88
1871.335	865.88
1875.62	904.88
1879.9	895.88
1884.177	912.88
1888.449	917.88
1892.718	927.88
1896.982	923.88
1901.243	934.88
1905.499	940.88
1909.752	939.88
1914	971.88
1918.245	964.88
1922.485	983.88
1926.722	969.88
1930.954	992.88
1935.183	990.88
1939.408	986.88
1943.628	983.88
1947.845	967.88
1952.058	946.88
1956.267	957.88
1960.472	932.88
1964.673	917.88
1968.87	894.88
1973.063	894.88
1977.252	882.88
1981.438	891.88
1985.619	895.88
1989.797	900.88
1993.971	911.88
1998.14	927.88
2002.306	930.88
2006.469	937.88
2010.627	948.88
2014.781	953.88
2018.932	966.88
2023.078	973.88
2027.221	973.88
2031.36	976.88
2035.495	979.88
2039.627	987.88
2043.754	976.88
2047.878	988.88
2051.998	1017.88
2056.114	1021.88
2060.226	1035.88
2064.334	1042.88
2068.439	1074.88
2072.54	1083.88
2076.637	1103.88
2080.73	1112.88
2084.82	1122.88
2088.906	1123.88
2092.988	1112.88
2097.066	1117.88
2101.14	1124.88
2105.211	1119.88
2109.278	1088.88
2113.342	1099.88
2117.401	1088.88
2121.457	1078.88
2125.509	1071.88
2129.558	1088.88
2133.602	1075.88
2137.643	1092.88
2141.681	1082.88
2145.714	1105.88
2149.744	1091.88
2153.77	1109.88
2157.793	1110.88
2161.812	1108.88
2165.827	1107.88
2169.838	1118.88
2173.846	1092.88
2177.851	1113.88
2181.851	1111.88
2185.848	1101.88
2189.841	1104.88
2193.831	1115.88
2197.817	1125.88
2201.799	1124.88
2205.778	1148.88
2209.753	1161.88
2213.725	1163.88
2217.693	1171.88
2221.657	1197.88
2225.618	1199.88
2229.575	1214.88
2233.529	1207.88
2237.479	1217.88
2241.425	1226.88
2245.368	1218.88
2249.307	1220.88
2253.243	1217.88
2257.175	1209.88
2261.104	1223.88
2265.029	1198.88
2268.95	1222.88
2272.868	1194.88
2276.783	1226.88
2280.694	1210.88
2284.601	1221.88
2288.505	1216.88
2292.405	1223.88
2296.302	1221.88
2300.195	1221.88
2304.085	1215.88
2307.971	1212.88
2311.854	1225.88
2315.734	1213.88
2319.609	1211.88
2323.482	1213.88
2327.351	1224.88
2331.216	1237.88
2335.078	1247.88
2338.937	1248.88
2342.792	1250.88
2346.643	1278.88
2350.492	1284.88
2354.336	1300.88
2358.178	1321.88
2362.015	1339.88
2365.85	1361.88
2369.681	1373.88
2373.508	1417.88
2377.333	1420.88
2381.153	1432.88
2384.971	1447.88
2388.785	1463.88
2392.595	1482.88
2396.402	1475.88
2400.206	1512.88
2404.007	1507.88
2407.804	1535.88
2411.597	1543.88
2415.388	1569.88
2419.174	1585.88
2422.958	1575.88
2426.738	1620.88
2430.515	1629.88
2434.289	1632.88
2438.059	1651.88
2441.825	1654.88
2445.589	1676.88
2449.349	1698.88
2453.106	1692.88
2456.859	1703.88
2460.61	1709.88
2464.356	1722.88
2468.1	1738.88
2471.84	1763.88
2475.577	1753.88
2479.311	1796.88
2483.041	1829.88
2486.768	1853.88
2490.492	1862.88
2494.213	1891.88
2497.93	1916.88
2501.644	1946.88
2505.355	1963.88
2509.062	1977.88
2512.766	2003.88
2516.467	2011.88
2520.165	2050.88
2523.859	2056.88
2527.551	2060.88
2531.239	2059.88
2534.923	2068.88
2538.605	2111.88
2542.283	2118.88
2545.958	2131.88
2549.63	2169.88
2553.299	2175.88
2556.964	2183.88
2560.626	2205.88
2564.285	2201.88
2567.941	2206.88
2571.594	2226.88
2575.243	2224.88
2578.89	2249.88
2582.533	2223.88
2586.173	2230.88
2589.809	2236.88
2593.443	2235.88
2597.073	2224.88
2600.701	2229.88
2604.325	2219.88
2607.946	2254.88
2611.564	2243.88
2615.178	2245.88
2618.79	2255.88
2622.398	2266.88
2626.004	2252.88
2629.606	2279.88
2633.205	2280.88
2636.801	2279.88
2640.394	2285.88
2643.983	2273.88
2647.57	2307.88
2651.153	2302.88
2654.734	2303.88
2658.311	2316.88
2661.885	2337.88
2665.456	2316.88
2669.025	2359.88
2672.589	2356.88
2676.151	2382.88
2679.71	2354.88
2683.266	2395.88
2686.819	2371.88
2690.368	2397.88
2693.915	2408.88
2697.458	2398.88
2700.999	2417.88
2704.536	2410.88
2708.071	2420.88
2711.602	2448.88
2715.13	2448.88
2718.656	2480.88
2722.178	2505.88
2725.697	2553.88
2729.214	2578.88
2732.727	2618.88
2736.237	2664.88
2739.744	2699.88
2743.249	2728.88
2746.75	2716.88
2750.248	2727.88
2753.743	2695.88
2757.236	2646.88
2760.725	2603.88
2764.211	2568.88
2767.695	2516.88
2771.175	2503.88
2774.652	2475.88
2778.127	2473.88
2781.598	2479.88
2785.067	2507.88
2788.532	2560.88
2791.995	2584.88
2795.455	2628.88
2798.911	2667.88
2802.365	2676.88
2805.816	2733.88
2809.264	2739.88
2812.709	2765.88
2816.151	2759.88
2819.59	2816.88
2823.026	2795.88
2826.46	2804.88
2829.89	2820.88
2833.318	2847.88
2836.742	2837.88
2840.164	2825.88
2843.583	2825.88
2846.999	2867.88
2850.412	2859.88
2853.822	2855.88
2857.229	2847.88
2860.634	2864.88
2864.035	2860.88
2867.434	2856.88
2870.83	2856.88
2874.223	2855.88
2877.613	2847.88
2881	2833.88
2884.385	2807.88
2887.766	2788.88
2891.145	2775.88
2894.521	2763.88
2897.894	2750.88
2901.264	2736.88
2904.631	2725.88
2907.996	2708.88
2911.358	2696.88
2914.717	2687.88
2918.073	2722.88
2921.426	2703.88
2924.777	2716.88
2928.124	2719.88
2931.469	2735.88
2934.811	2741.88
2938.15	2746.88
2941.487	2776.88
2944.821	2770.88
2948.152	2786.88
2951.48	2798.88
2954.805	2788.88
2958.128	2787.88
2961.447	2808.88
2964.765	2814.88
2968.079	2808.88
2971.39	2816.88
2974.699	2863.88
2978.005	2831.88
2981.308	2839.88
2984.609	2851.88
2987.907	2856.88
2991.202	2842.88
2994.494	2822.88
2997.784	2820.88
3001.07	2806.88
3004.355	2787.88
3007.636	2737.88
3010.915	2721.88
3014.191	2679.88
3017.464	2655.88
3020.734	2620.88
3024.002	2599.88
3027.267	2597.88
3030.53	2598.88
3033.789	2582.88
3037.046	2589.88
3040.301	2591.88
3043.552	2618.88
3046.801	2596.88
3050.048	2631.88
3053.291	2656.88
3056.532	2686.88
3059.771	2694.88
3063.006	2711.88
3066.239	2729.88
3069.469	2762.88
3072.697	2779.88
3075.922	2803.88
3079.144	2804.88
3082.364	2829.88
3085.581	2829.88
3088.795	2814.88
3092.007	2824.88
3095.216	2814.88
3098.423	2812.88
3101.627	2820.88
3104.828	2808.88
3108.026	2819.88
3111.222	2823.88
3114.416	2801.88
3117.607	2792.88
3120.795	2816.88
3123.98	2842.88
3127.163	2824.88
3130.344	2848.88
3133.521	2822.88
3136.696	2859.88
3139.869	2834.88
3143.039	2835.88
3146.206	2805.88
3149.371	2800.88
3152.533	2777.88
3155.693	2737.88
3158.85	2713.88
3162.005	2699.88
3165.157	2684.88
3168.306	2640.88
3171.453	2596.88
3174.597	2591.88
3177.739	2578.88
3180.878	2535.88
3184.014	2528.88
3187.149	2506.88
3190.28	2490.88
3193.409	2491.88
3196.536	2464.88
3199.659	2470.88
3202.781	2464.88
3205.9	2462.88
3209.016	2470.88
3212.13	2441.88
3215.241	2415.88
3218.35	2430.88
3221.456	2394.88
3224.56	2364.88
3227.661	2374.88
3230.76	2354.88
3233.856	2322.88
3236.95	2308.88
3240.041	2317.88
3243.13	2278.88
3246.216	2278.88
3249.3	2233.88
3252.382	2240.88
3255.46	2221.88
3258.537	2227.88
3261.611	2203.88
3264.682	2182.88
3267.751	2175.88
3270.818	2158.88
3273.882	2138.88
3276.943	2120.88
3280.002	2091.88
3283.059	2071.88
3286.113	2052.88
3289.165	2021.88
3292.214	1999.88
3295.261	1957.88
3298.306	1956.88
3301.348	1929.88
3304.387	1897.88
3307.425	1898.88
3310.459	1878.88
3313.492	1865.88
3316.521	1826.88
3319.549	1863.88
3322.574	1848.88
3325.597	1841.88
3328.617	1806.88
3331.635	1805.88
3334.65	1815.88
3337.663	1804.88
3340.674	1822.88
3343.682	1827.88
3346.688	1807.88
3349.691	1831.88
3352.692	1813.88
3355.691	1809.88
3358.687	1793.88
3361.681	1791.88
3364.673	1766.88
3367.662	1763.88
3370.649	1721.88
3373.633	1721.88
3376.615	1705.88
3379.595	1684.88
3382.572	1659.88
3385.547	1647.88
3388.52	1640.88
3391.49	1623.88
3394.458	1615.88
3397.424	1581.88
3400.387	1600.88
3403.348	1583.88
3406.307	1558.88
3409.263	1555.88
3412.217	1557.88
3415.168	1538.88
3418.118	1538.88
3421.065	1545.88
3424.009	1516.88
3426.951	1527.88
3429.891	1499.88
3432.829	1493.88
3435.764	1468.88
3438.697	1442.88
3441.628	1435.88
3444.557	1432.88
3447.483	1367.88
3450.407	1366.88
3453.328	1337.88
3456.247	1322.88
3459.164	1296.88
3462.079	1277.88
3464.991	1259.88
3467.902	1242.88
3470.809	1217.88
3473.715	1186.88
3476.618	1190.88
3479.519	1172.88
3482.418	1142.88
3485.315	1157.88
3488.209	1132.88
3491.101	1129.88
3493.99	1110.88
3496.878	1090.88
3499.763	1084.88
3502.646	1074.88
3505.527	1042.88
3508.405	1048.88
3511.281	1012.88
3514.155	1001.88
3517.027	965.88
3519.897	942.88
3522.764	929.88
3525.629	905.88
3528.492	885.88
3531.352	857.88
3534.211	838.88
3537.067	815.88
3539.921	801.88
3542.773	774.88
3545.622	755.88
3548.469	739.88
3551.315	723.88
3554.157	717.88
3556.998	710.88
3559.837	700.88
3562.673	691.88
3565.507	676.88
3568.339	670.88
3571.169	646.88
3573.996	638.88
3576.822	630.88
3579.645	613.88
3582.466	605.88
3585.285	597.88
3588.101	588.88
3590.916	571.88
3593.728	562.88
3596.538	544.88
3599.346	529.88
3602.152	527.88
3604.956	504.88
3607.757	501.88
3610.556	480.88
3613.354	459.88
3616.149	456.88
3618.942	457.88
3621.732	444.88
3624.521	430.88
3627.307	434.88
3630.092	417.88
3632.874	411.88
3635.654	408.88
3638.432	398.88
3641.208	402.88
3643.982	390.88
3646.753	390.88
3649.523	380.88
3652.29	372.88
3655.055	371.88
3657.818	377.88
3660.579	365.88
3663.338	356.88
3666.095	353.88
3668.849	346.88
3671.602	351.88
3674.352	344.88
3677.101	351.88
3679.847	348.88
3682.591	336.88
3685.333	335.88
3688.073	338.88
3690.811	339.88
3693.547	349.88
3696.281	335.88
3699.013	339.88
3701.742	341.88
3704.47	334.88
3707.195	341.88
3709.919	341.88
3712.64	334.88
3715.359	329.88
3718.076	339.88
3720.792	329.88
3723.505	319.88
3726.216	314.88
3728.925	304.88
3731.632	311.88
3734.336	301.88
3737.039	305.88
3739.74	292.88
3742.439	295.88
3745.136	298.88
3747.83	298.88
3750.523	288.88
3753.213	292.88
3755.902	290.88
3758.589	291.88
3761.273	282.88
3763.956	275.88
3766.636	279.88
3769.315	278.88
3771.991	280.88
3774.665	263.88
3777.338	261.88
3780.008	255.88
3782.677	253.88
3785.343	250.88
3788.007	249.88
3790.67	234.88
3793.33	232.88
3795.989	221.88
3798.645	223.88
3801.299	223.88
3803.952	209.88
3806.602	213.88
3809.251	214.88
3811.897	201.88
3814.542	205.88
3817.184	193.88
3819.825	200.88
3822.463	195.88
3825.1	191.88
3827.735	182.88
3830.367	181.88
3832.998	170.88
3835.627	166.88
3838.253	165.88
3840.878	155.88
3843.501	152.88
3846.122	144.88
3848.741	147.88
3851.358	137.88
3853.973	135.88
3856.586	127.88
3859.197	130.88
3861.806	120.88
3864.414	121.88
3867.019	114.88
3869.622	110.88
3872.224	102.88
3874.823	107.88
3877.421	107.88
3880.016	102.88
3882.61	106.88
3885.202	93.88
3887.792	91.88
3890.38	75.88
3892.966	65.88
3895.55	54.88
3898.132	54.88
3900.713	46.88
3903.291	43.88
3905.868	32.88
3908.442	37.88
3911.015	31.88
3913.586	26.88
3916.155	15.88
3918.722	14.88
3921.287	14.88
3923.85	13.88
3926.411	14.88
3928.971	14.88
3931.528	10.88
3934.084	4.88
3936.638	5.88
3939.19	3.88
3941.74	-8.12
3944.288	-7.12
3946.834	-9.12
3949.378	-7.12
3951.921	-11.12
3954.462	-22.12
3957	-12.12
3959.537	-10.12
3962.072	-17.12
3964.606	-16.12
3967.137	-14.12
3969.667	-11.12
3972.194	-21.12
3974.72	-17.12
3977.244	-20.12
3979.766	-16.12
3982.286	-16.12
3984.805	-23.12
3987.321	-19.12
3989.836	-15.12
3992.349	-24.12
3994.86	-24.12
3997.369	-24.12
3999.877	-26.12
4002.382	-28.12
4004.886	-28.12
4007.388	-31.12
4009.888	-30.12
4012.386	-33.12
4014.883	-29.12
4017.377	-33.12
4019.87	-35.12
4022.361	-38.12
4024.85	-35.12
4027.338	-30.12
4029.823	-36.12
4032.307	-31.12
4034.789	-34.12
4037.269	-32.12
4039.747	-33.12
4042.224	-34.12
4044.699	-35.12
4047.172	-42.12
4049.643	-35.12
4052.112	-40.12
4054.58	-36.12
4057.046	-44.12
4059.51	-45.12
4061.972	-46.12
4064.432	-46.12
4066.891	-51.12
4069.348	-53.12
4071.803	-48.12
4074.256	-54.12
4076.708	-55.12
4079.158	-52.12
4081.606	-52.12
4084.052	-51.12
4086.497	-53.12
4088.939	-50.12
4091.38	-53.12
4093.819	-50.12
4096.257	-73.12
4098.693	-72.12
4101.127	-77.12
4103.559	-73.12
4105.989	-31.12
4108.418	-37.12
4110.845	-32.12
4113.27	-18.12
4115.694	-24.12
4118.115	-15.12
4120.535	-50.12
4122.954	-51.12
4125.37	-56.12
4127.785	-49.12
4130.198	-54.12
4132.609	-54.12
4135.019	-76.12
4137.427	-70.12
4139.833	-74.12
4142.237	-75.12
