Data from SERS_Bac2_20uL_I=0.5_T=50s_RamanShift_3.txt Node
Date: Wed Jun 14 14:51:50 IDT 2017
User: aro
Spectrometer: QEPB0276
Trigger mode: 0
Integration Time (sec): 5.000000E1
Scans to average: 1
Electric dark correction enabled: true
Nonlinearity correction enabled: false
Boxcar width: 0
XAxis mode: Raman Shifts
Number of Pixels in Spectrum: 1044
>>>>>Begin Spectral Data<<<<<
160.701	5.38
166.742	53.38
172.777	188.38
178.805	577.38
184.826	1563.38
190.841	3290.38
196.849	5479.38
202.85	7195.38
208.845	7917.38
214.833	7975.38
220.815	7986.38
226.789	8066.38
232.758	8174.38
238.719	8292.38
244.674	8255.38
250.623	8199.38
256.565	8104.38
262.5	7938.38
268.429	7848.38
274.351	7697.38
280.267	7599.38
286.176	7542.38
292.079	7555.38
297.975	7544.38
303.865	7558.38
309.748	7504.38
315.625	7372.38
321.495	7243.38
327.359	7137.38
333.217	7005.38
339.068	6966.38
344.912	6896.38
350.751	6834.38
356.583	6751.38
362.408	6674.38
368.227	6648.38
374.04	6619.38
379.847	6689.38
385.647	6621.38
391.44	6567.38
397.228	6438.38
403.009	6383.38
408.784	6468.38
414.553	6636.38
420.315	6864.38
426.071	6801.38
431.821	6405.38
437.565	6093.38
443.302	5944.38
449.033	5793.38
454.758	5610.38
460.477	5434.38
466.189	5242.38
471.896	5091.38
477.596	4879.38
483.29	4733.38
488.978	4516.38
494.66	4264.38
500.335	3901.38
506.005	3659.38
511.668	3661.38
517.325	4248.38
522.977	5334.38
528.622	6237.38
534.261	6640.38
539.894	6608.38
545.521	6457.38
551.141	6338.38
556.756	6198.38
562.365	6111.38
567.968	5997.38
573.565	5871.38
579.155	5767.38
584.74	5683.38
590.319	5570.38
595.892	5506.38
601.459	5347.38
607.02	5226.38
612.575	5106.38
618.124	5063.38
623.667	5094.38
629.204	5167.38
634.735	5223.38
640.261	5195.38
645.781	5275.38
651.294	5325.38
656.802	5242.38
662.304	5139.38
667.8	5068.38
673.29	5032.38
678.775	4992.38
684.254	4922.38
689.726	4929.38
695.193	4834.38
700.655	4792.38
706.11	4760.38
711.56	4690.38
717.004	4612.38
722.442	4612.38
727.874	4555.38
733.301	4577.38
738.722	4582.38
744.137	4625.38
749.547	4643.38
754.951	4570.38
760.349	4511.38
765.741	4460.38
771.128	4416.38
776.509	4455.38
781.885	4384.38
787.254	4394.38
792.618	4380.38
797.977	4370.38
803.33	4338.38
808.677	4311.38
814.019	4222.38
819.355	4151.38
824.686	4151.38
830.011	4099.38
835.33	4062.38
840.644	4014.38
845.952	4018.38
851.255	3973.38
856.552	3980.38
861.844	3973.38
867.13	3951.38
872.41	3935.38
877.686	3885.38
882.955	3838.38
888.219	3790.38
893.478	3765.38
898.731	3727.38
903.979	3683.38
909.221	3665.38
914.458	3654.38
919.69	3691.38
924.916	3719.38
930.136	3747.38
935.351	3911.38
940.561	3990.38
945.766	4048.38
950.965	4028.38
956.158	3975.38
961.347	3878.38
966.529	3787.38
971.707	3684.38
976.879	3619.38
982.046	3575.38
987.208	3524.38
992.364	3424.38
997.515	3363.38
1002.66	3349.38
1007.801	3334.38
1012.936	3336.38
1018.066	3379.38
1023.19	3316.38
1028.309	3332.38
1033.423	3304.38
1038.532	3272.38
1043.636	3248.38
1048.734	3187.38
1053.827	3150.38
1058.915	3133.38
1063.998	3067.38
1069.075	3069.38
1074.147	3063.38
1079.214	3098.38
1084.276	3080.38
1089.333	3087.38
1094.385	3089.38
1099.431	3110.38
1104.472	3103.38
1109.509	3093.38
1114.54	3040.38
1119.565	2963.38
1124.586	2940.38
1129.602	2919.38
1134.613	2921.38
1139.618	2915.38
1144.619	2894.38
1149.614	2899.38
1154.604	2921.38
1159.589	2904.38
1164.57	2920.38
1169.545	2924.38
1174.515	2917.38
1179.48	2894.38
1184.44	2879.38
1189.395	2862.38
1194.345	2849.38
1199.29	2831.38
1204.23	2851.38
1209.165	2889.38
1214.095	2860.38
1219.021	2908.38
1223.941	2922.38
1228.856	2911.38
1233.766	2932.38
1238.672	2926.38
1243.572	2902.38
1248.467	2899.38
1253.358	2852.38
1258.244	2823.38
1263.124	2789.38
1268	2751.38
1272.871	2756.38
1277.737	2716.38
1282.599	2724.38
1287.455	2731.38
1292.306	2730.38
1297.153	2807.38
1301.995	2804.38
1306.832	2839.38
1311.664	2886.38
1316.491	2902.38
1321.314	2950.38
1326.132	2915.38
1330.945	2914.38
1335.753	2897.38
1340.556	2916.38
1345.354	2913.38
1350.148	2892.38
1354.937	2854.38
1359.722	2795.38
1364.501	2699.38
1369.276	2553.38
1374.046	2461.38
1378.811	2387.38
1383.572	2345.38
1388.327	2311.38
1393.079	2316.38
1397.825	2339.38
1402.567	2315.38
1407.304	2352.38
1412.036	2325.38
1416.764	2334.38
1421.487	2364.38
1426.205	2363.38
1430.919	2403.38
1435.628	2468.38
1440.333	2499.38
1445.032	2505.38
1449.727	2540.38
1454.418	2561.38
1459.104	2580.38
1463.785	2588.38
1468.462	2528.38
1473.134	2518.38
1477.802	2483.38
1482.465	2527.38
1487.123	2479.38
1491.777	2503.38
1496.426	2504.38
1501.071	2462.38
1505.711	2461.38
1510.347	2444.38
1514.978	2400.38
1519.604	2381.38
1524.226	2337.38
1528.844	2323.38
1533.457	2212.38
1538.065	2230.38
1542.669	2199.38
1547.269	2184.38
1551.864	2156.38
1556.454	2189.38
1561.041	2196.38
1565.622	2215.38
1570.199	2185.38
1574.772	2217.38
1579.34	2228.38
1583.904	2229.38
1588.464	2276.38
1593.019	2268.38
1597.569	2270.38
1602.115	2239.38
1606.657	2255.38
1611.195	2212.38
1615.728	2224.38
1620.256	2240.38
1624.78	2264.38
1629.3	2277.38
1633.816	2287.38
1638.327	2323.38
1642.834	2338.38
1647.336	2386.38
1651.834	2384.38
1656.328	2448.38
1660.817	2423.38
1665.302	2456.38
1669.783	2448.38
1674.259	2421.38
1678.732	2427.38
1683.199	2426.38
1687.663	2432.38
1692.122	2429.38
1696.577	2338.38
1701.028	2220.38
1705.474	2107.38
1709.917	2023.38
1714.355	1987.38
1718.788	1984.38
1723.218	2017.38
1727.643	2042.38
1732.064	2035.38
1736.481	2025.38
1740.893	1999.38
1745.301	1976.38
1749.705	1951.38
1754.105	1931.38
1758.501	1936.38
1762.893	1905.38
1767.28	1940.38
1771.663	1957.38
1776.042	1995.38
1780.417	2043.38
1784.787	2073.38
1789.154	2059.38
1793.516	2062.38
1797.874	2041.38
1802.228	1985.38
1806.578	1941.38
1810.924	1876.38
1815.266	1942.38
1819.603	1828.38
1823.937	1861.38
1828.266	1869.38
1832.591	1884.38
1836.913	1908.38
1841.23	1930.38
1845.543	1972.38
1849.852	1971.38
1854.156	2035.38
1858.457	2063.38
1862.754	2096.38
1867.047	2124.38
1871.335	2139.38
1875.62	2203.38
1879.9	2202.38
1884.177	2250.38
1888.449	2247.38
1892.718	2263.38
1896.982	2282.38
1901.243	2302.38
1905.499	2319.38
1909.752	2362.38
1914	2395.38
1918.245	2421.38
1922.485	2421.38
1926.722	2429.38
1930.954	2485.38
1935.183	2467.38
1939.408	2450.38
1943.628	2447.38
1947.845	2421.38
1952.058	2392.38
1956.267	2385.38
1960.472	2326.38
1964.673	2260.38
1968.87	2242.38
1973.063	2230.38
1977.252	2228.38
1981.438	2216.38
1985.619	2232.38
1989.797	2258.38
1993.971	2263.38
1998.14	2287.38
2002.306	2334.38
2006.469	2320.38
2010.627	2374.38
2014.781	2396.38
2018.932	2401.38
2023.078	2413.38
2027.221	2415.38
2031.36	2444.38
2035.495	2454.38
2039.627	2451.38
2043.754	2454.38
2047.878	2457.38
2051.998	2508.38
2056.114	2549.38
2060.226	2574.38
2064.334	2612.38
2068.439	2658.38
2072.54	2701.38
2076.637	2770.38
2080.73	2796.38
2084.82	2791.38
2088.906	2809.38
2092.988	2811.38
2097.066	2824.38
2101.14	2769.38
2105.211	2751.38
2109.278	2742.38
2113.342	2712.38
2117.401	2735.38
2121.457	2718.38
2125.509	2707.38
2129.558	2694.38
2133.602	2700.38
2137.643	2711.38
2141.681	2727.38
2145.714	2753.38
2149.744	2741.38
2153.77	2761.38
2157.793	2797.38
2161.812	2775.38
2165.827	2782.38
2169.838	2778.38
2173.846	2765.38
2177.851	2791.38
2181.851	2757.38
2185.848	2799.38
2189.841	2779.38
2193.831	2786.38
2197.817	2812.38
2201.799	2815.38
2205.778	2942.38
2209.753	3138.38
2213.725	2946.38
2217.693	2938.38
2221.657	2999.38
2225.618	3018.38
2229.575	3029.38
2233.529	3047.38
2237.479	3067.38
2241.425	3053.38
2245.368	3051.38
2249.307	3058.38
2253.243	3042.38
2257.175	3034.38
2261.104	3032.38
2265.029	3021.38
2268.95	3003.38
2272.868	3044.38
2276.783	3052.38
2280.694	3053.38
2284.601	3039.38
2288.505	3052.38
2292.405	3033.38
2296.302	3049.38
2300.195	3067.38
2304.085	3088.38
2307.971	3033.38
2311.854	3037.38
2315.734	3020.38
2319.609	3037.38
2323.482	3061.38
2327.351	3063.38
2331.216	3090.38
2335.078	3125.38
2338.937	3136.38
2342.792	3138.38
2346.643	3163.38
2350.492	3204.38
2354.336	3246.38
2358.178	3290.38
2362.015	3355.38
2365.85	3396.38
2369.681	3436.38
2373.508	3508.38
2377.333	3514.38
2381.153	3579.38
2384.971	3656.38
2388.785	3671.38
2392.595	3713.38
2396.402	3724.38
2400.206	3786.38
2404.007	3777.38
2407.804	3826.38
2411.597	3875.38
2415.388	3924.38
2419.174	3963.38
2422.958	4020.38
2426.738	4051.38
2430.515	4065.38
2434.289	4115.38
2438.059	4155.38
2441.825	4182.38
2445.589	4189.38
2449.349	4250.38
2453.106	4263.38
2456.859	4281.38
2460.61	4325.38
2464.356	4334.38
2468.1	4366.38
2471.84	4461.38
2475.577	4454.38
2479.311	4503.38
2483.041	4561.38
2486.768	4582.38
2490.492	4694.38
2494.213	4786.38
2497.93	4808.38
2501.644	4866.38
2505.355	4936.38
2509.062	5002.38
2512.766	5045.38
2516.467	5112.38
2520.165	5138.38
2523.859	5198.38
2527.551	5201.38
2531.239	5253.38
2534.923	5246.38
2538.605	5327.38
2542.283	5350.38
2545.958	5393.38
2549.63	5430.38
2553.299	5491.38
2556.964	5507.38
2560.626	5548.38
2564.285	5570.38
2567.941	5587.38
2571.594	5636.38
2575.243	5597.38
2578.89	5649.38
2582.533	5609.38
2586.173	5596.38
2589.809	5591.38
2593.443	5624.38
2597.073	5610.38
2600.701	5587.38
2604.325	5600.38
2607.946	5603.38
2611.564	5638.38
2615.178	5675.38
2618.79	5719.38
2622.398	5715.38
2626.004	5709.38
2629.606	5777.38
2633.205	5820.38
2636.801	5739.38
2640.394	5807.38
2643.983	5772.38
2647.57	5787.38
2651.153	5806.38
2654.734	5787.38
2658.311	5851.38
2661.885	5850.38
2665.456	5867.38
2669.025	5904.38
2672.589	5957.38
2676.151	5919.38
2679.71	5971.38
2683.266	5993.38
2686.819	6001.38
2690.368	6005.38
2693.915	6014.38
2697.458	6040.38
2700.999	6032.38
2704.536	6080.38
2708.071	6075.38
2711.602	6111.38
2715.13	6171.38
2718.656	6225.38
2722.178	6292.38
2725.697	6401.38
2729.214	6464.38
2732.727	6567.38
2736.237	6680.38
2739.744	6804.38
2743.249	6837.38
2746.75	6872.38
2750.248	6834.38
2753.743	6796.38
2757.236	6653.38
2760.725	6558.38
2764.211	6489.38
2767.695	6353.38
2771.175	6284.38
2774.652	6241.38
2778.127	6240.38
2781.598	6277.38
2785.067	6341.38
2788.532	6401.38
2791.995	6511.38
2795.455	6606.38
2798.911	6734.38
2802.365	6794.38
2805.816	6853.38
2809.264	6901.38
2812.709	6941.38
2816.151	7011.38
2819.59	7040.38
2823.026	7019.38
2826.46	7100.38
2829.89	7069.38
2833.318	7123.38
2836.742	7119.38
2840.164	7123.38
2843.583	7105.38
2846.999	7121.38
2850.412	7137.38
2853.822	7161.38
2857.229	7148.38
2860.634	7200.38
2864.035	7215.38
2867.434	7191.38
2870.83	7192.38
2874.223	7206.38
2877.613	7139.38
2881	7097.38
2884.385	7070.38
2887.766	7009.38
2891.145	6958.38
2894.521	6909.38
2897.894	6877.38
2901.264	6844.38
2904.631	6813.38
2907.996	6821.38
2911.358	6774.38
2914.717	6782.38
2918.073	6806.38
2921.426	6826.38
2924.777	6879.38
2928.124	6845.38
2931.469	6853.38
2934.811	6919.38
2938.15	6917.38
2941.487	6958.38
2944.821	6966.38
2948.152	6937.38
2951.48	7005.38
2954.805	6954.38
2958.128	6977.38
2961.447	6975.38
2964.765	7018.38
2968.079	7082.38
2971.39	7067.38
2974.699	7095.38
2978.005	7090.38
2981.308	7158.38
2984.609	7153.38
2987.907	7155.38
2991.202	7112.38
2994.494	7105.38
2997.784	7022.38
3001.07	7003.38
3004.355	6933.38
3007.636	6848.38
3010.915	6765.38
3014.191	6702.38
3017.464	6645.38
3020.734	6561.38
3024.002	6497.38
3027.267	6503.38
3030.53	6471.38
3033.789	6421.38
3037.046	6500.38
3040.301	6440.38
3043.552	6475.38
3046.801	6540.38
3050.048	6544.38
3053.291	6565.38
3056.532	6649.38
3059.771	6743.38
3063.006	6763.38
3066.239	6831.38
3069.469	6887.38
3072.697	6929.38
3075.922	6969.38
3079.144	7007.38
3082.364	6997.38
3085.581	7022.38
3088.795	6980.38
3092.007	7010.38
3095.216	7002.38
3098.423	7054.38
3101.627	7011.38
3104.828	7000.38
3108.026	7017.38
3111.222	6960.38
3114.416	7005.38
3117.607	6995.38
3120.795	7006.38
3123.98	7035.38
3127.163	7092.38
3130.344	7053.38
3133.521	7056.38
3136.696	7050.38
3139.869	7047.38
3143.039	7063.38
3146.206	6985.38
3149.371	6935.38
3152.533	6835.38
3155.693	6865.38
3158.85	6738.38
3162.005	6673.38
3165.157	6619.38
3168.306	6526.38
3171.453	6482.38
3174.597	6412.38
3177.739	6371.38
3180.878	6297.38
3184.014	6301.38
3187.149	6235.38
3190.28	6172.38
3193.409	6183.38
3196.536	6136.38
3199.659	6130.38
3202.781	6131.38
3205.9	6136.38
3209.016	6096.38
3212.13	6066.38
3215.241	6052.38
3218.35	6014.38
3221.456	5986.38
3224.56	5948.38
3227.661	5852.38
3230.76	5820.38
3233.856	5792.38
3236.95	5737.38
3240.041	5724.38
3243.13	5647.38
3246.216	5602.38
3249.3	5575.38
3252.382	5549.38
3255.46	5529.38
3258.537	5557.38
3261.611	5473.38
3264.682	5378.38
3267.751	5370.38
3270.818	5380.38
3273.882	5297.38
3276.943	5248.38
3280.002	5181.38
3283.059	5163.38
3286.113	5089.38
3289.165	5030.38
3292.214	4937.38
3295.261	4876.38
3298.306	4865.38
3301.348	4788.38
3304.387	4714.38
3307.425	4696.38
3310.459	4655.38
3313.492	4612.38
3316.521	4565.38
3319.549	4557.38
3322.574	4525.38
3325.597	4536.38
3328.617	4517.38
3331.635	4517.38
3334.65	4526.38
3337.663	4498.38
3340.674	4513.38
3343.682	4524.38
3346.688	4505.38
3349.691	4515.38
3352.692	4511.38
3355.691	4463.38
3358.687	4445.38
3361.681	4444.38
3364.673	4408.38
3367.662	4369.38
3370.649	4288.38
3373.633	4259.38
3376.615	4212.38
3379.595	4214.38
3382.572	4131.38
3385.547	4085.38
3388.52	4081.38
3391.49	4038.38
3394.458	4000.38
3397.424	3957.38
3400.387	3941.38
3403.348	3920.38
3406.307	3877.38
3409.263	3890.38
3412.217	3861.38
3415.168	3841.38
3418.118	3804.38
3421.065	3790.38
3424.009	3772.38
3426.951	3754.38
3429.891	3730.38
3432.829	3716.38
3435.764	3662.38
3438.697	3601.38
3441.628	3537.38
3444.557	3485.38
3447.483	3441.38
3450.407	3391.38
3453.328	3346.38
3456.247	3302.38
3459.164	3249.38
3462.079	3185.38
3464.991	3125.38
3467.902	3085.38
3470.809	2995.38
3473.715	2992.38
3476.618	2954.38
3479.519	2937.38
3482.418	2894.38
3485.315	2863.38
3488.209	2813.38
3491.101	2808.38
3493.99	2765.38
3496.878	2728.38
3499.763	2685.38
3502.646	2649.38
3505.527	2643.38
3508.405	2578.38
3511.281	2555.38
3514.155	2483.38
3517.027	2439.38
3519.897	2386.38
3522.764	2329.38
3525.629	2287.38
3528.492	2208.38
3531.352	2138.38
3534.211	2086.38
3537.067	2052.38
3539.921	2002.38
3542.773	1929.38
3545.622	1926.38
3548.469	1906.38
3551.315	1836.38
3554.157	1823.38
3556.998	1765.38
3559.837	1738.38
3562.673	1703.38
3565.507	1702.38
3568.339	1681.38
3571.169	1662.38
3573.996	1615.38
3576.822	1590.38
3579.645	1591.38
3582.466	1550.38
3585.285	1479.38
3588.101	1482.38
3590.916	1456.38
3593.728	1411.38
3596.538	1377.38
3599.346	1340.38
3602.152	1325.38
3604.956	1296.38
3607.757	1249.38
3610.556	1243.38
3613.354	1188.38
3616.149	1172.38
3618.942	1147.38
3621.732	1120.38
3624.521	1121.38
3627.307	1082.38
3630.092	1074.38
3632.874	1045.38
3635.654	1055.38
3638.432	1058.38
3641.208	1010.38
3643.982	1000.38
3646.753	999.38
3649.523	1010.38
3652.29	961.38
3655.055	948.38
3657.818	945.38
3660.579	919.38
3663.338	925.38
3666.095	912.38
3668.849	915.38
3671.602	884.38
3674.352	903.38
3677.101	870.38
3679.847	851.38
3682.591	867.38
3685.333	881.38
3688.073	855.38
3690.811	878.38
3693.547	873.38
3696.281	854.38
3699.013	882.38
3701.742	866.38
3704.47	879.38
3707.195	859.38
3709.919	863.38
3712.64	870.38
3715.359	878.38
3718.076	834.38
3720.792	825.38
3723.505	820.38
3726.216	812.38
3728.925	820.38
3731.632	803.38
3734.336	785.38
3737.039	774.38
3739.74	755.38
3742.439	800.38
3745.136	756.38
3747.83	749.38
3750.523	739.38
3753.213	822.38
3755.902	727.38
3758.589	768.38
3761.273	735.38
3763.956	722.38
3766.636	760.38
3769.315	694.38
3771.991	717.38
3774.665	687.38
3777.338	666.38
3780.008	661.38
3782.677	642.38
3785.343	641.38
3788.007	656.38
3790.67	620.38
3793.33	609.38
3795.989	593.38
3798.645	580.38
3801.299	578.38
3803.952	572.38
3806.602	552.38
3809.251	555.38
3811.897	531.38
3814.542	536.38
3817.184	533.38
3819.825	526.38
3822.463	514.38
3825.1	509.38
3827.735	488.38
3830.367	479.38
3832.998	453.38
3835.627	443.38
3838.253	413.38
3840.878	423.38
3843.501	398.38
3846.122	394.38
3848.741	376.38
3851.358	360.38
3853.973	378.38
3856.586	351.38
3859.197	338.38
3861.806	317.38
3864.414	330.38
3867.019	322.38
3869.622	309.38
3872.224	305.38
3874.823	301.38
3877.421	281.38
3880.016	280.38
3882.61	282.38
3885.202	274.38
3887.792	254.38
3890.38	220.38
3892.966	201.38
3895.55	197.38
3898.132	155.38
3900.713	148.38
3903.291	135.38
3905.868	141.38
3908.442	107.38
3911.015	100.38
3913.586	99.38
3916.155	75.38
3918.722	72.38
3921.287	71.38
3923.85	73.38
3926.411	59.38
3928.971	57.38
3931.528	46.38
3934.084	57.38
3936.638	39.38
3939.19	38.38
3941.74	25.38
3944.288	9.38
3946.834	18.38
3949.378	3.38
3951.921	19.38
3954.462	5.38
3957	-1.62
3959.537	-7.62
3962.072	7.38
3964.606	4.38
3967.137	-15.62
3969.667	-9.62
3972.194	-21.62
3974.72	-10.62
3977.244	12.38
3979.766	-4.62
3982.286	-7.62
3984.805	-28.62
3987.321	-25.62
3989.836	-15.62
3992.349	-23.62
3994.86	-29.62
3997.369	-19.62
3999.877	-35.62
4002.382	-36.62
4004.886	-35.62
4007.388	-30.62
4009.888	-54.62
4012.386	-49.62
4014.883	-50.62
4017.377	-49.62
4019.87	-47.62
4022.361	-49.62
4024.85	-45.62
4027.338	-48.62
4029.823	-62.62
4032.307	-62.62
4034.789	-61.62
4037.269	-62.62
4039.747	-39.62
4042.224	-69.62
4044.699	-46.62
4047.172	-76.62
4049.643	-89.62
4052.112	-50.62
4054.58	-75.62
4057.046	-62.62
4059.51	-72.62
4061.972	-78.62
4064.432	-55.62
4066.891	-92.62
4069.348	-90.62
4071.803	-88.62
4074.256	-91.62
4076.708	-94.62
4079.158	-89.62
4081.606	-114.62
4084.052	-91.62
4086.497	-112.62
4088.939	-96.62
4091.38	-100.62
4093.819	-105.62
4096.257	-192.62
4098.693	-204.62
4101.127	-209.62
4103.559	-204.62
4105.989	-53.62
4108.418	-55.62
4110.845	-31.62
4113.27	-32.62
4115.694	-26.62
4118.115	-5.62
4120.535	-119.62
4122.954	-111.62
4125.37	-129.62
4127.785	-113.62
4130.198	-114.62
4132.609	-114.62
4135.019	-207.62
4137.427	-204.62
4139.833	-207.62
4142.237	-204.62
