Data from SERS_DW_20uL_I=0.5_T=20s_RamanShift_9.txt Node
Date: Wed Jun 14 14:29:43 IDT 2017
User: aro
Spectrometer: QEPB0276
Trigger mode: 0
Integration Time (sec): 2.000000E1
Scans to average: 1
Electric dark correction enabled: true
Nonlinearity correction enabled: false
Boxcar width: 0
XAxis mode: Raman Shifts
Number of Pixels in Spectrum: 1044
>>>>>Begin Spectral Data<<<<<
160.701	-1.62
166.742	8.38
172.777	49.38
178.805	174.38
184.826	492.38
190.841	1054.38
196.849	1763.38
202.85	2304.38
208.845	2524.38
214.833	2549.38
220.815	2581.38
226.789	2615.38
232.758	2659.38
238.719	2695.38
244.674	2715.38
250.623	2721.38
256.565	2699.38
262.5	2654.38
268.429	2638.38
274.351	2637.38
280.267	2644.38
286.176	2639.38
292.079	2645.38
297.975	2673.38
303.865	2706.38
309.748	2703.38
315.625	2678.38
321.495	2623.38
327.359	2568.38
333.217	2529.38
339.068	2509.38
344.912	2476.38
350.751	2464.38
356.583	2436.38
362.408	2392.38
368.227	2382.38
374.04	2373.38
379.847	2399.38
385.647	2394.38
391.44	2322.38
397.228	2294.38
403.009	2301.38
408.784	2322.38
414.553	2379.38
420.315	2473.38
426.071	2441.38
431.821	2321.38
437.565	2175.38
443.302	2062.38
449.033	2019.38
454.758	1945.38
460.477	1873.38
466.189	1809.38
471.896	1747.38
477.596	1672.38
483.29	1599.38
488.978	1508.38
494.66	1399.38
500.335	1270.38
506.005	1148.38
511.668	1160.38
517.325	1407.38
522.977	1837.38
528.622	2231.38
534.261	2397.38
539.894	2413.38
545.521	2321.38
551.141	2268.38
556.756	2236.38
562.365	2171.38
567.968	2126.38
573.565	2094.38
579.155	2039.38
584.74	2006.38
590.319	1996.38
595.892	1926.38
601.459	1880.38
607.02	1821.38
612.575	1753.38
618.124	1756.38
623.667	1790.38
629.204	1814.38
634.735	1833.38
640.261	1830.38
645.781	1847.38
651.294	1884.38
656.802	1832.38
662.304	1809.38
667.8	1769.38
673.29	1741.38
678.775	1741.38
684.254	1717.38
689.726	1692.38
695.193	1680.38
700.655	1663.38
706.11	1637.38
711.56	1623.38
717.004	1619.38
722.442	1592.38
727.874	1590.38
733.301	1577.38
738.722	1584.38
744.137	1578.38
749.547	1566.38
754.951	1572.38
760.349	1561.38
765.741	1552.38
771.128	1544.38
776.509	1541.38
781.885	1547.38
787.254	1538.38
792.618	1534.38
797.977	1515.38
803.33	1516.38
808.677	1499.38
814.019	1490.38
819.355	1461.38
824.686	1444.38
830.011	1436.38
835.33	1438.38
840.644	1427.38
845.952	1420.38
851.255	1401.38
856.552	1399.38
861.844	1406.38
867.13	1393.38
872.41	1394.38
877.686	1364.38
882.955	1347.38
888.219	1341.38
893.478	1337.38
898.731	1311.38
903.979	1304.38
909.221	1296.38
914.458	1291.38
919.69	1293.38
924.916	1319.38
930.136	1341.38
935.351	1389.38
940.561	1442.38
945.766	1466.38
950.965	1450.38
956.158	1431.38
961.347	1406.38
966.529	1353.38
971.707	1353.38
976.879	1316.38
982.046	1293.38
987.208	1263.38
992.364	1222.38
997.515	1206.38
1002.66	1200.38
1007.801	1181.38
1012.936	1187.38
1018.066	1196.38
1023.19	1168.38
1028.309	1180.38
1033.423	1182.38
1038.532	1148.38
1043.636	1150.38
1048.734	1130.38
1053.827	1115.38
1058.915	1098.38
1063.998	1084.38
1069.075	1074.38
1074.147	1083.38
1079.214	1061.38
1084.276	1095.38
1089.333	1101.38
1094.385	1098.38
1099.431	1099.38
1104.472	1095.38
1109.509	1093.38
1114.54	1075.38
1119.565	1061.38
1124.586	1032.38
1129.602	1054.38
1134.613	1032.38
1139.618	1032.38
1144.619	1015.38
1149.614	1016.38
1154.604	1022.38
1159.589	1017.38
1164.57	1034.38
1169.545	1018.38
1174.515	1024.38
1179.48	1003.38
1184.44	1007.38
1189.395	1003.38
1194.345	988.38
1199.29	977.38
1204.23	992.38
1209.165	985.38
1214.095	998.38
1219.021	1010.38
1223.941	1010.38
1228.856	1027.38
1233.766	1016.38
1238.672	1016.38
1243.572	1012.38
1248.467	1015.38
1253.358	982.38
1258.244	983.38
1263.124	969.38
1268	947.38
1272.871	930.38
1277.737	914.38
1282.599	918.38
1287.455	930.38
1292.306	930.38
1297.153	938.38
1301.995	945.38
1306.832	940.38
1311.664	953.38
1316.491	951.38
1321.314	960.38
1326.132	949.38
1330.945	957.38
1335.753	947.38
1340.556	955.38
1345.354	965.38
1350.148	966.38
1354.937	950.38
1359.722	934.38
1364.501	891.38
1369.276	869.38
1374.046	841.38
1378.811	810.38
1383.572	789.38
1388.327	784.38
1393.079	785.38
1397.825	798.38
1402.567	785.38
1407.304	792.38
1412.036	797.38
1416.764	805.38
1421.487	814.38
1426.205	813.38
1430.919	818.38
1435.628	838.38
1440.333	857.38
1445.032	859.38
1449.727	863.38
1454.418	858.38
1459.104	862.38
1463.785	874.38
1468.462	868.38
1473.134	862.38
1477.802	883.38
1482.465	873.38
1487.123	868.38
1491.777	870.38
1496.426	868.38
1501.071	865.38
1505.711	862.38
1510.347	860.38
1514.978	836.38
1519.604	835.38
1524.226	817.38
1528.844	808.38
1533.457	778.38
1538.065	773.38
1542.669	752.38
1547.269	754.38
1551.864	739.38
1556.454	766.38
1561.041	766.38
1565.622	765.38
1570.199	769.38
1574.772	759.38
1579.34	768.38
1583.904	785.38
1588.464	792.38
1593.019	800.38
1597.569	800.38
1602.115	790.38
1606.657	782.38
1611.195	787.38
1615.728	782.38
1620.256	772.38
1624.78	784.38
1629.3	786.38
1633.816	798.38
1638.327	800.38
1642.834	810.38
1647.336	829.38
1651.834	820.38
1656.328	845.38
1660.817	863.38
1665.302	859.38
1669.783	853.38
1674.259	870.38
1678.732	868.38
1683.199	864.38
1687.663	877.38
1692.122	864.38
1696.577	838.38
1701.028	810.38
1705.474	761.38
1709.917	747.38
1714.355	730.38
1718.788	730.38
1723.218	746.38
1727.643	758.38
1732.064	749.38
1736.481	763.38
1740.893	746.38
1745.301	732.38
1749.705	734.38
1754.105	729.38
1758.501	716.38
1762.893	718.38
1767.28	721.38
1771.663	731.38
1776.042	751.38
1780.417	769.38
1784.787	772.38
1789.154	789.38
1793.516	790.38
1797.874	770.38
1802.228	747.38
1806.578	721.38
1810.924	700.38
1815.266	678.38
1819.603	681.38
1823.937	696.38
1828.266	704.38
1832.591	716.38
1836.913	722.38
1841.23	739.38
1845.543	757.38
1849.852	753.38
1854.156	769.38
1858.457	787.38
1862.754	787.38
1867.047	814.38
1871.335	815.38
1875.62	842.38
1879.9	840.38
1884.177	849.38
1888.449	851.38
1892.718	862.38
1896.982	871.38
1901.243	887.38
1905.499	895.38
1909.752	899.38
1914	905.38
1918.245	915.38
1922.485	917.38
1926.722	932.38
1930.954	940.38
1935.183	932.38
1939.408	938.38
1943.628	934.38
1947.845	932.38
1952.058	922.38
1956.267	893.38
1960.472	892.38
1964.673	871.38
1968.87	843.38
1973.063	845.38
1977.252	853.38
1981.438	850.38
1985.619	846.38
1989.797	853.38
1993.971	855.38
1998.14	876.38
2002.306	899.38
2006.469	896.38
2010.627	898.38
2014.781	909.38
2018.932	931.38
2023.078	941.38
2027.221	929.38
2031.36	957.38
2035.495	944.38
2039.627	943.38
2043.754	959.38
2047.878	966.38
2051.998	980.38
2056.114	1002.38
2060.226	1002.38
2064.334	1031.38
2068.439	1045.38
2072.54	1053.38
2076.637	1072.38
2080.73	1080.38
2084.82	1084.38
2088.906	1116.38
2092.988	1094.38
2097.066	1094.38
2101.14	1095.38
2105.211	1081.38
2109.278	1086.38
2113.342	1078.38
2117.401	1065.38
2121.457	1060.38
2125.509	1041.38
2129.558	1051.38
2133.602	1055.38
2137.643	1073.38
2141.681	1075.38
2145.714	1094.38
2149.744	1087.38
2153.77	1093.38
2157.793	1093.38
2161.812	1104.38
2165.827	1115.38
2169.838	1110.38
2173.846	1100.38
2177.851	1109.38
2181.851	1108.38
2185.848	1119.38
2189.841	1117.38
2193.831	1126.38
2197.817	1131.38
2201.799	1145.38
2205.778	1154.38
2209.753	1184.38
2213.725	1186.38
2217.693	1201.38
2221.657	1206.38
2225.618	1222.38
2229.575	1232.38
2233.529	1235.38
2237.479	1230.38
2241.425	1238.38
2245.368	1251.38
2249.307	1249.38
2253.243	1235.38
2257.175	1244.38
2261.104	1241.38
2265.029	1241.38
2268.95	1245.38
2272.868	1245.38
2276.783	1247.38
2280.694	1259.38
2284.601	1265.38
2288.505	1253.38
2292.405	1256.38
2296.302	1243.38
2300.195	1253.38
2304.085	1255.38
2307.971	1259.38
2311.854	1248.38
2315.734	1257.38
2319.609	1267.38
2323.482	1260.38
2327.351	1252.38
2331.216	1281.38
2335.078	1286.38
2338.937	1301.38
2342.792	1308.38
2346.643	1301.38
2350.492	1333.38
2354.336	1357.38
2358.178	1378.38
2362.015	1384.38
2365.85	1409.38
2369.681	1442.38
2373.508	1474.38
2377.333	1489.38
2381.153	1511.38
2384.971	1509.38
2388.785	1536.38
2392.595	1520.38
2396.402	1548.38
2400.206	1553.38
2404.007	1575.38
2407.804	1585.38
2411.597	1615.38
2415.388	1638.38
2419.174	1636.38
2422.958	1658.38
2426.738	1688.38
2430.515	1684.38
2434.289	1715.38
2438.059	1738.38
2441.825	1758.38
2445.589	1754.38
2449.349	1769.38
2453.106	1765.38
2456.859	1790.38
2460.61	1788.38
2464.356	1816.38
2468.1	1803.38
2471.84	1856.38
2475.577	1851.38
2479.311	1887.38
2483.041	1922.38
2486.768	1925.38
2490.492	1942.38
2494.213	1951.38
2497.93	1999.38
2501.644	2009.38
2505.355	2051.38
2509.062	2062.38
2512.766	2093.38
2516.467	2111.38
2520.165	2145.38
2523.859	2144.38
2527.551	2170.38
2531.239	2184.38
2534.923	2192.38
2538.605	2212.38
2542.283	2217.38
2545.958	2259.38
2549.63	2271.38
2553.299	2286.38
2556.964	2304.38
2560.626	2321.38
2564.285	2302.38
2567.941	2337.38
2571.594	2332.38
2575.243	2331.38
2578.89	2338.38
2582.533	2332.38
2586.173	2324.38
2589.809	2329.38
2593.443	2325.38
2597.073	2310.38
2600.701	2319.38
2604.325	2325.38
2607.946	2338.38
2611.564	2341.38
2615.178	2376.38
2618.79	2387.38
2622.398	2389.38
2626.004	2373.38
2629.606	2392.38
2633.205	2397.38
2636.801	2373.38
2640.394	2393.38
2643.983	2396.38
2647.57	2399.38
2651.153	2400.38
2654.734	2436.38
2658.311	2441.38
2661.885	2447.38
2665.456	2462.38
2669.025	2444.38
2672.589	2490.38
2676.151	2500.38
2679.71	2500.38
2683.266	2529.38
2686.819	2507.38
2690.368	2523.38
2693.915	2500.38
2697.458	2551.38
2700.999	2531.38
2704.536	2549.38
2708.071	2557.38
2711.602	2566.38
2715.13	2593.38
2718.656	2605.38
2722.178	2662.38
2725.697	2652.38
2729.214	2726.38
2732.727	2749.38
2736.237	2796.38
2739.744	2845.38
2743.249	2876.38
2746.75	2893.38
2750.248	2868.38
2753.743	2830.38
2757.236	2779.38
2760.725	2735.38
2764.211	2667.38
2767.695	2650.38
2771.175	2636.38
2774.652	2597.38
2778.127	2603.38
2781.598	2603.38
2785.067	2650.38
2788.532	2681.38
2791.995	2718.38
2795.455	2771.38
2798.911	2812.38
2802.365	2843.38
2805.816	2873.38
2809.264	2884.38
2812.709	2927.38
2816.151	2967.38
2819.59	2983.38
2823.026	2973.38
2826.46	2984.38
2829.89	2985.38
2833.318	2997.38
2836.742	2998.38
2840.164	2994.38
2843.583	3009.38
2846.999	2984.38
2850.412	3014.38
2853.822	3010.38
2857.229	3030.38
2860.634	3034.38
2864.035	3025.38
2867.434	3023.38
2870.83	3040.38
2874.223	3016.38
2877.613	2972.38
2881	2995.38
2884.385	2951.38
2887.766	2913.38
2891.145	2901.38
2894.521	2881.38
2897.894	2879.38
2901.264	2847.38
2904.631	2832.38
2907.996	2828.38
2911.358	2851.38
2914.717	2841.38
2918.073	2859.38
2921.426	2841.38
2924.777	2856.38
2928.124	2855.38
2931.469	2867.38
2934.811	2876.38
2938.15	2911.38
2941.487	2904.38
2944.821	2896.38
2948.152	2915.38
2951.48	2905.38
2954.805	2907.38
2958.128	2898.38
2961.447	2907.38
2964.765	2909.38
2968.079	2919.38
2971.39	2918.38
2974.699	2955.38
2978.005	2935.38
2981.308	2944.38
2984.609	2957.38
2987.907	2939.38
2991.202	2944.38
2994.494	2912.38
2997.784	2876.38
3001.07	2857.38
3004.355	2827.38
3007.636	2796.38
3010.915	2764.38
3014.191	2735.38
3017.464	2697.38
3020.734	2659.38
3024.002	2662.38
3027.267	2657.38
3030.53	2648.38
3033.789	2639.38
3037.046	2630.38
3040.301	2630.38
3043.552	2645.38
3046.801	2660.38
3050.048	2670.38
3053.291	2700.38
3056.532	2694.38
3059.771	2730.38
3063.006	2766.38
3066.239	2772.38
3069.469	2788.38
3072.697	2804.38
3075.922	2832.38
3079.144	2831.38
3082.364	2836.38
3085.581	2807.38
3088.795	2818.38
3092.007	2812.38
3095.216	2829.38
3098.423	2825.38
3101.627	2812.38
3104.828	2819.38
3108.026	2792.38
3111.222	2822.38
3114.416	2812.38
3117.607	2806.38
3120.795	2795.38
3123.98	2824.38
3127.163	2801.38
3130.344	2782.38
3133.521	2819.38
3136.696	2799.38
3139.869	2799.38
3143.039	2789.38
3146.206	2756.38
3149.371	2743.38
3152.533	2698.38
3155.693	2689.38
3158.85	2641.38
3162.005	2634.38
3165.157	2605.38
3168.306	2575.38
3171.453	2531.38
3174.597	2503.38
3177.739	2498.38
3180.878	2469.38
3184.014	2471.38
3187.149	2429.38
3190.28	2413.38
3193.409	2414.38
3196.536	2402.38
3199.659	2378.38
3202.781	2372.38
3205.9	2384.38
3209.016	2382.38
3212.13	2350.38
3215.241	2372.38
3218.35	2341.38
3221.456	2327.38
3224.56	2290.38
3227.661	2271.38
3230.76	2281.38
3233.856	2233.38
3236.95	2235.38
3240.041	2215.38
3243.13	2199.38
3246.216	2157.38
3249.3	2152.38
3252.382	2157.38
3255.46	2138.38
3258.537	2140.38
3261.611	2112.38
3264.682	2090.38
3267.751	2088.38
3270.818	2055.38
3273.882	2053.38
3276.943	2031.38
3280.002	2006.38
3283.059	1975.38
3286.113	1966.38
3289.165	1956.38
3292.214	1907.38
3295.261	1892.38
3298.306	1884.38
3301.348	1846.38
3304.387	1821.38
3307.425	1814.38
3310.459	1805.38
3313.492	1799.38
3316.521	1805.38
3319.549	1774.38
3322.574	1771.38
3325.597	1756.38
3328.617	1760.38
3331.635	1777.38
3334.65	1771.38
3337.663	1760.38
3340.674	1758.38
3343.682	1765.38
3346.688	1757.38
3349.691	1771.38
3352.692	1764.38
3355.691	1768.38
3358.687	1757.38
3361.681	1746.38
3364.673	1727.38
3367.662	1701.38
3370.649	1692.38
3373.633	1677.38
3376.615	1656.38
3379.595	1637.38
3382.572	1612.38
3385.547	1626.38
3388.52	1602.38
3391.49	1583.38
3394.458	1566.38
3397.424	1572.38
3400.387	1563.38
3403.348	1532.38
3406.307	1547.38
3409.263	1533.38
3412.217	1523.38
3415.168	1514.38
3418.118	1511.38
3421.065	1508.38
3424.009	1504.38
3426.951	1474.38
3429.891	1463.38
3432.829	1464.38
3435.764	1448.38
3438.697	1420.38
3441.628	1412.38
3444.557	1383.38
3447.483	1369.38
3450.407	1338.38
3453.328	1313.38
3456.247	1301.38
3459.164	1280.38
3462.079	1254.38
3464.991	1243.38
3467.902	1224.38
3470.809	1209.38
3473.715	1187.38
3476.618	1173.38
3479.519	1159.38
3482.418	1151.38
3485.315	1142.38
3488.209	1129.38
3491.101	1110.38
3493.99	1103.38
3496.878	1081.38
3499.763	1086.38
3502.646	1071.38
3505.527	1045.38
3508.405	1034.38
3511.281	1018.38
3514.155	1003.38
3517.027	968.38
3519.897	952.38
3522.764	932.38
3525.629	903.38
3528.492	895.38
3531.352	870.38
3534.211	834.38
3537.067	826.38
3539.921	805.38
3542.773	780.38
3545.622	759.38
3548.469	762.38
3551.315	731.38
3554.157	728.38
3556.998	707.38
3559.837	696.38
3562.673	705.38
3565.507	691.38
3568.339	687.38
3571.169	665.38
3573.996	664.38
3576.822	637.38
3579.645	641.38
3582.466	617.38
3585.285	622.38
3588.101	604.38
3590.916	595.38
3593.728	574.38
3596.538	573.38
3599.346	550.38
3602.152	533.38
3604.956	526.38
3607.757	512.38
3610.556	495.38
3613.354	486.38
3616.149	475.38
3618.942	474.38
3621.732	466.38
3624.521	442.38
3627.307	449.38
3630.092	433.38
3632.874	427.38
3635.654	427.38
3638.432	431.38
3641.208	425.38
3643.982	402.38
3646.753	411.38
3649.523	403.38
3652.29	402.38
3655.055	403.38
3657.818	396.38
3660.579	383.38
3663.338	384.38
3666.095	385.38
3668.849	378.38
3671.602	379.38
3674.352	367.38
3677.101	377.38
3679.847	375.38
3682.591	360.38
3685.333	360.38
3688.073	370.38
3690.811	363.38
3693.547	368.38
3696.281	362.38
3699.013	370.38
3701.742	371.38
3704.47	380.38
3707.195	373.38
3709.919	379.38
3712.64	368.38
3715.359	362.38
3718.076	365.38
3720.792	351.38
3723.505	354.38
3726.216	342.38
3728.925	345.38
3731.632	342.38
3734.336	336.38
3737.039	332.38
3739.74	320.38
3742.439	328.38
3745.136	324.38
3747.83	322.38
3750.523	317.38
3753.213	326.38
3755.902	321.38
3758.589	315.38
3761.273	317.38
3763.956	318.38
3766.636	316.38
3769.315	316.38
3771.991	305.38
3774.665	296.38
3777.338	293.38
3780.008	284.38
3782.677	276.38
3785.343	282.38
3788.007	275.38
3790.67	268.38
3793.33	260.38
3795.989	248.38
3798.645	248.38
3801.299	244.38
3803.952	236.38
3806.602	242.38
3809.251	247.38
3811.897	231.38
3814.542	236.38
3817.184	226.38
3819.825	228.38
3822.463	219.38
3825.1	223.38
3827.735	211.38
3830.367	207.38
3832.998	198.38
3835.627	191.38
3838.253	186.38
3840.878	178.38
3843.501	173.38
3846.122	178.38
3848.741	169.38
3851.358	153.38
3853.973	161.38
3856.586	146.38
3859.197	146.38
3861.806	147.38
3864.414	136.38
3867.019	141.38
3869.622	137.38
3872.224	133.38
3874.823	135.38
3877.421	128.38
3880.016	123.38
3882.61	124.38
3885.202	118.38
3887.792	113.38
3890.38	101.38
3892.966	92.38
3895.55	83.38
3898.132	77.38
3900.713	69.38
3903.291	62.38
3905.868	55.38
3908.442	48.38
3911.015	54.38
3913.586	48.38
3916.155	41.38
3918.722	34.38
3921.287	26.38
3923.85	31.38
3926.411	26.38
3928.971	26.38
3931.528	24.38
3934.084	22.38
3936.638	23.38
3939.19	23.38
3941.74	15.38
3944.288	13.38
3946.834	11.38
3949.378	12.38
3951.921	12.38
3954.462	2.38
3957	9.38
3959.537	9.38
3962.072	1.38
3964.606	6.38
3967.137	-3.62
3969.667	1.38
3972.194	0.38
3974.72	-0.62
3977.244	-0.62
3979.766	-0.62
3982.286	4.38
3984.805	-7.62
3987.321	-5.62
3989.836	-2.62
3992.349	-12.62
3994.86	-7.62
3997.369	-1.62
3999.877	-10.62
4002.382	-5.62
4004.886	-11.62
4007.388	-11.62
4009.888	-4.62
4012.386	-10.62
4014.883	-12.62
4017.377	-11.62
4019.87	-12.62
4022.361	-9.62
4024.85	-17.62
4027.338	-16.62
4029.823	-22.62
4032.307	-18.62
4034.789	-17.62
4037.269	-20.62
4039.747	-19.62
4042.224	-19.62
4044.699	-18.62
4047.172	-22.62
4049.643	-19.62
4052.112	-24.62
4054.58	-23.62
4057.046	-24.62
4059.51	-26.62
4061.972	-26.62
4064.432	-26.62
4066.891	-30.62
4069.348	-31.62
4071.803	-28.62
4074.256	-32.62
4076.708	-36.62
4079.158	-35.62
4081.606	-29.62
4084.052	-33.62
4086.497	-30.62
4088.939	-31.62
4091.38	-38.62
4093.819	-32.62
4096.257	-56.62
4098.693	-59.62
4101.127	-58.62
4103.559	-58.62
4105.989	-20.62
4108.418	-22.62
4110.845	-20.62
4113.27	-13.62
4115.694	-20.62
4118.115	-11.62
4120.535	-36.62
4122.954	-35.62
4125.37	-38.62
4127.785	-40.62
4130.198	-40.62
4132.609	-46.62
4135.019	-57.62
4137.427	-57.62
4139.833	-57.62
4142.237	-57.62
