Data from SERS_Bac_20uL_I=0.5_T=20s_RamanShift_2.txt Node
Date: Wed Jun 14 14:38:41 IDT 2017
User: aro
Spectrometer: QEPB0276
Trigger mode: 0
Integration Time (sec): 2.000000E1
Scans to average: 1
Electric dark correction enabled: true
Nonlinearity correction enabled: false
Boxcar width: 0
XAxis mode: Raman Shifts
Number of Pixels in Spectrum: 1044
>>>>>Begin Spectral Data<<<<<
160.701	-3.5
166.742	9.5
172.777	53.5
178.805	203.5
184.826	573.5
190.841	1256.5
196.849	2109.5
202.85	2737.5
208.845	2992.5
214.833	3039.5
220.815	3062.5
226.789	3112.5
232.758	3154.5
238.719	3197.5
244.674	3235.5
250.623	3221.5
256.565	3195.5
262.5	3101.5
268.429	3076.5
274.351	3020.5
280.267	2990.5
286.176	2958.5
292.079	2946.5
297.975	2940.5
303.865	2959.5
309.748	2977.5
315.625	2894.5
321.495	2845.5
327.359	2795.5
333.217	2761.5
339.068	2737.5
344.912	2712.5
350.751	2680.5
356.583	2650.5
362.408	2637.5
368.227	2623.5
374.04	2617.5
379.847	2623.5
385.647	2608.5
391.44	2564.5
397.228	2524.5
403.009	2524.5
408.784	2538.5
414.553	2597.5
420.315	2701.5
426.071	2666.5
431.821	2531.5
437.565	2415.5
443.302	2326.5
449.033	2240.5
454.758	2189.5
460.477	2118.5
466.189	2051.5
471.896	1968.5
477.596	1897.5
483.29	1828.5
488.978	1743.5
494.66	1616.5
500.335	1486.5
506.005	1373.5
511.668	1373.5
517.325	1624.5
522.977	2049.5
528.622	2453.5
534.261	2618.5
539.894	2628.5
545.521	2577.5
551.141	2519.5
556.756	2468.5
562.365	2417.5
567.968	2344.5
573.565	2339.5
579.155	2267.5
584.74	2244.5
590.319	2200.5
595.892	2165.5
601.459	2109.5
607.02	2059.5
612.575	2004.5
618.124	1990.5
623.667	2024.5
629.204	2041.5
634.735	2055.5
640.261	2043.5
645.781	2092.5
651.294	2088.5
656.802	2066.5
662.304	2001.5
667.8	1975.5
673.29	1969.5
678.775	1927.5
684.254	1907.5
689.726	1902.5
695.193	1883.5
700.655	1848.5
706.11	1835.5
711.56	1817.5
717.004	1808.5
722.442	1780.5
727.874	1774.5
733.301	1780.5
738.722	1750.5
744.137	1758.5
749.547	1765.5
754.951	1775.5
760.349	1763.5
765.741	1740.5
771.128	1731.5
776.509	1722.5
781.885	1729.5
787.254	1743.5
792.618	1730.5
797.977	1713.5
803.33	1721.5
808.677	1697.5
814.019	1663.5
819.355	1649.5
824.686	1641.5
830.011	1604.5
835.33	1607.5
840.644	1592.5
845.952	1599.5
851.255	1571.5
856.552	1568.5
861.844	1561.5
867.13	1562.5
872.41	1562.5
877.686	1546.5
882.955	1536.5
888.219	1518.5
893.478	1516.5
898.731	1479.5
903.979	1477.5
909.221	1468.5
914.458	1479.5
919.69	1485.5
924.916	1506.5
930.136	1526.5
935.351	1575.5
940.561	1627.5
945.766	1625.5
950.965	1639.5
956.158	1591.5
961.347	1572.5
966.529	1549.5
971.707	1490.5
976.879	1470.5
982.046	1444.5
987.208	1407.5
992.364	1389.5
997.515	1372.5
1002.66	1350.5
1007.801	1349.5
1012.936	1358.5
1018.066	1355.5
1023.19	1363.5
1028.309	1361.5
1033.423	1347.5
1038.532	1317.5
1043.636	1315.5
1048.734	1296.5
1053.827	1288.5
1058.915	1269.5
1063.998	1239.5
1069.075	1261.5
1074.147	1235.5
1079.214	1247.5
1084.276	1235.5
1089.333	1257.5
1094.385	1261.5
1099.431	1277.5
1104.472	1251.5
1109.509	1252.5
1114.54	1224.5
1119.565	1223.5
1124.586	1190.5
1129.602	1187.5
1134.613	1179.5
1139.618	1176.5
1144.619	1177.5
1149.614	1170.5
1154.604	1175.5
1159.589	1184.5
1164.57	1178.5
1169.545	1184.5
1174.515	1190.5
1179.48	1168.5
1184.44	1173.5
1189.395	1167.5
1194.345	1154.5
1199.29	1153.5
1204.23	1150.5
1209.165	1153.5
1214.095	1160.5
1219.021	1163.5
1223.941	1175.5
1228.856	1167.5
1233.766	1163.5
1238.672	1176.5
1243.572	1178.5
1248.467	1161.5
1253.358	1154.5
1258.244	1142.5
1263.124	1110.5
1268	1114.5
1272.871	1107.5
1277.737	1082.5
1282.599	1105.5
1287.455	1095.5
1292.306	1098.5
1297.153	1103.5
1301.995	1104.5
1306.832	1127.5
1311.664	1135.5
1316.491	1126.5
1321.314	1134.5
1326.132	1136.5
1330.945	1133.5
1335.753	1110.5
1340.556	1107.5
1345.354	1120.5
1350.148	1136.5
1354.937	1103.5
1359.722	1085.5
1364.501	1053.5
1369.276	1007.5
1374.046	970.5
1378.811	938.5
1383.572	921.5
1388.327	918.5
1393.079	911.5
1397.825	913.5
1402.567	919.5
1407.304	920.5
1412.036	925.5
1416.764	935.5
1421.487	953.5
1426.205	955.5
1430.919	967.5
1435.628	965.5
1440.333	988.5
1445.032	985.5
1449.727	987.5
1454.418	986.5
1459.104	1004.5
1463.785	987.5
1468.462	988.5
1473.134	993.5
1477.802	972.5
1482.465	993.5
1487.123	987.5
1491.777	983.5
1496.426	984.5
1501.071	983.5
1505.711	980.5
1510.347	988.5
1514.978	961.5
1519.604	955.5
1524.226	935.5
1528.844	924.5
1533.457	902.5
1538.065	871.5
1542.669	869.5
1547.269	868.5
1551.864	856.5
1556.454	868.5
1561.041	872.5
1565.622	859.5
1570.199	861.5
1574.772	866.5
1579.34	884.5
1583.904	893.5
1588.464	890.5
1593.019	915.5
1597.569	918.5
1602.115	892.5
1606.657	888.5
1611.195	886.5
1615.728	890.5
1620.256	896.5
1624.78	904.5
1629.3	906.5
1633.816	919.5
1638.327	927.5
1642.834	925.5
1647.336	948.5
1651.834	963.5
1656.328	965.5
1660.817	978.5
1665.302	976.5
1669.783	976.5
1674.259	965.5
1678.732	969.5
1683.199	989.5
1687.663	983.5
1692.122	963.5
1696.577	934.5
1701.028	907.5
1705.474	845.5
1709.917	823.5
1714.355	804.5
1718.788	805.5
1723.218	812.5
1727.643	818.5
1732.064	833.5
1736.481	826.5
1740.893	818.5
1745.301	802.5
1749.705	793.5
1754.105	791.5
1758.501	777.5
1762.893	789.5
1767.28	801.5
1771.663	795.5
1776.042	814.5
1780.417	841.5
1784.787	842.5
1789.154	851.5
1793.516	865.5
1797.874	843.5
1802.228	803.5
1806.578	787.5
1810.924	760.5
1815.266	745.5
1819.603	753.5
1823.937	758.5
1828.266	768.5
1832.591	779.5
1836.913	779.5
1841.23	794.5
1845.543	797.5
1849.852	808.5
1854.156	820.5
1858.457	837.5
1862.754	848.5
1867.047	873.5
1871.335	874.5
1875.62	884.5
1879.9	892.5
1884.177	902.5
1888.449	925.5
1892.718	925.5
1896.982	917.5
1901.243	944.5
1905.499	934.5
1909.752	956.5
1914	978.5
1918.245	974.5
1922.485	994.5
1926.722	992.5
1930.954	999.5
1935.183	987.5
1939.408	1003.5
1943.628	967.5
1947.845	973.5
1952.058	954.5
1956.267	937.5
1960.472	932.5
1964.673	903.5
1968.87	912.5
1973.063	894.5
1977.252	878.5
1981.438	886.5
1985.619	886.5
1989.797	895.5
1993.971	894.5
1998.14	912.5
2002.306	928.5
2006.469	932.5
2010.627	953.5
2014.781	947.5
2018.932	967.5
2023.078	969.5
2027.221	961.5
2031.36	978.5
2035.495	985.5
2039.627	970.5
2043.754	982.5
2047.878	994.5
2051.998	999.5
2056.114	1013.5
2060.226	1038.5
2064.334	1050.5
2068.439	1063.5
2072.54	1084.5
2076.637	1104.5
2080.73	1101.5
2084.82	1129.5
2088.906	1133.5
2092.988	1136.5
2097.066	1139.5
2101.14	1114.5
2105.211	1119.5
2109.278	1096.5
2113.342	1087.5
2117.401	1083.5
2121.457	1086.5
2125.509	1068.5
2129.558	1069.5
2133.602	1065.5
2137.643	1099.5
2141.681	1090.5
2145.714	1093.5
2149.744	1099.5
2153.77	1105.5
2157.793	1120.5
2161.812	1102.5
2165.827	1109.5
2169.838	1113.5
2173.846	1110.5
2177.851	1094.5
2181.851	1109.5
2185.848	1115.5
2189.841	1120.5
2193.831	1119.5
2197.817	1134.5
2201.799	1137.5
2205.778	1156.5
2209.753	1163.5
2213.725	1184.5
2217.693	1198.5
2221.657	1192.5
2225.618	1193.5
2229.575	1225.5
2233.529	1242.5
2237.479	1223.5
2241.425	1227.5
2245.368	1232.5
2249.307	1226.5
2253.243	1231.5
2257.175	1218.5
2261.104	1220.5
2265.029	1204.5
2268.95	1217.5
2272.868	1215.5
2276.783	1234.5
2280.694	1233.5
2284.601	1225.5
2288.505	1246.5
2292.405	1219.5
2296.302	1225.5
2300.195	1228.5
2304.085	1234.5
2307.971	1233.5
2311.854	1224.5
2315.734	1211.5
2319.609	1241.5
2323.482	1226.5
2327.351	1228.5
2331.216	1233.5
2335.078	1259.5
2338.937	1257.5
2342.792	1256.5
2346.643	1287.5
2350.492	1303.5
2354.336	1333.5
2358.178	1347.5
2362.015	1368.5
2365.85	1383.5
2369.681	1394.5
2373.508	1419.5
2377.333	1440.5
2381.153	1469.5
2384.971	1456.5
2388.785	1500.5
2392.595	1509.5
2396.402	1512.5
2400.206	1534.5
2404.007	1538.5
2407.804	1557.5
2411.597	1566.5
2415.388	1581.5
2419.174	1613.5
2422.958	1628.5
2426.738	1625.5
2430.515	1668.5
2434.289	1662.5
2438.059	1694.5
2441.825	1702.5
2445.589	1713.5
2449.349	1716.5
2453.106	1732.5
2456.859	1751.5
2460.61	1754.5
2464.356	1786.5
2468.1	1768.5
2471.84	1790.5
2475.577	1805.5
2479.311	1834.5
2483.041	1858.5
2486.768	1859.5
2490.492	1894.5
2494.213	1928.5
2497.93	1960.5
2501.644	1988.5
2505.355	2000.5
2509.062	2031.5
2512.766	2039.5
2516.467	2069.5
2520.165	2079.5
2523.859	2084.5
2527.551	2123.5
2531.239	2112.5
2534.923	2146.5
2538.605	2147.5
2542.283	2183.5
2545.958	2200.5
2549.63	2199.5
2553.299	2223.5
2556.964	2234.5
2560.626	2258.5
2564.285	2246.5
2567.941	2253.5
2571.594	2273.5
2575.243	2271.5
2578.89	2256.5
2582.533	2280.5
2586.173	2258.5
2589.809	2269.5
2593.443	2269.5
2597.073	2280.5
2600.701	2254.5
2604.325	2268.5
2607.946	2272.5
2611.564	2303.5
2615.178	2299.5
2618.79	2306.5
2622.398	2319.5
2626.004	2304.5
2629.606	2322.5
2633.205	2316.5
2636.801	2329.5
2640.394	2338.5
2643.983	2339.5
2647.57	2342.5
2651.153	2336.5
2654.734	2361.5
2658.311	2359.5
2661.885	2374.5
2665.456	2364.5
2669.025	2376.5
2672.589	2396.5
2676.151	2409.5
2679.71	2421.5
2683.266	2420.5
2686.819	2441.5
2690.368	2446.5
2693.915	2437.5
2697.458	2440.5
2700.999	2454.5
2704.536	2462.5
2708.071	2462.5
2711.602	2467.5
2715.13	2500.5
2718.656	2520.5
2722.178	2544.5
2725.697	2584.5
2729.214	2636.5
2732.727	2663.5
2736.237	2698.5
2739.744	2730.5
2743.249	2773.5
2746.75	2798.5
2750.248	2760.5
2753.743	2736.5
2757.236	2702.5
2760.725	2634.5
2764.211	2589.5
2767.695	2557.5
2771.175	2530.5
2774.652	2506.5
2778.127	2498.5
2781.598	2517.5
2785.067	2540.5
2788.532	2588.5
2791.995	2618.5
2795.455	2668.5
2798.911	2718.5
2802.365	2729.5
2805.816	2746.5
2809.264	2784.5
2812.709	2812.5
2816.151	2827.5
2819.59	2836.5
2823.026	2851.5
2826.46	2856.5
2829.89	2866.5
2833.318	2882.5
2836.742	2888.5
2840.164	2886.5
2843.583	2903.5
2846.999	2883.5
2850.412	2882.5
2853.822	2901.5
2857.229	2900.5
2860.634	2924.5
2864.035	2910.5
2867.434	2888.5
2870.83	2905.5
2874.223	2898.5
2877.613	2882.5
2881	2855.5
2884.385	2853.5
2887.766	2825.5
2891.145	2805.5
2894.521	2805.5
2897.894	2768.5
2901.264	2752.5
2904.631	2734.5
2907.996	2750.5
2911.358	2754.5
2914.717	2731.5
2918.073	2763.5
2921.426	2748.5
2924.777	2774.5
2928.124	2760.5
2931.469	2791.5
2934.811	2774.5
2938.15	2802.5
2941.487	2810.5
2944.821	2793.5
2948.152	2802.5
2951.48	2808.5
2954.805	2829.5
2958.128	2834.5
2961.447	2818.5
2964.765	2815.5
2968.079	2838.5
2971.39	2833.5
2974.699	2875.5
2978.005	2876.5
2981.308	2848.5
2984.609	2891.5
2987.907	2874.5
2991.202	2881.5
2994.494	2830.5
2997.784	2837.5
3001.07	2794.5
3004.355	2772.5
3007.636	2745.5
3010.915	2703.5
3014.191	2687.5
3017.464	2661.5
3020.734	2642.5
3024.002	2604.5
3027.267	2589.5
3030.53	2597.5
3033.789	2599.5
3037.046	2577.5
3040.301	2585.5
3043.552	2606.5
3046.801	2625.5
3050.048	2646.5
3053.291	2652.5
3056.532	2676.5
3059.771	2685.5
3063.006	2696.5
3066.239	2748.5
3069.469	2756.5
3072.697	2770.5
3075.922	2797.5
3079.144	2804.5
3082.364	2781.5
3085.581	2822.5
3088.795	2809.5
3092.007	2805.5
3095.216	2813.5
3098.423	2784.5
3101.627	2798.5
3104.828	2811.5
3108.026	2788.5
3111.222	2774.5
3114.416	2793.5
3117.607	2789.5
3120.795	2774.5
3123.98	2792.5
3127.163	2793.5
3130.344	2785.5
3133.521	2785.5
3136.696	2800.5
3139.869	2815.5
3143.039	2773.5
3146.206	2780.5
3149.371	2752.5
3152.533	2739.5
3155.693	2706.5
3158.85	2691.5
3162.005	2657.5
3165.157	2620.5
3168.306	2611.5
3171.453	2578.5
3174.597	2540.5
3177.739	2524.5
3180.878	2495.5
3184.014	2486.5
3187.149	2465.5
3190.28	2435.5
3193.409	2437.5
3196.536	2430.5
3199.659	2424.5
3202.781	2433.5
3205.9	2403.5
3209.016	2403.5
3212.13	2400.5
3215.241	2403.5
3218.35	2357.5
3221.456	2369.5
3224.56	2330.5
3227.661	2311.5
3230.76	2297.5
3233.856	2300.5
3236.95	2246.5
3240.041	2244.5
3243.13	2237.5
3246.216	2230.5
3249.3	2210.5
3252.382	2193.5
3255.46	2164.5
3258.537	2143.5
3261.611	2140.5
3264.682	2121.5
3267.751	2116.5
3270.818	2090.5
3273.882	2074.5
3276.943	2068.5
3280.002	2027.5
3283.059	2013.5
3286.113	1998.5
3289.165	1954.5
3292.214	1931.5
3295.261	1929.5
3298.306	1884.5
3301.348	1882.5
3304.387	1869.5
3307.425	1843.5
3310.459	1837.5
3313.492	1818.5
3316.521	1809.5
3319.549	1788.5
3322.574	1792.5
3325.597	1802.5
3328.617	1775.5
3331.635	1774.5
3334.65	1788.5
3337.663	1772.5
3340.674	1771.5
3343.682	1787.5
3346.688	1783.5
3349.691	1770.5
3352.692	1790.5
3355.691	1773.5
3358.687	1756.5
3361.681	1753.5
3364.673	1738.5
3367.662	1712.5
3370.649	1696.5
3373.633	1682.5
3376.615	1680.5
3379.595	1656.5
3382.572	1652.5
3385.547	1624.5
3388.52	1592.5
3391.49	1591.5
3394.458	1584.5
3397.424	1544.5
3400.387	1561.5
3403.348	1539.5
3406.307	1553.5
3409.263	1533.5
3412.217	1532.5
3415.168	1515.5
3418.118	1526.5
3421.065	1509.5
3424.009	1518.5
3426.951	1481.5
3429.891	1473.5
3432.829	1460.5
3435.764	1451.5
3438.697	1423.5
3441.628	1409.5
3444.557	1389.5
3447.483	1363.5
3450.407	1329.5
3453.328	1318.5
3456.247	1309.5
3459.164	1275.5
3462.079	1247.5
3464.991	1234.5
3467.902	1223.5
3470.809	1195.5
3473.715	1165.5
3476.618	1169.5
3479.519	1154.5
3482.418	1144.5
3485.315	1139.5
3488.209	1133.5
3491.101	1115.5
3493.99	1105.5
3496.878	1074.5
3499.763	1077.5
3502.646	1062.5
3505.527	1041.5
3508.405	1023.5
3511.281	1007.5
3514.155	970.5
3517.027	967.5
3519.897	941.5
3522.764	925.5
3525.629	892.5
3528.492	867.5
3531.352	842.5
3534.211	824.5
3537.067	807.5
3539.921	789.5
3542.773	765.5
3545.622	752.5
3548.469	740.5
3551.315	723.5
3554.157	716.5
3556.998	698.5
3559.837	688.5
3562.673	686.5
3565.507	667.5
3568.339	672.5
3571.169	650.5
3573.996	647.5
3576.822	620.5
3579.645	622.5
3582.466	603.5
3585.285	586.5
3588.101	580.5
3590.916	570.5
3593.728	558.5
3596.538	547.5
3599.346	538.5
3602.152	534.5
3604.956	513.5
3607.757	507.5
3610.556	491.5
3613.354	479.5
3616.149	456.5
3618.942	464.5
3621.732	444.5
3624.521	435.5
3627.307	430.5
3630.092	426.5
3632.874	417.5
3635.654	415.5
3638.432	407.5
3641.208	401.5
3643.982	402.5
3646.753	391.5
3649.523	385.5
3652.29	380.5
3655.055	381.5
3657.818	367.5
3660.579	361.5
3663.338	367.5
3666.095	357.5
3668.849	355.5
3671.602	362.5
3674.352	349.5
3677.101	350.5
3679.847	350.5
3682.591	355.5
3685.333	349.5
3688.073	353.5
3690.811	347.5
3693.547	353.5
3696.281	336.5
3699.013	358.5
3701.742	349.5
3704.47	352.5
3707.195	347.5
3709.919	351.5
3712.64	340.5
3715.359	345.5
3718.076	342.5
3720.792	333.5
3723.505	336.5
3726.216	337.5
3728.925	318.5
3731.632	327.5
3734.336	325.5
3737.039	307.5
3739.74	306.5
3742.439	307.5
3745.136	306.5
3747.83	304.5
3750.523	302.5
3753.213	302.5
3755.902	306.5
3758.589	304.5
3761.273	301.5
3763.956	299.5
3766.636	290.5
3769.315	293.5
3771.991	286.5
3774.665	275.5
3777.338	280.5
3780.008	271.5
3782.677	270.5
3785.343	261.5
3788.007	251.5
3790.67	249.5
3793.33	241.5
3795.989	240.5
3798.645	235.5
3801.299	228.5
3803.952	225.5
3806.602	226.5
3809.251	224.5
3811.897	217.5
3814.542	215.5
3817.184	208.5
3819.825	207.5
3822.463	205.5
3825.1	206.5
3827.735	190.5
3830.367	188.5
3832.998	186.5
3835.627	172.5
3838.253	177.5
3840.878	163.5
3843.501	167.5
3846.122	158.5
3848.741	154.5
3851.358	146.5
3853.973	141.5
3856.586	141.5
3859.197	133.5
3861.806	137.5
3864.414	131.5
3867.019	129.5
3869.622	123.5
3872.224	121.5
3874.823	119.5
3877.421	115.5
3880.016	106.5
3882.61	104.5
3885.202	98.5
3887.792	87.5
3890.38	83.5
3892.966	73.5
3895.55	73.5
3898.132	59.5
3900.713	52.5
3903.291	41.5
3905.868	38.5
3908.442	35.5
3911.015	33.5
3913.586	30.5
3916.155	25.5
3918.722	20.5
3921.287	20.5
3923.85	20.5
3926.411	21.5
3928.971	23.5
3931.528	18.5
3934.084	15.5
3936.638	11.5
3939.19	10.5
3941.74	6.5
3944.288	1.5
3946.834	1.5
3949.378	-4.5
3951.921	-4.5
3954.462	-10.5
3957	-5.5
3959.537	-3.5
3962.072	-11.5
3964.606	-8.5
3967.137	-12.5
3969.667	-13.5
3972.194	-18.5
3974.72	-9.5
3977.244	-13.5
3979.766	-17.5
3982.286	-10.5
3984.805	-11.5
3987.321	-13.5
3989.836	-13.5
3992.349	-12.5
3994.86	-20.5
3997.369	-14.5
3999.877	-19.5
4002.382	-16.5
4004.886	-21.5
4007.388	-21.5
4009.888	-19.5
4012.386	-22.5
4014.883	-23.5
4017.377	-25.5
4019.87	-26.5
4022.361	-29.5
4024.85	-27.5
4027.338	-26.5
4029.823	-26.5
4032.307	-29.5
4034.789	-31.5
4037.269	-31.5
4039.747	-27.5
4042.224	-30.5
4044.699	-29.5
4047.172	-35.5
4049.643	-29.5
4052.112	-31.5
4054.58	-31.5
4057.046	-35.5
4059.51	-34.5
4061.972	-39.5
4064.432	-37.5
4066.891	-36.5
4069.348	-45.5
4071.803	-41.5
4074.256	-46.5
4076.708	-44.5
4079.158	-42.5
4081.606	-46.5
4084.052	-48.5
4086.497	-51.5
4088.939	-48.5
4091.38	-53.5
4093.819	-44.5
4096.257	-64.5
4098.693	-67.5
4101.127	-64.5
4103.559	-65.5
4105.989	-29.5
4108.418	-25.5
4110.845	-26.5
4113.27	-17.5
4115.694	-26.5
4118.115	-15.5
4120.535	-50.5
4122.954	-51.5
4125.37	-51.5
4127.785	-44.5
4130.198	-52.5
4132.609	-57.5
4135.019	-67.5
4137.427	-65.5
4139.833	-63.5
4142.237	-66.5
