Data from SERS_DW_20uL_I=0.5_T=20s_RamanShift_6.txt Node
Date: Wed Jun 14 14:28:43 IDT 2017
User: aro
Spectrometer: QEPB0276
Trigger mode: 0
Integration Time (sec): 2.000000E1
Scans to average: 1
Electric dark correction enabled: true
Nonlinearity correction enabled: false
Boxcar width: 0
XAxis mode: Raman Shifts
Number of Pixels in Spectrum: 1044
>>>>>Begin Spectral Data<<<<<
160.701	-3.38
166.742	12.62
172.777	56.62
178.805	171.62
184.826	493.62
190.841	1052.62
196.849	1761.62
202.85	2311.62
208.845	2539.62
214.833	2564.62
220.815	2558.62
226.789	2612.62
232.758	2630.62
238.719	2703.62
244.674	2698.62
250.623	2679.62
256.565	2663.62
262.5	2650.62
268.429	2637.62
274.351	2637.62
280.267	2636.62
286.176	2625.62
292.079	2649.62
297.975	2673.62
303.865	2708.62
309.748	2716.62
315.625	2686.62
321.495	2617.62
327.359	2573.62
333.217	2546.62
339.068	2527.62
344.912	2483.62
350.751	2475.62
356.583	2420.62
362.408	2391.62
368.227	2411.62
374.04	2376.62
379.847	2385.62
385.647	2407.62
391.44	2348.62
397.228	2287.62
403.009	2300.62
408.784	2311.62
414.553	2381.62
420.315	2471.62
426.071	2427.62
431.821	2287.62
437.565	2154.62
443.302	2102.62
449.033	2011.62
454.758	1942.62
460.477	1884.62
466.189	1814.62
471.896	1755.62
477.596	1689.62
483.29	1607.62
488.978	1538.62
494.66	1413.62
500.335	1275.62
506.005	1148.62
511.668	1169.62
517.325	1411.62
522.977	1853.62
528.622	2231.62
534.261	2383.62
539.894	2379.62
545.521	2333.62
551.141	2281.62
556.756	2224.62
562.365	2186.62
567.968	2147.62
573.565	2086.62
579.155	2055.62
584.74	2013.62
590.319	1989.62
595.892	1935.62
601.459	1881.62
607.02	1839.62
612.575	1781.62
618.124	1770.62
623.667	1805.62
629.204	1819.62
634.735	1850.62
640.261	1827.62
645.781	1873.62
651.294	1906.62
656.802	1864.62
662.304	1828.62
667.8	1799.62
673.29	1773.62
678.775	1770.62
684.254	1757.62
689.726	1710.62
695.193	1704.62
700.655	1688.62
706.11	1667.62
711.56	1653.62
717.004	1625.62
722.442	1613.62
727.874	1614.62
733.301	1618.62
738.722	1574.62
744.137	1591.62
749.547	1595.62
754.951	1605.62
760.349	1586.62
765.741	1563.62
771.128	1567.62
776.509	1569.62
781.885	1557.62
787.254	1552.62
792.618	1558.62
797.977	1534.62
803.33	1516.62
808.677	1517.62
814.019	1498.62
819.355	1480.62
824.686	1473.62
830.011	1457.62
835.33	1466.62
840.644	1437.62
845.952	1433.62
851.255	1423.62
856.552	1415.62
861.844	1419.62
867.13	1415.62
872.41	1395.62
877.686	1394.62
882.955	1362.62
888.219	1351.62
893.478	1347.62
898.731	1327.62
903.979	1307.62
909.221	1301.62
914.458	1303.62
919.69	1308.62
924.916	1328.62
930.136	1357.62
935.351	1412.62
940.561	1454.62
945.766	1470.62
950.965	1467.62
956.158	1455.62
961.347	1426.62
966.529	1373.62
971.707	1347.62
976.879	1337.62
982.046	1306.62
987.208	1268.62
992.364	1268.62
997.515	1242.62
1002.66	1206.62
1007.801	1178.62
1012.936	1191.62
1018.066	1196.62
1023.19	1200.62
1028.309	1200.62
1033.423	1191.62
1038.532	1171.62
1043.636	1155.62
1048.734	1147.62
1053.827	1130.62
1058.915	1131.62
1063.998	1109.62
1069.075	1094.62
1074.147	1095.62
1079.214	1094.62
1084.276	1108.62
1089.333	1122.62
1094.385	1127.62
1099.431	1120.62
1104.472	1128.62
1109.509	1098.62
1114.54	1088.62
1119.565	1070.62
1124.586	1065.62
1129.602	1054.62
1134.613	1038.62
1139.618	1038.62
1144.619	1040.62
1149.614	1047.62
1154.604	1030.62
1159.589	1046.62
1164.57	1065.62
1169.545	1048.62
1174.515	1058.62
1179.48	1058.62
1184.44	1021.62
1189.395	1022.62
1194.345	1025.62
1199.29	1020.62
1204.23	1007.62
1209.165	1011.62
1214.095	1016.62
1219.021	1032.62
1223.941	1041.62
1228.856	1036.62
1233.766	1039.62
1238.672	1045.62
1243.572	1039.62
1248.467	1028.62
1253.358	1013.62
1258.244	991.62
1263.124	980.62
1268	971.62
1272.871	961.62
1277.737	953.62
1282.599	956.62
1287.455	951.62
1292.306	947.62
1297.153	965.62
1301.995	958.62
1306.832	980.62
1311.664	983.62
1316.491	993.62
1321.314	976.62
1326.132	974.62
1330.945	983.62
1335.753	993.62
1340.556	995.62
1345.354	978.62
1350.148	997.62
1354.937	968.62
1359.722	946.62
1364.501	909.62
1369.276	898.62
1374.046	866.62
1378.811	827.62
1383.572	812.62
1388.327	816.62
1393.079	811.62
1397.825	813.62
1402.567	815.62
1407.304	819.62
1412.036	824.62
1416.764	829.62
1421.487	826.62
1426.205	844.62
1430.919	848.62
1435.628	851.62
1440.333	870.62
1445.032	894.62
1449.727	884.62
1454.418	880.62
1459.104	902.62
1463.785	888.62
1468.462	884.62
1473.134	890.62
1477.802	886.62
1482.465	890.62
1487.123	873.62
1491.777	891.62
1496.426	885.62
1501.071	881.62
1505.711	876.62
1510.347	864.62
1514.978	864.62
1519.604	856.62
1524.226	829.62
1528.844	813.62
1533.457	794.62
1538.065	788.62
1542.669	775.62
1547.269	767.62
1551.864	765.62
1556.454	778.62
1561.041	780.62
1565.622	785.62
1570.199	782.62
1574.772	785.62
1579.34	801.62
1583.904	791.62
1588.464	808.62
1593.019	806.62
1597.569	799.62
1602.115	799.62
1606.657	797.62
1611.195	799.62
1615.728	798.62
1620.256	788.62
1624.78	802.62
1629.3	797.62
1633.816	813.62
1638.327	827.62
1642.834	824.62
1647.336	833.62
1651.834	858.62
1656.328	863.62
1660.817	876.62
1665.302	880.62
1669.783	878.62
1674.259	869.62
1678.732	878.62
1683.199	886.62
1687.663	898.62
1692.122	882.62
1696.577	852.62
1701.028	819.62
1705.474	780.62
1709.917	740.62
1714.355	737.62
1718.788	726.62
1723.218	743.62
1727.643	755.62
1732.064	754.62
1736.481	759.62
1740.893	752.62
1745.301	741.62
1749.705	737.62
1754.105	727.62
1758.501	716.62
1762.893	722.62
1767.28	739.62
1771.663	744.62
1776.042	750.62
1780.417	777.62
1784.787	788.62
1789.154	793.62
1793.516	786.62
1797.874	781.62
1802.228	734.62
1806.578	723.62
1810.924	692.62
1815.266	686.62
1819.603	700.62
1823.937	703.62
1828.266	710.62
1832.591	716.62
1836.913	733.62
1841.23	744.62
1845.543	751.62
1849.852	764.62
1854.156	784.62
1858.457	795.62
1862.754	801.62
1867.047	830.62
1871.335	823.62
1875.62	834.62
1879.9	846.62
1884.177	843.62
1888.449	867.62
1892.718	877.62
1896.982	876.62
1901.243	898.62
1905.499	894.62
1909.752	910.62
1914	918.62
1918.245	917.62
1922.485	930.62
1926.722	939.62
1930.954	933.62
1935.183	943.62
1939.408	942.62
1943.628	929.62
1947.845	925.62
1952.058	901.62
1956.267	886.62
1960.472	874.62
1964.673	863.62
1968.87	840.62
1973.063	846.62
1977.252	836.62
1981.438	844.62
1985.619	850.62
1989.797	852.62
1993.971	855.62
1998.14	869.62
2002.306	889.62
2006.469	896.62
2010.627	910.62
2014.781	912.62
2018.932	931.62
2023.078	931.62
2027.221	929.62
2031.36	941.62
2035.495	951.62
2039.627	939.62
2043.754	964.62
2047.878	969.62
2051.998	968.62
2056.114	991.62
2060.226	990.62
2064.334	1013.62
2068.439	1030.62
2072.54	1035.62
2076.637	1068.62
2080.73	1077.62
2084.82	1088.62
2088.906	1090.62
2092.988	1095.62
2097.066	1074.62
2101.14	1078.62
2105.211	1071.62
2109.278	1073.62
2113.342	1046.62
2117.401	1045.62
2121.457	1053.62
2125.509	1041.62
2129.558	1052.62
2133.602	1052.62
2137.643	1060.62
2141.681	1057.62
2145.714	1061.62
2149.744	1067.62
2153.77	1081.62
2157.793	1085.62
2161.812	1077.62
2165.827	1088.62
2169.838	1090.62
2173.846	1097.62
2177.851	1094.62
2181.851	1090.62
2185.848	1115.62
2189.841	1101.62
2193.831	1116.62
2197.817	1122.62
2201.799	1137.62
2205.778	1145.62
2209.753	1159.62
2213.725	1165.62
2217.693	1180.62
2221.657	1190.62
2225.618	1197.62
2229.575	1199.62
2233.529	1210.62
2237.479	1225.62
2241.425	1235.62
2245.368	1223.62
2249.307	1216.62
2253.243	1214.62
2257.175	1202.62
2261.104	1214.62
2265.029	1210.62
2268.95	1211.62
2272.868	1225.62
2276.783	1225.62
2280.694	1223.62
2284.601	1222.62
2288.505	1224.62
2292.405	1222.62
2296.302	1220.62
2300.195	1243.62
2304.085	1232.62
2307.971	1227.62
2311.854	1233.62
2315.734	1222.62
2319.609	1224.62
2323.482	1231.62
2327.351	1224.62
2331.216	1259.62
2335.078	1261.62
2338.937	1282.62
2342.792	1280.62
2346.643	1290.62
2350.492	1298.62
2354.336	1306.62
2358.178	1326.62
2362.015	1373.62
2365.85	1382.62
2369.681	1389.62
2373.508	1417.62
2377.333	1441.62
2381.153	1472.62
2384.971	1471.62
2388.785	1496.62
2392.595	1514.62
2396.402	1506.62
2400.206	1523.62
2404.007	1547.62
2407.804	1552.62
2411.597	1570.62
2415.388	1592.62
2419.174	1625.62
2422.958	1633.62
2426.738	1658.62
2430.515	1667.62
2434.289	1672.62
2438.059	1711.62
2441.825	1704.62
2445.589	1718.62
2449.349	1704.62
2453.106	1732.62
2456.859	1740.62
2460.61	1760.62
2464.356	1770.62
2468.1	1778.62
2471.84	1802.62
2475.577	1814.62
2479.311	1841.62
2483.041	1852.62
2486.768	1881.62
2490.492	1927.62
2494.213	1921.62
2497.93	1950.62
2501.644	1975.62
2505.355	2000.62
2509.062	2040.62
2512.766	2040.62
2516.467	2060.62
2520.165	2102.62
2523.859	2121.62
2527.551	2125.62
2531.239	2131.62
2534.923	2138.62
2538.605	2174.62
2542.283	2186.62
2545.958	2199.62
2549.63	2221.62
2553.299	2241.62
2556.964	2240.62
2560.626	2245.62
2564.285	2278.62
2567.941	2265.62
2571.594	2251.62
2575.243	2280.62
2578.89	2296.62
2582.533	2282.62
2586.173	2284.62
2589.809	2279.62
2593.443	2271.62
2597.073	2275.62
2600.701	2284.62
2604.325	2271.62
2607.946	2272.62
2611.564	2311.62
2615.178	2299.62
2618.79	2303.62
2622.398	2344.62
2626.004	2331.62
2629.606	2354.62
2633.205	2352.62
2636.801	2352.62
2640.394	2356.62
2643.983	2360.62
2647.57	2360.62
2651.153	2366.62
2654.734	2376.62
2658.311	2364.62
2661.885	2404.62
2665.456	2396.62
2669.025	2431.62
2672.589	2440.62
2676.151	2453.62
2679.71	2440.62
2683.266	2457.62
2686.819	2467.62
2690.368	2484.62
2693.915	2492.62
2697.458	2475.62
2700.999	2503.62
2704.536	2507.62
2708.071	2534.62
2711.602	2521.62
2715.13	2533.62
2718.656	2562.62
2722.178	2605.62
2725.697	2612.62
2729.214	2689.62
2732.727	2707.62
2736.237	2756.62
2739.744	2770.62
2743.249	2803.62
2746.75	2804.62
2750.248	2785.62
2753.743	2776.62
2757.236	2731.62
2760.725	2684.62
2764.211	2625.62
2767.695	2587.62
2771.175	2572.62
2774.652	2562.62
2778.127	2543.62
2781.598	2565.62
2785.067	2616.62
2788.532	2631.62
2791.995	2663.62
2795.455	2715.62
2798.911	2763.62
2802.365	2795.62
2805.816	2839.62
2809.264	2836.62
2812.709	2853.62
2816.151	2881.62
2819.59	2888.62
2823.026	2941.62
2826.46	2922.62
2829.89	2919.62
2833.318	2938.62
2836.742	2934.62
2840.164	2933.62
2843.583	2944.62
2846.999	2926.62
2850.412	2948.62
2853.822	2959.62
2857.229	2964.62
2860.634	2964.62
2864.035	2966.62
2867.434	2965.62
2870.83	2970.62
2874.223	2950.62
2877.613	2941.62
2881	2911.62
2884.385	2879.62
2887.766	2876.62
2891.145	2859.62
2894.521	2846.62
2897.894	2816.62
2901.264	2790.62
2904.631	2806.62
2907.996	2802.62
2911.358	2804.62
2914.717	2774.62
2918.073	2794.62
2921.426	2782.62
2924.777	2819.62
2928.124	2806.62
2931.469	2795.62
2934.811	2829.62
2938.15	2839.62
2941.487	2862.62
2944.821	2855.62
2948.152	2873.62
2951.48	2858.62
2954.805	2848.62
2958.128	2850.62
2961.447	2857.62
2964.765	2874.62
2968.079	2871.62
2971.39	2893.62
2974.699	2889.62
2978.005	2903.62
2981.308	2900.62
2984.609	2904.62
2987.907	2913.62
2991.202	2874.62
2994.494	2879.62
2997.784	2834.62
3001.07	2816.62
3004.355	2789.62
3007.636	2740.62
3010.915	2708.62
3014.191	2707.62
3017.464	2653.62
3020.734	2654.62
3024.002	2599.62
3027.267	2573.62
3030.53	2575.62
3033.789	2566.62
3037.046	2584.62
3040.301	2603.62
3043.552	2605.62
3046.801	2619.62
3050.048	2661.62
3053.291	2654.62
3056.532	2663.62
3059.771	2710.62
3063.006	2717.62
3066.239	2728.62
3069.469	2762.62
3072.697	2772.62
3075.922	2788.62
3079.144	2795.62
3082.364	2796.62
3085.581	2801.62
3088.795	2788.62
3092.007	2776.62
3095.216	2785.62
3098.423	2792.62
3101.627	2774.62
3104.828	2781.62
3108.026	2770.62
3111.222	2785.62
3114.416	2751.62
3117.607	2754.62
3120.795	2757.62
3123.98	2767.62
3127.163	2778.62
3130.344	2787.62
3133.521	2765.62
3136.696	2753.62
3139.869	2758.62
3143.039	2745.62
3146.206	2745.62
3149.371	2712.62
3152.533	2668.62
3155.693	2671.62
3158.85	2621.62
3162.005	2582.62
3165.157	2563.62
3168.306	2524.62
3171.453	2517.62
3174.597	2484.62
3177.739	2476.62
3180.878	2447.62
3184.014	2437.62
3187.149	2387.62
3190.28	2380.62
3193.409	2375.62
3196.536	2371.62
3199.659	2355.62
3202.781	2361.62
3205.9	2352.62
3209.016	2345.62
3212.13	2325.62
3215.241	2312.62
3218.35	2320.62
3221.456	2290.62
3224.56	2281.62
3227.661	2245.62
3230.76	2239.62
3233.856	2195.62
3236.95	2201.62
3240.041	2180.62
3243.13	2163.62
3246.216	2155.62
3249.3	2130.62
3252.382	2120.62
3255.46	2123.62
3258.537	2090.62
3261.611	2080.62
3264.682	2056.62
3267.751	2057.62
3270.818	2037.62
3273.882	2011.62
3276.943	2010.62
3280.002	1993.62
3283.059	1956.62
3286.113	1943.62
3289.165	1921.62
3292.214	1893.62
3295.261	1871.62
3298.306	1848.62
3301.348	1824.62
3304.387	1825.62
3307.425	1811.62
3310.459	1783.62
3313.492	1772.62
3316.521	1767.62
3319.549	1766.62
3322.574	1775.62
3325.597	1760.62
3328.617	1746.62
3331.635	1756.62
3334.65	1744.62
3337.663	1758.62
3340.674	1745.62
3343.682	1737.62
3346.688	1759.62
3349.691	1760.62
3352.692	1760.62
3355.691	1751.62
3358.687	1744.62
3361.681	1713.62
3364.673	1698.62
3367.662	1689.62
3370.649	1653.62
3373.633	1664.62
3376.615	1636.62
3379.595	1595.62
3382.572	1618.62
3385.547	1585.62
3388.52	1578.62
3391.49	1573.62
3394.458	1570.62
3397.424	1549.62
3400.387	1529.62
3403.348	1534.62
3406.307	1522.62
3409.263	1515.62
3412.217	1499.62
3415.168	1497.62
3418.118	1500.62
3421.065	1499.62
3424.009	1470.62
3426.951	1474.62
3429.891	1461.62
3432.829	1449.62
3435.764	1420.62
3438.697	1414.62
3441.628	1392.62
3444.557	1361.62
3447.483	1351.62
3450.407	1320.62
3453.328	1312.62
3456.247	1273.62
3459.164	1270.62
3462.079	1248.62
3464.991	1216.62
3467.902	1202.62
3470.809	1190.62
3473.715	1174.62
3476.618	1151.62
3479.519	1135.62
3482.418	1136.62
3485.315	1121.62
3488.209	1105.62
3491.101	1088.62
3493.99	1088.62
3496.878	1083.62
3499.763	1071.62
3502.646	1053.62
3505.527	1023.62
3508.405	1019.62
3511.281	1014.62
3514.155	968.62
3517.027	956.62
3519.897	927.62
3522.764	924.62
3525.629	893.62
3528.492	875.62
3531.352	852.62
3534.211	824.62
3537.067	807.62
3539.921	791.62
3542.773	774.62
3545.622	772.62
3548.469	742.62
3551.315	729.62
3554.157	712.62
3556.998	710.62
3559.837	695.62
3562.673	690.62
3565.507	675.62
3568.339	672.62
3571.169	657.62
3573.996	654.62
3576.822	634.62
3579.645	636.62
3582.466	612.62
3585.285	611.62
3588.101	586.62
3590.916	578.62
3593.728	569.62
3596.538	565.62
3599.346	540.62
3602.152	532.62
3604.956	506.62
3607.757	508.62
3610.556	500.62
3613.354	478.62
3616.149	471.62
3618.942	463.62
3621.732	454.62
3624.521	445.62
3627.307	433.62
3630.092	440.62
3632.874	432.62
3635.654	430.62
3638.432	423.62
3641.208	428.62
3643.982	410.62
3646.753	408.62
3649.523	405.62
3652.29	406.62
3655.055	400.62
3657.818	397.62
3660.579	377.62
3663.338	368.62
3666.095	380.62
3668.849	367.62
3671.602	377.62
3674.352	369.62
3677.101	371.62
3679.847	365.62
3682.591	360.62
3685.333	362.62
3688.073	366.62
3690.811	360.62
3693.547	359.62
3696.281	365.62
3699.013	368.62
3701.742	367.62
3704.47	370.62
3707.195	359.62
3709.919	371.62
3712.64	370.62
3715.359	363.62
3718.076	361.62
3720.792	356.62
3723.505	343.62
3726.216	340.62
3728.925	330.62
3731.632	342.62
3734.336	332.62
3737.039	334.62
3739.74	321.62
3742.439	314.62
3745.136	326.62
3747.83	318.62
3750.523	316.62
3753.213	324.62
3755.902	311.62
3758.589	308.62
3761.273	313.62
3763.956	312.62
3766.636	314.62
3769.315	309.62
3771.991	303.62
3774.665	290.62
3777.338	291.62
3780.008	276.62
3782.677	272.62
3785.343	271.62
3788.007	272.62
3790.67	259.62
3793.33	255.62
3795.989	251.62
3798.645	247.62
3801.299	240.62
3803.952	250.62
3806.602	236.62
3809.251	239.62
3811.897	230.62
3814.542	231.62
3817.184	220.62
3819.825	223.62
3822.463	213.62
3825.1	212.62
3827.735	210.62
3830.367	203.62
3832.998	194.62
3835.627	184.62
3838.253	176.62
3840.878	181.62
3843.501	176.62
3846.122	176.62
3848.741	163.62
3851.358	154.62
3853.973	150.62
3856.586	152.62
3859.197	148.62
3861.806	142.62
3864.414	144.62
3867.019	139.62
3869.622	137.62
3872.224	126.62
3874.823	139.62
3877.421	125.62
3880.016	124.62
3882.61	120.62
3885.202	118.62
3887.792	105.62
3890.38	97.62
3892.966	84.62
3895.55	78.62
3898.132	68.62
3900.713	67.62
3903.291	52.62
3905.868	55.62
3908.442	42.62
3911.015	47.62
3913.586	43.62
3916.155	33.62
3918.722	39.62
3921.287	27.62
3923.85	25.62
3926.411	29.62
3928.971	33.62
3931.528	19.62
3934.084	23.62
3936.638	19.62
3939.19	20.62
3941.74	13.62
3944.288	16.62
3946.834	12.62
3949.378	14.62
3951.921	4.62
3954.462	-0.38
3957	4.62
3959.537	2.62
3962.072	-0.38
3964.606	1.62
3967.137	1.62
3969.667	-4.38
3972.194	-9.38
3974.72	-2.38
3977.244	-4.38
3979.766	-1.38
3982.286	-1.38
3984.805	-4.38
3987.321	-6.38
3989.836	-9.38
3992.349	-6.38
3994.86	-8.38
3997.369	-7.38
3999.877	-8.38
4002.382	-10.38
4004.886	-7.38
4007.388	-13.38
4009.888	-10.38
4012.386	-11.38
4014.883	-15.38
4017.377	-21.38
4019.87	-19.38
4022.361	-15.38
4024.85	-13.38
4027.338	-18.38
4029.823	-20.38
4032.307	-22.38
4034.789	-15.38
4037.269	-20.38
4039.747	-20.38
4042.224	-24.38
4044.699	-19.38
4047.172	-27.38
4049.643	-22.38
4052.112	-29.38
4054.58	-22.38
4057.046	-30.38
4059.51	-35.38
4061.972	-33.38
4064.432	-26.38
4066.891	-35.38
4069.348	-34.38
4071.803	-29.38
4074.256	-35.38
4076.708	-37.38
4079.158	-32.38
4081.606	-33.38
4084.052	-38.38
4086.497	-40.38
4088.939	-35.38
4091.38	-41.38
4093.819	-33.38
4096.257	-59.38
4098.693	-59.38
4101.127	-60.38
4103.559	-63.38
4105.989	-24.38
4108.418	-20.38
4110.845	-25.38
4113.27	-9.38
4115.694	-19.38
4118.115	-18.38
4120.535	-39.38
4122.954	-37.38
4125.37	-42.38
4127.785	-44.38
4130.198	-45.38
4132.609	-46.38
4135.019	-60.38
4137.427	-55.38
4139.833	-61.38
4142.237	-60.38
