Data from SERS_Bac2_20uL_I=0.5_T=20s_RamanShift_1.txt Node
Date: Wed Jun 14 14:45:22 IDT 2017
User: aro
Spectrometer: QEPB0276
Trigger mode: 0
Integration Time (sec): 2.000000E1
Scans to average: 1
Electric dark correction enabled: true
Nonlinearity correction enabled: false
Boxcar width: 0
XAxis mode: Raman Shifts
Number of Pixels in Spectrum: 1044
>>>>>Begin Spectral Data<<<<<
160.701	-7.62
166.742	8.38
172.777	67.38
178.805	223.38
184.826	648.38
190.841	1406.38
196.849	2337.38
202.85	3056.38
208.845	3347.38
214.833	3351.38
220.815	3344.38
226.789	3407.38
232.758	3455.38
238.719	3481.38
244.674	3497.38
250.623	3463.38
256.565	3388.38
262.5	3353.38
268.429	3258.38
274.351	3216.38
280.267	3197.38
286.176	3151.38
292.079	3143.38
297.975	3146.38
303.865	3146.38
309.748	3146.38
315.625	3079.38
321.495	3023.38
327.359	2967.38
333.217	2905.38
339.068	2884.38
344.912	2875.38
350.751	2836.38
356.583	2825.38
362.408	2785.38
368.227	2775.38
374.04	2778.38
379.847	2781.38
385.647	2758.38
391.44	2751.38
397.228	2690.38
403.009	2658.38
408.784	2724.38
414.553	2776.38
420.315	2861.38
426.071	2824.38
431.821	2695.38
437.565	2578.38
443.302	2484.38
449.033	2400.38
454.758	2351.38
460.477	2289.38
466.189	2217.38
471.896	2148.38
477.596	2073.38
483.29	1998.38
488.978	1904.38
494.66	1798.38
500.335	1647.38
506.005	1560.38
511.668	1540.38
517.325	1809.38
522.977	2205.38
528.622	2605.38
534.261	2767.38
539.894	2759.38
545.521	2733.38
551.141	2643.38
556.756	2627.38
562.365	2570.38
567.968	2508.38
573.565	2474.38
579.155	2424.38
584.74	2383.38
590.319	2333.38
595.892	2304.38
601.459	2265.38
607.02	2178.38
612.575	2145.38
618.124	2130.38
623.667	2144.38
629.204	2168.38
634.735	2154.38
640.261	2179.38
645.781	2231.38
651.294	2223.38
656.802	2183.38
662.304	2150.38
667.8	2111.38
673.29	2091.38
678.775	2076.38
684.254	2082.38
689.726	2049.38
695.193	2027.38
700.655	2000.38
706.11	1978.38
711.56	1973.38
717.004	1934.38
722.442	1939.38
727.874	1929.38
733.301	1912.38
738.722	1909.38
744.137	1920.38
749.547	1922.38
754.951	1916.38
760.349	1892.38
765.741	1879.38
771.128	1873.38
776.509	1877.38
781.885	1864.38
787.254	1849.38
792.618	1880.38
797.977	1864.38
803.33	1842.38
808.677	1808.38
814.019	1786.38
819.355	1758.38
824.686	1725.38
830.011	1740.38
835.33	1718.38
840.644	1706.38
845.952	1685.38
851.255	1693.38
856.552	1716.38
861.844	1685.38
867.13	1677.38
872.41	1681.38
877.686	1669.38
882.955	1641.38
888.219	1618.38
893.478	1614.38
898.731	1584.38
903.979	1591.38
909.221	1574.38
914.458	1561.38
919.69	1586.38
924.916	1592.38
930.136	1605.38
935.351	1656.38
940.561	1699.38
945.766	1728.38
950.965	1719.38
956.158	1686.38
961.347	1655.38
966.529	1613.38
971.707	1584.38
976.879	1556.38
982.046	1541.38
987.208	1503.38
992.364	1462.38
997.515	1441.38
1002.66	1428.38
1007.801	1434.38
1012.936	1432.38
1018.066	1432.38
1023.19	1437.38
1028.309	1425.38
1033.423	1425.38
1038.532	1409.38
1043.636	1383.38
1048.734	1363.38
1053.827	1362.38
1058.915	1326.38
1063.998	1325.38
1069.075	1301.38
1074.147	1311.38
1079.214	1322.38
1084.276	1334.38
1089.333	1326.38
1094.385	1332.38
1099.431	1336.38
1104.472	1334.38
1109.509	1335.38
1114.54	1312.38
1119.565	1283.38
1124.586	1266.38
1129.602	1260.38
1134.613	1235.38
1139.618	1254.38
1144.619	1234.38
1149.614	1253.38
1154.604	1240.38
1159.589	1236.38
1164.57	1255.38
1169.545	1260.38
1174.515	1254.38
1179.48	1251.38
1184.44	1237.38
1189.395	1220.38
1194.345	1227.38
1199.29	1219.38
1204.23	1234.38
1209.165	1227.38
1214.095	1217.38
1219.021	1252.38
1223.941	1242.38
1228.856	1232.38
1233.766	1255.38
1238.672	1245.38
1243.572	1254.38
1248.467	1243.38
1253.358	1218.38
1258.244	1218.38
1263.124	1178.38
1268	1172.38
1272.871	1158.38
1277.737	1160.38
1282.599	1154.38
1287.455	1151.38
1292.306	1157.38
1297.153	1176.38
1301.995	1191.38
1306.832	1204.38
1311.664	1207.38
1316.491	1203.38
1321.314	1212.38
1326.132	1219.38
1330.945	1207.38
1335.753	1195.38
1340.556	1205.38
1345.354	1217.38
1350.148	1205.38
1354.937	1182.38
1359.722	1159.38
1364.501	1120.38
1369.276	1080.38
1374.046	1024.38
1378.811	1011.38
1383.572	997.38
1388.327	977.38
1393.079	968.38
1397.825	979.38
1402.567	982.38
1407.304	981.38
1412.036	985.38
1416.764	1001.38
1421.487	1015.38
1426.205	1008.38
1430.919	1009.38
1435.628	1032.38
1440.333	1049.38
1445.032	1051.38
1449.727	1060.38
1454.418	1064.38
1459.104	1058.38
1463.785	1063.38
1468.462	1065.38
1473.134	1047.38
1477.802	1044.38
1482.465	1039.38
1487.123	1048.38
1491.777	1046.38
1496.426	1055.38
1501.071	1035.38
1505.711	1050.38
1510.347	1044.38
1514.978	1035.38
1519.604	1024.38
1524.226	990.38
1528.844	970.38
1533.457	959.38
1538.065	928.38
1542.669	930.38
1547.269	921.38
1551.864	905.38
1556.454	924.38
1561.041	926.38
1565.622	924.38
1570.199	926.38
1574.772	936.38
1579.34	956.38
1583.904	954.38
1588.464	984.38
1593.019	967.38
1597.569	965.38
1602.115	969.38
1606.657	969.38
1611.195	963.38
1615.728	959.38
1620.256	956.38
1624.78	964.38
1629.3	982.38
1633.816	999.38
1638.327	1003.38
1642.834	1002.38
1647.336	1023.38
1651.834	1029.38
1656.328	1044.38
1660.817	1044.38
1665.302	1038.38
1669.783	1040.38
1674.259	1026.38
1678.732	1048.38
1683.199	1036.38
1687.663	1050.38
1692.122	1022.38
1696.577	982.38
1701.028	955.38
1705.474	901.38
1709.917	862.38
1714.355	851.38
1718.788	848.38
1723.218	851.38
1727.643	851.38
1732.064	858.38
1736.481	854.38
1740.893	832.38
1745.301	821.38
1749.705	815.38
1754.105	806.38
1758.501	800.38
1762.893	815.38
1767.28	808.38
1771.663	812.38
1776.042	831.38
1780.417	840.38
1784.787	869.38
1789.154	883.38
1793.516	858.38
1797.874	856.38
1802.228	833.38
1806.578	796.38
1810.924	779.38
1815.266	752.38
1819.603	762.38
1823.937	766.38
1828.266	769.38
1832.591	774.38
1836.913	792.38
1841.23	807.38
1845.543	827.38
1849.852	834.38
1854.156	835.38
1858.457	846.38
1862.754	857.38
1867.047	876.38
1871.335	896.38
1875.62	906.38
1879.9	907.38
1884.177	918.38
1888.449	919.38
1892.718	927.38
1896.982	931.38
1901.243	941.38
1905.499	954.38
1909.752	964.38
1914	976.38
1918.245	971.38
1922.485	988.38
1926.722	997.38
1930.954	988.38
1935.183	1011.38
1939.408	999.38
1943.628	987.38
1947.845	989.38
1952.058	965.38
1956.267	951.38
1960.472	944.38
1964.673	919.38
1968.87	895.38
1973.063	898.38
1977.252	888.38
1981.438	889.38
1985.619	892.38
1989.797	906.38
1993.971	911.38
1998.14	933.38
2002.306	927.38
2006.469	941.38
2010.627	952.38
2014.781	969.38
2018.932	974.38
2023.078	973.38
2027.221	973.38
2031.36	974.38
2035.495	982.38
2039.627	989.38
2043.754	994.38
2047.878	1005.38
2051.998	1013.38
2056.114	1016.38
2060.226	1034.38
2064.334	1055.38
2068.439	1074.38
2072.54	1094.38
2076.637	1098.38
2080.73	1123.38
2084.82	1126.38
2088.906	1116.38
2092.988	1119.38
2097.066	1135.38
2101.14	1110.38
2105.211	1112.38
2109.278	1091.38
2113.342	1082.38
2117.401	1102.38
2121.457	1101.38
2125.509	1065.38
2129.558	1085.38
2133.602	1075.38
2137.643	1084.38
2141.681	1091.38
2145.714	1110.38
2149.744	1102.38
2153.77	1100.38
2157.793	1091.38
2161.812	1101.38
2165.827	1098.38
2169.838	1110.38
2173.846	1101.38
2177.851	1097.38
2181.851	1107.38
2185.848	1100.38
2189.841	1107.38
2193.831	1111.38
2197.817	1117.38
2201.799	1122.38
2205.778	1133.38
2209.753	1153.38
2213.725	1156.38
2217.693	1183.38
2221.657	1194.38
2225.618	1206.38
2229.575	1207.38
2233.529	1204.38
2237.479	1198.38
2241.425	1212.38
2245.368	1212.38
2249.307	1214.38
2253.243	1202.38
2257.175	1207.38
2261.104	1197.38
2265.029	1210.38
2268.95	1190.38
2272.868	1193.38
2276.783	1212.38
2280.694	1204.38
2284.601	1207.38
2288.505	1220.38
2292.405	1202.38
2296.302	1214.38
2300.195	1212.38
2304.085	1206.38
2307.971	1191.38
2311.854	1202.38
2315.734	1190.38
2319.609	1193.38
2323.482	1202.38
2327.351	1196.38
2331.216	1215.38
2335.078	1223.38
2338.937	1223.38
2342.792	1225.38
2346.643	1246.38
2350.492	1270.38
2354.336	1288.38
2358.178	1314.38
2362.015	1321.38
2365.85	1347.38
2369.681	1340.38
2373.508	1395.38
2377.333	1412.38
2381.153	1415.38
2384.971	1431.38
2388.785	1445.38
2392.595	1442.38
2396.402	1465.38
2400.206	1481.38
2404.007	1485.38
2407.804	1516.38
2411.597	1521.38
2415.388	1540.38
2419.174	1548.38
2422.958	1571.38
2426.738	1591.38
2430.515	1603.38
2434.289	1605.38
2438.059	1625.38
2441.825	1634.38
2445.589	1660.38
2449.349	1683.38
2453.106	1651.38
2456.859	1692.38
2460.61	1699.38
2464.356	1706.38
2468.1	1714.38
2471.84	1736.38
2475.577	1740.38
2479.311	1765.38
2483.041	1801.38
2486.768	1815.38
2490.492	1837.38
2494.213	1858.38
2497.93	1876.38
2501.644	1905.38
2505.355	1929.38
2509.062	1934.38
2512.766	1977.38
2516.467	1989.38
2520.165	2036.38
2523.859	2003.38
2527.551	2035.38
2531.239	2051.38
2534.923	2060.38
2538.605	2088.38
2542.283	2091.38
2545.958	2093.38
2549.63	2132.38
2553.299	2138.38
2556.964	2159.38
2560.626	2163.38
2564.285	2174.38
2567.941	2184.38
2571.594	2190.38
2575.243	2187.38
2578.89	2206.38
2582.533	2192.38
2586.173	2199.38
2589.809	2186.38
2593.443	2198.38
2597.073	2202.38
2600.701	2193.38
2604.325	2197.38
2607.946	2221.38
2611.564	2207.38
2615.178	2235.38
2618.79	2223.38
2622.398	2236.38
2626.004	2228.38
2629.606	2245.38
2633.205	2242.38
2636.801	2260.38
2640.394	2275.38
2643.983	2258.38
2647.57	2256.38
2651.153	2267.38
2654.734	2259.38
2658.311	2271.38
2661.885	2273.38
2665.456	2284.38
2669.025	2306.38
2672.589	2320.38
2676.151	2340.38
2679.71	2354.38
2683.266	2348.38
2686.819	2355.38
2690.368	2353.38
2693.915	2360.38
2697.458	2368.38
2700.999	2373.38
2704.536	2387.38
2708.071	2379.38
2711.602	2389.38
2715.13	2415.38
2718.656	2446.38
2722.178	2455.38
2725.697	2509.38
2729.214	2549.38
2732.727	2573.38
2736.237	2607.38
2739.744	2632.38
2743.249	2672.38
2746.75	2701.38
2750.248	2686.38
2753.743	2674.38
2757.236	2605.38
2760.725	2564.38
2764.211	2517.38
2767.695	2485.38
2771.175	2460.38
2774.652	2442.38
2778.127	2456.38
2781.598	2457.38
2785.067	2493.38
2788.532	2524.38
2791.995	2573.38
2795.455	2584.38
2798.911	2636.38
2802.365	2657.38
2805.816	2705.38
2809.264	2708.38
2812.709	2739.38
2816.151	2739.38
2819.59	2772.38
2823.026	2768.38
2826.46	2790.38
2829.89	2786.38
2833.318	2796.38
2836.742	2829.38
2840.164	2794.38
2843.583	2793.38
2846.999	2814.38
2850.412	2800.38
2853.822	2834.38
2857.229	2799.38
2860.634	2837.38
2864.035	2825.38
2867.434	2825.38
2870.83	2813.38
2874.223	2848.38
2877.613	2811.38
2881	2784.38
2884.385	2780.38
2887.766	2764.38
2891.145	2767.38
2894.521	2740.38
2897.894	2698.38
2901.264	2701.38
2904.631	2702.38
2907.996	2684.38
2911.358	2719.38
2914.717	2677.38
2918.073	2702.38
2921.426	2713.38
2924.777	2693.38
2928.124	2701.38
2931.469	2721.38
2934.811	2737.38
2938.15	2725.38
2941.487	2761.38
2944.821	2768.38
2948.152	2752.38
2951.48	2767.38
2954.805	2770.38
2958.128	2764.38
2961.447	2767.38
2964.765	2776.38
2968.079	2767.38
2971.39	2798.38
2974.699	2805.38
2978.005	2823.38
2981.308	2825.38
2984.609	2827.38
2987.907	2834.38
2991.202	2837.38
2994.494	2814.38
2997.784	2770.38
3001.07	2784.38
3004.355	2744.38
3007.636	2708.38
3010.915	2698.38
3014.191	2640.38
3017.464	2646.38
3020.734	2607.38
3024.002	2598.38
3027.267	2574.38
3030.53	2554.38
3033.789	2559.38
3037.046	2573.38
3040.301	2567.38
3043.552	2610.38
3046.801	2604.38
3050.048	2624.38
3053.291	2645.38
3056.532	2661.38
3059.771	2701.38
3063.006	2704.38
3066.239	2711.38
3069.469	2765.38
3072.697	2751.38
3075.922	2786.38
3079.144	2777.38
3082.364	2791.38
3085.581	2780.38
3088.795	2790.38
3092.007	2792.38
3095.216	2789.38
3098.423	2800.38
3101.627	2767.38
3104.828	2800.38
3108.026	2809.38
3111.222	2788.38
3114.416	2797.38
3117.607	2804.38
3120.795	2799.38
3123.98	2828.38
3127.163	2821.38
3130.344	2828.38
3133.521	2831.38
3136.696	2846.38
3139.869	2841.38
3143.039	2810.38
3146.206	2807.38
3149.371	2786.38
3152.533	2773.38
3155.693	2740.38
3158.85	2699.38
3162.005	2681.38
3165.157	2655.38
3168.306	2622.38
3171.453	2627.38
3174.597	2575.38
3177.739	2566.38
3180.878	2544.38
3184.014	2523.38
3187.149	2523.38
3190.28	2501.38
3193.409	2474.38
3196.536	2490.38
3199.659	2476.38
3202.781	2468.38
3205.9	2463.38
3209.016	2447.38
3212.13	2456.38
3215.241	2441.38
3218.35	2406.38
3221.456	2398.38
3224.56	2384.38
3227.661	2367.38
3230.76	2310.38
3233.856	2319.38
3236.95	2290.38
3240.041	2291.38
3243.13	2258.38
3246.216	2236.38
3249.3	2246.38
3252.382	2245.38
3255.46	2216.38
3258.537	2230.38
3261.611	2178.38
3264.682	2180.38
3267.751	2162.38
3270.818	2142.38
3273.882	2136.38
3276.943	2091.38
3280.002	2089.38
3283.059	2075.38
3286.113	2042.38
3289.165	2013.38
3292.214	1968.38
3295.261	1972.38
3298.306	1938.38
3301.348	1940.38
3304.387	1908.38
3307.425	1896.38
3310.459	1860.38
3313.492	1883.38
3316.521	1833.38
3319.549	1839.38
3322.574	1803.38
3325.597	1821.38
3328.617	1817.38
3331.635	1821.38
3334.65	1807.38
3337.663	1811.38
3340.674	1823.38
3343.682	1819.38
3346.688	1825.38
3349.691	1822.38
3352.692	1821.38
3355.691	1811.38
3358.687	1794.38
3361.681	1777.38
3364.673	1775.38
3367.662	1732.38
3370.649	1734.38
3373.633	1721.38
3376.615	1697.38
3379.595	1676.38
3382.572	1658.38
3385.547	1649.38
3388.52	1635.38
3391.49	1625.38
3394.458	1617.38
3397.424	1600.38
3400.387	1592.38
3403.348	1580.38
3406.307	1567.38
3409.263	1574.38
3412.217	1546.38
3415.168	1546.38
3418.118	1547.38
3421.065	1532.38
3424.009	1517.38
3426.951	1520.38
3429.891	1489.38
3432.829	1479.38
3435.764	1471.38
3438.697	1446.38
3441.628	1432.38
3444.557	1416.38
3447.483	1390.38
3450.407	1373.38
3453.328	1340.38
3456.247	1315.38
3459.164	1290.38
3462.079	1278.38
3464.991	1263.38
3467.902	1226.38
3470.809	1235.38
3473.715	1195.38
3476.618	1185.38
3479.519	1178.38
3482.418	1165.38
3485.315	1148.38
3488.209	1131.38
3491.101	1113.38
3493.99	1112.38
3496.878	1102.38
3499.763	1078.38
3502.646	1072.38
3505.527	1039.38
3508.405	1026.38
3511.281	1018.38
3514.155	989.38
3517.027	964.38
3519.897	935.38
3522.764	924.38
3525.629	899.38
3528.492	870.38
3531.352	867.38
3534.211	830.38
3537.067	815.38
3539.921	804.38
3542.773	779.38
3545.622	757.38
3548.469	754.38
3551.315	728.38
3554.157	715.38
3556.998	699.38
3559.837	680.38
3562.673	685.38
3565.507	670.38
3568.339	670.38
3571.169	651.38
3573.996	633.38
3576.822	634.38
3579.645	631.38
3582.466	609.38
3585.285	593.38
3588.101	589.38
3590.916	577.38
3593.728	558.38
3596.538	542.38
3599.346	522.38
3602.152	522.38
3604.956	509.38
3607.757	498.38
3610.556	471.38
3613.354	459.38
3616.149	460.38
3618.942	450.38
3621.732	439.38
3624.521	439.38
3627.307	421.38
3630.092	425.38
3632.874	403.38
3635.654	404.38
3638.432	409.38
3641.208	392.38
3643.982	383.38
3646.753	378.38
3649.523	381.38
3652.29	377.38
3655.055	374.38
3657.818	368.38
3660.579	352.38
3663.338	357.38
3666.095	348.38
3668.849	349.38
3671.602	345.38
3674.352	342.38
3677.101	340.38
3679.847	339.38
3682.591	340.38
3685.333	336.38
3688.073	340.38
3690.811	330.38
3693.547	336.38
3696.281	335.38
3699.013	339.38
3701.742	336.38
3704.47	347.38
3707.195	337.38
3709.919	340.38
3712.64	337.38
3715.359	329.38
3718.076	333.38
3720.792	322.38
3723.505	321.38
3726.216	318.38
3728.925	314.38
3731.632	315.38
3734.336	298.38
3737.039	300.38
3739.74	297.38
3742.439	298.38
3745.136	289.38
3747.83	278.38
3750.523	287.38
3753.213	291.38
3755.902	289.38
3758.589	287.38
3761.273	285.38
3763.956	280.38
3766.636	282.38
3769.315	282.38
3771.991	278.38
3774.665	269.38
3777.338	259.38
3780.008	254.38
3782.677	251.38
3785.343	247.38
3788.007	238.38
3790.67	238.38
3793.33	233.38
3795.989	234.38
3798.645	219.38
3801.299	216.38
3803.952	213.38
3806.602	209.38
3809.251	207.38
3811.897	198.38
3814.542	200.38
3817.184	201.38
3819.825	203.38
3822.463	197.38
3825.1	186.38
3827.735	171.38
3830.367	184.38
3832.998	176.38
3835.627	168.38
3838.253	163.38
3840.878	155.38
3843.501	148.38
3846.122	149.38
3848.741	150.38
3851.358	135.38
3853.973	138.38
3856.586	131.38
3859.197	118.38
3861.806	118.38
3864.414	113.38
3867.019	111.38
3869.622	109.38
3872.224	105.38
3874.823	103.38
3877.421	111.38
3880.016	99.38
3882.61	95.38
3885.202	90.38
3887.792	88.38
3890.38	80.38
3892.966	62.38
3895.55	61.38
3898.132	53.38
3900.713	47.38
3903.291	39.38
3905.868	32.38
3908.442	26.38
3911.015	25.38
3913.586	26.38
3916.155	16.38
3918.722	11.38
3921.287	11.38
3923.85	7.38
3926.411	8.38
3928.971	12.38
3931.528	3.38
3934.084	-1.62
3936.638	6.38
3939.19	4.38
3941.74	-8.62
3944.288	-9.62
3946.834	-11.62
3949.378	-8.62
3951.921	-8.62
3954.462	-16.62
3957	-11.62
3959.537	-13.62
3962.072	-18.62
3964.606	-16.62
3967.137	-12.62
3969.667	-13.62
3972.194	-26.62
3974.72	-16.62
3977.244	-20.62
3979.766	-20.62
3982.286	-14.62
3984.805	-20.62
3987.321	-21.62
3989.836	-26.62
3992.349	-20.62
3994.86	-23.62
3997.369	-25.62
3999.877	-24.62
4002.382	-31.62
4004.886	-31.62
4007.388	-33.62
4009.888	-29.62
4012.386	-31.62
4014.883	-31.62
4017.377	-28.62
4019.87	-34.62
4022.361	-34.62
4024.85	-35.62
4027.338	-37.62
4029.823	-36.62
4032.307	-40.62
4034.789	-38.62
4037.269	-36.62
4039.747	-40.62
4042.224	-38.62
4044.699	-31.62
4047.172	-43.62
4049.643	-37.62
4052.112	-43.62
4054.58	-37.62
4057.046	-44.62
4059.51	-38.62
4061.972	-44.62
4064.432	-42.62
4066.891	-47.62
4069.348	-51.62
4071.803	-46.62
4074.256	-54.62
4076.708	-55.62
4079.158	-49.62
4081.606	-55.62
4084.052	-52.62
4086.497	-58.62
4088.939	-58.62
4091.38	-56.62
4093.819	-51.62
4096.257	-73.62
4098.693	-73.62
4101.127	-72.62
4103.559	-75.62
4105.989	-31.62
4108.418	-29.62
4110.845	-28.62
4113.27	-21.62
4115.694	-27.62
4118.115	-15.62
4120.535	-56.62
4122.954	-52.62
4125.37	-56.62
4127.785	-53.62
4130.198	-56.62
4132.609	-61.62
4135.019	-71.62
4137.427	-70.62
4139.833	-72.62
4142.237	-76.62
