Data from SERS_DW_20uL_I=0.5_T=20s_RamanShift_3.txt Node
Date: Wed Jun 14 14:19:21 IDT 2017
User: aro
Spectrometer: QEPB0276
Trigger mode: 0
Integration Time (sec): 2.000000E1
Scans to average: 1
Electric dark correction enabled: true
Nonlinearity correction enabled: false
Boxcar width: 0
XAxis mode: Raman Shifts
Number of Pixels in Spectrum: 1044
>>>>>Begin Spectral Data<<<<<
160.701	-4.25
166.742	12.75
172.777	51.75
178.805	160.75
184.826	468.75
190.841	1002.75
196.849	1689.75
202.85	2227.75
208.845	2453.75
214.833	2503.75
220.815	2514.75
226.789	2549.75
232.758	2596.75
238.719	2635.75
244.674	2673.75
250.623	2655.75
256.565	2652.75
262.5	2636.75
268.429	2621.75
274.351	2603.75
280.267	2598.75
286.176	2599.75
292.079	2606.75
297.975	2653.75
303.865	2677.75
309.748	2685.75
315.625	2631.75
321.495	2575.75
327.359	2532.75
333.217	2525.75
339.068	2490.75
344.912	2438.75
350.751	2440.75
356.583	2398.75
362.408	2380.75
368.227	2367.75
374.04	2373.75
379.847	2382.75
385.647	2374.75
391.44	2332.75
397.228	2282.75
403.009	2271.75
408.784	2306.75
414.553	2363.75
420.315	2430.75
426.071	2416.75
431.821	2274.75
437.565	2137.75
443.302	2062.75
449.033	2008.75
454.758	1943.75
460.477	1875.75
466.189	1789.75
471.896	1735.75
477.596	1651.75
483.29	1600.75
488.978	1503.75
494.66	1389.75
500.335	1249.75
506.005	1128.75
511.668	1129.75
517.325	1369.75
522.977	1795.75
528.622	2180.75
534.261	2337.75
539.894	2325.75
545.521	2269.75
551.141	2233.75
556.756	2197.75
562.365	2117.75
567.968	2082.75
573.565	2065.75
579.155	1991.75
584.74	1959.75
590.319	1929.75
595.892	1900.75
601.459	1818.75
607.02	1785.75
612.575	1713.75
618.124	1708.75
623.667	1715.75
629.204	1757.75
634.735	1772.75
640.261	1781.75
645.781	1799.75
651.294	1813.75
656.802	1791.75
662.304	1748.75
667.8	1716.75
673.29	1689.75
678.775	1694.75
684.254	1655.75
689.726	1640.75
695.193	1625.75
700.655	1599.75
706.11	1571.75
711.56	1568.75
717.004	1554.75
722.442	1541.75
727.874	1520.75
733.301	1510.75
738.722	1515.75
744.137	1494.75
749.547	1511.75
754.951	1515.75
760.349	1498.75
765.741	1494.75
771.128	1487.75
776.509	1471.75
781.885	1469.75
787.254	1449.75
792.618	1466.75
797.977	1460.75
803.33	1458.75
808.677	1419.75
814.019	1409.75
819.355	1397.75
824.686	1369.75
830.011	1375.75
835.33	1361.75
840.644	1344.75
845.952	1349.75
851.255	1333.75
856.552	1339.75
861.844	1330.75
867.13	1318.75
872.41	1314.75
877.686	1295.75
882.955	1300.75
888.219	1281.75
893.478	1277.75
898.731	1261.75
903.979	1250.75
909.221	1250.75
914.458	1243.75
919.69	1258.75
924.916	1283.75
930.136	1302.75
935.351	1351.75
940.561	1383.75
945.766	1412.75
950.965	1422.75
956.158	1379.75
961.347	1352.75
966.529	1325.75
971.707	1298.75
976.879	1268.75
982.046	1242.75
987.208	1228.75
992.364	1200.75
997.515	1164.75
1002.66	1174.75
1007.801	1154.75
1012.936	1152.75
1018.066	1143.75
1023.19	1155.75
1028.309	1152.75
1033.423	1141.75
1038.532	1130.75
1043.636	1094.75
1048.734	1100.75
1053.827	1091.75
1058.915	1057.75
1063.998	1058.75
1069.075	1054.75
1074.147	1065.75
1079.214	1062.75
1084.276	1068.75
1089.333	1083.75
1094.385	1061.75
1099.431	1082.75
1104.472	1077.75
1109.509	1062.75
1114.54	1055.75
1119.565	1030.75
1124.586	1017.75
1129.602	1000.75
1134.613	993.75
1139.618	980.75
1144.619	989.75
1149.614	990.75
1154.604	994.75
1159.589	1000.75
1164.57	997.75
1169.545	1000.75
1174.515	999.75
1179.48	994.75
1184.44	964.75
1189.395	973.75
1194.345	957.75
1199.29	966.75
1204.23	958.75
1209.165	959.75
1214.095	963.75
1219.021	962.75
1223.941	967.75
1228.856	976.75
1233.766	981.75
1238.672	980.75
1243.572	978.75
1248.467	956.75
1253.358	966.75
1258.244	940.75
1263.124	916.75
1268	908.75
1272.871	899.75
1277.737	884.75
1282.599	887.75
1287.455	892.75
1292.306	879.75
1297.153	887.75
1301.995	897.75
1306.832	907.75
1311.664	913.75
1316.491	904.75
1321.314	900.75
1326.132	915.75
1330.945	914.75
1335.753	901.75
1340.556	905.75
1345.354	894.75
1350.148	906.75
1354.937	899.75
1359.722	881.75
1364.501	827.75
1369.276	811.75
1374.046	785.75
1378.811	765.75
1383.572	741.75
1388.327	731.75
1393.079	738.75
1397.825	734.75
1402.567	742.75
1407.304	735.75
1412.036	741.75
1416.764	747.75
1421.487	755.75
1426.205	761.75
1430.919	761.75
1435.628	772.75
1440.333	786.75
1445.032	804.75
1449.727	805.75
1454.418	804.75
1459.104	804.75
1463.785	802.75
1468.462	803.75
1473.134	798.75
1477.802	804.75
1482.465	791.75
1487.123	805.75
1491.777	794.75
1496.426	793.75
1501.071	803.75
1505.711	789.75
1510.347	796.75
1514.978	786.75
1519.604	777.75
1524.226	746.75
1528.844	736.75
1533.457	714.75
1538.065	704.75
1542.669	685.75
1547.269	694.75
1551.864	681.75
1556.454	712.75
1561.041	707.75
1565.622	713.75
1570.199	696.75
1574.772	703.75
1579.34	727.75
1583.904	724.75
1588.464	730.75
1593.019	732.75
1597.569	730.75
1602.115	731.75
1606.657	727.75
1611.195	729.75
1615.728	733.75
1620.256	719.75
1624.78	722.75
1629.3	734.75
1633.816	732.75
1638.327	747.75
1642.834	749.75
1647.336	784.75
1651.834	789.75
1656.328	785.75
1660.817	800.75
1665.302	812.75
1669.783	799.75
1674.259	809.75
1678.732	820.75
1683.199	820.75
1687.663	825.75
1692.122	817.75
1696.577	790.75
1701.028	766.75
1705.474	723.75
1709.917	694.75
1714.355	689.75
1718.788	694.75
1723.218	684.75
1727.643	709.75
1732.064	718.75
1736.481	718.75
1740.893	712.75
1745.301	704.75
1749.705	695.75
1754.105	702.75
1758.501	675.75
1762.893	697.75
1767.28	696.75
1771.663	706.75
1776.042	712.75
1780.417	738.75
1784.787	762.75
1789.154	763.75
1793.516	745.75
1797.874	731.75
1802.228	712.75
1806.578	696.75
1810.924	677.75
1815.266	673.75
1819.603	661.75
1823.937	676.75
1828.266	659.75
1832.591	683.75
1836.913	701.75
1841.23	690.75
1845.543	711.75
1849.852	720.75
1854.156	728.75
1858.457	743.75
1862.754	762.75
1867.047	778.75
1871.335	778.75
1875.62	799.75
1879.9	801.75
1884.177	809.75
1888.449	825.75
1892.718	830.75
1896.982	826.75
1901.243	850.75
1905.499	848.75
1909.752	869.75
1914	876.75
1918.245	886.75
1922.485	884.75
1926.722	890.75
1930.954	902.75
1935.183	881.75
1939.408	875.75
1943.628	888.75
1947.845	869.75
1952.058	862.75
1956.267	843.75
1960.472	846.75
1964.673	818.75
1968.87	820.75
1973.063	818.75
1977.252	792.75
1981.438	810.75
1985.619	801.75
1989.797	798.75
1993.971	822.75
1998.14	831.75
2002.306	835.75
2006.469	858.75
2010.627	868.75
2014.781	867.75
2018.932	873.75
2023.078	876.75
2027.221	887.75
2031.36	884.75
2035.495	893.75
2039.627	899.75
2043.754	901.75
2047.878	908.75
2051.998	932.75
2056.114	935.75
2060.226	937.75
2064.334	977.75
2068.439	979.75
2072.54	996.75
2076.637	1009.75
2080.73	1012.75
2084.82	1039.75
2088.906	1036.75
2092.988	1025.75
2097.066	1032.75
2101.14	1020.75
2105.211	1009.75
2109.278	1019.75
2113.342	998.75
2117.401	992.75
2121.457	999.75
2125.509	980.75
2129.558	991.75
2133.602	992.75
2137.643	1009.75
2141.681	1005.75
2145.714	1015.75
2149.744	1027.75
2153.77	1036.75
2157.793	1028.75
2161.812	1029.75
2165.827	1036.75
2169.838	1040.75
2173.846	1023.75
2177.851	1038.75
2181.851	1035.75
2185.848	1037.75
2189.841	1042.75
2193.831	1061.75
2197.817	1060.75
2201.799	1087.75
2205.778	1079.75
2209.753	1097.75
2213.725	1111.75
2217.693	1134.75
2221.657	1120.75
2225.618	1151.75
2229.575	1162.75
2233.529	1169.75
2237.479	1163.75
2241.425	1178.75
2245.368	1154.75
2249.307	1163.75
2253.243	1161.75
2257.175	1157.75
2261.104	1172.75
2265.029	1164.75
2268.95	1174.75
2272.868	1178.75
2276.783	1163.75
2280.694	1194.75
2284.601	1189.75
2288.505	1166.75
2292.405	1183.75
2296.302	1195.75
2300.195	1196.75
2304.085	1203.75
2307.971	1192.75
2311.854	1181.75
2315.734	1177.75
2319.609	1185.75
2323.482	1205.75
2327.351	1188.75
2331.216	1231.75
2335.078	1224.75
2338.937	1224.75
2342.792	1234.75
2346.643	1248.75
2350.492	1262.75
2354.336	1300.75
2358.178	1314.75
2362.015	1333.75
2365.85	1355.75
2369.681	1371.75
2373.508	1391.75
2377.333	1422.75
2381.153	1436.75
2384.971	1437.75
2388.785	1460.75
2392.595	1468.75
2396.402	1488.75
2400.206	1499.75
2404.007	1505.75
2407.804	1531.75
2411.597	1576.75
2415.388	1578.75
2419.174	1573.75
2422.958	1613.75
2426.738	1629.75
2430.515	1647.75
2434.289	1654.75
2438.059	1658.75
2441.825	1685.75
2445.589	1699.75
2449.349	1719.75
2453.106	1712.75
2456.859	1747.75
2460.61	1719.75
2464.356	1744.75
2468.1	1767.75
2471.84	1765.75
2475.577	1796.75
2479.311	1820.75
2483.041	1856.75
2486.768	1862.75
2490.492	1890.75
2494.213	1904.75
2497.93	1930.75
2501.644	1967.75
2505.355	1966.75
2509.062	2001.75
2512.766	2023.75
2516.467	2060.75
2520.165	2053.75
2523.859	2091.75
2527.551	2089.75
2531.239	2120.75
2534.923	2119.75
2538.605	2151.75
2542.283	2169.75
2545.958	2183.75
2549.63	2207.75
2553.299	2229.75
2556.964	2236.75
2560.626	2221.75
2564.285	2237.75
2567.941	2247.75
2571.594	2233.75
2575.243	2263.75
2578.89	2261.75
2582.533	2260.75
2586.173	2259.75
2589.809	2250.75
2593.443	2258.75
2597.073	2241.75
2600.701	2243.75
2604.325	2233.75
2607.946	2260.75
2611.564	2262.75
2615.178	2289.75
2618.79	2287.75
2622.398	2278.75
2626.004	2275.75
2629.606	2322.75
2633.205	2323.75
2636.801	2325.75
2640.394	2317.75
2643.983	2304.75
2647.57	2325.75
2651.153	2308.75
2654.734	2324.75
2658.311	2326.75
2661.885	2343.75
2665.456	2364.75
2669.025	2371.75
2672.589	2393.75
2676.151	2402.75
2679.71	2417.75
2683.266	2420.75
2686.819	2420.75
2690.368	2427.75
2693.915	2423.75
2697.458	2436.75
2700.999	2438.75
2704.536	2432.75
2708.071	2450.75
2711.602	2458.75
2715.13	2463.75
2718.656	2495.75
2722.178	2536.75
2725.697	2559.75
2729.214	2595.75
2732.727	2633.75
2736.237	2683.75
2739.744	2727.75
2743.249	2724.75
2746.75	2736.75
2750.248	2742.75
2753.743	2684.75
2757.236	2659.75
2760.725	2624.75
2764.211	2558.75
2767.695	2521.75
2771.175	2498.75
2774.652	2480.75
2778.127	2504.75
2781.598	2488.75
2785.067	2513.75
2788.532	2569.75
2791.995	2592.75
2795.455	2642.75
2798.911	2682.75
2802.365	2727.75
2805.816	2738.75
2809.264	2753.75
2812.709	2758.75
2816.151	2779.75
2819.59	2817.75
2823.026	2810.75
2826.46	2848.75
2829.89	2838.75
2833.318	2861.75
2836.742	2856.75
2840.164	2840.75
2843.583	2850.75
2846.999	2870.75
2850.412	2850.75
2853.822	2877.75
2857.229	2870.75
2860.634	2877.75
2864.035	2859.75
2867.434	2867.75
2870.83	2868.75
2874.223	2864.75
2877.613	2848.75
2881	2822.75
2884.385	2805.75
2887.766	2784.75
2891.145	2752.75
2894.521	2763.75
2897.894	2735.75
2901.264	2734.75
2904.631	2730.75
2907.996	2712.75
2911.358	2717.75
2914.717	2703.75
2918.073	2720.75
2921.426	2709.75
2924.777	2691.75
2928.124	2704.75
2931.469	2715.75
2934.811	2730.75
2938.15	2762.75
2941.487	2767.75
2944.821	2768.75
2948.152	2765.75
2951.48	2775.75
2954.805	2775.75
2958.128	2784.75
2961.447	2789.75
2964.765	2793.75
2968.079	2793.75
2971.39	2788.75
2974.699	2802.75
2978.005	2837.75
2981.308	2830.75
2984.609	2809.75
2987.907	2826.75
2991.202	2844.75
2994.494	2792.75
2997.784	2766.75
3001.07	2746.75
3004.355	2718.75
3007.636	2682.75
3010.915	2654.75
3014.191	2641.75
3017.464	2578.75
3020.734	2562.75
3024.002	2556.75
3027.267	2564.75
3030.53	2524.75
3033.789	2523.75
3037.046	2518.75
3040.301	2526.75
3043.552	2547.75
3046.801	2540.75
3050.048	2572.75
3053.291	2593.75
3056.532	2627.75
3059.771	2642.75
3063.006	2651.75
3066.239	2679.75
3069.469	2695.75
3072.697	2720.75
3075.922	2726.75
3079.144	2734.75
3082.364	2717.75
3085.581	2740.75
3088.795	2715.75
3092.007	2726.75
3095.216	2722.75
3098.423	2721.75
3101.627	2710.75
3104.828	2698.75
3108.026	2688.75
3111.222	2731.75
3114.416	2696.75
3117.607	2699.75
3120.795	2706.75
3123.98	2713.75
3127.163	2716.75
3130.344	2712.75
3133.521	2700.75
3136.696	2706.75
3139.869	2688.75
3143.039	2691.75
3146.206	2651.75
3149.371	2653.75
3152.533	2600.75
3155.693	2587.75
3158.85	2558.75
3162.005	2545.75
3165.157	2502.75
3168.306	2476.75
3171.453	2440.75
3174.597	2421.75
3177.739	2389.75
3180.878	2384.75
3184.014	2356.75
3187.149	2337.75
3190.28	2325.75
3193.409	2320.75
3196.536	2316.75
3199.659	2310.75
3202.781	2294.75
3205.9	2301.75
3209.016	2278.75
3212.13	2265.75
3215.241	2275.75
3218.35	2253.75
3221.456	2248.75
3224.56	2216.75
3227.661	2187.75
3230.76	2165.75
3233.856	2162.75
3236.95	2162.75
3240.041	2131.75
3243.13	2134.75
3246.216	2087.75
3249.3	2077.75
3252.382	2071.75
3255.46	2057.75
3258.537	2044.75
3261.611	2040.75
3264.682	2021.75
3267.751	1993.75
3270.818	1983.75
3273.882	1977.75
3276.943	1946.75
3280.002	1944.75
3283.059	1900.75
3286.113	1885.75
3289.165	1861.75
3292.214	1831.75
3295.261	1819.75
3298.306	1796.75
3301.348	1785.75
3304.387	1773.75
3307.425	1750.75
3310.459	1730.75
3313.492	1731.75
3316.521	1710.75
3319.549	1694.75
3322.574	1709.75
3325.597	1691.75
3328.617	1693.75
3331.635	1714.75
3334.65	1703.75
3337.663	1688.75
3340.674	1684.75
3343.682	1685.75
3346.688	1691.75
3349.691	1682.75
3352.692	1702.75
3355.691	1682.75
3358.687	1675.75
3361.681	1645.75
3364.673	1644.75
3367.662	1634.75
3370.649	1602.75
3373.633	1608.75
3376.615	1576.75
3379.595	1559.75
3382.572	1554.75
3385.547	1531.75
3388.52	1533.75
3391.49	1514.75
3394.458	1497.75
3397.424	1507.75
3400.387	1495.75
3403.348	1468.75
3406.307	1465.75
3409.263	1451.75
3412.217	1451.75
3415.168	1453.75
3418.118	1447.75
3421.065	1429.75
3424.009	1421.75
3426.951	1421.75
3429.891	1401.75
3432.829	1390.75
3435.764	1366.75
3438.697	1361.75
3441.628	1335.75
3444.557	1321.75
3447.483	1304.75
3450.407	1260.75
3453.328	1266.75
3456.247	1248.75
3459.164	1220.75
3462.079	1194.75
3464.991	1173.75
3467.902	1168.75
3470.809	1145.75
3473.715	1126.75
3476.618	1119.75
3479.519	1106.75
3482.418	1087.75
3485.315	1082.75
3488.209	1065.75
3491.101	1039.75
3493.99	1050.75
3496.878	1021.75
3499.763	1014.75
3502.646	1013.75
3505.527	990.75
3508.405	977.75
3511.281	972.75
3514.155	948.75
3517.027	932.75
3519.897	896.75
3522.764	873.75
3525.629	855.75
3528.492	845.75
3531.352	822.75
3534.211	802.75
3537.067	781.75
3539.921	765.75
3542.773	749.75
3545.622	739.75
3548.469	716.75
3551.315	702.75
3554.157	685.75
3556.998	685.75
3559.837	662.75
3562.673	666.75
3565.507	649.75
3568.339	643.75
3571.169	634.75
3573.996	623.75
3576.822	606.75
3579.645	612.75
3582.466	589.75
3585.285	582.75
3588.101	566.75
3590.916	556.75
3593.728	545.75
3596.538	542.75
3599.346	526.75
3602.152	509.75
3604.956	495.75
3607.757	488.75
3610.556	474.75
3613.354	465.75
3616.149	452.75
3618.942	443.75
3621.732	453.75
3624.521	430.75
3627.307	437.75
3630.092	426.75
3632.874	415.75
3635.654	417.75
3638.432	406.75
3641.208	399.75
3643.982	396.75
3646.753	398.75
3649.523	381.75
3652.29	385.75
3655.055	377.75
3657.818	374.75
3660.579	365.75
3663.338	355.75
3666.095	357.75
3668.849	352.75
3671.602	352.75
3674.352	349.75
3677.101	358.75
3679.847	349.75
3682.591	341.75
3685.333	343.75
3688.073	356.75
3690.811	350.75
3693.547	347.75
3696.281	352.75
3699.013	355.75
3701.742	355.75
3704.47	354.75
3707.195	355.75
3709.919	354.75
3712.64	346.75
3715.359	344.75
3718.076	344.75
3720.792	337.75
3723.505	337.75
3726.216	326.75
3728.925	326.75
3731.632	332.75
3734.336	327.75
3737.039	309.75
3739.74	311.75
3742.439	306.75
3745.136	305.75
3747.83	307.75
3750.523	310.75
3753.213	307.75
3755.902	303.75
3758.589	314.75
3761.273	304.75
3763.956	300.75
3766.636	297.75
3769.315	296.75
3771.991	291.75
3774.665	283.75
3777.338	290.75
3780.008	268.75
3782.677	270.75
3785.343	265.75
3788.007	260.75
3790.67	257.75
3793.33	246.75
3795.989	255.75
3798.645	242.75
3801.299	224.75
3803.952	235.75
3806.602	226.75
3809.251	227.75
3811.897	219.75
3814.542	221.75
3817.184	219.75
3819.825	214.75
3822.463	215.75
3825.1	211.75
3827.735	195.75
3830.367	198.75
3832.998	187.75
3835.627	182.75
3838.253	173.75
3840.878	171.75
3843.501	173.75
3846.122	171.75
3848.741	161.75
3851.358	148.75
3853.973	151.75
3856.586	149.75
3859.197	142.75
3861.806	134.75
3864.414	131.75
3867.019	130.75
3869.622	130.75
3872.224	123.75
3874.823	122.75
3877.421	118.75
3880.016	116.75
3882.61	118.75
3885.202	119.75
3887.792	101.75
3890.38	96.75
3892.966	84.75
3895.55	78.75
3898.132	73.75
3900.713	62.75
3903.291	58.75
3905.868	57.75
3908.442	41.75
3911.015	50.75
3913.586	40.75
3916.155	40.75
3918.722	34.75
3921.287	30.75
3923.85	25.75
3926.411	25.75
3928.971	26.75
3931.528	17.75
3934.084	19.75
3936.638	16.75
3939.19	11.75
3941.74	8.75
3944.288	5.75
3946.834	8.75
3949.378	7.75
3951.921	6.75
3954.462	-6.25
3957	7.75
3959.537	1.75
3962.072	1.75
3964.606	4.75
3967.137	0.75
3969.667	2.75
3972.194	-2.25
3974.72	-3.25
3977.244	-5.25
3979.766	-1.25
3982.286	-2.25
3984.805	-5.25
3987.321	-6.25
3989.836	-9.25
3992.349	-10.25
3994.86	-12.25
3997.369	-10.25
3999.877	-15.25
4002.382	-16.25
4004.886	-18.25
4007.388	-17.25
4009.888	-10.25
4012.386	-15.25
4014.883	-15.25
4017.377	-14.25
4019.87	-19.25
4022.361	-18.25
4024.85	-14.25
4027.338	-21.25
4029.823	-21.25
4032.307	-18.25
4034.789	-19.25
4037.269	-24.25
4039.747	-18.25
4042.224	-22.25
4044.699	-22.25
4047.172	-25.25
4049.643	-21.25
4052.112	-22.25
4054.58	-22.25
4057.046	-24.25
4059.51	-27.25
4061.972	-32.25
4064.432	-24.25
4066.891	-35.25
4069.348	-36.25
4071.803	-36.25
4074.256	-38.25
4076.708	-37.25
4079.158	-36.25
4081.606	-35.25
4084.052	-35.25
4086.497	-41.25
4088.939	-37.25
4091.38	-40.25
4093.819	-35.25
4096.257	-57.25
4098.693	-58.25
4101.127	-56.25
4103.559	-56.25
4105.989	-23.25
4108.418	-21.25
4110.845	-23.25
4113.27	-11.25
4115.694	-25.25
4118.115	-12.25
4120.535	-37.25
4122.954	-38.25
4125.37	-39.25
4127.785	-35.25
4130.198	-38.25
4132.609	-40.25
4135.019	-56.25
4137.427	-55.25
4139.833	-54.25
4142.237	-55.25
