Data from BAC 10^8 in Saline 1 (5ml I =1_T=5x3)_RamanShift_1.txt Node
Date: Mon May 29 15:05:11 IDT 2017
User: aro
Spectrometer: QEPB0276
Trigger mode: 0
Integration Time (sec): 5.000000E0
Scans to average: 3
Electric dark correction enabled: true
Nonlinearity correction enabled: false
Boxcar width: 0
XAxis mode: Raman Shifts
Number of Pixels in Spectrum: 1044
>>>>>Begin Spectral Data<<<<<
160.701	-6.54
166.742	3.46
172.777	35.12
178.805	131.79
184.826	366.46
190.841	756.12
196.849	1193.79
202.85	1501.12
208.845	1574.79
214.833	1525.46
220.815	1465.12
226.789	1420.79
232.758	1388.12
238.719	1345.46
244.674	1297.79
250.623	1240.12
256.565	1196.46
262.5	1145.46
268.429	1093.79
274.351	1057.79
280.267	1017.46
286.176	999.79
292.079	965.12
297.975	939.46
303.865	927.79
309.748	902.46
315.625	898.79
321.495	878.79
327.359	876.12
333.217	875.12
339.068	872.12
344.912	872.79
350.751	865.12
356.583	868.12
362.408	872.46
368.227	875.46
374.04	901.79
379.847	912.79
385.647	932.79
391.44	926.79
397.228	906.79
403.009	922.12
408.784	948.12
414.553	1004.46
420.315	1082.46
426.071	1096.12
431.821	1016.79
437.565	943.12
443.302	923.79
449.033	911.79
454.758	905.46
460.477	896.12
466.189	880.12
471.896	865.79
477.596	863.12
483.29	860.79
488.978	850.46
494.66	844.79
500.335	825.12
506.005	799.79
511.668	760.12
517.325	733.12
522.977	712.46
528.622	691.79
534.261	678.12
539.894	660.79
545.521	648.12
551.141	641.12
556.756	637.46
562.365	635.12
567.968	626.79
573.565	623.46
579.155	616.12
584.74	611.46
590.319	606.79
595.892	596.79
601.459	590.12
607.02	593.12
612.575	585.79
618.124	581.46
623.667	562.79
629.204	559.79
634.735	565.79
640.261	570.46
645.781	588.79
651.294	601.79
656.802	579.12
662.304	547.12
667.8	537.46
673.29	518.12
678.775	518.46
684.254	508.46
689.726	508.79
695.193	498.79
700.655	492.12
706.11	490.46
711.56	483.46
717.004	480.12
722.442	480.79
727.874	474.46
733.301	477.79
738.722	471.12
744.137	473.46
749.547	471.12
754.951	478.79
760.349	470.79
765.741	462.12
771.128	459.46
776.509	451.79
781.885	459.46
787.254	457.79
792.618	455.46
797.977	452.46
803.33	445.12
808.677	437.46
814.019	430.46
819.355	420.46
824.686	421.46
830.011	411.46
835.33	408.46
840.644	400.12
845.952	399.12
851.255	389.12
856.552	388.12
861.844	379.46
867.13	370.12
872.41	371.46
877.686	365.46
882.955	358.46
888.219	344.79
893.478	338.46
898.731	330.46
903.979	329.12
909.221	316.79
914.458	318.12
919.69	313.46
924.916	309.46
930.136	310.79
935.351	304.79
940.561	303.12
945.766	302.79
950.965	301.79
956.158	297.12
961.347	289.79
966.529	287.46
971.707	276.12
976.879	274.79
982.046	272.46
987.208	263.46
992.364	268.12
997.515	270.79
1002.66	269.12
1007.801	273.12
1012.936	269.79
1018.066	271.12
1023.19	275.12
1028.309	278.46
1033.423	278.79
1038.532	274.46
1043.636	272.79
1048.734	272.12
1053.827	266.12
1058.915	267.12
1063.998	260.46
1069.075	257.12
1074.147	260.12
1079.214	261.12
1084.276	260.79
1089.333	256.12
1094.385	262.79
1099.431	260.12
1104.472	255.79
1109.509	253.12
1114.54	251.12
1119.565	243.46
1124.586	241.46
1129.602	237.79
1134.613	238.79
1139.618	230.79
1144.619	233.79
1149.614	233.79
1154.604	237.12
1159.589	237.79
1164.57	236.46
1169.545	240.12
1174.515	240.79
1179.48	235.12
1184.44	230.12
1189.395	232.46
1194.345	227.46
1199.29	228.46
1204.23	228.12
1209.165	229.12
1214.095	228.46
1219.021	229.46
1223.941	235.12
1228.856	230.79
1233.766	232.12
1238.672	230.79
1243.572	228.46
1248.467	228.46
1253.358	220.12
1258.244	216.12
1263.124	212.46
1268	212.46
1272.871	208.46
1277.737	205.12
1282.599	200.79
1287.455	202.46
1292.306	202.46
1297.153	205.12
1301.995	202.46
1306.832	203.46
1311.664	203.12
1316.491	206.46
1321.314	202.46
1326.132	196.79
1330.945	196.12
1335.753	190.12
1340.556	187.46
1345.354	181.12
1350.148	181.79
1354.937	179.12
1359.722	176.46
1364.501	181.46
1369.276	180.79
1374.046	180.12
1378.811	180.46
1383.572	181.12
1388.327	180.12
1393.079	176.12
1397.825	174.12
1402.567	169.46
1407.304	169.46
1412.036	164.12
1416.764	161.79
1421.487	164.46
1426.205	167.12
1430.919	164.12
1435.628	168.79
1440.333	165.79
1445.032	172.12
1449.727	166.79
1454.418	171.79
1459.104	172.46
1463.785	165.12
1468.462	166.46
1473.134	161.46
1477.802	160.79
1482.465	159.79
1487.123	162.79
1491.777	160.46
1496.426	164.79
1501.071	168.12
1505.711	167.12
1510.347	175.46
1514.978	174.12
1519.604	176.12
1524.226	177.79
1528.844	176.79
1533.457	182.79
1538.065	180.46
1542.669	178.79
1547.269	183.46
1551.864	182.79
1556.454	183.46
1561.041	189.46
1565.622	187.12
1570.199	192.79
1574.772	200.79
1579.34	205.46
1583.904	209.12
1588.464	219.79
1593.019	228.12
1597.569	228.79
1602.115	236.79
1606.657	244.46
1611.195	248.46
1615.728	254.12
1620.256	254.12
1624.78	265.79
1629.3	271.46
1633.816	278.46
1638.327	286.12
1642.834	285.46
1647.336	290.46
1651.834	287.79
1656.328	286.79
1660.817	281.12
1665.302	274.12
1669.783	267.79
1674.259	255.79
1678.732	242.12
1683.199	227.12
1687.663	214.79
1692.122	201.79
1696.577	191.46
1701.028	179.46
1705.474	172.12
1709.917	168.12
1714.355	155.12
1718.788	148.12
1723.218	139.79
1727.643	131.79
1732.064	123.12
1736.481	115.12
1740.893	111.46
1745.301	102.79
1749.705	96.46
1754.105	89.12
1758.501	89.12
1762.893	80.12
1767.28	79.79
1771.663	76.12
1776.042	73.46
1780.417	71.46
1784.787	71.46
1789.154	69.12
1793.516	67.79
1797.874	67.46
1802.228	70.46
1806.578	67.12
1810.924	68.12
1815.266	63.46
1819.603	59.12
1823.937	58.12
1828.266	54.46
1832.591	56.46
1836.913	52.12
1841.23	52.12
1845.543	49.46
1849.852	52.79
1854.156	52.46
1858.457	52.46
1862.754	52.12
1867.047	52.12
1871.335	50.79
1875.62	52.12
1879.9	50.46
1884.177	50.46
1888.449	50.12
1892.718	50.79
1896.982	52.12
1901.243	51.79
1905.499	52.79
1909.752	52.79
1914	48.46
1918.245	54.79
1922.485	54.12
1926.722	54.46
1930.954	54.46
1935.183	54.46
1939.408	58.12
1943.628	55.12
1947.845	56.12
1952.058	59.46
1956.267	57.46
1960.472	52.79
1964.673	54.79
1968.87	52.46
1973.063	51.12
1977.252	51.12
1981.438	52.12
1985.619	48.79
1989.797	49.12
1993.971	50.12
1998.14	51.79
2002.306	53.46
2006.469	50.79
2010.627	50.46
2014.781	53.79
2018.932	52.12
2023.078	53.46
2027.221	53.12
2031.36	51.12
2035.495	50.79
2039.627	51.79
2043.754	54.12
2047.878	52.46
2051.998	53.46
2056.114	54.12
2060.226	56.12
2064.334	55.79
2068.439	54.12
2072.54	58.79
2076.637	58.46
2080.73	58.12
2084.82	57.46
2088.906	60.79
2092.988	61.12
2097.066	56.12
2101.14	58.79
2105.211	56.79
2109.278	59.12
2113.342	53.79
2117.401	51.46
2121.457	51.12
2125.509	52.46
2129.558	52.46
2133.602	51.12
2137.643	52.79
2141.681	49.12
2145.714	48.12
2149.744	45.79
2153.77	47.46
2157.793	46.12
2161.812	43.79
2165.827	37.79
2169.838	40.46
2173.846	39.12
2177.851	37.12
2181.851	36.46
2185.848	31.79
2189.841	36.12
2193.831	30.12
2197.817	30.79
2201.799	30.12
2205.778	27.79
2209.753	27.12
2213.725	26.79
2217.693	30.12
2221.657	24.12
2225.618	26.46
2229.575	24.46
2233.529	24.12
2237.479	23.12
2241.425	21.12
2245.368	18.79
2249.307	17.79
2253.243	18.12
2257.175	17.79
2261.104	13.79
2265.029	13.46
2268.95	13.12
2272.868	12.46
2276.783	12.46
2280.694	12.46
2284.601	11.46
2288.505	8.46
2292.405	6.12
2296.302	9.12
2300.195	6.12
2304.085	6.12
2307.971	2.12
2311.854	5.12
2315.734	3.79
2319.609	2.12
2323.482	2.46
2327.351	0.12
2331.216	0.12
2335.078	1.46
2338.937	1.12
2342.792	-1.88
2346.643	-3.21
2350.492	-2.54
2354.336	-3.21
2358.178	-2.88
2362.015	-2.88
2365.85	-1.88
2369.681	0.12
2373.508	-1.21
2377.333	-3.21
2381.153	0.12
2384.971	-5.21
2388.785	-2.88
2392.595	-3.54
2396.402	-4.54
2400.206	-1.88
2404.007	-6.88
2407.804	-7.21
2411.597	-8.21
2415.388	-7.54
2419.174	-7.54
2422.958	-7.54
2426.738	-7.54
2430.515	-9.21
2434.289	-11.54
2438.059	-10.21
2441.825	-7.54
2445.589	-10.21
2449.349	-9.54
2453.106	-10.88
2456.859	-10.88
2460.61	-13.88
2464.356	-10.54
2468.1	-11.54
2471.84	-10.88
2475.577	-10.21
2479.311	-12.88
2483.041	-12.21
2486.768	-12.88
2490.492	-14.21
2494.213	-14.54
2497.93	-12.21
2501.644	-13.54
2505.355	-11.54
2509.062	-12.54
2512.766	-12.54
2516.467	-11.54
2520.165	-14.21
2523.859	-14.88
2527.551	-13.54
2531.239	-13.88
2534.923	-13.54
2538.605	-13.54
2542.283	-13.54
2545.958	-15.21
2549.63	-14.54
2553.299	-15.88
2556.964	-13.21
2560.626	-14.88
2564.285	-16.88
2567.941	-14.21
2571.594	-16.54
2575.243	-17.21
2578.89	-16.54
2582.533	-14.88
2586.173	-14.21
2589.809	-15.88
2593.443	-18.21
2597.073	-17.54
2600.701	-17.21
2604.325	-20.21
2607.946	-19.54
2611.564	-18.21
2615.178	-18.88
2618.79	-17.88
2622.398	-15.88
2626.004	-16.54
2629.606	-16.88
2633.205	-16.88
2636.801	-18.88
2640.394	-18.88
2643.983	-17.21
2647.57	-17.54
2651.153	-17.88
2654.734	-17.54
2658.311	-18.21
2661.885	-16.21
2665.456	-20.88
2669.025	-18.21
2672.589	-16.21
2676.151	-16.88
2679.71	-18.54
2683.266	-17.54
2686.819	-18.54
2690.368	-17.54
2693.915	-19.21
2697.458	-17.54
2700.999	-19.21
2704.536	-15.88
2708.071	-15.88
2711.602	-17.54
2715.13	-19.54
2718.656	-15.88
2722.178	-15.88
2725.697	-16.21
2729.214	-19.21
2732.727	-18.88
2736.237	-17.88
2739.744	-14.21
2743.249	-17.21
2746.75	-16.54
2750.248	-14.54
2753.743	-16.21
2757.236	-13.54
2760.725	-12.21
2764.211	-16.54
2767.695	-14.54
2771.175	-13.21
2774.652	-14.21
2778.127	-10.88
2781.598	-12.54
2785.067	-12.21
2788.532	-10.54
2791.995	-13.54
2795.455	-11.21
2798.911	-9.88
2802.365	-8.88
2805.816	-9.88
2809.264	-9.21
2812.709	-6.54
2816.151	-8.88
2819.59	-6.88
2823.026	-9.54
2826.46	-7.54
2829.89	-7.54
2833.318	-5.54
2836.742	-5.54
2840.164	-3.88
2843.583	-0.54
2846.999	-0.88
2850.412	-0.88
2853.822	0.46
2857.229	1.12
2860.634	2.46
2864.035	3.79
2867.434	2.12
2870.83	3.46
2874.223	4.46
2877.613	7.12
2881	11.12
2884.385	8.12
2887.766	12.46
2891.145	11.79
2894.521	11.79
2897.894	13.79
2901.264	14.46
2904.631	13.12
2907.996	17.12
2911.358	19.46
2914.717	22.79
2918.073	21.12
2921.426	24.12
2924.777	28.12
2928.124	28.12
2931.469	30.12
2934.811	32.12
2938.15	33.46
2941.487	36.12
2944.821	38.79
2948.152	39.12
2951.48	43.12
2954.805	41.79
2958.128	45.79
2961.447	48.46
2964.765	47.79
2968.079	50.12
2971.39	51.12
2974.699	56.79
2978.005	57.12
2981.308	62.12
2984.609	67.12
2987.907	70.46
2991.202	74.12
2994.494	80.46
2997.784	84.12
3001.07	82.46
3004.355	87.79
3007.636	93.12
3010.915	98.46
3014.191	96.79
3017.464	104.12
3020.734	106.79
3024.002	108.79
3027.267	112.46
3030.53	115.12
3033.789	117.12
3037.046	122.12
3040.301	124.46
3043.552	126.79
3046.801	136.79
3050.048	141.46
3053.291	144.46
3056.532	148.12
3059.771	157.46
3063.006	162.12
3066.239	171.79
3069.469	176.46
3072.697	183.12
3075.922	189.79
3079.144	199.12
3082.364	205.12
3085.581	208.12
3088.795	224.12
3092.007	270.12
3095.216	280.79
3098.423	273.12
3101.627	265.12
3104.828	253.46
3108.026	257.12
3111.222	260.12
3114.416	272.12
3117.607	278.12
3120.795	282.46
3123.98	295.79
3127.163	301.79
3130.344	312.79
3133.521	317.79
3136.696	333.12
3139.869	334.79
3143.039	344.12
3146.206	346.12
3149.371	357.46
3152.533	359.46
3155.693	363.46
3158.85	365.46
3162.005	371.12
3165.157	373.12
3168.306	374.79
3171.453	377.12
3174.597	383.46
3177.739	382.79
3180.878	377.12
3184.014	380.79
3187.149	386.79
3190.28	384.79
3193.409	386.46
3196.536	390.12
3199.659	389.79
3202.781	393.79
3205.9	395.79
3209.016	395.12
3212.13	399.79
3215.241	396.12
3218.35	391.46
3221.456	389.46
3224.56	386.79
3227.661	384.79
3230.76	380.12
3233.856	377.46
3236.95	379.46
3240.041	373.79
3243.13	372.79
3246.216	368.12
3249.3	375.12
3252.382	372.12
3255.46	366.12
3258.537	364.12
3261.611	366.12
3264.682	370.12
3267.751	366.79
3270.818	371.12
3273.882	368.46
3276.943	364.46
3280.002	354.79
3283.059	359.46
3286.113	350.46
3289.165	347.79
3292.214	344.12
3295.261	339.46
3298.306	333.46
3301.348	324.79
3304.387	325.46
3307.425	322.12
3310.459	318.12
3313.492	312.12
3316.521	308.79
3319.549	306.12
3322.574	305.79
3325.597	299.79
3328.617	304.46
3331.635	297.79
3334.65	301.12
3337.663	299.46
3340.674	296.79
3343.682	295.46
3346.688	291.79
3349.691	293.46
3352.692	291.12
3355.691	290.79
3358.687	289.79
3361.681	284.46
3364.673	281.46
3367.662	282.79
3370.649	279.46
3373.633	272.12
3376.615	272.12
3379.595	264.79
3382.572	264.12
3385.547	261.79
3388.52	253.79
3391.49	257.12
3394.458	253.46
3397.424	247.12
3400.387	244.12
3403.348	240.79
3406.307	240.46
3409.263	237.79
3412.217	236.12
3415.168	231.79
3418.118	234.46
3421.065	232.79
3424.009	229.12
3426.951	228.46
3429.891	218.79
3432.829	215.12
3435.764	215.12
3438.697	212.12
3441.628	206.12
3444.557	199.79
3447.483	192.79
3450.407	189.79
3453.328	183.79
3456.247	182.12
3459.164	175.12
3462.079	173.79
3464.991	161.46
3467.902	158.79
3470.809	154.12
3473.715	149.12
3476.618	147.12
3479.519	142.12
3482.418	137.79
3485.315	137.79
3488.209	132.79
3491.101	124.79
3493.99	119.12
3496.878	118.79
3499.763	116.79
3502.646	114.12
3505.527	109.46
3508.405	107.79
3511.281	102.12
3514.155	97.12
3517.027	91.46
3519.897	88.79
3522.764	83.79
3525.629	76.12
3528.492	75.12
3531.352	68.12
3534.211	66.46
3537.067	63.46
3539.921	55.79
3542.773	57.12
3545.622	53.79
3548.469	51.12
3551.315	46.46
3554.157	45.12
3556.998	37.79
3559.837	36.12
3562.673	38.46
3565.507	34.12
3568.339	29.79
3571.169	28.79
3573.996	28.46
3576.822	22.79
3579.645	21.12
3582.466	21.46
3585.285	19.12
3588.101	15.12
3590.916	12.12
3593.728	8.79
3596.538	12.12
3599.346	6.46
3602.152	4.46
3604.956	4.79
3607.757	5.12
3610.556	1.12
3613.354	0.12
3616.149	0.12
3618.942	-2.54
3621.732	-1.88
3624.521	-3.88
3627.307	-8.88
3630.092	-9.54
3632.874	-9.54
3635.654	-9.54
3638.432	-11.54
3641.208	-11.54
3643.982	-14.54
3646.753	-13.21
3649.523	-16.21
3652.29	-17.54
3655.055	-18.54
3657.818	-17.88
3660.579	-17.54
3663.338	-18.54
3666.095	-20.21
3668.849	-21.21
3671.602	-21.54
3674.352	-23.88
3677.101	-23.21
3679.847	-23.21
3682.591	-25.21
3685.333	-26.21
3688.073	-25.88
3690.811	-28.54
3693.547	-26.21
3696.281	-27.54
3699.013	-29.88
3701.742	-29.54
3704.47	-30.88
3707.195	-29.21
3709.919	-30.88
3712.64	-30.54
3715.359	-32.21
3718.076	-31.54
3720.792	-33.88
3723.505	-35.54
3726.216	-32.21
3728.925	-33.88
3731.632	-32.54
3734.336	-31.54
3737.039	-34.88
3739.74	-36.88
3742.439	-35.54
3745.136	-36.54
3747.83	-36.21
3750.523	-36.88
3753.213	-35.21
3755.902	-35.54
3758.589	-36.88
3761.273	-37.88
3763.956	-36.88
3766.636	-37.54
3769.315	-38.54
3771.991	-38.21
3774.665	-35.88
3777.338	-37.54
3780.008	-38.88
3782.677	-38.88
3785.343	-39.54
3788.007	-37.21
3790.67	-37.54
3793.33	-36.21
3795.989	-39.21
3798.645	-37.54
3801.299	-38.54
3803.952	-38.54
3806.602	-41.54
3809.251	-38.88
3811.897	-37.54
3814.542	-39.54
3817.184	-39.54
3819.825	-37.88
3822.463	-38.54
3825.1	-41.21
3827.735	-37.88
3830.367	-39.54
3832.998	-40.21
3835.627	-37.21
3838.253	-38.54
3840.878	-38.54
3843.501	-38.54
3846.122	-38.54
3848.741	-39.54
3851.358	-39.88
3853.973	-39.54
3856.586	-39.88
3859.197	-40.54
3861.806	-38.88
3864.414	-37.21
3867.019	-37.21
3869.622	-35.88
3872.224	-36.88
3874.823	-34.88
3877.421	-32.88
3880.016	-28.54
3882.61	-22.54
3885.202	-20.54
3887.792	-27.21
3890.38	-30.54
3892.966	-32.88
3895.55	-38.21
3898.132	-38.21
3900.713	-40.88
3903.291	-38.21
3905.868	-39.21
3908.442	-38.88
3911.015	-39.54
3913.586	-40.54
3916.155	-42.21
3918.722	-40.88
3921.287	-39.88
3923.85	-43.54
3926.411	-41.21
3928.971	-39.88
3931.528	-39.54
3934.084	-41.54
3936.638	-41.88
3939.19	-39.21
3941.74	-41.54
3944.288	-40.21
3946.834	-42.54
3949.378	-40.88
3951.921	-40.21
3954.462	-40.54
3957	-41.54
3959.537	-40.88
3962.072	-39.88
3964.606	-41.54
3967.137	-41.54
3969.667	-40.54
3972.194	-42.21
3974.72	-40.88
3977.244	-40.54
3979.766	-41.54
3982.286	-42.54
3984.805	-41.54
3987.321	-41.54
3989.836	-42.21
3992.349	-42.21
3994.86	-41.54
3997.369	-40.54
3999.877	-40.54
4002.382	-41.21
4004.886	-42.54
4007.388	-44.54
4009.888	-40.88
4012.386	-41.54
4014.883	-39.54
4017.377	-41.88
4019.87	-41.88
4022.361	-42.54
4024.85	-39.88
4027.338	-23.88
4029.823	-19.54
4032.307	-40.88
4034.789	-41.21
4037.269	-41.21
4039.747	-43.21
4042.224	-42.21
4044.699	-43.54
4047.172	-42.21
4049.643	-41.88
4052.112	-41.54
4054.58	-39.54
4057.046	-39.54
4059.51	-41.54
4061.972	-41.21
4064.432	-40.88
4066.891	-39.21
4069.348	-39.54
4071.803	-40.21
4074.256	-38.54
4076.708	-39.21
4079.158	-40.54
4081.606	-42.21
4084.052	-41.54
4086.497	-41.88
4088.939	-39.88
4091.38	-41.54
4093.819	-40.21
4096.257	-40.88
4098.693	-39.88
4101.127	-42.54
4103.559	-42.21
4105.989	-19.54
4108.418	-19.21
4110.845	-18.54
4113.27	-15.88
4115.694	-13.88
4118.115	-12.88
4120.535	-38.88
4122.954	-39.21
4125.37	-39.88
4127.785	-40.21
4130.198	-39.21
4132.609	-40.21
4135.019	-39.88
4137.427	-42.21
4139.833	-41.54
4142.237	-40.21
