Data from BAC 10^5 in Saline 1 (5ml I =1_T=5x3)_RamanShift_1.txt Node
Date: Mon May 29 15:00:11 IDT 2017
User: aro
Spectrometer: QEPB0276
Trigger mode: 0
Integration Time (sec): 5.000000E0
Scans to average: 3
Electric dark correction enabled: true
Nonlinearity correction enabled: false
Boxcar width: 0
XAxis mode: Raman Shifts
Number of Pixels in Spectrum: 1044
>>>>>Begin Spectral Data<<<<<
160.701	-38.25
166.742	3.42
172.777	120.42
178.805	513.75
184.826	1451.42
190.841	3057.42
196.849	4916.08
202.85	6129.08
208.845	6420.42
214.833	6186.42
220.815	5895.08
226.789	5703.75
232.758	5503.75
238.719	5294.42
244.674	5043.75
250.623	4801.75
256.565	4539.08
262.5	4307.42
268.429	4087.42
274.351	3881.08
280.267	3699.08
286.176	3546.42
292.079	3414.75
297.975	3275.75
303.865	3176.75
309.748	3069.08
315.625	3008.42
321.495	2953.42
327.359	2899.42
333.217	2861.75
339.068	2837.75
344.912	2823.42
350.751	2813.08
356.583	2816.75
362.408	2806.08
368.227	2806.42
374.04	2837.42
379.847	2864.75
385.647	2892.42
391.44	2888.75
397.228	2880.42
403.009	2882.08
408.784	2929.08
414.553	3018.08
420.315	3106.75
426.071	3099.08
431.821	3001.75
437.565	2919.08
443.302	2881.75
449.033	2865.08
454.758	2841.08
460.477	2805.75
466.189	2788.75
471.896	2772.75
477.596	2746.75
483.29	2714.42
488.978	2710.75
494.66	2667.08
500.335	2621.42
506.005	2574.75
511.668	2523.42
517.325	2461.42
522.977	2419.08
528.622	2391.42
534.261	2359.08
539.894	2315.42
545.521	2287.08
551.141	2282.75
556.756	2249.75
562.365	2217.08
567.968	2202.08
573.565	2184.08
579.155	2161.75
584.74	2130.75
590.319	2098.42
595.892	2088.08
601.459	2077.75
607.02	2037.08
612.575	2017.08
618.124	1991.08
623.667	1975.75
629.204	1947.08
634.735	1930.08
640.261	1929.75
645.781	1944.42
651.294	1935.42
656.802	1900.75
662.304	1857.08
667.8	1818.08
673.29	1803.75
678.775	1784.75
684.254	1767.75
689.726	1747.42
695.193	1719.42
700.655	1711.42
706.11	1688.75
711.56	1663.42
717.004	1646.42
722.442	1627.42
727.874	1610.08
733.301	1600.75
738.722	1585.08
744.137	1582.08
749.547	1564.75
754.951	1561.75
760.349	1545.75
765.741	1522.42
771.128	1508.08
776.509	1501.08
781.885	1491.08
787.254	1474.75
792.618	1452.75
797.977	1437.08
803.33	1413.42
808.677	1398.42
814.019	1373.08
819.355	1349.42
824.686	1326.08
830.011	1306.75
835.33	1291.08
840.644	1273.42
845.952	1250.42
851.255	1242.08
856.552	1226.42
861.844	1202.42
867.13	1194.08
872.41	1189.08
877.686	1184.42
882.955	1171.75
888.219	1142.08
893.478	1091.75
898.731	1060.75
903.979	1018.75
909.221	991.75
914.458	975.08
919.69	971.42
924.916	953.75
930.136	949.42
935.351	938.75
940.561	930.75
945.766	920.42
950.965	902.75
956.158	898.08
961.347	889.42
966.529	854.42
971.707	836.08
976.879	821.08
982.046	802.08
987.208	798.08
992.364	789.75
997.515	793.42
1002.66	797.42
1007.801	798.75
1012.936	810.75
1018.066	805.42
1023.19	817.08
1028.309	808.08
1033.423	796.42
1038.532	793.75
1043.636	795.42
1048.734	787.42
1053.827	779.75
1058.915	759.75
1063.998	757.42
1069.075	747.08
1074.147	744.08
1079.214	749.08
1084.276	756.08
1089.333	755.42
1094.385	756.08
1099.431	766.42
1104.472	752.08
1109.509	736.42
1114.54	734.42
1119.565	716.75
1124.586	699.08
1129.602	694.08
1134.613	690.08
1139.618	681.42
1144.619	677.42
1149.614	678.42
1154.604	678.75
1159.589	681.42
1164.57	688.42
1169.545	686.42
1174.515	687.08
1179.48	676.75
1184.44	674.08
1189.395	657.42
1194.345	658.42
1199.29	653.08
1204.23	652.75
1209.165	658.75
1214.095	658.75
1219.021	664.42
1223.941	663.75
1228.856	673.08
1233.766	670.42
1238.672	663.08
1243.572	664.42
1248.467	662.75
1253.358	641.75
1258.244	636.42
1263.124	618.75
1268	612.08
1272.871	605.75
1277.737	597.75
1282.599	586.42
1287.455	596.42
1292.306	592.75
1297.153	600.42
1301.995	597.75
1306.832	591.42
1311.664	598.42
1316.491	588.75
1321.314	586.75
1326.132	577.08
1330.945	563.75
1335.753	550.08
1340.556	541.42
1345.354	526.42
1350.148	523.42
1354.937	521.42
1359.722	508.42
1364.501	513.42
1369.276	505.75
1374.046	512.08
1378.811	513.08
1383.572	506.75
1388.327	506.42
1393.079	510.75
1397.825	495.42
1402.567	483.75
1407.304	480.42
1412.036	471.08
1416.764	471.75
1421.487	464.75
1426.205	466.75
1430.919	471.42
1435.628	479.08
1440.333	485.08
1445.032	488.75
1449.727	493.42
1454.418	500.75
1459.104	498.75
1463.785	492.42
1468.462	488.75
1473.134	469.75
1477.802	469.75
1482.465	474.75
1487.123	466.42
1491.777	470.42
1496.426	481.42
1501.071	484.75
1505.711	499.42
1510.347	501.42
1514.978	514.08
1519.604	519.75
1524.226	528.75
1528.844	530.42
1533.457	537.42
1538.065	541.75
1542.669	539.75
1547.269	539.75
1551.864	553.08
1556.454	569.08
1561.041	578.42
1565.622	583.75
1570.199	605.42
1574.772	630.08
1579.34	659.08
1583.904	687.08
1588.464	704.08
1593.019	737.08
1597.569	759.08
1602.115	783.08
1606.657	808.75
1611.195	843.08
1615.728	872.42
1620.256	889.75
1624.78	920.42
1629.3	956.75
1633.816	968.08
1638.327	990.08
1642.834	1011.75
1647.336	1019.08
1651.834	1015.08
1656.328	1000.08
1660.817	996.75
1665.302	955.42
1669.783	916.42
1674.259	879.42
1678.732	823.08
1683.199	783.08
1687.663	726.42
1692.122	674.75
1696.577	628.75
1701.028	587.75
1705.474	550.08
1709.917	512.75
1714.355	476.75
1718.788	449.42
1723.218	415.08
1727.643	379.75
1732.064	356.08
1736.481	327.42
1740.893	305.75
1745.301	282.08
1749.705	256.75
1754.105	237.42
1758.501	220.42
1762.893	202.75
1767.28	197.75
1771.663	179.08
1776.042	173.75
1780.417	167.08
1784.787	167.42
1789.154	163.08
1793.516	153.08
1797.874	159.75
1802.228	147.42
1806.578	148.08
1810.924	143.75
1815.266	135.08
1819.603	126.75
1823.937	117.08
1828.266	115.08
1832.591	108.08
1836.913	103.75
1841.23	100.42
1845.543	101.08
1849.852	99.75
1854.156	104.42
1858.457	101.08
1862.754	102.75
1867.047	97.75
1871.335	97.75
1875.62	97.75
1879.9	99.75
1884.177	104.75
1888.449	98.75
1892.718	100.42
1896.982	100.42
1901.243	97.08
1905.499	95.08
1909.752	98.08
1914	98.08
1918.245	102.42
1922.485	108.42
1926.722	104.08
1930.954	109.75
1935.183	116.75
1939.408	119.42
1943.628	119.75
1947.845	121.42
1952.058	122.08
1956.267	118.75
1960.472	118.75
1964.673	111.42
1968.87	107.75
1973.063	110.75
1977.252	110.08
1981.438	113.42
1985.619	110.08
1989.797	111.42
1993.971	111.08
1998.14	115.08
2002.306	116.75
2006.469	116.08
2010.627	122.42
2014.781	130.75
2018.932	128.75
2023.078	127.42
2027.221	127.42
2031.36	127.08
2035.495	127.08
2039.627	124.08
2043.754	129.42
2047.878	132.42
2051.998	129.08
2056.114	127.42
2060.226	134.08
2064.334	140.42
2068.439	142.75
2072.54	142.75
2076.637	146.42
2080.73	149.08
2084.82	148.75
2088.906	157.08
2092.988	152.75
2097.066	151.42
2101.14	143.42
2105.211	150.42
2109.278	147.42
2113.342	143.42
2117.401	142.75
2121.457	137.08
2125.509	137.75
2129.558	134.42
2133.602	128.42
2137.643	128.75
2141.681	120.42
2145.714	122.08
2149.744	112.75
2153.77	112.08
2157.793	116.42
2161.812	104.75
2165.827	99.42
2169.838	103.08
2173.846	92.75
2177.851	89.08
2181.851	82.08
2185.848	74.42
2189.841	77.42
2193.831	70.08
2197.817	65.42
2201.799	61.08
2205.778	61.42
2209.753	57.42
2213.725	52.75
2217.693	52.42
2221.657	50.42
2225.618	44.75
2229.575	42.75
2233.529	38.75
2237.479	37.08
2241.425	29.75
2245.368	28.08
2249.307	21.42
2253.243	16.42
2257.175	14.75
2261.104	10.08
2265.029	7.75
2268.95	6.42
2272.868	0.08
2276.783	-0.92
2280.694	-4.25
2284.601	-11.25
2288.505	-11.25
2292.405	-13.58
2296.302	-12.92
2300.195	-18.25
2304.085	-20.25
2307.971	-27.25
2311.854	-27.58
2315.734	-29.92
2319.609	-33.92
2323.482	-32.92
2327.351	-37.25
2331.216	-35.25
2335.078	-35.25
2338.937	-41.25
2342.792	-41.58
2346.643	-45.92
2350.492	-43.58
2354.336	-46.92
2358.178	-48.92
2362.015	-48.58
2365.85	-47.92
2369.681	-46.92
2373.508	-51.58
2377.333	-52.92
2381.153	-47.92
2384.971	-52.58
2388.785	-54.92
2392.595	-54.92
2396.402	-55.58
2400.206	-57.58
2404.007	-61.25
2407.804	-59.58
2411.597	-59.92
2415.388	-61.92
2419.174	-63.58
2422.958	-62.25
2426.738	-65.92
2430.515	-65.25
2434.289	-68.25
2438.059	-69.92
2441.825	-66.25
2445.589	-69.92
2449.349	-67.58
2453.106	-69.92
2456.859	-74.25
2460.61	-73.58
2464.356	-73.58
2468.1	-77.25
2471.84	-74.58
2475.577	-75.58
2479.311	-75.92
2483.041	-73.92
2486.768	-76.25
2490.492	-77.58
2494.213	-77.92
2497.93	-74.58
2501.644	-78.92
2505.355	-78.92
2509.062	-78.25
2512.766	-79.25
2516.467	-76.58
2520.165	-80.92
2523.859	-79.58
2527.551	-82.58
2531.239	-78.58
2534.923	-80.25
2538.605	-82.58
2542.283	-83.58
2545.958	-81.92
2549.63	-82.25
2553.299	-82.25
2556.964	-82.58
2560.626	-83.58
2564.285	-84.25
2567.941	-85.25
2571.594	-86.25
2575.243	-85.92
2578.89	-85.92
2582.533	-85.92
2586.173	-85.92
2589.809	-87.92
2593.443	-87.92
2597.073	-89.25
2600.701	-89.58
2604.325	-90.25
2607.946	-90.25
2611.564	-87.25
2615.178	-89.92
2618.79	-87.58
2622.398	-88.25
2626.004	-89.58
2629.606	-88.25
2633.205	-89.25
2636.801	-90.25
2640.394	-88.92
2643.983	-91.25
2647.57	-90.58
2651.153	-90.92
2654.734	-88.58
2658.311	-87.58
2661.885	-91.58
2665.456	-89.92
2669.025	-90.58
2672.589	-90.92
2676.151	-87.58
2679.71	-90.92
2683.266	-90.58
2686.819	-89.58
2690.368	-90.92
2693.915	-86.92
2697.458	-86.92
2700.999	-87.25
2704.536	-86.92
2708.071	-90.25
2711.602	-89.25
2715.13	-87.92
2718.656	-84.58
2722.178	-84.92
2725.697	-83.58
2729.214	-86.25
2732.727	-81.58
2736.237	-80.92
2739.744	-82.58
2743.249	-79.92
2746.75	-78.58
2750.248	-73.92
2753.743	-75.58
2757.236	-73.25
2760.725	-71.92
2764.211	-70.58
2767.695	-71.25
2771.175	-72.25
2774.652	-71.25
2778.127	-69.58
2781.598	-68.92
2785.067	-66.25
2788.532	-64.58
2791.995	-64.25
2795.455	-61.58
2798.911	-57.25
2802.365	-56.25
2805.816	-54.92
2809.264	-54.25
2812.709	-49.92
2816.151	-45.25
2819.59	-42.25
2823.026	-43.92
2826.46	-38.58
2829.89	-38.25
2833.318	-34.58
2836.742	-31.92
2840.164	-29.92
2843.583	-25.58
2846.999	-21.58
2850.412	-20.58
2853.822	-16.58
2857.229	-9.25
2860.634	-3.92
2864.035	-2.92
2867.434	2.08
2870.83	8.75
2874.223	8.75
2877.613	14.75
2881	24.08
2884.385	26.42
2887.766	31.75
2891.145	35.08
2894.521	36.42
2897.894	43.08
2901.264	42.75
2904.631	44.75
2907.996	49.75
2911.358	56.42
2914.717	64.08
2918.073	69.08
2921.426	74.08
2924.777	82.08
2928.124	90.08
2931.469	97.75
2934.811	108.08
2938.15	115.75
2941.487	118.75
2944.821	126.42
2948.152	134.42
2951.48	140.75
2954.805	147.08
2958.128	149.08
2961.447	158.08
2964.765	167.75
2968.079	171.42
2971.39	179.75
2974.699	194.08
2978.005	204.42
2981.308	222.75
2984.609	231.75
2987.907	243.42
2991.202	254.42
2994.494	270.75
2997.784	285.75
3001.07	292.08
3004.355	309.75
3007.636	320.08
3010.915	329.75
3014.191	345.42
3017.464	361.08
3020.734	366.42
3024.002	371.75
3027.267	387.75
3030.53	400.42
3033.789	408.75
3037.046	425.75
3040.301	438.42
3043.552	457.08
3046.801	481.75
3050.048	493.08
3053.291	512.42
3056.532	537.08
3059.771	552.75
3063.006	578.75
3066.239	606.75
3069.469	627.08
3072.697	654.08
3075.922	672.75
3079.144	705.42
3082.364	723.75
3085.581	750.75
3088.795	774.08
3092.007	795.08
3095.216	820.08
3098.423	842.08
3101.627	876.75
3104.828	898.08
3108.026	922.08
3111.222	944.75
3114.416	972.42
3117.607	1001.75
3120.795	1027.42
3123.98	1067.75
3127.163	1093.75
3130.344	1124.42
3133.521	1156.08
3136.696	1181.08
3139.869	1204.42
3143.039	1231.75
3146.206	1257.42
3149.371	1279.08
3152.533	1285.75
3155.693	1302.42
3158.85	1325.08
3162.005	1330.75
3165.157	1340.08
3168.306	1347.75
3171.453	1354.08
3174.597	1363.42
3177.739	1366.75
3180.878	1373.42
3184.014	1382.42
3187.149	1393.42
3190.28	1394.08
3193.409	1404.08
3196.536	1404.08
3199.659	1418.42
3202.781	1420.08
3205.9	1431.08
3209.016	1431.08
3212.13	1427.75
3215.241	1424.75
3218.35	1413.75
3221.456	1407.08
3224.56	1396.08
3227.661	1375.08
3230.76	1374.42
3233.856	1362.75
3236.95	1355.42
3240.041	1343.42
3243.13	1325.75
3246.216	1326.42
3249.3	1326.75
3252.382	1320.42
3255.46	1313.42
3258.537	1308.42
3261.611	1309.08
3264.682	1310.08
3267.751	1309.42
3270.818	1306.08
3273.882	1299.75
3276.943	1301.42
3280.002	1275.75
3283.059	1256.42
3286.113	1247.75
3289.165	1243.42
3292.214	1225.08
3295.261	1194.08
3298.306	1182.75
3301.348	1165.08
3304.387	1152.42
3307.425	1137.42
3310.459	1120.42
3313.492	1111.42
3316.521	1094.75
3319.549	1080.42
3322.574	1078.08
3325.597	1064.75
3328.617	1065.42
3331.635	1069.08
3334.65	1059.75
3337.663	1049.08
3340.674	1042.75
3343.682	1041.75
3346.688	1038.08
3349.691	1044.08
3352.692	1032.75
3355.691	1025.75
3358.687	1020.08
3361.681	1012.42
3364.673	1007.75
3367.662	994.42
3370.649	980.42
3373.633	966.75
3376.615	958.08
3379.595	939.75
3382.572	937.08
3385.547	919.42
3388.52	911.08
3391.49	893.42
3394.458	891.08
3397.424	878.08
3400.387	861.75
3403.348	855.08
3406.307	838.75
3409.263	843.75
3412.217	832.08
3415.168	823.08
3418.118	818.42
3421.065	809.75
3424.009	803.42
3426.951	790.08
3429.891	778.42
3432.829	768.42
3435.764	751.42
3438.697	736.08
3441.628	711.75
3444.557	692.42
3447.483	678.75
3450.407	660.42
3453.328	639.42
3456.247	626.75
3459.164	614.42
3462.079	588.75
3464.991	569.42
3467.902	544.08
3470.809	534.75
3473.715	521.08
3476.618	503.75
3479.519	492.08
3482.418	479.42
3485.315	468.42
3488.209	451.42
3491.101	437.08
3493.99	421.08
3496.878	416.08
3499.763	406.75
3502.646	390.42
3505.527	375.75
3508.405	358.42
3511.281	345.75
3514.155	326.42
3517.027	312.75
3519.897	295.75
3522.764	279.42
3525.629	264.75
3528.492	255.42
3531.352	241.42
3534.211	221.42
3537.067	209.75
3539.921	201.75
3542.773	187.42
3545.622	174.08
3548.469	161.42
3551.315	155.75
3554.157	141.75
3556.998	129.75
3559.837	124.08
3562.673	116.75
3565.507	105.75
3568.339	99.42
3571.169	91.75
3573.996	84.08
3576.822	76.75
3579.645	67.08
3582.466	61.42
3585.285	54.42
3588.101	48.08
3590.916	37.08
3593.728	30.75
3596.538	28.08
3599.346	14.08
3602.152	13.42
3604.956	6.42
3607.757	-1.92
3610.556	-1.92
3613.354	-7.25
3616.149	-14.25
3618.942	-18.92
3621.732	-25.58
3624.521	-29.25
3627.307	-31.25
3630.092	-35.58
3632.874	-39.92
3635.654	-43.25
3638.432	-48.58
3641.208	-51.25
3643.982	-54.25
3646.753	-56.25
3649.523	-63.58
3652.29	-64.92
3655.055	-69.92
3657.818	-70.25
3660.579	-73.92
3663.338	-74.92
3666.095	-80.58
3668.849	-84.58
3671.602	-87.58
3674.352	-90.25
3677.101	-93.58
3679.847	-95.92
3682.591	-98.25
3685.333	-99.92
3688.073	-103.25
3690.811	-106.25
3693.547	-104.58
3696.281	-107.25
3699.013	-111.58
3701.742	-111.25
3704.47	-111.58
3707.195	-114.58
3709.919	-118.25
3712.64	-119.58
3715.359	-117.25
3718.076	-120.58
3720.792	-122.25
3723.505	-123.92
3726.216	-124.25
3728.925	-127.25
3731.632	-126.25
3734.336	-126.25
3737.039	-126.58
3739.74	-129.58
3742.439	-129.58
3745.136	-129.92
3747.83	-131.92
3750.523	-131.25
3753.213	-129.92
3755.902	-134.58
3758.589	-132.92
3761.273	-134.58
3763.956	-135.58
3766.636	-133.58
3769.315	-135.25
3771.991	-135.92
3774.665	-135.92
3777.338	-139.25
3780.008	-137.25
3782.677	-137.92
3785.343	-139.25
3788.007	-137.92
3790.67	-139.25
3793.33	-138.25
3795.989	-143.58
3798.645	-139.58
3801.299	-141.58
3803.952	-140.92
3806.602	-140.92
3809.251	-140.58
3811.897	-140.58
3814.542	-140.58
3817.184	-140.92
3819.825	-141.92
3822.463	-141.25
3825.1	-143.58
3827.735	-141.58
3830.367	-141.92
3832.998	-144.58
3835.627	-142.58
3838.253	-140.58
3840.878	-141.92
3843.501	-143.25
3846.122	-141.92
3848.741	-142.92
3851.358	-142.25
3853.973	-144.25
3856.586	-144.25
3859.197	-143.92
3861.806	-142.25
3864.414	-142.92
3867.019	-141.25
3869.622	-138.92
3872.224	-142.58
3874.823	-137.25
3877.421	-129.92
3880.016	-123.92
3882.61	-117.25
3885.202	-114.92
3887.792	-122.25
3890.38	-129.25
3892.966	-136.58
3895.55	-141.92
3898.132	-142.92
3900.713	-146.25
3903.291	-144.25
3905.868	-144.58
3908.442	-144.92
3911.015	-146.92
3913.586	-145.25
3916.155	-148.58
3918.722	-147.58
3921.287	-147.25
3923.85	-147.58
3926.411	-148.25
3928.971	-147.25
3931.528	-145.92
3934.084	-146.25
3936.638	-147.92
3939.19	-145.58
3941.74	-146.25
3944.288	-146.25
3946.834	-148.58
3949.378	-146.58
3951.921	-148.25
3954.462	-146.92
3957	-146.92
3959.537	-146.25
3962.072	-144.58
3964.606	-148.25
3967.137	-147.58
3969.667	-145.58
3972.194	-147.25
3974.72	-146.25
3977.244	-145.58
3979.766	-145.92
3982.286	-145.25
3984.805	-146.25
3987.321	-144.92
3989.836	-146.25
3992.349	-145.25
3994.86	-144.92
3997.369	-145.58
3999.877	-144.25
4002.382	-144.25
4004.886	-146.25
4007.388	-147.58
4009.888	-146.58
4012.386	-145.92
4014.883	-144.58
4017.377	-145.92
4019.87	-146.25
4022.361	-147.25
4024.85	-145.25
4027.338	-147.25
4029.823	-146.58
4032.307	-147.92
4034.789	-145.92
4037.269	-145.58
4039.747	-146.58
4042.224	-146.92
4044.699	-148.92
4047.172	-146.58
4049.643	-148.25
4052.112	-146.58
4054.58	-144.92
4057.046	-145.25
4059.51	-148.58
4061.972	-145.92
4064.432	-144.58
4066.891	-145.92
4069.348	-145.58
4071.803	-145.92
4074.256	-144.25
4076.708	-143.25
4079.158	-144.92
4081.606	-148.25
4084.052	-146.58
4086.497	-146.25
4088.939	-145.58
4091.38	-146.58
4093.819	-146.58
4096.257	-150.58
4098.693	-149.58
4101.127	-151.92
4103.559	-150.92
4105.989	-92.58
4108.418	-89.58
4110.845	-84.25
4113.27	-78.58
4115.694	-70.25
4118.115	-57.58
4120.535	-145.25
4122.954	-143.92
4125.37	-145.25
4127.785	-146.25
4130.198	-145.25
4132.609	-146.25
4135.019	-149.92
4137.427	-150.58
4139.833	-150.58
4142.237	-148.25
