Data from BAC 10^8 in Saline 3 (5ml I =1_T=5x3)_RamanShift_1.txt Node
Date: Mon May 29 15:09:00 IDT 2017
User: aro
Spectrometer: QEPB0276
Trigger mode: 0
Integration Time (sec): 5.000000E0
Scans to average: 3
Electric dark correction enabled: true
Nonlinearity correction enabled: false
Boxcar width: 0
XAxis mode: Raman Shifts
Number of Pixels in Spectrum: 1044
>>>>>Begin Spectral Data<<<<<
160.701	-6.88
166.742	5.79
172.777	32.12
178.805	119.79
184.826	332.12
190.841	683.79
196.849	1085.46
202.85	1348.12
208.845	1415.12
214.833	1370.12
220.815	1312.46
226.789	1277.12
232.758	1245.12
238.719	1209.12
244.674	1170.79
250.623	1131.12
256.565	1074.79
262.5	1034.12
268.429	990.12
274.351	962.12
280.267	924.79
286.176	895.46
292.079	875.79
297.975	860.46
303.865	839.79
309.748	826.79
315.625	802.79
321.495	806.12
327.359	797.12
333.217	791.46
339.068	796.46
344.912	793.12
350.751	791.79
356.583	790.12
362.408	789.79
368.227	803.79
374.04	816.46
379.847	844.12
385.647	851.46
391.44	839.46
397.228	836.79
403.009	838.46
408.784	871.12
414.553	936.46
420.315	1002.46
426.071	1009.12
431.821	934.46
437.565	866.12
443.302	849.46
449.033	831.12
454.758	819.12
460.477	813.79
466.189	805.46
471.896	794.46
477.596	792.46
483.29	785.79
488.978	773.79
494.66	760.79
500.335	745.46
506.005	720.12
511.668	697.12
517.325	662.12
522.977	642.12
528.622	625.46
534.261	611.12
539.894	592.12
545.521	584.79
551.141	579.46
556.756	563.12
562.365	567.46
567.968	558.79
573.565	558.46
579.155	551.79
584.74	544.12
590.319	539.79
595.892	533.79
601.459	534.46
607.02	529.12
612.575	517.12
618.124	513.12
623.667	502.46
629.204	499.79
634.735	501.12
640.261	514.46
645.781	528.12
651.294	540.46
656.802	516.79
662.304	491.46
667.8	474.79
673.29	463.46
678.775	457.79
684.254	457.12
689.726	449.12
695.193	444.46
700.655	439.12
706.11	432.46
711.56	433.12
717.004	430.79
722.442	424.12
727.874	414.79
733.301	415.79
738.722	420.79
744.137	418.12
749.547	414.79
754.951	422.12
760.349	424.12
765.741	407.46
771.128	403.79
776.509	405.46
781.885	405.46
787.254	403.46
792.618	405.12
797.977	405.79
803.33	398.12
808.677	388.79
814.019	388.12
819.355	374.46
824.686	371.12
830.011	366.79
835.33	363.46
840.644	354.46
845.952	355.12
851.255	346.46
856.552	341.79
861.844	335.46
867.13	327.46
872.41	330.12
877.686	323.12
882.955	317.12
888.219	310.12
893.478	303.12
898.731	289.46
903.979	286.12
909.221	281.12
914.458	279.79
919.69	275.79
924.916	272.12
930.136	270.79
935.351	268.46
940.561	266.79
945.766	263.46
950.965	263.79
956.158	258.79
961.347	253.12
966.529	250.79
971.707	241.46
976.879	236.79
982.046	239.12
987.208	236.79
992.364	235.46
997.515	243.12
1002.66	238.79
1007.801	240.46
1012.936	241.79
1018.066	243.79
1023.19	242.79
1028.309	241.46
1033.423	236.79
1038.532	235.46
1043.636	239.12
1048.734	238.12
1053.827	235.46
1058.915	232.12
1063.998	233.79
1069.075	230.46
1074.147	229.46
1079.214	232.12
1084.276	230.79
1089.333	226.46
1094.385	230.46
1099.431	232.79
1104.472	224.12
1109.509	225.79
1114.54	224.46
1119.565	218.46
1124.586	211.79
1129.602	208.46
1134.613	204.46
1139.618	206.46
1144.619	205.12
1149.614	202.46
1154.604	200.46
1159.589	205.46
1164.57	207.79
1169.545	208.46
1174.515	206.79
1179.48	202.46
1184.44	202.79
1189.395	204.46
1194.345	203.46
1199.29	200.79
1204.23	201.46
1209.165	203.12
1214.095	202.12
1219.021	204.46
1223.941	207.46
1228.856	207.12
1233.766	202.79
1238.672	201.12
1243.572	204.79
1248.467	199.79
1253.358	197.46
1258.244	192.46
1263.124	191.12
1268	187.12
1272.871	183.46
1277.737	182.46
1282.599	178.79
1287.455	179.46
1292.306	178.46
1297.153	178.12
1301.995	182.12
1306.832	180.12
1311.664	177.46
1316.491	181.46
1321.314	178.12
1326.132	173.46
1330.945	169.79
1335.753	168.46
1340.556	163.12
1345.354	161.79
1350.148	160.12
1354.937	160.46
1359.722	155.79
1364.501	158.79
1369.276	157.12
1374.046	161.46
1378.811	162.46
1383.572	156.79
1388.327	158.79
1393.079	156.12
1397.825	154.12
1402.567	147.46
1407.304	148.79
1412.036	141.46
1416.764	143.79
1421.487	140.79
1426.205	145.46
1430.919	145.46
1435.628	148.79
1440.333	149.46
1445.032	147.46
1449.727	149.46
1454.418	152.12
1459.104	148.12
1463.785	146.79
1468.462	148.79
1473.134	142.12
1477.802	142.79
1482.465	141.79
1487.123	142.46
1491.777	140.46
1496.426	143.79
1501.071	151.46
1505.711	147.46
1510.347	155.46
1514.978	154.79
1519.604	160.12
1524.226	158.79
1528.844	157.46
1533.457	161.12
1538.065	161.12
1542.669	160.46
1547.269	157.46
1551.864	157.12
1556.454	162.12
1561.041	166.12
1565.622	166.12
1570.199	168.79
1574.772	177.12
1579.34	183.46
1583.904	189.46
1588.464	193.46
1593.019	198.12
1597.569	205.46
1602.115	208.46
1606.657	216.46
1611.195	218.46
1615.728	222.46
1620.256	230.46
1624.78	238.46
1629.3	242.12
1633.816	246.79
1638.327	251.79
1642.834	262.79
1647.336	261.12
1651.834	261.46
1656.328	256.79
1660.817	257.46
1665.302	245.46
1669.783	237.46
1674.259	224.79
1678.732	215.12
1683.199	206.79
1687.663	191.12
1692.122	182.79
1696.577	169.79
1701.028	166.12
1705.474	156.79
1709.917	145.12
1714.355	134.46
1718.788	129.12
1723.218	124.12
1727.643	118.46
1732.064	113.12
1736.481	103.12
1740.893	98.46
1745.301	90.79
1749.705	85.12
1754.105	79.46
1758.501	79.79
1762.893	73.46
1767.28	71.12
1771.663	69.12
1776.042	65.79
1780.417	62.79
1784.787	66.79
1789.154	60.46
1793.516	62.12
1797.874	60.79
1802.228	60.12
1806.578	59.79
1810.924	58.79
1815.266	59.46
1819.603	54.79
1823.937	50.79
1828.266	49.46
1832.591	51.12
1836.913	48.46
1841.23	46.12
1845.543	47.12
1849.852	46.79
1854.156	46.12
1858.457	45.12
1862.754	44.12
1867.047	47.12
1871.335	47.12
1875.62	45.46
1879.9	47.79
1884.177	46.12
1888.449	45.46
1892.718	47.12
1896.982	45.12
1901.243	43.79
1905.499	46.79
1909.752	46.12
1914	46.46
1918.245	46.46
1922.485	46.46
1926.722	49.79
1930.954	50.12
1935.183	52.12
1939.408	52.12
1943.628	51.12
1947.845	54.12
1952.058	54.12
1956.267	48.46
1960.472	46.12
1964.673	50.12
1968.87	48.79
1973.063	45.12
1977.252	46.79
1981.438	47.46
1985.619	46.46
1989.797	46.79
1993.971	44.46
1998.14	45.46
2002.306	46.12
2006.469	45.46
2010.627	47.79
2014.781	49.79
2018.932	47.46
2023.078	48.46
2027.221	46.12
2031.36	46.12
2035.495	47.12
2039.627	44.79
2043.754	46.46
2047.878	49.46
2051.998	50.79
2056.114	49.12
2060.226	49.46
2064.334	48.79
2068.439	47.79
2072.54	53.12
2076.637	52.46
2080.73	53.79
2084.82	56.12
2088.906	52.12
2092.988	54.46
2097.066	52.12
2101.14	55.46
2105.211	54.79
2109.278	52.12
2113.342	49.12
2117.401	48.79
2121.457	47.12
2125.509	50.79
2129.558	49.46
2133.602	47.46
2137.643	50.12
2141.681	43.79
2145.714	45.79
2149.744	43.46
2153.77	39.12
2157.793	44.12
2161.812	41.46
2165.827	38.46
2169.838	39.79
2173.846	35.46
2177.851	34.79
2181.851	34.79
2185.848	30.12
2189.841	33.46
2193.831	28.12
2197.817	28.46
2201.799	25.79
2205.778	30.12
2209.753	26.79
2213.725	25.12
2217.693	27.46
2221.657	25.79
2225.618	21.12
2229.575	21.46
2233.529	23.79
2237.479	21.46
2241.425	18.79
2245.368	17.79
2249.307	17.46
2253.243	14.46
2257.175	15.46
2261.104	13.79
2265.029	13.12
2268.95	14.12
2272.868	11.46
2276.783	11.12
2280.694	11.12
2284.601	6.79
2288.505	11.46
2292.405	7.46
2296.302	8.46
2300.195	7.12
2304.085	4.79
2307.971	4.12
2311.854	8.12
2315.734	3.12
2319.609	2.79
2323.482	1.46
2327.351	-1.21
2331.216	3.79
2335.078	1.46
2338.937	-1.54
2342.792	-1.54
2346.643	-1.54
2350.492	0.12
2354.336	-3.21
2358.178	-0.88
2362.015	-2.54
2365.85	-1.21
2369.681	-1.21
2373.508	-2.88
2377.333	-1.54
2381.153	-0.88
2384.971	-1.88
2388.785	-3.88
2392.595	-1.21
2396.402	-5.88
2400.206	-2.54
2404.007	-6.54
2407.804	-6.54
2411.597	-8.21
2415.388	-5.54
2419.174	-5.21
2422.958	-4.54
2426.738	-6.88
2430.515	-8.54
2434.289	-8.88
2438.059	-8.54
2441.825	-8.88
2445.589	-9.54
2449.349	-8.21
2453.106	-10.21
2456.859	-8.54
2460.61	-10.54
2464.356	-9.21
2468.1	-11.88
2471.84	-11.88
2475.577	-9.21
2479.311	-11.54
2483.041	-11.54
2486.768	-12.54
2490.492	-12.54
2494.213	-13.88
2497.93	-10.88
2501.644	-9.88
2505.355	-12.54
2509.062	-13.54
2512.766	-11.21
2516.467	-11.54
2520.165	-14.88
2523.859	-10.88
2527.551	-13.54
2531.239	-13.54
2534.923	-12.88
2538.605	-12.54
2542.283	-14.21
2545.958	-11.88
2549.63	-13.54
2553.299	-14.88
2556.964	-12.54
2560.626	-14.54
2564.285	-12.21
2567.941	-16.21
2571.594	-15.54
2575.243	-15.21
2578.89	-14.21
2582.533	-15.54
2586.173	-14.54
2589.809	-17.88
2593.443	-14.88
2597.073	-17.88
2600.701	-16.88
2604.325	-16.88
2607.946	-16.54
2611.564	-16.54
2615.178	-17.54
2618.79	-15.88
2622.398	-16.21
2626.004	-15.54
2629.606	-15.54
2633.205	-16.21
2636.801	-15.88
2640.394	-18.21
2643.983	-15.54
2647.57	-16.54
2651.153	-17.54
2654.734	-16.21
2658.311	-16.88
2661.885	-18.54
2665.456	-19.54
2669.025	-17.54
2672.589	-15.54
2676.151	-17.54
2679.71	-17.21
2683.266	-19.21
2686.819	-18.88
2690.368	-18.54
2693.915	-15.54
2697.458	-16.88
2700.999	-18.21
2704.536	-14.88
2708.071	-17.88
2711.602	-19.54
2715.13	-18.21
2718.656	-17.88
2722.178	-15.54
2725.697	-15.88
2729.214	-17.54
2732.727	-17.54
2736.237	-17.54
2739.744	-15.88
2743.249	-16.54
2746.75	-18.21
2750.248	-14.88
2753.743	-16.54
2757.236	-13.54
2760.725	-13.21
2764.211	-15.54
2767.695	-13.54
2771.175	-12.21
2774.652	-14.54
2778.127	-13.21
2781.598	-12.21
2785.067	-12.21
2788.532	-11.54
2791.995	-11.88
2795.455	-10.21
2798.911	-11.21
2802.365	-8.54
2805.816	-9.88
2809.264	-9.54
2812.709	-9.21
2816.151	-8.21
2819.59	-7.88
2823.026	-7.54
2826.46	-3.54
2829.89	-7.21
2833.318	-5.88
2836.742	-5.21
2840.164	-4.21
2843.583	-5.21
2846.999	-3.54
2850.412	-0.88
2853.822	-0.54
2857.229	0.12
2860.634	2.79
2864.035	3.46
2867.434	2.79
2870.83	5.46
2874.223	6.12
2877.613	7.79
2881	9.79
2884.385	9.12
2887.766	9.79
2891.145	12.46
2894.521	11.79
2897.894	13.79
2901.264	15.12
2904.631	14.12
2907.996	16.46
2911.358	17.12
2914.717	18.46
2918.073	19.12
2921.426	21.46
2924.777	23.46
2928.124	21.12
2931.469	26.46
2934.811	30.46
2938.15	30.12
2941.487	30.46
2944.821	35.46
2948.152	33.46
2951.48	37.46
2954.805	37.79
2958.128	40.12
2961.447	43.79
2964.765	42.46
2968.079	49.79
2971.39	47.79
2974.699	51.12
2978.005	52.46
2981.308	55.12
2984.609	62.12
2987.907	61.46
2991.202	64.46
2994.494	70.79
2997.784	74.12
3001.07	73.79
3004.355	77.46
3007.636	83.12
3010.915	87.46
3014.191	87.46
3017.464	90.46
3020.734	95.46
3024.002	97.46
3027.267	99.46
3030.53	98.12
3033.789	102.79
3037.046	110.46
3040.301	111.79
3043.552	113.46
3046.801	122.79
3050.048	126.79
3053.291	128.46
3056.532	134.79
3059.771	140.46
3063.006	146.46
3066.239	155.46
3069.469	158.79
3072.697	164.46
3075.922	171.12
3079.144	174.12
3082.364	185.12
3085.581	183.79
3088.795	192.12
3092.007	200.79
3095.216	208.79
3098.423	207.12
3101.627	219.12
3104.828	223.46
3108.026	230.79
3111.222	234.79
3114.416	240.79
3117.607	250.46
3120.795	255.46
3123.98	265.46
3127.163	269.46
3130.344	283.12
3133.521	287.12
3136.696	295.79
3139.869	305.79
3143.039	313.79
3146.206	311.79
3149.371	317.12
3152.533	327.79
3155.693	325.79
3158.85	325.46
3162.005	335.12
3165.157	335.12
3168.306	337.46
3171.453	335.79
3174.597	344.46
3177.739	344.79
3180.878	343.79
3184.014	346.12
3187.149	343.79
3190.28	342.46
3193.409	346.79
3196.536	354.12
3199.659	351.12
3202.781	358.46
3205.9	356.79
3209.016	354.46
3212.13	360.79
3215.241	351.12
3218.35	352.46
3221.456	352.12
3224.56	353.12
3227.661	344.79
3230.76	342.46
3233.856	342.46
3236.95	333.12
3240.041	337.79
3243.13	338.12
3246.216	334.46
3249.3	334.46
3252.382	333.79
3255.46	332.12
3258.537	329.12
3261.611	332.46
3264.682	333.79
3267.751	330.46
3270.818	332.79
3273.882	331.12
3276.943	326.12
3280.002	322.12
3283.059	323.46
3286.113	316.46
3289.165	313.12
3292.214	311.12
3295.261	305.79
3298.306	298.46
3301.348	299.46
3304.387	290.46
3307.425	288.12
3310.459	283.46
3313.492	283.46
3316.521	279.79
3319.549	276.46
3322.574	272.79
3325.597	276.12
3328.617	272.46
3331.635	270.79
3334.65	268.79
3337.663	267.12
3340.674	270.12
3343.682	265.12
3346.688	269.46
3349.691	270.46
3352.692	263.79
3355.691	261.46
3358.687	264.12
3361.681	256.46
3364.673	257.12
3367.662	257.12
3370.649	250.46
3373.633	250.46
3376.615	247.79
3379.595	242.12
3382.572	239.79
3385.547	233.12
3388.52	229.12
3391.49	230.79
3394.458	225.12
3397.424	225.79
3400.387	221.79
3403.348	217.12
3406.307	218.79
3409.263	216.79
3412.217	214.12
3415.168	210.12
3418.118	214.46
3421.065	207.46
3424.009	207.12
3426.951	207.46
3429.891	200.79
3432.829	197.46
3435.764	192.79
3438.697	190.79
3441.628	187.46
3444.557	184.12
3447.483	176.12
3450.407	167.79
3453.328	167.12
3456.247	163.12
3459.164	158.46
3462.079	154.46
3464.991	147.46
3467.902	144.12
3470.809	141.79
3473.715	138.12
3476.618	131.12
3479.519	129.46
3482.418	124.79
3485.315	119.46
3488.209	118.79
3491.101	115.46
3493.99	110.79
3496.878	108.79
3499.763	108.46
3502.646	103.46
3505.527	101.79
3508.405	97.12
3511.281	92.79
3514.155	85.79
3517.027	84.79
3519.897	78.46
3522.764	76.12
3525.629	69.79
3528.492	70.79
3531.352	64.12
3534.211	63.79
3537.067	57.12
3539.921	55.79
3542.773	52.46
3545.622	46.79
3548.469	45.46
3551.315	41.79
3554.157	42.12
3556.998	35.46
3559.837	33.12
3562.673	31.79
3565.507	31.79
3568.339	26.12
3571.169	27.46
3573.996	23.12
3576.822	24.12
3579.645	20.79
3582.466	20.79
3585.285	18.12
3588.101	15.46
3590.916	13.46
3593.728	11.12
3596.538	10.79
3599.346	6.46
3602.152	6.46
3604.956	5.12
3607.757	5.79
3610.556	0.46
3613.354	1.46
3616.149	-1.21
3618.942	0.79
3621.732	-4.54
3624.521	-4.54
3627.307	-5.54
3630.092	-5.54
3632.874	-7.88
3635.654	-8.21
3638.432	-8.54
3641.208	-9.21
3643.982	-8.54
3646.753	-9.88
3649.523	-11.88
3652.29	-14.88
3655.055	-14.21
3657.818	-15.54
3660.579	-14.54
3663.338	-16.88
3666.095	-19.54
3668.849	-19.21
3671.602	-19.21
3674.352	-21.21
3677.101	-21.88
3679.847	-22.88
3682.591	-22.88
3685.333	-24.21
3688.073	-23.88
3690.811	-24.21
3693.547	-22.88
3696.281	-22.54
3699.013	-26.21
3701.742	-26.21
3704.47	-26.21
3707.195	-28.88
3709.919	-26.88
3712.64	-28.54
3715.359	-28.88
3718.076	-27.54
3720.792	-29.54
3723.505	-29.88
3726.216	-29.21
3728.925	-31.88
3731.632	-31.21
3734.336	-28.54
3737.039	-29.54
3739.74	-32.88
3742.439	-32.54
3745.136	-32.54
3747.83	-34.54
3750.523	-32.21
3753.213	-30.54
3755.902	-34.21
3758.589	-32.88
3761.273	-33.21
3763.956	-33.54
3766.636	-31.88
3769.315	-31.88
3771.991	-34.54
3774.665	-32.88
3777.338	-35.88
3780.008	-33.88
3782.677	-35.88
3785.343	-34.21
3788.007	-32.54
3790.67	-34.21
3793.33	-34.88
3795.989	-35.88
3798.645	-34.21
3801.299	-34.88
3803.952	-33.21
3806.602	-35.21
3809.251	-34.21
3811.897	-33.54
3814.542	-36.54
3817.184	-36.88
3819.825	-34.21
3822.463	-34.54
3825.1	-35.88
3827.735	-34.21
3830.367	-32.54
3832.998	-34.88
3835.627	-36.21
3838.253	-34.88
3840.878	-35.21
3843.501	-34.54
3846.122	-35.88
3848.741	-34.88
3851.358	-35.54
3853.973	-34.21
3856.586	-35.21
3859.197	-35.21
3861.806	-35.21
3864.414	-33.88
3867.019	-32.21
3869.622	-32.21
3872.224	-32.21
3874.823	-28.54
3877.421	-27.54
3880.016	-25.54
3882.61	-19.54
3885.202	-18.21
3887.792	-22.21
3890.38	-26.88
3892.966	-29.54
3895.55	-35.88
3898.132	-34.21
3900.713	-36.21
3903.291	-35.21
3905.868	-33.54
3908.442	-34.54
3911.015	-36.54
3913.586	-35.21
3916.155	-37.21
3918.722	-37.88
3921.287	-34.21
3923.85	-36.88
3926.411	-35.88
3928.971	-35.54
3931.528	-36.21
3934.084	-36.88
3936.638	-36.54
3939.19	-34.54
3941.74	-35.21
3944.288	-33.88
3946.834	-36.88
3949.378	-35.54
3951.921	-35.88
3954.462	-35.88
3957	-37.54
3959.537	-34.88
3962.072	-36.54
3964.606	-37.21
3967.137	-38.21
3969.667	-35.21
3972.194	-38.21
3974.72	-36.54
3977.244	-35.88
3979.766	-36.88
3982.286	-36.88
3984.805	-36.54
3987.321	-35.21
3989.836	-37.54
3992.349	-38.54
3994.86	-36.88
3997.369	-35.88
3999.877	-37.88
4002.382	-37.54
4004.886	-38.54
4007.388	-38.21
4009.888	-35.88
4012.386	-37.54
4014.883	-35.54
4017.377	-37.88
4019.87	-37.88
4022.361	-36.88
4024.85	-37.21
4027.338	-36.21
4029.823	-37.88
4032.307	-37.54
4034.789	-36.21
4037.269	-35.21
4039.747	-36.21
4042.224	-37.88
4044.699	-39.54
4047.172	-36.21
4049.643	-36.88
4052.112	-37.21
4054.58	-35.54
4057.046	-34.88
4059.51	-38.88
4061.972	-36.88
4064.432	-36.21
4066.891	-36.54
4069.348	-34.54
4071.803	-36.21
4074.256	-35.21
4076.708	-35.54
4079.158	-37.54
4081.606	-37.88
4084.052	-38.21
4086.497	-35.88
4088.939	-36.21
4091.38	-36.21
4093.819	-37.21
4096.257	-38.54
4098.693	-36.88
4101.127	-39.21
4103.559	-38.88
4105.989	-17.21
4108.418	-16.21
4110.845	-18.21
4113.27	-14.21
4115.694	-15.88
4118.115	-12.88
4120.535	-34.88
4122.954	-35.21
4125.37	-36.88
4127.785	-36.21
4130.198	-35.88
4132.609	-36.21
4135.019	-37.54
4137.427	-37.88
4139.833	-37.88
4142.237	-37.54
