Data from bac10^5 in water 2_I=1_T=5x3_3ml_RamanShift_1.txt Node
Date: Mon May 29 13:34:24 IDT 2017
User: aro
Spectrometer: QEPB0276
Trigger mode: 0
Integration Time (sec): 5.000000E0
Scans to average: 3
Electric dark correction enabled: true
Nonlinearity correction enabled: false
Boxcar width: 0
XAxis mode: Raman Shifts
Number of Pixels in Spectrum: 1044
>>>>>Begin Spectral Data<<<<<
160.701	-35.79
166.742	-0.12
172.777	118.54
178.805	490.88
184.826	1380.54
190.841	2895.21
196.849	4612.88
202.85	5757.21
208.845	6009.21
214.833	5795.54
220.815	5541.88
226.789	5342.54
232.758	5176.21
238.719	4973.21
244.674	4765.54
250.623	4516.21
256.565	4285.21
262.5	4030.54
268.429	3825.21
274.351	3642.21
280.267	3474.88
286.176	3331.54
292.079	3192.54
297.975	3057.54
303.865	2956.54
309.748	2880.88
315.625	2804.88
321.495	2743.21
327.359	2697.54
333.217	2656.54
339.068	2643.54
344.912	2616.88
350.751	2619.88
356.583	2606.54
362.408	2604.88
368.227	2613.88
374.04	2638.21
379.847	2662.88
385.647	2697.88
391.44	2664.88
397.228	2673.88
403.009	2691.88
408.784	2724.88
414.553	2804.54
420.315	2896.88
426.071	2886.88
431.821	2785.54
437.565	2700.88
443.302	2677.21
449.033	2646.21
454.758	2629.21
460.477	2604.21
466.189	2570.88
471.896	2570.54
477.596	2539.21
483.29	2525.88
488.978	2495.21
494.66	2484.88
500.335	2443.54
506.005	2398.21
511.668	2334.21
517.325	2279.54
522.977	2241.21
528.622	2198.54
534.261	2163.54
539.894	2140.88
545.521	2104.21
551.141	2101.88
556.756	2065.21
562.365	2047.21
567.968	2032.88
573.565	2011.21
579.155	1997.21
584.74	1965.21
590.319	1953.21
595.892	1925.21
601.459	1900.54
607.02	1891.54
612.575	1854.54
618.124	1844.54
623.667	1816.88
629.204	1790.21
634.735	1779.54
640.261	1795.21
645.781	1798.54
651.294	1801.54
656.802	1763.21
662.304	1717.88
667.8	1691.54
673.29	1670.54
678.775	1661.54
684.254	1633.88
689.726	1618.54
695.193	1601.21
700.655	1593.54
706.11	1560.21
711.56	1547.21
717.004	1533.54
722.442	1513.54
727.874	1495.54
733.301	1490.54
738.722	1470.54
744.137	1474.21
749.547	1467.21
754.951	1456.54
760.349	1452.21
765.741	1436.54
771.128	1411.54
776.509	1399.54
781.885	1401.54
787.254	1384.88
792.618	1377.54
797.977	1342.54
803.33	1333.54
808.677	1316.88
814.019	1300.21
819.355	1267.21
824.686	1248.21
830.011	1235.88
835.33	1222.21
840.644	1204.21
845.952	1186.88
851.255	1180.21
856.552	1153.88
861.844	1154.54
867.13	1129.88
872.41	1115.21
877.686	1106.54
882.955	1099.54
888.219	1071.21
893.478	1025.54
898.731	993.54
903.979	973.54
909.221	942.21
914.458	933.54
919.69	921.21
924.916	910.21
930.136	902.54
935.351	891.21
940.561	877.21
945.766	872.88
950.965	860.54
956.158	847.54
961.347	824.54
966.529	808.54
971.707	793.21
976.879	780.88
982.046	769.54
987.208	752.21
992.364	750.54
997.515	751.54
1002.66	749.21
1007.801	761.54
1012.936	763.54
1018.066	764.88
1023.19	771.54
1028.309	768.88
1033.423	771.21
1038.532	757.21
1043.636	748.21
1048.734	748.88
1053.827	725.88
1058.915	715.54
1063.998	712.21
1069.075	710.21
1074.147	701.88
1079.214	711.21
1084.276	709.88
1089.333	714.88
1094.385	714.54
1099.431	721.54
1104.472	711.54
1109.509	704.21
1114.54	692.54
1119.565	673.54
1124.586	662.54
1129.602	659.21
1134.613	647.21
1139.618	648.54
1144.619	650.88
1149.614	646.21
1154.604	654.54
1159.589	641.88
1164.57	651.54
1169.545	651.54
1174.515	650.88
1179.48	642.21
1184.44	637.21
1189.395	633.54
1194.345	629.21
1199.29	621.21
1204.23	625.21
1209.165	625.88
1214.095	632.21
1219.021	632.88
1223.941	637.21
1228.856	638.54
1233.766	644.54
1238.672	643.21
1243.572	636.21
1248.467	628.54
1253.358	614.21
1258.244	604.88
1263.124	595.21
1268	589.54
1272.871	574.54
1277.737	576.21
1282.599	564.88
1287.455	571.54
1292.306	566.54
1297.153	569.21
1301.995	568.54
1306.832	568.21
1311.664	573.54
1316.491	566.88
1321.314	562.88
1326.132	553.21
1330.945	537.88
1335.753	522.88
1340.556	518.21
1345.354	506.54
1350.148	501.21
1354.937	493.54
1359.722	489.88
1364.501	488.88
1369.276	487.54
1374.046	492.54
1378.811	494.54
1383.572	494.88
1388.327	485.88
1393.079	483.88
1397.825	479.54
1402.567	459.88
1407.304	459.54
1412.036	452.21
1416.764	454.21
1421.487	450.21
1426.205	453.54
1430.919	453.54
1435.628	454.54
1440.333	462.21
1445.032	468.54
1449.727	469.54
1454.418	475.54
1459.104	477.21
1463.785	470.54
1468.462	463.54
1473.134	449.54
1477.802	447.88
1482.465	448.88
1487.123	446.21
1491.777	458.21
1496.426	462.21
1501.071	465.54
1505.711	474.88
1510.347	490.21
1514.978	498.88
1519.604	499.21
1524.226	518.21
1528.844	511.54
1533.457	516.21
1538.065	524.21
1542.669	523.88
1547.269	522.54
1551.864	535.88
1556.454	541.88
1561.041	556.54
1565.622	567.54
1570.199	582.21
1574.772	611.54
1579.34	627.88
1583.904	653.88
1588.464	678.54
1593.019	710.21
1597.569	736.54
1602.115	747.54
1606.657	782.21
1611.195	806.54
1615.728	825.54
1620.256	855.21
1624.78	879.88
1629.3	910.21
1633.816	927.88
1638.327	936.88
1642.834	959.21
1647.336	964.54
1651.834	971.21
1656.328	952.54
1660.817	938.21
1665.302	897.21
1669.783	869.54
1674.259	832.54
1678.732	780.88
1683.199	734.88
1687.663	681.54
1692.122	632.54
1696.577	592.88
1701.028	552.54
1705.474	517.88
1709.917	489.21
1714.355	456.54
1718.788	430.54
1723.218	393.54
1727.643	367.88
1732.064	340.54
1736.481	312.21
1740.893	294.21
1745.301	272.54
1749.705	251.54
1754.105	227.88
1758.501	211.21
1762.893	196.88
1767.28	188.88
1771.663	175.88
1776.042	168.54
1780.417	160.54
1784.787	158.88
1789.154	153.88
1793.516	152.54
1797.874	146.88
1802.228	145.21
1806.578	137.21
1810.924	135.21
1815.266	129.21
1819.603	122.54
1823.937	114.21
1828.266	110.21
1832.591	107.88
1836.913	106.21
1841.23	99.54
1845.543	96.54
1849.852	99.54
1854.156	97.54
1858.457	95.21
1862.754	97.54
1867.047	95.21
1871.335	99.88
1875.62	96.54
1879.9	95.21
1884.177	96.54
1888.449	96.88
1892.718	94.54
1896.982	95.88
1901.243	96.54
1905.499	96.88
1909.752	97.21
1914	98.54
1918.245	103.21
1922.485	102.88
1926.722	105.54
1930.954	107.21
1935.183	109.21
1939.408	112.88
1943.628	112.54
1947.845	114.88
1952.058	112.21
1956.267	113.21
1960.472	109.88
1964.673	108.88
1968.87	107.88
1973.063	103.21
1977.252	104.88
1981.438	106.54
1985.619	107.88
1989.797	105.21
1993.971	105.21
1998.14	107.88
2002.306	114.54
2006.469	108.88
2010.627	115.88
2014.781	120.88
2018.932	120.21
2023.078	119.54
2027.221	119.21
2031.36	118.21
2035.495	119.54
2039.627	115.88
2043.754	120.54
2047.878	124.21
2051.998	123.88
2056.114	124.88
2060.226	128.21
2064.334	130.88
2068.439	132.88
2072.54	134.21
2076.637	138.54
2080.73	140.21
2084.82	143.88
2088.906	145.21
2092.988	143.54
2097.066	146.54
2101.14	140.88
2105.211	139.54
2109.278	138.54
2113.342	133.54
2117.401	129.21
2121.457	125.21
2125.509	131.21
2129.558	128.54
2133.602	119.54
2137.643	121.88
2141.681	115.54
2145.714	115.21
2149.744	111.54
2153.77	106.54
2157.793	106.21
2161.812	101.88
2165.827	96.88
2169.838	96.88
2173.846	88.54
2177.851	86.21
2181.851	77.54
2185.848	71.54
2189.841	66.54
2193.831	66.54
2197.817	62.21
2201.799	58.54
2205.778	54.88
2209.753	54.54
2213.725	45.88
2217.693	53.21
2221.657	47.54
2225.618	39.54
2229.575	42.21
2233.529	40.88
2237.479	33.21
2241.425	36.21
2245.368	24.21
2249.307	19.21
2253.243	15.21
2257.175	14.54
2261.104	9.54
2265.029	6.21
2268.95	6.88
2272.868	1.88
2276.783	-0.12
2280.694	-0.79
2284.601	-10.12
2288.505	-7.79
2292.405	-13.12
2296.302	-13.46
2300.195	-18.12
2304.085	-21.12
2307.971	-25.79
2311.854	-23.12
2315.734	-27.79
2319.609	-33.12
2323.482	-33.79
2327.351	-35.46
2331.216	-33.46
2335.078	-32.12
2338.937	-36.46
2342.792	-39.46
2346.643	-41.79
2350.492	-44.12
2354.336	-47.46
2358.178	-48.79
2362.015	-45.46
2365.85	-45.12
2369.681	-44.79
2373.508	-50.12
2377.333	-51.12
2381.153	-49.79
2384.971	-48.46
2388.785	-49.79
2392.595	-49.79
2396.402	-51.79
2400.206	-57.12
2404.007	-57.12
2407.804	-57.79
2411.597	-58.46
2415.388	-57.12
2419.174	-56.46
2422.958	-59.46
2426.738	-60.46
2430.515	-61.79
2434.289	-64.79
2438.059	-66.79
2441.825	-61.46
2445.589	-65.12
2449.349	-63.79
2453.106	-67.79
2456.859	-67.79
2460.61	-70.79
2464.356	-67.46
2468.1	-71.46
2471.84	-69.12
2475.577	-72.12
2479.311	-73.46
2483.041	-71.46
2486.768	-72.79
2490.492	-74.12
2494.213	-77.79
2497.93	-74.12
2501.644	-75.79
2505.355	-78.12
2509.062	-74.12
2512.766	-75.79
2516.467	-77.12
2520.165	-76.12
2523.859	-77.12
2527.551	-79.79
2531.239	-79.12
2534.923	-76.12
2538.605	-78.46
2542.283	-80.12
2545.958	-78.79
2549.63	-77.12
2553.299	-79.46
2556.964	-77.46
2560.626	-81.12
2564.285	-78.79
2567.941	-81.79
2571.594	-81.12
2575.243	-81.12
2578.89	-83.46
2582.533	-82.46
2586.173	-82.46
2589.809	-85.79
2593.443	-82.79
2597.073	-84.79
2600.701	-85.46
2604.325	-84.79
2607.946	-84.46
2611.564	-82.79
2615.178	-86.46
2618.79	-86.79
2622.398	-85.12
2626.004	-83.12
2629.606	-84.46
2633.205	-85.46
2636.801	-85.12
2640.394	-85.12
2643.983	-85.46
2647.57	-84.79
2651.153	-87.79
2654.734	-82.79
2658.311	-87.79
2661.885	-88.79
2665.456	-85.12
2669.025	-83.12
2672.589	-85.12
2676.151	-85.12
2679.71	-83.79
2683.266	-83.46
2686.819	-87.79
2690.368	-85.79
2693.915	-84.12
2697.458	-83.79
2700.999	-86.12
2704.536	-83.12
2708.071	-83.79
2711.602	-83.12
2715.13	-83.12
2718.656	-82.46
2722.178	-83.46
2725.697	-79.46
2729.214	-79.46
2732.727	-77.12
2736.237	-76.79
2739.744	-75.46
2743.249	-77.79
2746.75	-73.46
2750.248	-70.79
2753.743	-70.46
2757.236	-68.46
2760.725	-67.46
2764.211	-68.12
2767.695	-66.79
2771.175	-66.46
2774.652	-67.79
2778.127	-63.12
2781.598	-62.12
2785.067	-60.79
2788.532	-59.79
2791.995	-57.12
2795.455	-54.79
2798.911	-53.79
2802.365	-48.46
2805.816	-50.12
2809.264	-45.79
2812.709	-45.79
2816.151	-43.79
2819.59	-40.79
2823.026	-40.79
2826.46	-34.79
2829.89	-32.79
2833.318	-30.12
2836.742	-27.46
2840.164	-24.46
2843.583	-22.46
2846.999	-17.12
2850.412	-10.12
2853.822	-8.79
2857.229	-8.12
2860.634	-1.46
2864.035	7.21
2867.434	5.21
2870.83	9.88
2874.223	16.88
2877.613	18.21
2881	23.21
2884.385	27.21
2887.766	30.54
2891.145	34.21
2894.521	35.88
2897.894	42.88
2901.264	41.21
2904.631	45.54
2907.996	54.54
2911.358	60.21
2914.717	61.21
2918.073	64.88
2921.426	73.21
2924.777	79.88
2928.124	86.88
2931.469	98.54
2934.811	106.88
2938.15	112.54
2941.487	116.88
2944.821	123.88
2948.152	130.21
2951.48	134.88
2954.805	138.21
2958.128	148.54
2961.447	157.54
2964.765	159.21
2968.079	170.21
2971.39	175.21
2974.699	190.21
2978.005	200.21
2981.308	211.21
2984.609	222.54
2987.907	240.54
2991.202	250.21
2994.494	259.88
2997.784	276.88
3001.07	283.21
3004.355	299.88
3007.636	310.54
3010.915	320.21
3014.191	336.54
3017.464	348.21
3020.734	358.88
3024.002	365.54
3027.267	377.88
3030.53	388.21
3033.789	404.21
3037.046	416.54
3040.301	429.54
3043.552	448.21
3046.801	466.88
3050.048	477.21
3053.291	498.88
3056.532	526.21
3059.771	548.88
3063.006	567.21
3066.239	588.88
3069.469	616.54
3072.697	640.88
3075.922	660.88
3079.144	682.88
3082.364	705.54
3085.581	729.54
3088.795	752.21
3092.007	774.54
3095.216	792.88
3098.423	814.88
3101.627	837.54
3104.828	869.54
3108.026	892.21
3111.222	909.21
3114.416	948.54
3117.607	961.88
3120.795	992.54
3123.98	1021.88
3127.163	1052.21
3130.344	1080.54
3133.521	1103.88
3136.696	1139.54
3139.869	1163.88
3143.039	1191.54
3146.206	1213.88
3149.371	1225.88
3152.533	1236.54
3155.693	1251.88
3158.85	1264.88
3162.005	1275.54
3165.157	1282.88
3168.306	1296.21
3171.453	1300.88
3174.597	1317.88
3177.739	1312.54
3180.878	1322.54
3184.014	1324.54
3187.149	1325.21
3190.28	1338.54
3193.409	1337.88
3196.536	1355.21
3199.659	1367.21
3202.781	1371.21
3205.9	1364.88
3209.016	1371.54
3212.13	1365.54
3215.241	1367.54
3218.35	1355.21
3221.456	1356.54
3224.56	1347.54
3227.661	1335.88
3230.76	1323.54
3233.856	1304.54
3236.95	1302.54
3240.041	1294.21
3243.13	1278.54
3246.216	1285.54
3249.3	1281.88
3252.382	1273.21
3255.46	1267.88
3258.537	1262.54
3261.611	1270.21
3264.682	1255.88
3267.751	1253.54
3270.818	1254.88
3273.882	1252.88
3276.943	1237.21
3280.002	1221.88
3283.059	1214.88
3286.113	1200.21
3289.165	1180.88
3292.214	1178.88
3295.261	1141.54
3298.306	1138.54
3301.348	1113.88
3304.387	1094.54
3307.425	1082.88
3310.459	1058.54
3313.492	1049.21
3316.521	1044.88
3319.549	1037.54
3322.574	1029.54
3325.597	1019.88
3328.617	1015.54
3331.635	1004.88
3334.65	1008.54
3337.663	997.88
3340.674	1000.21
3343.682	996.21
3346.688	986.54
3349.691	988.88
3352.692	986.88
3355.691	973.88
3358.687	966.21
3361.681	963.54
3364.673	957.88
3367.662	940.88
3370.649	926.54
3373.633	916.54
3376.615	901.21
3379.595	894.88
3382.572	882.88
3385.547	868.88
3388.52	862.88
3391.49	847.21
3394.458	839.21
3397.424	824.54
3400.387	821.21
3403.348	804.54
3406.307	797.54
3409.263	796.54
3412.217	789.21
3415.168	772.88
3418.118	771.21
3421.065	771.88
3424.009	755.54
3426.951	752.54
3429.891	730.54
3432.829	718.54
3435.764	706.88
3438.697	695.21
3441.628	678.21
3444.557	656.21
3447.483	640.21
3450.407	619.54
3453.328	602.54
3456.247	583.88
3459.164	571.21
3462.079	561.21
3464.991	536.21
3467.902	519.54
3470.809	510.21
3473.715	494.88
3476.618	467.88
3479.519	462.88
3482.418	450.21
3485.315	442.88
3488.209	422.88
3491.101	413.54
3493.99	395.21
3496.878	392.21
3499.763	376.88
3502.646	367.21
3505.527	350.88
3508.405	335.21
3511.281	325.54
3514.155	309.21
3517.027	298.21
3519.897	284.88
3522.764	262.21
3525.629	252.21
3528.492	241.21
3531.352	223.21
3534.211	214.21
3537.067	197.88
3539.921	190.21
3542.773	173.88
3545.622	167.88
3548.469	149.88
3551.315	141.54
3554.157	134.54
3556.998	126.21
3559.837	115.88
3562.673	109.88
3565.507	102.21
3568.339	92.88
3571.169	90.21
3573.996	82.54
3576.822	72.21
3579.645	65.88
3582.466	57.21
3585.285	56.54
3588.101	43.54
3590.916	37.54
3593.728	30.88
3596.538	25.54
3599.346	21.88
3602.152	15.88
3604.956	5.54
3607.757	1.88
3610.556	-4.12
3613.354	-8.46
3616.149	-11.46
3618.942	-13.46
3621.732	-19.46
3624.521	-26.46
3627.307	-31.46
3630.092	-32.46
3632.874	-35.12
3635.654	-39.12
3638.432	-40.79
3641.208	-47.46
3643.982	-51.12
3646.753	-50.79
3649.523	-56.12
3652.29	-59.12
3655.055	-61.79
3657.818	-67.46
3660.579	-67.46
3663.338	-73.79
3666.095	-76.12
3668.849	-77.12
3671.602	-79.12
3674.352	-84.46
3677.101	-86.79
3679.847	-86.79
3682.591	-94.79
3685.333	-93.79
3688.073	-96.46
3690.811	-100.46
3693.547	-99.46
3696.281	-103.12
3699.013	-105.46
3701.742	-103.46
3704.47	-109.12
3707.195	-108.79
3709.919	-110.12
3712.64	-112.46
3715.359	-113.79
3718.076	-113.79
3720.792	-118.12
3723.505	-117.79
3726.216	-118.12
3728.925	-120.79
3731.632	-119.46
3734.336	-117.46
3737.039	-120.79
3739.74	-124.12
3742.439	-123.46
3745.136	-124.46
3747.83	-125.12
3750.523	-127.46
3753.213	-123.46
3755.902	-127.46
3758.589	-127.79
3761.273	-127.79
3763.956	-127.46
3766.636	-126.46
3769.315	-129.79
3771.991	-130.12
3774.665	-130.12
3777.338	-130.46
3780.008	-130.79
3782.677	-131.79
3785.343	-132.79
3788.007	-131.12
3790.67	-132.46
3793.33	-132.46
3795.989	-134.79
3798.645	-134.12
3801.299	-134.79
3803.952	-133.46
3806.602	-134.79
3809.251	-134.46
3811.897	-135.46
3814.542	-136.46
3817.184	-135.79
3819.825	-134.12
3822.463	-134.79
3825.1	-137.79
3827.735	-136.79
3830.367	-135.79
3832.998	-136.46
3835.627	-136.46
3838.253	-136.46
3840.878	-136.46
3843.501	-136.79
3846.122	-136.46
3848.741	-137.12
3851.358	-137.12
3853.973	-137.46
3856.586	-137.79
3859.197	-136.46
3861.806	-136.79
3864.414	-134.79
3867.019	-134.46
3869.622	-132.79
3872.224	-133.79
3874.823	-131.79
3877.421	-124.46
3880.016	-119.46
3882.61	-113.12
3885.202	-111.12
3887.792	-115.46
3890.38	-124.79
3892.966	-130.46
3895.55	-136.79
3898.132	-137.46
3900.713	-138.79
3903.291	-138.46
3905.868	-137.79
3908.442	-138.79
3911.015	-138.46
3913.586	-139.12
3916.155	-140.46
3918.722	-140.79
3921.287	-139.12
3923.85	-141.12
3926.411	-140.79
3928.971	-140.46
3931.528	-139.12
3934.084	-141.12
3936.638	-141.79
3939.19	-140.79
3941.74	-141.79
3944.288	-140.46
3946.834	-141.79
3949.378	-140.12
3951.921	-140.79
3954.462	-140.79
3957	-141.12
3959.537	-139.12
3962.072	-138.12
3964.606	-141.79
3967.137	-140.79
3969.667	-140.46
3972.194	-140.46
3974.72	-138.79
3977.244	-140.12
3979.766	-138.79
3982.286	-140.12
3984.805	-139.79
3987.321	-139.46
3989.836	-142.79
3992.349	-140.79
3994.86	-136.46
3997.369	-138.79
3999.877	-137.46
4002.382	-139.12
4004.886	-139.79
4007.388	-142.46
4009.888	-139.79
4012.386	-140.79
4014.883	-137.79
4017.377	-139.46
4019.87	-140.12
4022.361	-141.46
4024.85	-139.79
4027.338	-138.79
4029.823	-139.79
4032.307	-141.12
4034.789	-137.79
4037.269	-139.79
4039.747	-140.46
4042.224	-141.12
4044.699	-142.79
4047.172	-140.12
4049.643	-140.12
4052.112	-140.12
4054.58	-140.12
4057.046	-140.12
4059.51	-141.46
4061.972	-139.12
4064.432	-139.12
4066.891	-138.79
4069.348	-139.79
4071.803	-139.12
4074.256	-138.46
4076.708	-138.46
4079.158	-139.79
4081.606	-141.79
4084.052	-139.79
4086.497	-139.46
4088.939	-141.46
4091.38	-140.79
4093.819	-139.12
4096.257	-144.12
4098.693	-142.46
4101.127	-145.46
4103.559	-144.12
4105.989	-86.79
4108.418	-86.46
4110.845	-80.46
4113.27	-76.79
4115.694	-68.79
4118.115	-56.46
4120.535	-138.79
4122.954	-138.79
4125.37	-138.79
4127.785	-139.79
4130.198	-138.46
4132.609	-139.79
4135.019	-143.12
4137.427	-144.12
4139.833	-143.46
4142.237	-142.79
