Data from bac10^5 in water 3_I=1_T=5x3_3ml_RamanShift_1.txt Node
Date: Mon May 29 13:36:20 IDT 2017
User: aro
Spectrometer: QEPB0276
Trigger mode: 0
Integration Time (sec): 5.000000E0
Scans to average: 3
Electric dark correction enabled: true
Nonlinearity correction enabled: false
Boxcar width: 0
XAxis mode: Raman Shifts
Number of Pixels in Spectrum: 1044
>>>>>Begin Spectral Data<<<<<
160.701	-36.83
166.742	0.83
172.777	123.17
178.805	501.5
184.826	1424.17
190.841	2994.5
196.849	4788.83
202.85	5953.17
208.845	6207.17
214.833	5979.17
220.815	5730.17
226.789	5534.17
232.758	5330.5
238.719	5133.83
244.674	4926.17
250.623	4662.17
256.565	4425.5
262.5	4187.5
268.429	3962.5
274.351	3777.5
280.267	3588.17
286.176	3443.5
292.079	3298.17
297.975	3176.17
303.865	3079.17
309.748	2981.83
315.625	2914.17
321.495	2854.83
327.359	2794.83
333.217	2761.5
339.068	2727.83
344.912	2729.83
350.751	2701.5
356.583	2703.5
362.408	2703.17
368.227	2699.5
374.04	2729.17
379.847	2742.83
385.647	2773.83
391.44	2772.83
397.228	2756.5
403.009	2787.5
408.784	2813.83
414.553	2882.5
420.315	2985.17
426.071	2982.17
431.821	2879.17
437.565	2796.83
443.302	2773.83
449.033	2734.83
454.758	2721.17
460.477	2689.83
466.189	2667.17
471.896	2637.83
477.596	2629.17
483.29	2619.17
488.978	2590.5
494.66	2569.5
500.335	2523.17
506.005	2474.5
511.668	2414.5
517.325	2365.83
522.977	2302.5
528.622	2282.5
534.261	2245.17
539.894	2216.17
545.521	2188.5
551.141	2170.83
556.756	2147.17
562.365	2126.5
567.968	2109.83
573.565	2092.83
579.155	2071.17
584.74	2047.83
590.319	2020.17
595.892	1992.17
601.459	1980.17
607.02	1953.83
612.575	1934.83
618.124	1900.17
623.667	1878.83
629.204	1858.5
634.735	1857.5
640.261	1851.5
645.781	1870.5
651.294	1854.5
656.802	1828.83
662.304	1775.83
667.8	1753.5
673.29	1733.83
678.775	1708.83
684.254	1697.83
689.726	1689.17
695.193	1662.5
700.655	1634.83
706.11	1626.17
711.56	1603.17
717.004	1585.5
722.442	1570.17
727.874	1560.83
733.301	1532.17
738.722	1530.83
744.137	1516.5
749.547	1511.83
754.951	1516.5
760.349	1508.83
765.741	1488.17
771.128	1464.17
776.509	1451.17
781.885	1441.5
787.254	1428.5
792.618	1418.17
797.977	1396.17
803.33	1383.5
808.677	1353.83
814.019	1340.83
819.355	1311.5
824.686	1295.17
830.011	1282.17
835.33	1255.83
840.644	1243.17
845.952	1229.83
851.255	1207.83
856.552	1196.17
861.844	1173.17
867.13	1172.17
872.41	1148.17
877.686	1152.5
882.955	1129.5
888.219	1101.5
893.478	1063.17
898.731	1029.5
903.979	998.5
909.221	983.5
914.458	957.83
919.69	956.5
924.916	943.83
930.136	931.5
935.351	929.5
940.561	917.5
945.766	902.5
950.965	894.17
956.158	877.5
961.347	860.5
966.529	842.5
971.707	816.83
976.879	803.5
982.046	795.17
987.208	779.17
992.364	783.83
997.515	779.17
1002.66	783.17
1007.801	792.5
1012.936	788.83
1018.066	790.83
1023.19	797.83
1028.309	796.17
1033.423	792.5
1038.532	776.17
1043.636	781.17
1048.734	766.17
1053.827	763.17
1058.915	743.5
1063.998	733.5
1069.075	734.5
1074.147	723.83
1079.214	732.83
1084.276	740.17
1089.333	740.5
1094.385	746.83
1099.431	735.5
1104.472	730.5
1109.509	734.5
1114.54	713.5
1119.565	699.83
1124.586	688.17
1129.602	680.83
1134.613	674.5
1139.618	663.83
1144.619	665.83
1149.614	666.17
1154.604	675.83
1159.589	680.83
1164.57	675.5
1169.545	678.17
1174.515	674.17
1179.48	668.17
1184.44	664.17
1189.395	654.5
1194.345	643.83
1199.29	655.5
1204.23	649.17
1209.165	650.17
1214.095	646.83
1219.021	652.17
1223.941	655.17
1228.856	660.17
1233.766	657.5
1238.672	662.17
1243.572	652.83
1248.467	650.83
1253.358	640.17
1258.244	625.5
1263.124	615.83
1268	602.83
1272.871	594.83
1277.737	590.17
1282.599	587.17
1287.455	591.5
1292.306	589.5
1297.153	583.83
1301.995	586.5
1306.832	588.5
1311.664	589.17
1316.491	583.17
1321.314	580.5
1326.132	569.17
1330.945	560.17
1335.753	545.5
1340.556	536.17
1345.354	521.17
1350.148	520.17
1354.937	511.83
1359.722	500.5
1364.501	506.17
1369.276	510.17
1374.046	506.83
1378.811	508.5
1383.572	505.5
1388.327	501.83
1393.079	503.17
1397.825	493.83
1402.567	474.83
1407.304	473.5
1412.036	470.17
1416.764	463.5
1421.487	467.17
1426.205	470.83
1430.919	465.5
1435.628	475.5
1440.333	479.5
1445.032	482.5
1449.727	481.5
1454.418	495.17
1459.104	488.17
1463.785	484.5
1468.462	475.5
1473.134	463.83
1477.802	461.83
1482.465	459.83
1487.123	460.83
1491.777	467.17
1496.426	468.17
1501.071	483.5
1505.711	489.83
1510.347	500.83
1514.978	511.17
1519.604	522.83
1524.226	523.17
1528.844	521.5
1533.457	533.17
1538.065	534.5
1542.669	537.5
1547.269	541.83
1551.864	544.83
1556.454	567.83
1561.041	574.5
1565.622	589.83
1570.199	607.17
1574.772	631.17
1579.34	654.17
1583.904	682.17
1588.464	697.83
1593.019	730.83
1597.569	755.17
1602.115	782.17
1606.657	809.83
1611.195	836.83
1615.728	848.17
1620.256	879.17
1624.78	912.17
1629.3	933.83
1633.816	957.5
1638.327	989.5
1642.834	995.5
1647.336	998.17
1651.834	1000.17
1656.328	974.5
1660.817	962.17
1665.302	934.83
1669.783	900.83
1674.259	854.83
1678.732	806.83
1683.199	750.17
1687.663	704.83
1692.122	656.17
1696.577	613.17
1701.028	571.17
1705.474	528.17
1709.917	504.17
1714.355	466.5
1718.788	436.17
1723.218	406.83
1727.643	384.17
1732.064	354.5
1736.481	322.83
1740.893	304.17
1745.301	276.17
1749.705	262.17
1754.105	236.17
1758.501	216.5
1762.893	205.5
1767.28	193.83
1771.663	182.5
1776.042	175.83
1780.417	165.5
1784.787	167.5
1789.154	159.83
1793.516	152.5
1797.874	150.17
1802.228	147.83
1806.578	143.17
1810.924	140.83
1815.266	134.5
1819.603	125.83
1823.937	117.5
1828.266	113.83
1832.591	109.83
1836.913	106.5
1841.23	106.83
1845.543	102.83
1849.852	100.83
1854.156	100.5
1858.457	99.17
1862.754	97.83
1867.047	100.17
1871.335	102.83
1875.62	102.17
1879.9	104.5
1884.177	100.17
1888.449	102.83
1892.718	102.83
1896.982	97.17
1901.243	98.83
1905.499	99.5
1909.752	98.17
1914	103.5
1918.245	103.5
1922.485	103.17
1926.722	111.5
1930.954	112.17
1935.183	109.17
1939.408	118.5
1943.628	116.17
1947.845	118.17
1952.058	118.17
1956.267	115.5
1960.472	111.17
1964.673	110.5
1968.87	107.5
1973.063	107.5
1977.252	109.17
1981.438	107.5
1985.619	107.5
1989.797	110.17
1993.971	111.5
1998.14	110.83
2002.306	117.17
2006.469	116.17
2010.627	117.83
2014.781	122.5
2018.932	121.5
2023.078	128.17
2027.221	123.17
2031.36	117.17
2035.495	121.5
2039.627	124.17
2043.754	125.17
2047.878	122.83
2051.998	126.83
2056.114	129.17
2060.226	132.83
2064.334	136.5
2068.439	138.17
2072.54	141.83
2076.637	143.17
2080.73	145.83
2084.82	145.5
2088.906	147.17
2092.988	148.17
2097.066	149.17
2101.14	144.5
2105.211	145.17
2109.278	142.83
2113.342	136.83
2117.401	138.83
2121.457	136.83
2125.509	135.5
2129.558	131.5
2133.602	126.83
2137.643	126.83
2141.681	122.83
2145.714	120.17
2149.744	115.5
2153.77	114.5
2157.793	109.17
2161.812	105.17
2165.827	95.17
2169.838	91.83
2173.846	91.17
2177.851	83.83
2181.851	80.5
2185.848	76.17
2189.841	74.17
2193.831	67.17
2197.817	67.17
2201.799	59.5
2205.778	61.83
2209.753	55.5
2213.725	54.5
2217.693	52.17
2221.657	49.17
2225.618	44.83
2229.575	44.83
2233.529	39.83
2237.479	34.83
2241.425	34.83
2245.368	28.5
2249.307	22.5
2253.243	22.17
2257.175	19.17
2261.104	15.17
2265.029	7.17
2268.95	3.5
2272.868	4.5
2276.783	2.17
2280.694	-2.17
2284.601	-4.17
2288.505	-11.83
2292.405	-13.83
2296.302	-15.83
2300.195	-13.83
2304.085	-18.17
2307.971	-20.83
2311.854	-25.17
2315.734	-25.5
2319.609	-30.17
2323.482	-31.83
2327.351	-34.17
2331.216	-30.83
2335.078	-33.17
2338.937	-38.17
2342.792	-39.17
2346.643	-39.5
2350.492	-42.83
2354.336	-46.5
2358.178	-42.83
2362.015	-44.17
2365.85	-46.5
2369.681	-47.17
2373.508	-47.5
2377.333	-49.5
2381.153	-48.17
2384.971	-50.17
2388.785	-52.17
2392.595	-51.17
2396.402	-53.83
2400.206	-54.83
2404.007	-58.83
2407.804	-57.83
2411.597	-55.83
2415.388	-57.5
2419.174	-57.83
2422.958	-59.83
2426.738	-60.5
2430.515	-59.83
2434.289	-63.83
2438.059	-65.83
2441.825	-61.17
2445.589	-63.5
2449.349	-65.5
2453.106	-69.17
2456.859	-69.5
2460.61	-71.17
2464.356	-72.17
2468.1	-72.83
2471.84	-71.5
2475.577	-73.17
2479.311	-74.83
2483.041	-72.5
2486.768	-73.17
2490.492	-75.5
2494.213	-76.17
2497.93	-70.5
2501.644	-76.5
2505.355	-75.5
2509.062	-75.17
2512.766	-76.17
2516.467	-75.5
2520.165	-78.83
2523.859	-76.83
2527.551	-80.83
2531.239	-79.17
2534.923	-76.83
2538.605	-80.83
2542.283	-76.83
2545.958	-79.83
2549.63	-78.5
2553.299	-80.5
2556.964	-77.83
2560.626	-81.83
2564.285	-81.83
2567.941	-82.83
2571.594	-83.17
2575.243	-84.17
2578.89	-82.5
2582.533	-84.17
2586.173	-84.17
2589.809	-86.17
2593.443	-84.5
2597.073	-87.5
2600.701	-87.5
2604.325	-87.83
2607.946	-88.5
2611.564	-86.17
2615.178	-89.83
2618.79	-86.83
2622.398	-85.17
2626.004	-86.5
2629.606	-85.17
2633.205	-86.83
2636.801	-87.5
2640.394	-87.5
2643.983	-86.5
2647.57	-87.17
2651.153	-88.83
2654.734	-88.5
2658.311	-85.83
2661.885	-88.17
2665.456	-88.83
2669.025	-88.5
2672.589	-87.5
2676.151	-90.17
2679.71	-85.83
2683.266	-88.5
2686.819	-88.17
2690.368	-86.5
2693.915	-86.83
2697.458	-86.5
2700.999	-87.5
2704.536	-87.17
2708.071	-85.17
2711.602	-84.5
2715.13	-85.5
2718.656	-83.83
2722.178	-82.5
2725.697	-84.5
2729.214	-81.17
2732.727	-78.83
2736.237	-79.17
2739.744	-79.5
2743.249	-79.5
2746.75	-74.5
2750.248	-74.83
2753.743	-72.83
2757.236	-71.5
2760.725	-70.5
2764.211	-69.83
2767.695	-68.17
2771.175	-68.83
2774.652	-69.17
2778.127	-63.83
2781.598	-65.17
2785.067	-63.17
2788.532	-60.83
2791.995	-62.83
2795.455	-59.17
2798.911	-55.83
2802.365	-52.17
2805.816	-48.17
2809.264	-48.5
2812.709	-49.17
2816.151	-44.17
2819.59	-42.5
2823.026	-42.5
2826.46	-36.5
2829.89	-34.17
2833.318	-30.5
2836.742	-27.17
2840.164	-24.5
2843.583	-22.17
2846.999	-16.5
2850.412	-16.5
2853.822	-11.17
2857.229	-8.17
2860.634	-0.5
2864.035	-0.17
2867.434	4.5
2870.83	11.17
2874.223	11.5
2877.613	18.83
2881	22.83
2884.385	24.83
2887.766	30.17
2891.145	34.5
2894.521	35.17
2897.894	43.83
2901.264	43.5
2904.631	44.17
2907.996	55.17
2911.358	60.5
2914.717	62.17
2918.073	68.17
2921.426	75.83
2924.777	82.17
2928.124	90.17
2931.469	98.17
2934.811	106.17
2938.15	115.17
2941.487	121.17
2944.821	126.5
2948.152	132.5
2951.48	136.83
2954.805	146.17
2958.128	156.83
2961.447	155.17
2964.765	162.17
2968.079	170.17
2971.39	184.5
2974.699	195.17
2978.005	202.5
2981.308	214.83
2984.609	229.5
2987.907	244.17
2991.202	260.17
2994.494	268.17
2997.784	284.83
3001.07	299.5
3004.355	307.5
3007.636	326.5
3010.915	332.83
3014.191	346.5
3017.464	355.83
3020.734	366.17
3024.002	378.17
3027.267	389.83
3030.53	400.17
3033.789	416.5
3037.046	421.83
3040.301	442.17
3043.552	458.5
3046.801	479.17
3050.048	502.17
3053.291	515.17
3056.532	540.5
3059.771	562.17
3063.006	583.5
3066.239	609.83
3069.469	634.5
3072.697	657.5
3075.922	676.83
3079.144	705.83
3082.364	732.17
3085.581	740.83
3088.795	777.5
3092.007	790.17
3095.216	818.5
3098.423	837.17
3101.627	873.17
3104.828	895.5
3108.026	913.5
3111.222	939.17
3114.416	961.5
3117.607	984.83
3120.795	1017.5
3123.98	1053.83
3127.163	1081.5
3130.344	1107.83
3133.521	1137.17
3136.696	1166.83
3139.869	1200.83
3143.039	1224.5
3146.206	1241.17
3149.371	1267.17
3152.533	1279.5
3155.693	1292.83
3158.85	1298.83
3162.005	1315.5
3165.157	1325.17
3168.306	1329.17
3171.453	1334.17
3174.597	1345.83
3177.739	1352.17
3180.878	1350.83
3184.014	1361.5
3187.149	1376.5
3190.28	1379.17
3193.409	1389.5
3196.536	1385.17
3199.659	1403.5
3202.781	1410.5
3205.9	1407.5
3209.016	1407.17
3212.13	1410.83
3215.241	1407.5
3218.35	1407.17
3221.456	1390.83
3224.56	1385.5
3227.661	1379.5
3230.76	1355.83
3233.856	1352.83
3236.95	1335.83
3240.041	1338.83
3243.13	1319.17
3246.216	1324.17
3249.3	1315.5
3252.382	1314.17
3255.46	1303.17
3258.537	1302.83
3261.611	1301.17
3264.682	1300.17
3267.751	1298.17
3270.818	1290.5
3273.882	1292.17
3276.943	1275.5
3280.002	1266.83
3283.059	1253.17
3286.113	1246.5
3289.165	1216.5
3292.214	1205.5
3295.261	1191.17
3298.306	1166.83
3301.348	1148.17
3304.387	1129.17
3307.425	1122.5
3310.459	1107.83
3313.492	1102.5
3316.521	1081.17
3319.549	1066.83
3322.574	1056.83
3325.597	1056.83
3328.617	1046.17
3331.635	1037.5
3334.65	1040.83
3337.663	1034.5
3340.674	1028.5
3343.682	1023.5
3346.688	1019.83
3349.691	1027.83
3352.692	1016.17
3355.691	1009.5
3358.687	1008.5
3361.681	998.17
3364.673	983.17
3367.662	964.83
3370.649	954.5
3373.633	949.5
3376.615	932.17
3379.595	926.17
3382.572	909.17
3385.547	906.5
3388.52	890.17
3391.49	874.17
3394.458	860.5
3397.424	857.17
3400.387	849.17
3403.348	840.17
3406.307	823.17
3409.263	818.5
3412.217	811.17
3415.168	802.5
3418.118	801.83
3421.065	791.17
3424.009	789.5
3426.951	770.5
3429.891	761.83
3432.829	751.83
3435.764	730.83
3438.697	708.5
3441.628	693.17
3444.557	679.5
3447.483	663.17
3450.407	643.17
3453.328	632.5
3456.247	605.17
3459.164	595.17
3462.079	571.5
3464.991	555.17
3467.902	535.5
3470.809	521.83
3473.715	506.5
3476.618	499.83
3479.519	472.83
3482.418	472.83
3485.315	450.83
3488.209	438.83
3491.101	424.5
3493.99	417.83
3496.878	406.5
3499.763	392.83
3502.646	375.5
3505.527	367.17
3508.405	359.83
3511.281	334.5
3514.155	323.83
3517.027	305.5
3519.897	294.83
3522.764	273.83
3525.629	260.17
3528.492	251.83
3531.352	234.83
3534.211	227.17
3537.067	208.17
3539.921	195.83
3542.773	182.5
3545.622	173.83
3548.469	166.17
3551.315	152.83
3554.157	148.5
3556.998	133.17
3559.837	123.17
3562.673	121.5
3565.507	113.17
3568.339	99.83
3571.169	95.83
3573.996	84.83
3576.822	83.83
3579.645	71.83
3582.466	66.5
3585.285	56.5
3588.101	51.17
3590.916	42.83
3593.728	37.17
3596.538	32.5
3599.346	24.17
3602.152	19.17
3604.956	9.83
3607.757	10.5
3610.556	2.17
3613.354	-4.17
3616.149	-10.5
3618.942	-11.83
3621.732	-16.83
3624.521	-24.5
3627.307	-23.83
3630.092	-30.5
3632.874	-32.17
3635.654	-37.83
3638.432	-40.83
3641.208	-46.17
3643.982	-49.17
3646.753	-49.5
3649.523	-55.5
3652.29	-55.83
3655.055	-63.17
3657.818	-64.83
3660.579	-70.17
3663.338	-71.83
3666.095	-74.83
3668.849	-79.17
3671.602	-80.17
3674.352	-84.5
3677.101	-86.83
3679.847	-88.83
3682.591	-92.5
3685.333	-94.83
3688.073	-97.17
3690.811	-100.5
3693.547	-101.83
3696.281	-101.5
3699.013	-106.5
3701.742	-105.83
3704.47	-109.83
3707.195	-109.83
3709.919	-111.83
3712.64	-114.17
3715.359	-113.5
3718.076	-116.17
3720.792	-116.5
3723.505	-118.17
3726.216	-120.17
3728.925	-121.17
3731.632	-121.17
3734.336	-120.83
3737.039	-122.17
3739.74	-124.83
3742.439	-125.83
3745.136	-124.17
3747.83	-128.5
3750.523	-128.17
3753.213	-127.17
3755.902	-129.5
3758.589	-129.83
3761.273	-129.83
3763.956	-130.17
3766.636	-131.17
3769.315	-131.5
3771.991	-131.5
3774.665	-130.83
3777.338	-132.5
3780.008	-133.17
3782.677	-134.5
3785.343	-133.83
3788.007	-133.5
3790.67	-135.5
3793.33	-134.5
3795.989	-135.5
3798.645	-135.5
3801.299	-138.5
3803.952	-137.83
3806.602	-137.17
3809.251	-138.17
3811.897	-135.5
3814.542	-138.83
3817.184	-137.5
3819.825	-135.17
3822.463	-136.17
3825.1	-140.5
3827.735	-137.17
3830.367	-137.83
3832.998	-139.5
3835.627	-137.83
3838.253	-138.17
3840.878	-138.5
3843.501	-141.17
3846.122	-140.5
3848.741	-139.5
3851.358	-138.83
3853.973	-140.5
3856.586	-142.5
3859.197	-141.5
3861.806	-139.5
3864.414	-139.17
3867.019	-137.5
3869.622	-136.17
3872.224	-137.5
3874.823	-133.17
3877.421	-129.5
3880.016	-123.5
3882.61	-115.5
3885.202	-113.83
3887.792	-120.17
3890.38	-127.5
3892.966	-133.17
3895.55	-139.83
3898.132	-140.5
3900.713	-141.5
3903.291	-141.5
3905.868	-140.83
3908.442	-141.83
3911.015	-142.17
3913.586	-144.17
3916.155	-144.83
3918.722	-145.5
3921.287	-141.5
3923.85	-144.83
3926.411	-144.83
3928.971	-143.17
3931.528	-142.83
3934.084	-143.5
3936.638	-144.5
3939.19	-143.17
3941.74	-142.5
3944.288	-142.5
3946.834	-144.83
3949.378	-142.17
3951.921	-145.17
3954.462	-144.5
3957	-143.83
3959.537	-143.17
3962.072	-142.5
3964.606	-143.17
3967.137	-145.17
3969.667	-141.5
3972.194	-145.17
3974.72	-141.83
3977.244	-141.83
3979.766	-141.83
3982.286	-143.17
3984.805	-143.17
3987.321	-140.17
3989.836	-143.5
3992.349	-141.83
3994.86	-140.83
3997.369	-141.83
3999.877	-141.5
4002.382	-142.17
4004.886	-141.83
4007.388	-144.83
4009.888	-141.5
4012.386	-142.83
4014.883	-141.5
4017.377	-143.83
4019.87	-140.83
4022.361	-143.83
4024.85	-142.17
4027.338	-143.5
4029.823	-144.83
4032.307	-144.83
4034.789	-142.83
4037.269	-144.17
4039.747	-145.17
4042.224	-145.17
4044.699	-145.17
4047.172	-144.5
4049.643	-143.17
4052.112	-144.5
4054.58	-143.83
4057.046	-144.17
4059.51	-144.17
4061.972	-141.83
4064.432	-144.5
4066.891	-142.17
4069.348	-141.5
4071.803	-144.5
4074.256	-142.83
4076.708	-144.5
4079.158	-143.5
4081.606	-145.5
4084.052	-144.17
4086.497	-143.83
4088.939	-143.17
4091.38	-143.83
4093.819	-143.83
4096.257	-146.17
4098.693	-145.83
4101.127	-146.83
4103.559	-147.5
4105.989	-90.83
4108.418	-86.17
4110.845	-82.17
4113.27	-76.5
4115.694	-67.5
4118.115	-57.17
4120.535	-141.83
4122.954	-143.17
4125.37	-142.5
4127.785	-144.17
4130.198	-142.83
4132.609	-142.83
4135.019	-146.5
4137.427	-147.17
4139.833	-147.5
4142.237	-147.5
