Data from Light on no liquid_I=1_T=5x3_RamanShift_1.txt Node
Date: Mon May 29 13:45:31 IDT 2017
User: aro
Spectrometer: QEPB0276
Trigger mode: 0
Integration Time (sec): 5.000000E0
Scans to average: 3
Electric dark correction enabled: true
Nonlinearity correction enabled: false
Boxcar width: 0
XAxis mode: Raman Shifts
Number of Pixels in Spectrum: 1044
>>>>>Begin Spectral Data<<<<<
160.701	8.71
166.742	10.04
172.777	12.04
178.805	24.04
184.826	56.04
190.841	112.71
196.849	172.37
202.85	213.37
208.845	235.37
214.833	233.71
220.815	234.71
226.789	243.38
232.758	250.04
238.719	256.38
244.674	257.71
250.623	264.04
256.565	265.38
262.5	269.04
268.429	274.71
274.351	280.71
280.267	282.04
286.176	291.71
292.079	295.04
297.975	302.71
303.865	305.71
309.748	307.04
315.625	315.04
321.495	314.37
327.359	319.37
333.217	323.04
339.068	326.04
344.912	332.37
350.751	335.38
356.583	333.71
362.408	343.04
368.227	350.71
374.04	372.71
379.847	394.04
385.647	412.71
391.44	402.71
397.228	379.38
403.009	377.38
408.784	418.71
414.553	493.37
420.315	592.37
426.071	597.37
431.821	495.37
437.565	413.04
443.302	386.38
449.033	367.71
454.758	362.71
460.477	355.37
466.189	350.04
471.896	335.71
477.596	334.04
483.29	327.04
488.978	333.71
494.66	324.37
500.335	308.04
506.005	279.37
511.668	244.04
517.325	211.37
522.977	189.04
528.622	171.71
534.261	158.38
539.894	150.37
545.521	142.04
551.141	138.37
556.756	129.04
562.365	133.04
567.968	128.37
573.565	129.71
579.155	132.38
584.74	130.04
590.319	124.71
595.892	128.04
601.459	128.04
607.02	127.71
612.575	123.37
618.124	123.71
623.667	117.37
629.204	115.04
634.735	125.37
640.261	144.04
645.781	168.71
651.294	183.71
656.802	157.04
662.304	125.04
667.8	110.38
673.29	102.04
678.775	99.71
684.254	94.37
689.726	96.37
695.193	93.71
700.655	91.37
706.11	88.04
711.56	89.71
717.004	87.37
722.442	91.37
727.874	89.04
733.301	94.71
738.722	95.71
744.137	99.37
749.547	107.71
754.951	112.04
760.349	112.71
765.741	104.38
771.128	102.04
776.509	100.38
781.885	107.37
787.254	112.71
792.618	117.04
797.977	118.71
803.33	114.04
808.677	115.71
814.019	114.71
819.355	112.04
824.686	111.04
830.011	106.37
835.33	103.04
840.644	100.04
845.952	98.37
851.255	93.71
856.552	89.38
861.844	82.38
867.13	80.37
872.41	81.38
877.686	80.38
882.955	78.04
888.219	76.38
893.478	76.04
898.731	73.04
903.979	71.71
909.221	68.38
914.458	71.04
919.69	68.71
924.916	69.71
930.136	68.71
935.351	68.04
940.561	68.04
945.766	70.37
950.965	69.37
956.158	69.71
961.347	64.71
966.529	66.04
971.707	67.71
976.879	63.71
982.046	65.38
987.208	64.71
992.364	64.71
997.515	66.71
1002.66	65.04
1007.801	64.38
1012.936	66.04
1018.066	67.37
1023.19	71.71
1028.309	72.04
1033.423	71.04
1038.532	73.37
1043.636	72.37
1048.734	77.71
1053.827	73.04
1058.915	76.04
1063.998	75.04
1069.075	73.04
1074.147	72.04
1079.214	73.04
1084.276	72.71
1089.333	73.04
1094.385	73.04
1099.431	72.04
1104.472	66.38
1109.509	67.04
1114.54	66.37
1119.565	63.37
1124.586	60.71
1129.602	63.04
1134.613	58.71
1139.618	57.71
1144.619	58.71
1149.614	61.04
1154.604	58.71
1159.589	62.71
1164.57	64.04
1169.545	64.38
1174.515	64.04
1179.48	61.71
1184.44	63.38
1189.395	63.37
1194.345	58.71
1199.29	62.71
1204.23	63.37
1209.165	62.38
1214.095	62.71
1219.021	63.37
1223.941	61.71
1228.856	63.37
1233.766	61.37
1238.672	62.37
1243.572	60.04
1248.467	59.37
1253.358	59.38
1258.244	53.71
1263.124	57.04
1268	54.37
1272.871	50.71
1277.737	49.37
1282.599	50.04
1287.455	51.04
1292.306	48.04
1297.153	51.71
1301.995	52.71
1306.832	51.04
1311.664	53.71
1316.491	52.71
1321.314	52.71
1326.132	50.38
1330.945	50.04
1335.753	51.04
1340.556	50.38
1345.354	50.38
1350.148	49.04
1354.937	51.71
1359.722	48.37
1364.501	50.04
1369.276	48.71
1374.046	48.37
1378.811	50.04
1383.572	49.37
1388.327	47.71
1393.079	45.71
1397.825	43.04
1402.567	43.71
1407.304	43.04
1412.036	43.04
1416.764	44.04
1421.487	42.37
1426.205	44.04
1430.919	43.04
1435.628	44.04
1440.333	45.71
1445.032	47.37
1449.727	44.37
1454.418	48.71
1459.104	46.04
1463.785	43.71
1468.462	44.37
1473.134	43.71
1477.802	46.71
1482.465	45.04
1487.123	47.71
1491.777	44.04
1496.426	46.04
1501.071	48.37
1505.711	46.71
1510.347	49.37
1514.978	46.04
1519.604	48.71
1524.226	49.37
1528.844	45.04
1533.457	45.38
1538.065	44.38
1542.669	44.04
1547.269	44.04
1551.864	45.37
1556.454	53.71
1561.041	61.71
1565.622	51.71
1570.199	41.71
1574.772	38.37
1579.34	42.04
1583.904	40.04
1588.464	40.04
1593.019	39.04
1597.569	37.71
1602.115	38.37
1606.657	39.04
1611.195	39.71
1615.728	38.04
1620.256	37.37
1624.78	36.71
1629.3	39.04
1633.816	35.37
1638.327	37.04
1642.834	37.71
1647.336	37.04
1651.834	38.37
1656.328	35.71
1660.817	38.04
1665.302	38.04
1669.783	39.71
1674.259	37.37
1678.732	39.37
1683.199	39.38
1687.663	39.37
1692.122	38.38
1696.577	39.71
1701.028	40.04
1705.474	39.71
1709.917	36.37
1714.355	35.37
1718.788	34.38
1723.218	32.71
1727.643	33.38
1732.064	33.04
1736.481	31.04
1740.893	33.04
1745.301	32.04
1749.705	27.71
1754.105	28.71
1758.501	29.71
1762.893	29.04
1767.28	31.04
1771.663	29.37
1776.042	31.04
1780.417	32.37
1784.787	31.71
1789.154	29.71
1793.516	28.71
1797.874	29.04
1802.228	29.37
1806.578	27.71
1810.924	29.71
1815.266	29.04
1819.603	28.37
1823.937	27.04
1828.266	27.37
1832.591	26.04
1836.913	23.71
1841.23	25.04
1845.543	22.37
1849.852	25.04
1854.156	24.71
1858.457	24.38
1862.754	25.04
1867.047	25.38
1871.335	27.04
1875.62	24.71
1879.9	25.37
1884.177	24.38
1888.449	27.04
1892.718	26.71
1896.982	27.04
1901.243	26.71
1905.499	25.71
1909.752	24.71
1914	27.04
1918.245	27.38
1922.485	25.04
1926.722	28.71
1930.954	25.37
1935.183	27.38
1939.408	25.71
1943.628	27.38
1947.845	27.71
1952.058	28.04
1956.267	23.71
1960.472	23.37
1964.673	25.37
1968.87	23.71
1973.063	21.71
1977.252	18.71
1981.438	20.71
1985.619	21.04
1989.797	20.71
1993.971	19.37
1998.14	18.38
2002.306	20.04
2006.469	19.04
2010.627	20.04
2014.781	19.71
2018.932	20.04
2023.078	18.71
2027.221	19.04
2031.36	16.37
2035.495	16.37
2039.627	16.38
2043.754	18.37
2047.878	18.71
2051.998	19.37
2056.114	17.71
2060.226	18.71
2064.334	19.71
2068.439	16.71
2072.54	17.71
2076.637	17.04
2080.73	19.37
2084.82	20.71
2088.906	17.37
2092.988	20.38
2097.066	18.04
2101.14	18.04
2105.211	18.04
2109.278	18.71
2113.342	15.71
2117.401	14.37
2121.457	15.04
2125.509	14.37
2129.558	16.04
2133.602	14.38
2137.643	15.71
2141.681	13.71
2145.714	13.38
2149.744	12.71
2153.77	12.37
2157.793	15.38
2161.812	13.37
2165.827	11.71
2169.838	12.37
2173.846	11.71
2177.851	11.04
2181.851	12.71
2185.848	11.71
2189.841	12.04
2193.831	9.71
2197.817	9.04
2201.799	9.04
2205.778	11.37
2209.753	9.04
2213.725	10.04
2217.693	12.04
2221.657	10.71
2225.618	9.37
2229.575	10.04
2233.529	12.04
2237.479	9.71
2241.425	8.71
2245.368	10.71
2249.307	8.71
2253.243	8.38
2257.175	10.04
2261.104	6.71
2265.029	8.04
2268.95	10.38
2272.868	10.04
2276.783	9.04
2280.694	9.71
2284.601	8.04
2288.505	9.04
2292.405	6.04
2296.302	8.37
2300.195	7.71
2304.085	8.37
2307.971	9.37
2311.854	9.04
2315.734	7.37
2319.609	9.71
2323.482	11.71
2327.351	15.71
2331.216	32.37
2335.078	33.71
2338.937	20.71
2342.792	11.37
2346.643	7.04
2350.492	8.04
2354.336	7.04
2358.178	6.71
2362.015	6.71
2365.85	8.04
2369.681	7.71
2373.508	5.71
2377.333	4.04
2381.153	8.04
2384.971	5.04
2388.785	5.04
2392.595	9.37
2396.402	6.71
2400.206	6.71
2404.007	3.71
2407.804	7.38
2411.597	4.37
2415.388	4.71
2419.174	6.37
2422.958	5.71
2426.738	4.04
2430.515	0.38
2434.289	1.71
2438.059	2.38
2441.825	5.71
2445.589	3.71
2449.349	3.37
2453.106	2.04
2456.859	3.04
2460.61	0.04
2464.356	3.37
2468.1	0.37
2471.84	0.71
2475.577	2.71
2479.311	3.04
2483.041	1.04
2486.768	2.71
2490.492	1.04
2494.213	1.37
2497.93	5.71
2501.644	2.37
2505.355	1.71
2509.062	2.71
2512.766	2.38
2516.467	2.38
2520.165	-0.29
2523.859	3.04
2527.551	3.37
2531.239	2.37
2534.923	1.04
2538.605	1.04
2542.283	0.71
2545.958	3.04
2549.63	1.37
2553.299	2.37
2556.964	2.38
2560.626	1.71
2564.285	2.04
2567.941	0.04
2571.594	0.04
2575.243	0.04
2578.89	1.04
2582.533	-0.62
2586.173	3.38
2589.809	-0.29
2593.443	-1.96
2597.073	1.04
2600.701	-1.29
2604.325	-1.63
2607.946	-1.63
2611.564	0.38
2615.178	-0.96
2618.79	-2.29
2622.398	-0.63
2626.004	-0.96
2629.606	-0.29
2633.205	-0.29
2636.801	-0.29
2640.394	-1.62
2643.983	0.37
2647.57	-0.29
2651.153	-3.29
2654.734	0.37
2658.311	1.04
2661.885	-1.29
2665.456	-3.63
2669.025	-0.96
2672.589	0.04
2676.151	-0.96
2679.71	-1.29
2683.266	-2.96
2686.819	-3.29
2690.368	-2.29
2693.915	-0.96
2697.458	-1.96
2700.999	-2.63
2704.536	-1.96
2708.071	-2.63
2711.602	-0.63
2715.13	-2.96
2718.656	-1.29
2722.178	-0.29
2725.697	-1.96
2729.214	-3.63
2732.727	-2.96
2736.237	-1.96
2739.744	-0.96
2743.249	-4.96
2746.75	-2.63
2750.248	-1.62
2753.743	-1.63
2757.236	-2.29
2760.725	-3.29
2764.211	-3.63
2767.695	-0.63
2771.175	-2.29
2774.652	-3.29
2778.127	-2.63
2781.598	-1.96
2785.067	-4.96
2788.532	-3.96
2791.995	-5.29
2795.455	-1.63
2798.911	-3.29
2802.365	-0.96
2805.816	-2.96
2809.264	-3.62
2812.709	-2.96
2816.151	-3.63
2819.59	-3.29
2823.026	-6.63
2826.46	-4.29
2829.89	-5.29
2833.318	-5.29
2836.742	-4.96
2840.164	-5.29
2843.583	-4.29
2846.999	-4.29
2850.412	-5.63
2853.822	-3.62
2857.229	-3.29
2860.634	-3.63
2864.035	-4.62
2867.434	-5.96
2870.83	-4.29
2874.223	-4.29
2877.613	-4.29
2881	-4.96
2884.385	-2.96
2887.766	-0.63
2891.145	-3.62
2894.521	-4.63
2897.894	-4.29
2901.264	-6.29
2904.631	-3.96
2907.996	-4.29
2911.358	-4.62
2914.717	-2.96
2918.073	-6.29
2921.426	-4.96
2924.777	-6.29
2928.124	-5.29
2931.469	-4.29
2934.811	-4.96
2938.15	-4.29
2941.487	-5.62
2944.821	-5.63
2948.152	-4.62
2951.48	-3.96
2954.805	-5.29
2958.128	-6.29
2961.447	-2.96
2964.765	-5.29
2968.079	-6.29
2971.39	-7.62
2974.699	-6.63
2978.005	-8.29
2981.308	-5.96
2984.609	-6.62
2987.907	-6.29
2991.202	-6.96
2994.494	-6.63
2997.784	-6.29
3001.07	-7.63
3004.355	-5.96
3007.636	-5.29
3010.915	-7.29
3014.191	-6.29
3017.464	-6.29
3020.734	-6.29
3024.002	-6.63
3027.267	-6.63
3030.53	-6.29
3033.789	-8.29
3037.046	-7.96
3040.301	-8.29
3043.552	-8.96
3046.801	-5.29
3050.048	-7.96
3053.291	-8.29
3056.532	-9.29
3059.771	-7.96
3063.006	-7.96
3066.239	-7.96
3069.469	-7.96
3072.697	-9.29
3075.922	-7.96
3079.144	-7.96
3082.364	-6.96
3085.581	-10.29
3088.795	-7.96
3092.007	-8.29
3095.216	-9.29
3098.423	-10.29
3101.627	-7.62
3104.828	-7.63
3108.026	-10.96
3111.222	-10.29
3114.416	-10.29
3117.607	-11.63
3120.795	-9.63
3123.98	-9.63
3127.163	-10.29
3130.344	-11.63
3133.521	-9.96
3136.696	-9.96
3139.869	-11.96
3143.039	-8.96
3146.206	-10.63
3149.371	-10.29
3152.533	-10.29
3155.693	-12.29
3158.85	-10.29
3162.005	-11.29
3165.157	-10.96
3168.306	-11.96
3171.453	-10.96
3174.597	-11.62
3177.739	-9.96
3180.878	-10.29
3184.014	-12.96
3187.149	-11.29
3190.28	-14.63
3193.409	-13.96
3196.536	-9.96
3199.659	-9.63
3202.781	-11.96
3205.9	-12.63
3209.016	-10.96
3212.13	-10.96
3215.241	-11.29
3218.35	-12.62
3221.456	-12.63
3224.56	-10.63
3227.661	-12.62
3230.76	-11.63
3233.856	-12.62
3236.95	-12.63
3240.041	-10.96
3243.13	-14.29
3246.216	-11.96
3249.3	-11.96
3252.382	-13.29
3255.46	-13.29
3258.537	-11.29
3261.611	-12.29
3264.682	-12.29
3267.751	-10.29
3270.818	-9.62
3273.882	-12.29
3276.943	-11.62
3280.002	-12.63
3283.059	-11.63
3286.113	-12.29
3289.165	-12.62
3292.214	-12.29
3295.261	-10.63
3298.306	-11.96
3301.348	-9.62
3304.387	-11.96
3307.425	-9.63
3310.459	-12.63
3313.492	-11.63
3316.521	-11.96
3319.549	-10.63
3322.574	-10.63
3325.597	-11.96
3328.617	-12.62
3331.635	-12.62
3334.65	-11.29
3337.663	-12.29
3340.674	-11.96
3343.682	-12.63
3346.688	-12.29
3349.691	-10.62
3352.692	-12.29
3355.691	-12.63
3358.687	-11.63
3361.681	-10.96
3364.673	-10.96
3367.662	-11.96
3370.649	-13.29
3373.633	-13.29
3376.615	-10.96
3379.595	-9.96
3382.572	-10.62
3385.547	-13.63
3388.52	-12.29
3391.49	-12.29
3394.458	-10.63
3397.424	-10.96
3400.387	-10.96
3403.348	-13.63
3406.307	-12.62
3409.263	-11.29
3412.217	-10.63
3415.168	-11.29
3418.118	-10.63
3421.065	-11.63
3424.009	-10.63
3426.951	-11.63
3429.891	-14.29
3432.829	-13.29
3435.764	-11.29
3438.697	-12.62
3441.628	-12.96
3444.557	-13.29
3447.483	-11.96
3450.407	-11.96
3453.328	-11.96
3456.247	-12.29
3459.164	-13.29
3462.079	-9.96
3464.991	-13.96
3467.902	-11.62
3470.809	-12.29
3473.715	-13.96
3476.618	-13.29
3479.519	-12.29
3482.418	-11.96
3485.315	-13.29
3488.209	-11.96
3491.101	-12.29
3493.99	-14.63
3496.878	-12.29
3499.763	-14.63
3502.646	-14.29
3505.527	-13.29
3508.405	-12.62
3511.281	-12.29
3514.155	-12.63
3517.027	-12.96
3519.897	-13.29
3522.764	-15.96
3525.629	-15.62
3528.492	-12.29
3531.352	-14.96
3534.211	-11.96
3537.067	-14.29
3539.921	-14.29
3542.773	-13.96
3545.622	-12.29
3548.469	-12.29
3551.315	-12.96
3554.157	-12.63
3556.998	-12.63
3559.837	-13.29
3562.673	-13.29
3565.507	-12.29
3568.339	-14.29
3571.169	-13.63
3573.996	-13.29
3576.822	-12.96
3579.645	-12.96
3582.466	-13.62
3585.285	-13.62
3588.101	-13.29
3590.916	-13.62
3593.728	-14.63
3596.538	-13.96
3599.346	-13.29
3602.152	-14.63
3604.956	-11.29
3607.757	-13.29
3610.556	-11.96
3613.354	-14.96
3616.149	-11.63
3618.942	-11.96
3621.732	-13.62
3624.521	-14.96
3627.307	-13.62
3630.092	-13.63
3632.874	-13.96
3635.654	-13.62
3638.432	-11.96
3641.208	-13.29
3643.982	-13.62
3646.753	-11.96
3649.523	-12.29
3652.29	-14.29
3655.055	-14.63
3657.818	-12.29
3660.579	-14.29
3663.338	-11.29
3666.095	-12.96
3668.849	-12.29
3671.602	-11.96
3674.352	-11.96
3677.101	-13.62
3679.847	-14.29
3682.591	-13.96
3685.333	-13.29
3688.073	-13.96
3690.811	-15.96
3693.547	-13.96
3696.281	-13.29
3699.013	-12.29
3701.742	-12.96
3704.47	-14.29
3707.195	-13.29
3709.919	-13.63
3712.64	-14.96
3715.359	-12.96
3718.076	-13.29
3720.792	-16.63
3723.505	-14.29
3726.216	-14.96
3728.925	-15.63
3731.632	-14.29
3734.336	-13.63
3737.039	-15.96
3739.74	-15.29
3742.439	-15.29
3745.136	-16.29
3747.83	-15.96
3750.523	-14.62
3753.213	-13.29
3755.902	-14.29
3758.589	-14.29
3761.273	-14.63
3763.956	-15.29
3766.636	-13.63
3769.315	-13.63
3771.991	-14.96
3774.665	-14.96
3777.338	-14.96
3780.008	-13.63
3782.677	-14.96
3785.343	-15.29
3788.007	-13.29
3790.67	-14.63
3793.33	-12.63
3795.989	-15.63
3798.645	-14.96
3801.299	-14.29
3803.952	-14.96
3806.602	-14.63
3809.251	-13.29
3811.897	-13.29
3814.542	-13.96
3817.184	-13.62
3819.825	-12.63
3822.463	-13.63
3825.1	-15.29
3827.735	-13.96
3830.367	-12.29
3832.998	-15.29
3835.627	-12.96
3838.253	-11.96
3840.878	-13.96
3843.501	-13.96
3846.122	-13.29
3848.741	-13.29
3851.358	-12.63
3853.973	-13.29
3856.586	-12.96
3859.197	-13.29
3861.806	-11.96
3864.414	-12.96
3867.019	-10.63
3869.622	-9.29
3872.224	-8.63
3874.823	-5.29
3877.421	1.71
3880.016	10.04
3882.61	18.38
3885.202	23.37
3887.792	15.37
3890.38	3.71
3892.966	-2.96
3895.55	-10.62
3898.132	-11.29
3900.713	-14.29
3903.291	-12.96
3905.868	-12.63
3908.442	-13.29
3911.015	-12.29
3913.586	-13.29
3916.155	-14.96
3918.722	-14.62
3921.287	-13.29
3923.85	-15.63
3926.411	-15.96
3928.971	-12.29
3931.528	-13.63
3934.084	-15.63
3936.638	-15.29
3939.19	-12.29
3941.74	-12.96
3944.288	-13.96
3946.834	-14.29
3949.378	-13.63
3951.921	-13.62
3954.462	-13.63
3957	-14.96
3959.537	-11.62
3962.072	-12.63
3964.606	-13.29
3967.137	-15.29
3969.667	-13.62
3972.194	-15.62
3974.72	-13.62
3977.244	-15.29
3979.766	-13.96
3982.286	-16.29
3984.805	-14.63
3987.321	-13.63
3989.836	-15.63
3992.349	-16.63
3994.86	-13.96
3997.369	-14.96
3999.877	-14.29
4002.382	-14.29
4004.886	-15.96
4007.388	-17.29
4009.888	-14.63
4012.386	-14.63
4014.883	-12.62
4017.377	-14.96
4019.87	-15.96
4022.361	-15.29
4024.85	-14.96
4027.338	-14.63
4029.823	-14.29
4032.307	-15.29
4034.789	-13.96
4037.269	-15.29
4039.747	-14.63
4042.224	-14.29
4044.699	-16.63
4047.172	-13.63
4049.643	-14.62
4052.112	-15.29
4054.58	-13.96
4057.046	-13.29
4059.51	-15.96
4061.972	-14.29
4064.432	-14.96
4066.891	-14.62
4069.348	-13.96
4071.803	-14.96
4074.256	-12.96
4076.708	-12.62
4079.158	-13.29
4081.606	-15.96
4084.052	-15.63
4086.497	-13.29
4088.939	-14.29
4091.38	-13.29
4093.819	-14.62
4096.257	-14.29
4098.693	-14.96
4101.127	-14.96
4103.559	-14.29
4105.989	13.04
4108.418	10.37
4110.845	10.37
4113.27	8.71
4115.694	7.37
4118.115	6.04
4120.535	-12.29
4122.954	-11.96
4125.37	-11.96
4127.785	-14.29
4130.198	-13.62
4132.609	-12.29
4135.019	-13.29
4137.427	-14.29
4139.833	-13.63
4142.237	-13.63
