Data from Saline 2 (5mlI =1_T=5x3)_RamanShift_1.txt Node
Date: Mon May 29 14:56:40 IDT 2017
User: aro
Spectrometer: QEPB0276
Trigger mode: 0
Integration Time (sec): 5.000000E0
Scans to average: 3
Electric dark correction enabled: true
Nonlinearity correction enabled: false
Boxcar width: 0
XAxis mode: Raman Shifts
Number of Pixels in Spectrum: 1044
>>>>>Begin Spectral Data<<<<<
160.701	-38.58
166.742	2.75
172.777	122.42
178.805	498.42
184.826	1403.08
190.841	2962.42
196.849	4730.08
202.85	5905.42
208.845	6153.75
214.833	5917.42
220.815	5655.08
226.789	5450.75
232.758	5263.42
238.719	5082.75
244.674	4850.75
250.623	4617.08
256.565	4371.75
262.5	4136.42
268.429	3936.42
274.351	3745.75
280.267	3561.75
286.176	3420.75
292.079	3271.42
297.975	3166.42
303.865	3060.42
309.748	2980.08
315.625	2912.75
321.495	2838.42
327.359	2809.75
333.217	2773.08
339.068	2748.42
344.912	2730.75
350.751	2719.08
356.583	2714.08
362.408	2715.75
368.227	2730.75
374.04	2742.75
379.847	2770.42
385.647	2792.42
391.44	2806.42
397.228	2781.75
403.009	2789.75
408.784	2837.42
414.553	2901.08
420.315	3005.42
426.071	2993.42
431.821	2922.75
437.565	2827.75
443.302	2776.08
449.033	2746.42
454.758	2731.75
460.477	2711.08
466.189	2686.42
471.896	2678.75
477.596	2652.42
483.29	2639.08
488.978	2593.75
494.66	2582.42
500.335	2541.08
506.005	2487.08
511.668	2440.75
517.325	2383.75
522.977	2343.42
528.622	2303.42
534.261	2266.42
539.894	2240.08
545.521	2210.75
551.141	2191.08
556.756	2166.42
562.365	2134.42
567.968	2138.75
573.565	2109.75
579.155	2075.42
584.74	2063.08
590.319	2040.42
595.892	2011.08
601.459	1988.42
607.02	1971.42
612.575	1948.75
618.124	1914.42
623.667	1900.75
629.204	1880.08
634.735	1865.42
640.261	1864.08
645.781	1878.75
651.294	1869.75
656.802	1836.08
662.304	1790.08
667.8	1762.75
673.29	1745.08
678.775	1722.42
684.254	1695.08
689.726	1692.08
695.193	1668.42
700.655	1652.42
706.11	1628.42
711.56	1613.42
717.004	1584.08
722.442	1564.08
727.874	1559.08
733.301	1544.75
738.722	1531.75
744.137	1526.42
749.547	1513.42
754.951	1518.08
760.349	1495.08
765.741	1473.42
771.128	1456.42
776.509	1449.42
781.885	1436.08
787.254	1421.75
792.618	1406.42
797.977	1389.08
803.33	1369.75
808.677	1349.08
814.019	1330.75
819.355	1316.08
824.686	1281.08
830.011	1263.42
835.33	1250.42
840.644	1224.42
845.952	1214.75
851.255	1206.42
856.552	1185.75
861.844	1167.42
867.13	1157.42
872.41	1159.08
877.686	1157.75
882.955	1142.42
888.219	1107.75
893.478	1070.08
898.731	1029.08
903.979	983.42
909.221	968.42
914.458	947.08
919.69	940.08
924.916	929.42
930.136	924.75
935.351	908.75
940.561	901.42
945.766	890.42
950.965	879.08
956.158	869.08
961.347	849.42
966.529	827.75
971.707	815.08
976.879	800.08
982.046	786.75
987.208	778.08
992.364	773.08
997.515	770.08
1002.66	780.08
1007.801	783.42
1012.936	784.42
1018.066	792.75
1023.19	787.08
1028.309	789.08
1033.423	790.42
1038.532	776.42
1043.636	774.75
1048.734	773.42
1053.827	755.75
1058.915	746.08
1063.998	739.75
1069.075	730.42
1074.147	728.08
1079.214	729.08
1084.276	741.75
1089.333	741.75
1094.385	732.42
1099.431	741.08
1104.472	732.08
1109.509	725.75
1114.54	704.42
1119.565	694.75
1124.586	684.08
1129.602	672.42
1134.613	667.42
1139.618	664.75
1144.619	659.75
1149.614	665.42
1154.604	665.08
1159.589	660.75
1164.57	673.42
1169.545	667.42
1174.515	665.42
1179.48	660.42
1184.44	651.08
1189.395	649.75
1194.345	636.08
1199.29	637.08
1204.23	635.08
1209.165	634.08
1214.095	645.75
1219.021	641.42
1223.941	651.42
1228.856	648.75
1233.766	648.75
1238.672	644.75
1243.572	648.75
1248.467	635.42
1253.358	627.75
1258.244	615.08
1263.124	610.42
1268	602.75
1272.871	587.08
1277.737	585.75
1282.599	573.42
1287.455	583.75
1292.306	579.75
1297.153	578.08
1301.995	582.42
1306.832	580.75
1311.664	584.75
1316.491	576.08
1321.314	567.42
1326.132	560.42
1330.945	545.75
1335.753	532.08
1340.556	527.42
1345.354	509.75
1350.148	509.42
1354.937	500.42
1359.722	493.42
1364.501	500.75
1369.276	495.42
1374.046	498.42
1378.811	500.75
1383.572	496.75
1388.327	491.42
1393.079	490.08
1397.825	485.08
1402.567	475.08
1407.304	464.75
1412.036	463.75
1416.764	462.08
1421.487	461.08
1426.205	458.08
1430.919	463.08
1435.628	466.08
1440.333	471.75
1445.032	476.42
1449.727	479.42
1454.418	491.08
1459.104	489.08
1463.785	486.08
1468.462	474.42
1473.134	462.75
1477.802	450.42
1482.465	457.08
1487.123	452.08
1491.777	456.08
1496.426	468.75
1501.071	477.42
1505.711	482.42
1510.347	489.08
1514.978	496.75
1519.604	507.75
1524.226	512.08
1528.844	514.08
1533.457	517.42
1538.065	527.42
1542.669	527.08
1547.269	528.42
1551.864	540.08
1556.454	551.75
1561.041	559.75
1565.622	577.42
1570.199	583.42
1574.772	615.42
1579.34	642.75
1583.904	659.08
1588.464	687.75
1593.019	710.42
1597.569	736.75
1602.115	764.42
1606.657	791.75
1611.195	811.42
1615.728	834.75
1620.256	865.75
1624.78	892.42
1629.3	913.42
1633.816	945.75
1638.327	963.42
1642.834	988.42
1647.336	987.08
1651.834	979.42
1656.328	971.75
1660.817	957.75
1665.302	931.08
1669.783	892.08
1674.259	845.08
1678.732	798.75
1683.199	744.42
1687.663	702.42
1692.122	652.75
1696.577	600.42
1701.028	567.42
1705.474	531.08
1709.917	502.08
1714.355	465.08
1718.788	435.75
1723.218	404.42
1727.643	375.08
1732.064	345.08
1736.481	322.08
1740.893	297.08
1745.301	275.08
1749.705	254.75
1754.105	237.75
1758.501	220.08
1762.893	198.42
1767.28	189.08
1771.663	182.42
1776.042	174.42
1780.417	164.75
1784.787	164.42
1789.154	158.08
1793.516	156.75
1797.874	157.08
1802.228	151.42
1806.578	147.42
1810.924	137.75
1815.266	130.08
1819.603	123.75
1823.937	119.08
1828.266	117.08
1832.591	111.08
1836.913	107.42
1841.23	101.08
1845.543	99.08
1849.852	96.75
1854.156	99.75
1858.457	98.75
1862.754	98.08
1867.047	101.08
1871.335	105.75
1875.62	98.08
1879.9	104.08
1884.177	101.75
1888.449	96.08
1892.718	96.75
1896.982	100.42
1901.243	100.75
1905.499	96.08
1909.752	97.75
1914	100.42
1918.245	104.75
1922.485	104.08
1926.722	109.42
1930.954	109.42
1935.183	113.75
1939.408	120.08
1943.628	119.75
1947.845	119.75
1952.058	119.75
1956.267	117.75
1960.472	112.42
1964.673	113.08
1968.87	112.42
1973.063	109.08
1977.252	110.75
1981.438	110.75
1985.619	108.08
1989.797	108.75
1993.971	111.08
1998.14	114.42
2002.306	117.42
2006.469	117.75
2010.627	122.08
2014.781	122.08
2018.932	125.75
2023.078	125.08
2027.221	124.08
2031.36	126.08
2035.495	126.75
2039.627	126.08
2043.754	124.08
2047.878	127.75
2051.998	125.75
2056.114	131.42
2060.226	133.42
2064.334	134.08
2068.439	137.42
2072.54	141.42
2076.637	143.08
2080.73	146.08
2084.82	148.75
2088.906	150.75
2092.988	150.75
2097.066	147.75
2101.14	149.08
2105.211	146.75
2109.278	145.42
2113.342	141.42
2117.401	137.75
2121.457	135.42
2125.509	136.08
2129.558	130.42
2133.602	125.42
2137.643	128.42
2141.681	122.08
2145.714	122.75
2149.744	113.75
2153.77	118.08
2157.793	109.42
2161.812	105.08
2165.827	99.75
2169.838	95.75
2173.846	90.08
2177.851	86.75
2181.851	80.75
2185.848	73.42
2189.841	68.08
2193.831	65.75
2197.817	64.75
2201.799	60.08
2205.778	58.75
2209.753	57.42
2213.725	52.75
2217.693	51.08
2221.657	44.75
2225.618	43.42
2229.575	44.42
2233.529	43.42
2237.479	39.75
2241.425	31.75
2245.368	27.75
2249.307	21.42
2253.243	19.42
2257.175	17.75
2261.104	8.42
2265.029	4.75
2268.95	6.08
2272.868	5.08
2276.783	0.08
2280.694	0.08
2284.601	-9.58
2288.505	-6.58
2292.405	-11.92
2296.302	-15.58
2300.195	-18.25
2304.085	-17.25
2307.971	-23.58
2311.854	-25.92
2315.734	-29.25
2319.609	-32.25
2323.482	-32.58
2327.351	-35.25
2331.216	-31.25
2335.078	-33.25
2338.937	-37.25
2342.792	-40.92
2346.643	-43.58
2350.492	-41.92
2354.336	-44.92
2358.178	-46.92
2362.015	-44.58
2365.85	-45.92
2369.681	-44.58
2373.508	-47.92
2377.333	-52.25
2381.153	-47.92
2384.971	-49.92
2388.785	-52.25
2392.595	-52.25
2396.402	-51.92
2400.206	-56.92
2404.007	-58.58
2407.804	-57.92
2411.597	-55.92
2415.388	-58.92
2419.174	-58.92
2422.958	-59.25
2426.738	-61.92
2430.515	-64.25
2434.289	-63.92
2438.059	-66.92
2441.825	-62.92
2445.589	-63.92
2449.349	-66.92
2453.106	-66.92
2456.859	-69.25
2460.61	-70.58
2464.356	-68.58
2468.1	-72.25
2471.84	-72.58
2475.577	-71.25
2479.311	-73.58
2483.041	-73.25
2486.768	-73.58
2490.492	-73.25
2494.213	-77.25
2497.93	-73.25
2501.644	-73.92
2505.355	-72.92
2509.062	-73.92
2512.766	-74.92
2516.467	-75.25
2520.165	-78.58
2523.859	-76.92
2527.551	-77.92
2531.239	-76.92
2534.923	-78.92
2538.605	-77.25
2542.283	-78.92
2545.958	-77.25
2549.63	-77.92
2553.299	-77.58
2556.964	-78.92
2560.626	-79.25
2564.285	-81.58
2567.941	-80.25
2571.594	-81.58
2575.243	-81.25
2578.89	-81.92
2582.533	-84.58
2586.173	-83.92
2589.809	-85.58
2593.443	-83.58
2597.073	-84.58
2600.701	-85.58
2604.325	-84.58
2607.946	-86.92
2611.564	-86.25
2615.178	-85.92
2618.79	-85.58
2622.398	-84.25
2626.004	-84.25
2629.606	-84.58
2633.205	-84.25
2636.801	-85.92
2640.394	-86.92
2643.983	-84.58
2647.57	-87.58
2651.153	-88.92
2654.734	-85.58
2658.311	-86.25
2661.885	-86.25
2665.456	-89.58
2669.025	-86.58
2672.589	-85.92
2676.151	-86.58
2679.71	-84.92
2683.266	-86.25
2686.819	-85.58
2690.368	-86.92
2693.915	-84.92
2697.458	-81.58
2700.999	-83.92
2704.536	-84.25
2708.071	-84.92
2711.602	-85.58
2715.13	-82.25
2718.656	-83.25
2722.178	-83.58
2725.697	-80.25
2729.214	-81.25
2732.727	-78.92
2736.237	-76.58
2739.744	-76.25
2743.249	-76.25
2746.75	-73.25
2750.248	-72.25
2753.743	-72.25
2757.236	-70.25
2760.725	-69.25
2764.211	-67.58
2767.695	-69.25
2771.175	-66.92
2774.652	-66.58
2778.127	-64.92
2781.598	-62.25
2785.067	-62.58
2788.532	-60.25
2791.995	-59.25
2795.455	-55.58
2798.911	-55.58
2802.365	-50.58
2805.816	-51.58
2809.264	-49.25
2812.709	-45.92
2816.151	-46.58
2819.59	-39.25
2823.026	-43.58
2826.46	-36.58
2829.89	-33.92
2833.318	-31.92
2836.742	-30.92
2840.164	-27.25
2843.583	-20.58
2846.999	-18.25
2850.412	-15.58
2853.822	-11.25
2857.229	12.42
2860.634	4.08
2864.035	0.08
2867.434	3.75
2870.83	9.42
2874.223	12.08
2877.613	20.42
2881	22.75
2884.385	25.75
2887.766	34.08
2891.145	35.42
2894.521	39.08
2897.894	39.42
2901.264	45.08
2904.631	46.42
2907.996	51.75
2911.358	62.42
2914.717	63.42
2918.073	66.42
2921.426	76.08
2924.777	84.42
2928.124	83.75
2931.469	93.08
2934.811	101.75
2938.15	118.42
2941.487	115.08
2944.821	124.08
2948.152	130.75
2951.48	138.75
2954.805	138.08
2958.128	145.42
2961.447	154.75
2964.765	155.42
2968.079	167.75
2971.39	174.08
2974.699	187.42
2978.005	199.42
2981.308	214.75
2984.609	219.42
2987.907	233.75
2991.202	245.42
2994.494	261.42
2997.784	276.08
3001.07	284.42
3004.355	298.42
3007.636	306.75
3010.915	321.42
3014.191	333.42
3017.464	341.75
3020.734	351.75
3024.002	361.08
3027.267	375.75
3030.53	382.75
3033.789	392.75
3037.046	405.08
3040.301	422.75
3043.552	437.75
3046.801	453.42
3050.048	472.42
3053.291	487.08
3056.532	513.42
3059.771	532.75
3063.006	549.42
3066.239	576.75
3069.469	596.42
3072.697	619.75
3075.922	649.42
3079.144	665.75
3082.364	687.42
3085.581	706.42
3088.795	735.08
3092.007	754.75
3095.216	776.42
3098.423	794.75
3101.627	822.75
3104.828	856.75
3108.026	868.08
3111.222	898.75
3114.416	920.08
3117.607	935.08
3120.795	968.75
3123.98	996.42
3127.163	1028.42
3130.344	1054.75
3133.521	1082.75
3136.696	1116.75
3139.869	1138.08
3143.039	1165.42
3146.206	1190.42
3149.371	1204.42
3152.533	1209.08
3155.693	1232.42
3158.85	1242.42
3162.005	1248.42
3165.157	1257.08
3168.306	1272.08
3171.453	1275.08
3174.597	1291.42
3177.739	1298.42
3180.878	1296.42
3184.014	1315.75
3187.149	1312.42
3190.28	1318.42
3193.409	1328.08
3196.536	1336.75
3199.659	1350.08
3202.781	1357.08
3205.9	1350.75
3209.016	1347.75
3212.13	1353.75
3215.241	1355.08
3218.35	1350.75
3221.456	1340.75
3224.56	1339.08
3227.661	1330.75
3230.76	1322.08
3233.856	1305.08
3236.95	1304.42
3240.041	1291.75
3243.13	1292.75
3246.216	1282.42
3249.3	1280.75
3252.382	1274.75
3255.46	1272.42
3258.537	1276.08
3261.611	1270.42
3264.682	1263.08
3267.751	1266.42
3270.818	1256.42
3273.882	1260.75
3276.943	1251.75
3280.002	1241.42
3283.059	1231.08
3286.113	1217.42
3289.165	1187.08
3292.214	1175.42
3295.261	1160.42
3298.306	1135.08
3301.348	1126.75
3304.387	1103.75
3307.425	1096.75
3310.459	1077.75
3313.492	1071.08
3316.521	1053.42
3319.549	1043.75
3322.574	1041.42
3325.597	1024.75
3328.617	1027.75
3331.635	1022.08
3334.65	1010.42
3337.663	1018.08
3340.674	1012.08
3343.682	1003.42
3346.688	1004.08
3349.691	1003.75
3352.692	1004.75
3355.691	992.75
3358.687	987.75
3361.681	975.42
3364.673	970.42
3367.662	950.42
3370.649	939.42
3373.633	932.08
3376.615	921.75
3379.595	910.42
3382.572	897.08
3385.547	883.75
3388.52	874.42
3391.49	865.42
3394.458	861.75
3397.424	845.75
3400.387	837.42
3403.348	824.42
3406.307	821.08
3409.263	816.75
3412.217	800.42
3415.168	795.75
3418.118	789.08
3421.065	781.08
3424.009	768.08
3426.951	761.42
3429.891	755.42
3432.829	736.75
3435.764	720.08
3438.697	709.42
3441.628	694.42
3444.557	676.42
3447.483	659.08
3450.407	643.75
3453.328	626.75
3456.247	607.75
3459.164	593.08
3462.079	575.42
3464.991	560.42
3467.902	538.42
3470.809	521.42
3473.715	509.08
3476.618	494.42
3479.519	481.08
3482.418	464.08
3485.315	452.42
3488.209	445.08
3491.101	429.08
3493.99	414.42
3496.878	404.75
3499.763	390.08
3502.646	382.75
3505.527	365.08
3508.405	355.75
3511.281	342.42
3514.155	323.42
3517.027	308.42
3519.897	294.75
3522.764	273.08
3525.629	266.08
3528.492	256.75
3531.352	233.75
3534.211	227.42
3537.067	211.75
3539.921	198.75
3542.773	185.75
3545.622	174.75
3548.469	164.08
3551.315	152.08
3554.157	143.42
3556.998	130.42
3559.837	126.08
3562.673	118.08
3565.507	107.75
3568.339	103.75
3571.169	96.08
3573.996	87.08
3576.822	77.08
3579.645	75.42
3582.466	64.75
3585.285	57.42
3588.101	47.75
3590.916	42.08
3593.728	35.42
3596.538	31.08
3599.346	24.75
3602.152	17.08
3604.956	11.75
3607.757	5.42
3610.556	-1.25
3613.354	-4.92
3616.149	-7.25
3618.942	-12.25
3621.732	-21.58
3624.521	-22.58
3627.307	-27.58
3630.092	-29.25
3632.874	-34.58
3635.654	-36.58
3638.432	-41.25
3641.208	-47.25
3643.982	-48.58
3646.753	-52.25
3649.523	-56.25
3652.29	-58.92
3655.055	-63.58
3657.818	-64.25
3660.579	-65.92
3663.338	-72.92
3666.095	-79.25
3668.849	-78.92
3671.602	-80.92
3674.352	-86.25
3677.101	-85.58
3679.847	-91.92
3682.591	-94.92
3685.333	-95.58
3688.073	-98.92
3690.811	-100.58
3693.547	-99.92
3696.281	-104.25
3699.013	-106.58
3701.742	-106.25
3704.47	-110.25
3707.195	-110.58
3709.919	-110.58
3712.64	-112.92
3715.359	-114.58
3718.076	-115.92
3720.792	-118.25
3723.505	-120.58
3726.216	-119.92
3728.925	-120.92
3731.632	-122.25
3734.336	-122.92
3737.039	-124.92
3739.74	-125.58
3742.439	-125.25
3745.136	-125.92
3747.83	-128.92
3750.523	-127.92
3753.213	-126.25
3755.902	-130.58
3758.589	-129.25
3761.273	-130.25
3763.956	-130.25
3766.636	-129.92
3769.315	-131.25
3771.991	-132.25
3774.665	-132.92
3777.338	-133.25
3780.008	-128.92
3782.677	-80.92
3785.343	-127.92
3788.007	-130.92
3790.67	-135.25
3793.33	-134.58
3795.989	-135.92
3798.645	-135.25
3801.299	-137.58
3803.952	-135.25
3806.602	-135.58
3809.251	-136.25
3811.897	-136.92
3814.542	-139.25
3817.184	-137.25
3819.825	-135.58
3822.463	-138.25
3825.1	-139.25
3827.735	-136.58
3830.367	-137.92
3832.998	-138.92
3835.627	-138.58
3838.253	-127.58
3840.878	-134.58
3843.501	-139.25
3846.122	-139.25
3848.741	-139.25
3851.358	-138.25
3853.973	-140.58
3856.586	-140.25
3859.197	-142.25
3861.806	-138.92
3864.414	-138.92
3867.019	-137.92
3869.622	-135.25
3872.224	-137.58
3874.823	-132.58
3877.421	-129.92
3880.016	-120.92
3882.61	-112.92
3885.202	-111.25
3887.792	-118.25
3890.38	-126.58
3892.966	-133.25
3895.55	-139.58
3898.132	-139.58
3900.713	-143.58
3903.291	-140.92
3905.868	-140.25
3908.442	-141.92
3911.015	-142.92
3913.586	-140.25
3916.155	-143.25
3918.722	-144.58
3921.287	-142.58
3923.85	-144.25
3926.411	-143.58
3928.971	-142.92
3931.528	-141.92
3934.084	-144.92
3936.638	-144.25
3939.19	-142.92
3941.74	-141.25
3944.288	-142.92
3946.834	-144.25
3949.378	-143.58
3951.921	-144.25
3954.462	-142.92
3957	-143.92
3959.537	-142.92
3962.072	-143.58
3964.606	-144.58
3967.137	-144.58
3969.667	-142.92
3972.194	-144.58
3974.72	-142.58
3977.244	-143.58
3979.766	-140.58
3982.286	-142.25
3984.805	-141.25
3987.321	-137.92
3989.836	-140.92
3992.349	-142.92
3994.86	-140.25
3997.369	-141.92
3999.877	-142.25
4002.382	-141.92
4004.886	-141.25
4007.388	-142.92
4009.888	-140.92
4012.386	-140.25
4014.883	-140.92
4017.377	-141.92
4019.87	-141.58
4022.361	-142.92
4024.85	-142.92
4027.338	-140.92
4029.823	-143.92
4032.307	-143.92
4034.789	-141.92
4037.269	-140.92
4039.747	-141.92
4042.224	-143.92
4044.699	-145.58
4047.172	-140.92
4049.643	-142.25
4052.112	-142.58
4054.58	-141.25
4057.046	-140.58
4059.51	-142.92
4061.972	-142.25
4064.432	-140.25
4066.891	-140.25
4069.348	-140.58
4071.803	-140.25
4074.256	-140.92
4076.708	-139.58
4079.158	-140.25
4081.606	-142.25
4084.052	-141.25
4086.497	-142.92
4088.939	-143.25
4091.38	-142.58
4093.819	-142.92
4096.257	-144.58
4098.693	-143.58
4101.127	-147.25
4103.559	-145.92
4105.989	-88.58
4108.418	-83.25
4110.845	-81.92
4113.27	-75.58
4115.694	-67.92
4118.115	-56.25
4120.535	-138.58
4122.954	-141.58
4125.37	-139.92
4127.785	-141.92
4130.198	-141.92
4132.609	-141.58
4135.019	-144.92
4137.427	-147.92
4139.833	-146.25
4142.237	-145.92
