Data from Saline (5mlI =1_T=5x3)_RamanShift_1.txt Node
Date: Mon May 29 14:54:55 IDT 2017
User: aro
Spectrometer: QEPB0276
Trigger mode: 0
Integration Time (sec): 5.000000E0
Scans to average: 3
Electric dark correction enabled: true
Nonlinearity correction enabled: false
Boxcar width: 0
XAxis mode: Raman Shifts
Number of Pixels in Spectrum: 1044
>>>>>Begin Spectral Data<<<<<
160.701	-38.17
166.742	4.17
172.777	126.83
178.805	504.83
184.826	1441.83
190.841	3030.17
196.849	4853.83
202.85	6053.17
208.845	6312.17
214.833	6079.83
220.815	5814.83
226.789	5603.5
232.758	5417.5
238.719	5213.17
244.674	4992.83
250.623	4729.17
256.565	4497.5
262.5	4247.83
268.429	4045.17
274.351	3828.17
280.267	3654.5
286.176	3511.83
292.079	3371.5
297.975	3253.83
303.865	3142.83
309.748	3054.17
315.625	2979.83
321.495	2924.17
327.359	2871.5
333.217	2848.17
339.068	2824.5
344.912	2811.17
350.751	2791.5
356.583	2793.5
362.408	2799.5
368.227	2794.83
374.04	2817.17
379.847	2840.83
385.647	2871.5
391.44	2861.5
397.228	2861.17
403.009	2870.17
408.784	2912.83
414.553	2985.5
420.315	3074.17
426.071	3074.83
431.821	2975.83
437.565	2891.5
443.302	2853.83
449.033	2836.17
454.758	2808.83
460.477	2797.83
466.189	2766.17
471.896	2742.17
477.596	2713.5
483.29	2705.17
488.978	2678.5
494.66	2651.17
500.335	2612.5
506.005	2556.17
511.668	2502.5
517.325	2446.83
522.977	2403.5
528.622	2364.5
534.261	2341.83
539.894	2294.17
545.521	2269.17
551.141	2249.5
556.756	2223.17
562.365	2208.83
567.968	2175.17
573.565	2161.17
579.155	2138.17
584.74	2116.83
590.319	2088.5
595.892	2073.83
601.459	2052.5
607.02	2030.83
612.575	1993.5
618.124	1974.17
623.667	1950.83
629.204	1932.5
634.735	1911.17
640.261	1921.17
645.781	1932.17
651.294	1919.17
656.802	1883.5
662.304	1849.17
667.8	1811.17
673.29	1787.17
678.775	1772.5
684.254	1750.5
689.726	1736.17
695.193	1715.83
700.655	1687.83
706.11	1676.83
711.56	1648.5
717.004	1640.17
722.442	1615.17
727.874	1595.17
733.301	1584.17
738.722	1567.83
744.137	1561.17
749.547	1561.17
754.951	1547.5
760.349	1535.17
765.741	1512.5
771.128	1501.5
776.509	1484.5
781.885	1471.83
787.254	1460.5
792.618	1448.83
797.977	1431.83
803.33	1409.5
808.677	1384.5
814.019	1368.83
819.355	1347.17
824.686	1319.83
830.011	1299.5
835.33	1273.83
840.644	1269.17
845.952	1241.17
851.255	1227.17
856.552	1218.17
861.844	1200.17
867.13	1175.5
872.41	1156.5
877.686	1138.5
882.955	1107.83
888.219	1074.83
893.478	1058.5
898.731	1022.17
903.979	1000.5
909.221	995.5
914.458	970.17
919.69	962.83
924.916	948.83
930.136	942.83
935.351	933.83
940.561	925.5
945.766	914.83
950.965	901.5
956.158	892.5
961.347	877.83
966.529	852.83
971.707	832.83
976.879	819.17
982.046	800.83
987.208	800.83
992.364	792.83
997.515	800.83
1002.66	788.5
1007.801	786.5
1012.936	798.5
1018.066	799.17
1023.19	802.83
1028.309	798.83
1033.423	797.83
1038.532	786.17
1043.636	768.5
1048.734	768.5
1053.827	751.17
1058.915	746.17
1063.998	743.17
1069.075	738.17
1074.147	734.83
1079.214	731.83
1084.276	740.17
1089.333	741.17
1094.385	744.17
1099.431	741.5
1104.472	735.5
1109.509	730.5
1114.54	722.17
1119.565	713.5
1124.586	697.5
1129.602	684.83
1134.613	677.17
1139.618	677.5
1144.619	672.83
1149.614	674.5
1154.604	677.17
1159.589	679.83
1164.57	682.5
1169.545	686.17
1174.515	682.5
1179.48	668.83
1184.44	670.5
1189.395	664.5
1194.345	652.17
1199.29	652.5
1204.23	657.83
1209.165	660.17
1214.095	659.17
1219.021	665.17
1223.941	664.83
1228.856	670.83
1233.766	665.5
1238.672	668.5
1243.572	659.17
1248.467	660.17
1253.358	648.17
1258.244	629.17
1263.124	620.83
1268	609.5
1272.871	603.5
1277.737	588.5
1282.599	585.83
1287.455	589.83
1292.306	587.83
1297.153	592.5
1301.995	595.5
1306.832	586.5
1311.664	598.83
1316.491	591.5
1321.314	579.5
1326.132	571.5
1330.945	566.83
1335.753	542.5
1340.556	536.17
1345.354	527.83
1350.148	519.5
1354.937	516.83
1359.722	505.83
1364.501	506.5
1369.276	509.17
1374.046	507.5
1378.811	511.83
1383.572	511.17
1388.327	500.83
1393.079	495.83
1397.825	490.5
1402.567	475.5
1407.304	476.17
1412.036	469.5
1416.764	467.5
1421.487	462.5
1426.205	462.83
1430.919	464.83
1435.628	473.83
1440.333	477.5
1445.032	477.83
1449.727	478.83
1454.418	474.83
1459.104	471.5
1463.785	477.17
1468.462	470.5
1473.134	463.17
1477.802	457.5
1482.465	458.17
1487.123	460.17
1491.777	465.83
1496.426	467.5
1501.071	476.83
1505.711	490.17
1510.347	503.83
1514.978	511.17
1519.604	519.17
1524.226	526.5
1528.844	523.5
1533.457	531.83
1538.065	540.5
1542.669	543.83
1547.269	538.83
1551.864	547.83
1556.454	563.83
1561.041	579.5
1565.622	588.5
1570.199	609.5
1574.772	630.17
1579.34	657.5
1583.904	685.17
1588.464	701.5
1593.019	734.17
1597.569	763.17
1602.115	784.17
1606.657	809.5
1611.195	839.17
1615.728	864.83
1620.256	887.83
1624.78	918.17
1629.3	957.17
1633.816	967.83
1638.327	989.5
1642.834	1002.5
1647.336	1011.17
1651.834	1015.17
1656.328	999.83
1660.817	978.17
1665.302	954.5
1669.783	908.5
1674.259	876.17
1678.732	827.5
1683.199	767.83
1687.663	714.83
1692.122	662.83
1696.577	613.5
1701.028	571.83
1705.474	539.17
1709.917	507.17
1714.355	473.17
1718.788	442.83
1723.218	414.17
1727.643	385.5
1732.064	357.17
1736.481	329.5
1740.893	299.5
1745.301	281.83
1749.705	259.5
1754.105	243.5
1758.501	218.5
1762.893	207.83
1767.28	194.83
1771.663	183.17
1776.042	176.17
1780.417	170.17
1784.787	169.17
1789.154	165.17
1793.516	161.83
1797.874	155.83
1802.228	153.83
1806.578	150.5
1810.924	141.5
1815.266	137.17
1819.603	126.17
1823.937	119.5
1828.266	115.17
1832.591	114.17
1836.913	109.5
1841.23	105.17
1845.543	104.17
1849.852	102.17
1854.156	103.5
1858.457	99.5
1862.754	105.17
1867.047	103.5
1871.335	104.17
1875.62	104.5
1879.9	106.5
1884.177	100.83
1888.449	100.17
1892.718	105.83
1896.982	105.5
1901.243	107.17
1905.499	100.17
1909.752	103.5
1914	102.5
1918.245	105.17
1922.485	109.83
1926.722	113.17
1930.954	111.17
1935.183	117.83
1939.408	120.83
1943.628	123.17
1947.845	122.5
1952.058	125.17
1956.267	122.5
1960.472	115.17
1964.673	113.5
1968.87	113.83
1973.063	113.83
1977.252	112.5
1981.438	110.17
1985.619	111.17
1989.797	116.5
1993.971	115.83
1998.14	116.17
2002.306	120.17
2006.469	121.17
2010.627	121.5
2014.781	129.83
2018.932	127.17
2023.078	128.5
2027.221	132.83
2031.36	131.5
2035.495	126.83
2039.627	128.17
2043.754	126.83
2047.878	128.5
2051.998	130.83
2056.114	133.17
2060.226	136.17
2064.334	136.5
2068.439	138.17
2072.54	147.17
2076.637	144.17
2080.73	150.17
2084.82	154.5
2088.906	154.5
2092.988	155.83
2097.066	153.5
2101.14	145.5
2105.211	150.17
2109.278	143.83
2113.342	142.5
2117.401	141.5
2121.457	142.17
2125.509	137.17
2129.558	135.5
2133.602	129.5
2137.643	126.83
2141.681	126.5
2145.714	120.17
2149.744	116.17
2153.77	121.17
2157.793	115.5
2161.812	105.5
2165.827	105.17
2169.838	98.83
2173.846	91.17
2177.851	88.5
2181.851	83.5
2185.848	74.83
2189.841	77.5
2193.831	67.83
2197.817	65.5
2201.799	66.5
2205.778	60.83
2209.753	54.83
2213.725	56.5
2217.693	53.83
2221.657	53.5
2225.618	45.5
2229.575	41.5
2233.529	42.17
2237.479	36.5
2241.425	36.83
2245.368	31.17
2249.307	21.5
2253.243	22.17
2257.175	20.5
2261.104	8.17
2265.029	8.5
2268.95	4.83
2272.868	4.83
2276.783	-0.17
2280.694	-2.5
2284.601	-5.5
2288.505	-8.17
2292.405	-16.5
2296.302	-14.5
2300.195	-20.17
2304.085	-21.83
2307.971	-24.17
2311.854	-26.5
2315.734	-30.17
2319.609	-31.5
2323.482	-34.5
2327.351	-34.83
2331.216	-32.83
2335.078	-33.17
2338.937	-36.83
2342.792	-38.5
2346.643	-41.5
2350.492	-43.5
2354.336	-48.17
2358.178	-46.83
2362.015	-48.5
2365.85	-46.5
2369.681	-48.5
2373.508	-48.17
2377.333	-50.17
2381.153	-50.17
2384.971	-48.5
2388.785	-52.17
2392.595	-51.17
2396.402	-53.17
2400.206	-53.17
2404.007	-55.5
2407.804	-58.17
2411.597	-59.5
2415.388	-60.5
2419.174	-58.17
2422.958	-58.17
2426.738	-63.83
2430.515	-63.83
2434.289	-64.83
2438.059	-65.5
2441.825	-64.17
2445.589	-67.17
2449.349	-66.83
2453.106	-69.83
2456.859	-70.17
2460.61	-70.83
2464.356	-70.83
2468.1	-72.17
2471.84	-74.17
2475.577	-73.83
2479.311	-72.83
2483.041	-71.17
2486.768	-75.17
2490.492	-75.17
2494.213	-74.83
2497.93	-76.17
2501.644	-74.5
2505.355	-76.5
2509.062	-75.17
2512.766	-75.5
2516.467	-77.17
2520.165	-78.5
2523.859	-77.17
2527.551	-82.5
2531.239	-78.5
2534.923	-80.5
2538.605	-81.17
2542.283	-80.83
2545.958	-80.83
2549.63	-79.5
2553.299	-82.5
2556.964	-81.83
2560.626	-84.17
2564.285	-81.17
2567.941	-81.83
2571.594	-84.17
2575.243	-85.17
2578.89	-84.83
2582.533	-83.17
2586.173	-84.17
2589.809	-87.5
2593.443	-87.17
2597.073	-88.5
2600.701	-88.83
2604.325	-89.83
2607.946	-90.17
2611.564	-86.83
2615.178	-87.83
2618.79	-87.83
2622.398	-89.5
2626.004	-86.83
2629.606	-90.17
2633.205	-90.17
2636.801	-89.83
2640.394	-89.5
2643.983	-88.83
2647.57	-86.5
2651.153	-89.17
2654.734	-88.5
2658.311	-91.17
2661.885	-89.83
2665.456	-93.5
2669.025	-86.17
2672.589	-89.5
2676.151	-89.17
2679.71	-89.17
2683.266	-88.5
2686.819	-87.83
2690.368	-89.17
2693.915	-87.17
2697.458	-84.83
2700.999	-90.5
2704.536	-88.17
2708.071	-87.17
2711.602	-88.17
2715.13	-87.17
2718.656	-86.17
2722.178	-85.17
2725.697	-83.17
2729.214	-84.17
2732.727	-81.83
2736.237	-80.83
2739.744	-81.83
2743.249	-80.17
2746.75	-79.83
2750.248	-75.17
2753.743	-74.5
2757.236	-72.83
2760.725	-73.17
2764.211	-73.5
2767.695	-70.17
2771.175	-70.83
2774.652	-72.83
2778.127	-67.17
2781.598	-68.5
2785.067	-65.5
2788.532	-61.5
2791.995	-61.83
2795.455	-60.17
2798.911	-59.5
2802.365	-56.83
2805.816	-54.83
2809.264	-50.5
2812.709	-48.17
2816.151	-49.83
2819.59	-44.83
2823.026	-46.5
2826.46	-40.5
2829.89	-39.17
2833.318	-36.83
2836.742	-35.17
2840.164	-28.83
2843.583	-26.83
2846.999	-23.5
2850.412	-20.5
2853.822	-16.5
2857.229	-14.5
2860.634	-11.17
2864.035	-7.17
2867.434	-1.83
2870.83	2.83
2874.223	4.83
2877.613	7.5
2881	12.83
2884.385	16.5
2887.766	20.17
2891.145	24.17
2894.521	24.83
2897.894	30.5
2901.264	30.5
2904.631	39.5
2907.996	40.83
2911.358	48.17
2914.717	56.17
2918.073	55.17
2921.426	64.17
2924.777	66.5
2928.124	71.83
2931.469	82.17
2934.811	89.5
2938.15	92.5
2941.487	98.17
2944.821	105.83
2948.152	114.17
2951.48	122.17
2954.805	126.83
2958.128	136.83
2961.447	147.83
2964.765	149.5
2968.079	159.5
2971.39	166.17
2974.699	179.83
2978.005	189.83
2981.308	201.17
2984.609	216.17
2987.907	235.5
2991.202	243.5
2994.494	257.17
2997.784	268.83
3001.07	281.83
3004.355	294.17
3007.636	311.5
3010.915	324.83
3014.191	333.83
3017.464	339.83
3020.734	355.83
3024.002	366.17
3027.267	375.5
3030.53	390.83
3033.789	402.5
3037.046	413.83
3040.301	428.17
3043.552	441.5
3046.801	463.17
3050.048	484.83
3053.291	499.5
3056.532	516.5
3059.771	539.17
3063.006	568.5
3066.239	591.5
3069.469	612.17
3072.697	637.5
3075.922	660.5
3079.144	678.83
3082.364	707.17
3085.581	721.83
3088.795	747.5
3092.007	766.17
3095.216	795.83
3098.423	814.5
3101.627	845.17
3104.828	871.5
3108.026	892.17
3111.222	912.5
3114.416	943.17
3117.607	965.5
3120.795	995.83
3123.98	1031.17
3127.163	1048.5
3130.344	1082.83
3133.521	1108.5
3136.696	1132.17
3139.869	1160.17
3143.039	1194.5
3146.206	1226.5
3149.371	1239.17
3152.533	1239.5
3155.693	1265.17
3158.85	1282.17
3162.005	1282.17
3165.157	1294.5
3168.306	1299.17
3171.453	1313.17
3174.597	1312.17
3177.739	1323.83
3180.878	1329.17
3184.014	1335.83
3187.149	1348.83
3190.28	1353.5
3193.409	1352.17
3196.536	1364.83
3199.659	1370.83
3202.781	1387.5
3205.9	1376.17
3209.016	1388.5
3212.13	1383.17
3215.241	1381.83
3218.35	1378.5
3221.456	1361.17
3224.56	1367.17
3227.661	1346.17
3230.76	1339.83
3233.856	1333.5
3236.95	1327.5
3240.041	1321.17
3243.13	1316.5
3246.216	1305.17
3249.3	1307.83
3252.382	1305.17
3255.46	1299.5
3258.537	1283.83
3261.611	1282.5
3264.682	1288.17
3267.751	1300.5
3270.818	1286.17
3273.882	1279.5
3276.943	1274.5
3280.002	1259.17
3283.059	1247.5
3286.113	1232.17
3289.165	1213.17
3292.214	1199.17
3295.261	1177.83
3298.306	1167.83
3301.348	1152.83
3304.387	1134.5
3307.425	1107.17
3310.459	1102.17
3313.492	1094.83
3316.521	1079.83
3319.549	1066.17
3322.574	1059.5
3325.597	1055.5
3328.617	1048.83
3331.635	1036.5
3334.65	1039.17
3337.663	1030.83
3340.674	1038.17
3343.682	1027.17
3346.688	1029.17
3349.691	1029.5
3352.692	1019.83
3355.691	1014.17
3358.687	1007.17
3361.681	1006.5
3364.673	991.17
3367.662	980.17
3370.649	962.5
3373.633	946.17
3376.615	940.83
3379.595	932.17
3382.572	919.5
3385.547	906.83
3388.52	891.5
3391.49	879.83
3394.458	878.83
3397.424	866.5
3400.387	853.17
3403.348	844.83
3406.307	830.83
3409.263	836.83
3412.217	835.5
3415.168	807.83
3418.118	805.5
3421.065	801.83
3424.009	789.17
3426.951	782.17
3429.891	764.17
3432.829	749.5
3435.764	745.17
3438.697	719.17
3441.628	712.83
3444.557	692.5
3447.483	676.83
3450.407	656.5
3453.328	636.83
3456.247	618.17
3459.164	597.17
3462.079	592.17
3464.991	563.83
3467.902	553.17
3470.809	527.17
3473.715	524.83
3476.618	502.83
3479.519	494.5
3482.418	470.83
3485.315	463.17
3488.209	448.83
3491.101	438.17
3493.99	423.5
3496.878	421.17
3499.763	402.83
3502.646	391.5
3505.527	373.5
3508.405	365.83
3511.281	345.17
3514.155	332.83
3517.027	314.5
3519.897	299.17
3522.764	284.83
3525.629	269.83
3528.492	260.17
3531.352	242.83
3534.211	228.5
3537.067	210.83
3539.921	205.17
3542.773	194.5
3545.622	179.5
3548.469	169.17
3551.315	158.5
3554.157	148.17
3556.998	134.5
3559.837	126.5
3562.673	120.83
3565.507	113.83
3568.339	105.5
3571.169	99.5
3573.996	89.5
3576.822	81.83
3579.645	75.17
3582.466	66.17
3585.285	61.5
3588.101	53.17
3590.916	46.5
3593.728	41.17
3596.538	29.83
3599.346	26.5
3602.152	18.83
3604.956	10.5
3607.757	8.17
3610.556	3.83
3613.354	-6.17
3616.149	-7.5
3618.942	-12.5
3621.732	-17.17
3624.521	-20.83
3627.307	-25.83
3630.092	-30.83
3632.874	-37.83
3635.654	-38.83
3638.432	-40.17
3641.208	-45.17
3643.982	-51.83
3646.753	-51.83
3649.523	-57.5
3652.29	-61.5
3655.055	-65.17
3657.818	-65.5
3660.579	-68.83
3663.338	-69.83
3666.095	-77.83
3668.849	-83.5
3671.602	-83.17
3674.352	-87.17
3677.101	-88.17
3679.847	-92.83
3682.591	-95.17
3685.333	-95.5
3688.073	-98.5
3690.811	-102.5
3693.547	-101.83
3696.281	-104.17
3699.013	-106.83
3701.742	-108.17
3704.47	-109.83
3707.195	-111.5
3709.919	-112.83
3712.64	-116.17
3715.359	-115.17
3718.076	-117.83
3720.792	-119.17
3723.505	-123.83
3726.216	-122.83
3728.925	-123.5
3731.632	-124.17
3734.336	-124.83
3737.039	-126.17
3739.74	-128.5
3742.439	-129.83
3745.136	-130.5
3747.83	-129.83
3750.523	-129.83
3753.213	-128.5
3755.902	-134.17
3758.589	-131.17
3761.273	-132.5
3763.956	-134.17
3766.636	-131.83
3769.315	-133.5
3771.991	-135.17
3774.665	-134.83
3777.338	-135.5
3780.008	-135.17
3782.677	-137.17
3785.343	-138.5
3788.007	-135.5
3790.67	-138.5
3793.33	-137.17
3795.989	-138.83
3798.645	-141.17
3801.299	-140.5
3803.952	-138.5
3806.602	-140.5
3809.251	-138.83
3811.897	-138.5
3814.542	-140.83
3817.184	-139.83
3819.825	-139.5
3822.463	-139.83
3825.1	-141.5
3827.735	-139.83
3830.367	-138.83
3832.998	-142.17
3835.627	-141.83
3838.253	-140.5
3840.878	-143.5
3843.501	-143.17
3846.122	-141.83
3848.741	-140.17
3851.358	-142.83
3853.973	-143.83
3856.586	-143.83
3859.197	-144.5
3861.806	-141.5
3864.414	-141.17
3867.019	-140.5
3869.622	-137.5
3872.224	-138.83
3874.823	-136.5
3877.421	-129.83
3880.016	-125.17
3882.61	-116.17
3885.202	-110.83
3887.792	-119.83
3890.38	-128.83
3892.966	-134.17
3895.55	-141.83
3898.132	-142.5
3900.713	-145.17
3903.291	-144.5
3905.868	-144.17
3908.442	-145.5
3911.015	-144.17
3913.586	-143.5
3916.155	-148.5
3918.722	-148.17
3921.287	-145.5
3923.85	-148.83
3926.411	-146.83
3928.971	-146.83
3931.528	-144.5
3934.084	-146.5
3936.638	-148.17
3939.19	-146.5
3941.74	-145.5
3944.288	-146.17
3946.834	-146.5
3949.378	-145.5
3951.921	-148.17
3954.462	-146.83
3957	-147.17
3959.537	-146.17
3962.072	-145.5
3964.606	-147.17
3967.137	-148.17
3969.667	-145.5
3972.194	-147.83
3974.72	-145.5
3977.244	-146.5
3979.766	-145.5
3982.286	-145.5
3984.805	-145.17
3987.321	-143.83
3989.836	-146.83
3992.349	-147.83
3994.86	-144.83
3997.369	-144.83
3999.877	-145.17
4002.382	-144.83
4004.886	-145.5
4007.388	-147.17
4009.888	-144.83
4012.386	-144.83
4014.883	-144.5
4017.377	-145.5
4019.87	-145.83
4022.361	-148.5
4024.85	-144.17
4027.338	-146.17
4029.823	-145.83
4032.307	-145.5
4034.789	-144.17
4037.269	-146.17
4039.747	-146.83
4042.224	-146.17
4044.699	-147.83
4047.172	-147.17
4049.643	-145.5
4052.112	-145.83
4054.58	-145.5
4057.046	-146.83
4059.51	-146.5
4061.972	-145.83
4064.432	-145.83
4066.891	-146.17
4069.348	-145.5
4071.803	-145.17
4074.256	-144.17
4076.708	-143.83
4079.158	-146.17
4081.606	-148.17
4084.052	-147.17
4086.497	-144.17
4088.939	-144.17
4091.38	-146.17
4093.819	-146.83
4096.257	-150.17
4098.693	-149.5
4101.127	-152.17
4103.559	-151.5
4105.989	-89.83
4108.418	-89.17
4110.845	-83.17
4113.27	-78.17
4115.694	-71.83
4118.115	-59.83
4120.535	-144.17
4122.954	-145.5
4125.37	-143.5
4127.785	-146.83
4130.198	-144.83
4132.609	-144.5
4135.019	-149.5
4137.427	-149.83
4139.833	-149.83
4142.237	-148.5
