Data from Water 3_I=1_T=5x3_3ml_RamanShift_1.txt Node
Date: Mon May 29 13:28:22 IDT 2017
User: aro
Spectrometer: QEPB0276
Trigger mode: 0
Integration Time (sec): 5.000000E0
Scans to average: 3
Electric dark correction enabled: true
Nonlinearity correction enabled: false
Boxcar width: 0
XAxis mode: Raman Shifts
Number of Pixels in Spectrum: 1044
>>>>>Begin Spectral Data<<<<<
160.701	-39.71
166.742	-0.71
172.777	118.96
178.805	509.29
184.826	1438.29
190.841	3005.29
196.849	4798.62
202.85	5973.62
208.845	6244.63
214.833	6010.96
220.815	5739.63
226.789	5534.96
232.758	5359.62
238.719	5161.63
244.674	4926.96
250.623	4685.29
256.565	4422.96
262.5	4194.96
268.429	3977.29
274.351	3801.96
280.267	3613.29
286.176	3460.29
292.079	3320.29
297.975	3191.63
303.865	3089.29
309.748	2990.29
315.625	2915.29
321.495	2860.96
327.359	2820.96
333.217	2787.29
339.068	2751.96
344.912	2751.63
350.751	2737.63
356.583	2725.29
362.408	2722.29
368.227	2722.96
374.04	2750.29
379.847	2775.96
385.647	2794.29
391.44	2797.96
397.228	2777.29
403.009	2793.63
408.784	2824.96
414.553	2910.62
420.315	3004.96
426.071	2995.62
431.821	2897.62
437.565	2816.63
443.302	2769.29
449.033	2743.29
454.758	2726.29
460.477	2699.96
466.189	2690.29
471.896	2665.63
477.596	2645.63
483.29	2614.29
488.978	2598.63
494.66	2576.29
500.335	2543.29
506.005	2496.96
511.668	2425.96
517.325	2382.96
522.977	2337.29
528.622	2308.96
534.261	2253.96
539.894	2231.62
545.521	2213.29
551.141	2176.63
556.756	2150.96
562.365	2140.63
567.968	2113.96
573.565	2107.29
579.155	2079.29
584.74	2061.29
590.319	2036.96
595.892	2014.96
601.459	1991.29
607.02	1969.29
612.575	1942.29
618.124	1905.62
623.667	1895.29
629.204	1869.29
634.735	1860.29
640.261	1864.62
645.781	1873.62
651.294	1876.63
656.802	1846.62
662.304	1791.96
667.8	1764.96
673.29	1743.96
678.775	1728.96
684.254	1710.96
689.726	1676.29
695.193	1673.62
700.655	1657.63
706.11	1634.63
711.56	1611.29
717.004	1601.62
722.442	1586.96
727.874	1567.63
733.301	1553.29
738.722	1537.29
744.137	1534.96
749.547	1521.96
754.951	1514.63
760.349	1511.96
765.741	1495.29
771.128	1478.96
776.509	1459.63
781.885	1469.96
787.254	1443.62
792.618	1426.96
797.977	1408.63
803.33	1385.63
808.677	1366.29
814.019	1346.29
819.355	1316.96
824.686	1295.96
830.011	1284.96
835.33	1271.63
840.644	1251.62
845.952	1240.29
851.255	1219.29
856.552	1203.63
861.844	1185.96
867.13	1165.96
872.41	1147.96
877.686	1120.29
882.955	1103.96
888.219	1077.96
893.478	1056.63
898.731	1035.63
903.979	1000.63
909.221	984.63
914.458	971.29
919.69	962.29
924.916	947.29
930.136	939.63
935.351	932.63
940.561	911.96
945.766	911.96
950.965	896.96
956.158	878.96
961.347	862.63
966.529	853.62
971.707	828.29
976.879	814.96
982.046	805.29
987.208	786.62
992.364	789.62
997.515	786.29
1002.66	790.29
1007.801	791.96
1012.936	792.29
1018.066	801.62
1023.19	807.29
1028.309	791.96
1033.423	792.29
1038.532	779.29
1043.636	773.29
1048.734	758.29
1053.827	756.63
1058.915	736.29
1063.998	736.29
1069.075	727.29
1074.147	728.62
1079.214	727.29
1084.276	734.29
1089.333	734.29
1094.385	741.63
1099.431	743.96
1104.472	735.96
1109.509	727.29
1114.54	712.29
1119.565	706.96
1124.586	692.96
1129.602	686.29
1134.613	675.29
1139.618	674.29
1144.619	671.96
1149.614	674.96
1154.604	677.29
1159.589	672.96
1164.57	672.96
1169.545	677.63
1174.515	680.96
1179.48	670.63
1184.44	665.96
1189.395	658.29
1194.345	645.96
1199.29	647.63
1204.23	652.29
1209.165	648.63
1214.095	663.63
1219.021	652.62
1223.941	669.29
1228.856	665.29
1233.766	663.29
1238.672	656.96
1243.572	662.62
1248.467	654.62
1253.358	642.29
1258.244	634.29
1263.124	619.29
1268	608.29
1272.871	594.62
1277.737	592.62
1282.599	586.63
1287.455	585.29
1292.306	585.63
1297.153	586.29
1301.995	585.29
1306.832	593.63
1311.664	597.29
1316.491	587.63
1321.314	583.96
1326.132	575.96
1330.945	560.96
1335.753	551.96
1340.556	539.63
1345.354	529.96
1350.148	520.29
1354.937	518.29
1359.722	505.96
1364.501	507.96
1369.276	507.29
1374.046	507.96
1378.811	512.63
1383.572	513.96
1388.327	504.96
1393.079	495.63
1397.825	488.96
1402.567	472.29
1407.304	468.96
1412.036	465.29
1416.764	460.63
1421.487	460.96
1426.205	467.63
1430.919	466.62
1435.628	470.63
1440.333	473.63
1445.032	477.62
1449.727	483.63
1454.418	487.29
1459.104	477.29
1463.785	481.29
1468.462	466.29
1473.134	464.62
1477.802	454.96
1482.465	459.96
1487.123	461.96
1491.777	463.29
1496.426	470.96
1501.071	486.63
1505.711	491.62
1510.347	503.62
1514.978	513.29
1519.604	526.29
1524.226	523.96
1528.844	523.29
1533.457	535.29
1538.065	536.29
1542.669	533.63
1547.269	541.96
1551.864	550.96
1556.454	567.96
1561.041	581.29
1565.622	593.96
1570.199	604.96
1574.772	631.96
1579.34	656.96
1583.904	684.63
1588.464	710.63
1593.019	723.63
1597.569	760.63
1602.115	794.29
1606.657	806.63
1611.195	821.63
1615.728	864.29
1620.256	886.96
1624.78	919.96
1629.3	942.62
1633.816	964.63
1638.327	990.96
1642.834	1001.96
1647.336	1005.96
1651.834	998.63
1656.328	986.29
1660.817	975.96
1665.302	945.96
1669.783	906.29
1674.259	852.96
1678.732	820.29
1683.199	772.63
1687.663	709.62
1692.122	656.63
1696.577	617.63
1701.028	573.96
1705.474	536.96
1709.917	510.62
1714.355	473.62
1718.788	437.63
1723.218	410.96
1727.643	382.29
1732.064	362.96
1736.481	324.63
1740.893	303.29
1745.301	281.29
1749.705	261.96
1754.105	240.96
1758.501	225.63
1762.893	208.62
1767.28	198.29
1771.663	183.62
1776.042	177.63
1780.417	168.29
1784.787	165.96
1789.154	159.96
1793.516	161.63
1797.874	158.62
1802.228	152.96
1806.578	150.29
1810.924	142.96
1815.266	136.29
1819.603	126.96
1823.937	123.29
1828.266	116.96
1832.591	110.63
1836.913	108.63
1841.23	105.96
1845.543	101.62
1849.852	101.96
1854.156	100.29
1858.457	100.63
1862.754	99.96
1867.047	102.96
1871.335	99.96
1875.62	102.96
1879.9	101.29
1884.177	99.29
1888.449	103.29
1892.718	103.29
1896.982	97.29
1901.243	101.96
1905.499	104.29
1909.752	101.62
1914	103.29
1918.245	104.63
1922.485	105.63
1926.722	111.63
1930.954	112.62
1935.183	117.96
1939.408	119.62
1943.628	118.63
1947.845	123.96
1952.058	124.63
1956.267	117.96
1960.472	114.29
1964.673	114.29
1968.87	112.96
1973.063	114.63
1977.252	110.96
1981.438	108.96
1985.619	111.29
1989.797	113.63
1993.971	115.62
1998.14	113.63
2002.306	119.29
2006.469	121.29
2010.627	122.96
2014.781	127.63
2018.932	129.96
2023.078	128.63
2027.221	125.29
2031.36	125.29
2035.495	126.96
2039.627	129.96
2043.754	127.96
2047.878	129.63
2051.998	125.29
2056.114	132.29
2060.226	137.63
2064.334	138.96
2068.439	136.96
2072.54	141.96
2076.637	144.29
2080.73	145.62
2084.82	146.96
2088.906	153.62
2092.988	149.96
2097.066	145.29
2101.14	152.29
2105.211	150.62
2109.278	142.29
2113.342	143.63
2117.401	134.96
2121.457	132.29
2125.509	135.29
2129.558	133.29
2133.602	130.96
2137.643	127.29
2141.681	125.63
2145.714	119.63
2149.744	116.29
2153.77	114.62
2157.793	111.29
2161.812	105.96
2165.827	106.29
2169.838	100.96
2173.846	93.96
2177.851	87.96
2181.851	83.63
2185.848	77.96
2189.841	74.96
2193.831	70.96
2197.817	66.96
2201.799	60.63
2205.778	59.63
2209.753	56.96
2213.725	56.63
2217.693	57.29
2221.657	50.63
2225.618	44.62
2229.575	42.96
2233.529	39.63
2237.479	37.29
2241.425	34.96
2245.368	31.62
2249.307	21.63
2253.243	20.63
2257.175	14.96
2261.104	12.63
2265.029	9.96
2268.95	7.29
2272.868	0.96
2276.783	1.29
2280.694	-4.04
2284.601	-7.04
2288.505	-8.04
2292.405	-11.71
2296.302	-10.71
2300.195	-17.04
2304.085	-19.71
2307.971	-24.37
2311.854	-21.71
2315.734	-29.04
2319.609	-31.71
2323.482	-32.38
2327.351	-33.71
2331.216	-30.38
2335.078	-36.04
2338.937	-39.71
2342.792	-39.71
2346.643	-42.04
2350.492	-42.38
2354.336	-43.71
2358.178	-44.38
2362.015	-45.37
2365.85	-46.04
2369.681	-46.04
2373.508	-45.71
2377.333	-46.71
2381.153	-48.37
2384.971	-49.71
2388.785	-50.37
2392.595	-53.04
2396.402	-53.04
2400.206	-54.38
2404.007	-55.38
2407.804	-56.71
2411.597	-60.38
2415.388	-59.71
2419.174	-60.04
2422.958	-59.37
2426.738	-61.71
2430.515	-65.37
2434.289	-62.37
2438.059	-66.71
2441.825	-66.37
2445.589	-65.71
2449.349	-66.04
2453.106	-67.71
2456.859	-69.71
2460.61	-71.71
2464.356	-68.71
2468.1	-71.37
2471.84	-71.38
2475.577	-74.37
2479.311	-72.38
2483.041	-75.37
2486.768	-74.71
2490.492	-76.04
2494.213	-76.38
2497.93	-74.04
2501.644	-74.71
2505.355	-76.04
2509.062	-74.37
2512.766	-74.71
2516.467	-76.37
2520.165	-77.38
2523.859	-76.37
2527.551	-79.71
2531.239	-77.04
2534.923	-79.38
2538.605	-77.04
2542.283	-78.71
2545.958	-81.04
2549.63	-78.37
2553.299	-82.04
2556.964	-81.37
2560.626	-81.71
2564.285	-80.04
2567.941	-82.71
2571.594	-84.04
2575.243	-82.04
2578.89	-82.71
2582.533	-83.71
2586.173	-83.04
2589.809	-86.71
2593.443	-87.71
2597.073	-87.71
2600.701	-87.04
2604.325	-87.37
2607.946	-88.37
2611.564	-87.71
2615.178	-86.04
2618.79	-87.04
2622.398	-87.04
2626.004	-88.71
2629.606	-88.71
2633.205	-89.38
2636.801	-86.71
2640.394	-85.37
2643.983	-86.04
2647.57	-88.71
2651.153	-90.71
2654.734	-88.04
2658.311	-88.38
2661.885	-88.37
2665.456	-91.04
2669.025	-87.04
2672.589	-87.04
2676.151	-88.04
2679.71	-86.71
2683.266	-88.04
2686.819	-88.04
2690.368	-89.37
2693.915	-87.04
2697.458	-85.38
2700.999	-86.04
2704.536	-85.04
2708.071	-86.04
2711.602	-84.04
2715.13	-82.04
2718.656	-84.71
2722.178	-82.71
2725.697	-84.38
2729.214	-81.71
2732.727	-80.04
2736.237	-79.04
2739.744	-78.37
2743.249	-79.71
2746.75	-75.38
2750.248	-73.71
2753.743	-76.37
2757.236	-70.37
2760.725	-69.37
2764.211	-71.38
2767.695	-70.38
2771.175	-71.04
2774.652	-69.37
2778.127	-68.71
2781.598	-64.71
2785.067	-64.37
2788.532	-60.71
2791.995	-61.37
2795.455	-58.37
2798.911	-57.04
2802.365	-51.04
2805.816	-51.37
2809.264	-49.04
2812.709	-48.37
2816.151	-46.71
2819.59	-43.37
2823.026	-41.37
2826.46	-36.04
2829.89	-35.38
2833.318	-33.37
2836.742	-31.04
2840.164	-26.37
2843.583	-23.04
2846.999	-19.04
2850.412	-16.38
2853.822	-12.37
2857.229	-12.37
2860.634	-2.37
2864.035	-0.37
2867.434	-2.04
2870.83	4.29
2874.223	7.29
2877.613	12.63
2881	19.29
2884.385	23.96
2887.766	25.96
2891.145	26.63
2894.521	30.62
2897.894	33.96
2901.264	38.29
2904.631	40.63
2907.996	45.63
2911.358	53.63
2914.717	60.29
2918.073	62.63
2921.426	67.96
2924.777	75.63
2928.124	81.29
2931.469	92.29
2934.811	96.63
2938.15	102.29
2941.487	107.29
2944.821	115.63
2948.152	123.29
2951.48	134.62
2954.805	137.96
2958.128	146.62
2961.447	157.62
2964.765	160.29
2968.079	169.96
2971.39	175.63
2974.699	188.96
2978.005	199.29
2981.308	211.96
2984.609	223.63
2987.907	241.63
2991.202	250.96
2994.494	265.62
2997.784	283.96
3001.07	290.96
3004.355	306.96
3007.636	320.29
3010.915	332.63
3014.191	346.62
3017.464	356.29
3020.734	369.29
3024.002	372.29
3027.267	386.96
3030.53	398.96
3033.789	418.29
3037.046	424.62
3040.301	444.29
3043.552	465.63
3046.801	478.29
3050.048	493.96
3053.291	515.96
3056.532	532.63
3059.771	556.29
3063.006	588.63
3066.239	599.96
3069.469	625.96
3072.697	650.96
3075.922	682.96
3079.144	704.63
3082.364	731.96
3085.581	744.63
3088.795	773.29
3092.007	786.63
3095.216	822.29
3098.423	842.62
3101.627	864.29
3104.828	884.96
3108.026	918.62
3111.222	938.96
3114.416	964.96
3117.607	994.62
3120.795	1021.29
3123.98	1050.29
3127.163	1084.62
3130.344	1109.96
3133.521	1136.29
3136.696	1175.63
3139.869	1198.62
3143.039	1221.96
3146.206	1240.63
3149.371	1269.63
3152.533	1285.62
3155.693	1289.96
3158.85	1303.96
3162.005	1312.96
3165.157	1316.63
3168.306	1322.96
3171.453	1332.29
3174.597	1345.63
3177.739	1355.29
3180.878	1359.96
3184.014	1366.62
3187.149	1372.63
3190.28	1367.96
3193.409	1387.29
3196.536	1396.29
3199.659	1404.96
3202.781	1394.29
3205.9	1406.96
3209.016	1411.29
3212.13	1410.96
3215.241	1403.29
3218.35	1389.29
3221.456	1394.62
3224.56	1381.62
3227.661	1379.63
3230.76	1372.63
3233.856	1351.96
3236.95	1337.96
3240.041	1344.29
3243.13	1322.29
3246.216	1320.29
3249.3	1313.29
3252.382	1309.63
3255.46	1322.29
3258.537	1310.29
3261.611	1305.29
3264.682	1288.96
3267.751	1301.29
3270.818	1299.96
3273.882	1287.62
3276.943	1284.63
3280.002	1265.96
3283.059	1250.63
3286.113	1239.96
3289.165	1213.96
3292.214	1207.29
3295.261	1183.96
3298.306	1168.96
3301.348	1154.63
3304.387	1137.63
3307.425	1118.62
3310.459	1110.29
3313.492	1094.29
3316.521	1073.63
3319.549	1073.29
3322.574	1054.96
3325.597	1062.29
3328.617	1043.63
3331.635	1046.63
3334.65	1040.96
3337.663	1034.96
3340.674	1030.96
3343.682	1024.62
3346.688	1024.29
3349.691	1021.96
3352.692	1017.29
3355.691	1005.96
3358.687	1006.96
3361.681	997.29
3364.673	980.29
3367.662	977.29
3370.649	955.96
3373.633	943.62
3376.615	937.29
3379.595	924.96
3382.572	919.29
3385.547	899.62
3388.52	886.96
3391.49	879.29
3394.458	871.62
3397.424	860.96
3400.387	855.96
3403.348	838.63
3406.307	828.63
3409.263	824.62
3412.217	818.96
3415.168	807.29
3418.118	800.63
3421.065	794.29
3424.009	778.96
3426.951	775.96
3429.891	758.29
3432.829	751.96
3435.764	732.96
3438.697	723.29
3441.628	695.96
3444.557	680.96
3447.483	664.29
3450.407	643.29
3453.328	630.63
3456.247	608.29
3459.164	592.96
3462.079	581.96
3464.991	554.63
3467.902	537.29
3470.809	524.96
3473.715	508.29
3476.618	492.63
3479.519	478.62
3482.418	463.62
3485.315	456.29
3488.209	441.29
3491.101	429.63
3493.99	415.62
3496.878	403.96
3499.763	389.29
3502.646	376.29
3505.527	361.63
3508.405	350.96
3511.281	339.96
3514.155	327.29
3517.027	311.62
3519.897	296.96
3522.764	275.96
3525.629	264.96
3528.492	252.96
3531.352	232.63
3534.211	225.96
3537.067	210.63
3539.921	199.62
3542.773	181.63
3545.622	175.29
3548.469	161.63
3551.315	153.96
3554.157	142.96
3556.998	132.29
3559.837	124.96
3562.673	121.29
3565.507	109.63
3568.339	102.63
3571.169	95.96
3573.996	87.96
3576.822	76.96
3579.645	76.62
3582.466	63.29
3585.285	56.96
3588.101	46.96
3590.916	44.29
3593.728	37.62
3596.538	28.63
3599.346	24.63
3602.152	15.96
3604.956	10.29
3607.757	6.96
3610.556	-2.71
3613.354	-4.04
3616.149	-11.04
3618.942	-15.04
3621.732	-18.37
3624.521	-24.71
3627.307	-27.71
3630.092	-32.04
3632.874	-34.38
3635.654	-38.71
3638.432	-44.37
3641.208	-47.04
3643.982	-48.71
3646.753	-51.04
3649.523	-57.04
3652.29	-59.71
3655.055	-63.04
3657.818	-65.37
3660.579	-68.71
3663.338	-73.71
3666.095	-75.04
3668.849	-80.71
3671.602	-81.04
3674.352	-84.37
3677.101	-88.04
3679.847	-89.71
3682.591	-94.37
3685.333	-95.37
3688.073	-98.04
3690.811	-99.71
3693.547	-103.04
3696.281	-104.38
3699.013	-104.37
3701.742	-108.37
3704.47	-109.37
3707.195	-109.71
3709.919	-111.71
3712.64	-111.71
3715.359	-114.71
3718.076	-116.04
3720.792	-119.04
3723.505	-118.71
3726.216	-119.38
3728.925	-122.37
3731.632	-123.04
3734.336	-123.38
3737.039	-123.37
3739.74	-124.71
3742.439	-125.37
3745.136	-127.71
3747.83	-129.71
3750.523	-130.04
3753.213	-129.71
3755.902	-129.04
3758.589	-129.37
3761.273	-129.38
3763.956	-129.71
3766.636	-130.04
3769.315	-132.04
3771.991	-131.37
3774.665	-132.71
3777.338	-133.04
3780.008	-134.71
3782.677	-132.38
3785.343	-135.71
3788.007	-134.37
3790.67	-135.38
3793.33	-135.04
3795.989	-137.04
3798.645	-136.04
3801.299	-138.38
3803.952	-136.04
3806.602	-137.71
3809.251	-138.04
3811.897	-136.71
3814.542	-138.04
3817.184	-138.71
3819.825	-137.37
3822.463	-137.37
3825.1	-139.37
3827.735	-139.71
3830.367	-138.37
3832.998	-140.04
3835.627	-139.71
3838.253	-139.37
3840.878	-139.37
3843.501	-139.38
3846.122	-138.04
3848.741	-139.37
3851.358	-140.37
3853.973	-140.37
3856.586	-140.37
3859.197	-141.04
3861.806	-139.71
3864.414	-140.38
3867.019	-138.04
3869.622	-135.04
3872.224	-137.37
3874.823	-134.04
3877.421	-128.37
3880.016	-124.71
3882.61	-117.37
3885.202	-114.71
3887.792	-121.04
3890.38	-128.71
3892.966	-134.04
3895.55	-140.71
3898.132	-140.71
3900.713	-142.38
3903.291	-141.04
3905.868	-141.04
3908.442	-142.71
3911.015	-142.04
3913.586	-141.04
3916.155	-144.71
3918.722	-145.04
3921.287	-143.38
3923.85	-145.37
3926.411	-144.71
3928.971	-143.37
3931.528	-141.71
3934.084	-142.71
3936.638	-143.38
3939.19	-142.71
3941.74	-143.37
3944.288	-143.38
3946.834	-144.04
3949.378	-144.38
3951.921	-143.37
3954.462	-144.71
3957	-144.04
3959.537	-141.04
3962.072	-143.38
3964.606	-144.71
3967.137	-145.71
3969.667	-141.71
3972.194	-144.37
3974.72	-142.37
3977.244	-144.37
3979.766	-140.04
3982.286	-143.04
3984.805	-141.71
3987.321	-139.37
3989.836	-142.71
3992.349	-142.37
3994.86	-140.04
3997.369	-141.37
3999.877	-140.71
4002.382	-139.71
4004.886	-142.71
4007.388	-144.37
4009.888	-141.38
4012.386	-141.71
4014.883	-142.04
4017.377	-142.38
4019.87	-141.04
4022.361	-143.04
4024.85	-141.71
4027.338	-143.04
4029.823	-143.71
4032.307	-143.71
4034.789	-142.37
4037.269	-143.71
4039.747	-142.71
4042.224	-144.04
4044.699	-145.71
4047.172	-143.71
4049.643	-143.71
4052.112	-144.71
4054.58	-141.37
4057.046	-142.37
4059.51	-142.71
4061.972	-142.04
4064.432	-142.71
4066.891	-142.37
4069.348	-141.71
4071.803	-141.71
4074.256	-140.37
4076.708	-142.37
4079.158	-143.04
4081.606	-144.71
4084.052	-142.71
4086.497	-142.71
4088.939	-142.37
4091.38	-144.37
4093.819	-141.71
4096.257	-146.71
4098.693	-147.37
4101.127	-150.04
4103.559	-149.38
4105.989	-92.71
4108.418	-88.71
4110.845	-84.71
4113.27	-77.71
4115.694	-68.71
4118.115	-59.04
4120.535	-140.04
4122.954	-139.71
4125.37	-140.37
4127.785	-143.04
4130.198	-142.37
4132.609	-143.04
4135.019	-146.37
4137.427	-147.71
4139.833	-147.38
4142.237	-146.37
