Data from Water 1_I=1_T=5x3_2ml_RamanShift_3.txt Node
Date: Mon May 29 13:23:26 IDT 2017
User: aro
Spectrometer: QEPB0276
Trigger mode: 0
Integration Time (sec): 5.000000E0
Scans to average: 3
Electric dark correction enabled: true
Nonlinearity correction enabled: false
Boxcar width: 0
XAxis mode: Raman Shifts
Number of Pixels in Spectrum: 1044
>>>>>Begin Spectral Data<<<<<
160.701	-44.62
166.742	0.04
172.777	125.38
178.805	525.38
184.826	1453.71
190.841	3065.04
196.849	4904.71
202.85	6112.71
208.845	6380.04
214.833	6144.38
220.815	5861.37
226.789	5656.04
232.758	5494.04
238.719	5289.04
244.674	5043.71
250.623	4817.38
256.565	4566.38
262.5	4308.71
268.429	4078.38
274.351	3896.37
280.267	3722.71
286.176	3573.71
292.079	3427.04
297.975	3295.38
303.865	3194.71
309.748	3090.71
315.625	3027.38
321.495	2953.04
327.359	2909.71
333.217	2884.04
339.068	2862.38
344.912	2849.71
350.751	2831.71
356.583	2827.04
362.408	2822.71
368.227	2818.04
374.04	2846.71
379.847	2879.38
385.647	2902.71
391.44	2888.38
397.228	2889.38
403.009	2900.38
408.784	2949.71
414.553	3017.04
420.315	3093.04
426.071	3101.71
431.821	3017.71
437.565	2913.37
443.302	2883.38
449.033	2857.71
454.758	2838.37
460.477	2819.71
466.189	2796.04
471.896	2764.04
477.596	2745.71
483.29	2728.38
488.978	2707.04
494.66	2677.04
500.335	2640.71
506.005	2613.04
511.668	2532.38
517.325	2480.71
522.977	2437.37
528.622	2397.71
534.261	2383.38
539.894	2341.04
545.521	2317.38
551.141	2281.04
556.756	2262.37
562.365	2243.38
567.968	2219.04
573.565	2206.04
579.155	2188.04
584.74	2155.04
590.319	2147.37
595.892	2119.04
601.459	2096.71
607.02	2069.38
612.575	2047.71
618.124	2020.71
623.667	1996.04
629.204	1970.71
634.735	1975.71
640.261	1961.04
645.781	1968.04
651.294	1965.04
656.802	1938.38
662.304	1885.04
667.8	1860.04
673.29	1841.37
678.775	1823.04
684.254	1811.71
689.726	1791.71
695.193	1779.71
700.655	1755.71
706.11	1736.38
711.56	1710.38
717.004	1702.04
722.442	1675.37
727.874	1660.38
733.301	1648.37
738.722	1638.38
744.137	1624.38
749.547	1632.04
754.951	1620.71
760.349	1608.37
765.741	1581.04
771.128	1573.04
776.509	1568.04
781.885	1551.04
787.254	1547.04
792.618	1528.71
797.977	1503.71
803.33	1482.04
808.677	1471.04
814.019	1441.04
819.355	1413.71
824.686	1395.71
830.011	1379.71
835.33	1360.04
840.644	1339.04
845.952	1333.04
851.255	1316.71
856.552	1307.38
861.844	1296.38
867.13	1278.04
872.41	1280.71
877.686	1284.38
882.955	1292.71
888.219	1261.38
893.478	1190.04
898.731	1147.38
903.979	1102.04
909.221	1078.71
914.458	1064.38
919.69	1046.38
924.916	1038.04
930.136	1021.04
935.351	1020.71
940.561	1006.71
945.766	1006.38
950.965	988.04
956.158	972.71
961.347	958.04
966.529	934.04
971.707	912.38
976.879	895.38
982.046	884.71
987.208	874.38
992.364	866.38
997.515	865.71
1002.66	875.04
1007.801	872.38
1012.936	883.71
1018.066	889.71
1023.19	895.04
1028.309	893.38
1033.423	891.71
1038.532	880.38
1043.636	872.38
1048.734	875.38
1053.827	860.04
1058.915	844.04
1063.998	836.71
1069.075	824.38
1074.147	818.38
1079.214	828.04
1084.276	837.38
1089.333	843.38
1094.385	843.71
1099.431	842.04
1104.472	839.71
1109.509	817.38
1114.54	810.38
1119.565	792.04
1124.586	767.38
1129.602	770.04
1134.613	757.04
1139.618	755.38
1144.619	750.38
1149.614	748.04
1154.604	750.04
1159.589	754.71
1164.57	751.71
1169.545	755.71
1174.515	753.04
1179.48	747.71
1184.44	745.71
1189.395	734.04
1194.345	723.71
1199.29	723.38
1204.23	721.71
1209.165	724.04
1214.095	732.04
1219.021	731.04
1223.941	739.04
1228.856	740.04
1233.766	737.38
1238.672	735.71
1243.572	739.04
1248.467	731.38
1253.358	715.38
1258.244	696.71
1263.124	690.04
1268	682.71
1272.871	677.71
1277.737	669.71
1282.599	673.38
1287.455	664.38
1292.306	667.04
1297.153	655.04
1301.995	662.71
1306.832	663.38
1311.664	663.38
1316.491	662.38
1321.314	653.04
1326.132	643.38
1330.945	633.71
1335.753	616.38
1340.556	608.71
1345.354	593.71
1350.148	581.71
1354.937	580.38
1359.722	575.71
1364.501	574.71
1369.276	573.04
1374.046	572.04
1378.811	569.04
1383.572	569.38
1388.327	570.04
1393.079	561.71
1397.825	551.71
1402.567	548.04
1407.304	540.04
1412.036	537.38
1416.764	533.71
1421.487	530.38
1426.205	529.04
1430.919	545.71
1435.628	544.38
1440.333	547.04
1445.032	561.38
1449.727	565.38
1454.418	575.71
1459.104	583.04
1463.785	569.04
1468.462	558.38
1473.134	543.38
1477.802	537.04
1482.465	532.71
1487.123	534.38
1491.777	539.71
1496.426	540.71
1501.071	551.71
1505.711	559.38
1510.347	567.71
1514.978	577.38
1519.604	586.38
1524.226	593.04
1528.844	590.71
1533.457	596.38
1538.065	594.71
1542.669	597.04
1547.269	597.71
1551.864	603.38
1556.454	622.04
1561.041	633.38
1565.622	651.71
1570.199	664.38
1574.772	692.71
1579.34	715.38
1583.904	734.71
1588.464	765.38
1593.019	793.38
1597.569	811.71
1602.115	844.04
1606.657	868.71
1611.195	891.04
1615.728	912.38
1620.256	939.38
1624.78	965.04
1629.3	995.71
1633.816	1023.04
1638.327	1041.04
1642.834	1051.71
1647.336	1066.71
1651.834	1061.38
1656.328	1046.04
1660.817	1028.38
1665.302	1003.71
1669.783	960.04
1674.259	924.04
1678.732	875.04
1683.199	814.71
1687.663	763.38
1692.122	713.04
1696.577	669.71
1701.028	623.71
1705.474	582.04
1709.917	551.71
1714.355	518.71
1718.788	486.38
1723.218	458.04
1727.643	429.38
1732.064	401.04
1736.481	373.38
1740.893	346.71
1745.301	322.38
1749.705	299.04
1754.105	280.04
1758.501	261.71
1762.893	242.04
1767.28	232.71
1771.663	223.04
1776.042	214.04
1780.417	203.71
1784.787	200.38
1789.154	202.04
1793.516	191.04
1797.874	193.04
1802.228	189.04
1806.578	183.04
1810.924	172.38
1815.266	168.04
1819.603	158.71
1823.937	155.04
1828.266	150.71
1832.591	144.38
1836.913	142.38
1841.23	140.71
1845.543	135.38
1849.852	135.71
1854.156	130.71
1858.457	133.04
1862.754	136.71
1867.047	138.71
1871.335	140.04
1875.62	137.04
1879.9	139.04
1884.177	132.71
1888.449	134.38
1892.718	136.38
1896.982	133.71
1901.243	129.38
1905.499	137.04
1909.752	133.71
1914	134.04
1918.245	136.38
1922.485	139.04
1926.722	144.38
1930.954	144.04
1935.183	147.71
1939.408	148.38
1943.628	148.04
1947.845	155.71
1952.058	153.04
1956.267	148.38
1960.472	141.38
1964.673	142.38
1968.87	142.04
1973.063	139.38
1977.252	135.71
1981.438	134.38
1985.619	135.04
1989.797	138.71
1993.971	140.71
1998.14	144.38
2002.306	145.04
2006.469	144.71
2010.627	147.04
2014.781	153.04
2018.932	154.38
2023.078	158.04
2027.221	153.38
2031.36	147.38
2035.495	150.38
2039.627	148.04
2043.754	147.71
2047.878	152.38
2051.998	153.04
2056.114	153.71
2060.226	161.04
2064.334	166.04
2068.439	163.38
2072.54	167.71
2076.637	170.04
2080.73	173.04
2084.82	176.04
2088.906	176.38
2092.988	176.04
2097.066	175.38
2101.14	171.04
2105.211	172.04
2109.278	165.38
2113.342	162.71
2117.401	166.38
2121.457	157.38
2125.509	159.71
2129.558	157.71
2133.602	149.71
2137.643	151.38
2141.681	145.38
2145.714	142.38
2149.744	138.38
2153.77	133.71
2157.793	131.71
2161.812	130.04
2165.827	125.04
2169.838	116.71
2173.846	108.38
2177.851	105.04
2181.851	104.71
2185.848	92.38
2189.841	93.71
2193.831	85.38
2197.817	84.04
2201.799	81.71
2205.778	80.71
2209.753	72.71
2213.725	72.38
2217.693	72.04
2221.657	65.38
2225.618	64.38
2229.575	57.71
2233.529	59.38
2237.479	56.04
2241.425	55.71
2245.368	46.04
2249.307	39.38
2253.243	35.38
2257.175	29.38
2261.104	28.38
2265.029	23.71
2268.95	19.04
2272.868	17.04
2276.783	14.71
2280.694	12.04
2284.601	3.04
2288.505	4.04
2292.405	-1.29
2296.302	-2.62
2300.195	-4.96
2304.085	-6.96
2307.971	-14.62
2311.854	-13.62
2315.734	-20.29
2319.609	-21.62
2323.482	-20.96
2327.351	-26.96
2331.216	-21.29
2335.078	-22.96
2338.937	-28.62
2342.792	-31.29
2346.643	-33.29
2350.492	-33.29
2354.336	-37.96
2358.178	-35.29
2362.015	-36.29
2365.85	-35.29
2369.681	-36.62
2373.508	-36.96
2377.333	-36.96
2381.153	-37.62
2384.971	-42.62
2388.785	-41.96
2392.595	-42.62
2396.402	-43.96
2400.206	-44.29
2404.007	-48.62
2407.804	-48.29
2411.597	-51.62
2415.388	-46.62
2419.174	-50.29
2422.958	-50.62
2426.738	-51.29
2430.515	-57.29
2434.289	-57.29
2438.059	-57.62
2441.825	-56.29
2445.589	-57.96
2449.349	-56.62
2453.106	-61.29
2456.859	-60.96
2460.61	-65.96
2464.356	-62.29
2468.1	-64.29
2471.84	-64.96
2475.577	-64.29
2479.311	-67.62
2483.041	-67.29
2486.768	-68.29
2490.492	-70.29
2494.213	-69.96
2497.93	-64.29
2501.644	-70.29
2505.355	-67.62
2509.062	-66.62
2512.766	-66.29
2516.467	-70.62
2520.165	-72.29
2523.859	-72.29
2527.551	-72.96
2531.239	-71.29
2534.923	-72.29
2538.605	-73.96
2542.283	-75.29
2545.958	-72.96
2549.63	-72.96
2553.299	-72.62
2556.964	-70.96
2560.626	-73.62
2564.285	-73.96
2567.941	-72.96
2571.594	-76.96
2575.243	-75.62
2578.89	-77.96
2582.533	-80.29
2586.173	-75.96
2589.809	-80.62
2593.443	-78.62
2597.073	-80.96
2600.701	-79.96
2604.325	-79.96
2607.946	-83.62
2611.564	-78.96
2615.178	-78.62
2618.79	-78.96
2622.398	-79.29
2626.004	-80.62
2629.606	-80.29
2633.205	-79.62
2636.801	-80.29
2640.394	-79.29
2643.983	-81.62
2647.57	-80.96
2651.153	-81.62
2654.734	-82.62
2658.311	-80.29
2661.885	-83.29
2665.456	-83.96
2669.025	-81.62
2672.589	-80.29
2676.151	-78.62
2679.71	-79.62
2683.266	-83.62
2686.819	-80.29
2690.368	-80.96
2693.915	-79.62
2697.458	-78.62
2700.999	-80.96
2704.536	-76.62
2708.071	-75.62
2711.602	-79.96
2715.13	-77.62
2718.656	-74.29
2722.178	-74.62
2725.697	-74.29
2729.214	-72.96
2732.727	-71.96
2736.237	-65.62
2739.744	-70.29
2743.249	-72.62
2746.75	-68.62
2750.248	-67.29
2753.743	-66.96
2757.236	-64.29
2760.725	-64.29
2764.211	-61.96
2767.695	-61.29
2771.175	-59.96
2774.652	-61.29
2778.127	-58.62
2781.598	-57.96
2785.067	-59.29
2788.532	-52.29
2791.995	-49.62
2795.455	-47.29
2798.911	-49.62
2802.365	-43.96
2805.816	-42.96
2809.264	-40.29
2812.709	-41.29
2816.151	-37.96
2819.59	-34.29
2823.026	-32.96
2826.46	-30.62
2829.89	-28.29
2833.318	-23.29
2836.742	-21.96
2840.164	-14.29
2843.583	-12.29
2846.999	-10.96
2850.412	-5.96
2853.822	-0.62
2857.229	1.38
2860.634	6.04
2864.035	11.71
2867.434	14.04
2870.83	24.71
2874.223	25.71
2877.613	32.38
2881	42.04
2884.385	45.38
2887.766	50.71
2891.145	52.04
2894.521	53.38
2897.894	60.04
2901.264	61.71
2904.631	65.04
2907.996	73.38
2911.358	78.04
2914.717	81.38
2918.073	83.71
2921.426	92.38
2924.777	98.04
2928.124	108.71
2931.469	121.38
2934.811	127.71
2938.15	136.04
2941.487	141.04
2944.821	150.04
2948.152	152.38
2951.48	158.38
2954.805	162.71
2958.128	168.04
2961.447	174.71
2964.765	177.38
2968.079	185.04
2971.39	199.38
2974.699	207.71
2978.005	222.38
2981.308	233.38
2984.609	244.04
2987.907	258.71
2991.202	273.04
2994.494	283.71
2997.784	296.38
3001.07	302.38
3004.355	319.04
3007.636	332.04
3010.915	346.04
3014.191	360.38
3017.464	363.71
3020.734	385.71
3024.002	386.71
3027.267	403.71
3030.53	412.71
3033.789	427.04
3037.046	442.38
3040.301	459.04
3043.552	470.38
3046.801	490.71
3050.048	507.04
3053.291	523.71
3056.532	547.38
3059.771	572.71
3063.006	592.38
3066.239	611.71
3069.469	638.38
3072.697	667.38
3075.922	687.38
3079.144	716.71
3082.364	743.71
3085.581	759.04
3088.795	793.71
3092.007	808.71
3095.216	836.04
3098.423	853.04
3101.627	878.71
3104.828	906.04
3108.026	928.71
3111.222	955.04
3114.416	988.71
3117.607	1011.71
3120.795	1036.38
3123.98	1071.04
3127.163	1099.38
3130.344	1119.04
3133.521	1153.38
3136.696	1180.71
3139.869	1217.71
3143.039	1236.38
3146.206	1263.04
3149.371	1280.71
3152.533	1295.71
3155.693	1303.04
3158.85	1322.38
3162.005	1335.71
3165.157	1344.71
3168.306	1351.38
3171.453	1350.04
3174.597	1369.04
3177.739	1371.71
3180.878	1370.04
3184.014	1383.71
3187.149	1395.38
3190.28	1392.38
3193.409	1404.38
3196.536	1409.04
3199.659	1419.71
3202.781	1422.04
3205.9	1422.38
3209.016	1434.38
3212.13	1432.04
3215.241	1428.04
3218.35	1419.04
3221.456	1401.71
3224.56	1391.04
3227.661	1385.38
3230.76	1372.71
3233.856	1369.04
3236.95	1364.38
3240.041	1358.04
3243.13	1329.38
3246.216	1337.71
3249.3	1340.04
3252.382	1315.04
3255.46	1326.71
3258.537	1321.04
3261.611	1315.71
3264.682	1315.71
3267.751	1311.04
3270.818	1306.04
3273.882	1298.38
3276.943	1295.04
3280.002	1279.04
3283.059	1261.04
3286.113	1254.38
3289.165	1237.38
3292.214	1211.71
3295.261	1202.71
3298.306	1173.04
3301.348	1154.04
3304.387	1150.71
3307.425	1133.04
3310.459	1122.71
3313.492	1095.04
3316.521	1096.38
3319.549	1084.38
3322.574	1080.04
3325.597	1070.38
3328.617	1051.38
3331.635	1043.38
3334.65	1053.71
3337.663	1050.38
3340.674	1038.04
3343.682	1031.04
3346.688	1033.71
3349.691	1045.71
3352.692	1030.04
3355.691	1021.38
3358.687	1018.38
3361.681	1003.04
3364.673	995.04
3367.662	982.38
3370.649	977.71
3373.633	968.04
3376.615	945.04
3379.595	936.71
3382.572	928.04
3385.547	907.04
3388.52	902.38
3391.49	891.71
3394.458	884.71
3397.424	876.04
3400.387	859.71
3403.348	845.71
3406.307	838.04
3409.263	831.04
3412.217	827.38
3415.168	825.71
3418.118	815.38
3421.065	802.04
3424.009	789.04
3426.951	786.71
3429.891	762.04
3432.829	759.71
3435.764	731.38
3438.697	718.71
3441.628	711.04
3444.557	694.04
3447.483	679.38
3450.407	654.04
3453.328	633.71
3456.247	615.38
3459.164	599.04
3462.079	582.38
3464.991	561.71
3467.902	544.38
3470.809	525.04
3473.715	511.71
3476.618	508.71
3479.519	486.38
3482.418	472.04
3485.315	456.71
3488.209	446.04
3491.101	435.38
3493.99	419.38
3496.878	406.04
3499.763	395.71
3502.646	382.38
3505.527	368.71
3508.405	352.04
3511.281	344.04
3514.155	328.38
3517.027	307.71
3519.897	292.38
3522.764	284.04
3525.629	263.38
3528.492	244.71
3531.352	234.71
3534.211	221.38
3537.067	205.71
3539.921	193.38
3542.773	181.04
3545.622	176.38
3548.469	163.04
3551.315	150.38
3554.157	141.38
3556.998	129.38
3559.837	120.04
3562.673	119.71
3565.507	106.71
3568.339	100.38
3571.169	93.04
3573.996	83.04
3576.822	74.38
3579.645	66.71
3582.466	63.04
3585.285	53.04
3588.101	46.04
3590.916	38.04
3593.728	33.38
3596.538	25.04
3599.346	19.04
3602.152	17.38
3604.956	5.38
3607.757	1.38
3610.556	-2.96
3613.354	-11.96
3616.149	-13.62
3618.942	-16.62
3621.732	-24.29
3624.521	-27.62
3627.307	-31.96
3630.092	-35.62
3632.874	-39.96
3635.654	-43.29
3638.432	-48.29
3641.208	-49.96
3643.982	-53.62
3646.753	-57.62
3649.523	-60.62
3652.29	-65.62
3655.055	-66.62
3657.818	-69.96
3660.579	-74.62
3663.338	-73.96
3666.095	-83.29
3668.849	-83.96
3671.602	-84.62
3674.352	-91.96
3677.101	-92.96
3679.847	-96.96
3682.591	-96.96
3685.333	-98.96
3688.073	-102.62
3690.811	-106.29
3693.547	-105.62
3696.281	-107.96
3699.013	-110.62
3701.742	-110.62
3704.47	-114.29
3707.195	-113.29
3709.919	-116.62
3712.64	-117.29
3715.359	-117.96
3718.076	-119.62
3720.792	-121.62
3723.505	-124.62
3726.216	-123.62
3728.925	-127.29
3731.632	-127.29
3734.336	-126.62
3737.039	-128.29
3739.74	-130.62
3742.439	-129.62
3745.136	-131.96
3747.83	-133.62
3750.523	-131.62
3753.213	-131.62
3755.902	-133.62
3758.589	-135.29
3761.273	-135.29
3763.956	-134.96
3766.636	-135.29
3769.315	-135.62
3771.991	-137.62
3774.665	-139.96
3777.338	-137.29
3780.008	-137.29
3782.677	-140.62
3785.343	-138.62
3788.007	-136.96
3790.67	-141.29
3793.33	-137.96
3795.989	-141.29
3798.645	-139.96
3801.299	-143.62
3803.952	-140.96
3806.602	-144.62
3809.251	-141.96
3811.897	-140.96
3814.542	-142.62
3817.184	-141.96
3819.825	-142.29
3822.463	-143.29
3825.1	-142.96
3827.735	-144.29
3830.367	-143.29
3832.998	-144.62
3835.627	-144.62
3838.253	-142.96
3840.878	-143.62
3843.501	-143.62
3846.122	-142.62
3848.741	-144.29
3851.358	-143.29
3853.973	-146.29
3856.586	-144.62
3859.197	-145.29
3861.806	-143.96
3864.414	-143.62
3867.019	-143.62
3869.622	-139.29
3872.224	-141.29
3874.823	-138.29
3877.421	-133.29
3880.016	-128.62
3882.61	-123.96
3885.202	-118.29
3887.792	-125.96
3890.38	-132.96
3892.966	-138.62
3895.55	-143.62
3898.132	-144.29
3900.713	-147.96
3903.291	-144.29
3905.868	-144.62
3908.442	-144.96
3911.015	-146.29
3913.586	-145.96
3916.155	-149.62
3918.722	-146.62
3921.287	-146.62
3923.85	-148.29
3926.411	-146.29
3928.971	-147.62
3931.528	-144.62
3934.084	-146.62
3936.638	-147.96
3939.19	-145.96
3941.74	-147.29
3944.288	-145.96
3946.834	-147.62
3949.378	-146.29
3951.921	-147.29
3954.462	-147.96
3957	-147.62
3959.537	-144.29
3962.072	-146.29
3964.606	-146.96
3967.137	-147.62
3969.667	-145.96
3972.194	-147.29
3974.72	-145.62
3977.244	-146.96
3979.766	-145.62
3982.286	-146.29
3984.805	-144.96
3987.321	-143.62
3989.836	-145.29
3992.349	-145.96
3994.86	-142.96
3997.369	-144.96
3999.877	-145.29
4002.382	-145.29
4004.886	-144.29
4007.388	-147.96
4009.888	-143.29
4012.386	-145.29
4014.883	-144.62
4017.377	-147.29
4019.87	-144.62
4022.361	-147.96
4024.85	-145.62
4027.338	-145.96
4029.823	-143.96
4032.307	-147.62
4034.789	-146.29
4037.269	-145.96
4039.747	-146.29
4042.224	-147.62
4044.699	-147.29
4047.172	-146.29
4049.643	-146.62
4052.112	-145.96
4054.58	-144.29
4057.046	-145.96
4059.51	-147.29
4061.972	-145.96
4064.432	-146.29
4066.891	-146.96
4069.348	-145.96
4071.803	-146.29
4074.256	-144.96
4076.708	-147.29
4079.158	-146.62
4081.606	-148.96
4084.052	-145.96
4086.497	-145.29
4088.939	-145.96
4091.38	-148.96
4093.819	-145.62
4096.257	-152.29
4098.693	-150.96
4101.127	-154.29
4103.559	-153.29
4105.989	-94.29
4108.418	-91.96
4110.845	-83.96
4113.27	-78.29
4115.694	-73.96
4118.115	-60.62
4120.535	-145.29
4122.954	-146.29
4125.37	-145.96
4127.785	-148.29
4130.198	-145.96
4132.609	-146.62
4135.019	-150.29
4137.427	-152.29
4139.833	-152.62
4142.237	-150.96
