Data from Bacteria vs water background - dipping [2s average 3, LI=1]_RamanShift_00001.txt Node
Date: Mon May 01 14:26:08 IDT 2017
User: aro
Spectrometer: QEPB0276
Trigger mode: 0
Integration Time (sec): 2.000000E0
Scans to average: 3
Electric dark correction enabled: true
Nonlinearity correction enabled: false
Boxcar width: 0
XAxis mode: Raman Shifts
Number of Pixels in Spectrum: 1044
>>>>>Begin Spectral Data<<<<<
160.701	-5.96
166.742	1.37
172.777	7.37
178.805	33.71
184.826	94.71
190.841	204.04
196.849	327.38
202.85	415.71
208.845	429.04
214.833	415.38
220.815	402.04
226.789	386.37
232.758	376.71
238.719	363.71
244.674	345.38
250.623	320.37
256.565	306.71
262.5	284.04
268.429	276.38
274.351	255.04
280.267	243.04
286.176	233.71
292.079	229.04
297.975	215.04
303.865	205.04
309.748	204.37
315.625	196.37
321.495	187.38
327.359	182.37
333.217	185.71
339.068	175.38
344.912	180.38
350.751	180.71
356.583	176.38
362.408	178.38
368.227	179.04
374.04	172.37
379.847	175.38
385.647	172.38
391.44	173.37
397.228	175.71
403.009	183.37
408.784	180.04
414.553	172.71
420.315	155.04
426.071	159.71
431.821	169.37
437.565	176.71
443.302	178.04
449.033	179.04
454.758	176.04
460.477	179.38
466.189	177.38
471.896	175.71
477.596	173.04
483.29	175.71
488.978	171.04
494.66	170.71
500.335	177.37
506.005	175.04
511.668	178.71
517.325	174.04
522.977	174.04
528.622	170.71
534.261	174.71
539.894	168.37
545.521	167.37
551.141	172.04
556.756	167.71
562.365	170.71
567.968	163.71
573.565	165.37
579.155	161.04
584.74	159.37
590.319	166.04
595.892	158.37
601.459	158.37
607.02	152.71
612.575	156.38
618.124	156.38
623.667	155.04
629.204	157.38
634.735	148.37
640.261	141.71
645.781	141.04
651.294	135.71
656.802	137.37
662.304	145.04
667.8	142.71
673.29	144.71
678.775	138.38
684.254	138.37
689.726	141.37
695.193	137.71
700.655	140.04
706.11	139.04
711.56	133.71
717.004	132.37
722.442	132.38
727.874	127.71
733.301	133.04
738.722	126.71
744.137	125.04
749.547	126.37
754.951	121.37
760.349	121.04
765.741	117.04
771.128	124.37
776.509	124.38
781.885	122.04
787.254	126.38
792.618	116.04
797.977	125.04
803.33	123.37
808.677	115.37
814.019	117.04
819.355	114.04
824.686	109.38
830.011	106.37
835.33	108.04
840.644	110.04
845.952	105.71
851.255	111.04
856.552	104.04
861.844	105.38
867.13	109.71
872.41	101.37
877.686	103.04
882.955	101.04
888.219	100.38
893.478	95.37
898.731	94.04
903.979	89.71
909.221	91.71
914.458	92.37
919.69	84.71
924.916	85.71
930.136	91.38
935.351	87.04
940.561	88.71
945.766	87.71
950.965	87.37
956.158	90.38
961.347	85.04
966.529	82.71
971.707	83.71
976.879	78.71
982.046	80.71
987.208	79.71
992.364	79.71
997.515	84.04
1002.66	90.37
1007.801	94.71
1012.936	88.38
1018.066	83.71
1023.19	82.04
1028.309	76.38
1033.423	82.37
1038.532	85.37
1043.636	80.71
1048.734	80.37
1053.827	76.37
1058.915	74.71
1063.998	72.37
1069.075	70.37
1074.147	71.71
1079.214	69.71
1084.276	74.04
1089.333	71.37
1094.385	74.04
1099.431	78.04
1104.472	75.04
1109.509	77.04
1114.54	75.71
1119.565	75.04
1124.586	70.04
1129.602	69.71
1134.613	72.04
1139.618	70.38
1144.619	70.38
1149.614	69.37
1154.604	72.37
1159.589	73.04
1164.57	66.71
1169.545	73.04
1174.515	76.37
1179.48	72.37
1184.44	77.37
1189.395	73.71
1194.345	72.38
1199.29	70.71
1204.23	70.71
1209.165	70.04
1214.095	71.04
1219.021	68.04
1223.941	68.37
1228.856	70.71
1233.766	67.71
1238.672	67.71
1243.572	67.37
1248.467	69.04
1253.358	67.37
1258.244	61.04
1263.124	65.04
1268	66.37
1272.871	59.71
1277.737	63.71
1282.599	62.71
1287.455	64.37
1292.306	62.71
1297.153	67.04
1301.995	64.71
1306.832	64.71
1311.664	62.04
1316.491	65.04
1321.314	63.37
1326.132	63.04
1330.945	66.71
1335.753	62.04
1340.556	60.37
1345.354	55.37
1350.148	56.38
1354.937	58.71
1359.722	53.71
1364.501	60.71
1369.276	54.04
1374.046	54.37
1378.811	52.37
1383.572	55.04
1388.327	55.04
1393.079	48.71
1397.825	52.37
1402.567	51.71
1407.304	50.71
1412.036	49.71
1416.764	51.04
1421.487	51.04
1426.205	49.71
1430.919	48.71
1435.628	49.37
1440.333	54.37
1445.032	55.38
1449.727	52.04
1454.418	53.38
1459.104	49.38
1463.785	54.38
1468.462	53.04
1473.134	48.37
1477.802	52.71
1482.465	51.71
1487.123	49.37
1491.777	50.04
1496.426	50.37
1501.071	52.04
1505.711	52.37
1510.347	52.37
1514.978	51.37
1519.604	54.04
1524.226	54.37
1528.844	54.37
1533.457	53.37
1538.065	55.71
1542.669	52.38
1547.269	52.37
1551.864	56.37
1556.454	58.04
1561.041	58.71
1565.622	57.37
1570.199	59.71
1574.772	60.71
1579.34	65.38
1583.904	71.71
1588.464	69.04
1593.019	72.71
1597.569	70.37
1602.115	79.71
1606.657	80.04
1611.195	88.71
1615.728	83.71
1620.256	80.71
1624.78	80.04
1629.3	88.04
1633.816	86.71
1638.327	88.71
1642.834	92.04
1647.336	88.71
1651.834	90.04
1656.328	88.37
1660.817	89.04
1665.302	90.37
1669.783	84.04
1674.259	81.04
1678.732	76.37
1683.199	72.71
1687.663	68.04
1692.122	61.04
1696.577	57.71
1701.028	54.38
1705.474	52.38
1709.917	50.37
1714.355	48.37
1718.788	45.38
1723.218	40.38
1727.643	43.38
1732.064	38.37
1736.481	37.71
1740.893	32.37
1745.301	34.38
1749.705	33.04
1754.105	28.38
1758.501	25.38
1762.893	26.38
1767.28	22.37
1771.663	18.37
1776.042	23.04
1780.417	21.71
1784.787	19.38
1789.154	22.37
1793.516	23.04
1797.874	19.71
1802.228	22.71
1806.578	23.04
1810.924	21.38
1815.266	22.04
1819.603	21.04
1823.937	20.37
1828.266	18.71
1832.591	16.37
1836.913	17.37
1841.23	15.71
1845.543	16.38
1849.852	19.71
1854.156	17.71
1858.457	17.04
1862.754	17.71
1867.047	18.04
1871.335	16.71
1875.62	12.37
1879.9	17.71
1884.177	17.71
1888.449	16.38
1892.718	13.71
1896.982	13.38
1901.243	15.71
1905.499	15.04
1909.752	12.71
1914	14.04
1918.245	13.71
1922.485	15.04
1926.722	18.04
1930.954	16.71
1935.183	16.38
1939.408	17.04
1943.628	18.38
1947.845	19.37
1952.058	17.71
1956.267	15.37
1960.472	18.04
1964.673	18.04
1968.87	17.04
1973.063	17.38
1977.252	19.37
1981.438	18.04
1985.619	16.04
1989.797	19.04
1993.971	16.04
1998.14	15.04
2002.306	15.37
2006.469	16.37
2010.627	20.37
2014.781	14.37
2018.932	10.71
2023.078	17.37
2027.221	10.71
2031.36	17.37
2035.495	13.71
2039.627	15.71
2043.754	17.04
2047.878	15.37
2051.998	15.04
2056.114	15.71
2060.226	18.04
2064.334	17.71
2068.439	21.37
2072.54	19.04
2076.637	20.37
2080.73	21.71
2084.82	18.38
2088.906	19.04
2092.988	20.71
2097.066	19.37
2101.14	17.37
2105.211	19.04
2109.278	16.71
2113.342	19.71
2117.401	16.37
2121.457	19.04
2125.509	15.04
2129.558	14.71
2133.602	14.04
2137.643	16.38
2141.681	15.37
2145.714	15.71
2149.744	15.71
2153.77	15.37
2157.793	14.71
2161.812	12.04
2165.827	16.04
2169.838	15.37
2173.846	15.04
2177.851	17.37
2181.851	13.04
2185.848	11.71
2189.841	13.71
2193.831	13.37
2197.817	13.04
2201.799	12.71
2205.778	10.37
2209.753	8.71
2213.725	6.71
2217.693	12.37
2221.657	10.71
2225.618	9.37
2229.575	10.71
2233.529	5.37
2237.479	7.37
2241.425	8.71
2245.368	4.37
2249.307	5.04
2253.243	5.71
2257.175	6.04
2261.104	6.38
2265.029	6.71
2268.95	5.71
2272.868	2.04
2276.783	5.04
2280.694	4.04
2284.601	6.04
2288.505	5.37
2292.405	5.38
2296.302	3.37
2300.195	1.71
2304.085	4.04
2307.971	5.04
2311.854	4.04
2315.734	2.71
2319.609	1.38
2323.482	3.04
2327.351	1.37
2331.216	2.38
2335.078	-2.62
2338.937	0.04
2342.792	1.38
2346.643	-0.96
2350.492	1.37
2354.336	-1.29
2358.178	1.04
2362.015	-0.29
2365.85	0.04
2369.681	0.71
2373.508	2.38
2377.333	-1.29
2381.153	1.04
2384.971	4.71
2388.785	-1.29
2392.595	-0.29
2396.402	0.37
2400.206	2.37
2404.007	-0.96
2407.804	0.04
2411.597	1.04
2415.388	-0.96
2419.174	-1.62
2422.958	-0.96
2426.738	-2.63
2430.515	-1.29
2434.289	-2.29
2438.059	-0.62
2441.825	-2.63
2445.589	-3.62
2449.349	0.04
2453.106	-0.63
2456.859	-1.96
2460.61	-1.29
2464.356	-1.29
2468.1	-0.29
2471.84	-1.29
2475.577	-1.63
2479.311	0.37
2483.041	0.04
2486.768	0.04
2490.492	0.37
2494.213	-1.96
2497.93	-1.62
2501.644	-0.63
2505.355	-0.96
2509.062	1.04
2512.766	-0.63
2516.467	-1.63
2520.165	-2.96
2523.859	-3.96
2527.551	-1.96
2531.239	-2.96
2534.923	-2.62
2538.605	-2.63
2542.283	-4.29
2545.958	-6.29
2549.63	-2.29
2553.299	-3.29
2556.964	-2.63
2560.626	-2.62
2564.285	-0.63
2567.941	-4.96
2571.594	-3.96
2575.243	-1.62
2578.89	-0.96
2582.533	-0.63
2586.173	-0.96
2589.809	-2.63
2593.443	-2.63
2597.073	-1.63
2600.701	-0.96
2604.325	-1.29
2607.946	0.38
2611.564	-1.96
2615.178	-1.96
2618.79	-3.96
2622.398	-1.62
2626.004	-4.63
2629.606	-1.96
2633.205	-2.29
2636.801	-2.29
2640.394	-4.29
2643.983	-2.62
2647.57	-4.96
2651.153	-3.63
2654.734	-5.29
2658.311	-1.96
2661.885	-1.96
2665.456	0.04
2669.025	-4.29
2672.589	-3.29
2676.151	-0.63
2679.71	0.37
2683.266	-1.29
2686.819	-1.63
2690.368	0.04
2693.915	1.38
2697.458	-1.96
2700.999	-3.29
2704.536	-2.96
2708.071	-2.62
2711.602	-1.62
2715.13	-2.96
2718.656	-2.96
2722.178	-1.29
2725.697	-2.96
2729.214	-5.29
2732.727	-4.96
2736.237	-4.96
2739.744	-3.63
2743.249	-5.29
2746.75	-2.62
2750.248	-2.96
2753.743	-2.29
2757.236	-2.96
2760.725	-0.29
2764.211	-1.96
2767.695	0.04
2771.175	-2.29
2774.652	-1.63
2778.127	-0.96
2781.598	1.04
2785.067	-1.63
2788.532	0.37
2791.995	0.04
2795.455	-0.29
2798.911	-0.63
2802.365	-0.96
2805.816	-3.63
2809.264	1.04
2812.709	0.04
2816.151	1.71
2819.59	1.37
2823.026	2.04
2826.46	2.71
2829.89	4.04
2833.318	1.71
2836.742	1.04
2840.164	2.71
2843.583	5.04
2846.999	3.04
2850.412	6.04
2853.822	6.04
2857.229	5.71
2860.634	6.37
2864.035	8.04
2867.434	6.04
2870.83	8.71
2874.223	6.37
2877.613	7.71
2881	7.38
2884.385	6.71
2887.766	7.37
2891.145	8.71
2894.521	7.04
2897.894	7.71
2901.264	9.71
2904.631	11.71
2907.996	10.38
2911.358	10.04
2914.717	10.37
2918.073	9.71
2921.426	13.37
2924.777	12.04
2928.124	10.04
2931.469	13.04
2934.811	16.37
2938.15	15.04
2941.487	16.71
2944.821	16.71
2948.152	18.71
2951.48	17.71
2954.805	18.04
2958.128	16.71
2961.447	20.04
2964.765	21.04
2968.079	21.71
2971.39	24.04
2974.699	23.71
2978.005	21.37
2981.308	25.04
2984.609	25.37
2987.907	28.04
2991.202	26.71
2994.494	29.37
2997.784	29.71
3001.07	33.37
3004.355	31.38
3007.636	31.04
3010.915	37.04
3014.191	37.71
3017.464	37.37
3020.734	41.04
3024.002	44.71
3027.267	48.71
3030.53	42.71
3033.789	48.71
3037.046	49.04
3040.301	49.38
3043.552	52.38
3046.801	52.71
3050.048	57.37
3053.291	60.38
3056.532	64.04
3059.771	66.04
3063.006	63.71
3066.239	66.37
3069.469	72.37
3072.697	71.04
3075.922	75.38
3079.144	75.71
3082.364	79.38
3085.581	78.71
3088.795	80.04
3092.007	82.04
3095.216	84.04
3098.423	88.37
3101.627	91.04
3104.828	99.04
3108.026	97.04
3111.222	97.71
3114.416	99.37
3117.607	103.71
3120.795	106.71
3123.98	108.37
3127.163	117.71
3130.344	115.04
3133.521	117.71
3136.696	122.04
3139.869	126.37
3143.039	133.71
3146.206	133.04
3149.371	136.71
3152.533	135.38
3155.693	138.71
3158.85	137.71
3162.005	138.04
3165.157	142.37
3168.306	140.38
3171.453	140.71
3174.597	144.37
3177.739	145.37
3180.878	142.71
3184.014	144.71
3187.149	140.37
3190.28	141.37
3193.409	144.71
3196.536	143.71
3199.659	147.04
3202.781	147.71
3205.9	147.38
3209.016	147.37
3212.13	151.71
3215.241	154.38
3218.35	150.71
3221.456	153.38
3224.56	147.71
3227.661	150.04
3230.76	153.04
3233.856	146.71
3236.95	142.71
3240.041	147.38
3243.13	142.71
3246.216	141.04
3249.3	145.37
3252.382	141.71
3255.46	137.71
3258.537	138.71
3261.611	137.71
3264.682	135.04
3267.751	139.37
3270.818	139.71
3273.882	135.04
3276.943	134.71
3280.002	135.37
3283.059	137.71
3286.113	131.04
3289.165	130.04
3292.214	133.71
3295.261	126.37
3298.306	130.37
3301.348	124.04
3304.387	121.71
3307.425	119.38
3310.459	121.38
3313.492	124.38
3316.521	119.04
3319.549	120.04
3322.574	115.71
3325.597	113.71
3328.617	111.71
3331.635	111.38
3334.65	109.04
3337.663	109.71
3340.674	105.04
3343.682	110.04
3346.688	112.37
3349.691	110.38
3352.692	109.04
3355.691	110.37
3358.687	110.04
3361.681	109.37
3364.673	109.38
3367.662	102.71
3370.649	102.71
3373.633	107.38
3376.615	102.37
3379.595	98.71
3382.572	101.38
3385.547	102.71
3388.52	101.37
3391.49	99.04
3394.458	97.37
3397.424	96.04
3400.387	94.04
3403.348	93.71
3406.307	94.37
3409.263	93.04
3412.217	92.71
3415.168	93.04
3418.118	89.71
3421.065	87.37
3424.009	85.38
3426.951	85.71
3429.891	86.04
3432.829	83.04
3435.764	82.38
3438.697	81.04
3441.628	77.71
3444.557	79.04
3447.483	76.71
3450.407	76.37
3453.328	71.37
3456.247	70.71
3459.164	68.71
3462.079	68.38
3464.991	67.37
3467.902	63.04
3470.809	62.71
3473.715	63.38
3476.618	57.38
3479.519	56.04
3482.418	56.37
3485.315	55.04
3488.209	54.37
3491.101	51.71
3493.99	49.37
3496.878	50.04
3499.763	47.37
3502.646	46.71
3505.527	44.37
3508.405	41.37
3511.281	40.37
3514.155	40.37
3517.027	40.37
3519.897	37.38
3522.764	38.04
3525.629	35.71
3528.492	29.71
3531.352	31.04
3534.211	30.38
3537.067	26.37
3539.921	25.04
3542.773	24.04
3545.622	23.04
3548.469	23.04
3551.315	24.04
3554.157	21.71
3556.998	18.04
3559.837	17.37
3562.673	17.04
3565.507	16.71
3568.339	17.37
3571.169	17.71
3573.996	15.38
3576.822	14.04
3579.645	13.37
3582.466	13.71
3585.285	10.71
3588.101	12.04
3590.916	10.04
3593.728	12.37
3596.538	12.71
3599.346	7.71
3602.152	8.71
3604.956	7.71
3607.757	6.37
3610.556	6.37
3613.354	4.04
3616.149	6.71
3618.942	5.71
3621.732	5.04
3624.521	4.37
3627.307	3.04
3630.092	3.04
3632.874	2.04
3635.654	4.71
3638.432	2.71
3641.208	0.71
3643.982	1.71
3646.753	1.38
3649.523	-0.96
3652.29	2.04
3655.055	0.04
3657.818	-0.96
3660.579	-2.96
3663.338	-0.29
3666.095	-2.63
3668.849	-2.29
3671.602	-2.62
3674.352	-3.63
3677.101	-1.96
3679.847	-3.63
3682.591	-1.96
3685.333	-3.29
3688.073	-3.96
3690.811	-2.62
3693.547	-3.96
3696.281	-2.62
3699.013	-4.63
3701.742	-6.63
3704.47	-4.63
3707.195	-3.63
3709.919	-5.96
3712.64	-2.96
3715.359	-3.29
3718.076	-3.96
3720.792	-3.62
3723.505	-4.63
3726.216	-6.96
3728.925	-5.63
3731.632	-6.96
3734.336	-5.96
3737.039	-5.96
3739.74	-6.29
3742.439	-6.29
3745.136	-7.62
3747.83	-7.63
3750.523	-6.29
3753.213	-6.96
3755.902	-8.29
3758.589	-7.29
3761.273	-7.96
3763.956	-7.96
3766.636	-7.29
3769.315	-7.29
3771.991	-8.29
3774.665	-8.29
3777.338	-7.29
3780.008	-6.63
3782.677	-6.62
3785.343	-7.96
3788.007	-6.96
3790.67	-6.29
3793.33	-6.63
3795.989	-7.96
3798.645	-6.96
3801.299	-6.96
3803.952	-6.62
3806.602	-4.96
3809.251	-6.96
3811.897	-5.96
3814.542	-6.63
3817.184	-7.96
3819.825	-5.63
3822.463	-7.96
3825.1	-6.63
3827.735	-8.29
3830.367	-7.96
3832.998	-7.63
3835.627	-8.62
3838.253	-8.63
3840.878	-6.29
3843.501	-8.29
3846.122	-7.62
3848.741	-6.96
3851.358	-8.29
3853.973	-8.29
3856.586	-7.96
3859.197	-10.96
3861.806	-7.96
3864.414	-8.96
3867.019	-8.62
3869.622	-7.96
3872.224	-7.62
3874.823	-9.96
3877.421	-8.62
3880.016	-12.62
3882.61	-13.62
3885.202	-11.63
3887.792	-7.96
3890.38	-9.29
3892.966	-5.29
3895.55	-7.96
3898.132	-6.62
3900.713	-4.29
3903.291	-5.96
3905.868	-4.96
3908.442	-7.29
3911.015	-6.63
3913.586	-6.63
3916.155	-8.63
3918.722	-8.96
3921.287	-9.29
3923.85	-9.63
3926.411	-10.29
3928.971	-10.29
3931.528	-12.63
3934.084	-11.63
3936.638	-9.96
3939.19	-10.63
3941.74	-11.96
3944.288	-9.29
3946.834	-6.63
3949.378	-9.63
3951.921	-9.29
3954.462	-8.96
3957	-7.96
3959.537	-9.29
3962.072	-7.29
3964.606	-6.63
3967.137	-5.96
3969.667	-6.63
3972.194	-5.63
3974.72	-6.96
3977.244	-4.96
3979.766	-8.29
3982.286	-8.29
3984.805	-5.96
3987.321	-8.29
3989.836	-9.96
3992.349	-6.96
3994.86	-6.96
3997.369	-7.29
3999.877	-7.29
4002.382	-7.29
4004.886	-9.29
4007.388	-8.96
4009.888	-8.96
4012.386	-9.62
4014.883	-9.29
4017.377	-8.63
4019.87	-7.63
4022.361	-9.63
4024.85	-7.63
4027.338	-8.96
4029.823	-9.29
4032.307	-9.29
4034.789	-8.63
4037.269	-7.96
4039.747	-8.29
4042.224	-7.96
4044.699	-10.96
4047.172	-6.63
4049.643	-8.63
4052.112	-9.29
4054.58	-7.96
4057.046	-7.29
4059.51	-8.62
4061.972	-8.29
4064.432	-7.63
4066.891	-9.63
4069.348	-8.29
4071.803	-9.29
4074.256	-6.63
4076.708	-9.29
4079.158	-10.29
4081.606	-7.29
4084.052	-7.29
4086.497	-8.63
4088.939	-7.96
4091.38	-8.96
4093.819	-6.29
4096.257	-9.63
4098.693	-10.63
4101.127	-9.96
4103.559	-8.63
4105.989	-10.29
4108.418	-9.29
4110.845	-10.29
4113.27	-6.96
4115.694	-4.29
4118.115	-5.29
4120.535	-6.63
4122.954	-6.96
4125.37	-9.63
4127.785	-6.63
4130.198	-8.62
4132.609	-6.96
4135.019	-9.29
4137.427	-9.29
4139.833	-8.29
4142.237	-9.63
