Data from Bacteria vs plastic background - dipping [2s average 3, LI=1]_RamanShift_00001.txt Node
Date: Mon May 01 14:19:26 IDT 2017
User: aro
Spectrometer: QEPB0276
Trigger mode: 0
Integration Time (sec): 2.000000E0
Scans to average: 3
Electric dark correction enabled: true
Nonlinearity correction enabled: false
Boxcar width: 0
XAxis mode: Raman Shifts
Number of Pixels in Spectrum: 1044
>>>>>Begin Spectral Data<<<<<
160.701	-5.71
166.742	-2.38
172.777	13.62
178.805	54.62
184.826	155.29
190.841	332.96
196.849	533.96
202.85	669.96
208.845	700.96
214.833	669.63
220.815	640.96
226.789	619.96
232.758	604.62
238.719	577.62
244.674	563.96
250.623	540.29
256.565	507.96
262.5	478.62
268.429	446.29
274.351	427.29
280.267	408.96
286.176	387.29
292.079	379.96
297.975	360.63
303.865	347.62
309.748	334.96
315.625	333.63
321.495	323.96
327.359	316.29
333.217	310.29
339.068	308.29
344.912	308.29
350.751	310.63
356.583	303.62
362.408	296.29
368.227	306.29
374.04	302.29
379.847	300.63
385.647	300.29
391.44	306.29
397.228	303.96
403.009	303.63
408.784	304.63
414.553	302.29
420.315	308.96
426.071	308.62
431.821	310.29
437.565	308.62
443.302	305.63
449.033	305.62
454.758	302.96
460.477	299.29
466.189	299.96
471.896	303.96
477.596	297.29
483.29	292.62
488.978	296.29
494.66	295.62
500.335	289.96
506.005	295.29
511.668	283.62
517.325	285.96
522.977	280.63
528.622	277.96
534.261	278.29
539.894	272.29
545.521	272.29
551.141	266.29
556.756	270.29
562.365	261.96
567.968	264.63
573.565	265.62
579.155	256.29
584.74	254.29
590.319	252.29
595.892	254.62
601.459	246.63
607.02	245.29
612.575	241.62
618.124	239.29
623.667	229.96
629.204	229.29
634.735	222.96
640.261	227.29
645.781	231.62
651.294	224.62
656.802	229.62
662.304	233.29
667.8	225.29
673.29	226.62
678.775	219.62
684.254	221.96
689.726	217.96
695.193	217.29
700.655	215.96
706.11	211.62
711.56	214.29
717.004	212.96
722.442	209.63
727.874	211.62
733.301	203.29
738.722	194.96
744.137	193.96
749.547	192.29
754.951	193.29
760.349	190.62
765.741	192.29
771.128	184.29
776.509	194.62
781.885	190.63
787.254	184.29
792.618	182.96
797.977	176.96
803.33	176.62
808.677	174.62
814.019	174.29
819.355	172.29
824.686	168.96
830.011	172.62
835.33	170.96
840.644	163.96
845.952	162.29
851.255	160.96
856.552	162.29
861.844	158.96
867.13	164.62
872.41	153.29
877.686	156.96
882.955	156.62
888.219	153.29
893.478	151.63
898.731	145.29
903.979	143.96
909.221	137.62
914.458	138.63
919.69	134.29
924.916	134.29
930.136	132.96
935.351	132.96
940.561	131.62
945.766	131.63
950.965	130.29
956.158	124.62
961.347	127.63
966.529	122.29
971.707	122.96
976.879	120.29
982.046	111.63
987.208	111.62
992.364	105.62
997.515	97.29
1002.66	72.96
1007.801	56.62
1012.936	71.62
1018.066	96.96
1023.19	108.96
1028.309	110.63
1033.423	101.29
1038.532	98.96
1043.636	103.96
1048.734	106.29
1053.827	115.62
1058.915	110.96
1063.998	108.96
1069.075	106.62
1074.147	100.96
1079.214	105.62
1084.276	106.96
1089.333	106.62
1094.385	107.96
1099.431	109.29
1104.472	104.96
1109.509	106.63
1114.54	107.29
1119.565	106.96
1124.586	104.96
1129.602	105.29
1134.613	98.62
1139.618	100.96
1144.619	98.63
1149.614	95.29
1154.604	96.63
1159.589	97.29
1164.57	95.96
1169.545	97.63
1174.515	96.29
1179.48	98.29
1184.44	95.96
1189.395	90.96
1194.345	92.96
1199.29	88.62
1204.23	86.96
1209.165	93.63
1214.095	89.96
1219.021	92.29
1223.941	94.29
1228.856	94.96
1233.766	96.62
1238.672	98.62
1243.572	100.62
1248.467	94.62
1253.358	97.62
1258.244	94.29
1263.124	91.62
1268	89.96
1272.871	90.29
1277.737	90.62
1282.599	87.62
1287.455	90.29
1292.306	89.96
1297.153	84.96
1301.995	87.63
1306.832	87.29
1311.664	87.62
1316.491	87.96
1321.314	87.29
1326.132	89.29
1330.945	85.96
1335.753	84.29
1340.556	78.29
1345.354	78.63
1350.148	79.62
1354.937	79.29
1359.722	77.62
1364.501	78.96
1369.276	77.62
1374.046	73.96
1378.811	74.62
1383.572	73.62
1388.327	77.29
1393.079	80.29
1397.825	73.62
1402.567	76.62
1407.304	72.96
1412.036	74.29
1416.764	72.29
1421.487	72.62
1426.205	66.96
1430.919	70.29
1435.628	68.62
1440.333	70.29
1445.032	71.96
1449.727	72.62
1454.418	71.96
1459.104	70.62
1463.785	70.29
1468.462	75.62
1473.134	67.63
1477.802	71.29
1482.465	68.29
1487.123	68.96
1491.777	68.62
1496.426	69.96
1501.071	72.96
1505.711	71.62
1510.347	69.29
1514.978	75.96
1519.604	71.96
1524.226	74.62
1528.844	75.29
1533.457	76.96
1538.065	78.96
1542.669	75.96
1547.269	81.29
1551.864	79.63
1556.454	77.62
1561.041	78.62
1565.622	81.29
1570.199	88.29
1574.772	83.63
1579.34	91.29
1583.904	93.29
1588.464	94.96
1593.019	97.62
1597.569	101.63
1602.115	98.96
1606.657	101.29
1611.195	104.29
1615.728	110.29
1620.256	113.96
1624.78	122.96
1629.3	126.63
1633.816	126.96
1638.327	131.62
1642.834	131.62
1647.336	133.29
1651.834	131.29
1656.328	132.62
1660.817	127.96
1665.302	126.63
1669.783	122.29
1674.259	116.62
1678.732	108.62
1683.199	101.96
1687.663	99.62
1692.122	88.29
1696.577	86.29
1701.028	78.29
1705.474	75.29
1709.917	69.96
1714.355	68.29
1718.788	64.29
1723.218	65.96
1727.643	58.62
1732.064	52.62
1736.481	46.96
1740.893	47.29
1745.301	43.96
1749.705	41.96
1754.105	38.96
1758.501	39.29
1762.893	30.29
1767.28	29.62
1771.663	29.62
1776.042	28.29
1780.417	27.29
1784.787	26.29
1789.154	26.29
1793.516	27.29
1797.874	25.96
1802.228	25.96
1806.578	24.96
1810.924	30.96
1815.266	30.96
1819.603	24.96
1823.937	21.96
1828.266	25.96
1832.591	22.62
1836.913	21.29
1841.23	22.96
1845.543	21.96
1849.852	20.63
1854.156	17.62
1858.457	20.62
1862.754	17.96
1867.047	20.62
1871.335	23.62
1875.62	20.29
1879.9	20.29
1884.177	18.62
1888.449	19.63
1892.718	15.29
1896.982	19.63
1901.243	22.62
1905.499	16.63
1909.752	21.29
1914	20.62
1918.245	19.62
1922.485	20.96
1926.722	20.96
1930.954	21.29
1935.183	21.96
1939.408	22.29
1943.628	23.29
1947.845	25.29
1952.058	24.63
1956.267	22.29
1960.472	21.63
1964.673	23.29
1968.87	18.96
1973.063	21.63
1977.252	19.96
1981.438	20.96
1985.619	20.63
1989.797	19.29
1993.971	19.29
1998.14	17.96
2002.306	18.62
2006.469	21.62
2010.627	20.29
2014.781	21.96
2018.932	19.62
2023.078	20.63
2027.221	23.29
2031.36	19.96
2035.495	19.62
2039.627	21.96
2043.754	18.96
2047.878	23.29
2051.998	20.96
2056.114	25.96
2060.226	24.29
2064.334	25.96
2068.439	24.29
2072.54	24.96
2076.637	27.96
2080.73	24.29
2084.82	27.29
2088.906	24.29
2092.988	23.29
2097.066	27.29
2101.14	24.96
2105.211	24.29
2109.278	23.29
2113.342	25.63
2117.401	22.29
2121.457	23.96
2125.509	20.96
2129.558	21.96
2133.602	19.63
2137.643	22.29
2141.681	20.96
2145.714	19.29
2149.744	17.62
2153.77	23.62
2157.793	19.62
2161.812	17.63
2165.827	18.96
2169.838	19.62
2173.846	17.29
2177.851	16.62
2181.851	16.29
2185.848	18.62
2189.841	16.29
2193.831	13.96
2197.817	16.29
2201.799	14.29
2205.778	14.96
2209.753	15.29
2213.725	12.63
2217.693	14.62
2221.657	14.63
2225.618	12.62
2229.575	11.96
2233.529	11.63
2237.479	11.62
2241.425	11.62
2245.368	10.29
2249.307	9.29
2253.243	7.63
2257.175	7.96
2261.104	4.96
2265.029	7.96
2268.95	4.96
2272.868	4.62
2276.783	5.63
2280.694	3.62
2284.601	2.96
2288.505	3.62
2292.405	1.96
2296.302	1.63
2300.195	1.29
2304.085	1.62
2307.971	4.62
2311.854	2.62
2315.734	3.29
2319.609	1.29
2323.482	-0.04
2327.351	-2.04
2331.216	-3.04
2335.078	-4.37
2338.937	-0.71
2342.792	0.96
2346.643	-1.04
2350.492	2.62
2354.336	0.96
2358.178	2.62
2362.015	0.96
2365.85	1.62
2369.681	2.29
2373.508	-0.37
2377.333	-2.38
2381.153	-0.04
2384.971	-2.71
2388.785	-3.71
2392.595	-0.71
2396.402	-0.38
2400.206	-2.38
2404.007	-0.04
2407.804	-2.38
2411.597	-0.38
2415.388	-2.04
2419.174	-3.71
2422.958	-1.71
2426.738	-3.04
2430.515	-2.71
2434.289	-4.04
2438.059	-3.04
2441.825	-3.38
2445.589	-3.71
2449.349	-4.04
2453.106	-2.38
2456.859	-4.04
2460.61	-2.04
2464.356	-1.04
2468.1	-5.71
2471.84	-5.04
2475.577	-6.71
2479.311	-2.04
2483.041	-3.71
2486.768	-4.04
2490.492	-5.38
2494.213	-6.71
2497.93	-5.71
2501.644	-5.71
2505.355	-5.04
2509.062	-6.38
2512.766	-5.04
2516.467	-5.38
2520.165	-5.71
2523.859	-5.04
2527.551	-4.71
2531.239	-5.38
2534.923	-3.71
2538.605	-4.71
2542.283	-4.04
2545.958	-3.71
2549.63	-5.04
2553.299	-4.04
2556.964	-4.38
2560.626	-2.71
2564.285	-3.71
2567.941	-4.37
2571.594	-5.71
2575.243	-5.04
2578.89	-2.71
2582.533	-6.04
2586.173	-5.37
2589.809	-4.38
2593.443	-3.04
2597.073	-7.04
2600.701	-7.38
2604.325	-5.04
2607.946	-5.04
2611.564	-5.37
2615.178	-6.71
2618.79	-7.71
2622.398	-5.04
2626.004	-7.04
2629.606	-7.71
2633.205	-7.38
2636.801	-7.38
2640.394	-6.37
2643.983	-5.38
2647.57	-6.37
2651.153	-5.37
2654.734	-8.71
2658.311	-8.71
2661.885	-8.04
2665.456	-6.38
2669.025	-7.38
2672.589	-10.04
2676.151	-8.71
2679.71	-7.04
2683.266	-7.04
2686.819	-6.38
2690.368	-6.71
2693.915	-8.38
2697.458	-6.37
2700.999	-4.37
2704.536	-8.04
2708.071	-4.71
2711.602	-5.37
2715.13	-5.71
2718.656	-4.71
2722.178	-4.37
2725.697	-4.71
2729.214	-5.38
2732.727	-5.71
2736.237	-8.37
2739.744	-8.04
2743.249	-7.04
2746.75	-10.04
2750.248	-4.37
2753.743	-6.04
2757.236	-5.38
2760.725	-8.37
2764.211	-6.37
2767.695	-6.04
2771.175	-8.04
2774.652	-6.71
2778.127	-2.04
2781.598	-4.71
2785.067	-5.71
2788.532	-3.71
2791.995	-4.71
2795.455	-4.38
2798.911	-0.04
2802.365	-2.71
2805.816	-1.38
2809.264	-1.38
2812.709	-3.04
2816.151	-0.38
2819.59	0.62
2823.026	-1.04
2826.46	-0.37
2829.89	1.29
2833.318	-0.38
2836.742	-0.38
2840.164	-0.37
2843.583	-0.04
2846.999	0.29
2850.412	0.29
2853.822	-1.38
2857.229	0.62
2860.634	2.63
2864.035	3.29
2867.434	0.63
2870.83	3.63
2874.223	1.96
2877.613	3.29
2881	3.29
2884.385	4.96
2887.766	3.96
2891.145	5.62
2894.521	6.96
2897.894	8.96
2901.264	7.29
2904.631	10.29
2907.996	11.62
2911.358	11.29
2914.717	12.29
2918.073	13.96
2921.426	14.62
2924.777	13.96
2928.124	12.63
2931.469	16.96
2934.811	18.29
2938.15	17.62
2941.487	18.62
2944.821	19.96
2948.152	17.63
2951.48	20.29
2954.805	20.62
2958.128	22.29
2961.447	21.96
2964.765	28.62
2968.079	25.96
2971.39	29.29
2974.699	27.63
2978.005	30.63
2981.308	29.63
2984.609	34.29
2987.907	37.29
2991.202	39.29
2994.494	39.62
2997.784	43.96
3001.07	46.63
3004.355	46.62
3007.636	50.29
3010.915	50.63
3014.191	54.62
3017.464	55.62
3020.734	56.96
3024.002	56.96
3027.267	59.63
3030.53	61.96
3033.789	62.29
3037.046	64.62
3040.301	65.96
3043.552	69.29
3046.801	69.29
3050.048	73.96
3053.291	71.63
3056.532	79.29
3059.771	77.96
3063.006	84.29
3066.239	87.62
3069.469	92.96
3072.697	93.63
3075.922	97.62
3079.144	106.29
3082.364	106.96
3085.581	111.96
3088.795	115.29
3092.007	117.29
3095.216	125.63
3098.423	131.62
3101.627	134.96
3104.828	134.29
3108.026	136.63
3111.222	143.62
3114.416	143.29
3117.607	145.96
3120.795	149.96
3123.98	156.62
3127.163	156.63
3130.344	162.62
3133.521	170.29
3136.696	173.63
3139.869	180.29
3143.039	181.62
3146.206	183.29
3149.371	189.96
3152.533	192.29
3155.693	195.96
3158.85	192.63
3162.005	195.29
3165.157	199.96
3168.306	199.29
3171.453	204.29
3174.597	203.96
3177.739	202.96
3180.878	202.62
3184.014	203.29
3187.149	206.62
3190.28	204.29
3193.409	205.96
3196.536	206.29
3199.659	209.62
3202.781	207.63
3205.9	213.29
3209.016	214.29
3212.13	210.96
3215.241	210.29
3218.35	211.96
3221.456	212.29
3224.56	209.96
3227.661	208.96
3230.76	208.96
3233.856	204.29
3236.95	205.62
3240.041	206.29
3243.13	201.62
3246.216	203.62
3249.3	199.63
3252.382	199.62
3255.46	198.96
3258.537	193.96
3261.611	195.62
3264.682	197.29
3267.751	193.63
3270.818	189.29
3273.882	187.29
3276.943	191.96
3280.002	188.29
3283.059	190.62
3286.113	184.29
3289.165	181.29
3292.214	180.29
3295.261	177.96
3298.306	172.62
3301.348	170.62
3304.387	168.29
3307.425	165.96
3310.459	167.63
3313.492	166.96
3316.521	165.29
3319.549	163.63
3322.574	161.29
3325.597	161.29
3328.617	159.29
3331.635	156.96
3334.65	158.29
3337.663	157.96
3340.674	155.63
3343.682	155.29
3346.688	154.62
3349.691	156.96
3352.692	152.96
3355.691	155.63
3358.687	152.96
3361.681	151.63
3364.673	152.63
3367.662	148.29
3370.649	147.29
3373.633	145.62
3376.615	142.29
3379.595	142.62
3382.572	141.62
3385.547	138.62
3388.52	138.96
3391.49	134.29
3394.458	136.29
3397.424	137.96
3400.387	131.29
3403.348	128.62
3406.307	128.63
3409.263	129.96
3412.217	125.96
3415.168	126.96
3418.118	123.96
3421.065	125.63
3424.009	123.29
3426.951	117.96
3429.891	120.29
3432.829	117.29
3435.764	113.63
3438.697	111.29
3441.628	108.29
3444.557	108.29
3447.483	104.96
3450.407	103.29
3453.328	98.29
3456.247	99.29
3459.164	90.62
3462.079	94.62
3464.991	86.29
3467.902	85.96
3470.809	84.29
3473.715	81.62
3476.618	79.29
3479.519	78.63
3482.418	73.62
3485.315	69.96
3488.209	73.29
3491.101	68.29
3493.99	66.29
3496.878	65.62
3499.763	62.96
3502.646	61.29
3505.527	59.63
3508.405	59.63
3511.281	57.29
3514.155	52.96
3517.027	51.63
3519.897	51.62
3522.764	47.29
3525.629	41.62
3528.492	40.96
3531.352	42.29
3534.211	39.29
3537.067	36.62
3539.921	35.29
3542.773	29.29
3545.622	30.63
3548.469	29.29
3551.315	27.29
3554.157	27.96
3556.998	24.29
3559.837	22.96
3562.673	21.29
3565.507	23.29
3568.339	21.29
3571.169	19.96
3573.996	19.62
3576.822	17.29
3579.645	17.96
3582.466	16.63
3585.285	12.29
3588.101	12.62
3590.916	9.96
3593.728	12.96
3596.538	12.29
3599.346	10.63
3602.152	8.29
3604.956	7.96
3607.757	5.29
3610.556	6.62
3613.354	4.96
3616.149	4.62
3618.942	3.62
3621.732	2.29
3624.521	1.29
3627.307	-0.38
3630.092	-1.71
3632.874	-0.71
3635.654	-2.71
3638.432	-1.71
3641.208	-1.38
3643.982	-2.71
3646.753	-3.37
3649.523	-4.37
3652.29	-6.38
3655.055	-5.71
3657.818	-5.71
3660.579	-4.38
3663.338	-7.38
3666.095	-6.37
3668.849	-9.04
3671.602	-6.38
3674.352	-9.38
3677.101	-7.71
3679.847	-8.04
3682.591	-7.71
3685.333	-8.71
3688.073	-9.04
3690.811	-9.38
3693.547	-7.04
3696.281	-10.71
3699.013	-9.71
3701.742	-7.37
3704.47	-9.38
3707.195	-8.38
3709.919	-11.04
3712.64	-12.38
3715.359	-9.71
3718.076	-11.71
3720.792	-11.04
3723.505	-14.04
3726.216	-12.37
3728.925	-12.71
3731.632	-14.37
3734.336	-14.38
3737.039	-14.04
3739.74	-15.04
3742.439	-12.71
3745.136	-15.04
3747.83	-15.37
3750.523	-13.71
3753.213	-13.04
3755.902	-13.37
3758.589	-13.04
3761.273	-14.38
3763.956	-12.71
3766.636	-11.71
3769.315	-12.38
3771.991	-11.04
3774.665	-13.71
3777.338	-13.38
3780.008	-12.38
3782.677	-14.04
3785.343	-12.37
3788.007	-13.38
3790.67	-13.38
3793.33	-15.71
3795.989	-12.38
3798.645	-14.38
3801.299	-13.37
3803.952	-16.71
3806.602	-13.71
3809.251	-13.71
3811.897	-16.04
3814.542	-17.04
3817.184	-17.71
3819.825	-14.04
3822.463	-16.04
3825.1	-16.37
3827.735	-16.71
3830.367	-16.71
3832.998	-14.71
3835.627	-14.04
3838.253	-15.38
3840.878	-13.04
3843.501	-15.04
3846.122	-15.38
3848.741	-16.37
3851.358	-15.71
3853.973	-12.71
3856.586	-16.04
3859.197	-15.04
3861.806	-15.38
3864.414	-13.38
3867.019	-14.04
3869.622	-18.38
3872.224	-16.38
3874.823	-14.71
3877.421	-15.04
3880.016	-14.71
3882.61	-13.04
3885.202	-14.04
3887.792	-14.04
3890.38	-15.04
3892.966	-15.38
3895.55	-15.04
3898.132	-12.37
3900.713	-16.71
3903.291	-15.04
3905.868	-14.71
3908.442	-15.38
3911.015	-15.71
3913.586	-14.04
3916.155	-17.71
3918.722	-13.04
3921.287	-17.38
3923.85	-17.04
3926.411	-16.38
3928.971	-16.71
3931.528	-15.38
3934.084	-17.71
3936.638	-15.04
3939.19	-16.71
3941.74	-16.38
3944.288	-17.71
3946.834	-16.37
3949.378	-14.04
3951.921	-14.04
3954.462	-14.04
3957	-14.38
3959.537	-15.37
3962.072	-11.71
3964.606	-13.71
3967.137	-14.38
3969.667	-13.38
3972.194	-13.71
3974.72	-12.04
3977.244	-14.71
3979.766	-12.04
3982.286	-15.38
3984.805	-15.71
3987.321	-16.37
3989.836	-15.71
3992.349	-15.71
3994.86	-16.37
3997.369	-18.04
3999.877	-16.71
4002.382	-17.04
4004.886	-14.71
4007.388	-15.04
4009.888	-18.38
4012.386	-18.37
4014.883	-17.04
4017.377	-14.38
4019.87	-14.71
4022.361	-16.71
4024.85	-15.04
4027.338	-13.71
4029.823	-14.38
4032.307	-13.04
4034.789	-13.37
4037.269	-14.38
4039.747	-13.71
4042.224	-13.04
4044.699	-13.71
4047.172	-15.04
4049.643	-14.71
4052.112	-13.71
4054.58	-15.71
4057.046	-17.38
4059.51	-15.38
4061.972	-17.37
4064.432	-17.71
4066.891	-16.71
4069.348	-17.71
4071.803	-17.04
4074.256	-16.71
4076.708	-16.04
4079.158	-16.71
4081.606	-17.71
4084.052	-16.38
4086.497	-15.04
4088.939	-16.71
4091.38	-17.38
4093.819	-16.38
4096.257	-13.71
4098.693	-16.04
4101.127	-16.38
4103.559	-14.71
4105.989	-9.71
4108.418	-8.38
4110.845	-8.71
4113.27	-9.04
4115.694	-8.04
4118.115	-7.71
4120.535	-15.04
4122.954	-13.71
4125.37	-12.71
4127.785	-14.37
4130.198	-15.71
4132.609	-14.37
4135.019	-15.04
4137.427	-14.04
4139.833	-14.04
4142.237	-17.04
