Data from Water vs dark background - dipping [2s average 3, LI=1]_RamanShift_00001.txt Node
Date: Mon May 01 14:24:14 IDT 2017
User: aro
Spectrometer: QEPB0276
Trigger mode: 0
Integration Time (sec): 2.000000E0
Scans to average: 3
Electric dark correction enabled: true
Nonlinearity correction enabled: false
Boxcar width: 0
XAxis mode: Raman Shifts
Number of Pixels in Spectrum: 1044
>>>>>Begin Spectral Data<<<<<
160.701	-0.92
166.742	0.08
172.777	7.75
178.805	16.08
184.826	48.08
190.841	103.42
196.849	167.08
202.85	208.08
208.845	222.08
214.833	220.75
220.815	215.42
226.789	215.42
232.758	214.75
238.719	210.42
244.674	211.08
250.623	202.08
256.565	199.08
262.5	193.42
268.429	191.08
274.351	184.08
280.267	181.75
286.176	181.42
292.079	179.75
297.975	177.75
303.865	179.75
309.748	184.08
315.625	177.42
321.495	176.08
327.359	178.75
333.217	179.42
339.068	177.42
344.912	178.08
350.751	180.42
356.583	181.08
362.408	184.42
368.227	184.42
374.04	189.42
379.847	201.42
385.647	207.75
391.44	199.75
397.228	196.42
403.009	196.75
408.784	208.75
414.553	232.42
420.315	268.75
426.071	265.75
431.821	235.75
437.565	207.08
443.302	202.08
449.033	195.42
454.758	190.42
460.477	188.42
466.189	185.75
471.896	183.08
477.596	176.42
483.29	180.75
488.978	180.42
494.66	182.08
500.335	172.42
506.005	165.75
511.668	152.08
517.325	144.08
522.977	136.08
528.622	128.42
534.261	123.75
539.894	116.75
545.521	117.08
551.141	117.75
556.756	117.08
562.365	109.42
567.968	111.75
573.565	112.08
579.155	113.75
584.74	112.08
590.319	108.42
595.892	107.08
601.459	110.42
607.02	111.75
612.575	109.75
618.124	109.75
623.667	109.75
629.204	109.42
634.735	108.42
640.261	115.08
645.781	120.75
651.294	124.08
656.802	113.08
662.304	105.75
667.8	99.08
673.29	95.75
678.775	93.75
684.254	90.75
689.726	89.75
695.193	90.42
700.655	91.42
706.11	90.42
711.56	88.08
717.004	88.08
722.442	88.42
727.874	86.75
733.301	91.75
738.722	89.75
744.137	90.42
749.547	96.08
754.951	97.75
760.349	97.08
765.741	93.42
771.128	94.08
776.509	92.08
781.885	94.08
787.254	97.08
792.618	98.08
797.977	101.08
803.33	97.75
808.677	95.75
814.019	91.08
819.355	90.08
824.686	84.42
830.011	84.75
835.33	83.08
840.644	82.75
845.952	81.42
851.255	79.08
856.552	78.08
861.844	77.08
867.13	72.42
872.41	76.75
877.686	75.42
882.955	75.42
888.219	75.08
893.478	72.42
898.731	72.42
903.979	70.42
909.221	67.08
914.458	70.08
919.69	69.42
924.916	67.42
930.136	64.75
935.351	65.42
940.561	63.75
945.766	66.42
950.965	63.42
956.158	63.75
961.347	63.42
966.529	59.42
971.707	62.75
976.879	60.08
982.046	56.42
987.208	61.75
992.364	64.42
997.515	70.08
1002.66	83.08
1007.801	94.42
1012.936	82.42
1018.066	69.08
1023.19	62.08
1028.309	66.75
1033.423	73.42
1038.532	75.42
1043.636	71.75
1048.734	68.42
1053.827	63.42
1058.915	61.75
1063.998	61.42
1069.075	61.42
1074.147	58.42
1079.214	64.42
1084.276	62.42
1089.333	62.75
1094.385	55.42
1099.431	59.75
1104.472	60.08
1109.509	56.75
1114.54	56.08
1119.565	53.08
1124.586	54.08
1129.602	53.75
1134.613	50.08
1139.618	46.75
1144.619	54.08
1149.614	53.75
1154.604	54.75
1159.589	54.75
1164.57	55.42
1169.545	57.08
1174.515	53.75
1179.48	56.42
1184.44	59.42
1189.395	60.08
1194.345	58.42
1199.29	58.42
1204.23	55.42
1209.165	56.42
1214.095	56.42
1219.021	51.75
1223.941	50.75
1228.856	54.42
1233.766	51.75
1238.672	54.08
1243.572	49.42
1248.467	49.75
1253.358	51.75
1258.244	46.08
1263.124	42.75
1268	45.42
1272.871	41.75
1277.737	44.75
1282.599	44.42
1287.455	40.75
1292.306	43.42
1297.153	43.42
1301.995	44.42
1306.832	44.75
1311.664	43.75
1316.491	45.75
1321.314	44.75
1326.132	45.42
1330.945	43.42
1335.753	42.75
1340.556	44.08
1345.354	42.42
1350.148	41.75
1354.937	42.08
1359.722	41.08
1364.501	42.08
1369.276	40.08
1374.046	39.75
1378.811	39.42
1383.572	38.08
1388.327	39.42
1393.079	37.08
1397.825	36.75
1402.567	37.75
1407.304	37.08
1412.036	35.75
1416.764	32.75
1421.487	34.42
1426.205	35.08
1430.919	32.75
1435.628	32.42
1440.333	32.42
1445.032	37.08
1449.727	36.42
1454.418	36.08
1459.104	35.08
1463.785	34.75
1468.462	35.08
1473.134	33.75
1477.802	34.08
1482.465	32.75
1487.123	32.42
1491.777	32.42
1496.426	32.75
1501.071	37.42
1505.711	33.75
1510.347	36.08
1514.978	36.42
1519.604	35.75
1524.226	36.75
1528.844	36.75
1533.457	37.75
1538.065	36.42
1542.669	36.75
1547.269	38.08
1551.864	37.42
1556.454	36.75
1561.041	35.75
1565.622	35.75
1570.199	35.42
1574.772	36.42
1579.34	35.08
1583.904	39.08
1588.464	40.42
1593.019	40.42
1597.569	39.42
1602.115	41.42
1606.657	45.08
1611.195	43.75
1615.728	39.75
1620.256	39.08
1624.78	37.75
1629.3	40.42
1633.816	37.42
1638.327	40.42
1642.834	42.42
1647.336	40.08
1651.834	39.08
1656.328	39.75
1660.817	41.42
1665.302	40.75
1669.783	38.75
1674.259	38.08
1678.732	39.75
1683.199	36.42
1687.663	36.42
1692.122	36.42
1696.577	34.42
1701.028	32.08
1705.474	31.75
1709.917	29.08
1714.355	28.42
1718.788	28.08
1723.218	28.75
1727.643	26.42
1732.064	25.08
1736.481	23.08
1740.893	23.42
1745.301	19.75
1749.705	22.08
1754.105	19.75
1758.501	22.75
1762.893	20.08
1767.28	19.75
1771.663	18.75
1776.042	16.42
1780.417	17.42
1784.787	17.42
1789.154	15.08
1793.516	17.42
1797.874	20.42
1802.228	18.08
1806.578	22.75
1810.924	18.42
1815.266	19.08
1819.603	18.08
1823.937	17.08
1828.266	18.42
1832.591	16.75
1836.913	18.42
1841.23	17.08
1845.543	16.75
1849.852	14.75
1854.156	16.08
1858.457	16.08
1862.754	15.42
1867.047	15.08
1871.335	17.42
1875.62	15.42
1879.9	14.75
1884.177	15.42
1888.449	16.08
1892.718	16.42
1896.982	14.08
1901.243	14.75
1905.499	12.42
1909.752	13.75
1914	13.75
1918.245	14.42
1922.485	15.42
1926.722	10.75
1930.954	12.75
1935.183	17.08
1939.408	16.08
1943.628	13.42
1947.845	13.42
1952.058	15.75
1956.267	15.75
1960.472	15.42
1964.673	13.42
1968.87	14.75
1973.063	15.42
1977.252	15.75
1981.438	13.75
1985.619	16.75
1989.797	14.42
1993.971	12.42
1998.14	13.42
2002.306	13.75
2006.469	14.08
2010.627	14.08
2014.781	14.75
2018.932	15.42
2023.078	15.42
2027.221	15.75
2031.36	14.08
2035.495	11.75
2039.627	13.42
2043.754	13.75
2047.878	11.42
2051.998	10.75
2056.114	10.42
2060.226	10.08
2064.334	11.75
2068.439	12.75
2072.54	9.42
2076.637	11.08
2080.73	9.75
2084.82	11.08
2088.906	13.08
2092.988	11.75
2097.066	15.42
2101.14	12.42
2105.211	14.75
2109.278	13.75
2113.342	13.75
2117.401	12.08
2121.457	13.75
2125.509	12.08
2129.558	14.42
2133.602	13.08
2137.643	10.42
2141.681	10.08
2145.714	12.42
2149.744	12.42
2153.77	10.42
2157.793	8.42
2161.812	11.75
2165.827	8.75
2169.838	11.42
2173.846	7.42
2177.851	7.42
2181.851	7.42
2185.848	8.42
2189.841	5.75
2193.831	6.42
2197.817	7.08
2201.799	8.08
2205.778	4.75
2209.753	4.42
2213.725	6.08
2217.693	6.42
2221.657	7.42
2225.618	6.75
2229.575	9.08
2233.529	6.75
2237.479	8.08
2241.425	6.42
2245.368	7.42
2249.307	6.75
2253.243	7.08
2257.175	6.75
2261.104	5.08
2265.029	5.08
2268.95	5.08
2272.868	6.08
2276.783	4.75
2280.694	6.75
2284.601	6.75
2288.505	3.42
2292.405	3.08
2296.302	3.75
2300.195	4.75
2304.085	3.42
2307.971	2.75
2311.854	2.42
2315.734	1.08
2319.609	3.42
2323.482	3.75
2327.351	2.08
2331.216	2.75
2335.078	2.75
2338.937	3.08
2342.792	4.08
2346.643	2.42
2350.492	4.42
2354.336	4.08
2358.178	3.75
2362.015	2.75
2365.85	2.75
2369.681	3.08
2373.508	5.08
2377.333	1.42
2381.153	3.08
2384.971	2.08
2388.785	1.42
2392.595	2.08
2396.402	2.42
2400.206	2.42
2404.007	1.42
2407.804	1.42
2411.597	1.75
2415.388	1.08
2419.174	3.08
2422.958	0.08
2426.738	0.75
2430.515	1.42
2434.289	-0.25
2438.059	1.42
2441.825	0.42
2445.589	-0.58
2449.349	0.75
2453.106	-0.58
2456.859	3.42
2460.61	1.75
2464.356	1.75
2468.1	-0.58
2471.84	0.75
2475.577	1.75
2479.311	0.75
2483.041	1.08
2486.768	-1.25
2490.492	1.75
2494.213	-0.25
2497.93	0.75
2501.644	-0.58
2505.355	-0.25
2509.062	1.75
2512.766	-0.25
2516.467	1.08
2520.165	-0.92
2523.859	-1.92
2527.551	-1.25
2531.239	2.08
2534.923	-1.58
2538.605	1.08
2542.283	1.75
2545.958	-1.25
2549.63	-1.92
2553.299	0.08
2556.964	0.08
2560.626	-0.58
2564.285	-2.25
2567.941	-0.58
2571.594	-1.92
2575.243	0.08
2578.89	-0.25
2582.533	-1.58
2586.173	-1.92
2589.809	-2.25
2593.443	-3.25
2597.073	-0.92
2600.701	-0.25
2604.325	-2.25
2607.946	-3.92
2611.564	-1.25
2615.178	-1.58
2618.79	-2.58
2622.398	-0.92
2626.004	-0.92
2629.606	-2.25
2633.205	-3.92
2636.801	-2.58
2640.394	-1.25
2643.983	-1.92
2647.57	-2.58
2651.153	-2.58
2654.734	-2.58
2658.311	1.08
2661.885	-1.58
2665.456	-1.58
2669.025	-1.58
2672.589	0.42
2676.151	-1.25
2679.71	-0.92
2683.266	-2.58
2686.819	-0.58
2690.368	-3.58
2693.915	-0.58
2697.458	-3.58
2700.999	-4.25
2704.536	-2.25
2708.071	-3.25
2711.602	-2.92
2715.13	-2.25
2718.656	0.08
2722.178	-3.58
2725.697	-3.58
2729.214	-0.92
2732.727	-2.25
2736.237	-2.58
2739.744	-3.25
2743.249	-3.92
2746.75	-1.58
2750.248	-2.58
2753.743	-1.58
2757.236	-3.25
2760.725	-0.58
2764.211	-4.92
2767.695	-2.92
2771.175	-0.92
2774.652	-1.92
2778.127	0.08
2781.598	0.08
2785.067	-1.58
2788.532	-1.92
2791.995	0.08
2795.455	-1.58
2798.911	-1.58
2802.365	-1.92
2805.816	1.42
2809.264	-1.58
2812.709	-2.58
2816.151	-2.58
2819.59	0.42
2823.026	-1.92
2826.46	-3.25
2829.89	-3.58
2833.318	-3.92
2836.742	-2.58
2840.164	-3.58
2843.583	-3.58
2846.999	-2.25
2850.412	-1.92
2853.822	-1.92
2857.229	-1.58
2860.634	0.75
2864.035	-0.25
2867.434	0.75
2870.83	0.08
2874.223	-0.58
2877.613	-1.92
2881	-1.92
2884.385	0.75
2887.766	1.42
2891.145	2.08
2894.521	0.42
2897.894	1.08
2901.264	0.42
2904.631	-0.92
2907.996	-1.58
2911.358	-0.25
2914.717	2.42
2918.073	0.08
2921.426	0.42
2924.777	-1.25
2928.124	0.42
2931.469	1.42
2934.811	0.42
2938.15	2.08
2941.487	0.08
2944.821	1.08
2948.152	-0.25
2951.48	1.75
2954.805	-2.25
2958.128	0.75
2961.447	2.08
2964.765	2.75
2968.079	1.42
2971.39	4.75
2974.699	1.75
2978.005	3.75
2981.308	4.75
2984.609	2.75
2987.907	4.75
2991.202	5.42
2994.494	4.42
2997.784	6.42
3001.07	5.08
3004.355	3.42
3007.636	3.75
3010.915	5.08
3014.191	6.42
3017.464	3.42
3020.734	5.08
3024.002	6.42
3027.267	6.08
3030.53	5.75
3033.789	5.75
3037.046	6.08
3040.301	6.75
3043.552	6.75
3046.801	7.42
3050.048	5.42
3053.291	9.75
3056.532	10.08
3059.771	10.08
3063.006	12.08
3066.239	12.08
3069.469	14.42
3072.697	13.75
3075.922	15.42
3079.144	13.75
3082.364	16.42
3085.581	14.75
3088.795	16.08
3092.007	16.42
3095.216	16.08
3098.423	16.42
3101.627	18.42
3104.828	21.08
3108.026	21.75
3111.222	20.08
3114.416	19.75
3117.607	21.08
3120.795	20.42
3123.98	20.42
3127.163	23.42
3130.344	20.08
3133.521	21.75
3136.696	20.75
3139.869	24.08
3143.039	24.08
3146.206	25.08
3149.371	23.42
3152.533	25.75
3155.693	22.75
3158.85	25.42
3162.005	25.08
3165.157	25.08
3168.306	27.42
3171.453	24.42
3174.597	24.42
3177.739	25.42
3180.878	25.42
3184.014	25.08
3187.149	27.08
3190.28	28.08
3193.409	28.42
3196.536	25.08
3199.659	27.75
3202.781	28.42
3205.9	26.42
3209.016	26.75
3212.13	30.08
3215.241	28.42
3218.35	27.42
3221.456	28.08
3224.56	28.75
3227.661	30.75
3230.76	27.08
3233.856	27.75
3236.95	28.75
3240.041	24.75
3243.13	25.42
3246.216	27.08
3249.3	25.75
3252.382	28.08
3255.46	24.75
3258.537	26.08
3261.611	24.75
3264.682	23.08
3267.751	24.42
3270.818	22.42
3273.882	25.75
3276.943	24.75
3280.002	24.08
3283.059	22.42
3286.113	21.75
3289.165	23.75
3292.214	20.42
3295.261	19.08
3298.306	21.08
3301.348	23.08
3304.387	24.08
3307.425	21.75
3310.459	19.08
3313.492	22.42
3316.521	22.75
3319.549	22.42
3322.574	20.75
3325.597	18.08
3328.617	19.75
3331.635	17.08
3334.65	19.75
3337.663	20.08
3340.674	19.42
3343.682	17.42
3346.688	18.75
3349.691	19.08
3352.692	18.75
3355.691	15.75
3358.687	20.42
3361.681	17.75
3364.673	17.75
3367.662	15.42
3370.649	15.08
3373.633	17.08
3376.615	18.08
3379.595	15.75
3382.572	17.75
3385.547	15.42
3388.52	14.75
3391.49	15.75
3394.458	16.08
3397.424	15.75
3400.387	17.42
3403.348	16.42
3406.307	14.75
3409.263	16.08
3412.217	17.08
3415.168	15.75
3418.118	15.08
3421.065	14.75
3424.009	16.42
3426.951	15.08
3429.891	12.75
3432.829	12.42
3435.764	12.08
3438.697	10.75
3441.628	12.08
3444.557	13.42
3447.483	9.42
3450.407	10.08
3453.328	11.08
3456.247	10.42
3459.164	10.75
3462.079	10.75
3464.991	8.42
3467.902	9.08
3470.809	6.42
3473.715	7.42
3476.618	7.08
3479.519	5.75
3482.418	6.08
3485.315	5.75
3488.209	5.42
3491.101	4.08
3493.99	5.75
3496.878	5.75
3499.763	4.75
3502.646	3.75
3505.527	4.08
3508.405	3.75
3511.281	2.42
3514.155	3.75
3517.027	2.42
3519.897	1.42
3522.764	-0.58
3525.629	1.08
3528.492	0.75
3531.352	2.08
3534.211	1.08
3537.067	2.08
3539.921	3.08
3542.773	-0.25
3545.622	2.08
3548.469	2.08
3551.315	2.42
3554.157	1.42
3556.998	0.42
3559.837	-2.25
3562.673	-0.25
3565.507	0.08
3568.339	-1.58
3571.169	-0.58
3573.996	-2.92
3576.822	0.08
3579.645	-1.25
3582.466	-3.25
3585.285	-2.25
3588.101	-2.58
3590.916	-2.92
3593.728	-3.58
3596.538	-3.25
3599.346	-3.25
3602.152	-3.58
3604.956	-5.58
3607.757	-3.58
3610.556	-1.58
3613.354	-5.92
3616.149	-2.25
3618.942	-3.92
3621.732	-4.58
3624.521	-5.25
3627.307	-2.92
3630.092	-4.92
3632.874	-2.25
3635.654	-4.58
3638.432	-3.25
3641.208	-3.58
3643.982	-3.25
3646.753	-2.92
3649.523	-4.25
3652.29	-4.92
3655.055	-5.25
3657.818	-5.25
3660.579	-3.92
3663.338	-4.92
3666.095	-6.58
3668.849	-7.58
3671.602	-4.92
3674.352	-7.92
3677.101	-5.58
3679.847	-8.92
3682.591	-7.25
3685.333	-5.92
3688.073	-5.58
3690.811	-7.58
3693.547	-4.58
3696.281	-6.92
3699.013	-4.92
3701.742	-3.92
3704.47	-4.25
3707.195	-3.25
3709.919	-4.25
3712.64	-7.25
3715.359	-6.92
3718.076	-3.58
3720.792	-3.58
3723.505	-4.58
3726.216	-6.25
3728.925	-6.25
3731.632	-6.58
3734.336	-7.25
3737.039	-7.58
3739.74	-6.92
3742.439	-6.25
3745.136	-7.58
3747.83	-7.58
3750.523	-8.58
3753.213	-7.25
3755.902	-6.92
3758.589	-9.25
3761.273	-7.25
3763.956	-8.25
3766.636	-8.92
3769.315	-6.92
3771.991	-7.25
3774.665	-7.25
3777.338	-5.25
3780.008	-5.25
3782.677	-4.58
3785.343	-5.92
3788.007	-5.92
3790.67	-4.25
3793.33	-2.92
3795.989	-6.25
3798.645	-6.58
3801.299	-8.25
3803.952	-7.25
3806.602	-8.25
3809.251	-7.92
3811.897	-6.58
3814.542	-6.58
3817.184	-8.92
3819.825	-9.92
3822.463	-8.92
3825.1	-8.58
3827.735	-8.25
3830.367	-8.25
3832.998	-8.25
3835.627	-6.58
3838.253	-6.58
3840.878	-5.58
3843.501	-6.58
3846.122	-5.92
3848.741	-4.58
3851.358	-5.25
3853.973	-5.92
3856.586	-7.58
3859.197	-4.92
3861.806	-5.92
3864.414	-3.25
3867.019	-8.25
3869.622	-5.58
3872.224	-3.92
3874.823	-5.25
3877.421	-3.58
3880.016	-3.58
3882.61	-1.58
3885.202	-0.92
3887.792	-1.25
3890.38	-6.92
3892.966	-4.92
3895.55	-8.92
3898.132	-7.58
3900.713	-8.58
3903.291	-7.25
3905.868	-7.25
3908.442	-5.92
3911.015	-8.25
3913.586	-5.25
3916.155	-8.58
3918.722	-5.92
3921.287	-3.92
3923.85	-3.58
3926.411	-6.58
3928.971	-5.25
3931.528	-5.58
3934.084	-5.58
3936.638	-3.92
3939.19	-5.25
3941.74	-7.92
3944.288	-6.92
3946.834	-5.58
3949.378	-6.58
3951.921	-9.25
3954.462	-8.25
3957	-6.58
3959.537	-6.25
3962.072	-6.25
3964.606	-8.58
3967.137	-7.25
3969.667	-8.92
3972.194	-6.92
3974.72	-6.25
3977.244	-7.58
3979.766	-7.58
3982.286	-6.25
3984.805	-6.25
3987.321	-5.92
3989.836	-6.58
3992.349	-5.92
3994.86	-2.25
3997.369	-6.25
3999.877	-5.92
4002.382	-4.25
4004.886	-5.92
4007.388	-7.92
4009.888	-7.25
4012.386	-5.92
4014.883	-8.25
4017.377	-8.25
4019.87	-7.58
4022.361	-9.25
4024.85	-8.92
4027.338	-8.92
4029.823	-8.92
4032.307	-8.58
4034.789	-7.25
4037.269	-8.58
4039.747	-5.25
4042.224	-8.58
4044.699	-7.25
4047.172	-5.58
4049.643	-2.58
4052.112	-5.92
4054.58	-6.25
4057.046	-6.25
4059.51	-6.58
4061.972	-4.25
4064.432	-4.58
4066.891	-6.92
4069.348	-4.58
4071.803	-7.58
4074.256	-5.92
4076.708	-7.58
4079.158	-6.92
4081.606	-6.25
4084.052	-8.58
4086.497	-7.58
4088.939	-7.92
4091.38	-6.92
4093.819	-7.25
4096.257	-6.25
4098.693	-6.58
4101.127	-4.25
4103.559	-4.92
4105.989	0.42
4108.418	0.42
4110.845	2.08
4113.27	0.08
4115.694	0.75
4118.115	-0.58
4120.535	-8.25
4122.954	-7.25
4125.37	-7.58
4127.785	-7.58
4130.198	-6.92
4132.609	-7.58
4135.019	-5.58
4137.427	-7.25
4139.833	-5.25
4142.237	-4.92
