Data from 1 mM HCl ref original_RamanShift_2.txt Node
Date: Wed Aug 02 17:06:42 IDT 2017
User: aro
Spectrometer: QEPB0276
Trigger mode: 0
Integration Time (sec): 5.000000E0
Scans to average: 3
Electric dark correction enabled: true
Nonlinearity correction enabled: false
Boxcar width: 10
XAxis mode: Raman Shifts
Number of Pixels in Spectrum: 1044
>>>>>Begin Spectral Data<<<<<
160.701	324.87
166.742	355.61
172.777	383.47
178.805	407.61
184.826	429.42
190.841	448.44
196.849	465.38
202.85	480.58
208.845	494.28
214.833	506.6
220.815	518.04
226.789	554.02
232.758	590.29
238.719	626.67
244.674	661.77
250.623	693
256.565	715.91
262.5	729.26
268.429	736
274.351	739.61
280.267	742.42
286.176	743.99
292.079	744.4
297.975	743.54
303.865	741.88
309.748	739.31
315.625	736.56
321.495	733.75
327.359	730.96
333.217	727.35
339.068	723.26
344.912	718.46
350.751	713.02
356.583	708.02
362.408	703.4
368.227	698.15
374.04	690.5
379.847	682.34
385.647	673.89
391.44	664.65
397.228	655.4
403.009	645.51
408.784	634.97
414.553	623.81
420.315	611.8
426.071	599.12
431.821	585.32
437.565	570.1
443.302	552.62
449.033	533.42
454.758	515.53
460.477	502.13
466.189	496.53
471.896	497.04
477.596	499.37
483.29	500.83
488.978	501.4
494.66	503.45
500.335	505.65
506.005	508.1
511.668	511.24
517.325	514.59
522.977	518.26
528.622	522.67
534.261	527.4
539.894	532.43
545.521	538.08
551.141	544.21
556.756	551.34
562.365	560.26
567.968	571.29
573.565	582.16
579.155	589
584.74	588.92
590.319	582.94
595.892	574.64
601.459	565.94
607.02	557.77
612.575	550.05
618.124	543.07
623.667	536.73
629.204	530.88
634.735	525.48
640.261	520.21
645.781	515.08
651.294	510.62
656.802	506.53
662.304	503.05
667.8	499.96
673.29	497.31
678.775	495.24
684.254	492.24
689.726	488.83
695.193	485.72
700.655	481.94
706.11	477.89
711.56	473.54
717.004	469.51
722.442	465.94
727.874	462.91
733.301	460.07
738.722	456.75
744.137	453.97
749.547	451.08
754.951	448.65
760.349	446.32
765.741	443.91
771.128	441.43
776.509	439.08
781.885	437.16
787.254	435.29
792.618	433.18
797.977	431.45
803.33	429.64
808.677	427.67
814.019	426.02
819.355	424.26
824.686	422.51
830.011	420.5
835.33	418.42
840.644	415.69
845.952	413.23
851.255	411.13
856.552	408.65
861.844	406.27
867.13	404.12
872.41	402.51
877.686	401.46
882.955	401.69
888.219	402.46
893.478	403.65
898.731	404.83
903.979	405.81
909.221	406.64
914.458	407.1
919.69	407.23
924.916	406.5
930.136	405.62
935.351	404.35
940.561	403.04
945.766	401.59
950.965	399.99
956.158	398.38
961.347	396.97
966.529	395.5
971.707	394.53
976.879	392.8
982.046	390.8
987.208	388.16
992.364	384.48
997.515	379.92
1002.66	374.81
1007.801	369.89
1012.936	364.94
1018.066	360.08
1023.19	355.67
1028.309	351.62
1033.423	348.02
1038.532	344.78
1043.636	342.35
1048.734	340.29
1053.827	338.56
1058.915	336.88
1063.998	335.1
1069.075	333.1
1074.147	330.97
1079.214	328.37
1084.276	326.24
1089.333	323.91
1094.385	321.89
1099.431	319.73
1104.472	318.12
1109.509	316.81
1114.54	315.38
1119.565	314.15
1124.586	313.27
1129.602	312.18
1134.613	310.75
1139.618	309.51
1144.619	308.15
1149.614	306.5
1154.604	304.64
1159.589	302.99
1164.57	301.42
1169.545	300.27
1174.515	299.21
1179.48	298.61
1184.44	298.23
1189.395	297.94
1194.345	297.61
1199.29	297.12
1204.23	296.62
1209.165	295.65
1214.095	294.37
1219.021	292.92
1223.941	291.24
1228.856	289.5
1233.766	287.7
1238.672	286.21
1243.572	284.99
1248.467	283.97
1253.358	282.81
1258.244	281.77
1263.124	280.83
1268	279.86
1272.871	278.54
1277.737	277.56
1282.599	275.97
1287.455	274
1292.306	271.7
1297.153	269.43
1301.995	267.02
1306.832	264.86
1311.664	262.94
1316.491	261.62
1321.314	260.89
1326.132	260.59
1330.945	260.13
1335.753	260.12
1340.556	259.59
1345.354	258.86
1350.148	258.1
1354.937	256.85
1359.722	255.64
1364.501	253.97
1369.276	252.58
1374.046	251.12
1378.811	249.58
1383.572	248.19
1388.327	247.48
1393.079	247.04
1397.825	246.96
1402.567	247.04
1407.304	247.12
1412.036	247.02
1416.764	246.59
1421.487	245.91
1426.205	244.97
1430.919	243.8
1435.628	242.34
1440.333	241.42
1445.032	240.7
1449.727	240.05
1454.418	240.05
1459.104	240.35
1463.785	241.15
1468.462	241.89
1473.134	243.05
1477.802	243.94
1482.465	245.04
1487.123	245.83
1491.777	246.75
1496.426	247.05
1501.071	247.37
1505.711	247.7
1510.347	248.31
1514.978	248.88
1519.604	249.08
1524.226	249.46
1528.844	250.05
1533.457	250.73
1538.065	251.29
1542.669	251.8
1547.269	252
1551.864	252.12
1556.454	251.83
1561.041	251.04
1565.622	250.12
1570.199	248.86
1574.772	247.54
1579.34	246.35
1583.904	245.4
1588.464	244.29
1593.019	243.75
1597.569	243.31
1602.115	243.04
1606.657	242.61
1611.195	242.29
1615.728	242.65
1620.256	242.85
1624.78	242.88
1629.3	242.92
1633.816	243.02
1638.327	242.94
1642.834	242.97
1647.336	242.73
1651.834	242.64
1656.328	242.96
1660.817	244.05
1665.302	245.34
1669.783	246.85
1674.259	248.1
1678.732	249.19
1683.199	250.15
1687.663	250.85
1692.122	251.26
1696.577	251.67
1701.028	251.85
1705.474	251.8
1709.917	251.16
1714.355	250.73
1718.788	250.34
1723.218	249.78
1727.643	249.35
1732.064	248.83
1736.481	248.96
1740.893	249.35
1745.301	250.13
1749.705	251.05
1754.105	251.64
1758.501	252.34
1762.893	252.91
1767.28	253.62
1771.663	254.34
1776.042	254.88
1780.417	255.5
1784.787	256.38
1789.154	256.94
1793.516	257.58
1797.874	258.42
1802.228	259.59
1806.578	260.77
1810.924	262.07
1815.266	263.67
1819.603	265.07
1823.937	266.7
1828.266	268.18
1832.591	269.59
1836.913	270.64
1841.23	271.46
1845.543	272.18
1849.852	272.88
1854.156	273.64
1858.457	274.18
1862.754	274.88
1867.047	276.21
1871.335	277.64
1875.62	279.02
1879.9	280.78
1884.177	283.07
1888.449	285.58
1892.718	288.24
1896.982	291.02
1901.243	293.65
1905.499	296.37
1909.752	299.18
1914	302.07
1918.245	304.34
1922.485	306.67
1926.722	308.94
1930.954	311.15
1935.183	313.07
1939.408	314.81
1943.628	316.43
1947.845	318.26
1952.058	320.07
1956.267	321.72
1960.472	323.26
1964.673	325.05
1968.87	326.58
1973.063	328.13
1977.252	329.31
1981.438	330.32
1985.619	330.89
1989.797	331.91
1993.971	332.62
1998.14	333.13
2002.306	333.56
2006.469	334.4
2010.627	335.21
2014.781	336.34
2018.932	337.48
2023.078	338.89
2027.221	340.73
2031.36	343.15
2035.495	345.46
2039.627	347.67
2043.754	350.21
2047.878	353.07
2051.998	355.65
2056.114	358.46
2060.226	361.08
2064.334	363.85
2068.439	366.51
2072.54	369.7
2076.637	372.61
2080.73	375.64
2084.82	379.15
2088.906	382.61
2092.988	386.13
2097.066	389.58
2101.14	392.97
2105.211	396.62
2109.278	400.18
2113.342	403.12
2117.401	405.72
2121.457	408.43
2125.509	411.31
2129.558	413.46
2133.602	415.5
2137.643	417.51
2141.681	419.37
2145.714	421.21
2149.744	422.91
2153.77	424.72
2157.793	426.42
2161.812	428.13
2165.827	430.07
2169.838	431.96
2173.846	434.32
2177.851	436.77
2181.851	439.27
2185.848	441.65
2189.841	444.24
2193.831	447.05
2197.817	450.08
2201.799	453.1
2205.778	456.1
2209.753	458.83
2213.725	462.15
2217.693	465.16
2221.657	468.43
2225.618	472.02
2229.575	475.61
2233.529	478.83
2237.479	482.38
2241.425	485.8
2245.368	489.54
2249.307	492.92
2253.243	496.4
2257.175	499.04
2261.104	501.67
2265.029	504.32
2268.95	506.86
2272.868	509.1
2276.783	510.99
2280.694	512.59
2284.601	514.04
2288.505	515.62
2292.405	517.46
2296.302	519.1
2300.195	520.99
2304.085	522.65
2307.971	524.46
2311.854	526.24
2315.734	528.61
2319.609	531.02
2323.482	533.62
2327.351	536.35
2331.216	539.46
2335.078	542.24
2338.937	545.64
2342.792	549.34
2346.643	552.86
2350.492	556.69
2354.336	560.29
2358.178	564
2362.015	568.46
2365.85	573.1
2369.681	577.86
2373.508	582.53
2377.333	587.5
2381.153	592.4
2384.971	597.64
2388.785	602.62
2392.595	607.64
2396.402	612.78
2400.206	617.91
2404.007	622.73
2407.804	627.45
2411.597	631.83
2415.388	636.27
2419.174	640.73
2422.958	644.45
2426.738	648.56
2430.515	652.85
2434.289	657.21
2438.059	661.97
2441.825	666.51
2445.589	671.1
2449.349	676
2453.106	680.75
2456.859	685.78
2460.61	691.21
2464.356	696.61
2468.1	702
2471.84	707.48
2475.577	713.18
2479.311	718.97
2483.041	725.07
2486.768	730.83
2490.492	736.88
2494.213	743.23
2497.93	749.35
2501.644	755.8
2505.355	762.53
2509.062	769.35
2512.766	776.32
2516.467	783.02
2520.165	790.24
2523.859	797.7
2527.551	804.21
2531.239	810.97
2534.923	817.61
2538.605	823.56
2542.283	830.02
2545.958	836.16
2549.63	842.18
2553.299	848.18
2556.964	853.64
2560.626	859.02
2564.285	864.75
2567.941	870.27
2571.594	875.83
2575.243	881.75
2578.89	887.86
2582.533	893.58
2586.173	899.13
2589.809	904.1
2593.443	909.34
2597.073	914.05
2600.701	918.08
2604.325	922.64
2607.946	926.85
2611.564	930.32
2615.178	934.12
2618.79	937.42
2622.398	940.31
2626.004	943.37
2629.606	945.96
2633.205	948.92
2636.801	951.8
2640.394	954.05
2643.983	956.69
2647.57	958.69
2651.153	959.99
2654.734	961.18
2658.311	962.1
2661.885	962.35
2665.456	962.81
2669.025	962.35
2672.589	961.86
2676.151	961.96
2679.71	961.59
2683.266	961.45
2686.819	961.61
2690.368	962.12
2693.915	962.88
2697.458	964.43
2700.999	966.62
2704.536	968.92
2708.071	972.02
2711.602	975.73
2715.13	979.83
2718.656	984.48
2722.178	989.8
2725.697	995.58
2729.214	1001.27
2732.727	1007.83
2736.237	1014.81
2739.744	1021.77
2743.249	1029.07
2746.75	1036.31
2750.248	1043.27
2753.743	1050.72
2757.236	1058.24
2760.725	1065.59
2764.211	1072.73
2767.695	1079.31
2771.175	1086.1
2774.652	1091.75
2778.127	1096.92
2781.598	1101.12
2785.067	1104.37
2788.532	1108.13
2791.995	1110.85
2795.455	1113.45
2798.911	1115.73
2802.365	1117.73
2805.816	1119.31
2809.264	1120.61
2812.709	1122.73
2816.151	1125.19
2819.59	1127.32
2823.026	1129.8
2826.46	1132.48
2829.89	1135.08
2833.318	1138.24
2836.742	1141.35
2840.164	1144.51
2843.583	1147.62
2846.999	1150.51
2850.412	1153.59
2853.822	1155.72
2857.229	1158.29
2860.634	1159.72
2864.035	1161.19
2867.434	1161.94
2870.83	1162.77
2874.223	1163.35
2877.613	1163.83
2881	1164.31
2884.385	1164.04
2887.766	1163.46
2891.145	1163.24
2894.521	1162.38
2897.894	1161.56
2901.264	1160.31
2904.631	1158.46
2907.996	1156.5
2911.358	1154.58
2914.717	1151.92
2918.073	1149.5
2921.426	1146.83
2924.777	1145.04
2928.124	1142.85
2931.469	1140.8
2934.811	1138.88
2938.15	1137.45
2941.487	1136.43
2944.821	1135.81
2948.152	1135.21
2951.48	1134.92
2954.805	1135.04
2958.128	1135.91
2961.447	1136.67
2964.765	1138.32
2968.079	1140.04
2971.39	1141.77
2974.699	1144.12
2978.005	1145.51
2981.308	1146.62
2984.609	1148
2987.907	1149.37
2991.202	1150.23
2994.494	1150.45
2997.784	1150.46
3001.07	1150.42
3004.355	1150.04
3007.636	1148.77
3010.915	1147.07
3014.191	1145.72
3017.464	1143.75
3020.734	1141.51
3024.002	1138.81
3027.267	1135.64
3030.53	1132.69
3033.789	1128.81
3037.046	1124.53
3040.301	1120.61
3043.552	1116.32
3046.801	1112.46
3050.048	1108.88
3053.291	1105.24
3056.532	1101.51
3059.771	1098.56
3063.006	1095.83
3066.239	1093.26
3069.469	1091.38
3072.697	1089.05
3075.922	1087.54
3079.144	1085.78
3082.364	1083.56
3085.581	1081.45
3088.795	1079.7
3092.007	1078.04
3095.216	1076.26
3098.423	1073.73
3101.627	1071.43
3104.828	1069.18
3108.026	1066.92
3111.222	1064.53
3114.416	1061.85
3117.607	1058.89
3120.795	1056.05
3123.98	1052.89
3127.163	1049.61
3130.344	1046.1
3133.521	1042.83
3136.696	1038.23
3139.869	1034.24
3143.039	1029.5
3146.206	1024.81
3149.371	1019.65
3152.533	1014.51
3155.693	1008.78
3158.85	1003.07
3162.005	996.7
3165.157	990.56
3168.306	983.97
3171.453	977.5
3174.597	970.72
3177.739	964.13
3180.878	957.86
3184.014	951.4
3187.149	944.83
3190.28	938.29
3193.409	931.51
3196.536	925.07
3199.659	918.08
3202.781	911.97
3205.9	905.45
3209.016	899.34
3212.13	893.18
3215.241	887.5
3218.35	881.89
3221.456	876.23
3224.56	870.51
3227.661	865.51
3230.76	860.91
3233.856	856.19
3236.95	851.48
3240.041	846.86
3243.13	842.23
3246.216	837.94
3249.3	833.96
3252.382	829.77
3255.46	825.88
3258.537	822.08
3261.611	818.27
3264.682	814.46
3267.751	810.69
3270.818	806.64
3273.882	802.38
3276.943	798.16
3280.002	793.53
3283.059	789
3286.113	784.24
3289.165	779.1
3292.214	773.8
3295.261	768.04
3298.306	762.43
3301.348	756.64
3304.387	751.08
3307.425	745.12
3310.459	738.88
3313.492	732.67
3316.521	726.65
3319.549	720.89
3322.574	715.51
3325.597	710.21
3328.617	704.92
3331.635	699.65
3334.65	694.85
3337.663	690.13
3340.674	685.16
3343.682	680.65
3346.688	675.94
3349.691	671.38
3352.692	667.15
3355.691	662.37
3358.687	657.56
3361.681	653.07
3364.673	648.27
3367.662	643.26
3370.649	638.07
3373.633	633.48
3376.615	628.59
3379.595	623.59
3382.572	618.13
3385.547	612.81
3388.52	607.37
3391.49	602.42
3394.458	597.4
3397.424	592.45
3400.387	587.58
3403.348	583.29
3406.307	578.61
3409.263	573.94
3412.217	569.62
3415.168	565.07
3418.118	560.72
3421.065	556.16
3424.009	551.32
3426.951	546.32
3429.891	541.5
3432.829	536.62
3435.764	531.23
3438.697	526.13
3441.628	520.83
3444.557	515.75
3447.483	510.42
3450.407	505.05
3453.328	499.54
3456.247	493.7
3459.164	487.89
3462.079	482.32
3464.991	476.4
3467.902	470.65
3470.809	465.32
3473.715	459.62
3476.618	454.56
3479.519	449.42
3482.418	444.45
3485.315	439.77
3488.209	435.08
3491.101	430
3493.99	425.07
3496.878	419.94
3499.763	414.59
3502.646	409.23
3505.527	403.7
3508.405	398.15
3511.281	392.51
3514.155	386.81
3517.027	381.05
3519.897	375.4
3522.764	369.77
3525.629	363.97
3528.492	358.45
3531.352	352.32
3534.211	346.54
3537.067	340.15
3539.921	334.53
3542.773	328.75
3545.622	323.02
3548.469	317.58
3551.315	312.15
3554.157	306.73
3556.998	301.5
3559.837	296.32
3562.673	291.38
3565.507	286.83
3568.339	282.13
3571.169	277.56
3573.996	272.96
3576.822	268.89
3579.645	264.56
3582.466	260.13
3585.285	255.94
3588.101	251.64
3590.916	247.75
3593.728	243.69
3596.538	239.91
3599.346	235.85
3602.152	232.19
3604.956	228.58
3607.757	225.13
3610.556	221.7
3613.354	218.65
3616.149	215.53
3618.942	212.86
3621.732	210.15
3624.521	207.15
3627.307	204.34
3630.092	201.64
3632.874	199.12
3635.654	196.54
3638.432	194.08
3641.208	191.81
3643.982	189.62
3646.753	187.38
3649.523	184.96
3652.29	182.65
3655.055	180.43
3657.818	178.32
3660.579	176
3663.338	173.92
3666.095	171.62
3668.849	169.43
3671.602	167.24
3674.352	165.42
3677.101	163.29
3679.847	161.54
3682.591	159.99
3685.333	158.58
3688.073	157.16
3690.811	155.69
3693.547	154.29
3696.281	153.05
3699.013	151.67
3701.742	150.24
3704.47	148.96
3707.195	147.83
3709.919	146.7
3712.64	145.67
3715.359	144.29
3718.076	143.02
3720.792	141.73
3723.505	140.46
3726.216	139.19
3728.925	138.02
3731.632	136.65
3734.336	135.51
3737.039	133.99
3739.74	132.59
3742.439	131.27
3745.136	129.99
3747.83	128.65
3750.523	127.21
3753.213	125.85
3755.902	124.46
3758.589	123.19
3761.273	121.64
3763.956	120.38
3766.636	119.04
3769.315	117.37
3771.991	115.77
3774.665	114.38
3777.338	112.86
3780.008	111.35
3782.677	110.1
3785.343	108.51
3788.007	107.13
3790.67	105.38
3793.33	103.83
3795.989	102.32
3798.645	100.65
3801.299	98.91
3803.952	97.34
3806.602	95.8
3809.251	93.97
3811.897	92.37
3814.542	90.58
3817.184	89.1
3819.825	87.29
3822.463	85.48
3825.1	83.81
3827.735	82.19
3830.367	80.4
3832.998	78.62
3835.627	76.78
3838.253	74.92
3840.878	73.15
3843.501	71.26
3846.122	69.61
3848.741	67.88
3851.358	66.07
3853.973	64.19
3856.586	62.4
3859.197	60.5
3861.806	58.69
3864.414	56.92
3867.019	54.88
3869.622	52.94
3872.224	50.96
3874.823	48.89
3877.421	47.13
3880.016	45.29
3882.61	43.46
3885.202	41.69
3887.792	39.91
3890.38	38.26
3892.966	36.43
3895.55	34.58
3898.132	32.69
3900.713	30.73
3903.291	28.97
3905.868	27.13
3908.442	25.58
3911.015	23.94
3913.586	22.32
3916.155	20.75
3918.722	19.38
3921.287	18.18
3923.85	17
3926.411	15.83
3928.971	14.96
3931.528	13.8
3934.084	12.94
3936.638	12.08
3939.19	11.26
3941.74	10.5
3944.288	9.89
3946.834	9.26
3949.378	8.69
3951.921	8.29
3954.462	7.94
3957	7.58
3959.537	7.31
3962.072	6.78
3964.606	6.37
3967.137	6.18
3969.667	5.77
3972.194	5.46
3974.72	5.18
3977.244	4.96
3979.766	4.72
3982.286	4.45
3984.805	4.34
3987.321	4.12
3989.836	3.96
3992.349	3.64
3994.86	3.42
3997.369	3.02
3999.877	2.77
4002.382	2.61
4004.886	2.32
4007.388	1.99
4009.888	1.5
4012.386	1.15
4014.883	1.02
4017.377	0.77
4019.87	0.5
4022.361	0.21
4024.85	-0.09
4027.338	-0.46
4029.823	-0.84
4032.307	-1.11
4034.789	-1.38
4037.269	-1.68
4039.747	-1.96
4042.224	-2.33
4044.699	-2.49
4047.172	-2.69
4049.643	-2.98
4052.112	-3.25
4054.58	-3.63
4057.046	-3.85
4059.51	-4.14
4061.972	-4.25
4064.432	-4.52
4066.891	-5
4069.348	-5.35
4071.803	-5.96
4074.256	-6.49
4076.708	-7.09
4079.158	-7.6
4081.606	-7.69
4084.052	-7.77
4086.497	-7.81
4088.939	-7.88
4091.38	-7.9
4093.819	-7.74
4096.257	-7.92
4098.693	-8.11
4101.127	-8.25
4103.559	-8.38
4105.989	-8.47
4108.418	-8.76
4110.845	-9.2
4113.27	-9.66
4115.694	-10.03
4118.115	-10.39
4120.535	-10.47
4122.954	-10.27
4125.37	-9.97
4127.785	-9.62
4130.198	-9.27
4132.609	-9.38
4135.019	-9.63
4137.427	-10.07
4139.833	-10.42
4142.237	-10.95
