Data from 1 mM 500C ref PSIH_RamanShift_2.txt Node
Date: Wed Aug 02 16:16:29 IDT 2017
User: aro
Spectrometer: QEPB0276
Trigger mode: 0
Integration Time (sec): 5.000000E0
Scans to average: 3
Electric dark correction enabled: true
Nonlinearity correction enabled: false
Boxcar width: 10
XAxis mode: Raman Shifts
Number of Pixels in Spectrum: 1044
>>>>>Begin Spectral Data<<<<<
160.701	589.63
166.742	645.93
172.777	696.82
178.805	742.26
184.826	782.94
190.841	818.94
196.849	851.58
202.85	880.76
208.845	907.52
214.833	931.59
220.815	954.24
226.789	1021.62
232.758	1090.26
238.719	1159.05
244.674	1225.8
250.623	1285.45
256.565	1331.3
262.5	1360.78
268.429	1378.51
274.351	1391.59
280.267	1403.41
286.176	1413.92
292.079	1423.51
297.975	1430.72
303.865	1436.57
309.748	1440.97
315.625	1445.19
321.495	1448.89
327.359	1452.95
333.217	1456.59
339.068	1460.05
344.912	1463.4
350.751	1466.32
356.583	1468.72
362.408	1471.37
368.227	1473.35
374.04	1473.68
379.847	1473.89
385.647	1474.16
391.44	1474.54
397.228	1474.1
403.009	1473
408.784	1472.53
414.553	1471.24
420.315	1469.99
426.071	1468.07
431.821	1465.75
437.565	1462
443.302	1456.16
449.033	1448.94
454.758	1442.75
460.477	1441.67
466.189	1446.89
471.896	1456.78
477.596	1466.13
483.29	1473.14
488.978	1478.46
494.66	1483.43
500.335	1488.11
506.005	1492.21
511.668	1495.59
517.325	1499.32
522.977	1503.48
528.622	1506.56
534.261	1509.56
539.894	1512.29
545.521	1514.84
551.141	1517.91
556.756	1521.35
562.365	1526.27
567.968	1532.67
573.565	1538.41
579.155	1539.38
584.74	1533.43
590.319	1523
595.892	1512.38
601.459	1502.64
607.02	1494.18
612.575	1486.81
618.124	1480.24
623.667	1474.19
629.204	1469.19
634.735	1463.89
640.261	1458.78
645.781	1454.3
651.294	1450.07
656.802	1445.7
662.304	1442.61
667.8	1439.76
673.29	1437.53
678.775	1435.89
684.254	1433.57
689.726	1430.99
695.193	1427.86
700.655	1424.89
706.11	1422.27
711.56	1419.27
717.004	1416.45
722.442	1414.18
727.874	1412.67
733.301	1411.19
738.722	1410.29
744.137	1408.4
749.547	1407.41
754.951	1406.72
760.349	1405.8
765.741	1404.81
771.128	1404.84
776.509	1405.07
781.885	1405.1
787.254	1406.27
792.618	1407.51
797.977	1409.07
803.33	1410.97
808.677	1413.32
814.019	1415.91
819.355	1417.81
824.686	1420.14
830.011	1422.21
835.33	1423.76
840.644	1424.95
845.952	1425.57
851.255	1426
856.552	1428.1
861.844	1429.72
867.13	1432.43
872.41	1436.24
877.686	1441.54
882.955	1447.84
888.219	1455.1
893.478	1462.7
898.731	1469.89
903.979	1476.95
909.221	1483.1
914.458	1488.37
919.69	1492.38
924.916	1495.05
930.136	1497.84
935.351	1500.51
940.561	1503.22
945.766	1506.72
950.965	1510.37
956.158	1515.32
961.347	1521.19
966.529	1526.64
971.707	1533.32
976.879	1539.08
982.046	1544.24
987.208	1547.84
992.364	1549.86
997.515	1550.02
1002.66	1549.97
1007.801	1549.16
1012.936	1548
1018.066	1547.46
1023.19	1547.8
1028.309	1550.11
1033.423	1553.88
1038.532	1558.64
1043.636	1563.57
1048.734	1569.21
1053.827	1574.61
1058.915	1579.92
1063.998	1583.97
1069.075	1586.99
1074.147	1588.51
1079.214	1588.49
1084.276	1587.86
1089.333	1586.99
1094.385	1586.83
1099.431	1587.73
1104.472	1589.41
1109.509	1592.02
1114.54	1595.08
1119.565	1598.51
1124.586	1602.19
1129.602	1604.72
1134.613	1606.26
1139.618	1606.81
1144.619	1605.92
1149.614	1604.61
1154.604	1603.32
1159.589	1602.07
1164.57	1600.94
1169.545	1601.51
1174.515	1602.57
1179.48	1605.22
1184.44	1608.97
1189.395	1612.84
1194.345	1616.83
1199.29	1620.65
1204.23	1622.92
1209.165	1623.75
1214.095	1622.49
1219.021	1621.1
1223.941	1618.02
1228.856	1614.49
1233.766	1611.94
1238.672	1609.76
1243.572	1608.67
1248.467	1608.11
1253.358	1608.29
1258.244	1608.97
1263.124	1609.11
1268	1609.35
1272.871	1608.72
1277.737	1606.94
1282.599	1602.97
1287.455	1597.13
1292.306	1589.81
1297.153	1581.35
1301.995	1572.19
1306.832	1563.88
1311.664	1557.75
1316.491	1554.43
1321.314	1553.13
1326.132	1555.46
1330.945	1559.45
1335.753	1563.75
1340.556	1567
1345.354	1568.62
1350.148	1568.89
1354.937	1566.84
1359.722	1563.08
1364.501	1558.45
1369.276	1553.72
1374.046	1547.73
1378.811	1543.24
1383.572	1541.4
1388.327	1541
1393.079	1543
1397.825	1546.99
1402.567	1552.11
1407.304	1556.94
1412.036	1560.49
1416.764	1562.08
1421.487	1561.24
1426.205	1557.81
1430.919	1552.57
1435.628	1546.89
1440.333	1542.59
1445.032	1540.02
1449.727	1539.48
1454.418	1541.78
1459.104	1546.41
1463.785	1553.18
1468.462	1561.35
1473.134	1570.95
1477.802	1580.67
1482.465	1588.95
1487.123	1597.38
1491.777	1604.99
1496.426	1611.97
1501.071	1617.41
1505.711	1622.68
1510.347	1628.43
1514.978	1634.51
1519.604	1640.46
1524.226	1647.26
1528.844	1654.64
1533.457	1662.05
1538.065	1669.08
1542.669	1674.83
1547.269	1679.91
1551.864	1683.53
1556.454	1684.75
1561.041	1683.64
1565.622	1680.67
1570.199	1676.48
1574.772	1671.11
1579.34	1666.11
1583.904	1661.3
1588.464	1657.16
1593.019	1653.19
1597.569	1651.08
1602.115	1650.7
1606.657	1650.7
1611.195	1651.88
1615.728	1654.1
1620.256	1656.38
1624.78	1658.67
1629.3	1660.21
1633.816	1661.26
1638.327	1661.53
1642.834	1660.41
1647.336	1658.8
1651.834	1658.61
1656.328	1661.13
1660.817	1666.54
1665.302	1674.81
1669.783	1683.43
1674.259	1692.18
1678.732	1699.46
1683.199	1705.54
1687.663	1711.08
1692.122	1715.05
1696.577	1717.07
1701.028	1717.3
1705.474	1716
1709.917	1712.72
1714.355	1708.4
1718.788	1703.41
1723.218	1698.48
1727.643	1694.14
1732.064	1690.59
1736.481	1689.16
1740.893	1689.75
1745.301	1691.65
1749.705	1693.88
1754.105	1695.94
1758.501	1696.45
1762.893	1697.68
1767.28	1698.73
1771.663	1699.62
1776.042	1700.88
1780.417	1701.05
1784.787	1701.51
1789.154	1701.21
1793.516	1701.34
1797.874	1701.43
1802.228	1703.07
1806.578	1705.37
1810.924	1707.89
1815.266	1711.37
1819.603	1714.56
1823.937	1719.34
1828.266	1722.86
1832.591	1726.29
1836.913	1727.21
1841.23	1726.88
1845.543	1724.11
1849.852	1720.37
1854.156	1715.72
1858.457	1711.16
1862.754	1707.91
1867.047	1705.21
1871.335	1704.07
1875.62	1704.41
1879.9	1706.24
1884.177	1710.43
1888.449	1715.73
1892.718	1721.72
1896.982	1728.07
1901.243	1735.41
1905.499	1742.34
1909.752	1749
1914	1754.29
1918.245	1759.37
1922.485	1762.72
1926.722	1766.38
1930.954	1768.03
1935.183	1769.29
1939.408	1770.68
1943.628	1771.45
1947.845	1771.89
1952.058	1771.78
1956.267	1772.05
1960.472	1771.67
1964.673	1770.75
1968.87	1769.43
1973.063	1766.57
1977.252	1762.86
1981.438	1757.91
1985.619	1752.75
1989.797	1745.89
1993.971	1737.92
1998.14	1729.97
2002.306	1721.91
2006.469	1714.65
2010.627	1707.88
2014.781	1701.72
2018.932	1697.38
2023.078	1693.94
2027.221	1691.35
2031.36	1690.86
2035.495	1690.65
2039.627	1692.27
2043.754	1693.57
2047.878	1695.64
2051.998	1697.35
2056.114	1699.27
2060.226	1700.76
2064.334	1702.84
2068.439	1705.65
2072.54	1707.94
2076.637	1711.53
2080.73	1716.07
2084.82	1720.81
2088.906	1726.41
2092.988	1732.02
2097.066	1738.1
2101.14	1744.13
2105.211	1749.88
2109.278	1754.73
2113.342	1759.19
2117.401	1762.7
2121.457	1765.57
2125.509	1766.54
2129.558	1767.41
2133.602	1767.02
2137.643	1765.37
2141.681	1764
2145.714	1762.53
2149.744	1761.26
2153.77	1758.84
2157.793	1754.37
2161.812	1752.45
2165.827	1751.73
2169.838	1751.29
2173.846	1751.14
2177.851	1751.07
2181.851	1752.02
2185.848	1752.57
2189.841	1753.61
2193.831	1755.19
2197.817	1757.37
2201.799	1759.03
2205.778	1761.46
2209.753	1764.07
2213.725	1765.81
2217.693	1768
2221.657	1771.57
2225.618	1775.29
2229.575	1779.51
2233.529	1783.21
2237.479	1787.51
2241.425	1794.14
2245.368	1798.03
2249.307	1800.57
2253.243	1802.3
2257.175	1803.99
2261.104	1805.3
2265.029	1804.57
2268.95	1803.11
2272.868	1800.91
2276.783	1797.76
2280.694	1793.45
2284.601	1788.72
2288.505	1783.46
2292.405	1778.92
2296.302	1775.32
2300.195	1771.49
2304.085	1767.26
2307.971	1763.27
2311.854	1759.51
2315.734	1756.26
2319.609	1753.95
2323.482	1752.08
2327.351	1750.24
2331.216	1749.13
2335.078	1749.07
2338.937	1748.22
2342.792	1747.62
2346.643	1748.1
2350.492	1749.4
2354.336	1750.46
2358.178	1752.26
2362.015	1753.72
2365.85	1756.19
2369.681	1759.11
2373.508	1761.1
2377.333	1763.81
2381.153	1767.62
2384.971	1771.27
2388.785	1774.29
2392.595	1776.8
2396.402	1778.76
2400.206	1780.35
2404.007	1781.91
2407.804	1782.73
2411.597	1782.57
2415.388	1782.05
2419.174	1781.73
2422.958	1780.54
2426.738	1779.22
2430.515	1777.46
2434.289	1775.94
2438.059	1774.73
2441.825	1773.94
2445.589	1773.92
2449.349	1773.88
2453.106	1774.88
2456.859	1775.38
2460.61	1775.73
2464.356	1776.38
2468.1	1777.54
2471.84	1779.35
2475.577	1781.81
2479.311	1783.99
2483.041	1785.88
2486.768	1788.14
2490.492	1791.1
2494.213	1793.57
2497.93	1796.19
2501.644	1799.7
2505.355	1802.57
2509.062	1806.49
2512.766	1811.37
2516.467	1816
2520.165	1820.73
2523.859	1823.89
2527.551	1827.4
2531.239	1830.4
2534.923	1832.97
2538.605	1835.14
2542.283	1837.19
2545.958	1839.1
2549.63	1839.7
2553.299	1840.08
2556.964	1840.22
2560.626	1839.84
2564.285	1839.83
2567.941	1839.88
2571.594	1840.08
2575.243	1840.16
2578.89	1840.29
2582.533	1841.14
2586.173	1841.54
2589.809	1840.57
2593.443	1839.65
2597.073	1838.41
2600.701	1836.97
2604.325	1835.48
2607.946	1833.14
2611.564	1830.26
2615.178	1827.32
2618.79	1824.1
2622.398	1820.03
2626.004	1816.41
2629.606	1811.7
2633.205	1807.38
2636.801	1803.62
2640.394	1799.64
2643.983	1795.07
2647.57	1789.68
2651.153	1783.72
2654.734	1777.65
2658.311	1770.67
2661.885	1762.62
2665.456	1755.24
2669.025	1747.13
2672.589	1738.92
2676.151	1731.59
2679.71	1723.62
2683.266	1716
2686.819	1709
2690.368	1702.1
2693.915	1696.19
2697.458	1691.34
2700.999	1686.91
2704.536	1684.7
2708.071	1683.99
2711.602	1683.91
2715.13	1685.05
2718.656	1686.65
2722.178	1690.4
2725.697	1694.61
2729.214	1699.7
2732.727	1705.38
2736.237	1712.26
2739.744	1719.32
2743.249	1726.38
2746.75	1734.13
2750.248	1742.07
2753.743	1749.56
2757.236	1757.19
2760.725	1765.67
2764.211	1774.34
2767.695	1782.26
2771.175	1789.4
2774.652	1796.03
2778.127	1801.78
2781.598	1805.54
2785.067	1808.08
2788.532	1809.75
2791.995	1811.03
2795.455	1811.3
2798.911	1811.72
2802.365	1811.05
2805.816	1810.41
2809.264	1809.22
2812.709	1807.95
2816.151	1807.65
2819.59	1807.27
2823.026	1807.34
2826.46	1808.26
2829.89	1809.67
2833.318	1810.95
2836.742	1811.99
2840.164	1813.67
2843.583	1814.41
2846.999	1815.68
2850.412	1816.16
2853.822	1816.54
2857.229	1816.64
2860.634	1816.13
2864.035	1815.3
2867.434	1813.59
2870.83	1811.18
2874.223	1808.81
2877.613	1805.99
2881	1803.02
2884.385	1799.51
2887.766	1795.1
2891.145	1790.84
2894.521	1785.51
2897.894	1779.8
2901.264	1774
2904.631	1767.3
2907.996	1760.57
2911.358	1752.86
2914.717	1745.54
2918.073	1738.1
2921.426	1729.92
2924.777	1721.91
2928.124	1714.19
2931.469	1706.68
2934.811	1699.3
2938.15	1692.72
2941.487	1686.27
2944.821	1680.49
2948.152	1675.56
2951.48	1671.37
2954.805	1667.62
2958.128	1664.72
2961.447	1662.14
2964.765	1659.76
2968.079	1657.84
2971.39	1655.99
2974.699	1653.81
2978.005	1651.65
2981.308	1649
2984.609	1647.1
2987.907	1644.56
2991.202	1641.34
2994.494	1637.48
2997.784	1633.27
3001.07	1628.45
3004.355	1622.73
3007.636	1616.29
3010.915	1609.86
3014.191	1602.26
3017.464	1594.24
3020.734	1585.67
3024.002	1576.35
3027.267	1566.54
3030.53	1556.26
3033.789	1546.18
3037.046	1535.67
3040.301	1524.88
3043.552	1514.43
3046.801	1503.8
3050.048	1493.45
3053.291	1483
3056.532	1472.64
3059.771	1463.73
3063.006	1455.19
3066.239	1447.16
3069.469	1438.92
3072.697	1431.54
3075.922	1424.67
3079.144	1417.97
3082.364	1411.3
3085.581	1404.53
3088.795	1397.84
3092.007	1391.38
3095.216	1385.43
3098.423	1378.56
3101.627	1371.57
3104.828	1364.72
3108.026	1358.34
3111.222	1351.22
3114.416	1343.59
3117.607	1336.34
3120.795	1328.8
3123.98	1320.68
3127.163	1312.54
3130.344	1303.57
3133.521	1295.05
3136.696	1286.4
3139.869	1277.59
3143.039	1268.38
3146.206	1258.64
3149.371	1248.95
3152.533	1238.72
3155.693	1228.18
3158.85	1217.51
3162.005	1206.45
3165.157	1195.89
3168.306	1184.89
3171.453	1173.73
3174.597	1161.83
3177.739	1150.78
3180.878	1139.76
3184.014	1128.95
3187.149	1117.7
3190.28	1107.22
3193.409	1096.61
3196.536	1086.7
3199.659	1076.11
3202.781	1066.3
3205.9	1056.78
3209.016	1047.45
3212.13	1038.43
3215.241	1029.81
3218.35	1021.62
3221.456	1013.24
3224.56	1005.24
3227.661	997.57
3230.76	989.92
3233.856	982.99
3236.95	976.16
3240.041	969.43
3243.13	962.67
3246.216	956.4
3249.3	951.03
3252.382	946
3255.46	940.72
3258.537	935.41
3261.611	930.26
3264.682	925.24
3267.751	920.07
3270.818	914.49
3273.882	908.72
3276.943	903.02
3280.002	896.89
3283.059	890.73
3286.113	884.56
3289.165	878.49
3292.214	871.94
3295.261	865.1
3298.306	857.61
3301.348	850.67
3304.387	843.95
3307.425	836.65
3310.459	829.97
3313.492	822.43
3316.521	815.4
3319.549	808.54
3322.574	801.92
3325.597	795.75
3328.617	789.64
3331.635	783.59
3334.65	777.95
3337.663	772.65
3340.674	767.22
3343.682	762.13
3346.688	756.91
3349.691	751.78
3352.692	746.51
3355.691	741.51
3358.687	736.67
3361.681	731.76
3364.673	726.43
3367.662	720.64
3370.649	715.16
3373.633	709.75
3376.615	703.84
3379.595	697.81
3382.572	692.26
3385.547	686.24
3388.52	680.54
3391.49	675.29
3394.458	670.08
3397.424	664.83
3400.387	659.97
3403.348	654.97
3406.307	650.27
3409.263	645.46
3412.217	640.61
3415.168	635.49
3418.118	630.38
3421.065	625.13
3424.009	620.19
3426.951	614.92
3429.891	609.88
3432.829	604.78
3435.764	598.8
3438.697	593.14
3441.628	587.34
3444.557	581.07
3447.483	575.32
3450.407	569.34
3453.328	562.68
3456.247	556.3
3459.164	550.08
3462.079	543.54
3464.991	537.53
3467.902	531.43
3470.809	525.43
3473.715	519.72
3476.618	514.11
3479.519	508.41
3482.418	502.95
3485.315	497.14
3488.209	491.65
3491.101	486
3493.99	480.22
3496.878	474.73
3499.763	468.81
3502.646	462.97
3505.527	457.26
3508.405	451.19
3511.281	444.65
3514.155	438.27
3517.027	431.3
3519.897	424.22
3522.764	417.24
3525.629	410.27
3528.492	402.95
3531.352	395.91
3534.211	388.72
3537.067	381.81
3539.921	374.73
3542.773	367.76
3545.622	361.18
3548.469	354.54
3551.315	348.07
3554.157	341.65
3556.998	335.22
3559.837	329.21
3562.673	323.19
3565.507	317.19
3568.339	311.43
3571.169	305.78
3573.996	300.46
3576.822	295.54
3579.645	290.57
3582.466	285.38
3585.285	280.05
3588.101	274.88
3590.916	269.78
3593.728	264.61
3596.538	259.57
3599.346	255.03
3602.152	250.37
3604.956	245.89
3607.757	241.4
3610.556	237.08
3613.354	233.1
3616.149	229.11
3618.942	225.32
3621.732	221.62
3624.521	218.03
3627.307	214.61
3630.092	211.49
3632.874	208.27
3635.654	204.95
3638.432	202.07
3641.208	199.08
3643.982	196.22
3646.753	193.51
3649.523	190.57
3652.29	188.05
3655.055	185.34
3657.818	182.46
3660.579	179.99
3663.338	177.41
3666.095	174.73
3668.849	172.32
3671.602	169.88
3674.352	167.68
3677.101	165.46
3679.847	163.34
3682.591	161.37
3685.333	159.54
3688.073	157.56
3690.811	155.8
3693.547	154.24
3696.281	152.37
3699.013	150.78
3701.742	149.19
3704.47	147.56
3707.195	146.08
3709.919	144.53
3712.64	142.99
3715.359	141.59
3718.076	140
3720.792	138.41
3723.505	137.07
3726.216	135.46
3728.925	133.92
3731.632	132.3
3734.336	130.8
3737.039	129.32
3739.74	127.81
3742.439	126.07
3745.136	124.54
3747.83	122.97
3750.523	121.29
3753.213	119.73
3755.902	118.16
3758.589	116.49
3761.273	114.81
3763.956	113.18
3766.636	111.56
3769.315	109.95
3771.991	108.26
3774.665	106.54
3777.338	104.92
3780.008	103.02
3782.677	101.27
3785.343	99.57
3788.007	97.81
3790.67	96.03
3793.33	94.13
3795.989	92.32
3798.645	90.49
3801.299	88.59
3803.952	86.56
3806.602	84.76
3809.251	82.89
3811.897	80.92
3814.542	79.13
3817.184	77.37
3819.825	75.38
3822.463	73.45
3825.1	71.68
3827.735	69.84
3830.367	67.95
3832.998	65.92
3835.627	64.21
3838.253	62.48
3840.878	60.49
3843.501	58.62
3846.122	56.73
3848.741	54.89
3851.358	52.99
3853.973	51.18
3856.586	49.46
3859.197	47.73
3861.806	45.92
3864.414	43.92
3867.019	42.19
3869.622	40.54
3872.224	38.67
3874.823	36.97
3877.421	35.1
3880.016	33.13
3882.61	31.3
3885.202	29.65
3887.792	27.81
3890.38	26.11
3892.966	24.3
3895.55	22.7
3898.132	21
3900.713	19.37
3903.291	17.78
3905.868	16.1
3908.442	14.45
3911.015	12.68
3913.586	11.16
3916.155	9.59
3918.722	8.43
3921.287	7.18
3923.85	5.81
3926.411	4.59
3928.971	3.54
3931.528	2.81
3934.084	2.02
3936.638	1.19
3939.19	0.34
3941.74	-0.27
3944.288	-0.93
3946.834	-1.6
3949.378	-2.24
3951.921	-2.84
3954.462	-3.39
3957	-3.84
3959.537	-4.19
3962.072	-4.55
3964.606	-4.84
3967.137	-5.28
3969.667	-5.65
3972.194	-6.08
3974.72	-6.27
3977.244	-6.65
3979.766	-6.73
3982.286	-6.87
3984.805	-7.16
3987.321	-7.28
3989.836	-7.46
3992.349	-7.51
3994.86	-7.43
3997.369	-7.66
3999.877	-7.84
4002.382	-7.98
4004.886	-8.06
4007.388	-8.3
4009.888	-8.63
4012.386	-8.87
4014.883	-8.95
4017.377	-9.16
4019.87	-9.2
4022.361	-9.22
4024.85	-9.43
4027.338	-9.65
4029.823	-9.74
4032.307	-10
4034.789	-10.22
4037.269	-10.46
4039.747	-10.74
4042.224	-11.08
4044.699	-11.54
4047.172	-12.08
4049.643	-12.3
4052.112	-12.62
4054.58	-12.97
4057.046	-13.33
4059.51	-13.63
4061.972	-13.82
4064.432	-14
4066.891	-14.39
4069.348	-14.74
4071.803	-15.65
4074.256	-16.46
4076.708	-17.14
4079.158	-17.98
4081.606	-18.12
4084.052	-18.14
4086.497	-18.12
4088.939	-17.98
4091.38	-17.78
4093.819	-17.35
4096.257	-17.28
4098.693	-17.27
4101.127	-17.41
4103.559	-17.49
4105.989	-17.6
4108.418	-17.68
4110.845	-18.17
4113.27	-18.76
4115.694	-19.35
4118.115	-19.86
4120.535	-19.91
4122.954	-19.42
4125.37	-19
4127.785	-18.48
4130.198	-17.81
4132.609	-17.95
4135.019	-18.22
4137.427	-18.64
4139.833	-19.29
4142.237	-20.16
