Data from 1 mM HCl ref PSIH_RamanShift_4.txt Node
Date: Wed Aug 02 16:21:25 IDT 2017
User: aro
Spectrometer: QEPB0276
Trigger mode: 0
Integration Time (sec): 5.000000E0
Scans to average: 3
Electric dark correction enabled: true
Nonlinearity correction enabled: false
Boxcar width: 10
XAxis mode: Raman Shifts
Number of Pixels in Spectrum: 1044
>>>>>Begin Spectral Data<<<<<
160.701	329.82
166.742	360.74
172.777	388.46
178.805	413.79
184.826	435.84
190.841	455.75
196.849	473.18
202.85	488.63
208.845	502.67
214.833	515.43
220.815	527.3
226.789	563.78
232.758	600.57
238.719	637.59
244.674	673.33
250.623	705.11
256.565	728.3
262.5	742.11
268.429	748.84
274.351	752.9
280.267	755.36
286.176	757.78
292.079	758.46
297.975	758.35
303.865	756.35
309.748	754.05
315.625	751.08
321.495	748.36
327.359	745.6
333.217	741.95
339.068	737.62
344.912	732.68
350.751	727.55
356.583	722.84
362.408	718.22
368.227	712.73
374.04	705
379.847	696.39
385.647	687.52
391.44	678.28
397.228	668.51
403.009	658.54
408.784	647.33
414.553	635.93
420.315	623.35
426.071	610.71
431.821	596.49
437.565	580.68
443.302	562.9
449.033	543.47
454.758	525.3
460.477	511.89
466.189	506.17
471.896	506.74
477.596	509.06
483.29	510.22
488.978	511.19
494.66	512.49
500.335	514.79
506.005	517.47
511.668	520.44
517.325	523.84
522.977	527.63
528.622	531.87
534.261	536.36
539.894	541.41
545.521	546.32
551.141	552.32
556.756	559.59
562.365	568.46
567.968	579.51
573.565	590.35
579.155	596.9
584.74	596.27
590.319	590.11
595.892	581.39
601.459	572.73
607.02	563.97
612.575	556.47
618.124	549.63
623.667	543.09
629.204	536.89
634.735	531.3
640.261	525.81
645.781	520.62
651.294	516.28
656.802	512.28
662.304	508.82
667.8	506.08
673.29	503.55
678.775	501.16
684.254	498.41
689.726	495
695.193	491.98
700.655	488.71
706.11	484.35
711.56	479.84
717.004	475.84
722.442	472.06
727.874	469.05
733.301	465.7
738.722	462.95
744.137	460.54
749.547	457.47
754.951	455.11
760.349	452.66
765.741	450.14
771.128	447.76
776.509	445.54
781.885	443.36
787.254	441.44
792.618	439.36
797.977	437.25
803.33	435.52
808.677	433.41
814.019	431.25
819.355	429.46
824.686	427.68
830.011	425.6
835.33	423.66
840.644	421.24
845.952	419.08
851.255	416.49
856.552	413.62
861.844	411.51
867.13	409.38
872.41	407.95
877.686	407.05
882.955	407.01
888.219	407.93
893.478	409.52
898.731	410.78
903.979	412
909.221	412.55
914.458	413.17
919.69	413.03
924.916	412.54
930.136	411.89
935.351	410.97
940.561	409.57
945.766	408.09
950.965	406.46
956.158	404.66
961.347	403.08
966.529	401.66
971.707	400.3
976.879	398.71
982.046	396.68
987.208	394.01
992.364	390.24
997.515	385.41
1002.66	379.95
1007.801	374.39
1012.936	369.2
1018.066	364.35
1023.19	359.22
1028.309	355.19
1033.423	351.59
1038.532	348.25
1043.636	345.51
1048.734	343.14
1053.827	341.38
1058.915	339.66
1063.998	337.73
1069.075	335.57
1074.147	333.24
1079.214	330.74
1084.276	328.09
1089.333	325.62
1094.385	323.36
1099.431	321.17
1104.472	319.22
1109.509	317.36
1114.54	315.89
1119.565	314.59
1124.586	313.6
1129.602	312.39
1134.613	310.87
1139.618	309.13
1144.619	307.54
1149.614	305.52
1154.604	303.6
1159.589	301.55
1164.57	299.92
1169.545	298.57
1174.515	297.59
1179.48	296.95
1184.44	296.33
1189.395	295.97
1194.345	295.7
1199.29	295.17
1204.23	294.54
1209.165	293.81
1214.095	292.63
1219.021	291.51
1223.941	290.24
1228.856	288.54
1233.766	287.19
1238.672	285.78
1243.572	284.73
1248.467	283.79
1253.358	282.9
1258.244	282.13
1263.124	281.32
1268	280.38
1272.871	279.36
1277.737	278.11
1282.599	276.66
1287.455	274.76
1292.306	272.7
1297.153	270.33
1301.995	267.86
1306.832	265.82
1311.664	264.25
1316.491	263.19
1321.314	262.54
1326.132	261.79
1330.945	261.84
1335.753	261.66
1340.556	261.52
1345.354	260.98
1350.148	260.08
1354.937	259
1359.722	257.68
1364.501	256.2
1369.276	254.55
1374.046	253.16
1378.811	251.92
1383.572	250.65
1388.327	250
1393.079	249.7
1397.825	249.65
1402.567	249.97
1407.304	250.01
1412.036	249.78
1416.764	249.47
1421.487	248.57
1426.205	247.49
1430.919	245.81
1435.628	244.6
1440.333	243.35
1445.032	242.3
1449.727	241.57
1454.418	241.41
1459.104	241.7
1463.785	242.16
1468.462	242.97
1473.134	243.81
1477.802	244.66
1482.465	245.63
1487.123	246.28
1491.777	246.74
1496.426	247.16
1501.071	247.43
1505.711	247.73
1510.347	248.05
1514.978	248.2
1519.604	248.49
1524.226	248.97
1528.844	249.44
1533.457	249.86
1538.065	250.17
1542.669	250.63
1547.269	250.84
1551.864	250.9
1556.454	250.59
1561.041	250.17
1565.622	249.09
1570.199	248
1574.772	246.62
1579.34	245.3
1583.904	244.06
1588.464	243.06
1593.019	242.11
1597.569	241.54
1602.115	241.19
1606.657	240.74
1611.195	240.6
1615.728	240.84
1620.256	241.05
1624.78	241.27
1629.3	241.36
1633.816	241.6
1638.327	241.74
1642.834	241.71
1647.336	241.59
1651.834	241.59
1656.328	241.84
1660.817	242.93
1665.302	244.01
1669.783	245.46
1674.259	246.81
1678.732	247.98
1683.199	249.06
1687.663	249.9
1692.122	250.51
1696.577	250.93
1701.028	251.41
1705.474	251.52
1709.917	251.17
1714.355	250.63
1718.788	250.27
1723.218	249.68
1727.643	249.27
1732.064	248.93
1736.481	249.08
1740.893	249.52
1745.301	250.22
1749.705	250.93
1754.105	251.65
1758.501	252.47
1762.893	253.14
1767.28	253.95
1771.663	254.9
1776.042	255.82
1780.417	256.66
1784.787	257.44
1789.154	258.06
1793.516	258.66
1797.874	259.39
1802.228	260.44
1806.578	261.68
1810.924	262.78
1815.266	264.24
1819.603	265.78
1823.937	267.41
1828.266	268.84
1832.591	270.14
1836.913	271.46
1841.23	272.51
1845.543	273.19
1849.852	273.54
1854.156	274.17
1858.457	274.89
1862.754	275.92
1867.047	276.9
1871.335	278.33
1875.62	279.9
1879.9	281.92
1884.177	284.22
1888.449	286.93
1892.718	289.41
1896.982	292.14
1901.243	295.35
1905.499	298.44
1909.752	301.39
1914	304.2
1918.245	307.08
1922.485	309.71
1926.722	311.97
1930.954	314.17
1935.183	316.38
1939.408	318.82
1943.628	320.87
1947.845	322.78
1952.058	324.55
1956.267	326.39
1960.472	328.13
1964.673	330.11
1968.87	331.63
1973.063	333.16
1977.252	334.38
1981.438	335.71
1985.619	336.86
1989.797	337.62
1993.971	338.43
1998.14	339.24
2002.306	339.65
2006.469	340.41
2010.627	341.41
2014.781	342.7
2018.932	344.14
2023.078	345.79
2027.221	347.7
2031.36	350.01
2035.495	352.41
2039.627	355.25
2043.754	357.95
2047.878	360.92
2051.998	363.47
2056.114	366.33
2060.226	369.17
2064.334	371.87
2068.439	374.6
2072.54	377.6
2076.637	380.62
2080.73	383.76
2084.82	387.05
2088.906	390.84
2092.988	394.2
2097.066	397.39
2101.14	401.01
2105.211	404.51
2109.278	407.89
2113.342	410.87
2117.401	413.62
2121.457	416.55
2125.509	418.76
2129.558	421.13
2133.602	423.17
2137.643	425.39
2141.681	427.17
2145.714	428.98
2149.744	430.92
2153.77	432.35
2157.793	431.25
2161.812	433.09
2165.827	435.27
2169.838	437.3
2173.846	439.66
2177.851	442.24
2181.851	445.24
2185.848	447.74
2189.841	450.66
2193.831	453.43
2197.817	456.59
2201.799	459.71
2205.778	462.81
2209.753	465.71
2213.725	468.78
2217.693	472.08
2221.657	475.3
2225.618	478.95
2229.575	482.79
2233.529	486.62
2237.479	490.74
2241.425	497.36
2245.368	501.13
2249.307	504.65
2253.243	507.7
2257.175	510.78
2261.104	513.92
2265.029	516.57
2268.95	519.09
2272.868	521.3
2276.783	523.32
2280.694	525.01
2284.601	526.66
2288.505	528.38
2292.405	530.54
2296.302	532.59
2300.195	534.33
2304.085	536.27
2307.971	538.09
2311.854	540.03
2315.734	542.11
2319.609	544.84
2323.482	547.63
2327.351	550.44
2331.216	553.27
2335.078	556.98
2338.937	560.43
2342.792	563.76
2346.643	567.32
2350.492	570.82
2354.336	574.74
2358.178	578.79
2362.015	582.89
2365.85	587.38
2369.681	591.82
2373.508	595.76
2377.333	600.43
2381.153	605.62
2384.971	610.73
2388.785	616.16
2392.595	621.44
2396.402	626.71
2400.206	631.73
2404.007	636.33
2407.804	641.09
2411.597	645.66
2415.388	650.13
2419.174	654.33
2422.958	658.39
2426.738	662.54
2430.515	666.98
2434.289	671.32
2438.059	675.86
2441.825	680.74
2445.589	685.3
2449.349	690.24
2453.106	696.24
2456.859	701.49
2460.61	706.65
2464.356	712.08
2468.1	717.55
2471.84	723.38
2475.577	729.3
2479.311	735.03
2483.041	741.43
2486.768	747.86
2490.492	753.82
2494.213	760.06
2497.93	766.47
2501.644	773.33
2505.355	780.24
2509.062	787.12
2512.766	794.16
2516.467	801.33
2520.165	808.68
2523.859	815.87
2527.551	822.62
2531.239	829.49
2534.923	836.19
2538.605	842.81
2542.283	849.25
2545.958	855.3
2549.63	861.33
2553.299	867.2
2556.964	873.06
2560.626	878.47
2564.285	883.59
2567.941	889.27
2571.594	895.19
2575.243	901.14
2578.89	906.59
2582.533	912.63
2586.173	918.3
2589.809	923.57
2593.443	928.66
2597.073	933.38
2600.701	938.19
2604.325	943.09
2607.946	947.39
2611.564	951.25
2615.178	955.03
2618.79	958.35
2622.398	961.41
2626.004	964.11
2629.606	966.63
2633.205	969.2
2636.801	971.95
2640.394	974.63
2643.983	977.32
2647.57	979.06
2651.153	980.49
2654.734	981.79
2658.311	982.24
2661.885	982.87
2665.456	982.89
2669.025	982.6
2672.589	981.93
2676.151	981.59
2679.71	981.09
2683.266	980.54
2686.819	980.54
2690.368	980.93
2693.915	981.76
2697.458	983.28
2700.999	985.2
2704.536	987.89
2708.071	991.17
2711.602	994.71
2715.13	999.05
2718.656	1003.86
2722.178	1009.16
2725.697	1015.41
2729.214	1022.06
2732.727	1028.71
2736.237	1035.38
2739.744	1042.95
2743.249	1050.54
2746.75	1058.54
2750.248	1066.24
2753.743	1073.63
2757.236	1081.27
2760.725	1089
2764.211	1096.24
2767.695	1103.22
2771.175	1109.54
2774.652	1116.05
2778.127	1121.6
2781.598	1125.93
2785.067	1130.2
2788.532	1133.41
2791.995	1136.57
2795.455	1139.25
2798.911	1141.44
2802.365	1143.01
2805.816	1145.06
2809.264	1146.84
2812.709	1148.82
2816.151	1150.92
2819.59	1152.97
2823.026	1155.54
2826.46	1158.51
2829.89	1161.47
2833.318	1164.71
2836.742	1167.84
2840.164	1170.57
2843.583	1174.05
2846.999	1176.38
2850.412	1178.57
2853.822	1181.08
2857.229	1182.92
2860.634	1184.82
2864.035	1185.98
2867.434	1186.71
2870.83	1187.09
2874.223	1187.9
2877.613	1188.11
2881	1188.28
2884.385	1188.16
2887.766	1187.73
2891.145	1187.33
2894.521	1186.17
2897.894	1184.95
2901.264	1183.12
2904.631	1181.05
2907.996	1178.84
2911.358	1176.97
2914.717	1174.14
2918.073	1171.79
2921.426	1169.84
2924.777	1167.66
2928.124	1165.46
2931.469	1163.63
2934.811	1161.97
2938.15	1160.86
2941.487	1160.16
2944.821	1159.33
2948.152	1158.93
2951.48	1159.14
2954.805	1159.36
2958.128	1160.41
2961.447	1161.76
2964.765	1163.7
2968.079	1165.3
2971.39	1167.24
2974.699	1169.06
2978.005	1171.24
2981.308	1173.14
2984.609	1174.95
2987.907	1176.39
2991.202	1176.7
2994.494	1177.24
2997.784	1177.54
3001.07	1177.3
3004.355	1176.46
3007.636	1175.33
3010.915	1173.2
3014.191	1170.9
3017.464	1168.2
3020.734	1165.44
3024.002	1161.9
3027.267	1158.22
3030.53	1153.93
3033.789	1150.13
3037.046	1146.14
3040.301	1141.79
3043.552	1137.63
3046.801	1133.13
3050.048	1128.71
3053.291	1124.46
3056.532	1120.38
3059.771	1117.32
3063.006	1114.39
3066.239	1111.46
3069.469	1109.13
3072.697	1106.92
3075.922	1104.78
3079.144	1103.06
3082.364	1101.66
3085.581	1099.87
3088.795	1097.54
3092.007	1096.09
3095.216	1094.14
3098.423	1092.46
3101.627	1089.7
3104.828	1087.32
3108.026	1085.28
3111.222	1082.54
3114.416	1080.01
3117.607	1077.66
3120.795	1074.82
3123.98	1071.49
3127.163	1068.01
3130.344	1064.16
3133.521	1060.28
3136.696	1055.65
3139.869	1050.98
3143.039	1046.13
3146.206	1041.14
3149.371	1035.79
3152.533	1030.35
3155.693	1024.7
3158.85	1018.74
3162.005	1012.51
3165.157	1005.73
3168.306	999.24
3171.453	992.28
3174.597	985.62
3177.739	978.81
3180.878	971.68
3184.014	964.55
3187.149	957.7
3190.28	951.39
3193.409	944.51
3196.536	937.79
3199.659	931.08
3202.781	924.68
3205.9	918.49
3209.016	912.39
3212.13	906.01
3215.241	900.06
3218.35	894.16
3221.456	889
3224.56	883.38
3227.661	878.12
3230.76	873.52
3233.856	868.71
3236.95	864.14
3240.041	858.82
3243.13	854.44
3246.216	850.14
3249.3	845.74
3252.382	841.76
3255.46	837.68
3258.537	833.92
3261.611	829.76
3264.682	825.57
3267.751	821.51
3270.818	817.16
3273.882	812.79
3276.943	808.52
3280.002	803.86
3283.059	799.41
3286.113	794.01
3289.165	789
3292.214	783.55
3295.261	777.78
3298.306	771.84
3301.348	766.22
3304.387	760.49
3307.425	754.46
3310.459	748.6
3313.492	742.57
3316.521	736.54
3319.549	730.46
3322.574	724.74
3325.597	719.81
3328.617	714.97
3331.635	709.82
3334.65	705.08
3337.663	699.84
3340.674	695.41
3343.682	690.38
3346.688	685.43
3349.691	680.68
3352.692	675.65
3355.691	670.87
3358.687	666.36
3361.681	661.3
3364.673	656.33
3367.662	651.28
3370.649	646.19
3373.633	640.97
3376.615	635.73
3379.595	630.79
3382.572	625.66
3385.547	620.54
3388.52	615.41
3391.49	610.24
3394.458	605.27
3397.424	600.22
3400.387	595.87
3403.348	591.09
3406.307	586.87
3409.263	582.59
3412.217	577.93
3415.168	573.6
3418.118	569.3
3421.065	564.35
3424.009	559.73
3426.951	555
3429.891	550.49
3432.829	545.22
3435.764	539.92
3438.697	534.79
3441.628	529.09
3444.557	523.49
3447.483	517.79
3450.407	511.71
3453.328	506.01
3456.247	500.41
3459.164	494.41
3462.079	488.62
3464.991	482.73
3467.902	477.06
3470.809	471.79
3473.715	466.81
3476.618	461.54
3479.519	456.09
3482.418	451.11
3485.315	446.33
3488.209	441.25
3491.101	435.95
3493.99	431.16
3496.878	426.36
3499.763	420.89
3502.646	415.79
3505.527	410.47
3508.405	405.08
3511.281	399.36
3514.155	393.35
3517.027	387.44
3519.897	381.6
3522.764	375.51
3525.629	369.32
3528.492	363.11
3531.352	356.65
3534.211	350.54
3537.067	344.51
3539.921	338.78
3542.773	332.81
3545.622	327.01
3548.469	321.11
3551.315	315.7
3554.157	310.24
3556.998	304.7
3559.837	299.59
3562.673	294.39
3565.507	289.46
3568.339	284.55
3571.169	279.97
3573.996	275.7
3576.822	271.2
3579.645	266.92
3582.466	262.59
3585.285	258.35
3588.101	254.06
3590.916	249.84
3593.728	245.6
3596.538	241.44
3599.346	237.28
3602.152	233.49
3604.956	229.57
3607.757	226.03
3610.556	222.55
3613.354	219.13
3616.149	215.98
3618.942	213.2
3621.732	210.41
3624.521	207.39
3627.307	204.71
3630.092	202.16
3632.874	199.3
3635.654	196.66
3638.432	194.28
3641.208	191.81
3643.982	189.55
3646.753	187.35
3649.523	184.98
3652.29	182.82
3655.055	180.65
3657.818	178.62
3660.579	176.14
3663.338	174.25
3666.095	172.09
3668.849	170
3671.602	168.17
3674.352	166.36
3677.101	164.57
3679.847	163.03
3682.591	161.63
3685.333	160.16
3688.073	158.6
3690.811	157.47
3693.547	156.33
3696.281	155.13
3699.013	154.05
3701.742	152.84
3704.47	151.6
3707.195	150.54
3709.919	149.36
3712.64	148.09
3715.359	147.01
3718.076	146.08
3720.792	144.79
3723.505	143.55
3726.216	142.35
3728.925	141.13
3731.632	139.79
3734.336	138.51
3737.039	137.03
3739.74	135.59
3742.439	134.13
3745.136	132.92
3747.83	131.35
3750.523	129.86
3753.213	128.19
3755.902	126.63
3758.589	124.95
3761.273	123.59
3763.956	122.11
3766.636	120.63
3769.315	119.14
3771.991	117.62
3774.665	116.05
3777.338	114.27
3780.008	112.59
3782.677	111
3785.343	109.22
3788.007	107.41
3790.67	105.63
3793.33	103.87
3795.989	102.28
3798.645	100.51
3801.299	98.55
3803.952	96.73
3806.602	94.97
3809.251	93.24
3811.897	91.52
3814.542	89.82
3817.184	87.97
3819.825	86.19
3822.463	84.25
3825.1	82.39
3827.735	80.27
3830.367	78.35
3832.998	76.66
3835.627	74.9
3838.253	73.01
3840.878	71.17
3843.501	69.27
3846.122	67.36
3848.741	65.54
3851.358	63.63
3853.973	61.97
3856.586	60.43
3859.197	58.84
3861.806	57
3864.414	55.09
3867.019	53.11
3869.622	51.38
3872.224	49.55
3874.823	47.49
3877.421	45.7
3880.016	43.93
3882.61	42.44
3885.202	40.7
3887.792	38.78
3890.38	36.97
3892.966	35.09
3895.55	33.46
3898.132	31.89
3900.713	30.13
3903.291	28.51
3905.868	26.74
3908.442	25.09
3911.015	23.3
3913.586	21.66
3916.155	20.25
3918.722	19
3921.287	17.84
3923.85	16.47
3926.411	15.28
3928.971	14.43
3931.528	13.55
3934.084	12.76
3936.638	11.82
3939.19	11.11
3941.74	10.36
3944.288	9.79
3946.834	9.2
3949.378	8.62
3951.921	8
3954.462	7.54
3957	6.98
3959.537	6.73
3962.072	6.32
3964.606	5.89
3967.137	5.51
3969.667	5.09
3972.194	4.74
3974.72	4.52
3977.244	4.39
3979.766	4.17
3982.286	3.97
3984.805	3.65
3987.321	3.32
3989.836	3.03
3992.349	2.84
3994.86	2.82
3997.369	2.57
3999.877	2.39
4002.382	2.06
4004.886	1.82
4007.388	1.6
4009.888	1.25
4012.386	0.97
4014.883	0.66
4017.377	0.46
4019.87	0.3
4022.361	0.11
4024.85	-0.18
4027.338	-0.54
4029.823	-0.75
4032.307	-1.1
4034.789	-1.49
4037.269	-1.64
4039.747	-1.83
4042.224	-2.11
4044.699	-2.51
4047.172	-2.91
4049.643	-3.18
4052.112	-3.54
4054.58	-3.8
4057.046	-4.1
4059.51	-4.37
4061.972	-4.61
4064.432	-4.92
4066.891	-5.26
4069.348	-5.54
4071.803	-6.3
4074.256	-6.97
4076.708	-7.46
4079.158	-8.08
4081.606	-8.3
4084.052	-8.34
4086.497	-8.38
4088.939	-8.54
4091.38	-8.64
4093.819	-8.53
4096.257	-8.62
4098.693	-8.65
4101.127	-8.83
4103.559	-8.87
4105.989	-9.05
4108.418	-9.18
4110.845	-9.68
4113.27	-10.03
4115.694	-10.38
4118.115	-10.72
4120.535	-10.84
4122.954	-10.54
4125.37	-10.25
4127.785	-9.95
4130.198	-9.5
4132.609	-9.67
4135.019	-9.87
4137.427	-10.11
4139.833	-10.46
4142.237	-10.87
