Data from 1 mM 500C normalized to original_RamanShift_1.txt Node
Date: Wed Aug 02 16:37:14 IDT 2017
User: aro
Spectrometer: QEPB0276
Trigger mode: 0
Integration Time (sec): 5.000000E0
Scans to average: 3
Electric dark correction enabled: true
Nonlinearity correction enabled: false
Boxcar width: 10
XAxis mode: Raman Shifts
Number of Pixels in Spectrum: 1044
>>>>>Begin Spectral Data<<<<<
160.701	580.68
166.742	635.42
172.777	683.73
178.805	727.86
184.826	766.68
190.841	800.48
196.849	831.09
202.85	857.31
208.845	881.36
214.833	903.43
220.815	923.55
226.789	987.06
232.758	1051.09
238.719	1114.53
244.674	1176.26
250.623	1230.67
256.565	1272.02
262.5	1296.48
268.429	1309.93
274.351	1318.5
280.267	1326.31
286.176	1332.96
292.079	1338.4
297.975	1342.15
303.865	1343.56
309.748	1344.28
315.625	1345.53
321.495	1346.28
327.359	1347.9
333.217	1349.33
339.068	1350.04
344.912	1350.77
350.751	1352.15
356.583	1353.8
362.408	1356.34
368.227	1357.61
374.04	1357.64
379.847	1357.67
385.647	1357.69
391.44	1357.72
397.228	1357.83
403.009	1358.2
408.784	1358.29
414.553	1358.28
420.315	1358.64
426.071	1359.25
431.821	1359.09
437.565	1357.47
443.302	1354.29
449.033	1349.91
454.758	1346.61
460.477	1347.66
466.189	1354.85
471.896	1365.99
477.596	1376.56
483.29	1385.1
488.978	1392.47
494.66	1399.48
500.335	1406.1
506.005	1412.85
511.668	1418.58
517.325	1424.58
522.977	1430.26
528.622	1436.13
534.261	1441.56
539.894	1446.44
545.521	1451.02
551.141	1456.28
556.756	1461.28
562.365	1467.66
567.968	1476.26
573.565	1484.29
579.155	1488.18
584.74	1485.74
590.319	1479.01
595.892	1472.09
601.459	1466.1
607.02	1460.5
612.575	1456.28
618.124	1452.48
623.667	1449.02
629.204	1446.53
634.735	1443.96
640.261	1441.88
645.781	1439.33
651.294	1436.69
656.802	1434.45
662.304	1432.55
667.8	1430.77
673.29	1429.98
678.775	1428.91
684.254	1426.63
689.726	1423.77
695.193	1421.4
700.655	1418.64
706.11	1415.69
711.56	1412.52
717.004	1408.69
722.442	1406.39
727.874	1403.53
733.301	1400.72
738.722	1398.06
744.137	1395.07
749.547	1391.82
754.951	1388.79
760.349	1386.07
765.741	1383.8
771.128	1381.44
776.509	1379.6
781.885	1377.58
787.254	1376.25
792.618	1375.82
797.977	1375.15
803.33	1374.96
808.677	1374.34
814.019	1374.23
819.355	1373.87
824.686	1373.4
830.011	1373.09
835.33	1372.39
840.644	1371.88
845.952	1371.04
851.255	1370.07
856.552	1369.48
861.844	1369.48
867.13	1369.94
872.41	1370.96
877.686	1373.58
882.955	1377.25
888.219	1381.79
893.478	1387.82
898.731	1393.47
903.979	1398.07
909.221	1402.66
914.458	1405.55
919.69	1408.26
924.916	1410.37
930.136	1411.87
935.351	1413.42
940.561	1415.28
945.766	1417.39
950.965	1420.69
956.158	1424.39
961.347	1429.4
966.529	1435.12
971.707	1440.6
976.879	1446.1
982.046	1451.52
987.208	1455.77
992.364	1458.34
997.515	1459.64
1002.66	1459.67
1007.801	1459.26
1012.936	1459.39
1018.066	1459.98
1023.19	1461.71
1028.309	1464.72
1033.423	1468.91
1038.532	1474.52
1043.636	1480.91
1048.734	1487.85
1053.827	1494.53
1058.915	1500.69
1063.998	1506.44
1069.075	1510.93
1074.147	1513.87
1079.214	1516.53
1084.276	1518.44
1089.333	1520.39
1094.385	1521.93
1099.431	1525.34
1104.472	1529.21
1109.509	1533.44
1114.54	1539.25
1119.565	1545.01
1124.586	1551.74
1129.602	1557.87
1134.613	1563.25
1139.618	1566.96
1144.619	1569.71
1149.614	1571.31
1154.604	1572.77
1159.589	1574.61
1164.57	1577.53
1169.545	1580.82
1174.515	1585.9
1179.48	1592.07
1184.44	1598.66
1189.395	1605.09
1194.345	1611.72
1199.29	1618.31
1204.23	1623.44
1209.165	1627.42
1214.095	1630.01
1219.021	1630.31
1223.941	1630.21
1228.856	1628.67
1233.766	1627.85
1238.672	1627.1
1243.572	1627.74
1248.467	1628.98
1253.358	1631.47
1258.244	1633.55
1263.124	1635.85
1268	1636.56
1272.871	1636.9
1277.737	1634.99
1282.599	1631.4
1287.455	1626.2
1292.306	1619.36
1297.153	1610.69
1301.995	1601.39
1306.832	1592.64
1311.664	1585.8
1316.491	1581.63
1321.314	1581.09
1326.132	1583.2
1330.945	1586.44
1335.753	1589.67
1340.556	1591.45
1345.354	1591.91
1350.148	1590.36
1354.937	1586.33
1359.722	1580.99
1364.501	1573.75
1369.276	1566.71
1374.046	1559.66
1378.811	1553.47
1383.572	1549.17
1388.327	1547.23
1393.079	1547.2
1397.825	1548.99
1402.567	1551.52
1407.304	1554.61
1412.036	1555.96
1416.764	1555.28
1421.487	1551.23
1426.205	1544.61
1430.919	1536.82
1435.628	1528.79
1440.333	1521.79
1445.032	1516.85
1449.727	1514.15
1454.418	1514.5
1459.104	1516.83
1463.785	1521.71
1468.462	1527.61
1473.134	1534.5
1477.802	1542.45
1482.465	1549.23
1487.123	1555.23
1491.777	1560.56
1496.426	1564.61
1501.071	1568.74
1505.711	1571.53
1510.347	1574.77
1514.978	1578.31
1519.604	1582.33
1524.226	1586.34
1528.844	1591.8
1533.457	1597.09
1538.065	1602.82
1542.669	1607.23
1547.269	1610.33
1551.864	1611.98
1556.454	1611.82
1561.041	1609.34
1565.622	1605.29
1570.199	1599.99
1574.772	1593.18
1579.34	1586.96
1583.904	1580.83
1588.464	1575.87
1593.019	1572.18
1597.569	1568.99
1602.115	1568.09
1606.657	1567.67
1611.195	1568.55
1615.728	1570.64
1620.256	1573.75
1624.78	1575.55
1629.3	1577.26
1633.816	1578.56
1638.327	1578.47
1642.834	1577.48
1647.336	1575.61
1651.834	1575.87
1656.328	1578.6
1660.817	1584.69
1665.302	1593.1
1669.783	1602.31
1674.259	1610.56
1678.732	1618.48
1683.199	1625.2
1687.663	1630.79
1692.122	1635.69
1696.577	1638.15
1701.028	1639.64
1705.474	1639.45
1709.917	1637.98
1714.355	1634.52
1718.788	1630.88
1723.218	1627.31
1727.643	1623.36
1732.064	1621.34
1736.481	1621.85
1740.893	1624.4
1745.301	1628.52
1749.705	1632.23
1754.105	1635.21
1758.501	1637.6
1762.893	1640.55
1767.28	1644.67
1771.663	1648.26
1776.042	1651.82
1780.417	1654.45
1784.787	1657.15
1789.154	1659.67
1793.516	1662.64
1797.874	1665.44
1802.228	1669.07
1806.578	1673.44
1810.924	1679.07
1815.266	1685.1
1819.603	1691.71
1823.937	1698.28
1828.266	1704.34
1832.591	1709.23
1836.913	1712.52
1841.23	1714.67
1845.543	1714.99
1849.852	1713.17
1854.156	1710.34
1858.457	1707.61
1862.754	1705.77
1867.047	1704.66
1871.335	1705.72
1875.62	1707.55
1879.9	1711.29
1884.177	1716.21
1888.449	1722.98
1892.718	1730.28
1896.982	1738.79
1901.243	1746.71
1905.499	1754.02
1909.752	1760.94
1914	1767.87
1918.245	1773.26
1922.485	1777.15
1926.722	1779.5
1930.954	1780.74
1935.183	1781.39
1939.408	1782.39
1943.628	1782.91
1947.845	1782.45
1952.058	1782.2
1956.267	1781.71
1960.472	1780.61
1964.673	1778.82
1968.87	1775.9
1973.063	1772.01
1977.252	1766.48
1981.438	1760.02
1985.619	1752.2
1989.797	1743.39
1993.971	1734.28
1998.14	1725.07
2002.306	1715.34
2006.469	1705.77
2010.627	1697.5
2014.781	1690.61
2018.932	1685.04
2023.078	1680.5
2027.221	1676.5
2031.36	1674.15
2035.495	1672.91
2039.627	1671.72
2043.754	1670.91
2047.878	1670.17
2051.998	1669.93
2056.114	1669.6
2060.226	1669.61
2064.334	1669.77
2068.439	1670.23
2072.54	1670.82
2076.637	1672.4
2080.73	1674.74
2084.82	1677.55
2088.906	1680.6
2092.988	1684.48
2097.066	1688.61
2101.14	1692.15
2105.211	1694.91
2109.278	1697.26
2113.342	1699.33
2117.401	1700.61
2121.457	1700.79
2125.509	1699.71
2129.558	1698.28
2133.602	1696.29
2137.643	1693.12
2141.681	1689.67
2145.714	1686.25
2149.744	1682.91
2153.77	1679.13
2157.793	1676.18
2161.812	1673.85
2165.827	1671.26
2169.838	1669.07
2173.846	1667.15
2177.851	1665.66
2181.851	1664.94
2185.848	1664.44
2189.841	1664.52
2193.831	1664.47
2197.817	1664.93
2201.799	1665.31
2205.778	1666.23
2209.753	1668.23
2213.725	1669.69
2217.693	1671.6
2221.657	1674.2
2225.618	1677.85
2229.575	1680.74
2233.529	1683.91
2237.479	1687.75
2241.425	1691.44
2245.368	1693.96
2249.307	1696.45
2253.243	1698.34
2257.175	1700.25
2261.104	1701.26
2265.029	1701.39
2268.95	1700.12
2272.868	1698.79
2276.783	1697.21
2280.694	1694.85
2284.601	1691.52
2288.505	1687.96
2292.405	1684.82
2296.302	1682.33
2300.195	1679.58
2304.085	1676.9
2307.971	1674.75
2311.854	1673.21
2315.734	1672.04
2319.609	1671.64
2323.482	1671.01
2327.351	1671.37
2331.216	1672.71
2335.078	1674.47
2338.937	1676.25
2342.792	1678.48
2346.643	1681.75
2350.492	1685.52
2354.336	1688.6
2358.178	1692.44
2362.015	1696.71
2365.85	1701.96
2369.681	1707.52
2373.508	1712.45
2377.333	1718.28
2381.153	1724.25
2384.971	1730.47
2388.785	1735.83
2392.595	1740.9
2396.402	1746.23
2400.206	1749.96
2404.007	1754.23
2407.804	1758.12
2411.597	1761.09
2415.388	1763.12
2419.174	1764.25
2422.958	1765.63
2426.738	1765.67
2430.515	1766.21
2434.289	1767.1
2438.059	1767.9
2441.825	1769.25
2445.589	1770.42
2449.349	1772.44
2453.106	1774.69
2456.859	1776.44
2460.61	1778.69
2464.356	1781.31
2468.1	1783.93
2471.84	1787.42
2475.577	1790.29
2479.311	1793.67
2483.041	1796.66
2486.768	1800.18
2490.492	1803.55
2494.213	1807.52
2497.93	1811.71
2501.644	1815.99
2505.355	1820.55
2509.062	1825.42
2512.766	1830.48
2516.467	1835.44
2520.165	1839.71
2523.859	1844.07
2527.551	1847.63
2531.239	1851.1
2534.923	1854.23
2538.605	1856.39
2542.283	1857.39
2545.958	1858.64
2549.63	1858.8
2553.299	1859.26
2556.964	1859.09
2560.626	1858.93
2564.285	1856.96
2567.941	1856.13
2571.594	1855.48
2575.243	1854.93
2578.89	1853.98
2582.533	1852.72
2586.173	1851.31
2589.809	1849.09
2593.443	1846.58
2597.073	1843.79
2600.701	1840.26
2604.325	1836.01
2607.946	1831.45
2611.564	1825.75
2615.178	1820.69
2618.79	1815.45
2622.398	1809.5
2626.004	1803.1
2629.606	1796.45
2633.205	1789.58
2636.801	1782.39
2640.394	1775.85
2643.983	1768.31
2647.57	1760.02
2651.153	1751.42
2654.734	1742.37
2658.311	1732.94
2661.885	1722.61
2665.456	1712.69
2669.025	1702.45
2672.589	1692.26
2676.151	1681.9
2679.71	1672.02
2683.266	1662.09
2686.819	1653.07
2690.368	1644.06
2693.915	1635.66
2697.458	1628.63
2700.999	1622.83
2704.536	1618.06
2708.071	1614.72
2711.602	1612.85
2715.13	1611.94
2718.656	1611.58
2722.178	1612.63
2725.697	1614.55
2729.214	1616.93
2732.727	1620.13
2736.237	1623.96
2739.744	1628.47
2743.249	1633.31
2746.75	1638.31
2750.248	1643.71
2753.743	1649.28
2757.236	1654.77
2760.725	1661.04
2764.211	1667.26
2767.695	1673.63
2771.175	1678.37
2774.652	1682.9
2778.127	1686.01
2781.598	1688.34
2785.067	1689.01
2788.532	1689.13
2791.995	1689.02
2795.455	1687.94
2798.911	1686.85
2802.365	1685.23
2805.816	1683.61
2809.264	1682.17
2812.709	1680.85
2816.151	1679.64
2819.59	1678.48
2823.026	1678.13
2826.46	1678.55
2829.89	1679.74
2833.318	1680.31
2836.742	1680.8
2840.164	1681.87
2843.583	1683.13
2846.999	1684.01
2850.412	1685.09
2853.822	1685.67
2857.229	1686.12
2860.634	1686.09
2864.035	1684.87
2867.434	1683.67
2870.83	1682.36
2874.223	1681.06
2877.613	1679.13
2881	1677.5
2884.385	1674.56
2887.766	1671.33
2891.145	1668.75
2894.521	1665.82
2897.894	1661.79
2901.264	1657.31
2904.631	1653.34
2907.996	1648.26
2911.358	1642.63
2914.717	1637.18
2918.073	1631.9
2921.426	1625.9
2924.777	1620.33
2928.124	1614.66
2931.469	1609.79
2934.811	1605.72
2938.15	1601.67
2941.487	1597.48
2944.821	1593.98
2948.152	1591.88
2951.48	1589.36
2954.805	1587.93
2958.128	1587.21
2961.447	1586.66
2964.765	1586.28
2968.079	1586.28
2971.39	1586.56
2974.699	1586.15
2978.005	1585.99
2981.308	1586.17
2984.609	1586.39
2987.907	1585.66
2991.202	1585.15
2994.494	1583.67
2997.784	1582.5
3001.07	1579.75
3004.355	1576.33
3007.636	1572.33
3010.915	1568.06
3014.191	1563.02
3017.464	1556.77
3020.734	1550.58
3024.002	1544.17
3027.267	1537.13
3030.53	1529.45
3033.789	1521.4
3037.046	1513.31
3040.301	1504.98
3043.552	1496.63
3046.801	1488.8
3050.048	1480.02
3053.291	1471.29
3056.532	1463.42
3059.771	1455.72
3063.006	1448.64
3066.239	1441.37
3069.469	1434.87
3072.697	1429.56
3075.922	1423.9
3079.144	1418.25
3082.364	1412.47
3085.581	1406.74
3088.795	1400.91
3092.007	1394.93
3095.216	1389.09
3098.423	1382.99
3101.627	1376.66
3104.828	1369.91
3108.026	1363.09
3111.222	1356.02
3114.416	1349.17
3117.607	1341.98
3120.795	1334.77
3123.98	1326.53
3127.163	1318.47
3130.344	1309.56
3133.521	1300.85
3136.696	1291.82
3139.869	1281.58
3143.039	1271.83
3146.206	1261.53
3149.371	1251.2
3152.533	1240.47
3155.693	1229.72
3158.85	1218.25
3162.005	1206.67
3165.157	1194.5
3168.306	1182.83
3171.453	1170.9
3174.597	1158.72
3177.739	1146.6
3180.878	1134.17
3184.014	1122.17
3187.149	1110.13
3190.28	1098.66
3193.409	1086.48
3196.536	1075.21
3199.659	1063.61
3202.781	1052.63
3205.9	1041.94
3209.016	1031.5
3212.13	1021.21
3215.241	1011.63
3218.35	1002.06
3221.456	993.07
3224.56	984.42
3227.661	975.61
3230.76	967.45
3233.856	959.13
3236.95	951.34
3240.041	943.53
3243.13	936.01
3246.216	928.75
3249.3	921.45
3252.382	914.39
3255.46	907.39
3258.537	901.67
3261.611	895.42
3264.682	889.67
3267.751	883.45
3270.818	877.09
3273.882	870.63
3276.943	864.17
3280.002	857.12
3283.059	850.42
3286.113	843.04
3289.165	835.56
3292.214	828.1
3295.261	820.82
3298.306	813.12
3301.348	805.39
3304.387	797.88
3307.425	790.12
3310.459	782.55
3313.492	775.48
3316.521	768.18
3319.549	761.04
3322.574	753.83
3325.597	747.07
3328.617	740.23
3331.635	733.85
3334.65	728.2
3337.663	721.98
3340.674	716.33
3343.682	711.12
3346.688	705.55
3349.691	699.94
3352.692	694.64
3355.691	689.37
3358.687	683.66
3361.681	678.26
3364.673	672.55
3367.662	666.74
3370.649	661.53
3373.633	655.69
3376.615	649.55
3379.595	643.64
3382.572	637.99
3385.547	632.21
3388.52	626.58
3391.49	621.42
3394.458	616.01
3397.424	610.58
3400.387	605.63
3403.348	600.48
3406.307	595.36
3409.263	590.45
3412.217	585.71
3415.168	580.83
3418.118	575.9
3421.065	571.45
3424.009	566.47
3426.951	561.63
3429.891	556.93
3432.829	551.69
3435.764	546.4
3438.697	541.01
3441.628	535.53
3444.557	529.75
3447.483	524.12
3450.407	518.37
3453.328	512.53
3456.247	506.98
3459.164	501.36
3462.079	495.67
3464.991	490.09
3467.902	484.6
3470.809	479.09
3473.715	473.8
3476.618	468.64
3479.519	463.75
3482.418	458.6
3485.315	453.64
3488.209	448.96
3491.101	444.09
3493.99	438.77
3496.878	434.06
3499.763	429.45
3502.646	424.55
3505.527	419.42
3508.405	413.91
3511.281	408.42
3514.155	402.61
3517.027	396.87
3519.897	390.64
3522.764	384.98
3525.629	379.15
3528.492	373.15
3531.352	367.36
3534.211	361.37
3537.067	355.26
3539.921	348.94
3542.773	342.79
3545.622	336.93
3548.469	331.21
3551.315	325.56
3554.157	320.33
3556.998	314.77
3559.837	309.55
3562.673	304.44
3565.507	299.61
3568.339	294.82
3571.169	290.4
3573.996	285.83
3576.822	281.28
3579.645	276.94
3582.466	272.33
3585.285	267.9
3588.101	263.5
3590.916	259.04
3593.728	254.61
3596.538	250.71
3599.346	247.01
3602.152	243.25
3604.956	239.5
3607.757	235.74
3610.556	232.02
3613.354	228.55
3616.149	225.28
3618.942	221.8
3621.732	218.63
3624.521	215.39
3627.307	212.36
3630.092	209.42
3632.874	206.72
3635.654	203.83
3638.432	201.15
3641.208	198.53
3643.982	195.87
3646.753	193.2
3649.523	190.82
3652.29	188.23
3655.055	185.69
3657.818	183.2
3660.579	180.67
3663.338	178.18
3666.095	175.69
3668.849	173.34
3671.602	171.13
3674.352	169.15
3677.101	167.18
3679.847	165.21
3682.591	163.56
3685.333	161.98
3688.073	159.93
3690.811	157.98
3693.547	156.25
3696.281	154.56
3699.013	152.93
3701.742	151.4
3704.47	149.94
3707.195	148.47
3709.919	147.09
3712.64	145.75
3715.359	143.96
3718.076	142.52
3720.792	141.01
3723.505	139.37
3726.216	137.75
3728.925	136.06
3731.632	134.29
3734.336	132.85
3737.039	131.1
3739.74	129.39
3742.439	127.61
3745.136	126.12
3747.83	124.6
3750.523	122.9
3753.213	121.06
3755.902	119.47
3758.589	117.8
3761.273	115.99
3763.956	114.18
3766.636	112.64
3769.315	110.85
3771.991	109.17
3774.665	107.31
3777.338	105.53
3780.008	103.75
3782.677	101.98
3785.343	100.01
3788.007	98.15
3790.67	96.12
3793.33	94.21
3795.989	92.37
3798.645	90.61
3801.299	88.71
3803.952	86.79
3806.602	85.02
3809.251	83.18
3811.897	81.13
3814.542	79.25
3817.184	77.52
3819.825	75.79
3822.463	73.75
3825.1	71.72
3827.735	70.02
3830.367	68.26
3832.998	66.5
3835.627	64.55
3838.253	62.72
3840.878	61.01
3843.501	59.18
3846.122	57.23
3848.741	55.42
3851.358	53.47
3853.973	51.42
3856.586	49.66
3859.197	47.98
3861.806	46.28
3864.414	44.66
3867.019	42.93
3869.622	40.96
3872.224	39.09
3874.823	36.98
3877.421	35.15
3880.016	33.36
3882.61	31.66
3885.202	29.79
3887.792	27.94
3890.38	26.36
3892.966	24.53
3895.55	22.82
3898.132	21.2
3900.713	19.6
3903.291	17.98
3905.868	16.31
3908.442	14.74
3911.015	13.13
3913.586	11.53
3916.155	9.88
3918.722	8.5
3921.287	7.33
3923.85	6.26
3926.411	5.13
3928.971	4.37
3931.528	3.45
3934.084	2.72
3936.638	1.77
3939.19	1.1
3941.74	0.5
3944.288	-0.09
3946.834	-0.6
3949.378	-1.04
3951.921	-1.66
3954.462	-2.04
3957	-2.56
3959.537	-2.87
3962.072	-3.17
3964.606	-3.52
3967.137	-3.82
3969.667	-4.1
3972.194	-4.44
3974.72	-4.79
3977.244	-4.94
3979.766	-5.12
3982.286	-5.4
3984.805	-5.64
3987.321	-6.06
3989.836	-6.28
3992.349	-6.47
3994.86	-6.74
3997.369	-6.94
3999.877	-7.18
4002.382	-7.52
4004.886	-7.74
4007.388	-8.07
4009.888	-8.23
4012.386	-8.5
4014.883	-8.79
4017.377	-9.06
4019.87	-9.33
4022.361	-9.58
4024.85	-9.83
4027.338	-10.21
4029.823	-10.5
4032.307	-10.83
4034.789	-10.98
4037.269	-11.17
4039.747	-11.47
4042.224	-11.75
4044.699	-12.04
4047.172	-12.31
4049.643	-12.67
4052.112	-12.98
4054.58	-13.23
4057.046	-13.56
4059.51	-13.88
4061.972	-14.21
4064.432	-14.55
4066.891	-14.82
4069.348	-15.17
4071.803	-15.94
4074.256	-16.69
4076.708	-17.42
4079.158	-18.09
4081.606	-18.2
4084.052	-18.01
4086.497	-18.01
4088.939	-17.91
4091.38	-17.53
4093.819	-17.17
4096.257	-17.23
4098.693	-17.45
4101.127	-17.56
4103.559	-17.74
4105.989	-17.99
4108.418	-18.15
4110.845	-18.61
4113.27	-19.13
4115.694	-19.64
4118.115	-20.21
4120.535	-20.28
4122.954	-19.87
4125.37	-19.37
4127.785	-18.81
4130.198	-18.17
4132.609	-18.43
4135.019	-18.98
4137.427	-19.58
4139.833	-20.28
4142.237	-21.38
