Data from 1 mM HCl ref PSIH_RamanShift_3.txt Node
Date: Wed Aug 02 16:20:40 IDT 2017
User: aro
Spectrometer: QEPB0276
Trigger mode: 0
Integration Time (sec): 5.000000E0
Scans to average: 3
Electric dark correction enabled: true
Nonlinearity correction enabled: false
Boxcar width: 10
XAxis mode: Raman Shifts
Number of Pixels in Spectrum: 1044
>>>>>Begin Spectral Data<<<<<
160.701	333.23
166.742	364.36
172.777	392.6
178.805	417.4
184.826	439.63
190.841	459.38
196.849	476.6
202.85	491.85
208.845	505.78
214.833	518.3
220.815	530.21
226.789	567.13
232.758	604.06
238.719	641.47
244.674	677.36
250.623	709.12
256.565	732.5
262.5	746.07
268.429	752.48
274.351	755.9
280.267	758.52
286.176	760.63
292.079	761.12
297.975	760.4
303.865	758.48
309.748	756.15
315.625	753.23
321.495	750.42
327.359	747.66
333.217	743.91
339.068	739.55
344.912	734.34
350.751	728.96
356.583	724.13
362.408	719.12
368.227	713.23
374.04	705.53
379.847	696.77
385.647	688.04
391.44	678.61
397.228	668.85
403.009	658.25
408.784	647.01
414.553	635.47
420.315	622.9
426.071	609.94
431.821	595.28
437.565	579.63
443.302	561.82
449.033	542.26
454.758	524.12
460.477	510.69
466.189	505.21
471.896	505.61
477.596	507.83
483.29	509.28
488.978	510.17
494.66	511.79
500.335	514.42
506.005	516.93
511.668	519.77
517.325	523.6
522.977	527.64
528.622	532.23
534.261	537.55
539.894	542.87
545.521	548.67
551.141	555.12
556.756	562.21
562.365	571.39
567.968	582.74
573.565	593.74
579.155	600.64
584.74	600.29
590.319	594.28
595.892	586.07
601.459	577.23
607.02	568.72
612.575	561.01
618.124	553.75
623.667	547.5
629.204	541.87
634.735	535.91
640.261	530.4
645.781	525.2
651.294	520.29
656.802	516.15
662.304	512.26
667.8	509.34
673.29	506.85
678.775	504.26
684.254	501.36
689.726	497.69
695.193	494.33
700.655	490.47
706.11	486.18
711.56	481.37
717.004	477.21
722.442	473.69
727.874	470.4
733.301	467.26
738.722	464.17
744.137	461.33
749.547	458.44
754.951	456.07
760.349	453.52
765.741	450.69
771.128	448.07
776.509	445.75
781.885	443.21
787.254	441.07
792.618	439.17
797.977	437.06
803.33	435.4
808.677	433.33
814.019	431.31
819.355	429.12
824.686	427.04
830.011	424.91
835.33	422.72
840.644	420.1
845.952	417.4
851.255	414.74
856.552	411.93
861.844	409.4
867.13	407.15
872.41	405.53
877.686	404.58
882.955	404.53
888.219	405.39
893.478	406.93
898.731	408.17
903.979	408.88
909.221	409.37
914.458	409.67
919.69	409.5
924.916	408.82
930.136	408.02
935.351	407.25
940.561	405.98
945.766	404.25
950.965	402.79
956.158	401.21
961.347	399.85
966.529	398.33
971.707	397.25
976.879	395.58
982.046	393.58
987.208	391.07
992.364	387.53
997.515	382.83
1002.66	377.48
1007.801	372.25
1012.936	367.23
1018.066	362.52
1023.19	358.18
1028.309	354.25
1033.423	350.94
1038.532	348.02
1043.636	345.2
1048.734	342.93
1053.827	341.25
1058.915	339.53
1063.998	337.8
1069.075	335.79
1074.147	333.75
1079.214	331.15
1084.276	328.63
1089.333	325.98
1094.385	323.4
1099.431	321.48
1104.472	319.64
1109.509	318.23
1114.54	316.74
1119.565	315.6
1124.586	314.17
1129.602	312.55
1134.613	310.94
1139.618	309.17
1144.619	307.42
1149.614	305.5
1154.604	303.74
1159.589	301.82
1164.57	299.88
1169.545	298.64
1174.515	297.42
1179.48	296.56
1184.44	295.87
1189.395	295.53
1194.345	295.29
1199.29	294.9
1204.23	293.87
1209.165	293.01
1214.095	291.52
1219.021	290.02
1223.941	288.26
1228.856	287.02
1233.766	285.53
1238.672	284.02
1243.572	282.61
1248.467	281.31
1253.358	280.36
1258.244	279.34
1263.124	278.4
1268	277.67
1272.871	276.28
1277.737	275.04
1282.599	273.72
1287.455	271.96
1292.306	269.74
1297.153	267.36
1301.995	265.1
1306.832	263.02
1311.664	261.28
1316.491	259.99
1321.314	259.28
1326.132	259.15
1330.945	258.67
1335.753	258.77
1340.556	258.88
1345.354	258.64
1350.148	258.01
1354.937	257.02
1359.722	255.66
1364.501	254.4
1369.276	252.99
1374.046	251.69
1378.811	250.23
1383.572	249.09
1388.327	248.34
1393.079	248.15
1397.825	248.02
1402.567	248.26
1407.304	248.33
1412.036	248.18
1416.764	247.85
1421.487	246.71
1426.205	245.44
1430.919	244.15
1435.628	242.64
1440.333	241.21
1445.032	240.29
1449.727	239.63
1454.418	239.52
1459.104	239.8
1463.785	240.23
1468.462	240.88
1473.134	241.83
1477.802	243.07
1482.465	243.93
1487.123	244.71
1491.777	245.26
1496.426	245.91
1501.071	246.17
1505.711	246.45
1510.347	246.82
1514.978	247.26
1519.604	247.98
1524.226	248.28
1528.844	248.77
1533.457	249.31
1538.065	249.71
1542.669	249.99
1547.269	250.26
1551.864	250.1
1556.454	249.82
1561.041	249.07
1565.622	248.07
1570.199	246.8
1574.772	245.31
1579.34	243.87
1583.904	242.77
1588.464	241.63
1593.019	240.63
1597.569	239.9
1602.115	239.45
1606.657	238.98
1611.195	238.63
1615.728	238.71
1620.256	239.06
1624.78	239.48
1629.3	239.45
1633.816	239.67
1638.327	239.6
1642.834	239.44
1647.336	239.25
1651.834	239.1
1656.328	239.74
1660.817	240.8
1665.302	241.93
1669.783	243.18
1674.259	244.44
1678.732	245.77
1683.199	246.88
1687.663	247.87
1692.122	248.6
1696.577	249.17
1701.028	249.58
1705.474	249.69
1709.917	249.63
1714.355	249.21
1718.788	248.58
1723.218	248.12
1727.643	247.67
1732.064	247.58
1736.481	247.85
1740.893	248.42
1745.301	249.28
1749.705	250.01
1754.105	250.6
1758.501	251.61
1762.893	252.55
1767.28	253.64
1771.663	254.5
1776.042	255.4
1780.417	256.17
1784.787	256.96
1789.154	257.56
1793.516	258.39
1797.874	259.45
1802.228	260.45
1806.578	261.72
1810.924	263.06
1815.266	264.55
1819.603	266.33
1823.937	267.85
1828.266	269.33
1832.591	270.94
1836.913	272.13
1841.23	273.02
1845.543	273.88
1849.852	274.31
1854.156	274.77
1858.457	275.31
1862.754	276.07
1867.047	277.07
1871.335	278.5
1875.62	280.07
1879.9	282.04
1884.177	284.31
1888.449	286.79
1892.718	289.71
1896.982	292.44
1901.243	295.23
1905.499	298.23
1909.752	300.88
1914	304.02
1918.245	306.74
1922.485	309.21
1926.722	311.6
1930.954	313.77
1935.183	315.9
1939.408	318.28
1943.628	320.52
1947.845	322.28
1952.058	324.23
1956.267	326.2
1960.472	327.85
1964.673	329.61
1968.87	331.33
1973.063	332.75
1977.252	334.25
1981.438	334.93
1985.619	335.96
1989.797	337.06
1993.971	337.88
1998.14	338.6
2002.306	339.04
2006.469	339.79
2010.627	340.4
2014.781	341.4
2018.932	342.91
2023.078	344.52
2027.221	346.52
2031.36	348.69
2035.495	351.4
2039.627	354.01
2043.754	356.74
2047.878	359.64
2051.998	362.44
2056.114	365.28
2060.226	368.26
2064.334	371.13
2068.439	374.07
2072.54	377.4
2076.637	380.6
2080.73	383.74
2084.82	387.21
2088.906	390.87
2092.988	394.61
2097.066	398.66
2101.14	402.6
2105.211	406.25
2109.278	409.75
2113.342	412.75
2117.401	415.93
2121.457	418.66
2125.509	421.23
2129.558	423.5
2133.602	425.67
2137.643	427.85
2141.681	429.79
2145.714	431.53
2149.744	433.31
2153.77	434.79
2157.793	433.4
2161.812	434.9
2165.827	437.07
2169.838	439.34
2173.846	441.5
2177.851	443.82
2181.851	446.36
2185.848	448.75
2189.841	451.79
2193.831	454.56
2197.817	457.44
2201.799	460.2
2205.778	463.29
2209.753	466.37
2213.725	469.58
2217.693	473.1
2221.657	476.64
2225.618	480.45
2229.575	484.36
2233.529	487.98
2237.479	492.26
2241.425	499.01
2245.368	503.01
2249.307	506.44
2253.243	509.67
2257.175	512.88
2261.104	515.96
2265.029	518.44
2268.95	520.93
2272.868	523.07
2276.783	525.18
2280.694	526.8
2284.601	528.63
2288.505	530.53
2292.405	532.53
2296.302	534.53
2300.195	536.45
2304.085	538.02
2307.971	539.74
2311.854	541.52
2315.734	543.91
2319.609	546.2
2323.482	548.93
2327.351	551.77
2331.216	554.87
2335.078	558.29
2338.937	561.99
2342.792	565.63
2346.643	569.33
2350.492	573.53
2354.336	577.44
2358.178	582.04
2362.015	586.88
2365.85	591.25
2369.681	595.72
2373.508	599.88
2377.333	604.66
2381.153	609.8
2384.971	615.21
2388.785	620.69
2392.595	625.94
2396.402	631.01
2400.206	636.23
2404.007	641.25
2407.804	646.21
2411.597	650.9
2415.388	655.39
2419.174	659.34
2422.958	663.66
2426.738	668.06
2430.515	672.13
2434.289	676.61
2438.059	680.67
2441.825	685.21
2445.589	690.12
2449.349	695.55
2453.106	701.26
2456.859	706.8
2460.61	712.02
2464.356	717.28
2468.1	722.93
2471.84	728.52
2475.577	734.5
2479.311	740.79
2483.041	746.94
2486.768	753.17
2490.492	759.75
2494.213	766.29
2497.93	773.02
2501.644	779.6
2505.355	786.74
2509.062	793.74
2512.766	800.79
2516.467	808.37
2520.165	815.75
2523.859	823.02
2527.551	829.53
2531.239	836.44
2534.923	843.09
2538.605	849.74
2542.283	856.67
2545.958	862.72
2549.63	869.28
2553.299	874.99
2556.964	880.85
2560.626	886.5
2564.285	891.9
2567.941	897.28
2571.594	902.79
2575.243	908.96
2578.89	914.74
2582.533	920.18
2586.173	925.94
2589.809	931.48
2593.443	936.53
2597.073	941.39
2600.701	946.36
2604.325	951.23
2607.946	955.18
2611.564	959.09
2615.178	962.36
2618.79	965.85
2622.398	969.33
2626.004	972.07
2629.606	975.2
2633.205	977.63
2636.801	979.96
2640.394	982.5
2643.983	984.56
2647.57	986.67
2651.153	987.75
2654.734	988.87
2658.311	990.01
2661.885	990.56
2665.456	990.42
2669.025	990.36
2672.589	989.87
2676.151	989.39
2679.71	988.93
2683.266	989.34
2686.819	989.34
2690.368	990.07
2693.915	990.63
2697.458	991.75
2700.999	993.91
2704.536	996.47
2708.071	999.77
2711.602	1003.64
2715.13	1008.63
2718.656	1014.13
2722.178	1019.75
2725.697	1026.17
2729.214	1032.77
2732.727	1039.58
2736.237	1046.64
2739.744	1054.12
2743.249	1061.39
2746.75	1068.93
2750.248	1076.53
2753.743	1084.18
2757.236	1091.2
2760.725	1098.77
2764.211	1106.45
2767.695	1113.61
2771.175	1120.72
2774.652	1126.93
2778.127	1132.29
2781.598	1137.17
2785.067	1141.6
2788.532	1144.8
2791.995	1147.23
2795.455	1149.53
2798.911	1151.61
2802.365	1153.31
2805.816	1154.8
2809.264	1156.66
2812.709	1158.52
2816.151	1160.63
2819.59	1163.12
2823.026	1165.88
2826.46	1168.94
2829.89	1172.77
2833.318	1175.87
2836.742	1178.85
2840.164	1182.23
2843.583	1184.94
2846.999	1187.99
2850.412	1190.52
2853.822	1192.83
2857.229	1195.09
2860.634	1196.5
2864.035	1198.48
2867.434	1200.09
2870.83	1201.48
2874.223	1202.21
2877.613	1202.74
2881	1202.91
2884.385	1202.87
2887.766	1202.52
2891.145	1202.04
2894.521	1200.88
2897.894	1199.04
2901.264	1196.69
2904.631	1195.47
2907.996	1193.64
2911.358	1191.18
2914.717	1188.8
2918.073	1186.2
2921.426	1184.28
2924.777	1181.77
2928.124	1179.28
2931.469	1177.29
2934.811	1175.45
2938.15	1173.55
2941.487	1172.01
2944.821	1171.5
2948.152	1171.39
2951.48	1171.47
2954.805	1172.55
2958.128	1173.25
2961.447	1174.52
2964.765	1175.94
2968.079	1178.23
2971.39	1180.39
2974.699	1181.63
2978.005	1183.44
2981.308	1185.33
2984.609	1187.01
2987.907	1187.93
2991.202	1188.21
2994.494	1188.98
2997.784	1188.66
3001.07	1188.44
3004.355	1187.48
3007.636	1186.31
3010.915	1184.01
3014.191	1181.99
3017.464	1179.18
3020.734	1175.94
3024.002	1171.82
3027.267	1168.1
3030.53	1163.96
3033.789	1159.88
3037.046	1155.63
3040.301	1151.23
3043.552	1147.45
3046.801	1143.31
3050.048	1138.88
3053.291	1134.55
3056.532	1130.61
3059.771	1127.75
3063.006	1124.77
3066.239	1122.47
3069.469	1120.06
3072.697	1117.98
3075.922	1115.99
3079.144	1114.42
3082.364	1112.26
3085.581	1110.33
3088.795	1108.47
3092.007	1107.26
3095.216	1105.87
3098.423	1104.42
3101.627	1102.23
3104.828	1099.79
3108.026	1097.6
3111.222	1095.02
3114.416	1092.23
3117.607	1089.29
3120.795	1086.52
3123.98	1083.67
3127.163	1080.04
3130.344	1076.15
3133.521	1071.96
3136.696	1067.55
3139.869	1062.88
3143.039	1057.77
3146.206	1052.9
3149.371	1047.83
3152.533	1042.37
3155.693	1037.01
3158.85	1030.66
3162.005	1024.31
3165.157	1017.37
3168.306	1011.07
3171.453	1004.44
3174.597	997.33
3177.739	990.13
3180.878	982.82
3184.014	976.07
3187.149	968.74
3190.28	961.58
3193.409	954.26
3196.536	947.42
3199.659	940.85
3202.781	934.48
3205.9	927.9
3209.016	921.99
3212.13	915.48
3215.241	909.5
3218.35	903.25
3221.456	897.42
3224.56	891.87
3227.661	886.37
3230.76	881.5
3233.856	876.5
3236.95	871.56
3240.041	866.82
3243.13	862.07
3246.216	858.01
3249.3	853.66
3252.382	849.77
3255.46	845.99
3258.537	842.39
3261.611	838.36
3264.682	834.55
3267.751	830.55
3270.818	826.74
3273.882	822.23
3276.943	818.21
3280.002	813.64
3283.059	809.04
3286.113	803.85
3289.165	798.67
3292.214	793.31
3295.261	787.17
3298.306	781.21
3301.348	775.17
3304.387	769.39
3307.425	763.5
3310.459	757.1
3313.492	751.1
3316.521	745.26
3319.549	739.48
3322.574	734.06
3325.597	728.75
3328.617	723.31
3331.635	718.13
3334.65	713.18
3337.663	708.39
3340.674	703.33
3343.682	698.17
3346.688	693.82
3349.691	689.13
3352.692	684.34
3355.691	679.75
3358.687	675.4
3361.681	670.79
3364.673	666.17
3367.662	661.13
3370.649	656.01
3373.633	650.94
3376.615	645.58
3379.595	640.23
3382.572	634.83
3385.547	629.2
3388.52	623.99
3391.49	618.75
3394.458	614.01
3397.424	608.77
3400.387	603.96
3403.348	599.56
3406.307	595.2
3409.263	590.42
3412.217	585.8
3415.168	581.28
3418.118	576.52
3421.065	571.28
3424.009	566.37
3426.951	561.52
3429.891	556.6
3432.829	551.2
3435.764	545.8
3438.697	540.64
3441.628	535.02
3444.557	529.48
3447.483	523.91
3450.407	517.82
3453.328	512.28
3456.247	505.9
3459.164	499.67
3462.079	493.99
3464.991	487.82
3467.902	482.04
3470.809	476.83
3473.715	471.56
3476.618	466.21
3479.519	461.21
3482.418	456.42
3485.315	451.4
3488.209	446.21
3491.101	440.98
3493.99	435.98
3496.878	430.9
3499.763	425.56
3502.646	420.52
3505.527	415.07
3508.405	409.58
3511.281	404.01
3514.155	397.94
3517.027	392.34
3519.897	386.93
3522.764	380.71
3525.629	374.71
3528.492	368.55
3531.352	361.99
3534.211	355.55
3537.067	349.5
3539.921	343.15
3542.773	337.13
3545.622	331.23
3548.469	325.5
3551.315	319.77
3554.157	314.37
3556.998	309.15
3559.837	303.9
3562.673	298.61
3565.507	293.61
3568.339	288.91
3571.169	284.29
3573.996	279.64
3576.822	275.02
3579.645	270.34
3582.466	265.77
3585.285	261.37
3588.101	256.87
3590.916	252.6
3593.728	248.48
3596.538	244.28
3599.346	240.36
3602.152	236.61
3604.956	232.5
3607.757	228.48
3610.556	225.06
3613.354	221.56
3616.149	218.13
3618.942	215.02
3621.732	212.12
3624.521	209.29
3627.307	206.12
3630.092	203.37
3632.874	200.66
3635.654	198.13
3638.432	195.83
3641.208	193.44
3643.982	191.1
3646.753	188.98
3649.523	186.71
3652.29	184.33
3655.055	181.94
3657.818	179.79
3660.579	177.48
3663.338	175.6
3666.095	173.74
3668.849	171.72
3671.602	169.91
3674.352	168.04
3677.101	166.36
3679.847	164.64
3682.591	163.12
3685.333	161.77
3688.073	160.42
3690.811	159.12
3693.547	157.66
3696.281	156.17
3699.013	154.9
3701.742	153.71
3704.47	152.55
3707.195	151.26
3709.919	150.17
3712.64	149.02
3715.359	147.9
3718.076	146.66
3720.792	145.33
3723.505	144.1
3726.216	142.85
3728.925	141.44
3731.632	140.04
3734.336	138.63
3737.039	137.34
3739.74	135.93
3742.439	134.56
3745.136	133.17
3747.83	131.79
3750.523	130.34
3753.213	128.91
3755.902	127.47
3758.589	125.83
3761.273	124.1
3763.956	122.74
3766.636	121.34
3769.315	119.98
3771.991	118.37
3774.665	116.83
3777.338	115.28
3780.008	113.48
3782.677	111.83
3785.343	110.15
3788.007	108.74
3790.67	107.12
3793.33	105.36
3795.989	103.45
3798.645	101.69
3801.299	99.85
3803.952	98.1
3806.602	96.37
3809.251	94.69
3811.897	93.02
3814.542	91.44
3817.184	89.8
3819.825	87.99
3822.463	86.13
3825.1	84.29
3827.735	82.29
3830.367	80.47
3832.998	78.61
3835.627	76.99
3838.253	75.18
3840.878	73.47
3843.501	71.48
3846.122	69.5
3848.741	67.66
3851.358	66.01
3853.973	64.23
3856.586	62.53
3859.197	60.77
3861.806	58.94
3864.414	56.87
3867.019	55.01
3869.622	53.18
3872.224	51.33
3874.823	49.21
3877.421	47.13
3880.016	45.23
3882.61	43.44
3885.202	41.6
3887.792	39.72
3890.38	37.74
3892.966	35.74
3895.55	33.88
3898.132	32.07
3900.713	30.21
3903.291	28.39
3905.868	26.53
3908.442	24.67
3911.015	22.79
3913.586	21.04
3916.155	19.39
3918.722	18.17
3921.287	16.74
3923.85	15.25
3926.411	13.98
3928.971	12.96
3931.528	12.18
3934.084	11.36
3936.638	10.58
3939.19	9.88
3941.74	9.2
3944.288	8.66
3946.834	8.25
3949.378	7.74
3951.921	7.21
3954.462	6.82
3957	6.4
3959.537	6.02
3962.072	5.72
3964.606	5.42
3967.137	5.18
3969.667	4.96
3972.194	4.66
3974.72	4.55
3977.244	4.4
3979.766	4.2
3982.286	4.04
3984.805	3.79
3987.321	3.44
3989.836	3.2
3992.349	3.01
3994.86	3.02
3997.369	2.9
3999.877	2.67
4002.382	2.52
4004.886	2.31
4007.388	2.13
4009.888	1.83
4012.386	1.58
4014.883	1.34
4017.377	1.18
4019.87	0.94
4022.361	0.77
4024.85	0.42
4027.338	0.09
4029.823	-0.07
4032.307	-0.2
4034.789	-0.39
4037.269	-0.53
4039.747	-0.63
4042.224	-0.91
4044.699	-1.28
4047.172	-1.71
4049.643	-2.1
4052.112	-2.45
4054.58	-2.82
4057.046	-3.09
4059.51	-3.42
4061.972	-3.66
4064.432	-3.9
4066.891	-4.07
4069.348	-4.47
4071.803	-5.25
4074.256	-5.98
4076.708	-6.55
4079.158	-7.25
4081.606	-7.53
4084.052	-7.79
4086.497	-7.87
4088.939	-8.07
4091.38	-8.13
4093.819	-8.09
4096.257	-8.21
4098.693	-8.34
4101.127	-8.44
4103.559	-8.61
4105.989	-8.72
4108.418	-8.87
4110.845	-9.36
4113.27	-9.82
4115.694	-10.23
4118.115	-10.72
4120.535	-10.8
4122.954	-10.45
4125.37	-10.11
4127.785	-9.75
4130.198	-9.27
4132.609	-9.37
4135.019	-9.5
4137.427	-9.81
4139.833	-10.08
4142.237	-10.71
