Data from 1 mM HCl ref PSIH_RamanShift_2.txt Node
Date: Wed Aug 02 16:18:53 IDT 2017
User: aro
Spectrometer: QEPB0276
Trigger mode: 0
Integration Time (sec): 5.000000E0
Scans to average: 3
Electric dark correction enabled: true
Nonlinearity correction enabled: false
Boxcar width: 10
XAxis mode: Raman Shifts
Number of Pixels in Spectrum: 1044
>>>>>Begin Spectral Data<<<<<
160.701	3488.94
166.742	3849.17
172.777	4177.56
178.805	4476.43
184.826	4744.6
190.841	4986.58
196.849	5202.82
202.85	5394.39
208.845	5569.58
214.833	5730.43
220.815	5881
226.789	6309.75
232.758	6742.98
238.719	7175.49
244.674	7596.19
250.623	7977.37
256.565	8283.05
262.5	8498.3
268.429	8645.27
274.351	8764.37
280.267	8875.78
286.176	8980.16
292.079	9068.32
297.975	9144.57
303.865	9209.4
309.748	9270.59
315.625	9327.65
321.495	9384.59
327.359	9445.16
333.217	9505.79
339.068	9566.33
344.912	9624.49
350.751	9681.48
356.583	9735.17
362.408	9789.25
368.227	9841.89
374.04	9891.59
379.847	9940.03
385.647	9989.03
391.44	10037.89
397.228	10085.54
403.009	10133.51
408.784	10181.57
414.553	10235.17
420.315	10287.14
426.071	10341.52
431.821	10395.75
437.565	10452.71
443.302	10508.35
449.033	10566.9
454.758	10627.87
460.477	10695.17
466.189	10770.62
471.896	10846.22
477.596	10918.59
483.29	10984.46
488.978	11046.87
494.66	11111.37
500.335	11177.21
506.005	11242.19
511.668	11308.63
517.325	11375.21
522.977	11441.3
528.622	11506.29
534.261	11569.05
539.894	11632.52
545.521	11696.51
551.141	11757.54
556.756	11815.24
562.365	11873.56
567.968	11929.52
573.565	11982.08
579.155	12027.76
584.74	12066.56
590.319	12105.22
595.892	12149.48
601.459	12196.98
607.02	12246.92
612.575	12295.92
618.124	12346.78
623.667	12399.25
629.204	12450.37
634.735	12503.68
640.261	12555.06
645.781	12605.02
651.294	12654.48
656.802	12703.68
662.304	12750.21
667.8	12799.63
673.29	12848.68
678.775	12898.75
684.254	12948.35
689.726	12996.57
695.193	13045.13
700.655	13094.6
706.11	13143.87
711.56	13189.52
717.004	13237.52
722.442	13287.35
727.874	13337.13
733.301	13384.11
738.722	13430.59
744.137	13473.54
749.547	13513.17
754.951	13552.65
760.349	13591.4
765.741	13630.06
771.128	13666.3
776.509	13703.89
781.885	13743.17
787.254	13786.02
792.618	13832.62
797.977	13880.68
803.33	13933.71
808.677	13986.84
814.019	14037.86
819.355	14089.05
824.686	14137.54
830.011	14181.63
835.33	14217.89
840.644	14250.56
845.952	14277.94
851.255	14300.78
856.552	14326.11
861.844	14352.95
867.13	14383.29
872.41	14419.87
877.686	14458.81
882.955	14503.7
888.219	14550.4
893.478	14594.9
898.731	14636.44
903.979	14671.03
909.221	14694.11
914.458	14706.27
919.69	14709.71
924.916	14704.17
930.136	14691.84
935.351	14680.05
940.561	14670.38
945.766	14670.33
950.965	14678.87
956.158	14696.98
961.347	14724.65
966.529	14757.27
971.707	14792.79
976.879	14826.33
982.046	14853.73
987.208	14875.08
992.364	14883.84
997.515	14883.49
1002.66	14875.68
1007.801	14860.92
1012.936	14845.05
1018.066	14834.46
1023.19	14833.49
1028.309	14843.75
1033.423	14864.27
1038.532	14893.78
1043.636	14928.59
1048.734	14967.81
1053.827	15000.97
1058.915	15027.86
1063.998	15042.21
1069.075	15041.03
1074.147	15025.78
1079.214	15001.87
1084.276	14971.84
1089.333	14940.59
1094.385	14912.97
1099.431	14895.05
1104.472	14886.37
1109.509	14885.51
1114.54	14893.3
1119.565	14905.16
1124.586	14918.71
1129.602	14925.29
1134.613	14924.17
1139.618	14914.56
1144.619	14897.19
1149.614	14870.87
1154.604	14840.94
1159.589	14813.24
1164.57	14790.52
1169.545	14779.75
1174.515	14782.13
1179.48	14799.67
1184.44	14822.59
1189.395	14849.38
1194.345	14877.78
1199.29	14900.76
1204.23	14913.59
1209.165	14914.98
1214.095	14905.05
1219.021	14884.67
1223.941	14855.54
1228.856	14824.19
1233.766	14791.54
1238.672	14764.43
1243.572	14744.6
1248.467	14731.38
1253.358	14727.9
1258.244	14725.71
1263.124	14721.52
1268	14714.56
1272.871	14698.24
1277.737	14668.84
1282.599	14622.68
1287.455	14563.44
1292.306	14493.71
1297.153	14414.13
1301.995	14334.43
1306.832	14265.41
1311.664	14210.02
1316.491	14173.43
1321.314	14157.19
1326.132	14157.06
1330.945	14166.27
1335.753	14179.46
1340.556	14183.75
1345.354	14175.14
1350.148	14151
1354.937	14108.38
1359.722	14051.03
1364.501	13987.46
1369.276	13916.81
1374.046	13849.11
1378.811	13789.14
1383.572	13742.73
1388.327	13712.73
1393.079	13698.44
1397.825	13694.78
1402.567	13697.83
1407.304	13697.48
1412.036	13689.95
1416.764	13666.14
1421.487	13625.54
1426.205	13569.97
1430.919	13502.43
1435.628	13432.4
1440.333	13368.24
1445.032	13317.38
1449.727	13282.25
1454.418	13266.75
1459.104	13268.21
1463.785	13282.29
1468.462	13306.27
1473.134	13333.92
1477.802	13362.71
1482.465	13386.54
1487.123	13399.68
1491.777	13405.24
1496.426	13401.56
1501.071	13389.68
1505.711	13371.57
1510.347	13349.59
1514.978	13328.83
1519.604	13309.43
1524.226	13293.3
1528.844	13279.33
1533.457	13267.48
1538.065	13253.16
1542.669	13233.05
1547.269	13202.81
1551.864	13158.27
1556.454	13102.16
1561.041	13028.63
1565.622	12941.03
1570.199	12844.27
1574.772	12741.24
1579.34	12635.59
1583.904	12535.9
1588.464	12439.97
1593.019	12354.4
1597.569	12276.49
1602.115	12210.3
1606.657	12152.52
1611.195	12103.14
1615.728	12057.98
1620.256	12014.7
1624.78	11971.16
1629.3	11922.3
1633.816	11870.3
1638.327	11811.41
1642.834	11748.81
1647.336	11687
1651.834	11630.19
1656.328	11591.68
1660.817	11568.41
1665.302	11554.89
1669.783	11545.71
1674.259	11533.81
1678.732	11516.25
1683.199	11492.08
1687.663	11460.43
1692.122	11421.33
1696.577	11369.79
1701.028	11307.87
1705.474	11235.02
1709.917	11152.05
1714.355	11063.84
1718.788	10972.94
1723.218	10881.65
1727.643	10795.81
1732.064	10718.76
1736.481	10654.27
1740.893	10601.29
1745.301	10555.51
1749.705	10509.62
1754.105	10463.16
1758.501	10416.78
1762.893	10371.51
1767.28	10328.65
1771.663	10286.68
1776.042	10241.68
1780.417	10194.33
1784.787	10145.68
1789.154	10098.46
1793.516	10052.98
1797.874	10010.71
1802.228	9975.21
1806.578	9943.67
1810.924	9916.84
1815.266	9895
1819.603	9873.25
1823.937	9853.37
1828.266	9830.9
1832.591	9802.13
1836.913	9765.21
1841.23	9720.59
1845.543	9667.94
1849.852	9609.95
1854.156	9549.73
1858.457	9492.37
1862.754	9437.76
1867.047	9391.78
1871.335	9355.46
1875.62	9325.62
1879.9	9302.95
1884.177	9288.63
1888.449	9280.24
1892.718	9275.59
1896.982	9273.87
1901.243	9271.76
1905.499	9268.62
1909.752	9263.76
1914	9253.67
1918.245	9237.95
1922.485	9218.1
1926.722	9192.92
1930.954	9163.14
1935.183	9129.3
1939.408	9095.43
1943.628	9058.86
1947.845	9019.71
1952.058	8981.89
1956.267	8941.76
1960.472	8898.76
1964.673	8855.65
1968.87	8807.75
1973.063	8755.63
1977.252	8699.48
1981.438	8639.97
1985.619	8574.06
1989.797	8504.05
1993.971	8431
1998.14	8355.29
2002.306	8281.17
2006.469	8209.3
2010.627	8141.75
2014.781	8079.52
2018.932	8022.6
2023.078	7973.08
2027.221	7925.02
2031.36	7883.37
2035.495	7845.6
2039.627	7809.75
2043.754	7775.48
2047.878	7741.59
2051.998	7708.56
2056.114	7676.21
2060.226	7641.1
2064.334	7606.33
2068.439	7570.37
2072.54	7536.95
2076.637	7507.4
2080.73	7480.54
2084.82	7456.46
2088.906	7432.87
2092.988	7410.06
2097.066	7386.4
2101.14	7363.14
2105.211	7337.06
2109.278	7307.73
2113.342	7276.43
2117.401	7240.89
2121.457	7200.35
2125.509	7155.62
2129.558	7105.76
2133.602	7052.84
2137.643	6995.49
2141.681	6937.84
2145.714	6881.49
2149.744	6824.98
2153.77	6767.13
2157.793	6707.7
2161.812	6652.35
2165.827	6598.48
2169.838	6544.7
2173.846	6492.1
2177.851	6442
2181.851	6393.27
2185.848	6344.84
2189.841	6298.03
2193.831	6251.86
2197.817	6206.79
2201.799	6161.17
2205.778	6117.86
2209.753	6075.38
2213.725	6035.33
2217.693	5996.67
2221.657	5958.92
2225.618	5922.16
2229.575	5886.6
2233.529	5850.43
2237.479	5815.76
2241.425	5783.32
2245.368	5745.73
2249.307	5706.68
2253.243	5666.94
2257.175	5625.21
2261.104	5579.62
2265.029	5532.33
2268.95	5481.92
2272.868	5429.06
2276.783	5374.56
2280.694	5318.16
2284.601	5260.9
2288.505	5203.79
2292.405	5146.38
2296.302	5090.6
2300.195	5036.38
2304.085	4984.17
2307.971	4931.97
2311.854	4880.86
2315.734	4832.78
2319.609	4787.08
2323.482	4742.41
2327.351	4700.03
2331.216	4659.44
2335.078	4620.27
2338.937	4583.21
2342.792	4547.84
2346.643	4513.44
2350.492	4481.11
2354.336	4449.7
2358.178	4420.24
2362.015	4393.16
2365.85	4368.78
2369.681	4345.86
2373.508	4323.94
2377.333	4303.32
2381.153	4281.76
2384.971	4260.71
2388.785	4241.94
2392.595	4221.54
2396.402	4200.32
2400.206	4178.08
2404.007	4155.35
2407.804	4131.75
2411.597	4106.79
2415.388	4080.71
2419.174	4054.11
2422.958	4027.22
2426.738	4000.51
2430.515	3973.41
2434.289	3947.94
2438.059	3923.38
2441.825	3899.57
2445.589	3876.22
2449.349	3853.78
2453.106	3833.27
2456.859	3813.44
2460.61	3794.54
2464.356	3776
2468.1	3757.78
2471.84	3740.63
2475.577	3724.02
2479.311	3708.17
2483.041	3692.98
2486.768	3677.83
2490.492	3662.79
2494.213	3649.13
2497.93	3635.83
2501.644	3623.54
2505.355	3611.37
2509.062	3600.57
2512.766	3589.79
2516.467	3579.11
2520.165	3568.06
2523.859	3556.59
2527.551	3544.25
2531.239	3531.67
2534.923	3517.75
2538.605	3502.56
2542.283	3487.65
2545.958	3471.7
2549.63	3454.57
2553.299	3437.3
2556.964	3419.73
2560.626	3401.43
2564.285	3383.19
2567.941	3365.76
2571.594	3348.98
2575.243	3332.05
2578.89	3314.59
2582.533	3298.52
2586.173	3282.43
2589.809	3264.98
2593.443	3246.1
2597.073	3227.4
2600.701	3208.27
2604.325	3188.75
2607.946	3167.94
2611.564	3147
2615.178	3126.37
2618.79	3104.37
2622.398	3081.73
2626.004	3059.52
2629.606	3037.19
2633.205	3014.76
2636.801	2992.06
2640.394	2969.63
2643.983	2946.92
2647.57	2922.7
2651.153	2898.57
2654.734	2873.48
2658.311	2846.62
2661.885	2819.13
2665.456	2791.24
2669.025	2764.65
2672.589	2738
2676.151	2710.86
2679.71	2684.98
2683.266	2659.05
2686.819	2634.21
2690.368	2610
2693.915	2588.11
2697.458	2567.92
2700.999	2550.1
2704.536	2533.37
2708.071	2518.13
2711.602	2505.3
2715.13	2493.43
2718.656	2482.4
2722.178	2472.46
2725.697	2463.43
2729.214	2456.63
2732.727	2450.16
2736.237	2445.05
2739.744	2441.14
2743.249	2436.87
2746.75	2432.46
2750.248	2429.24
2753.743	2424.89
2757.236	2421.94
2760.725	2418.97
2764.211	2416.87
2767.695	2412.75
2771.175	2407.57
2774.652	2400.62
2778.127	2392.67
2781.598	2383.54
2785.067	2372.65
2788.532	2360.83
2791.995	2349.06
2795.455	2336.51
2798.911	2322.79
2802.365	2308.78
2805.816	2295.51
2809.264	2281
2812.709	2267.38
2816.151	2254.25
2819.59	2242.43
2823.026	2230.62
2826.46	2220.22
2829.89	2209.65
2833.318	2199.54
2836.742	2189.9
2840.164	2180.63
2843.583	2171.59
2846.999	2162.38
2850.412	2152.62
2853.822	2142.59
2857.229	2132.06
2860.634	2121.16
2864.035	2109
2867.434	2097.67
2870.83	2086.17
2874.223	2073.35
2877.613	2060.65
2881	2048.65
2884.385	2035.95
2887.766	2022.94
2891.145	2008.83
2894.521	1995.54
2897.894	1981.86
2901.264	1967.79
2904.631	1952.71
2907.996	1936.11
2911.358	1919.98
2914.717	1904.16
2918.073	1888.43
2921.426	1873.54
2924.777	1857.38
2928.124	1842.03
2931.469	1827.06
2934.811	1813.16
2938.15	1799.3
2941.487	1786.29
2944.821	1774.76
2948.152	1763
2951.48	1751.67
2954.805	1741.16
2958.128	1731.44
2961.447	1722.89
2964.765	1713.98
2968.079	1705.38
2971.39	1697.06
2974.699	1688.92
2978.005	1681.32
2981.308	1673.25
2984.609	1664.92
2987.907	1656.19
2991.202	1646.7
2994.494	1637.79
2997.784	1628.46
3001.07	1618.79
3004.355	1608.87
3007.636	1597.84
3010.915	1586.94
3014.191	1575.32
3017.464	1563.29
3020.734	1551.33
3024.002	1539.11
3027.267	1526.3
3030.53	1513.02
3033.789	1499.71
3037.046	1486.41
3040.301	1472.89
3043.552	1459.78
3046.801	1447.17
3050.048	1434.87
3053.291	1422.11
3056.532	1410.98
3059.771	1399.56
3063.006	1389.13
3066.239	1379.14
3069.469	1370.27
3072.697	1360.7
3075.922	1352.14
3079.144	1343.27
3082.364	1334.52
3085.581	1326.25
3088.795	1318.1
3092.007	1310.29
3095.216	1302.32
3098.423	1294.56
3101.627	1286.35
3104.828	1278.06
3108.026	1269.73
3111.222	1261.59
3114.416	1252.43
3117.607	1243.19
3120.795	1234.83
3123.98	1225.75
3127.163	1216.84
3130.344	1207.76
3133.521	1198.32
3136.696	1188.03
3139.869	1178.37
3143.039	1167.92
3146.206	1157.94
3149.371	1147.73
3152.533	1137.65
3155.693	1126.9
3158.85	1115
3162.005	1103.41
3165.157	1091.57
3168.306	1080.13
3171.453	1068.43
3174.597	1056.75
3177.739	1044.59
3180.878	1033.14
3184.014	1021.41
3187.149	1009.68
3190.28	998.08
3193.409	986.94
3196.536	975.51
3199.659	964.62
3202.781	954.57
3205.9	944.33
3209.016	934.63
3212.13	924.46
3215.241	914.84
3218.35	905.13
3221.456	895.57
3224.56	887.17
3227.661	878.62
3230.76	870.27
3233.856	862.21
3236.95	854.13
3240.041	846.83
3243.13	839.84
3246.216	832.68
3249.3	825.81
3252.382	819.35
3255.46	813.1
3258.537	806.62
3261.611	800.52
3264.682	794.54
3267.751	787.67
3270.818	780.94
3273.882	774.48
3276.943	768.17
3280.002	761.37
3283.059	754.73
3286.113	747.84
3289.165	740.32
3292.214	733.17
3295.261	725.62
3298.306	717.86
3301.348	710.27
3304.387	702.08
3307.425	693.65
3310.459	685.38
3313.492	677.9
3316.521	670.25
3319.549	662.87
3322.574	656.02
3325.597	649.25
3328.617	642.56
3331.635	636.41
3334.65	630.44
3337.663	624.33
3340.674	618.49
3343.682	612.6
3346.688	606.76
3349.691	601.16
3352.692	595.84
3355.691	590.17
3358.687	584.38
3361.681	578.59
3364.673	572.68
3367.662	566.78
3370.649	560.95
3373.633	555.11
3376.615	549.03
3379.595	542.68
3382.572	536.33
3385.547	530.16
3388.52	524.03
3391.49	517.95
3394.458	512.32
3397.424	506.65
3400.387	500.98
3403.348	495.38
3406.307	490.17
3409.263	484.83
3412.217	479.63
3415.168	474.35
3418.118	468.84
3421.065	463.63
3424.009	458.35
3426.951	452.59
3429.891	447.06
3432.829	441.22
3435.764	435.24
3438.697	429.27
3441.628	423.21
3444.557	417.08
3447.483	410.52
3450.407	404.17
3453.328	397.79
3456.247	391.16
3459.164	384.62
3462.079	378.38
3464.991	372
3467.902	366.13
3470.809	360.46
3473.715	354.51
3476.618	348.32
3479.519	342.84
3482.418	337.03
3485.315	331.1
3488.209	325.6
3491.101	319.65
3493.99	314.13
3496.878	309.16
3499.763	303.37
3502.646	297.78
3505.527	291.68
3508.405	285.98
3511.281	279.9
3514.155	273.92
3517.027	267.63
3519.897	261.41
3522.764	254.86
3525.629	248.41
3528.492	241.7
3531.352	234.95
3534.211	228.32
3537.067	222.05
3539.921	215.51
3542.773	209.38
3545.622	203.59
3548.469	197.65
3551.315	192.08
3554.157	186.37
3556.998	180.32
3559.837	174.79
3562.673	169.16
3565.507	163.94
3568.339	158.65
3571.169	153.57
3573.996	148.48
3576.822	143.59
3579.645	138.71
3582.466	134.08
3585.285	129.41
3588.101	124.65
3590.916	119.92
3593.728	115.59
3596.538	111.3
3599.346	107.08
3602.152	102.51
3604.956	98.37
3607.757	94.54
3610.556	90.6
3613.354	86.95
3616.149	83.7
3618.942	80.51
3621.732	77.7
3624.521	74.81
3627.307	71.71
3630.092	68.86
3632.874	66.05
3635.654	63.25
3638.432	60.73
3641.208	58.02
3643.982	55.37
3646.753	53.13
3649.523	50.78
3652.29	48.25
3655.055	45.68
3657.818	43.37
3660.579	41.41
3663.338	39.22
3666.095	37.1
3668.849	35.11
3671.602	33.17
3674.352	31.14
3677.101	29.27
3679.847	27.48
3682.591	25.7
3685.333	24.14
3688.073	22.56
3690.811	21.24
3693.547	19.95
3696.281	18.6
3699.013	17.32
3701.742	16.16
3704.47	14.57
3707.195	13.13
3709.919	11.9
3712.64	10.73
3715.359	9.63
3718.076	8.37
3720.792	6.75
3723.505	5.19
3726.216	3.79
3728.925	2.38
3731.632	0.95
3734.336	-0.41
3737.039	-2.06
3739.74	-3.48
3742.439	-4.87
3745.136	-6.22
3747.83	-7.84
3750.523	-9.35
3753.213	-11
3755.902	-12.63
3758.589	-14.22
3761.273	-15.63
3763.956	-16.97
3766.636	-18.37
3769.315	-19.97
3771.991	-21.68
3774.665	-23.35
3777.338	-24.56
3780.008	-26.25
3782.677	-28.11
3785.343	-29.76
3788.007	-31.57
3790.67	-33.3
3793.33	-35.16
3795.989	-36.95
3798.645	-38.76
3801.299	-40.44
3803.952	-42.13
3806.602	-43.98
3809.251	-45.9
3811.897	-47.56
3814.542	-49.25
3817.184	-51.14
3819.825	-52.87
3822.463	-54.89
3825.1	-56.62
3827.735	-58.59
3830.367	-60.6
3832.998	-62.59
3835.627	-64.29
3838.253	-66.02
3840.878	-68.03
3843.501	-69.89
3846.122	-71.75
3848.741	-73.48
3851.358	-75.29
3853.973	-76.9
3856.586	-78.76
3859.197	-80.68
3861.806	-82.29
3864.414	-84.14
3867.019	-85.94
3869.622	-87.76
3872.224	-89.41
3874.823	-91.52
3877.421	-93.44
3880.016	-95.27
3882.61	-96.92
3885.202	-98.44
3887.792	-100.37
3890.38	-102.06
3892.966	-103.83
3895.55	-105.38
3898.132	-106.97
3900.713	-108.71
3903.291	-110.22
3905.868	-111.84
3908.442	-113.56
3911.015	-115.14
3913.586	-116.54
3916.155	-118.13
3918.722	-119.27
3921.287	-120.32
3923.85	-121.52
3926.411	-122.67
3928.971	-123.52
3931.528	-124.25
3934.084	-124.89
3936.638	-125.6
3939.19	-126.27
3941.74	-126.7
3944.288	-127.21
3946.834	-127.59
3949.378	-128.02
3951.921	-128.4
3954.462	-128.71
3957	-129.05
3959.537	-129.29
3962.072	-129.49
3964.606	-129.56
3967.137	-129.6
3969.667	-129.59
3972.194	-129.6
3974.72	-129.7
3977.244	-129.7
3979.766	-129.63
3982.286	-129.43
3984.805	-129.41
3987.321	-129.54
3989.836	-129.48
3992.349	-129.44
3994.86	-129.29
3997.369	-129.32
3999.877	-129.17
4002.382	-129.14
4004.886	-129.11
4007.388	-129.22
4009.888	-129.35
4012.386	-129.44
4014.883	-129.52
4017.377	-129.86
4019.87	-130
4022.361	-130.25
4024.85	-130.54
4027.338	-130.94
4029.823	-131.03
4032.307	-131.27
4034.789	-131.67
4037.269	-131.78
4039.747	-131.92
4042.224	-132.21
4044.699	-132.52
4047.172	-132.98
4049.643	-133.22
4052.112	-133.65
4054.58	-133.9
4057.046	-134.21
4059.51	-134.43
4061.972	-134.7
4064.432	-134.86
4066.891	-135.17
4069.348	-135.43
4071.803	-137
4074.256	-138.41
4076.708	-139.81
4079.158	-141.17
4081.606	-138.98
4084.052	-136.27
4086.497	-133.17
4088.939	-129.76
4091.38	-125.68
4093.819	-120.98
4096.257	-121.05
4098.693	-121.1
4101.127	-121.38
4103.559	-121.49
4105.989	-121.67
4108.418	-121.83
4110.845	-123.17
4113.27	-124.6
4115.694	-126.02
4118.115	-127.4
4120.535	-126.78
4122.954	-124.82
4125.37	-122.69
4127.785	-120.2
4130.198	-117.42
4132.609	-119.44
4135.019	-122.45
4137.427	-126.41
4139.833	-131.83
4142.237	-139.42
