Data from 10 mM HCl ref original_RamanShift_1.txt Node
Date: Wed Aug 02 17:10:42 IDT 2017
User: aro
Spectrometer: QEPB0276
Trigger mode: 0
Integration Time (sec): 5.000000E0
Scans to average: 3
Electric dark correction enabled: true
Nonlinearity correction enabled: false
Boxcar width: 10
XAxis mode: Raman Shifts
Number of Pixels in Spectrum: 1044
>>>>>Begin Spectral Data<<<<<
160.701	4295.24
166.742	4757.56
172.777	5181.54
178.805	5566.74
184.826	5908.6
190.841	6205.62
196.849	6459.27
202.85	6675.39
208.845	6863.18
214.833	7030.37
220.815	7182.16
226.789	7672.25
232.758	8163.86
238.719	8653.11
244.674	9125.43
250.623	9547.37
256.565	9877.48
262.5	10095.68
268.429	10229.75
274.351	10323.97
280.267	10402.76
286.176	10466.76
292.079	10510.06
297.975	10534.78
303.865	10545.68
309.748	10551.71
315.625	10563.29
321.495	10583.78
327.359	10616.52
333.217	10657.32
339.068	10701.63
344.912	10749.52
350.751	10798.37
356.583	10849.22
362.408	10900.41
368.227	10949.35
374.04	10998.35
379.847	11046.43
385.647	11095.41
391.44	11145.24
397.228	11198.32
403.009	11250.92
408.784	11307.9
414.553	11367.49
420.315	11428.67
426.071	11493.41
431.821	11562.25
437.565	11630.7
443.302	11704.71
449.033	11782.57
454.758	11870.17
460.477	11967.54
466.189	12067.29
471.896	12158.19
477.596	12234.83
483.29	12302.44
488.978	12365.24
494.66	12428
500.335	12493.08
506.005	12558.57
511.668	12623.19
517.325	12685.35
522.977	12749.86
528.622	12809.78
534.261	12870.17
539.894	12929.65
545.521	12987.19
551.141	13041.13
556.756	13092.75
562.365	13138.63
567.968	13179.78
573.565	13213.05
579.155	13236.27
584.74	13258.44
590.319	13288.37
595.892	13330.32
601.459	13381.29
607.02	13437.29
612.575	13495.29
618.124	13555.41
623.667	13613.51
629.204	13670.44
634.735	13728.13
640.261	13783.9
645.781	13840.29
651.294	13893.35
656.802	13945.38
662.304	13997.62
667.8	14049.52
673.29	14102.05
678.775	14154.49
684.254	14203.9
689.726	14253.29
695.193	14302.38
700.655	14351.27
706.11	14401.57
711.56	14452.02
717.004	14500.87
722.442	14552.41
727.874	14602.9
733.301	14649.73
738.722	14699.17
744.137	14747.48
749.547	14793.24
754.951	14836.22
760.349	14880.1
765.741	14921.7
771.128	14962.81
776.509	15005.22
781.885	15052.84
787.254	15101.79
792.618	15154.73
797.977	15214.56
803.33	15275.49
808.677	15338.68
814.019	15402.68
819.355	15465.84
824.686	15524.73
830.011	15580.16
835.33	15626.92
840.644	15668.73
845.952	15707.57
851.255	15741.89
856.552	15776.41
861.844	15814.43
867.13	15856.33
872.41	15903.95
877.686	15957.83
882.955	16017.75
888.219	16078.48
893.478	16134.1
898.731	16187.67
903.979	16233.62
909.221	16269.11
914.458	16288.87
919.69	16300.68
924.916	16300.78
930.136	16294.44
935.351	16286.56
940.561	16284.68
945.766	16293.37
950.965	16310.75
956.158	16336.38
961.347	16372.87
966.529	16416.03
971.707	16461.05
976.879	16506.68
982.046	16542.14
987.208	16569.81
992.364	16584.08
997.515	16588.73
1002.66	16585.7
1007.801	16576.21
1012.936	16566.68
1018.066	16558.73
1023.19	16567
1028.309	16582.98
1033.423	16611.19
1038.532	16649.7
1043.636	16696.14
1048.734	16742.89
1053.827	16785.84
1058.915	16819.3
1063.998	16839.94
1069.075	16843.67
1074.147	16832.05
1079.214	16809.98
1084.276	16779.89
1089.333	16751.02
1094.385	16726.37
1099.431	16713.33
1104.472	16709.51
1109.509	16715.4
1114.54	16730.05
1119.565	16749.79
1124.586	16770.97
1129.602	16783.78
1134.613	16789.43
1139.618	16782.06
1144.619	16766.43
1149.614	16742.33
1154.604	16714.35
1159.589	16689.87
1164.57	16672.6
1169.545	16667.51
1174.515	16676.35
1179.48	16700.06
1184.44	16733.32
1189.395	16771.63
1194.345	16812.75
1199.29	16846.92
1204.23	16868.44
1209.165	16876.29
1214.095	16871.1
1219.021	16852.89
1223.941	16824.76
1228.856	16791.24
1233.766	16759.68
1238.672	16736.84
1243.572	16724.3
1248.467	16716.25
1253.358	16716.33
1258.244	16719.98
1263.124	16720.02
1268	16715.44
1272.871	16700.87
1277.737	16673.16
1282.599	16627.3
1287.455	16564.68
1292.306	16489.49
1297.153	16403.21
1301.995	16317.84
1306.832	16239.7
1311.664	16178.24
1316.491	16137.43
1321.314	16119.03
1326.132	16114.59
1330.945	16122.59
1335.753	16132.63
1340.556	16133.71
1345.354	16121.87
1350.148	16093.79
1354.937	16046.63
1359.722	15980.86
1364.501	15906.87
1369.276	15828.83
1374.046	15752.33
1378.811	15684.16
1383.572	15630.54
1388.327	15595.76
1393.079	15576.51
1397.825	15571.56
1402.567	15574.37
1407.304	15577.16
1412.036	15570.63
1416.764	15547.97
1421.487	15505.38
1426.205	15450.03
1430.919	15384.02
1435.628	15312.67
1440.333	15246.32
1445.032	15191.73
1449.727	15156.59
1454.418	15142.33
1459.104	15147.75
1463.785	15166.68
1468.462	15196.6
1473.134	15232.76
1477.802	15267.52
1482.465	15297.11
1487.123	15315.35
1491.777	15326.46
1496.426	15324.56
1501.071	15313.33
1505.711	15294.29
1510.347	15271.25
1514.978	15249.59
1519.604	15232.56
1524.226	15218.21
1528.844	15206.95
1533.457	15197.35
1538.065	15186.48
1542.669	15169.1
1547.269	15140.41
1551.864	15097.6
1556.454	15039.17
1561.041	14962.54
1565.622	14870.63
1570.199	14765.9
1574.772	14654.78
1579.34	14543.7
1583.904	14436.92
1588.464	14335.49
1593.019	14243.02
1597.569	14160.95
1602.115	14093.08
1606.657	14035
1611.195	13983.92
1615.728	13938.57
1620.256	13895.62
1624.78	13850.08
1629.3	13801
1633.816	13745.7
1638.327	13684.11
1642.834	13618.92
1647.336	13554.97
1651.834	13498.9
1656.328	13458.21
1660.817	13431.19
1665.302	13414.89
1669.783	13405.1
1674.259	13391.97
1678.732	13374.11
1683.199	13346.86
1687.663	13314.73
1692.122	13272.33
1696.577	13216.19
1701.028	13148.73
1705.474	13068.22
1709.917	12976.52
1714.355	12877.32
1718.788	12776.75
1723.218	12676.52
1727.643	12583.76
1732.064	12500.65
1736.481	12429.98
1740.893	12370.84
1745.301	12319.56
1749.705	12271.59
1754.105	12222.97
1758.501	12176.29
1762.893	12130.71
1767.28	12085.9
1771.663	12039.79
1776.042	11993.27
1780.417	11943.05
1784.787	11892.05
1789.154	11842.41
1793.516	11793.44
1797.874	11751.41
1802.228	11714.75
1806.578	11684.84
1810.924	11658.9
1815.266	11638.16
1819.603	11618.22
1823.937	11599.03
1828.266	11578.1
1832.591	11550.79
1836.913	11515.86
1841.23	11471.87
1845.543	11422
1849.852	11365.52
1854.156	11305.92
1858.457	11248.73
1862.754	11196.03
1867.047	11151.3
1871.335	11113.83
1875.62	11085.71
1879.9	11065.71
1884.177	11055.84
1888.449	11049.54
1892.718	11048.21
1896.982	11049.02
1901.243	11050.08
1905.499	11048.6
1909.752	11043.94
1914	11034.41
1918.245	11017.87
1922.485	10993.56
1926.722	10963.63
1930.954	10929.56
1935.183	10890.37
1939.408	10850.11
1943.628	10807
1947.845	10761.98
1952.058	10717.67
1956.267	10671.49
1960.472	10624.41
1964.673	10574.87
1968.87	10521.37
1973.063	10463.03
1977.252	10402
1981.438	10334.52
1985.619	10259.43
1989.797	10180.76
1993.971	10099.56
1998.14	10014.49
2002.306	9929.65
2006.469	9847.9
2010.627	9771.29
2014.781	9701.19
2018.932	9636.51
2023.078	9578.81
2027.221	9525.7
2031.36	9479.4
2035.495	9436.92
2039.627	9397.03
2043.754	9358.59
2047.878	9321.54
2051.998	9283.24
2056.114	9244.56
2060.226	9202.67
2064.334	9160.13
2068.439	9118.13
2072.54	9081.25
2076.637	9045.94
2080.73	9012.73
2084.82	8982.7
2088.906	8955.35
2092.988	8927.63
2097.066	8901.38
2101.14	8874.35
2105.211	8843.97
2109.278	8810.21
2113.342	8773.67
2117.401	8730.68
2121.457	8683.81
2125.509	8630.43
2129.558	8573.05
2133.602	8511.38
2137.643	8446.46
2141.681	8380.37
2145.714	8314.97
2149.744	8249.75
2153.77	8184.81
2157.793	8119.54
2161.812	8056.05
2165.827	7994.44
2169.838	7933.86
2173.846	7874.43
2177.851	7816.76
2181.851	7760.59
2185.848	7705.3
2189.841	7652.19
2193.831	7600.44
2197.817	7548.84
2201.799	7497.49
2205.778	7447.65
2209.753	7399.11
2213.725	7352.44
2217.693	7307.02
2221.657	7263.17
2225.618	7220.43
2229.575	7178.25
2233.529	7136.4
2237.479	7094.94
2241.425	7052.62
2245.368	7009
2249.307	6963.49
2253.243	6916.29
2257.175	6865.92
2261.104	6813.87
2265.029	6757.32
2268.95	6696.92
2272.868	6633.06
2276.783	6568
2280.694	6499.33
2284.601	6430.97
2288.505	6361.52
2292.405	6294.51
2296.302	6228.02
2300.195	6162.68
2304.085	6098.57
2307.971	6036.76
2311.854	5977.14
2315.734	5920.87
2319.609	5866.27
2323.482	5813.9
2327.351	5763.52
2331.216	5715.11
2335.078	5668.83
2338.937	5625.73
2342.792	5583.43
2346.643	5542.81
2350.492	5505.25
2354.336	5468.84
2358.178	5434.33
2362.015	5402.7
2365.85	5373.27
2369.681	5345.87
2373.508	5319.35
2377.333	5294.43
2381.153	5269.92
2384.971	5245.37
2388.785	5220.87
2392.595	5196.87
2396.402	5170.14
2400.206	5143.08
2404.007	5114.62
2407.804	5085.16
2411.597	5054.67
2415.388	5022.92
2419.174	4989.29
2422.958	4955.27
2426.738	4922.17
2430.515	4888.19
2434.289	4856.79
2438.059	4825.57
2441.825	4796.44
2445.589	4768.22
2449.349	4740.46
2453.106	4714.76
2456.859	4689.54
2460.61	4664.75
2464.356	4643.22
2468.1	4621.06
2471.84	4599.17
2475.577	4578.67
2479.311	4559.08
2483.041	4540.21
2486.768	4521.22
2490.492	4502.17
2494.213	4484.52
2497.93	4468.08
2501.644	4452.78
2505.355	4438.1
2509.062	4424.16
2512.766	4410.49
2516.467	4396.35
2520.165	4382.1
2523.859	4367
2527.551	4351.83
2531.239	4334.87
2534.923	4317.11
2538.605	4298.17
2542.283	4277.1
2545.958	4256.03
2549.63	4234.92
2553.299	4211.65
2556.964	4188.24
2560.626	4164.48
2564.285	4141.06
2567.941	4117.76
2571.594	4093.95
2575.243	4071.81
2578.89	4049.1
2582.533	4026.33
2586.173	4002.76
2589.809	3978.63
2593.443	3954.46
2597.073	3928.59
2600.701	3902.54
2604.325	3875.1
2607.946	3847.25
2611.564	3818.43
2615.178	3788.98
2618.79	3758.83
2622.398	3728.76
2626.004	3697.24
2629.606	3667.11
2633.205	3636.43
2636.801	3605.94
2640.394	3574.48
2643.983	3543.57
2647.57	3511.7
2651.153	3477.79
2654.734	3442.83
2658.311	3406.67
2661.885	3370.35
2665.456	3333.9
2669.025	3297.17
2672.589	3260.75
2676.151	3224.37
2679.71	3189.33
2683.266	3154.4
2686.819	3120.92
2690.368	3089.06
2693.915	3059.81
2697.458	3031.4
2700.999	3005.62
2704.536	2981.17
2708.071	2959.13
2711.602	2938.95
2715.13	2919.44
2718.656	2901.89
2722.178	2886.14
2725.697	2871.7
2729.214	2858.54
2732.727	2847.54
2736.237	2837.25
2739.744	2827.32
2743.249	2817.52
2746.75	2808.44
2750.248	2799.75
2753.743	2790.87
2757.236	2782.38
2760.725	2774.41
2764.211	2766.65
2767.695	2758.06
2771.175	2747.6
2774.652	2736.25
2778.127	2723.83
2781.598	2708.84
2785.067	2692.65
2788.532	2676.38
2791.995	2658.06
2795.455	2639.22
2798.911	2619.98
2802.365	2601
2805.816	2581.73
2809.264	2563.3
2812.709	2544.94
2816.151	2527.51
2819.59	2510.54
2823.026	2495.03
2826.46	2480.32
2829.89	2466.57
2833.318	2451.84
2836.742	2438.02
2840.164	2424.22
2843.583	2411.37
2846.999	2398.33
2850.412	2384.67
2853.822	2371.14
2857.229	2356.73
2860.634	2342.24
2864.035	2328.24
2867.434	2314.05
2870.83	2299.29
2874.223	2284.75
2877.613	2270.02
2881	2255.11
2884.385	2239.92
2887.766	2224.57
2891.145	2209.48
2894.521	2193.27
2897.894	2176.56
2901.264	2159.87
2904.631	2142.89
2907.996	2125.14
2911.358	2106.54
2914.717	2087.75
2918.073	2068.62
2921.426	2049.62
2924.777	2031.22
2928.124	2013.19
2931.469	1995.94
2934.811	1978.05
2938.15	1960.21
2941.487	1943.29
2944.821	1926.3
2948.152	1909.73
2951.48	1892.97
2954.805	1877.37
2958.128	1862.03
2961.447	1847.51
2964.765	1833.68
2968.079	1819.67
2971.39	1805.41
2974.699	1791.46
2978.005	1777.76
2981.308	1764.22
2984.609	1750.7
2987.907	1736.4
2991.202	1722.68
2994.494	1708.24
2997.784	1693.68
3001.07	1678.48
3004.355	1663.14
3007.636	1648.6
3010.915	1633.13
3014.191	1617.67
3017.464	1601.78
3020.734	1585.78
3024.002	1569.87
3027.267	1553.9
3030.53	1536.94
3033.789	1520.24
3037.046	1504.19
3040.301	1487.68
3043.552	1472.22
3046.801	1456.4
3050.048	1441.41
3053.291	1426.86
3056.532	1413.65
3059.771	1399.95
3063.006	1387.21
3066.239	1375.4
3069.469	1363.63
3072.697	1353.22
3075.922	1342
3079.144	1332.02
3082.364	1321.86
3085.581	1311.92
3088.795	1302.65
3092.007	1293.1
3095.216	1283.32
3098.423	1274
3101.627	1264.46
3104.828	1254.59
3108.026	1245.52
3111.222	1235.43
3114.416	1225.75
3117.607	1215.81
3120.795	1205.95
3123.98	1195.76
3127.163	1185.98
3130.344	1175.62
3133.521	1164.63
3136.696	1153.94
3139.869	1142.86
3143.039	1132.25
3146.206	1120.81
3149.371	1108.87
3152.533	1097.25
3155.693	1084.73
3158.85	1072
3162.005	1059.43
3165.157	1046.54
3168.306	1033.43
3171.453	1020.62
3174.597	1007.38
3177.739	994.38
3180.878	981.52
3184.014	968.81
3187.149	956
3190.28	943.02
3193.409	930.62
3196.536	918.32
3199.659	906.35
3202.781	894.86
3205.9	883.37
3209.016	872.21
3212.13	861.06
3215.241	850.78
3218.35	840.48
3221.456	830.41
3224.56	820.83
3227.661	811.38
3230.76	802.14
3233.856	793.17
3236.95	784.57
3240.041	775.94
3243.13	768.11
3246.216	759.75
3249.3	751.92
3252.382	744.29
3255.46	737.35
3258.537	729.89
3261.611	722.89
3264.682	715.75
3267.751	708.98
3270.818	701.78
3273.882	694.46
3276.943	687.27
3280.002	679.92
3283.059	672.32
3286.113	664.76
3289.165	656.84
3292.214	649.11
3295.261	641.13
3298.306	633.11
3301.348	624.94
3304.387	617
3307.425	608.48
3310.459	600.32
3313.492	592.29
3316.521	584.4
3319.549	576.62
3322.574	569.21
3325.597	562.1
3328.617	555.25
3331.635	548.32
3334.65	541.68
3337.663	535.19
3340.674	528.94
3343.682	522.71
3346.688	516.59
3349.691	510.7
3352.692	504.86
3355.691	498.68
3358.687	492.86
3361.681	486.56
3364.673	480.08
3367.662	473.76
3370.649	467.4
3373.633	461.16
3376.615	454.48
3379.595	448.06
3382.572	441.35
3385.547	434.97
3388.52	428.56
3391.49	422.44
3394.458	416.13
3397.424	410.62
3400.387	404.7
3403.348	398.95
3406.307	393.19
3409.263	387.51
3412.217	381.94
3415.168	376.24
3418.118	370.68
3421.065	365.06
3424.009	359.7
3426.951	354.38
3429.891	348.71
3432.829	343.08
3435.764	337.08
3438.697	331.32
3441.628	325.21
3444.557	319.24
3447.483	312.9
3450.407	306.51
3453.328	300.29
3456.247	294.24
3459.164	287.71
3462.079	281.51
3464.991	275.65
3467.902	269.76
3470.809	264.25
3473.715	258.87
3476.618	253.43
3479.519	248.06
3482.418	242.63
3485.315	237.63
3488.209	232.48
3491.101	227.11
3493.99	221.7
3496.878	216.56
3499.763	211.33
3502.646	206.19
3505.527	201.02
3508.405	195.67
3511.281	190.51
3514.155	184.97
3517.027	179.27
3519.897	173.43
3522.764	167.57
3525.629	161.38
3528.492	155.3
3531.352	149.14
3534.211	142.97
3537.067	136.89
3539.921	131.17
3542.773	125.43
3545.622	119.71
3548.469	114.22
3551.315	108.86
3554.157	103.56
3556.998	98.62
3559.837	93.65
3562.673	88.52
3565.507	83.43
3568.339	79.14
3571.169	74.6
3573.996	70.21
3576.822	65.84
3579.645	61.76
3582.466	57.79
3585.285	54.06
3588.101	50.38
3590.916	46.52
3593.728	42.56
3596.538	38.78
3599.346	35.14
3602.152	31.54
3604.956	28.03
3607.757	24.62
3610.556	21.51
3613.354	18.52
3616.149	15.56
3618.942	12.62
3621.732	10.13
3624.521	7.63
3627.307	4.95
3630.092	2.43
3632.874	0.06
3635.654	-2.29
3638.432	-4.7
3641.208	-6.95
3643.982	-9.44
3646.753	-11.67
3649.523	-13.75
3652.29	-15.76
3655.055	-17.71
3657.818	-19.56
3660.579	-21.49
3663.338	-23.3
3666.095	-25.21
3668.849	-27.16
3671.602	-29
3674.352	-30.68
3677.101	-32.25
3679.847	-33.94
3682.591	-35.38
3685.333	-36.81
3688.073	-38.06
3690.811	-39.59
3693.547	-40.71
3696.281	-41.81
3699.013	-43.03
3701.742	-44.1
3704.47	-45.16
3707.195	-46.27
3709.919	-47.08
3712.64	-48.1
3715.359	-49.35
3718.076	-50.35
3720.792	-51.44
3723.505	-52.49
3726.216	-53.56
3728.925	-54.62
3731.632	-55.73
3734.336	-56.87
3737.039	-57.92
3739.74	-59.11
3742.439	-60.24
3745.136	-61.48
3747.83	-62.41
3750.523	-63.63
3753.213	-64.67
3755.902	-65.83
3758.589	-66.87
3761.273	-68.22
3763.956	-69.44
3766.636	-70.87
3769.315	-72.06
3771.991	-73.38
3774.665	-74.49
3777.338	-75.92
3780.008	-77.33
3782.677	-78.63
3785.343	-79.97
3788.007	-81.37
3790.67	-82.71
3793.33	-84.24
3795.989	-85.44
3798.645	-86.84
3801.299	-88.27
3803.952	-89.79
3806.602	-91.24
3809.251	-92.92
3811.897	-94.25
3814.542	-95.81
3817.184	-96.97
3819.825	-98.43
3822.463	-99.81
3825.1	-101.48
3827.735	-103
3830.367	-104.63
3832.998	-106.14
3835.627	-107.78
3838.253	-109.35
3840.878	-110.71
3843.501	-112.16
3846.122	-113.73
3848.741	-115.1
3851.358	-116.79
3853.973	-118.4
3856.586	-119.76
3859.197	-121.19
3861.806	-122.63
3864.414	-124.1
3867.019	-125.68
3869.622	-127.27
3872.224	-129.13
3874.823	-130.76
3877.421	-132.33
3880.016	-133.6
3882.61	-134.92
3885.202	-136.43
3887.792	-137.81
3890.38	-139.05
3892.966	-140.49
3895.55	-142.08
3898.132	-143.56
3900.713	-144.89
3903.291	-146.32
3905.868	-147.65
3908.442	-149.03
3911.015	-150.4
3913.586	-151.7
3916.155	-153
3918.722	-154.21
3921.287	-155.29
3923.85	-156.25
3926.411	-157.11
3928.971	-157.86
3931.528	-158.63
3934.084	-159.52
3936.638	-160.19
3939.19	-160.71
3941.74	-161.25
3944.288	-161.84
3946.834	-162.19
3949.378	-162.59
3951.921	-162.9
3954.462	-163.25
3957	-163.38
3959.537	-163.59
3962.072	-163.62
3964.606	-163.54
3967.137	-163.48
3969.667	-163.41
3972.194	-163.19
3974.72	-163.02
3977.244	-162.73
3979.766	-162.54
3982.286	-162.25
3984.805	-162.06
3987.321	-161.76
3989.836	-161.6
3992.349	-161.51
3994.86	-161.43
3997.369	-161.27
3999.877	-161.21
4002.382	-161.05
4004.886	-160.94
4007.388	-160.86
4009.888	-160.92
4012.386	-161
4014.883	-161.05
4017.377	-161.3
4019.87	-161.48
4022.361	-161.62
4024.85	-161.97
4027.338	-162.22
4029.823	-162.57
4032.307	-162.7
4034.789	-162.94
4037.269	-163.17
4039.747	-163.48
4042.224	-163.75
4044.699	-164
4047.172	-164.17
4049.643	-164.4
4052.112	-164.6
4054.58	-164.84
4057.046	-165.08
4059.51	-165.29
4061.972	-165.49
4064.432	-165.54
4066.891	-165.75
4069.348	-165.9
4071.803	-167.54
4074.256	-169.21
4076.708	-170.59
4079.158	-172.19
4081.606	-169.22
4084.052	-166.08
4086.497	-162.37
4088.939	-157.98
4091.38	-153.11
4093.819	-147.4
4096.257	-147.48
4098.693	-147.44
4101.127	-147.6
4103.559	-147.59
4105.989	-147.62
4108.418	-147.79
4110.845	-149.24
4113.27	-150.67
4115.694	-152.16
4118.115	-153.54
4120.535	-152.9
4122.954	-150.51
4125.37	-147.8
4127.785	-144.96
4130.198	-141.63
4132.609	-144.13
4135.019	-147.4
4137.427	-152.1
4139.833	-158.53
4142.237	-167.18
