Data from 10 mM HCl ref original_RamanShift_3.txt Node
Date: Wed Aug 02 17:12:27 IDT 2017
User: aro
Spectrometer: QEPB0276
Trigger mode: 0
Integration Time (sec): 5.000000E0
Scans to average: 3
Electric dark correction enabled: true
Nonlinearity correction enabled: false
Boxcar width: 10
XAxis mode: Raman Shifts
Number of Pixels in Spectrum: 1044
>>>>>Begin Spectral Data<<<<<
160.701	3611.06
166.742	4026.68
172.777	4407.56
178.805	4748.05
184.826	5038.57
190.841	5271.46
196.849	5449.36
202.85	5582.42
208.845	5680.16
214.833	5754.56
220.815	5812.17
226.789	6138.06
232.758	6458
238.719	6769.19
244.674	7060.17
250.623	7305.65
256.565	7469.76
262.5	7536.71
268.429	7528.41
274.351	7481.12
280.267	7411.27
286.176	7320.95
292.079	7205.17
297.975	7069.51
303.865	6923.76
309.748	6779.68
315.625	6651.97
321.495	6547.55
327.359	6465.41
333.217	6403.12
339.068	6354.97
344.912	6317.11
350.751	6287.08
356.583	6263.59
362.408	6244.54
368.227	6229.71
374.04	6218.05
379.847	6208.71
385.647	6201.63
391.44	6197.98
397.228	6197.3
403.009	6199.74
408.784	6204.52
414.553	6213.49
420.315	6224.76
426.071	6238.54
431.821	6253.32
437.565	6270.01
443.302	6286.82
449.033	6304.27
454.758	6325.27
460.477	6350.25
466.189	6381.3
471.896	6414
477.596	6442.63
483.29	6469.6
488.978	6494.71
494.66	6520.39
500.335	6547.19
506.005	6575.08
511.668	6604.76
517.325	6634.3
522.977	6663.87
528.622	6692.81
534.261	6721.24
539.894	6750.12
545.521	6777
551.141	6805.01
556.756	6832.47
562.365	6861.12
567.968	6891.35
573.565	6920.79
579.155	6948.09
584.74	6974.08
590.319	7001.55
595.892	7035.98
601.459	7073.92
607.02	7113.6
612.575	7151.22
618.124	7187.54
623.667	7221.54
629.204	7250.84
634.735	7278.49
640.261	7304.73
645.781	7329.2
651.294	7352.95
656.802	7375.49
662.304	7399.66
667.8	7423.63
673.29	7447.38
678.775	7469.59
684.254	7489.24
689.726	7504.55
695.193	7515.09
700.655	7520.59
706.11	7523.57
711.56	7521.82
717.004	7518.27
722.442	7515.41
727.874	7517.14
733.301	7521.46
738.722	7529.09
744.137	7539.28
749.547	7549.33
754.951	7559.2
760.349	7570.16
765.741	7580.47
771.128	7590.9
776.509	7601.41
781.885	7614.01
787.254	7626.81
792.618	7641.7
797.977	7660.3
803.33	7681.97
808.677	7708.46
814.019	7736.76
819.355	7766.01
824.686	7795.01
830.011	7823.43
835.33	7848.28
840.644	7868.06
845.952	7885.92
851.255	7901.76
856.552	7916.7
861.844	7933.38
867.13	7953.6
872.41	7974.51
877.686	7997.89
882.955	8023.54
888.219	8049.71
893.478	8073.74
898.731	8098.43
903.979	8118.6
909.221	8133.49
914.458	8142.3
919.69	8144.13
924.916	8139.84
930.136	8130.25
935.351	8118.74
940.561	8108.73
945.766	8103.51
950.965	8104.3
956.158	8109.11
961.347	8120.63
966.529	8135.62
971.707	8152.11
976.879	8167.28
982.046	8181.3
987.208	8192.03
992.364	8196.73
997.515	8195.6
1002.66	8190.22
1007.801	8179.97
1012.936	8170.73
1018.066	8161.82
1023.19	8158.41
1028.309	8162.6
1033.423	8172.33
1038.532	8187.9
1043.636	8208.74
1048.734	8229.76
1053.827	8249.6
1058.915	8263.49
1063.998	8271.41
1069.075	8269.01
1074.147	8262.36
1079.214	8248.22
1084.276	8230.39
1089.333	8211.19
1094.385	8193.66
1099.431	8180.49
1104.472	8172.95
1109.509	8172.39
1114.54	8174.47
1119.565	8178.54
1124.586	8184.92
1129.602	8190.09
1134.613	8189.41
1139.618	8183.6
1144.619	8173.54
1149.614	8160.95
1154.604	8146.49
1159.589	8134.14
1164.57	8127.47
1169.545	8126.92
1174.515	8133.62
1179.48	8146.12
1184.44	8165.84
1189.395	8190.39
1194.345	8217.33
1199.29	8243.86
1204.23	8265.49
1209.165	8281.17
1214.095	8286.11
1219.021	8286.22
1223.941	8280.76
1228.856	8271.25
1233.766	8260.73
1238.672	8254.32
1243.572	8251.68
1248.467	8252.55
1253.358	8254.86
1258.244	8260.01
1263.124	8263.35
1268	8264.93
1272.871	8261.3
1277.737	8250.52
1282.599	8228.35
1287.455	8194.08
1292.306	8150.65
1297.153	8100.16
1301.995	8046.52
1306.832	7997.68
1311.664	7956.51
1316.491	7929.41
1321.314	7916.44
1326.132	7914.27
1330.945	7919.9
1335.753	7926.52
1340.556	7927.52
1345.354	7922.39
1350.148	7905.81
1354.937	7879.84
1359.722	7842.17
1364.501	7800
1369.276	7753.24
1374.046	7706.62
1378.811	7663.08
1383.572	7627.28
1388.327	7602.78
1393.079	7587.73
1397.825	7580.65
1402.567	7577.68
1407.304	7572.98
1412.036	7563.78
1416.764	7545.22
1421.487	7512.39
1426.205	7470.74
1430.919	7420.47
1435.628	7368.7
1440.333	7320.57
1445.032	7279.19
1449.727	7248.76
1454.418	7229.08
1459.104	7221.27
1463.785	7219.28
1468.462	7222.89
1473.134	7230.01
1477.802	7238.98
1482.465	7246.63
1487.123	7250.9
1491.777	7251.08
1496.426	7246.52
1501.071	7237.65
1505.711	7227.25
1510.347	7215.2
1514.978	7203.87
1519.604	7196.54
1524.226	7190.41
1528.844	7187.24
1533.457	7185.9
1538.065	7183.95
1542.669	7179.47
1547.269	7170.32
1551.864	7154.44
1556.454	7130.32
1561.041	7096.59
1565.622	7056.25
1570.199	7009.08
1574.772	6958.9
1579.34	6907.17
1583.904	6856.35
1588.464	6807.87
1593.019	6764.2
1597.569	6725.06
1602.115	6692.51
1606.657	6663.52
1611.195	6639.59
1615.728	6619.27
1620.256	6599.46
1624.78	6578.12
1629.3	6553.16
1633.816	6524.24
1638.327	6490.59
1642.834	6453.6
1647.336	6415.51
1651.834	6381.78
1656.328	6358.55
1660.817	6342.7
1665.302	6332.24
1669.783	6322.97
1674.259	6311.09
1678.732	6295.65
1683.199	6275.9
1687.663	6251.13
1692.122	6222.36
1696.577	6184.84
1701.028	6143.11
1705.474	6093.19
1709.917	6036.2
1714.355	5977
1718.788	5915.71
1723.218	5855.65
1727.643	5798.66
1732.064	5747.12
1736.481	5704.39
1740.893	5667.33
1745.301	5634.59
1749.705	5602.7
1754.105	5569.55
1758.501	5538.57
1762.893	5508.87
1767.28	5482.81
1771.663	5457.06
1776.042	5430.41
1780.417	5403.52
1784.787	5375.46
1789.154	5349.52
1793.516	5323.2
1797.874	5300.52
1802.228	5281.09
1806.578	5263.14
1810.924	5248.65
1815.266	5236.41
1819.603	5226.01
1823.937	5216.74
1828.266	5204.54
1832.591	5190.17
1836.913	5171.95
1841.23	5147.74
1845.543	5119.36
1849.852	5087.68
1854.156	5053.9
1858.457	5020.49
1862.754	4990.33
1867.047	4964.93
1871.335	4943.52
1875.62	4925.79
1879.9	4913.09
1884.177	4905.17
1888.449	4900.55
1892.718	4897.84
1896.982	4896.74
1901.243	4896.22
1905.499	4895.05
1909.752	4891.81
1914	4887.17
1918.245	4879.47
1922.485	4869.35
1926.722	4855.93
1930.954	4840.27
1935.183	4824.35
1939.408	4806.74
1943.628	4788.12
1947.845	4768.16
1952.058	4748.51
1956.267	4727.93
1960.472	4706.06
1964.673	4684.49
1968.87	4659.7
1973.063	4633.16
1977.252	4603.16
1981.438	4571.46
1985.619	4536.66
1989.797	4501.43
1993.971	4461.74
1998.14	4421.51
2002.306	4380.97
2006.469	4341.84
2010.627	4305.22
2014.781	4272.05
2018.932	4241.51
2023.078	4213.01
2027.221	4186.12
2031.36	4163.11
2035.495	4143.06
2039.627	4123.86
2043.754	4105.78
2047.878	4088.05
2051.998	4069.81
2056.114	4051.22
2060.226	4032.38
2064.334	4014.6
2068.439	3996.51
2072.54	3979.82
2076.637	3961.79
2080.73	3947.81
2084.82	3935.98
2088.906	3924.44
2092.988	3913.03
2097.066	3902.06
2101.14	3890.63
2105.211	3878.35
2109.278	3864.2
2113.342	3849.97
2117.401	3832.86
2121.457	3813.51
2125.509	3791.41
2129.558	3767.55
2133.602	3741.7
2137.643	3714.35
2141.681	3686.84
2145.714	3658.44
2149.744	3630.09
2153.77	3601.43
2157.793	3573.44
2161.812	3547.09
2165.827	3521.35
2169.838	3495.19
2173.846	3469.9
2177.851	3446.44
2181.851	3422.47
2185.848	3399.46
2189.841	3377.46
2193.831	3356.9
2197.817	3335.52
2201.799	3314.47
2205.778	3293.2
2209.753	3273.05
2213.725	3252.97
2217.693	3234.39
2221.657	3217.36
2225.618	3200.63
2229.575	3184.24
2233.529	3167.54
2237.479	3151.84
2241.425	3135.57
2245.368	3118.54
2249.307	3100.17
2253.243	3081.73
2257.175	3061.59
2261.104	3040.46
2265.029	3018.6
2268.95	2993.76
2272.868	2968.28
2276.783	2940.36
2280.694	2912.51
2284.601	2884.36
2288.505	2856.08
2292.405	2828.71
2296.302	2801.54
2300.195	2774.25
2304.085	2747.22
2307.971	2721.63
2311.854	2696.44
2315.734	2673.17
2319.609	2650.28
2323.482	2628.82
2327.351	2608.06
2331.216	2588.44
2335.078	2569.22
2338.937	2552.13
2342.792	2535.03
2346.643	2518.9
2350.492	2503.73
2354.336	2488.55
2358.178	2475.54
2362.015	2463.28
2365.85	2451.63
2369.681	2441.35
2373.508	2431.38
2377.333	2421.76
2381.153	2413.39
2384.971	2404.52
2388.785	2395.36
2392.595	2387.39
2396.402	2377.87
2400.206	2367.41
2404.007	2356.55
2407.804	2345.44
2411.597	2333.97
2415.388	2321.76
2419.174	2308.62
2422.958	2295.38
2426.738	2281.54
2430.515	2268.62
2434.289	2255.62
2438.059	2242.9
2441.825	2231
2445.589	2220.19
2449.349	2209.36
2453.106	2198.82
2456.859	2189.24
2460.61	2179.3
2464.356	2170.47
2468.1	2161.86
2471.84	2153.12
2475.577	2144.59
2479.311	2137.63
2483.041	2130.3
2486.768	2122.97
2490.492	2116.19
2494.213	2109.05
2497.93	2102.9
2501.644	2097
2505.355	2091.47
2509.062	2085.7
2512.766	2081.63
2516.467	2077.33
2520.165	2072.7
2523.859	2067.41
2527.551	2062.11
2531.239	2056.35
2534.923	2049.57
2538.605	2042.87
2542.283	2035.38
2545.958	2027.2
2549.63	2018.39
2553.299	2009.44
2556.964	2000.39
2560.626	1991.6
2564.285	1982.39
2567.941	1971.97
2571.594	1963.52
2575.243	1954.9
2578.89	1946.62
2582.533	1937.86
2586.173	1929.86
2589.809	1920.52
2593.443	1911.16
2597.073	1901.24
2600.701	1890.74
2604.325	1879.52
2607.946	1868.19
2611.564	1856.41
2615.178	1844.22
2618.79	1832
2622.398	1820.28
2626.004	1808.27
2629.606	1796.25
2633.205	1782.9
2636.801	1769.06
2640.394	1755.97
2643.983	1743.66
2647.57	1729.46
2651.153	1714.86
2654.734	1699.9
2658.311	1684.65
2661.885	1668.79
2665.456	1652.82
2669.025	1636.49
2672.589	1620
2676.151	1604.01
2679.71	1588.68
2683.266	1573.06
2686.819	1558.68
2690.368	1545.2
2693.915	1532.28
2697.458	1519.78
2700.999	1508.33
2704.536	1498.43
2708.071	1490.43
2711.602	1483.98
2715.13	1477.32
2718.656	1471.76
2722.178	1467.47
2725.697	1463.52
2729.214	1460.28
2732.727	1457.71
2736.237	1455.32
2739.744	1453.84
2743.249	1451.87
2746.75	1450.35
2750.248	1449.32
2753.743	1448.54
2757.236	1447.9
2760.725	1447.76
2764.211	1447
2767.695	1446.11
2771.175	1444.55
2774.652	1442.32
2778.127	1439.2
2781.598	1434.6
2785.067	1429
2788.532	1423.73
2791.995	1417.52
2795.455	1410.79
2798.911	1403.97
2802.365	1396.74
2805.816	1390.08
2809.264	1383.95
2812.709	1378.19
2816.151	1373.92
2819.59	1370.01
2823.026	1366.28
2826.46	1363.39
2829.89	1361.74
2833.318	1360.39
2836.742	1359.16
2840.164	1358.74
2843.583	1358.65
2846.999	1358.78
2850.412	1358.51
2853.822	1359.17
2857.229	1359.6
2860.634	1359.9
2864.035	1360.62
2867.434	1361.89
2870.83	1363.06
2874.223	1364.79
2877.613	1367
2881	1368.55
2884.385	1371.08
2887.766	1373.24
2891.145	1375.03
2894.521	1377.06
2897.894	1378.24
2901.264	1378.41
2904.631	1378.17
2907.996	1376.54
2911.358	1374.06
2914.717	1370.47
2918.073	1366.01
2921.426	1360.74
2924.777	1354.35
2928.124	1347.74
2931.469	1340.16
2934.811	1331.9
2938.15	1322.68
2941.487	1313.39
2944.821	1303.25
2948.152	1292.2
2951.48	1280.57
2954.805	1267.78
2958.128	1254.49
2961.447	1241.63
2964.765	1227.39
2968.079	1213.57
2971.39	1199.47
2974.699	1184.57
2978.005	1171.01
2981.308	1156.86
2984.609	1143.38
2987.907	1129.93
2991.202	1117.01
2994.494	1104.28
2997.784	1091.06
3001.07	1078.44
3004.355	1065.63
3007.636	1052.74
3010.915	1040.01
3014.191	1027.6
3017.464	1015.16
3020.734	1003.47
3024.002	991.38
3027.267	979.63
3030.53	967.98
3033.789	957.22
3037.046	946.22
3040.301	935.81
3043.552	925.24
3046.801	915.27
3050.048	905.89
3053.291	896.66
3056.532	888.43
3059.771	880.46
3063.006	872.93
3066.239	866.36
3069.469	859.97
3072.697	853.98
3075.922	848.66
3079.144	843.27
3082.364	837.62
3085.581	832.68
3088.795	827.49
3092.007	822.73
3095.216	817.44
3098.423	812.68
3101.627	807.55
3104.828	802.84
3108.026	797.63
3111.222	793.22
3114.416	788.24
3117.607	783.19
3120.795	777.79
3123.98	772.32
3127.163	766.78
3130.344	760.9
3133.521	754.87
3136.696	749.05
3139.869	742.59
3143.039	736.36
3146.206	729.68
3149.371	723.57
3152.533	716.65
3155.693	709.78
3158.85	702.38
3162.005	695.17
3165.157	687.3
3168.306	679.89
3171.453	672.01
3174.597	664.3
3177.739	656.44
3180.878	648.66
3184.014	641.2
3187.149	634.01
3190.28	626.65
3193.409	619.3
3196.536	612.19
3199.659	605.01
3202.781	597.92
3205.9	591.39
3209.016	584.66
3212.13	578.47
3215.241	572.01
3218.35	565.78
3221.456	559.74
3224.56	554.08
3227.661	548.81
3230.76	543.7
3233.856	538.11
3236.95	533.05
3240.041	528.11
3243.13	523.25
3246.216	518.54
3249.3	513.79
3252.382	509.47
3255.46	504.82
3258.537	500.6
3261.611	496.35
3264.682	492.36
3267.751	488.09
3270.818	483.57
3273.882	479.14
3276.943	474.59
3280.002	470.03
3283.059	465.66
3286.113	461.24
3289.165	456.44
3292.214	451.17
3295.261	445.79
3298.306	440.97
3301.348	435.6
3304.387	430.28
3307.425	424.81
3310.459	419.36
3313.492	414.09
3316.521	408.79
3319.549	403.97
3322.574	399.24
3325.597	394.66
3328.617	390.06
3331.635	385.55
3334.65	381.33
3337.663	377.03
3340.674	372.82
3343.682	368.54
3346.688	364.05
3349.691	359.82
3352.692	355.7
3355.691	351.74
3358.687	347.68
3361.681	343.35
3364.673	339.01
3367.662	334.47
3370.649	330.16
3373.633	325.66
3376.615	320.93
3379.595	316.2
3382.572	311.87
3385.547	307.39
3388.52	302.74
3391.49	298.08
3394.458	293.6
3397.424	289.32
3400.387	285.33
3403.348	281.36
3406.307	277.62
3409.263	273.66
3412.217	269.79
3415.168	265.97
3418.118	262.09
3421.065	258.32
3424.009	254.62
3426.951	250.62
3429.891	246.54
3432.829	242.33
3435.764	238.17
3438.697	234.19
3441.628	229.86
3444.557	225.2
3447.483	220.62
3450.407	216.14
3453.328	211.76
3456.247	207.28
3459.164	202.87
3462.079	198.49
3464.991	194.06
3467.902	189.65
3470.809	185.46
3473.715	181.12
3476.618	177.09
3479.519	173.08
3482.418	169.24
3485.315	165.28
3488.209	161.43
3491.101	157.7
3493.99	154.12
3496.878	150.54
3499.763	146.6
3502.646	142.87
3505.527	139.03
3508.405	135.03
3511.281	131.14
3514.155	127.2
3517.027	123.11
3519.897	118.95
3522.764	114.36
3525.629	109.98
3528.492	105.54
3531.352	101.22
3534.211	96.92
3537.067	92.54
3539.921	88.36
3542.773	84.09
3545.622	80.01
3548.469	76.22
3551.315	72.38
3554.157	68.46
3556.998	64.51
3559.837	60.98
3562.673	57.41
3565.507	53.71
3568.339	50.12
3571.169	46.73
3573.996	43.44
3576.822	40.39
3579.645	37.35
3582.466	34.49
3585.285	31.55
3588.101	28.81
3590.916	25.87
3593.728	23.05
3596.538	20.16
3599.346	17.36
3602.152	14.74
3604.956	12
3607.757	9.44
3610.556	6.97
3613.354	4.78
3616.149	2.68
3618.942	0.46
3621.732	-1.62
3624.521	-3.32
3627.307	-5
3630.092	-6.95
3632.874	-8.92
3635.654	-10.8
3638.432	-12.54
3641.208	-14.19
3643.982	-15.81
3646.753	-17.53
3649.523	-19.07
3652.29	-20.64
3655.055	-21.95
3657.818	-23.4
3660.579	-24.91
3663.338	-26.22
3666.095	-27.72
3668.849	-29.07
3671.602	-30.43
3674.352	-31.7
3677.101	-33.05
3679.847	-34.3
3682.591	-35.41
3685.333	-36.37
3688.073	-37.3
3690.811	-38.19
3693.547	-39
3696.281	-39.88
3699.013	-40.81
3701.742	-41.59
3704.47	-42.34
3707.195	-43.03
3709.919	-43.73
3712.64	-44.75
3715.359	-45.43
3718.076	-46.32
3720.792	-47.21
3723.505	-48.03
3726.216	-48.95
3728.925	-49.83
3731.632	-50.72
3734.336	-51.48
3737.039	-52.35
3739.74	-53.35
3742.439	-54.3
3745.136	-55.16
3747.83	-55.97
3750.523	-56.89
3753.213	-57.84
3755.902	-58.8
3758.589	-59.78
3761.273	-60.64
3763.956	-61.53
3766.636	-62.49
3769.315	-63.22
3771.991	-64.32
3774.665	-65.13
3777.338	-66.03
3780.008	-66.99
3782.677	-67.92
3785.343	-68.88
3788.007	-69.99
3790.67	-71.02
3793.33	-72
3795.989	-72.81
3798.645	-73.94
3801.299	-74.94
3803.952	-75.91
3806.602	-76.92
3809.251	-78.1
3811.897	-79.1
3814.542	-80.14
3817.184	-81.24
3819.825	-82.38
3822.463	-83.53
3825.1	-84.81
3827.735	-85.83
3830.367	-87.18
3832.998	-88.3
3835.627	-89.56
3838.253	-90.65
3840.878	-91.89
3843.501	-92.86
3846.122	-93.97
3848.741	-95.22
3851.358	-96.49
3853.973	-97.7
3856.586	-98.81
3859.197	-100.1
3861.806	-101.4
3864.414	-102.56
3867.019	-103.8
3869.622	-105.18
3872.224	-106.46
3874.823	-107.76
3877.421	-109.07
3880.016	-110.14
3882.61	-111.48
3885.202	-112.41
3887.792	-113.72
3890.38	-114.72
3892.966	-115.81
3895.55	-117.02
3898.132	-118.3
3900.713	-119.45
3903.291	-120.46
3905.868	-121.62
3908.442	-122.62
3911.015	-123.73
3913.586	-124.75
3916.155	-125.73
3918.722	-126.68
3921.287	-127.48
3923.85	-128.07
3926.411	-128.81
3928.971	-129.43
3931.528	-129.95
3934.084	-130.72
3936.638	-131.13
3939.19	-131.78
3941.74	-132.07
3944.288	-132.51
3946.834	-132.68
3949.378	-132.99
3951.921	-133.22
3954.462	-133.41
3957	-133.59
3959.537	-133.73
3962.072	-133.81
3964.606	-133.68
3967.137	-133.67
3969.667	-133.61
3972.194	-133.41
3974.72	-133.45
3977.244	-133.43
3979.766	-133.3
3982.286	-133.19
3984.805	-133.1
3987.321	-132.75
3989.836	-132.65
3992.349	-132.46
3994.86	-132.49
3997.369	-132.41
3999.877	-132.59
4002.382	-132.57
4004.886	-132.56
4007.388	-132.67
4009.888	-132.78
4012.386	-132.92
4014.883	-133.03
4017.377	-133.43
4019.87	-133.56
4022.361	-133.75
4024.85	-134.03
4027.338	-134.16
4029.823	-134.45
4032.307	-134.75
4034.789	-135.08
4037.269	-135.4
4039.747	-135.76
4042.224	-136.05
4044.699	-136.37
4047.172	-136.62
4049.643	-136.91
4052.112	-137.22
4054.58	-137.45
4057.046	-137.7
4059.51	-137.88
4061.972	-138.08
4064.432	-138.13
4066.891	-138.35
4069.348	-138.48
4071.803	-139.54
4074.256	-140.59
4076.708	-141.45
4079.158	-142.56
4081.606	-140.3
4084.052	-137.86
4086.497	-135.02
4088.939	-131.67
4091.38	-127.86
4093.819	-123.24
4096.257	-123.3
4098.693	-123.29
4101.127	-123.3
4103.559	-123.29
4105.989	-123.29
4108.418	-123.38
4110.845	-124.18
4113.27	-124.97
4115.694	-125.88
4118.115	-126.59
4120.535	-125.96
4122.954	-124.3
4125.37	-122.41
4127.785	-120.46
4130.198	-118.02
4132.609	-119.79
4135.019	-122.09
4137.427	-125.34
4139.833	-129.99
4142.237	-136.48
