Data from ref PSIH_RamanShift_1.txt Node
Date: Wed Aug 02 16:22:59 IDT 2017
User: aro
Spectrometer: QEPB0276
Trigger mode: 0
Integration Time (sec): 5.000000E0
Scans to average: 3
Electric dark correction enabled: true
Nonlinearity correction enabled: false
Boxcar width: 10
XAxis mode: Raman Shifts
Number of Pixels in Spectrum: 1044
>>>>>Begin Spectral Data<<<<<
160.701	734.29
166.742	806.46
172.777	871.57
178.805	930.36
184.826	982.67
190.841	1030.02
196.849	1072.12
202.85	1110.55
208.845	1145.91
214.833	1179.11
220.815	1210.21
226.789	1298.07
232.758	1387.32
238.719	1477.39
244.674	1564.56
250.623	1644.16
256.565	1706.66
262.5	1748.86
268.429	1775.77
274.351	1796.7
280.267	1817.26
286.176	1836.29
292.079	1852.21
297.975	1865.75
303.865	1876.88
309.748	1887.55
315.625	1897.32
321.495	1907.26
327.359	1916.51
333.217	1925.4
339.068	1933.13
344.912	1939.83
350.751	1947.01
356.583	1953.53
362.408	1959.82
368.227	1965.42
374.04	1968.39
379.847	1970.37
385.647	1972.32
391.44	1975.91
397.228	1978.75
403.009	1979.36
408.784	1980.56
414.553	1981.99
420.315	1983.28
426.071	1984.83
431.821	1985.66
437.565	1984.72
443.302	1982.64
449.033	1981.39
454.758	1984.89
460.477	1998.45
466.189	2022.94
471.896	2050.2
477.596	2074.12
483.29	2092.4
488.978	2108.82
494.66	2125.8
500.335	2143.59
506.005	2161.86
511.668	2179.12
517.325	2196.7
522.977	2215.42
528.622	2234.43
534.261	2253.13
539.894	2271.89
545.521	2290.31
551.141	2308.02
556.756	2327.5
562.365	2347.89
567.968	2367.77
573.565	2384.42
579.155	2390.82
584.74	2386.88
590.319	2379.75
595.892	2375.51
601.459	2375.26
607.02	2375.69
612.575	2377.39
618.124	2379.82
623.667	2382.59
629.204	2385.56
634.735	2388.24
640.261	2391.42
645.781	2394.23
651.294	2397.31
656.802	2399.96
662.304	2403.82
667.8	2408.01
673.29	2411.61
678.775	2415.55
684.254	2419.23
689.726	2421.05
695.193	2423.24
700.655	2425.59
706.11	2426.47
711.56	2427.85
717.004	2429.99
722.442	2433.23
727.874	2436.56
733.301	2439.01
738.722	2441.61
744.137	2444.64
749.547	2448.26
754.951	2451.53
760.349	2454.2
765.741	2457.8
771.128	2461.31
776.509	2464.59
781.885	2469.13
787.254	2474.47
792.618	2480.69
797.977	2487.61
803.33	2494.96
808.677	2502.75
814.019	2510.61
819.355	2519.7
824.686	2528.72
830.011	2536.5
835.33	2543.2
840.644	2549.7
845.952	2556.43
851.255	2563.02
856.552	2569.5
861.844	2576.96
867.13	2585.1
872.41	2595.69
877.686	2608.16
882.955	2622.37
888.219	2639.04
893.478	2656.32
898.731	2673.29
903.979	2689.07
909.221	2702.82
914.458	2715.55
919.69	2726.28
924.916	2736.02
930.136	2744.99
935.351	2752.78
940.561	2761.51
945.766	2772.45
950.965	2784.56
956.158	2798.47
961.347	2813.78
966.529	2830.8
971.707	2848.91
976.879	2867.02
982.046	2882.59
987.208	2896.37
992.364	2908.51
997.515	2917.64
1002.66	2924.05
1007.801	2930.64
1012.936	2937.05
1018.066	2945.24
1023.19	2954.43
1028.309	2966.91
1033.423	2981.28
1038.532	2997.86
1043.636	3017.26
1048.734	3037.01
1053.827	3057.07
1058.915	3075.55
1063.998	3092.42
1069.075	3106.32
1074.147	3117.91
1079.214	3126.28
1084.276	3134.53
1089.333	3142.28
1094.385	3150.01
1099.431	3160.02
1104.472	3170.97
1109.509	3184.23
1114.54	3198.7
1119.565	3213.45
1124.586	3228.59
1129.602	3242.37
1134.613	3253.94
1139.618	3262.97
1144.619	3270.29
1149.614	3274.48
1154.604	3278.51
1159.589	3282.09
1164.57	3286.88
1169.545	3293.53
1174.515	3302.43
1179.48	3312.58
1184.44	3324.74
1189.395	3336.88
1194.345	3349.86
1199.29	3360.88
1204.23	3368.28
1209.165	3373.32
1214.095	3375.23
1219.021	3373.4
1223.941	3370.66
1228.856	3365.09
1233.766	3359.12
1238.672	3354.09
1243.572	3349.97
1248.467	3346.4
1253.358	3344.37
1258.244	3343.74
1263.124	3340.85
1268	3336.58
1272.871	3329.45
1277.737	3319.66
1282.599	3306.34
1287.455	3288.66
1292.306	3267.75
1297.153	3243.8
1301.995	3219.74
1306.832	3196.43
1311.664	3175.56
1316.491	3159.43
1321.314	3148.2
1326.132	3140.31
1330.945	3135.8
1335.753	3132.47
1340.556	3125.82
1345.354	3117.28
1350.148	3103.75
1354.937	3086.82
1359.722	3065.4
1364.501	3042.7
1369.276	3019.29
1374.046	2996.28
1378.811	2974.53
1383.572	2956.01
1388.327	2941.75
1393.079	2930.64
1397.825	2922.88
1402.567	2916.15
1407.304	2910.59
1412.036	2902.72
1416.764	2891.18
1421.487	2875.07
1426.205	2854.72
1430.919	2831.5
1435.628	2808.13
1440.333	2787.86
1445.032	2768.86
1449.727	2755.58
1454.418	2746.8
1459.104	2741.26
1463.785	2739.8
1468.462	2740.01
1473.134	2742.05
1477.802	2744.78
1482.465	2747.09
1487.123	2747.64
1491.777	2747.01
1496.426	2745.39
1501.071	2742.59
1505.711	2738.66
1510.347	2735.2
1514.978	2731.75
1519.604	2729.7
1524.226	2728.75
1528.844	2728.77
1533.457	2729.4
1538.065	2729.07
1542.669	2728.78
1547.269	2726.51
1551.864	2721.8
1556.454	2714.99
1561.041	2704.59
1565.622	2692.37
1570.199	2677.91
1574.772	2662.47
1579.34	2646.93
1583.904	2632.18
1588.464	2618.96
1593.019	2607.48
1597.569	2598.59
1602.115	2591.96
1606.657	2587.74
1611.195	2585.93
1615.728	2585.61
1620.256	2586.61
1624.78	2588.24
1629.3	2588.7
1633.816	2588.39
1638.327	2586.96
1642.834	2584.75
1647.336	2581.89
1651.834	2581.01
1656.328	2584.72
1660.817	2592.1
1665.302	2603.07
1669.783	2615.59
1674.259	2627.45
1678.732	2638.89
1683.199	2648.93
1687.663	2658.15
1692.122	2664.99
1696.577	2669.97
1701.028	2672.4
1705.474	2672.48
1709.917	2670.48
1714.355	2666.85
1718.788	2662.53
1723.218	2659.12
1727.643	2656.99
1732.064	2656.59
1736.481	2659.34
1740.893	2666.02
1745.301	2674.8
1749.705	2683.51
1754.105	2692.34
1758.501	2701.07
1762.893	2710.13
1767.28	2720.01
1771.663	2729.93
1776.042	2739.58
1780.417	2748.13
1784.787	2755.99
1789.154	2763.31
1793.516	2771.61
1797.874	2780.15
1802.228	2790.45
1806.578	2801.47
1810.924	2813.05
1815.266	2825.91
1819.603	2838.7
1823.937	2851.97
1828.266	2865.18
1832.591	2876.2
1836.913	2885.34
1841.23	2891.86
1845.543	2895.82
1849.852	2897.12
1854.156	2897.26
1858.457	2897.82
1862.754	2898.48
1867.047	2901.85
1871.335	2906.2
1875.62	2914.69
1879.9	2925.1
1884.177	2936.89
1888.449	2951.02
1892.718	2965.67
1896.982	2981.16
1901.243	2997.18
1905.499	3011.78
1909.752	3025.72
1914	3038.93
1918.245	3049.4
1922.485	3057.26
1926.722	3063.07
1930.954	3067.16
1935.183	3069.2
1939.408	3071.59
1943.628	3072.16
1947.845	3072.13
1952.058	3071.36
1956.267	3068.53
1960.472	3066.34
1964.673	3061.23
1968.87	3054.74
1973.063	3046.34
1977.252	3035.94
1981.438	3023.04
1985.619	3008.64
1989.797	2991.99
1993.971	2972.88
1998.14	2953.26
2002.306	2932.77
2006.469	2912.7
2010.627	2894.77
2014.781	2877.21
2018.932	2861.26
2023.078	2846.91
2027.221	2833.15
2031.36	2822.05
2035.495	2811.61
2039.627	2802.82
2043.754	2794.47
2047.878	2785.23
2051.998	2777.12
2056.114	2768.99
2060.226	2759.75
2064.334	2750.28
2068.439	2741.82
2072.54	2732.42
2076.637	2724.05
2080.73	2717.97
2084.82	2711.85
2088.906	2706.36
2092.988	2700.55
2097.066	2694.56
2101.14	2688.74
2105.211	2682.37
2109.278	2674.94
2113.342	2665.93
2117.401	2654.56
2121.457	2641.64
2125.509	2626.66
2129.558	2610.55
2133.602	2593.01
2137.643	2573.4
2141.681	2553.32
2145.714	2533.75
2149.744	2514.32
2153.77	2493.86
2157.793	2471.58
2161.812	2452.47
2165.827	2433.55
2169.838	2415.74
2173.846	2399.24
2177.851	2383.72
2181.851	2367.83
2185.848	2352.83
2189.841	2337.99
2193.831	2324.48
2197.817	2312.18
2201.799	2300.43
2205.778	2288.93
2209.753	2277.82
2213.725	2267.16
2217.693	2257.64
2221.657	2249.23
2225.618	2241.28
2229.575	2234.43
2233.529	2227.63
2237.479	2221.48
2241.425	2217.82
2245.368	2211.53
2249.307	2204.51
2253.243	2196.59
2257.175	2187.75
2261.104	2178.26
2265.029	2168.8
2268.95	2157.56
2272.868	2146.2
2276.783	2133.94
2280.694	2119.94
2284.601	2106.48
2288.505	2093.16
2292.405	2080.48
2296.302	2068.61
2300.195	2057.09
2304.085	2045.96
2307.971	2035.59
2311.854	2025.32
2315.734	2016.12
2319.609	2007.42
2323.482	2000.23
2327.351	1994.01
2331.216	1988.64
2335.078	1984.4
2338.937	1980.83
2342.792	1977.39
2346.643	1975.09
2350.492	1973.56
2354.336	1972.77
2358.178	1972.2
2362.015	1973.01
2365.85	1974.37
2369.681	1976.42
2373.508	1978.75
2377.333	1981.47
2381.153	1985.34
2384.971	1989.51
2388.785	1993.01
2392.595	1996.67
2396.402	1999.88
2400.206	2003.51
2404.007	2006.77
2407.804	2008.75
2411.597	2010.66
2415.388	2011.91
2419.174	2012.4
2422.958	2013.97
2426.738	2014.18
2430.515	2014.78
2434.289	2015.51
2438.059	2017.05
2441.825	2019.66
2445.589	2022.26
2449.349	2025.42
2453.106	2029.5
2456.859	2033.47
2460.61	2036.28
2464.356	2039.78
2468.1	2044.43
2471.84	2049.72
2475.577	2055.8
2479.311	2060.94
2483.041	2066.28
2486.768	2071.96
2490.492	2077.8
2494.213	2083.96
2497.93	2090.51
2501.644	2096.12
2505.355	2102.96
2509.062	2110.34
2512.766	2117.18
2516.467	2124.74
2520.165	2131.36
2523.859	2137.83
2527.551	2143.66
2531.239	2149.02
2534.923	2153.89
2538.605	2158.91
2542.283	2162.85
2545.958	2166.23
2549.63	2168.48
2553.299	2169.72
2556.964	2171.12
2560.626	2172.45
2564.285	2173.37
2567.941	2174.15
2571.594	2175.07
2575.243	2175.21
2578.89	2176.05
2582.533	2176.05
2586.173	2176.31
2589.809	2176.18
2593.443	2174.75
2597.073	2172.56
2600.701	2169.72
2604.325	2166.55
2607.946	2162.7
2611.564	2158.07
2615.178	2152.8
2618.79	2147.01
2622.398	2140.12
2626.004	2132.86
2629.606	2125.24
2633.205	2117.47
2636.801	2109.45
2640.394	2100.88
2643.983	2091.29
2647.57	2081.63
2651.153	2071.47
2654.734	2059.8
2658.311	2047.82
2661.885	2034.43
2665.456	2020.77
2669.025	2006.75
2672.589	1992.97
2676.151	1978.85
2679.71	1964.28
2683.266	1949.7
2686.819	1936.12
2690.368	1923.31
2693.915	1911.15
2697.458	1900.36
2700.999	1890.61
2704.536	1881.78
2708.071	1874.93
2711.602	1868.55
2715.13	1863.4
2718.656	1859.12
2722.178	1856.07
2725.697	1853.61
2729.214	1851.86
2732.727	1850.86
2736.237	1850.15
2739.744	1849.93
2743.249	1849.82
2746.75	1849.75
2750.248	1850.01
2753.743	1851.26
2757.236	1852.05
2760.725	1853.01
2764.211	1853.42
2767.695	1853.7
2771.175	1853.42
2774.652	1851.78
2778.127	1849.56
2781.598	1845.82
2785.067	1840.75
2788.532	1834.55
2791.995	1828.18
2795.455	1821.02
2798.911	1813.5
2802.365	1806.78
2805.816	1799.15
2809.264	1791.78
2812.709	1784.32
2816.151	1777.66
2819.59	1771.13
2823.026	1765.77
2826.46	1760.09
2829.89	1755.75
2833.318	1750.7
2836.742	1746.18
2840.164	1741.97
2843.583	1737.51
2846.999	1733.15
2850.412	1728.59
2853.822	1723.55
2857.229	1718.7
2860.634	1713.85
2864.035	1708.53
2867.434	1702.56
2870.83	1696.18
2874.223	1689.23
2877.613	1682.12
2881	1675.21
2884.385	1668.53
2887.766	1661.75
2891.145	1655.21
2894.521	1647.91
2897.894	1640.37
2901.264	1632.55
2904.631	1624.39
2907.996	1616.43
2911.358	1608.24
2914.717	1599.69
2918.073	1592.18
2921.426	1584.69
2924.777	1577.28
2928.124	1569.97
2931.469	1563.26
2934.811	1557.56
2938.15	1551.93
2941.487	1547.1
2944.821	1543.02
2948.152	1540.13
2951.48	1537.8
2954.805	1535.7
2958.128	1534.02
2961.447	1532.88
2964.765	1532.97
2968.079	1533.16
2971.39	1533.32
2974.699	1534.31
2978.005	1535.18
2981.308	1535.88
2984.609	1537.18
2987.907	1536.83
2991.202	1536.51
2994.494	1536.42
2997.784	1536.29
3001.07	1535.86
3004.355	1534.26
3007.636	1532.24
3010.915	1530.78
3014.191	1528.63
3017.464	1525.67
3020.734	1522.09
3024.002	1518.43
3027.267	1514.78
3030.53	1510.56
3033.789	1505.93
3037.046	1501.85
3040.301	1497.63
3043.552	1493.02
3046.801	1488.21
3050.048	1483.8
3053.291	1478.96
3056.532	1476.15
3059.771	1473.23
3063.006	1470.12
3066.239	1467.66
3069.469	1465.28
3072.697	1463.61
3075.922	1462.04
3079.144	1460.53
3082.364	1458.64
3085.581	1457.67
3088.795	1456.56
3092.007	1455.67
3095.216	1454.51
3098.423	1453.34
3101.627	1451.91
3104.828	1450.05
3108.026	1448.45
3111.222	1446.74
3114.416	1444.8
3117.607	1442.64
3120.795	1440.34
3123.98	1437.31
3127.163	1434.37
3130.344	1431.13
3133.521	1427.39
3136.696	1423.29
3139.869	1418.53
3143.039	1413.74
3146.206	1408.7
3149.371	1403.2
3152.533	1397.15
3155.693	1391.04
3158.85	1384.16
3162.005	1376.99
3165.157	1369.61
3168.306	1361.99
3171.453	1354.39
3174.597	1346.39
3177.739	1338.91
3180.878	1330.8
3184.014	1322.59
3187.149	1314.8
3190.28	1306.5
3193.409	1297.94
3196.536	1289.34
3199.659	1280.93
3202.781	1272.8
3205.9	1265.29
3209.016	1257.61
3212.13	1249.55
3215.241	1242.15
3218.35	1234.4
3221.456	1226.86
3224.56	1220.05
3227.661	1213.37
3230.76	1206.55
3233.856	1199.55
3236.95	1192.66
3240.041	1186.13
3243.13	1179.01
3246.216	1172.78
3249.3	1166.7
3252.382	1160.29
3255.46	1154.34
3258.537	1148.29
3261.611	1142.59
3264.682	1136.45
3267.751	1130.37
3270.818	1123.26
3273.882	1116.07
3276.943	1108.75
3280.002	1101.64
3283.059	1094.05
3286.113	1085.93
3289.165	1077.45
3292.214	1068.32
3295.261	1059.48
3298.306	1050.42
3301.348	1040.8
3304.387	1030.75
3307.425	1021.01
3310.459	1010.96
3313.492	1001.24
3316.521	991.88
3319.549	982.04
3322.574	973.13
3325.597	964.31
3328.617	955.59
3331.635	946.8
3334.65	938.43
3337.663	930.69
3340.674	922.82
3343.682	914.34
3346.688	906.45
3349.691	898.58
3352.692	890.28
3355.691	882.24
3358.687	873.82
3361.681	865.59
3364.673	857.05
3367.662	848.37
3370.649	839.66
3373.633	830.8
3376.615	821.36
3379.595	812.36
3382.572	803.66
3385.547	794.24
3388.52	785.09
3391.49	776.29
3394.458	767.48
3397.424	759.24
3400.387	750.93
3403.348	742.58
3406.307	734.47
3409.263	726.12
3412.217	718.13
3415.168	710.42
3418.118	702.43
3421.065	694.69
3424.009	686.43
3426.951	678.5
3429.891	670.51
3432.829	662.13
3435.764	653.96
3438.697	645.67
3441.628	636.85
3444.557	628.18
3447.483	619.53
3450.407	610.74
3453.328	602.02
3456.247	593.4
3459.164	584.61
3462.079	575.72
3464.991	566.89
3467.902	558.59
3470.809	550.8
3473.715	542.86
3476.618	534.97
3479.519	527.37
3482.418	519.91
3485.315	512.66
3488.209	505.43
3491.101	498.21
3493.99	491.24
3496.878	483.94
3499.763	476.63
3502.646	469.34
3505.527	461.97
3508.405	454.59
3511.281	447.26
3514.155	439.69
3517.027	431.86
3519.897	423.86
3522.764	416.09
3525.629	408.45
3528.492	400.36
3531.352	392.32
3534.211	384.48
3537.067	376.59
3539.921	369.09
3542.773	361.55
3545.622	353.99
3548.469	346.94
3551.315	339.88
3554.157	332.74
3556.998	326.23
3559.837	319.75
3562.673	313.61
3565.507	307.47
3568.339	301.51
3571.169	295.43
3573.996	289.56
3576.822	284.1
3579.645	278.94
3582.466	273.82
3585.285	268.86
3588.101	264.02
3590.916	258.89
3593.728	253.74
3596.538	249.18
3599.346	244.18
3602.152	239.47
3604.956	235.01
3607.757	230.74
3610.556	226.7
3613.354	222.85
3616.149	219.12
3618.942	215.67
3621.732	212.12
3624.521	208.75
3627.307	205.72
3630.092	202.66
3632.874	199.75
3635.654	196.77
3638.432	194.07
3641.208	191.23
3643.982	188.53
3646.753	186.01
3649.523	183.53
3652.29	181.21
3655.055	178.67
3657.818	176.53
3660.579	174.23
3663.338	172.16
3666.095	169.99
3668.849	167.91
3671.602	166.1
3674.352	164.16
3677.101	162.42
3679.847	160.82
3682.591	159.29
3685.333	157.82
3688.073	156.64
3690.811	155.37
3693.547	154.29
3696.281	152.89
3699.013	151.77
3701.742	150.61
3704.47	149.43
3707.195	148.24
3709.919	147.37
3712.64	146.45
3715.359	145.48
3718.076	144.72
3720.792	143.8
3723.505	142.64
3726.216	141.64
3728.925	140.53
3731.632	139.48
3734.336	138.23
3737.039	137.16
3739.74	135.96
3742.439	134.77
3745.136	133.66
3747.83	132.37
3750.523	130.94
3753.213	129.69
3755.902	128.4
3758.589	127.02
3761.273	125.51
3763.956	124.21
3766.636	122.66
3769.315	121.18
3771.991	119.58
3774.665	117.96
3777.338	116.34
3780.008	114.72
3782.677	113.23
3785.343	111.58
3788.007	109.88
3790.67	108.26
3793.33	106.42
3795.989	104.66
3798.645	102.66
3801.299	100.77
3803.952	98.8
3806.602	97.02
3809.251	95.09
3811.897	93.15
3814.542	91.09
3817.184	89.29
3819.825	87.34
3822.463	85.28
3825.1	83.29
3827.735	81.4
3830.367	79.31
3832.998	77.21
3835.627	75.39
3838.253	73.23
3840.878	71.18
3843.501	68.89
3846.122	66.8
3848.741	64.7
3851.358	62.69
3853.973	60.89
3856.586	58.77
3859.197	56.85
3861.806	54.93
3864.414	52.77
3867.019	50.67
3869.622	48.77
3872.224	46.66
3874.823	44.51
3877.421	42.47
3880.016	40.31
3882.61	38.15
3885.202	36.04
3887.792	33.96
3890.38	31.67
3892.966	29.59
3895.55	27.58
3898.132	25.63
3900.713	23.58
3903.291	21.7
3905.868	19.8
3908.442	17.77
3911.015	15.97
3913.586	14.09
3916.155	12.07
3918.722	10.67
3921.287	9.24
3923.85	7.75
3926.411	6.42
3928.971	5.24
3931.528	4.36
3934.084	3.39
3936.638	2.55
3939.19	1.88
3941.74	1.1
3944.288	0.42
3946.834	-0.37
3949.378	-1.07
3951.921	-1.57
3954.462	-2.12
3957	-2.71
3959.537	-3.31
3962.072	-3.9
3964.606	-4.44
3967.137	-4.85
3969.667	-5.14
3972.194	-5.63
3974.72	-6.03
3977.244	-6.39
3979.766	-6.71
3982.286	-7.01
3984.805	-7.53
3987.321	-8.03
3989.836	-8.39
3992.349	-8.84
3994.86	-9.12
3997.369	-9.41
3999.877	-9.76
4002.382	-10.11
4004.886	-10.42
4007.388	-10.8
4009.888	-11.26
4012.386	-11.66
4014.883	-11.96
4017.377	-12.37
4019.87	-12.66
4022.361	-13.06
4024.85	-13.47
4027.338	-13.8
4029.823	-13.99
4032.307	-14.5
4034.789	-14.85
4037.269	-15.12
4039.747	-15.36
4042.224	-15.79
4044.699	-16.26
4047.172	-16.77
4049.643	-17.14
4052.112	-17.44
4054.58	-17.98
4057.046	-18.45
4059.51	-18.84
4061.972	-19.15
4064.432	-19.53
4066.891	-19.79
4069.348	-20.15
4071.803	-21.2
4074.256	-22.04
4076.708	-22.87
4079.158	-23.82
4081.606	-23.99
4084.052	-23.72
4086.497	-23.57
4088.939	-23.33
4091.38	-22.91
4093.819	-22.23
4096.257	-22.39
4098.693	-22.42
4101.127	-22.64
4103.559	-22.9
4105.989	-22.88
4108.418	-23.11
4110.845	-23.72
4113.27	-24.41
4115.694	-24.91
4118.115	-25.64
4120.535	-25.69
4122.954	-25.11
4125.37	-24.52
4127.785	-23.83
4130.198	-23.04
4132.609	-23.29
4135.019	-23.85
4137.427	-24.5
4139.833	-25.49
4142.237	-26.89
