Data from etoh_RamanShift_01.txt Node
Date: Wed Mar 21 14:55:58 IST 2018
User: aro
Spectrometer: QEPB0276
Trigger mode: 0
Integration Time (sec): 5.000000E0
Scans to average: 1
Electric dark correction enabled: true
Nonlinearity correction enabled: false
Boxcar width: 0
XAxis mode: Raman Shifts
Number of Pixels in Spectrum: 1044
>>>>>Begin Spectral Data<<<<<
160.701	-0.2
166.742	0.8
172.777	8.8
178.805	26.8
184.826	65.8
190.841	142.8
196.849	229.8
202.85	290.8
208.845	302.8
214.833	292.8
220.815	277.8
226.789	279.8
232.758	275.8
238.719	264.8
244.674	260.8
250.623	261.8
256.565	256.8
262.5	244.8
268.429	246.8
274.351	232.8
280.267	235.8
286.176	227.8
292.079	214.8
297.975	210.8
303.865	211.8
309.748	207.8
315.625	205.8
321.495	200.8
327.359	193.8
333.217	187.8
339.068	197.8
344.912	188.8
350.751	193.8
356.583	204.8
362.408	196.8
368.227	201.8
374.04	206.8
379.847	204.8
385.647	215.8
391.44	217.8
397.228	221.8
403.009	229.8
408.784	250.8
414.553	285.8
420.315	330.8
426.071	380.8
431.821	399.8
437.565	419.8
443.302	423.8
449.033	397.8
454.758	329.8
460.477	290.8
466.189	261.8
471.896	235.8
477.596	221.8
483.29	209.8
488.978	214.8
494.66	202.8
500.335	195.8
506.005	181.8
511.668	166.8
517.325	164.8
522.977	158.8
528.622	150.8
534.261	145.8
539.894	136.8
545.521	135.8
551.141	138.8
556.756	135.8
562.365	126.8
567.968	131.8
573.565	123.8
579.155	125.8
584.74	127.8
590.319	122.8
595.892	120.8
601.459	124.8
607.02	123.8
612.575	120.8
618.124	112.8
623.667	115.8
629.204	116.8
634.735	112.8
640.261	118.8
645.781	125.8
651.294	127.8
656.802	117.8
662.304	120.8
667.8	118.8
673.29	111.8
678.775	111.8
684.254	108.8
689.726	108.8
695.193	108.8
700.655	103.8
706.11	103.8
711.56	110.8
717.004	108.8
722.442	106.8
727.874	107.8
733.301	107.8
738.722	101.8
744.137	99.8
749.547	102.8
754.951	108.8
760.349	116.8
765.741	114.8
771.128	111.8
776.509	117.8
781.885	123.8
787.254	121.8
792.618	127.8
797.977	124.8
803.33	124.8
808.677	138.8
814.019	138.8
819.355	145.8
824.686	147.8
830.011	148.8
835.33	151.8
840.644	160.8
845.952	177.8
851.255	194.8
856.552	224.8
861.844	284.8
867.13	417.8
872.41	681.8
877.686	1171.8
882.955	1731.8
888.219	1890.8
893.478	1486.8
898.731	872.8
903.979	474.8
909.221	301.8
914.458	216.8
919.69	176.8
924.916	157.8
930.136	141.8
935.351	132.8
940.561	122.8
945.766	121.8
950.965	115.8
956.158	116.8
961.347	109.8
966.529	108.8
971.707	113.8
976.879	105.8
982.046	109.8
987.208	112.8
992.364	120.8
997.515	129.8
1002.66	139.8
1007.801	151.8
1012.936	181.8
1018.066	204.8
1023.19	245.8
1028.309	277.8
1033.423	328.8
1038.532	398.8
1043.636	514.8
1048.734	639.8
1053.827	699.8
1058.915	674.8
1063.998	564.8
1069.075	474.8
1074.147	442.8
1079.214	474.8
1084.276	564.8
1089.333	651.8
1094.385	733.8
1099.431	697.8
1104.472	587.8
1109.509	443.8
1114.54	347.8
1119.565	294.8
1124.586	269.8
1129.602	247.8
1134.613	227.8
1139.618	204.8
1144.619	177.8
1149.614	162.8
1154.604	147.8
1159.589	133.8
1164.57	126.8
1169.545	122.8
1174.515	111.8
1179.48	108.8
1184.44	102.8
1189.395	97.8
1194.345	98.8
1199.29	97.8
1204.23	87.8
1209.165	91.8
1214.095	92.8
1219.021	99.8
1223.941	105.8
1228.856	112.8
1233.766	111.8
1238.672	120.8
1243.572	123.8
1248.467	138.8
1253.358	143.8
1258.244	155.8
1263.124	172.8
1268	201.8
1272.871	260.8
1277.737	310.8
1282.599	352.8
1287.455	337.8
1292.306	281.8
1297.153	222.8
1301.995	190.8
1306.832	162.8
1311.664	151.8
1316.491	148.8
1321.314	143.8
1326.132	138.8
1330.945	136.8
1335.753	135.8
1340.556	134.8
1345.354	124.8
1350.148	133.8
1354.937	130.8
1359.722	131.8
1364.501	129.8
1369.276	145.8
1374.046	148.8
1378.811	162.8
1383.572	179.8
1388.327	194.8
1393.079	203.8
1397.825	196.8
1402.567	200.8
1407.304	216.8
1412.036	225.8
1416.764	244.8
1421.487	268.8
1426.205	289.8
1430.919	313.8
1435.628	350.8
1440.333	405.8
1445.032	476.8
1449.727	618.8
1454.418	789.8
1459.104	916.8
1463.785	872.8
1468.462	698.8
1473.134	528.8
1477.802	430.8
1482.465	384.8
1487.123	388.8
1491.777	360.8
1496.426	312.8
1501.071	264.8
1505.711	214.8
1510.347	192.8
1514.978	164.8
1519.604	155.8
1524.226	149.8
1528.844	135.8
1533.457	125.8
1538.065	116.8
1542.669	105.8
1547.269	104.8
1551.864	93.8
1556.454	95.8
1561.041	92.8
1565.622	92.8
1570.199	88.8
1574.772	84.8
1579.34	83.8
1583.904	79.8
1588.464	78.8
1593.019	76.8
1597.569	82.8
1602.115	78.8
1606.657	72.8
1611.195	78.8
1615.728	77.8
1620.256	77.8
1624.78	76.8
1629.3	74.8
1633.816	72.8
1638.327	70.8
1642.834	67.8
1647.336	70.8
1651.834	71.8
1656.328	63.8
1660.817	65.8
1665.302	61.8
1669.783	59.8
1674.259	61.8
1678.732	60.8
1683.199	58.8
1687.663	50.8
1692.122	54.8
1696.577	47.8
1701.028	53.8
1705.474	48.8
1709.917	49.8
1714.355	46.8
1718.788	49.8
1723.218	45.8
1727.643	42.8
1732.064	39.8
1736.481	39.8
1740.893	39.8
1745.301	41.8
1749.705	39.8
1754.105	32.8
1758.501	32.8
1762.893	30.8
1767.28	26.8
1771.663	28.8
1776.042	30.8
1780.417	32.8
1784.787	31.8
1789.154	27.8
1793.516	24.8
1797.874	28.8
1802.228	27.8
1806.578	26.8
1810.924	27.8
1815.266	21.8
1819.603	23.8
1823.937	26.8
1828.266	24.8
1832.591	25.8
1836.913	22.8
1841.23	26.8
1845.543	26.8
1849.852	21.8
1854.156	19.8
1858.457	21.8
1862.754	24.8
1867.047	23.8
1871.335	28.8
1875.62	26.8
1879.9	21.8
1884.177	27.8
1888.449	22.8
1892.718	24.8
1896.982	23.8
1901.243	22.8
1905.499	24.8
1909.752	22.8
1914	19.8
1918.245	20.8
1922.485	21.8
1926.722	22.8
1930.954	19.8
1935.183	23.8
1939.408	21.8
1943.628	19.8
1947.845	23.8
1952.058	16.8
1956.267	19.8
1960.472	22.8
1964.673	19.8
1968.87	22.8
1973.063	22.8
1977.252	22.8
1981.438	18.8
1985.619	20.8
1989.797	18.8
1993.971	15.8
1998.14	20.8
2002.306	18.8
2006.469	16.8
2010.627	19.8
2014.781	21.8
2018.932	24.8
2023.078	18.8
2027.221	18.8
2031.36	15.8
2035.495	17.8
2039.627	14.8
2043.754	15.8
2047.878	12.8
2051.998	16.8
2056.114	19.8
2060.226	16.8
2064.334	21.8
2068.439	27.8
2072.54	24.8
2076.637	20.8
2080.73	23.8
2084.82	23.8
2088.906	22.8
2092.988	19.8
2097.066	24.8
2101.14	22.8
2105.211	21.8
2109.278	24.8
2113.342	23.8
2117.401	22.8
2121.457	17.8
2125.509	17.8
2129.558	15.8
2133.602	16.8
2137.643	15.8
2141.681	24.8
2145.714	19.8
2149.744	21.8
2153.77	18.8
2157.793	17.8
2161.812	17.8
2165.827	15.8
2169.838	18.8
2173.846	19.8
2177.851	17.8
2181.851	18.8
2185.848	19.8
2189.841	21.8
2193.831	19.8
2197.817	18.8
2201.799	17.8
2205.778	18.8
2209.753	15.8
2213.725	21.8
2217.693	21.8
2221.657	23.8
2225.618	24.8
2229.575	21.8
2233.529	19.8
2237.479	23.8
2241.425	19.8
2245.368	20.8
2249.307	19.8
2253.243	21.8
2257.175	20.8
2261.104	18.8
2265.029	20.8
2268.95	17.8
2272.868	19.8
2276.783	16.8
2280.694	19.8
2284.601	21.8
2288.505	15.8
2292.405	17.8
2296.302	15.8
2300.195	13.8
2304.085	21.8
2307.971	20.8
2311.854	23.8
2315.734	20.8
2319.609	16.8
2323.482	14.8
2327.351	14.8
2331.216	16.8
2335.078	12.8
2338.937	14.8
2342.792	15.8
2346.643	12.8
2350.492	16.8
2354.336	14.8
2358.178	14.8
2362.015	15.8
2365.85	16.8
2369.681	16.8
2373.508	7.8
2377.333	15.8
2381.153	12.8
2384.971	14.8
2388.785	14.8
2392.595	12.8
2396.402	9.8
2400.206	13.8
2404.007	12.8
2407.804	13.8
2411.597	13.8
2415.388	14.8
2419.174	15.8
2422.958	15.8
2426.738	17.8
2430.515	18.8
2434.289	18.8
2438.059	20.8
2441.825	19.8
2445.589	19.8
2449.349	16.8
2453.106	12.8
2456.859	17.8
2460.61	14.8
2464.356	15.8
2468.1	18.8
2471.84	19.8
2475.577	20.8
2479.311	14.8
2483.041	11.8
2486.768	15.8
2490.492	9.8
2494.213	12.8
2497.93	12.8
2501.644	14.8
2505.355	16.8
2509.062	19.8
2512.766	16.8
2516.467	17.8
2520.165	17.8
2523.859	17.8
2527.551	18.8
2531.239	21.8
2534.923	24.8
2538.605	24.8
2542.283	19.8
2545.958	25.8
2549.63	27.8
2553.299	22.8
2556.964	26.8
2560.626	23.8
2564.285	26.8
2567.941	20.8
2571.594	20.8
2575.243	18.8
2578.89	25.8
2582.533	18.8
2586.173	18.8
2589.809	17.8
2593.443	19.8
2597.073	22.8
2600.701	21.8
2604.325	21.8
2607.946	21.8
2611.564	18.8
2615.178	22.8
2618.79	20.8
2622.398	20.8
2626.004	25.8
2629.606	27.8
2633.205	24.8
2636.801	21.8
2640.394	24.8
2643.983	27.8
2647.57	26.8
2651.153	26.8
2654.734	26.8
2658.311	28.8
2661.885	26.8
2665.456	30.8
2669.025	30.8
2672.589	31.8
2676.151	29.8
2679.71	27.8
2683.266	28.8
2686.819	33.8
2690.368	37.8
2693.915	37.8
2697.458	47.8
2700.999	55.8
2704.536	53.8
2708.071	61.8
2711.602	64.8
2715.13	68.8
2718.656	74.8
2722.178	81.8
2725.697	82.8
2729.214	83.8
2732.727	83.8
2736.237	80.8
2739.744	76.8
2743.249	71.8
2746.75	71.8
2750.248	71.8
2753.743	71.8
2757.236	71.8
2760.725	74.8
2764.211	65.8
2767.695	68.8
2771.175	65.8
2774.652	60.8
2778.127	63.8
2781.598	61.8
2785.067	57.8
2788.532	59.8
2791.995	63.8
2795.455	68.8
2798.911	71.8
2802.365	78.8
2805.816	85.8
2809.264	86.8
2812.709	88.8
2816.151	99.8
2819.59	109.8
2823.026	111.8
2826.46	125.8
2829.89	136.8
2833.318	164.8
2836.742	171.8
2840.164	185.8
2843.583	201.8
2846.999	203.8
2850.412	222.8
2853.822	229.8
2857.229	246.8
2860.634	263.8
2864.035	292.8
2867.434	315.8
2870.83	358.8
2874.223	409.8
2877.613	469.8
2881	505.8
2884.385	540.8
2887.766	540.8
2891.145	547.8
2894.521	539.8
2897.894	524.8
2901.264	514.8
2904.631	496.8
2907.996	483.8
2911.358	476.8
2914.717	483.8
2918.073	483.8
2921.426	515.8
2924.777	578.8
2928.124	636.8
2931.469	696.8
2934.811	750.8
2938.15	747.8
2941.487	689.8
2944.821	619.8
2948.152	561.8
2951.48	492.8
2954.805	433.8
2958.128	397.8
2961.447	369.8
2964.765	347.8
2968.079	328.8
2971.39	337.8
2974.699	340.8
2978.005	341.8
2981.308	345.8
2984.609	318.8
2987.907	300.8
2991.202	268.8
2994.494	236.8
2997.784	203.8
3001.07	182.8
3004.355	163.8
3007.636	142.8
3010.915	136.8
3014.191	120.8
3017.464	107.8
3020.734	97.8
3024.002	90.8
3027.267	85.8
3030.53	81.8
3033.789	73.8
3037.046	74.8
3040.301	62.8
3043.552	57.8
3046.801	60.8
3050.048	53.8
3053.291	51.8
3056.532	56.8
3059.771	55.8
3063.006	54.8
3066.239	52.8
3069.469	53.8
3072.697	51.8
3075.922	45.8
3079.144	43.8
3082.364	48.8
3085.581	49.8
3088.795	45.8
3092.007	43.8
3095.216	45.8
3098.423	43.8
3101.627	44.8
3104.828	42.8
3108.026	39.8
3111.222	37.8
3114.416	42.8
3117.607	42.8
3120.795	38.8
3123.98	45.8
3127.163	42.8
3130.344	42.8
3133.521	37.8
3136.696	40.8
3139.869	42.8
3143.039	42.8
3146.206	43.8
3149.371	45.8
3152.533	45.8
3155.693	48.8
3158.85	50.8
3162.005	44.8
3165.157	48.8
3168.306	47.8
3171.453	48.8
3174.597	45.8
3177.739	47.8
3180.878	43.8
3184.014	45.8
3187.149	45.8
3190.28	47.8
3193.409	47.8
3196.536	45.8
3199.659	42.8
3202.781	39.8
3205.9	43.8
3209.016	40.8
3212.13	45.8
3215.241	46.8
3218.35	47.8
3221.456	46.8
3224.56	43.8
3227.661	47.8
3230.76	45.8
3233.856	42.8
3236.95	36.8
3240.041	37.8
3243.13	40.8
3246.216	37.8
3249.3	41.8
3252.382	40.8
3255.46	45.8
3258.537	40.8
3261.611	41.8
3264.682	39.8
3267.751	40.8
3270.818	32.8
3273.882	34.8
3276.943	36.8
3280.002	37.8
3283.059	32.8
3286.113	32.8
3289.165	35.8
3292.214	36.8
3295.261	30.8
3298.306	32.8
3301.348	33.8
3304.387	38.8
3307.425	31.8
3310.459	29.8
3313.492	31.8
3316.521	31.8
3319.549	36.8
3322.574	31.8
3325.597	30.8
3328.617	29.8
3331.635	32.8
3334.65	33.8
3337.663	30.8
3340.674	31.8
3343.682	30.8
3346.688	31.8
3349.691	33.8
3352.692	28.8
3355.691	33.8
3358.687	26.8
3361.681	30.8
3364.673	24.8
3367.662	25.8
3370.649	27.8
3373.633	28.8
3376.615	22.8
3379.595	26.8
3382.572	28.8
3385.547	26.8
3388.52	26.8
3391.49	26.8
3394.458	27.8
3397.424	23.8
3400.387	25.8
3403.348	25.8
3406.307	24.8
3409.263	21.8
3412.217	24.8
3415.168	24.8
3418.118	28.8
3421.065	27.8
3424.009	22.8
3426.951	26.8
3429.891	21.8
3432.829	22.8
3435.764	19.8
3438.697	18.8
3441.628	19.8
3444.557	18.8
3447.483	20.8
3450.407	18.8
3453.328	20.8
3456.247	15.8
3459.164	14.8
3462.079	14.8
3464.991	12.8
3467.902	12.8
3470.809	12.8
3473.715	14.8
3476.618	12.8
3479.519	15.8
3482.418	11.8
3485.315	9.8
3488.209	8.8
3491.101	7.8
3493.99	12.8
3496.878	12.8
3499.763	10.8
3502.646	8.8
3505.527	13.8
3508.405	8.8
3511.281	9.8
3514.155	9.8
3517.027	6.8
3519.897	5.8
3522.764	4.8
3525.629	4.8
3528.492	5.8
3531.352	3.8
3534.211	3.8
3537.067	3.8
3539.921	3.8
3542.773	2.8
3545.622	1.8
3548.469	0.8
3551.315	0.8
3554.157	2.8
3556.998	1.8
3559.837	2.8
3562.673	3.8
3565.507	3.8
3568.339	1.8
3571.169	6.8
3573.996	1.8
3576.822	-0.2
3579.645	0.8
3582.466	-2.2
3585.285	3.8
3588.101	-2.2
3590.916	0.8
3593.728	-0.2
3596.538	3.8
3599.346	-1.2
3602.152	0.8
3604.956	1.8
3607.757	-1.2
3610.556	-3.2
3613.354	-7.2
3616.149	-7.2
3618.942	-9.2
3621.732	-3.2
3624.521	-2.2
3627.307	0.8
3630.092	-2.2
3632.874	-5.2
3635.654	-4.2
3638.432	-5.2
3641.208	-6.2
3643.982	-2.2
3646.753	-6.2
3649.523	-6.2
3652.29	-5.2
3655.055	-1.2
3657.818	-3.2
3660.579	-1.2
3663.338	-5.2
3666.095	-2.2
3668.849	-4.2
3671.602	-4.2
3674.352	-1.2
3677.101	-5.2
3679.847	-3.2
3682.591	0.8
3685.333	-5.2
3688.073	-4.2
3690.811	-6.2
3693.547	-11.2
3696.281	-7.2
3699.013	-7.2
3701.742	-11.2
3704.47	-6.2
3707.195	-8.2
3709.919	-3.2
3712.64	-7.2
3715.359	-7.2
3718.076	-7.2
3720.792	-8.2
3723.505	-8.2
3726.216	-9.2
3728.925	-6.2
3731.632	-4.2
3734.336	-4.2
3737.039	-6.2
3739.74	-4.2
3742.439	-1.2
3745.136	-6.2
3747.83	-3.2
3750.523	-8.2
3753.213	-6.2
3755.902	-9.2
3758.589	-7.2
3761.273	-9.2
3763.956	-6.2
3766.636	-9.2
3769.315	-5.2
3771.991	-6.2
3774.665	-6.2
3777.338	-6.2
3780.008	-11.2
3782.677	-10.2
3785.343	-8.2
3788.007	-10.2
3790.67	-9.2
3793.33	-9.2
3795.989	-7.2
3798.645	-5.2
3801.299	-7.2
3803.952	-5.2
3806.602	-6.2
3809.251	-6.2
3811.897	-6.2
3814.542	-7.2
3817.184	-7.2
3819.825	-4.2
3822.463	-6.2
3825.1	-3.2
3827.735	-7.2
3830.367	-6.2
3832.998	-5.2
3835.627	-8.2
3838.253	-10.2
3840.878	-7.2
3843.501	-7.2
3846.122	-6.2
3848.741	-7.2
3851.358	-8.2
3853.973	-8.2
3856.586	-8.2
3859.197	-8.2
3861.806	-5.2
3864.414	-7.2
3867.019	-10.2
3869.622	-6.2
3872.224	-5.2
3874.823	-4.2
3877.421	-2.2
3880.016	0.8
3882.61	-2.2
3885.202	-3.2
3887.792	-3.2
3890.38	-6.2
3892.966	-7.2
3895.55	-7.2
3898.132	-7.2
3900.713	-1.2
3903.291	-6.2
3905.868	-7.2
3908.442	-7.2
3911.015	-8.2
3913.586	-9.2
3916.155	-12.2
3918.722	-8.2
3921.287	-10.2
3923.85	-6.2
3926.411	-7.2
3928.971	-9.2
3931.528	-10.2
3934.084	-5.2
3936.638	-6.2
3939.19	-11.2
3941.74	-12.2
3944.288	-6.2
3946.834	-8.2
3949.378	-5.2
3951.921	-3.2
3954.462	-7.2
3957	-4.2
3959.537	-7.2
3962.072	-7.2
3964.606	-8.2
3967.137	-8.2
3969.667	-3.2
3972.194	-8.2
3974.72	-4.2
3977.244	-6.2
3979.766	-7.2
3982.286	-5.2
3984.805	-9.2
3987.321	-9.2
3989.836	-10.2
3992.349	-10.2
3994.86	-10.2
3997.369	-9.2
3999.877	-9.2
4002.382	-5.2
4004.886	-7.2
4007.388	-6.2
4009.888	-3.2
4012.386	-7.2
4014.883	-7.2
4017.377	-9.2
4019.87	-6.2
4022.361	-5.2
4024.85	-8.2
4027.338	-3.2
4029.823	-4.2
4032.307	-7.2
4034.789	-6.2
4037.269	-10.2
4039.747	-5.2
4042.224	-9.2
4044.699	-6.2
4047.172	-7.2
4049.643	-12.2
4052.112	-10.2
4054.58	-9.2
4057.046	-9.2
4059.51	-7.2
4061.972	-11.2
4064.432	-8.2
4066.891	-7.2
4069.348	-8.2
4071.803	-7.2
4074.256	-8.2
4076.708	-5.2
4079.158	-5.2
4081.606	-4.2
4084.052	-6.2
4086.497	-10.2
4088.939	-6.2
4091.38	-11.2
4093.819	-6.2
4096.257	-7.2
4098.693	-10.2
4101.127	-9.2
4103.559	-7.2
4105.989	3.8
4108.418	1.8
4110.845	1.8
4113.27	0.8
4115.694	-0.2
4118.115	-1.2
4120.535	-4.2
4122.954	-3.2
4125.37	-7.2
4127.785	-11.2
4130.198	-11.2
4132.609	-7.2
4135.019	-10.2
4137.427	-10.2
4139.833	-7.2
4142.237	-8.2
