Data from 2018-3-6_conc=3_n=2_RamanShift_04.txt Node
Date: Tue Mar 06 13:18:49 GMT+02:00 2018
User: LAB3
Spectrometer: QEPB0276
Trigger mode: 0
Integration Time (sec): 3.000000E1
Scans to average: 1
Electric dark correction enabled: true
Nonlinearity correction enabled: false
Boxcar width: 0
XAxis mode: Raman Shifts
Number of Pixels in Spectrum: 1044
>>>>>Begin Spectral Data<<<<<
160.701	152.5
166.742	188.5
172.777	279.5
178.805	545.5
184.826	1241.5
190.841	2490.5
196.849	3980.5
202.85	5075.5
208.845	5473.5
214.833	5504.5
220.815	5457.5
226.789	5458.5
232.758	5498.5
238.719	5460.5
244.674	5474.5
250.623	5451.5
256.565	5379.5
262.5	5354.5
268.429	5313.5
274.351	5319.5
280.267	5323.5
286.176	5318.5
292.079	5345.5
297.975	5379.5
303.865	5370.5
309.748	5367.5
315.625	5376.5
321.495	5395.5
327.359	5402.5
333.217	5413.5
339.068	5453.5
344.912	5454.5
350.751	5500.5
356.583	5489.5
362.408	5504.5
368.227	5557.5
374.04	5588.5
379.847	5610.5
385.647	5650.5
391.44	5666.5
397.228	5686.5
403.009	5728.5
408.784	5737.5
414.553	5800.5
420.315	5770.5
426.071	5792.5
431.821	5835.5
437.565	5815.5
443.302	5772.5
449.033	5765.5
454.758	5732.5
460.477	5665.5
466.189	5641.5
471.896	5591.5
477.596	5541.5
483.29	5517.5
488.978	5493.5
494.66	5459.5
500.335	5314.5
506.005	5056.5
511.668	4837.5
517.325	4584.5
522.977	4385.5
528.622	4233.5
534.261	4135.5
539.894	4053.5
545.521	3999.5
551.141	3943.5
556.756	3914.5
562.365	3850.5
567.968	3822.5
573.565	3813.5
579.155	3787.5
584.74	3761.5
590.319	3743.5
595.892	3738.5
601.459	3742.5
607.02	3746.5
612.575	3700.5
618.124	3655.5
623.667	3610.5
629.204	3533.5
634.735	3509.5
640.261	3473.5
645.781	3410.5
651.294	3439.5
656.802	3420.5
662.304	3415.5
667.8	3406.5
673.29	3394.5
678.775	3389.5
684.254	3364.5
689.726	3334.5
695.193	3336.5
700.655	3315.5
706.11	3300.5
711.56	3259.5
717.004	3264.5
722.442	3220.5
727.874	3202.5
733.301	3218.5
738.722	3216.5
744.137	3207.5
749.547	3193.5
754.951	3194.5
760.349	3235.5
765.741	3217.5
771.128	3240.5
776.509	3251.5
781.885	3318.5
787.254	3355.5
792.618	3376.5
797.977	3354.5
803.33	3322.5
808.677	3314.5
814.019	3294.5
819.355	3255.5
824.686	3215.5
830.011	3192.5
835.33	3193.5
840.644	3207.5
845.952	3146.5
851.255	3124.5
856.552	3112.5
861.844	3072.5
867.13	3010.5
872.41	2991.5
877.686	2963.5
882.955	2940.5
888.219	2911.5
893.478	2865.5
898.731	2857.5
903.979	2811.5
909.221	2778.5
914.458	2786.5
919.69	2765.5
924.916	2769.5
930.136	2773.5
935.351	2766.5
940.561	2804.5
945.766	2766.5
950.965	2767.5
956.158	2721.5
961.347	2680.5
966.529	2648.5
971.707	2654.5
976.879	2623.5
982.046	2570.5
987.208	2558.5
992.364	2554.5
997.515	2573.5
1002.66	2586.5
1007.801	2612.5
1012.936	2634.5
1018.066	2622.5
1023.19	2661.5
1028.309	2653.5
1033.423	2673.5
1038.532	2671.5
1043.636	2650.5
1048.734	2624.5
1053.827	2595.5
1058.915	2560.5
1063.998	2562.5
1069.075	2534.5
1074.147	2551.5
1079.214	2549.5
1084.276	2563.5
1089.333	2553.5
1094.385	2581.5
1099.431	2557.5
1104.472	2544.5
1109.509	2506.5
1114.54	2478.5
1119.565	2429.5
1124.586	2426.5
1129.602	2366.5
1134.613	2351.5
1139.618	2351.5
1144.619	2356.5
1149.614	2334.5
1154.604	2360.5
1159.589	2374.5
1164.57	2381.5
1169.545	2391.5
1174.515	2406.5
1179.48	2366.5
1184.44	2358.5
1189.395	2337.5
1194.345	2319.5
1199.29	2299.5
1204.23	2320.5
1209.165	2279.5
1214.095	2331.5
1219.021	2321.5
1223.941	2301.5
1228.856	2359.5
1233.766	2324.5
1238.672	2345.5
1243.572	2344.5
1248.467	2309.5
1253.358	2311.5
1258.244	2247.5
1263.124	2247.5
1268	2198.5
1272.871	2141.5
1277.737	2139.5
1282.599	2110.5
1287.455	2123.5
1292.306	2120.5
1297.153	2121.5
1301.995	2122.5
1306.832	2154.5
1311.664	2135.5
1316.491	2157.5
1321.314	2143.5
1326.132	2111.5
1330.945	2079.5
1335.753	2064.5
1340.556	2032.5
1345.354	1975.5
1350.148	1969.5
1354.937	1930.5
1359.722	1916.5
1364.501	1919.5
1369.276	1893.5
1374.046	1918.5
1378.811	1887.5
1383.572	1914.5
1388.327	1895.5
1393.079	1886.5
1397.825	1846.5
1402.567	1846.5
1407.304	1831.5
1412.036	1826.5
1416.764	1822.5
1421.487	1796.5
1426.205	1798.5
1430.919	1819.5
1435.628	1830.5
1440.333	1827.5
1445.032	1838.5
1449.727	1866.5
1454.418	1868.5
1459.104	1854.5
1463.785	1823.5
1468.462	1788.5
1473.134	1784.5
1477.802	1752.5
1482.465	1723.5
1487.123	1715.5
1491.777	1689.5
1496.426	1665.5
1501.071	1703.5
1505.711	1704.5
1510.347	1710.5
1514.978	1725.5
1519.604	1722.5
1524.226	1726.5
1528.844	1689.5
1533.457	1703.5
1538.065	1699.5
1542.669	1690.5
1547.269	1649.5
1551.864	1647.5
1556.454	1640.5
1561.041	1646.5
1565.622	1662.5
1570.199	1665.5
1574.772	1679.5
1579.34	1691.5
1583.904	1693.5
1588.464	1720.5
1593.019	1720.5
1597.569	1716.5
1602.115	1695.5
1606.657	1697.5
1611.195	1711.5
1615.728	1699.5
1620.256	1666.5
1624.78	1664.5
1629.3	1691.5
1633.816	1684.5
1638.327	1685.5
1642.834	1697.5
1647.336	1712.5
1651.834	1735.5
1656.328	1723.5
1660.817	1711.5
1665.302	1679.5
1669.783	1681.5
1674.259	1647.5
1678.732	1599.5
1683.199	1575.5
1687.663	1527.5
1692.122	1510.5
1696.577	1474.5
1701.028	1458.5
1705.474	1435.5
1709.917	1400.5
1714.355	1390.5
1718.788	1367.5
1723.218	1353.5
1727.643	1318.5
1732.064	1316.5
1736.481	1275.5
1740.893	1273.5
1745.301	1231.5
1749.705	1194.5
1754.105	1200.5
1758.501	1172.5
1762.893	1149.5
1767.28	1110.5
1771.663	1122.5
1776.042	1099.5
1780.417	1095.5
1784.787	1101.5
1789.154	1112.5
1793.516	1118.5
1797.874	1101.5
1802.228	1103.5
1806.578	1089.5
1810.924	1092.5
1815.266	954.5
1819.603	1076.5
1823.937	1039.5
1828.266	1051.5
1832.591	1027.5
1836.913	1027.5
1841.23	1006.5
1845.543	1016.5
1849.852	1038.5
1854.156	1002.5
1858.457	1006.5
1862.754	1011.5
1867.047	1027.5
1871.335	1034.5
1875.62	1023.5
1879.9	1010.5
1884.177	1006.5
1888.449	1017.5
1892.718	992.5
1896.982	1013.5
1901.243	968.5
1905.499	982.5
1909.752	972.5
1914	942.5
1918.245	986.5
1922.485	987.5
1926.722	985.5
1930.954	981.5
1935.183	983.5
1939.408	986.5
1943.628	986.5
1947.845	989.5
1952.058	982.5
1956.267	945.5
1960.472	964.5
1964.673	930.5
1968.87	912.5
1973.063	898.5
1977.252	889.5
1981.438	878.5
1985.619	875.5
1989.797	852.5
1993.971	856.5
1998.14	862.5
2002.306	860.5
2006.469	851.5
2010.627	835.5
2014.781	837.5
2018.932	829.5
2023.078	842.5
2027.221	843.5
2031.36	818.5
2035.495	805.5
2039.627	807.5
2043.754	809.5
2047.878	782.5
2051.998	771.5
2056.114	785.5
2060.226	779.5
2064.334	790.5
2068.439	795.5
2072.54	799.5
2076.637	785.5
2080.73	790.5
2084.82	793.5
2088.906	787.5
2092.988	784.5
2097.066	786.5
2101.14	794.5
2105.211	781.5
2109.278	766.5
2113.342	749.5
2117.401	748.5
2121.457	721.5
2125.509	721.5
2129.558	730.5
2133.602	727.5
2137.643	711.5
2141.681	711.5
2145.714	714.5
2149.744	710.5
2153.77	706.5
2157.793	688.5
2161.812	658.5
2165.827	648.5
2169.838	661.5
2173.846	637.5
2177.851	644.5
2181.851	636.5
2185.848	634.5
2189.841	625.5
2193.831	609.5
2197.817	616.5
2201.799	618.5
2205.778	591.5
2209.753	581.5
2213.725	585.5
2217.693	604.5
2221.657	585.5
2225.618	588.5
2229.575	582.5
2233.529	577.5
2237.479	574.5
2241.425	556.5
2245.368	533.5
2249.307	549.5
2253.243	540.5
2257.175	544.5
2261.104	525.5
2265.029	532.5
2268.95	515.5
2272.868	496.5
2276.783	491.5
2280.694	500.5
2284.601	487.5
2288.505	484.5
2292.405	479.5
2296.302	461.5
2300.195	458.5
2304.085	432.5
2307.971	467.5
2311.854	419.5
2315.734	436.5
2319.609	443.5
2323.482	412.5
2327.351	416.5
2331.216	411.5
2335.078	427.5
2338.937	413.5
2342.792	414.5
2346.643	404.5
2350.492	416.5
2354.336	403.5
2358.178	406.5
2362.015	413.5
2365.85	403.5
2369.681	417.5
2373.508	410.5
2377.333	412.5
2381.153	414.5
2384.971	406.5
2388.785	400.5
2392.595	397.5
2396.402	386.5
2400.206	368.5
2404.007	386.5
2407.804	379.5
2411.597	386.5
2415.388	376.5
2419.174	375.5
2422.958	373.5
2426.738	371.5
2430.515	380.5
2434.289	355.5
2438.059	357.5
2441.825	364.5
2445.589	383.5
2449.349	354.5
2453.106	357.5
2456.859	348.5
2460.61	356.5
2464.356	337.5
2468.1	331.5
2471.84	332.5
2475.577	330.5
2479.311	333.5
2483.041	325.5
2486.768	343.5
2490.492	342.5
2494.213	328.5
2497.93	317.5
2501.644	305.5
2505.355	324.5
2509.062	320.5
2512.766	314.5
2516.467	320.5
2520.165	322.5
2523.859	310.5
2527.551	337.5
2531.239	300.5
2534.923	309.5
2538.605	302.5
2542.283	313.5
2545.958	308.5
2549.63	321.5
2553.299	306.5
2556.964	301.5
2560.626	293.5
2564.285	298.5
2567.941	286.5
2571.594	282.5
2575.243	304.5
2578.89	284.5
2582.533	293.5
2586.173	280.5
2589.809	296.5
2593.443	258.5
2597.073	269.5
2600.701	266.5
2604.325	270.5
2607.946	269.5
2611.564	276.5
2615.178	268.5
2618.79	263.5
2622.398	261.5
2626.004	264.5
2629.606	260.5
2633.205	242.5
2636.801	252.5
2640.394	256.5
2643.983	238.5
2647.57	244.5
2651.153	230.5
2654.734	247.5
2658.311	215.5
2661.885	227.5
2665.456	229.5
2669.025	227.5
2672.589	221.5
2676.151	233.5
2679.71	241.5
2683.266	218.5
2686.819	217.5
2690.368	218.5
2693.915	224.5
2697.458	214.5
2700.999	216.5
2704.536	208.5
2708.071	201.5
2711.602	210.5
2715.13	203.5
2718.656	180.5
2722.178	199.5
2725.697	189.5
2729.214	195.5
2732.727	200.5
2736.237	183.5
2739.744	191.5
2743.249	190.5
2746.75	195.5
2750.248	185.5
2753.743	197.5
2757.236	190.5
2760.725	199.5
2764.211	169.5
2767.695	194.5
2771.175	187.5
2774.652	192.5
2778.127	183.5
2781.598	185.5
2785.067	189.5
2788.532	177.5
2791.995	187.5
2795.455	180.5
2798.911	189.5
2802.365	184.5
2805.816	183.5
2809.264	198.5
2812.709	184.5
2816.151	190.5
2819.59	171.5
2823.026	181.5
2826.46	184.5
2829.89	195.5
2833.318	169.5
2836.742	189.5
2840.164	187.5
2843.583	184.5
2846.999	196.5
2850.412	183.5
2853.822	186.5
2857.229	207.5
2860.634	200.5
2864.035	178.5
2867.434	210.5
2870.83	199.5
2874.223	201.5
2877.613	202.5
2881	206.5
2884.385	204.5
2887.766	206.5
2891.145	211.5
2894.521	208.5
2897.894	192.5
2901.264	216.5
2904.631	211.5
2907.996	218.5
2911.358	220.5
2914.717	223.5
2918.073	211.5
2921.426	218.5
2924.777	207.5
2928.124	221.5
2931.469	235.5
2934.811	215.5
2938.15	248.5
2941.487	244.5
2944.821	253.5
2948.152	246.5
2951.48	251.5
2954.805	224.5
2958.128	255.5
2961.447	238.5
2964.765	254.5
2968.079	227.5
2971.39	249.5
2974.699	251.5
2978.005	250.5
2981.308	255.5
2984.609	237.5
2987.907	260.5
2991.202	262.5
2994.494	258.5
2997.784	268.5
3001.07	271.5
3004.355	271.5
3007.636	267.5
3010.915	275.5
3014.191	269.5
3017.464	276.5
3020.734	279.5
3024.002	287.5
3027.267	275.5
3030.53	279.5
3033.789	281.5
3037.046	293.5
3040.301	291.5
3043.552	305.5
3046.801	308.5
3050.048	323.5
3053.291	337.5
3056.532	317.5
3059.771	324.5
3063.006	346.5
3066.239	352.5
3069.469	368.5
3072.697	361.5
3075.922	369.5
3079.144	383.5
3082.364	410.5
3085.581	394.5
3088.795	424.5
3092.007	416.5
3095.216	432.5
3098.423	426.5
3101.627	422.5
3104.828	435.5
3108.026	452.5
3111.222	481.5
3114.416	482.5
3117.607	489.5
3120.795	492.5
3123.98	493.5
3127.163	490.5
3130.344	511.5
3133.521	529.5
3136.696	551.5
3139.869	559.5
3143.039	557.5
3146.206	587.5
3149.371	581.5
3152.533	587.5
3155.693	578.5
3158.85	598.5
3162.005	601.5
3165.157	596.5
3168.306	597.5
3171.453	620.5
3174.597	595.5
3177.739	592.5
3180.878	604.5
3184.014	608.5
3187.149	620.5
3190.28	627.5
3193.409	630.5
3196.536	621.5
3199.659	625.5
3202.781	627.5
3205.9	610.5
3209.016	623.5
3212.13	619.5
3215.241	623.5
3218.35	618.5
3221.456	600.5
3224.56	599.5
3227.661	598.5
3230.76	589.5
3233.856	574.5
3236.95	587.5
3240.041	582.5
3243.13	582.5
3246.216	576.5
3249.3	574.5
3252.382	572.5
3255.46	554.5
3258.537	524.5
3261.611	556.5
3264.682	556.5
3267.751	553.5
3270.818	543.5
3273.882	580.5
3276.943	556.5
3280.002	554.5
3283.059	524.5
3286.113	536.5
3289.165	522.5
3292.214	512.5
3295.261	528.5
3298.306	493.5
3301.348	502.5
3304.387	472.5
3307.425	494.5
3310.459	489.5
3313.492	490.5
3316.521	479.5
3319.549	491.5
3322.574	485.5
3325.597	465.5
3328.617	460.5
3331.635	455.5
3334.65	447.5
3337.663	458.5
3340.674	459.5
3343.682	456.5
3346.688	463.5
3349.691	445.5
3352.692	455.5
3355.691	462.5
3358.687	445.5
3361.681	442.5
3364.673	435.5
3367.662	432.5
3370.649	438.5
3373.633	419.5
3376.615	423.5
3379.595	407.5
3382.572	411.5
3385.547	398.5
3388.52	396.5
3391.49	392.5
3394.458	387.5
3397.424	392.5
3400.387	373.5
3403.348	376.5
3406.307	377.5
3409.263	370.5
3412.217	367.5
3415.168	365.5
3418.118	379.5
3421.065	349.5
3424.009	371.5
3426.951	343.5
3429.891	341.5
3432.829	347.5
3435.764	334.5
3438.697	328.5
3441.628	338.5
3444.557	297.5
3447.483	296.5
3450.407	310.5
3453.328	292.5
3456.247	285.5
3459.164	264.5
3462.079	279.5
3464.991	261.5
3467.902	256.5
3470.809	245.5
3473.715	251.5
3476.618	232.5
3479.519	230.5
3482.418	215.5
3485.315	206.5
3488.209	200.5
3491.101	204.5
3493.99	189.5
3496.878	194.5
3499.763	191.5
3502.646	195.5
3505.527	170.5
3508.405	170.5
3511.281	160.5
3514.155	161.5
3517.027	158.5
3519.897	144.5
3522.764	142.5
3525.629	118.5
3528.492	130.5
3531.352	125.5
3534.211	125.5
3537.067	108.5
3539.921	112.5
3542.773	115.5
3545.622	87.5
3548.469	82.5
3551.315	84.5
3554.157	84.5
3556.998	80.5
3559.837	79.5
3562.673	83.5
3565.507	68.5
3568.339	63.5
3571.169	68.5
3573.996	66.5
3576.822	45.5
3579.645	53.5
3582.466	49.5
3585.285	58.5
3588.101	54.5
3590.916	45.5
3593.728	45.5
3596.538	39.5
3599.346	39.5
3602.152	29.5
3604.956	31.5
3607.757	32.5
3610.556	21.5
3613.354	31.5
3616.149	27.5
3618.942	29.5
3621.732	34.5
3624.521	16.5
3627.307	12.5
3630.092	7.5
3632.874	25.5
3635.654	16.5
3638.432	8.5
3641.208	4.5
3643.982	8.5
3646.753	12.5
3649.523	-19.5
3652.29	-0.5
3655.055	9.5
3657.818	2.5
3660.579	-0.5
3663.338	-12.5
3666.095	-3.5
3668.849	-23.5
3671.602	42.5
3674.352	62.5
3677.101	87.5
3679.847	48.5
3682.591	-14.5
3685.333	-19.5
3688.073	-9.5
3690.811	-20.5
3693.547	-23.5
3696.281	-24.5
3699.013	-14.5
3701.742	-20.5
3704.47	-27.5
3707.195	-14.5
3709.919	-15.5
3712.64	-18.5
3715.359	-31.5
3718.076	-8.5
3720.792	-23.5
3723.505	-15.5
3726.216	-7.5
3728.925	-16.5
3731.632	-27.5
3734.336	-17.5
3737.039	-26.5
3739.74	-17.5
3742.439	-42.5
3745.136	-13.5
3747.83	-20.5
3750.523	-21.5
3753.213	-75.5
3755.902	-25.5
3758.589	-35.5
3761.273	-26.5
3763.956	-14.5
3766.636	-40.5
3769.315	-12.5
3771.991	-21.5
3774.665	-29.5
3777.338	-25.5
3780.008	-36.5
3782.677	-26.5
3785.343	-34.5
3788.007	-42.5
3790.67	-20.5
3793.33	-36.5
3795.989	-33.5
3798.645	-25.5
3801.299	-37.5
3803.952	-38.5
3806.602	-29.5
3809.251	-21.5
3811.897	-23.5
3814.542	-26.5
3817.184	-30.5
3819.825	-28.5
3822.463	-42.5
3825.1	-34.5
3827.735	-30.5
3830.367	-37.5
3832.998	-16.5
3835.627	-32.5
3838.253	-17.5
3840.878	-25.5
3843.501	-14.5
3846.122	-28.5
3848.741	-21.5
3851.358	-21.5
3853.973	-36.5
3856.586	-20.5
3859.197	-33.5
3861.806	-26.5
3864.414	-41.5
3867.019	-27.5
3869.622	-16.5
3872.224	-7.5
3874.823	3.5
3877.421	34.5
3880.016	58.5
3882.61	105.5
3885.202	112.5
3887.792	78.5
3890.38	41.5
3892.966	-1.5
3895.55	-25.5
3898.132	-18.5
3900.713	-17.5
3903.291	-25.5
3905.868	-32.5
3908.442	-26.5
3911.015	-28.5
3913.586	-30.5
3916.155	-35.5
3918.722	-37.5
3921.287	-37.5
3923.85	-39.5
3926.411	-35.5
3928.971	-39.5
3931.528	-23.5
3934.084	-32.5
3936.638	-46.5
3939.19	-26.5
3941.74	-27.5
3944.288	-33.5
3946.834	-33.5
3949.378	-25.5
3951.921	-33.5
3954.462	-30.5
3957	-27.5
3959.537	-18.5
3962.072	-29.5
3964.606	-43.5
3967.137	-35.5
3969.667	-38.5
3972.194	-25.5
3974.72	-30.5
3977.244	-55.5
3979.766	-34.5
3982.286	-35.5
3984.805	-24.5
3987.321	-18.5
3989.836	-22.5
3992.349	-31.5
3994.86	-28.5
3997.369	-37.5
3999.877	-33.5
4002.382	-28.5
4004.886	-21.5
4007.388	-24.5
4009.888	-17.5
4012.386	-20.5
4014.883	-26.5
4017.377	-29.5
4019.87	-23.5
4022.361	-32.5
4024.85	-25.5
4027.338	-27.5
4029.823	-33.5
4032.307	-28.5
4034.789	-31.5
4037.269	-31.5
4039.747	-43.5
4042.224	-20.5
4044.699	-33.5
4047.172	-30.5
4049.643	-19.5
4052.112	-47.5
4054.58	-25.5
4057.046	-42.5
4059.51	-26.5
4061.972	-29.5
4064.432	-47.5
4066.891	-19.5
4069.348	-26.5
4071.803	-25.5
4074.256	-33.5
4076.708	-26.5
4079.158	-24.5
4081.606	-19.5
4084.052	-29.5
4086.497	-24.5
4088.939	-27.5
4091.38	-30.5
4093.819	-19.5
4096.257	-0.5
4098.693	-4.5
4101.127	-5.5
4103.559	0.5
4105.989	141.5
4108.418	139.5
4110.845	118.5
4113.27	127.5
4115.694	137.5
4118.115	134.5
4120.535	-23.5
4122.954	-20.5
4125.37	-14.5
4127.785	-22.5
4130.198	-18.5
4132.609	-26.5
4135.019	9.5
4137.427	0.5
4139.833	4.5
4142.237	-4.5
