Data from 2018-3-6_conc=4_n=1_RamanShift_03.txt Node
Date: Tue Mar 06 13:50:19 GMT+02:00 2018
User: LAB3
Spectrometer: QEPB0276
Trigger mode: 0
Integration Time (sec): 3.000000E1
Scans to average: 1
Electric dark correction enabled: true
Nonlinearity correction enabled: false
Boxcar width: 0
XAxis mode: Raman Shifts
Number of Pixels in Spectrum: 1044
>>>>>Begin Spectral Data<<<<<
160.701	105.25
166.742	143.25
172.777	207.25
178.805	425.25
184.826	980.25
190.841	1926.25
196.849	3079.25
202.85	3926.25
208.845	4199.25
214.833	4226.25
220.815	4157.25
226.789	4194.25
232.758	4206.25
238.719	4197.25
244.674	4199.25
250.623	4187.25
256.565	4146.25
262.5	4113.25
268.429	4091.25
274.351	4049.25
280.267	4033.25
286.176	4063.25
292.079	4079.25
297.975	4094.25
303.865	4082.25
309.748	4086.25
315.625	4079.25
321.495	4092.25
327.359	4113.25
333.217	4116.25
339.068	4129.25
344.912	4135.25
350.751	4148.25
356.583	4171.25
362.408	4183.25
368.227	4152.25
374.04	4208.25
379.847	4220.25
385.647	4296.25
391.44	4292.25
397.228	4283.25
403.009	4328.25
408.784	4361.25
414.553	4353.25
420.315	4374.25
426.071	4339.25
431.821	4391.25
437.565	4370.25
443.302	4352.25
449.033	4332.25
454.758	4313.25
460.477	4284.25
466.189	4258.25
471.896	4225.25
477.596	4194.25
483.29	4192.25
488.978	4173.25
494.66	4133.25
500.335	4020.25
506.005	3866.25
511.668	3681.25
517.325	3531.25
522.977	3391.25
528.622	3295.25
534.261	3228.25
539.894	3167.25
545.521	3137.25
551.141	3100.25
556.756	3074.25
562.365	3049.25
567.968	3013.25
573.565	2973.25
579.155	2980.25
584.74	2957.25
590.319	2944.25
595.892	2953.25
601.459	2971.25
607.02	2943.25
612.575	2923.25
618.124	2897.25
623.667	2858.25
629.204	2811.25
634.735	2766.25
640.261	2723.25
645.781	2707.25
651.294	2703.25
656.802	2698.25
662.304	2691.25
667.8	2692.25
673.29	2682.25
678.775	2677.25
684.254	2663.25
689.726	2652.25
695.193	2637.25
700.655	2634.25
706.11	2605.25
711.56	2618.25
717.004	2572.25
722.442	2540.25
727.874	2551.25
733.301	2570.25
738.722	2521.25
744.137	2523.25
749.547	2530.25
754.951	2531.25
760.349	2540.25
765.741	2555.25
771.128	2557.25
776.509	2599.25
781.885	2631.25
787.254	2657.25
792.618	2652.25
797.977	2635.25
803.33	2633.25
808.677	2612.25
814.019	2599.25
819.355	2552.25
824.686	2555.25
830.011	2534.25
835.33	2523.25
840.644	2497.25
845.952	2488.25
851.255	2499.25
856.552	2460.25
861.844	2417.25
867.13	2409.25
872.41	2387.25
877.686	2370.25
882.955	2358.25
888.219	2329.25
893.478	2295.25
898.731	2296.25
903.979	2243.25
909.221	2222.25
914.458	2207.25
919.69	2214.25
924.916	2208.25
930.136	2210.25
935.351	2215.25
940.561	2231.25
945.766	2229.25
950.965	2218.25
956.158	2188.25
961.347	2146.25
966.529	2120.25
971.707	2141.25
976.879	2082.25
982.046	2074.25
987.208	2060.25
992.364	2066.25
997.515	2063.25
1002.66	2067.25
1007.801	2080.25
1012.936	2099.25
1018.066	2090.25
1023.19	2113.25
1028.309	2133.25
1033.423	2124.25
1038.532	2124.25
1043.636	2089.25
1048.734	2088.25
1053.827	2053.25
1058.915	2031.25
1063.998	2018.25
1069.075	2015.25
1074.147	2008.25
1079.214	2004.25
1084.276	2033.25
1089.333	2040.25
1094.385	2058.25
1099.431	2037.25
1104.472	2039.25
1109.509	2001.25
1114.54	1973.25
1119.565	1953.25
1124.586	1932.25
1129.602	1908.25
1134.613	1879.25
1139.618	1881.25
1144.619	1890.25
1149.614	1888.25
1154.604	1890.25
1159.589	1892.25
1164.57	1913.25
1169.545	1928.25
1174.515	1911.25
1179.48	1910.25
1184.44	1874.25
1189.395	1888.25
1194.345	1846.25
1199.29	1847.25
1204.23	1838.25
1209.165	1837.25
1214.095	1869.25
1219.021	1862.25
1223.941	1858.25
1228.856	1861.25
1233.766	1886.25
1238.672	1891.25
1243.572	1864.25
1248.467	1841.25
1253.358	1827.25
1258.244	1791.25
1263.124	1785.25
1268	1760.25
1272.871	1726.25
1277.737	1723.25
1282.599	1710.25
1287.455	1685.25
1292.306	1691.25
1297.153	1694.25
1301.995	1703.25
1306.832	1726.25
1311.664	1717.25
1316.491	1726.25
1321.314	1731.25
1326.132	1696.25
1330.945	1663.25
1335.753	1621.25
1340.556	1621.25
1345.354	1596.25
1350.148	1592.25
1354.937	1566.25
1359.722	1538.25
1364.501	1554.25
1369.276	1536.25
1374.046	1532.25
1378.811	1511.25
1383.572	1522.25
1388.327	1522.25
1393.079	1520.25
1397.825	1505.25
1402.567	1468.25
1407.304	1474.25
1412.036	1461.25
1416.764	1460.25
1421.487	1447.25
1426.205	1439.25
1430.919	1452.25
1435.628	1462.25
1440.333	1455.25
1445.032	1492.25
1449.727	1484.25
1454.418	1492.25
1459.104	1509.25
1463.785	1458.25
1468.462	1463.25
1473.134	1429.25
1477.802	1420.25
1482.465	1361.25
1487.123	1394.25
1491.777	1342.25
1496.426	1349.25
1501.071	1368.25
1505.711	1350.25
1510.347	1383.25
1514.978	1379.25
1519.604	1389.25
1524.226	1398.25
1528.844	1370.25
1533.457	1375.25
1538.065	1359.25
1542.669	1341.25
1547.269	1358.25
1551.864	1338.25
1556.454	1327.25
1561.041	1330.25
1565.622	1331.25
1570.199	1347.25
1574.772	1358.25
1579.34	1355.25
1583.904	1365.25
1588.464	1371.25
1593.019	1379.25
1597.569	1368.25
1602.115	1376.25
1606.657	1344.25
1611.195	1366.25
1615.728	1352.25
1620.256	1348.25
1624.78	1325.25
1629.3	1353.25
1633.816	1354.25
1638.327	1347.25
1642.834	1364.25
1647.336	1364.25
1651.834	1387.25
1656.328	1366.25
1660.817	1366.25
1665.302	1345.25
1669.783	1327.25
1674.259	1319.25
1678.732	1291.25
1683.199	1263.25
1687.663	1206.25
1692.122	1203.25
1696.577	1173.25
1701.028	1160.25
1705.474	1128.25
1709.917	1121.25
1714.355	1098.25
1718.788	1098.25
1723.218	1077.25
1727.643	1066.25
1732.064	1048.25
1736.481	1019.25
1740.893	1029.25
1745.301	999.25
1749.705	941.25
1754.105	954.25
1758.501	916.25
1762.893	928.25
1767.28	904.25
1771.663	898.25
1776.042	877.25
1780.417	886.25
1784.787	882.25
1789.154	881.25
1793.516	875.25
1797.874	880.25
1802.228	869.25
1806.578	870.25
1810.924	875.25
1815.266	744.25
1819.603	860.25
1823.937	845.25
1828.266	824.25
1832.591	840.25
1836.913	815.25
1841.23	801.25
1845.543	800.25
1849.852	821.25
1854.156	802.25
1858.457	806.25
1862.754	809.25
1867.047	812.25
1871.335	831.25
1875.62	823.25
1879.9	825.25
1884.177	809.25
1888.449	806.25
1892.718	807.25
1896.982	804.25
1901.243	787.25
1905.499	787.25
1909.752	776.25
1914	750.25
1918.245	791.25
1922.485	788.25
1926.722	782.25
1930.954	782.25
1935.183	792.25
1939.408	807.25
1943.628	800.25
1947.845	781.25
1952.058	781.25
1956.267	762.25
1960.472	756.25
1964.673	745.25
1968.87	730.25
1973.063	721.25
1977.252	713.25
1981.438	697.25
1985.619	700.25
1989.797	685.25
1993.971	684.25
1998.14	694.25
2002.306	691.25
2006.469	688.25
2010.627	667.25
2014.781	673.25
2018.932	661.25
2023.078	688.25
2027.221	666.25
2031.36	651.25
2035.495	647.25
2039.627	643.25
2043.754	641.25
2047.878	624.25
2051.998	634.25
2056.114	627.25
2060.226	636.25
2064.334	636.25
2068.439	636.25
2072.54	652.25
2076.637	629.25
2080.73	622.25
2084.82	640.25
2088.906	616.25
2092.988	623.25
2097.066	640.25
2101.14	631.25
2105.211	614.25
2109.278	596.25
2113.342	596.25
2117.401	580.25
2121.457	582.25
2125.509	574.25
2129.558	586.25
2133.602	570.25
2137.643	572.25
2141.681	564.25
2145.714	565.25
2149.744	570.25
2153.77	555.25
2157.793	545.25
2161.812	511.25
2165.827	518.25
2169.838	537.25
2173.846	512.25
2177.851	502.25
2181.851	512.25
2185.848	495.25
2189.841	495.25
2193.831	485.25
2197.817	488.25
2201.799	489.25
2205.778	472.25
2209.753	471.25
2213.725	455.25
2217.693	468.25
2221.657	466.25
2225.618	470.25
2229.575	469.25
2233.529	468.25
2237.479	451.25
2241.425	439.25
2245.368	434.25
2249.307	434.25
2253.243	430.25
2257.175	423.25
2261.104	410.25
2265.029	414.25
2268.95	402.25
2272.868	389.25
2276.783	395.25
2280.694	400.25
2284.601	399.25
2288.505	387.25
2292.405	384.25
2296.302	360.25
2300.195	375.25
2304.085	334.25
2307.971	356.25
2311.854	332.25
2315.734	345.25
2319.609	344.25
2323.482	323.25
2327.351	325.25
2331.216	330.25
2335.078	334.25
2338.937	315.25
2342.792	318.25
2346.643	319.25
2350.492	332.25
2354.336	328.25
2358.178	323.25
2362.015	326.25
2365.85	319.25
2369.681	326.25
2373.508	328.25
2377.333	328.25
2381.153	325.25
2384.971	312.25
2388.785	322.25
2392.595	306.25
2396.402	298.25
2400.206	285.25
2404.007	301.25
2407.804	301.25
2411.597	309.25
2415.388	301.25
2419.174	303.25
2422.958	300.25
2426.738	298.25
2430.515	299.25
2434.289	287.25
2438.059	291.25
2441.825	281.25
2445.589	298.25
2449.349	266.25
2453.106	288.25
2456.859	277.25
2460.61	273.25
2464.356	265.25
2468.1	257.25
2471.84	259.25
2475.577	256.25
2479.311	259.25
2483.041	261.25
2486.768	272.25
2490.492	268.25
2494.213	260.25
2497.93	245.25
2501.644	247.25
2505.355	259.25
2509.062	252.25
2512.766	256.25
2516.467	250.25
2520.165	254.25
2523.859	236.25
2527.551	270.25
2531.239	241.25
2534.923	252.25
2538.605	242.25
2542.283	241.25
2545.958	258.25
2549.63	252.25
2553.299	253.25
2556.964	232.25
2560.626	234.25
2564.285	234.25
2567.941	222.25
2571.594	226.25
2575.243	239.25
2578.89	217.25
2582.533	228.25
2586.173	220.25
2589.809	233.25
2593.443	199.25
2597.073	219.25
2600.701	224.25
2604.325	211.25
2607.946	205.25
2611.564	213.25
2615.178	218.25
2618.79	215.25
2622.398	196.25
2626.004	215.25
2629.606	209.25
2633.205	189.25
2636.801	201.25
2640.394	201.25
2643.983	196.25
2647.57	191.25
2651.153	190.25
2654.734	194.25
2658.311	165.25
2661.885	180.25
2665.456	181.25
2669.025	177.25
2672.589	167.25
2676.151	195.25
2679.71	189.25
2683.266	182.25
2686.819	171.25
2690.368	173.25
2693.915	177.25
2697.458	174.25
2700.999	174.25
2704.536	171.25
2708.071	157.25
2711.602	169.25
2715.13	159.25
2718.656	139.25
2722.178	159.25
2725.697	150.25
2729.214	151.25
2732.727	156.25
2736.237	143.25
2739.744	151.25
2743.249	151.25
2746.75	147.25
2750.248	150.25
2753.743	154.25
2757.236	148.25
2760.725	159.25
2764.211	124.25
2767.695	155.25
2771.175	147.25
2774.652	146.25
2778.127	142.25
2781.598	148.25
2785.067	143.25
2788.532	139.25
2791.995	149.25
2795.455	135.25
2798.911	159.25
2802.365	143.25
2805.816	153.25
2809.264	158.25
2812.709	140.25
2816.151	151.25
2819.59	141.25
2823.026	140.25
2826.46	140.25
2829.89	157.25
2833.318	123.25
2836.742	142.25
2840.164	145.25
2843.583	140.25
2846.999	138.25
2850.412	147.25
2853.822	140.25
2857.229	160.25
2860.634	158.25
2864.035	137.25
2867.434	157.25
2870.83	161.25
2874.223	158.25
2877.613	165.25
2881	159.25
2884.385	162.25
2887.766	155.25
2891.145	167.25
2894.521	164.25
2897.894	155.25
2901.264	167.25
2904.631	165.25
2907.996	164.25
2911.358	177.25
2914.717	175.25
2918.073	162.25
2921.426	171.25
2924.777	150.25
2928.124	170.25
2931.469	181.25
2934.811	168.25
2938.15	196.25
2941.487	184.25
2944.821	200.25
2948.152	189.25
2951.48	194.25
2954.805	183.25
2958.128	196.25
2961.447	183.25
2964.765	201.25
2968.079	188.25
2971.39	192.25
2974.699	191.25
2978.005	195.25
2981.308	199.25
2984.609	183.25
2987.907	207.25
2991.202	205.25
2994.494	182.25
2997.784	203.25
3001.07	206.25
3004.355	200.25
3007.636	205.25
3010.915	206.25
3014.191	208.25
3017.464	210.25
3020.734	218.25
3024.002	226.25
3027.267	218.25
3030.53	219.25
3033.789	224.25
3037.046	224.25
3040.301	219.25
3043.552	233.25
3046.801	237.25
3050.048	243.25
3053.291	264.25
3056.532	259.25
3059.771	246.25
3063.006	270.25
3066.239	271.25
3069.469	290.25
3072.697	278.25
3075.922	285.25
3079.144	281.25
3082.364	319.25
3085.581	301.25
3088.795	329.25
3092.007	328.25
3095.216	338.25
3098.423	332.25
3101.627	313.25
3104.828	341.25
3108.026	349.25
3111.222	368.25
3114.416	380.25
3117.607	374.25
3120.795	385.25
3123.98	387.25
3127.163	389.25
3130.344	405.25
3133.521	406.25
3136.696	434.25
3139.869	421.25
3143.039	421.25
3146.206	448.25
3149.371	457.25
3152.533	445.25
3155.693	441.25
3158.85	451.25
3162.005	458.25
3165.157	457.25
3168.306	456.25
3171.453	472.25
3174.597	463.25
3177.739	458.25
3180.878	462.25
3184.014	475.25
3187.149	465.25
3190.28	472.25
3193.409	477.25
3196.536	481.25
3199.659	482.25
3202.781	484.25
3205.9	468.25
3209.016	479.25
3212.13	469.25
3215.241	486.25
3218.35	476.25
3221.456	470.25
3224.56	451.25
3227.661	459.25
3230.76	457.25
3233.856	452.25
3236.95	447.25
3240.041	440.25
3243.13	453.25
3246.216	430.25
3249.3	440.25
3252.382	447.25
3255.46	432.25
3258.537	378.25
3261.611	424.25
3264.682	438.25
3267.751	424.25
3270.818	412.25
3273.882	424.25
3276.943	423.25
3280.002	431.25
3283.059	412.25
3286.113	413.25
3289.165	394.25
3292.214	393.25
3295.261	401.25
3298.306	376.25
3301.348	386.25
3304.387	363.25
3307.425	389.25
3310.459	382.25
3313.492	387.25
3316.521	365.25
3319.549	374.25
3322.574	367.25
3325.597	361.25
3328.617	352.25
3331.635	359.25
3334.65	338.25
3337.663	354.25
3340.674	348.25
3343.682	352.25
3346.688	359.25
3349.691	345.25
3352.692	342.25
3355.691	343.25
3358.687	340.25
3361.681	342.25
3364.673	333.25
3367.662	331.25
3370.649	346.25
3373.633	320.25
3376.615	323.25
3379.595	302.25
3382.572	310.25
3385.547	305.25
3388.52	296.25
3391.49	294.25
3394.458	298.25
3397.424	298.25
3400.387	280.25
3403.348	285.25
3406.307	281.25
3409.263	287.25
3412.217	285.25
3415.168	287.25
3418.118	292.25
3421.065	269.25
3424.009	277.25
3426.951	261.25
3429.891	268.25
3432.829	256.25
3435.764	254.25
3438.697	242.25
3441.628	250.25
3444.557	226.25
3447.483	222.25
3450.407	236.25
3453.328	211.25
3456.247	214.25
3459.164	202.25
3462.079	211.25
3464.991	193.25
3467.902	190.25
3470.809	184.25
3473.715	188.25
3476.618	179.25
3479.519	180.25
3482.418	147.25
3485.315	149.25
3488.209	156.25
3491.101	158.25
3493.99	138.25
3496.878	137.25
3499.763	139.25
3502.646	144.25
3505.527	120.25
3508.405	124.25
3511.281	113.25
3514.155	122.25
3517.027	117.25
3519.897	93.25
3522.764	108.25
3525.629	87.25
3528.492	94.25
3531.352	94.25
3534.211	85.25
3537.067	79.25
3539.921	84.25
3542.773	84.25
3545.622	66.25
3548.469	59.25
3551.315	62.25
3554.157	67.25
3556.998	54.25
3559.837	49.25
3562.673	57.25
3565.507	49.25
3568.339	39.25
3571.169	41.25
3573.996	47.25
3576.822	22.25
3579.645	30.25
3582.466	28.25
3585.285	42.25
3588.101	30.25
3590.916	26.25
3593.728	27.25
3596.538	24.25
3599.346	29.25
3602.152	15.25
3604.956	24.25
3607.757	21.25
3610.556	1.25
3613.354	25.25
3616.149	16.25
3618.942	22.25
3621.732	19.25
3624.521	8.25
3627.307	-3.75
3630.092	4.25
3632.874	16.25
3635.654	5.25
3638.432	-1.75
3641.208	-2.75
3643.982	2.25
3646.753	12.25
3649.523	-20.75
3652.29	-1.75
3655.055	-2.75
3657.818	-1.75
3660.579	-8.75
3663.338	-11.75
3666.095	-9.75
3668.849	-37.75
3671.602	-7.75
3674.352	-22.75
3677.101	0.25
3679.847	-7.75
3682.591	-16.75
3685.333	-24.75
3688.073	-14.75
3690.811	-23.75
3693.547	-29.75
3696.281	-24.75
3699.013	-17.75
3701.742	-17.75
3704.47	-31.75
3707.195	-13.75
3709.919	-17.75
3712.64	-18.75
3715.359	-33.75
3718.076	-13.75
3720.792	-20.75
3723.505	-20.75
3726.216	-13.75
3728.925	-25.75
3731.632	-26.75
3734.336	-19.75
3737.039	-23.75
3739.74	-20.75
3742.439	-50.75
3745.136	-14.75
3747.83	-19.75
3750.523	-17.75
3753.213	-80.75
3755.902	-27.75
3758.589	-40.75
3761.273	-27.75
3763.956	-14.75
3766.636	-39.75
3769.315	-15.75
3771.991	-26.75
3774.665	-31.75
3777.338	-22.75
3780.008	-37.75
3782.677	-30.75
3785.343	-41.75
3788.007	-45.75
3790.67	-23.75
3793.33	-34.75
3795.989	-29.75
3798.645	-24.75
3801.299	-36.75
3803.952	-34.75
3806.602	-30.75
3809.251	-21.75
3811.897	-26.75
3814.542	-27.75
3817.184	-26.75
3819.825	-27.75
3822.463	-42.75
3825.1	-24.75
3827.735	-26.75
3830.367	-32.75
3832.998	-14.75
3835.627	-26.75
3838.253	-17.75
3840.878	-28.75
3843.501	-11.75
3846.122	-22.75
3848.741	-19.75
3851.358	-24.75
3853.973	-36.75
3856.586	-16.75
3859.197	-36.75
3861.806	-26.75
3864.414	-40.75
3867.019	-27.75
3869.622	-19.75
3872.224	-11.75
3874.823	-9.75
3877.421	20.25
3880.016	36.25
3882.61	76.25
3885.202	84.25
3887.792	60.25
3890.38	27.25
3892.966	-8.75
3895.55	-25.75
3898.132	-18.75
3900.713	-19.75
3903.291	-22.75
3905.868	-38.75
3908.442	-27.75
3911.015	-28.75
3913.586	-31.75
3916.155	-31.75
3918.722	-35.75
3921.287	-33.75
3923.85	-40.75
3926.411	-32.75
3928.971	-36.75
3931.528	-27.75
3934.084	-30.75
3936.638	-35.75
3939.19	-25.75
3941.74	-25.75
3944.288	-32.75
3946.834	-31.75
3949.378	-18.75
3951.921	-33.75
3954.462	-28.75
3957	-23.75
3959.537	-18.75
3962.072	-33.75
3964.606	-42.75
3967.137	-34.75
3969.667	-36.75
3972.194	-25.75
3974.72	-35.75
3977.244	-56.75
3979.766	-39.75
3982.286	-33.75
3984.805	-23.75
3987.321	-19.75
3989.836	-22.75
3992.349	-35.75
3994.86	-27.75
3997.369	-33.75
3999.877	-33.75
4002.382	-28.75
4004.886	-21.75
4007.388	-27.75
4009.888	-18.75
4012.386	-21.75
4014.883	-22.75
4017.377	-26.75
4019.87	-23.75
4022.361	-38.75
4024.85	-26.75
4027.338	-27.75
4029.823	-33.75
4032.307	-30.75
4034.789	-27.75
4037.269	-27.75
4039.747	-43.75
4042.224	-17.75
4044.699	-36.75
4047.172	-32.75
4049.643	-19.75
4052.112	-51.75
4054.58	-24.75
4057.046	-39.75
4059.51	-30.75
4061.972	-26.75
4064.432	-46.75
4066.891	-17.75
4069.348	-34.75
4071.803	-27.75
4074.256	-32.75
4076.708	-19.75
4079.158	-30.75
4081.606	-14.75
4084.052	-24.75
4086.497	-25.75
4088.939	-28.75
4091.38	-30.75
4093.819	-19.75
4096.257	2.25
4098.693	-5.75
4101.127	-4.75
4103.559	1.25
4105.989	98.25
4108.418	107.25
4110.845	92.25
4113.27	97.25
4115.694	102.25
4118.115	100.25
4120.535	-25.75
4122.954	-17.75
4125.37	-17.75
4127.785	-23.75
4130.198	-18.75
4132.609	-21.75
4135.019	6.25
4137.427	-2.75
4139.833	5.25
4142.237	-1.75
