Data from 2018-3-6_conc=3_n=6_RamanShift_02.txt Node
Date: Tue Mar 06 13:30:19 GMT+02:00 2018
User: LAB3
Spectrometer: QEPB0276
Trigger mode: 0
Integration Time (sec): 3.000000E1
Scans to average: 1
Electric dark correction enabled: true
Nonlinearity correction enabled: false
Boxcar width: 0
XAxis mode: Raman Shifts
Number of Pixels in Spectrum: 1044
>>>>>Begin Spectral Data<<<<<
160.701	129.5
166.742	168.5
172.777	253.5
178.805	490.5
184.826	1132.5
190.841	2224.5
196.849	3538.5
202.85	4530.5
208.845	4878.5
214.833	4886.5
220.815	4838.5
226.789	4824.5
232.758	4873.5
238.719	4867.5
244.674	4837.5
250.623	4838.5
256.565	4789.5
262.5	4750.5
268.429	4676.5
274.351	4675.5
280.267	4708.5
286.176	4703.5
292.079	4691.5
297.975	4701.5
303.865	4702.5
309.748	4712.5
315.625	4693.5
321.495	4744.5
327.359	4739.5
333.217	4728.5
339.068	4791.5
344.912	4800.5
350.751	4823.5
356.583	4824.5
362.408	4821.5
368.227	4857.5
374.04	4873.5
379.847	4918.5
385.647	4954.5
391.44	4950.5
397.228	4981.5
403.009	5016.5
408.784	4996.5
414.553	5059.5
420.315	5078.5
426.071	5070.5
431.821	5064.5
437.565	5072.5
443.302	5031.5
449.033	5033.5
454.758	5006.5
460.477	4932.5
466.189	4927.5
471.896	4850.5
477.596	4845.5
483.29	4826.5
488.978	4826.5
494.66	4766.5
500.335	4681.5
506.005	4461.5
511.668	4232.5
517.325	4021.5
522.977	3896.5
528.622	3767.5
534.261	3679.5
539.894	3605.5
545.521	3572.5
551.141	3536.5
556.756	3484.5
562.365	3456.5
567.968	3434.5
573.565	3422.5
579.155	3395.5
584.74	3384.5
590.319	3380.5
595.892	3370.5
601.459	3378.5
607.02	3347.5
612.575	3335.5
618.124	3281.5
623.667	3219.5
629.204	3213.5
634.735	3152.5
640.261	3122.5
645.781	3071.5
651.294	3079.5
656.802	3071.5
662.304	3077.5
667.8	3063.5
673.29	3049.5
678.775	3032.5
684.254	3007.5
689.726	3015.5
695.193	3019.5
700.655	2962.5
706.11	2959.5
711.56	2955.5
717.004	2923.5
722.442	2943.5
727.874	2920.5
733.301	2879.5
738.722	2868.5
744.137	2867.5
749.547	2882.5
754.951	2883.5
760.349	2884.5
765.741	2905.5
771.128	2917.5
776.509	2936.5
781.885	3002.5
787.254	3014.5
792.618	3023.5
797.977	3014.5
803.33	2996.5
808.677	2958.5
814.019	2939.5
819.355	2909.5
824.686	2894.5
830.011	2874.5
835.33	2864.5
840.644	2875.5
845.952	2806.5
851.255	2848.5
856.552	2768.5
861.844	2760.5
867.13	2732.5
872.41	2702.5
877.686	2685.5
882.955	2662.5
888.219	2629.5
893.478	2597.5
898.731	2572.5
903.979	2539.5
909.221	2487.5
914.458	2482.5
919.69	2500.5
924.916	2518.5
930.136	2478.5
935.351	2508.5
940.561	2503.5
945.766	2508.5
950.965	2509.5
956.158	2471.5
961.347	2440.5
966.529	2421.5
971.707	2392.5
976.879	2369.5
982.046	2328.5
987.208	2315.5
992.364	2340.5
997.515	2332.5
1002.66	2360.5
1007.801	2359.5
1012.936	2381.5
1018.066	2373.5
1023.19	2409.5
1028.309	2400.5
1033.423	2414.5
1038.532	2407.5
1043.636	2373.5
1048.734	2386.5
1053.827	2333.5
1058.915	2320.5
1063.998	2319.5
1069.075	2305.5
1074.147	2318.5
1079.214	2274.5
1084.276	2324.5
1089.333	2324.5
1094.385	2311.5
1099.431	2315.5
1104.472	2295.5
1109.509	2283.5
1114.54	2258.5
1119.565	2202.5
1124.586	2171.5
1129.602	2157.5
1134.613	2112.5
1139.618	2120.5
1144.619	2131.5
1149.614	2135.5
1154.604	2142.5
1159.589	2150.5
1164.57	2152.5
1169.545	2155.5
1174.515	2159.5
1179.48	2150.5
1184.44	2126.5
1189.395	2123.5
1194.345	2104.5
1199.29	2116.5
1204.23	2064.5
1209.165	2068.5
1214.095	2094.5
1219.021	2090.5
1223.941	2096.5
1228.856	2104.5
1233.766	2134.5
1238.672	2142.5
1243.572	2118.5
1248.467	2106.5
1253.358	2069.5
1258.244	2026.5
1263.124	2028.5
1268	1967.5
1272.871	1949.5
1277.737	1943.5
1282.599	1908.5
1287.455	1905.5
1292.306	1901.5
1297.153	1908.5
1301.995	1942.5
1306.832	1950.5
1311.664	1932.5
1316.491	1948.5
1321.314	1947.5
1326.132	1916.5
1330.945	1900.5
1335.753	1851.5
1340.556	1831.5
1345.354	1787.5
1350.148	1776.5
1354.937	1766.5
1359.722	1764.5
1364.501	1725.5
1369.276	1728.5
1374.046	1726.5
1378.811	1704.5
1383.572	1724.5
1388.327	1709.5
1393.079	1690.5
1397.825	1676.5
1402.567	1660.5
1407.304	1660.5
1412.036	1639.5
1416.764	1647.5
1421.487	1625.5
1426.205	1612.5
1430.919	1620.5
1435.628	1628.5
1440.333	1647.5
1445.032	1666.5
1449.727	1674.5
1454.418	1694.5
1459.104	1671.5
1463.785	1639.5
1468.462	1633.5
1473.134	1593.5
1477.802	1580.5
1482.465	1538.5
1487.123	1539.5
1491.777	1517.5
1496.426	1501.5
1501.071	1539.5
1505.711	1540.5
1510.347	1541.5
1514.978	1563.5
1519.604	1538.5
1524.226	1557.5
1528.844	1532.5
1533.457	1530.5
1538.065	1521.5
1542.669	1498.5
1547.269	1505.5
1551.864	1499.5
1556.454	1468.5
1561.041	1491.5
1565.622	1493.5
1570.199	1495.5
1574.772	1507.5
1579.34	1529.5
1583.904	1543.5
1588.464	1565.5
1593.019	1549.5
1597.569	1530.5
1602.115	1523.5
1606.657	1529.5
1611.195	1543.5
1615.728	1507.5
1620.256	1508.5
1624.78	1480.5
1629.3	1508.5
1633.816	1524.5
1638.327	1520.5
1642.834	1528.5
1647.336	1533.5
1651.834	1557.5
1656.328	1543.5
1660.817	1556.5
1665.302	1518.5
1669.783	1509.5
1674.259	1485.5
1678.732	1468.5
1683.199	1417.5
1687.663	1381.5
1692.122	1356.5
1696.577	1329.5
1701.028	1317.5
1705.474	1279.5
1709.917	1255.5
1714.355	1251.5
1718.788	1237.5
1723.218	1212.5
1727.643	1179.5
1732.064	1181.5
1736.481	1144.5
1740.893	1157.5
1745.301	1111.5
1749.705	1073.5
1754.105	1072.5
1758.501	1043.5
1762.893	1051.5
1767.28	1005.5
1771.663	1011.5
1776.042	992.5
1780.417	992.5
1784.787	991.5
1789.154	995.5
1793.516	996.5
1797.874	989.5
1802.228	982.5
1806.578	986.5
1810.924	984.5
1815.266	869.5
1819.603	954.5
1823.937	945.5
1828.266	952.5
1832.591	927.5
1836.913	926.5
1841.23	902.5
1845.543	907.5
1849.852	913.5
1854.156	908.5
1858.457	908.5
1862.754	889.5
1867.047	899.5
1871.335	913.5
1875.62	921.5
1879.9	902.5
1884.177	911.5
1888.449	907.5
1892.718	910.5
1896.982	899.5
1901.243	870.5
1905.499	875.5
1909.752	875.5
1914	844.5
1918.245	886.5
1922.485	898.5
1926.722	877.5
1930.954	881.5
1935.183	894.5
1939.408	900.5
1943.628	893.5
1947.845	881.5
1952.058	869.5
1956.267	847.5
1960.472	854.5
1964.673	831.5
1968.87	815.5
1973.063	803.5
1977.252	800.5
1981.438	784.5
1985.619	775.5
1989.797	761.5
1993.971	768.5
1998.14	776.5
2002.306	781.5
2006.469	776.5
2010.627	739.5
2014.781	757.5
2018.932	747.5
2023.078	759.5
2027.221	751.5
2031.36	730.5
2035.495	732.5
2039.627	726.5
2043.754	717.5
2047.878	705.5
2051.998	696.5
2056.114	700.5
2060.226	702.5
2064.334	704.5
2068.439	702.5
2072.54	718.5
2076.637	705.5
2080.73	705.5
2084.82	704.5
2088.906	702.5
2092.988	707.5
2097.066	702.5
2101.14	707.5
2105.211	703.5
2109.278	694.5
2113.342	677.5
2117.401	651.5
2121.457	645.5
2125.509	645.5
2129.558	648.5
2133.602	649.5
2137.643	637.5
2141.681	626.5
2145.714	640.5
2149.744	623.5
2153.77	620.5
2157.793	614.5
2161.812	580.5
2165.827	574.5
2169.838	602.5
2173.846	586.5
2177.851	568.5
2181.851	574.5
2185.848	557.5
2189.841	550.5
2193.831	550.5
2197.817	541.5
2201.799	536.5
2205.778	529.5
2209.753	524.5
2213.725	520.5
2217.693	529.5
2221.657	520.5
2225.618	531.5
2229.575	521.5
2233.529	523.5
2237.479	507.5
2241.425	492.5
2245.368	493.5
2249.307	486.5
2253.243	471.5
2257.175	484.5
2261.104	472.5
2265.029	465.5
2268.95	457.5
2272.868	446.5
2276.783	436.5
2280.694	440.5
2284.601	433.5
2288.505	430.5
2292.405	437.5
2296.302	406.5
2300.195	413.5
2304.085	392.5
2307.971	402.5
2311.854	388.5
2315.734	388.5
2319.609	394.5
2323.482	357.5
2327.351	376.5
2331.216	368.5
2335.078	380.5
2338.937	376.5
2342.792	352.5
2346.643	361.5
2350.492	369.5
2354.336	365.5
2358.178	367.5
2362.015	367.5
2365.85	364.5
2369.681	377.5
2373.508	365.5
2377.333	370.5
2381.153	358.5
2384.971	361.5
2388.785	360.5
2392.595	339.5
2396.402	353.5
2400.206	330.5
2404.007	340.5
2407.804	343.5
2411.597	340.5
2415.388	342.5
2419.174	332.5
2422.958	341.5
2426.738	335.5
2430.515	343.5
2434.289	327.5
2438.059	329.5
2441.825	321.5
2445.589	335.5
2449.349	319.5
2453.106	328.5
2456.859	310.5
2460.61	320.5
2464.356	299.5
2468.1	303.5
2471.84	300.5
2475.577	296.5
2479.311	304.5
2483.041	298.5
2486.768	308.5
2490.492	308.5
2494.213	293.5
2497.93	280.5
2501.644	284.5
2505.355	282.5
2509.062	286.5
2512.766	282.5
2516.467	283.5
2520.165	280.5
2523.859	270.5
2527.551	306.5
2531.239	271.5
2534.923	282.5
2538.605	267.5
2542.283	280.5
2545.958	278.5
2549.63	279.5
2553.299	271.5
2556.964	264.5
2560.626	264.5
2564.285	267.5
2567.941	251.5
2571.594	257.5
2575.243	271.5
2578.89	257.5
2582.533	253.5
2586.173	247.5
2589.809	263.5
2593.443	234.5
2597.073	240.5
2600.701	242.5
2604.325	242.5
2607.946	238.5
2611.564	243.5
2615.178	239.5
2618.79	232.5
2622.398	223.5
2626.004	240.5
2629.606	233.5
2633.205	216.5
2636.801	227.5
2640.394	222.5
2643.983	225.5
2647.57	218.5
2651.153	200.5
2654.734	221.5
2658.311	190.5
2661.885	205.5
2665.456	202.5
2669.025	205.5
2672.589	195.5
2676.151	213.5
2679.71	207.5
2683.266	192.5
2686.819	189.5
2690.368	197.5
2693.915	191.5
2697.458	188.5
2700.999	200.5
2704.536	186.5
2708.071	177.5
2711.602	181.5
2715.13	178.5
2718.656	165.5
2722.178	173.5
2725.697	159.5
2729.214	179.5
2732.727	173.5
2736.237	163.5
2739.744	169.5
2743.249	164.5
2746.75	174.5
2750.248	160.5
2753.743	172.5
2757.236	172.5
2760.725	168.5
2764.211	149.5
2767.695	175.5
2771.175	169.5
2774.652	172.5
2778.127	166.5
2781.598	164.5
2785.067	166.5
2788.532	153.5
2791.995	168.5
2795.455	157.5
2798.911	173.5
2802.365	162.5
2805.816	162.5
2809.264	174.5
2812.709	159.5
2816.151	174.5
2819.59	155.5
2823.026	160.5
2826.46	162.5
2829.89	177.5
2833.318	146.5
2836.742	161.5
2840.164	167.5
2843.583	168.5
2846.999	167.5
2850.412	168.5
2853.822	168.5
2857.229	182.5
2860.634	179.5
2864.035	158.5
2867.434	184.5
2870.83	181.5
2874.223	184.5
2877.613	182.5
2881	180.5
2884.385	182.5
2887.766	182.5
2891.145	191.5
2894.521	181.5
2897.894	170.5
2901.264	190.5
2904.631	187.5
2907.996	187.5
2911.358	195.5
2914.717	194.5
2918.073	190.5
2921.426	193.5
2924.777	172.5
2928.124	192.5
2931.469	211.5
2934.811	190.5
2938.15	216.5
2941.487	207.5
2944.821	230.5
2948.152	217.5
2951.48	220.5
2954.805	209.5
2958.128	219.5
2961.447	208.5
2964.765	223.5
2968.079	215.5
2971.39	221.5
2974.699	225.5
2978.005	217.5
2981.308	220.5
2984.609	216.5
2987.907	232.5
2991.202	241.5
2994.494	219.5
2997.784	236.5
3001.07	234.5
3004.355	227.5
3007.636	238.5
3010.915	237.5
3014.191	239.5
3017.464	240.5
3020.734	241.5
3024.002	251.5
3027.267	254.5
3030.53	250.5
3033.789	254.5
3037.046	254.5
3040.301	247.5
3043.552	263.5
3046.801	273.5
3050.048	275.5
3053.291	299.5
3056.532	288.5
3059.771	282.5
3063.006	309.5
3066.239	312.5
3069.469	310.5
3072.697	318.5
3075.922	328.5
3079.144	343.5
3082.364	362.5
3085.581	350.5
3088.795	371.5
3092.007	376.5
3095.216	384.5
3098.423	388.5
3101.627	371.5
3104.828	400.5
3108.026	396.5
3111.222	424.5
3114.416	428.5
3117.607	425.5
3120.795	437.5
3123.98	445.5
3127.163	443.5
3130.344	466.5
3133.521	471.5
3136.696	495.5
3139.869	484.5
3143.039	492.5
3146.206	522.5
3149.371	528.5
3152.533	522.5
3155.693	519.5
3158.85	525.5
3162.005	537.5
3165.157	534.5
3168.306	529.5
3171.453	547.5
3174.597	521.5
3177.739	524.5
3180.878	549.5
3184.014	549.5
3187.149	553.5
3190.28	542.5
3193.409	559.5
3196.536	553.5
3199.659	559.5
3202.781	550.5
3205.9	543.5
3209.016	552.5
3212.13	548.5
3215.241	550.5
3218.35	545.5
3221.456	531.5
3224.56	522.5
3227.661	530.5
3230.76	528.5
3233.856	519.5
3236.95	516.5
3240.041	508.5
3243.13	522.5
3246.216	514.5
3249.3	514.5
3252.382	505.5
3255.46	504.5
3258.537	456.5
3261.611	494.5
3264.682	498.5
3267.751	495.5
3270.818	482.5
3273.882	497.5
3276.943	488.5
3280.002	506.5
3283.059	474.5
3286.113	477.5
3289.165	465.5
3292.214	458.5
3295.261	470.5
3298.306	444.5
3301.348	443.5
3304.387	436.5
3307.425	439.5
3310.459	422.5
3313.492	431.5
3316.521	423.5
3319.549	424.5
3322.574	425.5
3325.597	412.5
3328.617	408.5
3331.635	401.5
3334.65	396.5
3337.663	412.5
3340.674	402.5
3343.682	412.5
3346.688	406.5
3349.691	407.5
3352.692	400.5
3355.691	405.5
3358.687	396.5
3361.681	386.5
3364.673	389.5
3367.662	385.5
3370.649	385.5
3373.633	374.5
3376.615	379.5
3379.595	364.5
3382.572	366.5
3385.547	345.5
3388.52	341.5
3391.49	341.5
3394.458	342.5
3397.424	350.5
3400.387	322.5
3403.348	333.5
3406.307	334.5
3409.263	334.5
3412.217	335.5
3415.168	322.5
3418.118	333.5
3421.065	319.5
3424.009	329.5
3426.951	316.5
3429.891	302.5
3432.829	306.5
3435.764	305.5
3438.697	288.5
3441.628	299.5
3444.557	274.5
3447.483	266.5
3450.407	270.5
3453.328	256.5
3456.247	249.5
3459.164	235.5
3462.079	252.5
3464.991	231.5
3467.902	223.5
3470.809	221.5
3473.715	224.5
3476.618	205.5
3479.519	198.5
3482.418	173.5
3485.315	184.5
3488.209	186.5
3491.101	175.5
3493.99	164.5
3496.878	153.5
3499.763	167.5
3502.646	160.5
3505.527	156.5
3508.405	148.5
3511.281	133.5
3514.155	145.5
3517.027	136.5
3519.897	125.5
3522.764	126.5
3525.629	106.5
3528.492	116.5
3531.352	111.5
3534.211	107.5
3537.067	91.5
3539.921	99.5
3542.773	99.5
3545.622	80.5
3548.469	70.5
3551.315	70.5
3554.157	70.5
3556.998	70.5
3559.837	68.5
3562.673	70.5
3565.507	54.5
3568.339	52.5
3571.169	61.5
3573.996	60.5
3576.822	38.5
3579.645	41.5
3582.466	41.5
3585.285	46.5
3588.101	40.5
3590.916	30.5
3593.728	43.5
3596.538	34.5
3599.346	33.5
3602.152	24.5
3604.956	29.5
3607.757	32.5
3610.556	16.5
3613.354	28.5
3616.149	24.5
3618.942	20.5
3621.732	20.5
3624.521	12.5
3627.307	0.5
3630.092	4.5
3632.874	21.5
3635.654	13.5
3638.432	6.5
3641.208	8.5
3643.982	4.5
3646.753	8.5
3649.523	-24.5
3652.29	-0.5
3655.055	2.5
3657.818	1.5
3660.579	-1.5
3663.338	-11.5
3666.095	-10.5
3668.849	-32.5
3671.602	1.5
3674.352	-16.5
3677.101	5.5
3679.847	-0.5
3682.591	-19.5
3685.333	-27.5
3688.073	-12.5
3690.811	-24.5
3693.547	-19.5
3696.281	-24.5
3699.013	-14.5
3701.742	-20.5
3704.47	-29.5
3707.195	-17.5
3709.919	-15.5
3712.64	-22.5
3715.359	-27.5
3718.076	-8.5
3720.792	-23.5
3723.505	-16.5
3726.216	-9.5
3728.925	-21.5
3731.632	-33.5
3734.336	-22.5
3737.039	-20.5
3739.74	-17.5
3742.439	-48.5
3745.136	-21.5
3747.83	-19.5
3750.523	-18.5
3753.213	-90.5
3755.902	-27.5
3758.589	-39.5
3761.273	-26.5
3763.956	-18.5
3766.636	-40.5
3769.315	-17.5
3771.991	-25.5
3774.665	-31.5
3777.338	-24.5
3780.008	-38.5
3782.677	-29.5
3785.343	-44.5
3788.007	-43.5
3790.67	-21.5
3793.33	-36.5
3795.989	-32.5
3798.645	-27.5
3801.299	-38.5
3803.952	-38.5
3806.602	-34.5
3809.251	-22.5
3811.897	-29.5
3814.542	-29.5
3817.184	-34.5
3819.825	-29.5
3822.463	-41.5
3825.1	-35.5
3827.735	-28.5
3830.367	-38.5
3832.998	-18.5
3835.627	-31.5
3838.253	-21.5
3840.878	-30.5
3843.501	-15.5
3846.122	-26.5
3848.741	-22.5
3851.358	-25.5
3853.973	-43.5
3856.586	-22.5
3859.197	-39.5
3861.806	-28.5
3864.414	-47.5
3867.019	-27.5
3869.622	-18.5
3872.224	-14.5
3874.823	-6.5
3877.421	29.5
3880.016	47.5
3882.61	82.5
3885.202	101.5
3887.792	79.5
3890.38	32.5
3892.966	-5.5
3895.55	-30.5
3898.132	-21.5
3900.713	-22.5
3903.291	-28.5
3905.868	-33.5
3908.442	-32.5
3911.015	-33.5
3913.586	-34.5
3916.155	-34.5
3918.722	-41.5
3921.287	-44.5
3923.85	-44.5
3926.411	-39.5
3928.971	-40.5
3931.528	-29.5
3934.084	-36.5
3936.638	-46.5
3939.19	-28.5
3941.74	-32.5
3944.288	-33.5
3946.834	-38.5
3949.378	-23.5
3951.921	-37.5
3954.462	-33.5
3957	-29.5
3959.537	-22.5
3962.072	-31.5
3964.606	-47.5
3967.137	-35.5
3969.667	-38.5
3972.194	-27.5
3974.72	-35.5
3977.244	-55.5
3979.766	-40.5
3982.286	-41.5
3984.805	-27.5
3987.321	-19.5
3989.836	-24.5
3992.349	-38.5
3994.86	-32.5
3997.369	-38.5
3999.877	-34.5
4002.382	-34.5
4004.886	-28.5
4007.388	-32.5
4009.888	-21.5
4012.386	-22.5
4014.883	-29.5
4017.377	-33.5
4019.87	-27.5
4022.361	-45.5
4024.85	-30.5
4027.338	-28.5
4029.823	-34.5
4032.307	-30.5
4034.789	-29.5
4037.269	-31.5
4039.747	-42.5
4042.224	-23.5
4044.699	-36.5
4047.172	-30.5
4049.643	-27.5
4052.112	-58.5
4054.58	-32.5
4057.046	-40.5
4059.51	-32.5
4061.972	-34.5
4064.432	-45.5
4066.891	-21.5
4069.348	-33.5
4071.803	-28.5
4074.256	-35.5
4076.708	-29.5
4079.158	-29.5
4081.606	-18.5
4084.052	-32.5
4086.497	-24.5
4088.939	-31.5
4091.38	-33.5
4093.819	-27.5
4096.257	-0.5
4098.693	-6.5
4101.127	-6.5
4103.559	4.5
4105.989	120.5
4108.418	125.5
4110.845	111.5
4113.27	119.5
4115.694	129.5
4118.115	121.5
4120.535	-27.5
4122.954	-23.5
4125.37	-18.5
4127.785	-28.5
4130.198	-18.5
4132.609	-29.5
4135.019	7.5
4137.427	0.5
4139.833	3.5
4142.237	-2.5
