Data from 2018-3-6_conc=4_n=1_RamanShift_02.txt Node
Date: Tue Mar 06 13:49:49 GMT+02:00 2018
User: LAB3
Spectrometer: QEPB0276
Trigger mode: 0
Integration Time (sec): 3.000000E1
Scans to average: 1
Electric dark correction enabled: true
Nonlinearity correction enabled: false
Boxcar width: 0
XAxis mode: Raman Shifts
Number of Pixels in Spectrum: 1044
>>>>>Begin Spectral Data<<<<<
160.701	96.25
166.742	128.25
172.777	200.25
178.805	393.25
184.826	924.25
190.841	1902.25
196.849	2947.25
202.85	3762.25
208.845	4080.25
214.833	4081.25
220.815	4010.25
226.789	4016.25
232.758	4070.25
238.719	4066.25
244.674	4044.25
250.623	4018.25
256.565	4016.25
262.5	3954.25
268.429	3936.25
274.351	3917.25
280.267	3889.25
286.176	3935.25
292.079	3924.25
297.975	3920.25
303.865	3929.25
309.748	3951.25
315.625	3922.25
321.495	3972.25
327.359	3958.25
333.217	3974.25
339.068	3961.25
344.912	4011.25
350.751	4019.25
356.583	4037.25
362.408	4063.25
368.227	4067.25
374.04	4114.25
379.847	4105.25
385.647	4138.25
391.44	4157.25
397.228	4169.25
403.009	4198.25
408.784	4214.25
414.553	4231.25
420.315	4268.25
426.071	4242.25
431.821	4288.25
437.565	4261.25
443.302	4251.25
449.033	4216.25
454.758	4220.25
460.477	4161.25
466.189	4139.25
471.896	4121.25
477.596	4078.25
483.29	4044.25
488.978	4053.25
494.66	3978.25
500.335	3898.25
506.005	3720.25
511.668	3564.25
517.325	3385.25
522.977	3252.25
528.622	3161.25
534.261	3092.25
539.894	3011.25
545.521	2995.25
551.141	2946.25
556.756	2898.25
562.365	2901.25
567.968	2867.25
573.565	2836.25
579.155	2837.25
584.74	2808.25
590.319	2784.25
595.892	2797.25
601.459	2782.25
607.02	2748.25
612.575	2751.25
618.124	2737.25
623.667	2674.25
629.204	2640.25
634.735	2616.25
640.261	2570.25
645.781	2529.25
651.294	2533.25
656.802	2533.25
662.304	2552.25
667.8	2533.25
673.29	2499.25
678.775	2523.25
684.254	2492.25
689.726	2478.25
695.193	2497.25
700.655	2452.25
706.11	2429.25
711.56	2446.25
717.004	2418.25
722.442	2395.25
727.874	2408.25
733.301	2404.25
738.722	2382.25
744.137	2387.25
749.547	2369.25
754.951	2381.25
760.349	2378.25
765.741	2393.25
771.128	2428.25
776.509	2449.25
781.885	2463.25
787.254	2511.25
792.618	2490.25
797.977	2495.25
803.33	2494.25
808.677	2459.25
814.019	2470.25
819.355	2422.25
824.686	2400.25
830.011	2377.25
835.33	2409.25
840.644	2393.25
845.952	2368.25
851.255	2361.25
856.552	2337.25
861.844	2307.25
867.13	2273.25
872.41	2272.25
877.686	2245.25
882.955	2236.25
888.219	2200.25
893.478	2163.25
898.731	2158.25
903.979	2131.25
909.221	2101.25
914.458	2089.25
919.69	2104.25
924.916	2106.25
930.136	2103.25
935.351	2076.25
940.561	2108.25
945.766	2112.25
950.965	2111.25
956.158	2078.25
961.347	2046.25
966.529	2015.25
971.707	2008.25
976.879	1977.25
982.046	1951.25
987.208	1943.25
992.364	1945.25
997.515	1953.25
1002.66	1951.25
1007.801	1963.25
1012.936	1968.25
1018.066	1951.25
1023.19	1980.25
1028.309	1974.25
1033.423	2004.25
1038.532	1985.25
1043.636	1951.25
1048.734	1951.25
1053.827	1935.25
1058.915	1909.25
1063.998	1883.25
1069.075	1880.25
1074.147	1894.25
1079.214	1877.25
1084.276	1901.25
1089.333	1888.25
1094.385	1903.25
1099.431	1889.25
1104.472	1900.25
1109.509	1863.25
1114.54	1842.25
1119.565	1806.25
1124.586	1783.25
1129.602	1782.25
1134.613	1762.25
1139.618	1745.25
1144.619	1742.25
1149.614	1759.25
1154.604	1767.25
1159.589	1761.25
1164.57	1794.25
1169.545	1802.25
1174.515	1793.25
1179.48	1771.25
1184.44	1754.25
1189.395	1763.25
1194.345	1721.25
1199.29	1753.25
1204.23	1725.25
1209.165	1716.25
1214.095	1737.25
1219.021	1731.25
1223.941	1749.25
1228.856	1756.25
1233.766	1765.25
1238.672	1769.25
1243.572	1786.25
1248.467	1745.25
1253.358	1732.25
1258.244	1691.25
1263.124	1694.25
1268	1673.25
1272.871	1619.25
1277.737	1614.25
1282.599	1601.25
1287.455	1592.25
1292.306	1607.25
1297.153	1592.25
1301.995	1605.25
1306.832	1625.25
1311.664	1629.25
1316.491	1616.25
1321.314	1624.25
1326.132	1576.25
1330.945	1596.25
1335.753	1551.25
1340.556	1527.25
1345.354	1510.25
1350.148	1485.25
1354.937	1469.25
1359.722	1464.25
1364.501	1434.25
1369.276	1450.25
1374.046	1416.25
1378.811	1425.25
1383.572	1450.25
1388.327	1446.25
1393.079	1411.25
1397.825	1399.25
1402.567	1395.25
1407.304	1387.25
1412.036	1352.25
1416.764	1388.25
1421.487	1356.25
1426.205	1350.25
1430.919	1367.25
1435.628	1359.25
1440.333	1360.25
1445.032	1389.25
1449.727	1387.25
1454.418	1394.25
1459.104	1389.25
1463.785	1376.25
1468.462	1378.25
1473.134	1336.25
1477.802	1331.25
1482.465	1267.25
1487.123	1281.25
1491.777	1254.25
1496.426	1246.25
1501.071	1288.25
1505.711	1281.25
1510.347	1294.25
1514.978	1307.25
1519.604	1289.25
1524.226	1301.25
1528.844	1266.25
1533.457	1296.25
1538.065	1276.25
1542.669	1272.25
1547.269	1246.25
1551.864	1267.25
1556.454	1227.25
1561.041	1258.25
1565.622	1240.25
1570.199	1259.25
1574.772	1276.25
1579.34	1283.25
1583.904	1298.25
1588.464	1310.25
1593.019	1316.25
1597.569	1293.25
1602.115	1300.25
1606.657	1279.25
1611.195	1297.25
1615.728	1291.25
1620.256	1276.25
1624.78	1247.25
1629.3	1274.25
1633.816	1286.25
1638.327	1274.25
1642.834	1292.25
1647.336	1306.25
1651.834	1320.25
1656.328	1315.25
1660.817	1300.25
1665.302	1283.25
1669.783	1259.25
1674.259	1232.25
1678.732	1206.25
1683.199	1174.25
1687.663	1139.25
1692.122	1114.25
1696.577	1108.25
1701.028	1083.25
1705.474	1050.25
1709.917	1036.25
1714.355	1029.25
1718.788	1010.25
1723.218	984.25
1727.643	971.25
1732.064	967.25
1736.481	938.25
1740.893	928.25
1745.301	901.25
1749.705	869.25
1754.105	871.25
1758.501	848.25
1762.893	857.25
1767.28	809.25
1771.663	812.25
1776.042	802.25
1780.417	802.25
1784.787	814.25
1789.154	801.25
1793.516	808.25
1797.874	796.25
1802.228	803.25
1806.578	771.25
1810.924	795.25
1815.266	675.25
1819.603	781.25
1823.937	759.25
1828.266	750.25
1832.591	759.25
1836.913	750.25
1841.23	740.25
1845.543	737.25
1849.852	749.25
1854.156	744.25
1858.457	740.25
1862.754	743.25
1867.047	739.25
1871.335	751.25
1875.62	739.25
1879.9	741.25
1884.177	743.25
1888.449	752.25
1892.718	728.25
1896.982	738.25
1901.243	708.25
1905.499	702.25
1909.752	712.25
1914	704.25
1918.245	732.25
1922.485	722.25
1926.722	724.25
1930.954	720.25
1935.183	727.25
1939.408	723.25
1943.628	732.25
1947.845	724.25
1952.058	719.25
1956.267	695.25
1960.472	708.25
1964.673	688.25
1968.87	674.25
1973.063	662.25
1977.252	655.25
1981.438	642.25
1985.619	636.25
1989.797	624.25
1993.971	637.25
1998.14	640.25
2002.306	636.25
2006.469	635.25
2010.627	621.25
2014.781	621.25
2018.932	605.25
2023.078	630.25
2027.221	611.25
2031.36	586.25
2035.495	592.25
2039.627	590.25
2043.754	594.25
2047.878	576.25
2051.998	578.25
2056.114	574.25
2060.226	575.25
2064.334	572.25
2068.439	584.25
2072.54	580.25
2076.637	561.25
2080.73	564.25
2084.82	567.25
2088.906	563.25
2092.988	564.25
2097.066	562.25
2101.14	577.25
2105.211	569.25
2109.278	542.25
2113.342	535.25
2117.401	526.25
2121.457	525.25
2125.509	508.25
2129.558	524.25
2133.602	515.25
2137.643	510.25
2141.681	509.25
2145.714	515.25
2149.744	506.25
2153.77	505.25
2157.793	491.25
2161.812	470.25
2165.827	454.25
2169.838	476.25
2173.846	455.25
2177.851	461.25
2181.851	458.25
2185.848	452.25
2189.841	448.25
2193.831	437.25
2197.817	449.25
2201.799	432.25
2205.778	417.25
2209.753	429.25
2213.725	428.25
2217.693	423.25
2221.657	416.25
2225.618	430.25
2229.575	421.25
2233.529	414.25
2237.479	422.25
2241.425	397.25
2245.368	384.25
2249.307	392.25
2253.243	384.25
2257.175	391.25
2261.104	371.25
2265.029	378.25
2268.95	369.25
2272.868	363.25
2276.783	356.25
2280.694	357.25
2284.601	358.25
2288.505	339.25
2292.405	356.25
2296.302	328.25
2300.195	335.25
2304.085	303.25
2307.971	330.25
2311.854	296.25
2315.734	312.25
2319.609	315.25
2323.482	289.25
2327.351	297.25
2331.216	297.25
2335.078	306.25
2338.937	287.25
2342.792	289.25
2346.643	290.25
2350.492	304.25
2354.336	277.25
2358.178	289.25
2362.015	283.25
2365.85	277.25
2369.681	282.25
2373.508	280.25
2377.333	295.25
2381.153	291.25
2384.971	292.25
2388.785	289.25
2392.595	272.25
2396.402	271.25
2400.206	252.25
2404.007	260.25
2407.804	261.25
2411.597	268.25
2415.388	266.25
2419.174	260.25
2422.958	268.25
2426.738	257.25
2430.515	262.25
2434.289	244.25
2438.059	248.25
2441.825	251.25
2445.589	254.25
2449.349	236.25
2453.106	252.25
2456.859	244.25
2460.61	241.25
2464.356	234.25
2468.1	225.25
2471.84	228.25
2475.577	227.25
2479.311	226.25
2483.041	225.25
2486.768	236.25
2490.492	238.25
2494.213	225.25
2497.93	212.25
2501.644	204.25
2505.355	225.25
2509.062	222.25
2512.766	222.25
2516.467	213.25
2520.165	211.25
2523.859	197.25
2527.551	232.25
2531.239	206.25
2534.923	207.25
2538.605	203.25
2542.283	207.25
2545.958	205.25
2549.63	216.25
2553.299	219.25
2556.964	194.25
2560.626	198.25
2564.285	202.25
2567.941	188.25
2571.594	194.25
2575.243	198.25
2578.89	188.25
2582.533	186.25
2586.173	189.25
2589.809	191.25
2593.443	168.25
2597.073	180.25
2600.701	186.25
2604.325	183.25
2607.946	174.25
2611.564	186.25
2615.178	186.25
2618.79	172.25
2622.398	162.25
2626.004	176.25
2629.606	167.25
2633.205	165.25
2636.801	169.25
2640.394	168.25
2643.983	154.25
2647.57	163.25
2651.153	153.25
2654.734	157.25
2658.311	130.25
2661.885	146.25
2665.456	145.25
2669.025	152.25
2672.589	142.25
2676.151	155.25
2679.71	157.25
2683.266	142.25
2686.819	136.25
2690.368	150.25
2693.915	135.25
2697.458	137.25
2700.999	147.25
2704.536	139.25
2708.071	142.25
2711.602	132.25
2715.13	126.25
2718.656	107.25
2722.178	125.25
2725.697	112.25
2729.214	126.25
2732.727	120.25
2736.237	105.25
2739.744	116.25
2743.249	109.25
2746.75	120.25
2750.248	114.25
2753.743	114.25
2757.236	113.25
2760.725	119.25
2764.211	91.25
2767.695	118.25
2771.175	117.25
2774.652	117.25
2778.127	107.25
2781.598	111.25
2785.067	112.25
2788.532	104.25
2791.995	113.25
2795.455	107.25
2798.911	120.25
2802.365	106.25
2805.816	108.25
2809.264	124.25
2812.709	110.25
2816.151	110.25
2819.59	98.25
2823.026	108.25
2826.46	101.25
2829.89	129.25
2833.318	91.25
2836.742	107.25
2840.164	109.25
2843.583	117.25
2846.999	120.25
2850.412	115.25
2853.822	111.25
2857.229	128.25
2860.634	130.25
2864.035	104.25
2867.434	128.25
2870.83	136.25
2874.223	128.25
2877.613	130.25
2881	118.25
2884.385	120.25
2887.766	132.25
2891.145	139.25
2894.521	134.25
2897.894	126.25
2901.264	136.25
2904.631	133.25
2907.996	134.25
2911.358	148.25
2914.717	139.25
2918.073	133.25
2921.426	136.25
2924.777	124.25
2928.124	139.25
2931.469	156.25
2934.811	135.25
2938.15	163.25
2941.487	146.25
2944.821	174.25
2948.152	155.25
2951.48	162.25
2954.805	147.25
2958.128	164.25
2961.447	153.25
2964.765	170.25
2968.079	161.25
2971.39	160.25
2974.699	162.25
2978.005	172.25
2981.308	167.25
2984.609	166.25
2987.907	175.25
2991.202	177.25
2994.494	161.25
2997.784	167.25
3001.07	178.25
3004.355	177.25
3007.636	178.25
3010.915	189.25
3014.191	176.25
3017.464	182.25
3020.734	186.25
3024.002	189.25
3027.267	180.25
3030.53	193.25
3033.789	193.25
3037.046	196.25
3040.301	194.25
3043.552	206.25
3046.801	207.25
3050.048	219.25
3053.291	238.25
3056.532	232.25
3059.771	205.25
3063.006	237.25
3066.239	241.25
3069.469	248.25
3072.697	255.25
3075.922	259.25
3079.144	257.25
3082.364	288.25
3085.581	265.25
3088.795	297.25
3092.007	303.25
3095.216	308.25
3098.423	303.25
3101.627	288.25
3104.828	320.25
3108.026	314.25
3111.222	334.25
3114.416	345.25
3117.607	346.25
3120.795	356.25
3123.98	355.25
3127.163	355.25
3130.344	371.25
3133.521	367.25
3136.696	402.25
3139.869	401.25
3143.039	390.25
3146.206	429.25
3149.371	430.25
3152.533	416.25
3155.693	408.25
3158.85	435.25
3162.005	440.25
3165.157	425.25
3168.306	442.25
3171.453	442.25
3174.597	432.25
3177.739	429.25
3180.878	441.25
3184.014	445.25
3187.149	438.25
3190.28	440.25
3193.409	449.25
3196.536	452.25
3199.659	458.25
3202.781	455.25
3205.9	443.25
3209.016	459.25
3212.13	449.25
3215.241	445.25
3218.35	447.25
3221.456	440.25
3224.56	435.25
3227.661	433.25
3230.76	432.25
3233.856	427.25
3236.95	432.25
3240.041	415.25
3243.13	433.25
3246.216	414.25
3249.3	421.25
3252.382	415.25
3255.46	411.25
3258.537	368.25
3261.611	402.25
3264.682	405.25
3267.751	402.25
3270.818	392.25
3273.882	412.25
3276.943	398.25
3280.002	415.25
3283.059	387.25
3286.113	394.25
3289.165	373.25
3292.214	359.25
3295.261	373.25
3298.306	357.25
3301.348	369.25
3304.387	351.25
3307.425	354.25
3310.459	342.25
3313.492	351.25
3316.521	345.25
3319.549	348.25
3322.574	345.25
3325.597	332.25
3328.617	327.25
3331.635	325.25
3334.65	313.25
3337.663	336.25
3340.674	327.25
3343.682	328.25
3346.688	336.25
3349.691	320.25
3352.692	329.25
3355.691	330.25
3358.687	321.25
3361.681	322.25
3364.673	314.25
3367.662	316.25
3370.649	310.25
3373.633	289.25
3376.615	306.25
3379.595	280.25
3382.572	286.25
3385.547	279.25
3388.52	275.25
3391.49	271.25
3394.458	271.25
3397.424	278.25
3400.387	257.25
3403.348	270.25
3406.307	264.25
3409.263	260.25
3412.217	266.25
3415.168	257.25
3418.118	265.25
3421.065	247.25
3424.009	257.25
3426.951	239.25
3429.891	241.25
3432.829	237.25
3435.764	240.25
3438.697	214.25
3441.628	229.25
3444.557	205.25
3447.483	197.25
3450.407	208.25
3453.328	194.25
3456.247	191.25
3459.164	176.25
3462.079	194.25
3464.991	179.25
3467.902	177.25
3470.809	163.25
3473.715	180.25
3476.618	153.25
3479.519	155.25
3482.418	131.25
3485.315	135.25
3488.209	132.25
3491.101	134.25
3493.99	123.25
3496.878	120.25
3499.763	124.25
3502.646	124.25
3505.527	105.25
3508.405	103.25
3511.281	98.25
3514.155	97.25
3517.027	96.25
3519.897	83.25
3522.764	81.25
3525.629	68.25
3528.492	79.25
3531.352	71.25
3534.211	70.25
3537.067	61.25
3539.921	51.25
3542.773	66.25
3545.622	45.25
3548.469	39.25
3551.315	34.25
3554.157	40.25
3556.998	33.25
3559.837	32.25
3562.673	45.25
3565.507	26.25
3568.339	18.25
3571.169	28.25
3573.996	21.25
3576.822	2.25
3579.645	9.25
3582.466	11.25
3585.285	16.25
3588.101	12.25
3590.916	5.25
3593.728	11.25
3596.538	0.25
3599.346	4.25
3602.152	-3.75
3604.956	-0.75
3607.757	-0.75
3610.556	-13.75
3613.354	1.25
3616.149	-3.75
3618.942	-4.75
3621.732	-1.75
3624.521	-13.75
3627.307	-19.75
3630.092	-16.75
3632.874	-5.75
3635.654	-14.75
3638.432	-19.75
3641.208	-25.75
3643.982	-17.75
3646.753	-12.75
3649.523	-44.75
3652.29	-24.75
3655.055	-14.75
3657.818	-24.75
3660.579	-24.75
3663.338	-40.75
3666.095	-32.75
3668.849	-52.75
3671.602	-26.75
3674.352	-39.75
3677.101	-23.75
3679.847	-22.75
3682.591	-38.75
3685.333	-50.75
3688.073	-32.75
3690.811	-49.75
3693.547	-52.75
3696.281	-50.75
3699.013	-35.75
3701.742	-45.75
3704.47	-52.75
3707.195	-39.75
3709.919	-43.75
3712.64	-41.75
3715.359	-52.75
3718.076	-32.75
3720.792	-46.75
3723.505	-43.75
3726.216	-33.75
3728.925	-48.75
3731.632	-49.75
3734.336	-45.75
3737.039	-45.75
3739.74	-51.75
3742.439	-71.75
3745.136	-43.75
3747.83	-42.75
3750.523	-45.75
3753.213	-103.75
3755.902	-49.75
3758.589	-62.75
3761.273	-51.75
3763.956	-42.75
3766.636	-63.75
3769.315	-42.75
3771.991	-47.75
3774.665	-49.75
3777.338	-51.75
3780.008	-58.75
3782.677	-49.75
3785.343	-63.75
3788.007	-68.75
3790.67	-46.75
3793.33	-63.75
3795.989	-54.75
3798.645	-50.75
3801.299	-65.75
3803.952	-63.75
3806.602	-55.75
3809.251	-44.75
3811.897	-52.75
3814.542	-57.75
3817.184	-55.75
3819.825	-56.75
3822.463	-68.75
3825.1	-58.75
3827.735	-51.75
3830.367	-61.75
3832.998	-44.75
3835.627	-58.75
3838.253	-46.75
3840.878	-53.75
3843.501	-36.75
3846.122	-45.75
3848.741	-43.75
3851.358	-46.75
3853.973	-62.75
3856.586	-43.75
3859.197	-56.75
3861.806	-50.75
3864.414	-65.75
3867.019	-51.75
3869.622	-42.75
3872.224	-33.75
3874.823	-19.75
3877.421	15.25
3880.016	32.25
3882.61	71.25
3885.202	81.25
3887.792	55.25
3890.38	14.25
3892.966	-29.75
3895.55	-51.75
3898.132	-44.75
3900.713	-44.75
3903.291	-52.75
3905.868	-58.75
3908.442	-51.75
3911.015	-52.75
3913.586	-58.75
3916.155	-55.75
3918.722	-58.75
3921.287	-59.75
3923.85	-63.75
3926.411	-58.75
3928.971	-60.75
3931.528	-54.75
3934.084	-51.75
3936.638	-64.75
3939.19	-52.75
3941.74	-48.75
3944.288	-57.75
3946.834	-55.75
3949.378	-46.75
3951.921	-57.75
3954.462	-53.75
3957	-47.75
3959.537	-38.75
3962.072	-51.75
3964.606	-62.75
3967.137	-56.75
3969.667	-59.75
3972.194	-43.75
3974.72	-58.75
3977.244	-75.75
3979.766	-45.75
3982.286	-20.75
3984.805	-44.75
3987.321	-44.75
3989.836	-50.75
3992.349	-58.75
3994.86	-51.75
3997.369	-59.75
3999.877	-51.75
4002.382	-57.75
4004.886	-45.75
4007.388	-52.75
4009.888	-42.75
4012.386	-43.75
4014.883	-45.75
4017.377	-53.75
4019.87	-50.75
4022.361	-59.75
4024.85	-52.75
4027.338	-45.75
4029.823	-58.75
4032.307	-58.75
4034.789	-52.75
4037.269	-52.75
4039.747	-66.75
4042.224	-40.75
4044.699	-55.75
4047.172	-56.75
4049.643	-46.75
4052.112	-78.75
4054.58	-51.75
4057.046	-63.75
4059.51	-55.75
4061.972	-50.75
4064.432	-70.75
4066.891	-42.75
4069.348	-52.75
4071.803	-49.75
4074.256	-52.75
4076.708	-44.75
4079.158	-43.75
4081.606	-38.75
4084.052	-53.75
4086.497	-44.75
4088.939	-51.75
4091.38	-52.75
4093.819	-45.75
4096.257	-21.75
4098.693	-28.75
4101.127	-24.75
4103.559	-25.75
4105.989	106.25
4108.418	98.25
4110.845	86.25
4113.27	94.25
4115.694	100.25
4118.115	81.25
4120.535	-47.75
4122.954	-43.75
4125.37	-35.75
4127.785	-35.75
4130.198	66.25
4132.609	97.25
4135.019	66.25
4137.427	37.25
4139.833	16.25
4142.237	-18.75
