Data from 2018-3-6_conc=3_n=10_RamanShift_04.txt Node
Date: Tue Mar 06 13:44:49 GMT+02:00 2018
User: LAB3
Spectrometer: QEPB0276
Trigger mode: 0
Integration Time (sec): 3.000000E1
Scans to average: 1
Electric dark correction enabled: true
Nonlinearity correction enabled: false
Boxcar width: 0
XAxis mode: Raman Shifts
Number of Pixels in Spectrum: 1044
>>>>>Begin Spectral Data<<<<<
160.701	122.38
166.742	145.38
172.777	211.38
178.805	422.38
184.826	954.38
190.841	1886.38
196.849	2972.38
202.85	3786.38
208.845	4085.38
214.833	4084.38
220.815	4016.38
226.789	4027.38
232.758	4046.38
238.719	4046.38
244.674	4005.38
250.623	3956.38
256.565	3923.38
262.5	3874.38
268.429	3891.38
274.351	3828.38
280.267	3822.38
286.176	3831.38
292.079	3818.38
297.975	3829.38
303.865	3815.38
309.748	3836.38
315.625	3808.38
321.495	3854.38
327.359	3811.38
333.217	3843.38
339.068	3860.38
344.912	3869.38
350.751	3844.38
356.583	3879.38
362.408	3907.38
368.227	3900.38
374.04	3918.38
379.847	3928.38
385.647	3976.38
391.44	4005.38
397.228	3984.38
403.009	4042.38
408.784	4018.38
414.553	4043.38
420.315	4050.38
426.071	4069.38
431.821	4066.38
437.565	4068.38
443.302	4059.38
449.033	4028.38
454.758	4040.38
460.477	4010.38
466.189	3945.38
471.896	3930.38
477.596	3874.38
483.29	3884.38
488.978	3856.38
494.66	3829.38
500.335	3741.38
506.005	3578.38
511.668	3439.38
517.325	3240.38
522.977	3104.38
528.622	3038.38
534.261	2963.38
539.894	2916.38
545.521	2863.38
551.141	2838.38
556.756	2809.38
562.365	2765.38
567.968	2743.38
573.565	2726.38
579.155	2740.38
584.74	2702.38
590.319	2724.38
595.892	2702.38
601.459	2701.38
607.02	2692.38
612.575	2655.38
618.124	2618.38
623.667	2580.38
629.204	2558.38
634.735	2537.38
640.261	2515.38
645.781	2458.38
651.294	2463.38
656.802	2466.38
662.304	2476.38
667.8	2448.38
673.29	2429.38
678.775	2447.38
684.254	2422.38
689.726	2405.38
695.193	2420.38
700.655	2384.38
706.11	2373.38
711.56	2357.38
717.004	2374.38
722.442	2330.38
727.874	2323.38
733.301	2335.38
738.722	2291.38
744.137	2321.38
749.547	2316.38
754.951	2307.38
760.349	2308.38
765.741	2325.38
771.128	2330.38
776.509	2388.38
781.885	2381.38
787.254	2412.38
792.618	2418.38
797.977	2408.38
803.33	2407.38
808.677	2365.38
814.019	2365.38
819.355	2334.38
824.686	2311.38
830.011	2304.38
835.33	2290.38
840.644	2289.38
845.952	2259.38
851.255	2274.38
856.552	2227.38
861.844	2200.38
867.13	2171.38
872.41	2146.38
877.686	2136.38
882.955	2127.38
888.219	2091.38
893.478	2073.38
898.731	2034.38
903.979	2021.38
909.221	1990.38
914.458	1979.38
919.69	1984.38
924.916	1997.38
930.136	1993.38
935.351	1997.38
940.561	2001.38
945.766	1978.38
950.965	2006.38
956.158	1954.38
961.347	1953.38
966.529	1928.38
971.707	1917.38
976.879	1888.38
982.046	1871.38
987.208	1844.38
992.364	1853.38
997.515	1854.38
1002.66	1879.38
1007.801	1861.38
1012.936	1896.38
1018.066	1884.38
1023.19	1911.38
1028.309	1934.38
1033.423	1944.38
1038.532	1937.38
1043.636	1904.38
1048.734	1904.38
1053.827	1856.38
1058.915	1852.38
1063.998	1835.38
1069.075	1833.38
1074.147	1845.38
1079.214	1829.38
1084.276	1848.38
1089.333	1851.38
1094.385	1865.38
1099.431	1836.38
1104.472	1816.38
1109.509	1813.38
1114.54	1791.38
1119.565	1767.38
1124.586	1732.38
1129.602	1723.38
1134.613	1700.38
1139.618	1699.38
1144.619	1686.38
1149.614	1697.38
1154.604	1695.38
1159.589	1711.38
1164.57	1709.38
1169.545	1721.38
1174.515	1732.38
1179.48	1712.38
1184.44	1692.38
1189.395	1698.38
1194.345	1666.38
1199.29	1674.38
1204.23	1659.38
1209.165	1650.38
1214.095	1685.38
1219.021	1671.38
1223.941	1667.38
1228.856	1685.38
1233.766	1689.38
1238.672	1693.38
1243.572	1695.38
1248.467	1666.38
1253.358	1658.38
1258.244	1609.38
1263.124	1611.38
1268	1586.38
1272.871	1542.38
1277.737	1545.38
1282.599	1501.38
1287.455	1514.38
1292.306	1543.38
1297.153	1515.38
1301.995	1525.38
1306.832	1533.38
1311.664	1546.38
1316.491	1533.38
1321.314	1525.38
1326.132	1515.38
1330.945	1505.38
1335.753	1486.38
1340.556	1457.38
1345.354	1426.38
1350.148	1405.38
1354.937	1410.38
1359.722	1390.38
1364.501	1367.38
1369.276	1374.38
1374.046	1383.38
1378.811	1363.38
1383.572	1366.38
1388.327	1366.38
1393.079	1345.38
1397.825	1322.38
1402.567	1324.38
1407.304	1328.38
1412.036	1302.38
1416.764	1309.38
1421.487	1301.38
1426.205	1292.38
1430.919	1308.38
1435.628	1308.38
1440.333	1318.38
1445.032	1321.38
1449.727	1336.38
1454.418	1350.38
1459.104	1334.38
1463.785	1307.38
1468.462	1297.38
1473.134	1288.38
1477.802	1251.38
1482.465	1215.38
1487.123	1208.38
1491.777	1184.38
1496.426	1181.38
1501.071	1218.38
1505.711	1200.38
1510.347	1217.38
1514.978	1225.38
1519.604	1204.38
1524.226	1239.38
1528.844	1197.38
1533.457	1220.38
1538.065	1208.38
1542.669	1196.38
1547.269	1183.38
1551.864	1191.38
1556.454	1171.38
1561.041	1188.38
1565.622	1190.38
1570.199	1184.38
1574.772	1209.38
1579.34	1213.38
1583.904	1234.38
1588.464	1247.38
1593.019	1229.38
1597.569	1220.38
1602.115	1220.38
1606.657	1214.38
1611.195	1216.38
1615.728	1236.38
1620.256	1184.38
1624.78	1169.38
1629.3	1202.38
1633.816	1218.38
1638.327	1209.38
1642.834	1228.38
1647.336	1223.38
1651.834	1237.38
1656.328	1237.38
1660.817	1223.38
1665.302	1192.38
1669.783	1196.38
1674.259	1168.38
1678.732	1135.38
1683.199	1099.38
1687.663	1072.38
1692.122	1069.38
1696.577	1041.38
1701.028	1030.38
1705.474	995.38
1709.917	976.38
1714.355	967.38
1718.788	957.38
1723.218	938.38
1727.643	928.38
1732.064	919.38
1736.481	904.38
1740.893	889.38
1745.301	873.38
1749.705	841.38
1754.105	841.38
1758.501	802.38
1762.893	814.38
1767.28	783.38
1771.663	787.38
1776.042	774.38
1780.417	755.38
1784.787	763.38
1789.154	767.38
1793.516	761.38
1797.874	777.38
1802.228	760.38
1806.578	753.38
1810.924	759.38
1815.266	634.38
1819.603	744.38
1823.937	725.38
1828.266	734.38
1832.591	721.38
1836.913	712.38
1841.23	712.38
1845.543	694.38
1849.852	718.38
1854.156	700.38
1858.457	698.38
1862.754	708.38
1867.047	710.38
1871.335	713.38
1875.62	713.38
1879.9	697.38
1884.177	699.38
1888.449	686.38
1892.718	688.38
1896.982	694.38
1901.243	665.38
1905.499	674.38
1909.752	659.38
1914	651.38
1918.245	684.38
1922.485	671.38
1926.722	662.38
1930.954	654.38
1935.183	659.38
1939.408	687.38
1943.628	676.38
1947.845	673.38
1952.058	651.38
1956.267	650.38
1960.472	653.38
1964.673	632.38
1968.87	638.38
1973.063	622.38
1977.252	612.38
1981.438	607.38
1985.619	598.38
1989.797	592.38
1993.971	600.38
1998.14	598.38
2002.306	590.38
2006.469	599.38
2010.627	582.38
2014.781	577.38
2018.932	573.38
2023.078	594.38
2027.221	583.38
2031.36	554.38
2035.495	556.38
2039.627	553.38
2043.754	558.38
2047.878	538.38
2051.998	535.38
2056.114	528.38
2060.226	531.38
2064.334	548.38
2068.439	558.38
2072.54	562.38
2076.637	532.38
2080.73	541.38
2084.82	540.38
2088.906	531.38
2092.988	534.38
2097.066	541.38
2101.14	542.38
2105.211	540.38
2109.278	506.38
2113.342	504.38
2117.401	517.38
2121.457	494.38
2125.509	493.38
2129.558	502.38
2133.602	499.38
2137.643	506.38
2141.681	489.38
2145.714	493.38
2149.744	482.38
2153.77	482.38
2157.793	461.38
2161.812	445.38
2165.827	435.38
2169.838	466.38
2173.846	455.38
2177.851	435.38
2181.851	443.38
2185.848	431.38
2189.841	430.38
2193.831	424.38
2197.817	423.38
2201.799	424.38
2205.778	404.38
2209.753	402.38
2213.725	397.38
2217.693	403.38
2221.657	397.38
2225.618	417.38
2229.575	393.38
2233.529	404.38
2237.479	403.38
2241.425	390.38
2245.368	383.38
2249.307	378.38
2253.243	370.38
2257.175	381.38
2261.104	357.38
2265.029	368.38
2268.95	354.38
2272.868	346.38
2276.783	340.38
2280.694	345.38
2284.601	344.38
2288.505	325.38
2292.405	341.38
2296.302	315.38
2300.195	317.38
2304.085	294.38
2307.971	319.38
2311.854	288.38
2315.734	308.38
2319.609	311.38
2323.482	272.38
2327.351	285.38
2331.216	287.38
2335.078	288.38
2338.937	290.38
2342.792	285.38
2346.643	282.38
2350.492	288.38
2354.336	288.38
2358.178	290.38
2362.015	282.38
2365.85	287.38
2369.681	289.38
2373.508	284.38
2377.333	294.38
2381.153	283.38
2384.971	281.38
2388.785	281.38
2392.595	266.38
2396.402	264.38
2400.206	258.38
2404.007	262.38
2407.804	269.38
2411.597	269.38
2415.388	267.38
2419.174	258.38
2422.958	269.38
2426.738	258.38
2430.515	262.38
2434.289	251.38
2438.059	245.38
2441.825	243.38
2445.589	261.38
2449.349	234.38
2453.106	247.38
2456.859	233.38
2460.61	246.38
2464.356	232.38
2468.1	227.38
2471.84	224.38
2475.577	223.38
2479.311	228.38
2483.041	234.38
2486.768	244.38
2490.492	240.38
2494.213	226.38
2497.93	210.38
2501.644	213.38
2505.355	225.38
2509.062	218.38
2512.766	223.38
2516.467	213.38
2520.165	210.38
2523.859	193.38
2527.551	234.38
2531.239	202.38
2534.923	210.38
2538.605	200.38
2542.283	205.38
2545.958	204.38
2549.63	219.38
2553.299	211.38
2556.964	196.38
2560.626	191.38
2564.285	209.38
2567.941	184.38
2571.594	179.38
2575.243	195.38
2578.89	195.38
2582.533	192.38
2586.173	187.38
2589.809	192.38
2593.443	166.38
2597.073	169.38
2600.701	191.38
2604.325	175.38
2607.946	171.38
2611.564	186.38
2615.178	176.38
2618.79	181.38
2622.398	168.38
2626.004	176.38
2629.606	172.38
2633.205	163.38
2636.801	174.38
2640.394	171.38
2643.983	161.38
2647.57	163.38
2651.153	152.38
2654.734	164.38
2658.311	134.38
2661.885	143.38
2665.456	144.38
2669.025	158.38
2672.589	146.38
2676.151	161.38
2679.71	158.38
2683.266	148.38
2686.819	146.38
2690.368	150.38
2693.915	147.38
2697.458	141.38
2700.999	145.38
2704.536	138.38
2708.071	137.38
2711.602	131.38
2715.13	128.38
2718.656	114.38
2722.178	136.38
2725.697	118.38
2729.214	123.38
2732.727	122.38
2736.237	112.38
2739.744	121.38
2743.249	113.38
2746.75	121.38
2750.248	120.38
2753.743	128.38
2757.236	123.38
2760.725	123.38
2764.211	91.38
2767.695	125.38
2771.175	115.38
2774.652	122.38
2778.127	115.38
2781.598	118.38
2785.067	122.38
2788.532	109.38
2791.995	122.38
2795.455	111.38
2798.911	120.38
2802.365	114.38
2805.816	120.38
2809.264	135.38
2812.709	117.38
2816.151	124.38
2819.59	115.38
2823.026	121.38
2826.46	119.38
2829.89	125.38
2833.318	104.38
2836.742	118.38
2840.164	122.38
2843.583	119.38
2846.999	116.38
2850.412	129.38
2853.822	115.38
2857.229	136.38
2860.634	140.38
2864.035	108.38
2867.434	137.38
2870.83	138.38
2874.223	124.38
2877.613	132.38
2881	117.38
2884.385	135.38
2887.766	135.38
2891.145	140.38
2894.521	131.38
2897.894	120.38
2901.264	145.38
2904.631	146.38
2907.996	142.38
2911.358	146.38
2914.717	143.38
2918.073	138.38
2921.426	141.38
2924.777	131.38
2928.124	146.38
2931.469	165.38
2934.811	140.38
2938.15	161.38
2941.487	158.38
2944.821	175.38
2948.152	164.38
2951.48	165.38
2954.805	144.38
2958.128	176.38
2961.447	155.38
2964.765	169.38
2968.079	162.38
2971.39	167.38
2974.699	161.38
2978.005	169.38
2981.308	166.38
2984.609	160.38
2987.907	174.38
2991.202	177.38
2994.494	161.38
2997.784	174.38
3001.07	173.38
3004.355	167.38
3007.636	173.38
3010.915	183.38
3014.191	181.38
3017.464	184.38
3020.734	186.38
3024.002	188.38
3027.267	193.38
3030.53	196.38
3033.789	191.38
3037.046	192.38
3040.301	191.38
3043.552	204.38
3046.801	209.38
3050.048	215.38
3053.291	238.38
3056.532	227.38
3059.771	213.38
3063.006	235.38
3066.239	232.38
3069.469	251.38
3072.697	243.38
3075.922	249.38
3079.144	255.38
3082.364	283.38
3085.581	259.38
3088.795	294.38
3092.007	291.38
3095.216	298.38
3098.423	292.38
3101.627	275.38
3104.828	315.38
3108.026	301.38
3111.222	328.38
3114.416	341.38
3117.607	342.38
3120.795	335.38
3123.98	349.38
3127.163	346.38
3130.344	357.38
3133.521	363.38
3136.696	382.38
3139.869	383.38
3143.039	371.38
3146.206	397.38
3149.371	402.38
3152.533	402.38
3155.693	396.38
3158.85	417.38
3162.005	413.38
3165.157	406.38
3168.306	414.38
3171.453	419.38
3174.597	412.38
3177.739	405.38
3180.878	423.38
3184.014	422.38
3187.149	426.38
3190.28	425.38
3193.409	427.38
3196.536	423.38
3199.659	432.38
3202.781	441.38
3205.9	419.38
3209.016	434.38
3212.13	434.38
3215.241	426.38
3218.35	425.38
3221.456	416.38
3224.56	402.38
3227.661	421.38
3230.76	405.38
3233.856	389.38
3236.95	413.38
3240.041	388.38
3243.13	411.38
3246.216	398.38
3249.3	392.38
3252.382	402.38
3255.46	378.38
3258.537	338.38
3261.611	375.38
3264.682	391.38
3267.751	382.38
3270.818	364.38
3273.882	394.38
3276.943	385.38
3280.002	395.38
3283.059	372.38
3286.113	375.38
3289.165	363.38
3292.214	356.38
3295.261	372.38
3298.306	347.38
3301.348	356.38
3304.387	333.38
3307.425	349.38
3310.459	335.38
3313.492	343.38
3316.521	332.38
3319.549	341.38
3322.574	329.38
3325.597	328.38
3328.617	308.38
3331.635	323.38
3334.65	303.38
3337.663	320.38
3340.674	313.38
3343.682	316.38
3346.688	322.38
3349.691	308.38
3352.692	310.38
3355.691	323.38
3358.687	311.38
3361.681	306.38
3364.673	303.38
3367.662	306.38
3370.649	307.38
3373.633	290.38
3376.615	298.38
3379.595	270.38
3382.572	279.38
3385.547	274.38
3388.52	265.38
3391.49	263.38
3394.458	258.38
3397.424	269.38
3400.387	250.38
3403.348	254.38
3406.307	267.38
3409.263	252.38
3412.217	259.38
3415.168	256.38
3418.118	252.38
3421.065	245.38
3424.009	253.38
3426.951	242.38
3429.891	241.38
3432.829	231.38
3435.764	235.38
3438.697	217.38
3441.628	231.38
3444.557	208.38
3447.483	206.38
3450.407	213.38
3453.328	195.38
3456.247	186.38
3459.164	182.38
3462.079	192.38
3464.991	174.38
3467.902	168.38
3470.809	176.38
3473.715	177.38
3476.618	153.38
3479.519	156.38
3482.418	136.38
3485.315	139.38
3488.209	131.38
3491.101	132.38
3493.99	119.38
3496.878	123.38
3499.763	123.38
3502.646	132.38
3505.527	109.38
3508.405	109.38
3511.281	89.38
3514.155	110.38
3517.027	94.38
3519.897	88.38
3522.764	91.38
3525.629	67.38
3528.492	79.38
3531.352	83.38
3534.211	75.38
3537.067	66.38
3539.921	75.38
3542.773	67.38
3545.622	54.38
3548.469	48.38
3551.315	44.38
3554.157	54.38
3556.998	32.38
3559.837	42.38
3562.673	46.38
3565.507	30.38
3568.339	27.38
3571.169	29.38
3573.996	37.38
3576.822	10.38
3579.645	20.38
3582.466	16.38
3585.285	25.38
3588.101	18.38
3590.916	17.38
3593.728	15.38
3596.538	15.38
3599.346	19.38
3602.152	11.38
3604.956	11.38
3607.757	13.38
3610.556	-3.62
3613.354	17.38
3616.149	7.38
3618.942	10.38
3621.732	7.38
3624.521	-1.62
3627.307	-2.62
3630.092	-11.62
3632.874	10.38
3635.654	-2.62
3638.432	-2.62
3641.208	-5.62
3643.982	-4.62
3646.753	2.38
3649.523	-29.62
3652.29	-11.62
3655.055	-5.62
3657.818	-5.62
3660.579	-14.62
3663.338	-22.62
3666.095	-17.62
3668.849	-38.62
3671.602	-9.62
3674.352	-33.62
3677.101	-13.62
3679.847	-7.62
3682.591	-23.62
3685.333	-30.62
3688.073	-17.62
3690.811	-25.62
3693.547	-32.62
3696.281	-28.62
3699.013	-17.62
3701.742	-25.62
3704.47	-31.62
3707.195	-20.62
3709.919	-19.62
3712.64	-25.62
3715.359	-32.62
3718.076	-11.62
3720.792	-26.62
3723.505	-19.62
3726.216	-16.62
3728.925	-22.62
3731.632	-33.62
3734.336	-27.62
3737.039	-27.62
3739.74	-17.62
3742.439	-46.62
3745.136	-21.62
3747.83	-21.62
3750.523	-19.62
3753.213	-78.62
3755.902	-26.62
3758.589	-42.62
3761.273	-29.62
3763.956	-18.62
3766.636	-40.62
3769.315	-22.62
3771.991	-29.62
3774.665	-32.62
3777.338	-26.62
3780.008	-36.62
3782.677	-31.62
3785.343	-40.62
3788.007	-47.62
3790.67	-26.62
3793.33	-38.62
3795.989	-35.62
3798.645	-30.62
3801.299	-40.62
3803.952	-37.62
3806.602	-33.62
3809.251	-29.62
3811.897	-26.62
3814.542	-34.62
3817.184	-33.62
3819.825	-33.62
3822.463	-43.62
3825.1	-32.62
3827.735	-33.62
3830.367	-38.62
3832.998	-18.62
3835.627	-35.62
3838.253	-24.62
3840.878	-32.62
3843.501	-14.62
3846.122	-28.62
3848.741	-24.62
3851.358	-21.62
3853.973	-39.62
3856.586	-23.62
3859.197	-40.62
3861.806	-27.62
3864.414	-40.62
3867.019	-28.62
3869.622	-18.62
3872.224	-16.62
3874.823	-2.62
3877.421	20.38
3880.016	44.38
3882.61	85.38
3885.202	96.38
3887.792	68.38
3890.38	32.38
3892.966	-5.62
3895.55	-24.62
3898.132	-16.62
3900.713	-22.62
3903.291	-30.62
3905.868	-36.62
3908.442	-29.62
3911.015	-31.62
3913.586	-38.62
3916.155	-28.62
3918.722	-38.62
3921.287	-40.62
3923.85	-47.62
3926.411	-38.62
3928.971	-39.62
3931.528	-29.62
3934.084	-39.62
3936.638	-40.62
3939.19	-27.62
3941.74	-32.62
3944.288	-33.62
3946.834	-37.62
3949.378	-26.62
3951.921	-39.62
3954.462	-37.62
3957	-28.62
3959.537	-18.62
3962.072	-31.62
3964.606	-45.62
3967.137	-36.62
3969.667	-38.62
3972.194	-28.62
3974.72	-36.62
3977.244	-54.62
3979.766	-38.62
3982.286	-41.62
3984.805	-27.62
3987.321	-22.62
3989.836	-23.62
3992.349	-38.62
3994.86	-34.62
3997.369	-37.62
3999.877	-30.62
4002.382	-39.62
4004.886	-25.62
4007.388	-29.62
4009.888	-22.62
4012.386	-26.62
4014.883	-28.62
4017.377	-28.62
4019.87	-23.62
4022.361	-37.62
4024.85	-36.62
4027.338	-25.62
4029.823	-31.62
4032.307	-32.62
4034.789	-24.62
4037.269	-28.62
4039.747	-42.62
4042.224	-25.62
4044.699	-39.62
4047.172	-30.62
4049.643	-28.62
4052.112	-51.62
4054.58	-28.62
4057.046	-40.62
4059.51	-26.62
4061.972	-32.62
4064.432	-46.62
4066.891	-18.62
4069.348	-32.62
4071.803	-29.62
4074.256	-35.62
4076.708	-26.62
4079.158	-27.62
4081.606	-23.62
4084.052	-33.62
4086.497	-24.62
4088.939	-29.62
4091.38	-29.62
4093.819	-24.62
4096.257	1.38
4098.693	-7.62
4101.127	-4.62
4103.559	1.38
4105.989	124.38
4108.418	123.38
4110.845	108.38
4113.27	107.38
4115.694	119.38
4118.115	111.38
4120.535	-29.62
4122.954	-21.62
4125.37	-19.62
4127.785	-25.62
4130.198	-20.62
4132.609	-29.62
4135.019	9.38
4137.427	-2.62
4139.833	5.38
4142.237	-2.62
