Data from 2018-3-6_conc=2_n=2_RamanShift_04.txt Node
Date: Tue Mar 06 12:46:19 GMT+02:00 2018
User: LAB3
Spectrometer: QEPB0276
Trigger mode: 0
Integration Time (sec): 3.000000E1
Scans to average: 1
Electric dark correction enabled: true
Nonlinearity correction enabled: false
Boxcar width: 0
XAxis mode: Raman Shifts
Number of Pixels in Spectrum: 1044
>>>>>Begin Spectral Data<<<<<
160.701	170.62
166.742	227.62
172.777	318.62
178.805	627.62
184.826	1410.62
190.841	2813.62
196.849	4458.62
202.85	5701.62
208.845	6170.62
214.833	6237.62
220.815	6136.62
226.789	6156.62
232.758	6220.62
238.719	6243.62
244.674	6276.62
250.623	6257.62
256.565	6210.62
262.5	6158.62
268.429	6169.62
274.351	6141.62
280.267	6134.62
286.176	6175.62
292.079	6209.62
297.975	6198.62
303.865	6225.62
309.748	6243.62
315.625	6276.62
321.495	6325.62
327.359	6325.62
333.217	6304.62
339.068	6375.62
344.912	6399.62
350.751	6461.62
356.583	6450.62
362.408	6516.62
368.227	6512.62
374.04	6555.62
379.847	6610.62
385.647	6653.62
391.44	6687.62
397.228	6755.62
403.009	6799.62
408.784	6809.62
414.553	6839.62
420.315	6847.62
426.071	6873.62
431.821	6904.62
437.565	6899.62
443.302	6848.62
449.033	6841.62
454.758	6776.62
460.477	6735.62
466.189	6683.62
471.896	6589.62
477.596	6505.62
483.29	6472.62
488.978	6499.62
494.66	6423.62
500.335	6193.62
506.005	5884.62
511.668	5539.62
517.325	5231.62
522.977	4991.62
528.622	4778.62
534.261	4676.62
539.894	4533.62
545.521	4445.62
551.141	4362.62
556.756	4350.62
562.365	4279.62
567.968	4219.62
573.565	4210.62
579.155	4205.62
584.74	4139.62
590.319	4145.62
595.892	4140.62
601.459	4192.62
607.02	4164.62
612.575	4094.62
618.124	4049.62
623.667	3956.62
629.204	3887.62
634.735	3837.62
640.261	3792.62
645.781	3752.62
651.294	3720.62
656.802	3723.62
662.304	3711.62
667.8	3682.62
673.29	3685.62
678.775	3666.62
684.254	3658.62
689.726	3630.62
695.193	3598.62
700.655	3599.62
706.11	3567.62
711.56	3547.62
717.004	3540.62
722.442	3524.62
727.874	3499.62
733.301	3524.62
738.722	3492.62
744.137	3484.62
749.547	3474.62
754.951	3466.62
760.349	3471.62
765.741	3512.62
771.128	3523.62
776.509	3590.62
781.885	3703.62
787.254	3704.62
792.618	3706.62
797.977	3750.62
803.33	3710.62
808.677	3678.62
814.019	3651.62
819.355	3603.62
824.686	3580.62
830.011	3558.62
835.33	3535.62
840.644	3504.62
845.952	3441.62
851.255	3435.62
856.552	3386.62
861.844	3346.62
867.13	3287.62
872.41	3273.62
877.686	3261.62
882.955	3270.62
888.219	3235.62
893.478	3157.62
898.731	3108.62
903.979	3054.62
909.221	3006.62
914.458	2995.62
919.69	2988.62
924.916	2993.62
930.136	2995.62
935.351	2989.62
940.561	3019.62
945.766	3007.62
950.965	2973.62
956.158	2944.62
961.347	2904.62
966.529	2870.62
971.707	2855.62
976.879	2826.62
982.046	2804.62
987.208	2778.62
992.364	2784.62
997.515	2795.62
1002.66	2821.62
1007.801	2826.62
1012.936	2839.62
1018.066	2850.62
1023.19	2886.62
1028.309	2914.62
1033.423	2909.62
1038.532	2923.62
1043.636	2904.62
1048.734	2906.62
1053.827	2846.62
1058.915	2832.62
1063.998	2804.62
1069.075	2782.62
1074.147	2818.62
1079.214	2797.62
1084.276	2814.62
1089.333	2816.62
1094.385	2836.62
1099.431	2778.62
1104.472	2766.62
1109.509	2750.62
1114.54	2699.62
1119.565	2645.62
1124.586	2608.62
1129.602	2580.62
1134.613	2561.62
1139.618	2556.62
1144.619	2546.62
1149.614	2565.62
1154.604	2567.62
1159.589	2589.62
1164.57	2601.62
1169.545	2611.62
1174.515	2595.62
1179.48	2575.62
1184.44	2564.62
1189.395	2547.62
1194.345	2513.62
1199.29	2520.62
1204.23	2498.62
1209.165	2475.62
1214.095	2532.62
1219.021	2522.62
1223.941	2525.62
1228.856	2522.62
1233.766	2537.62
1238.672	2543.62
1243.572	2547.62
1248.467	2506.62
1253.358	2492.62
1258.244	2432.62
1263.124	2412.62
1268	2384.62
1272.871	2326.62
1277.737	2309.62
1282.599	2286.62
1287.455	2296.62
1292.306	2295.62
1297.153	2270.62
1301.995	2329.62
1306.832	2317.62
1311.664	2322.62
1316.491	2315.62
1321.314	2314.62
1326.132	2295.62
1330.945	2266.62
1335.753	2235.62
1340.556	2179.62
1345.354	2136.62
1350.148	2124.62
1354.937	2111.62
1359.722	2076.62
1364.501	2039.62
1369.276	2072.62
1374.046	2056.62
1378.811	2021.62
1383.572	2043.62
1388.327	2035.62
1393.079	2035.62
1397.825	1998.62
1402.567	1998.62
1407.304	1978.62
1412.036	1984.62
1416.764	1976.62
1421.487	1957.62
1426.205	1941.62
1430.919	1962.62
1435.628	1955.62
1440.333	1968.62
1445.032	2016.62
1449.727	2013.62
1454.418	2048.62
1459.104	2049.62
1463.785	2013.62
1468.462	1992.62
1473.134	1923.62
1477.802	1901.62
1482.465	1884.62
1487.123	1880.62
1491.777	1832.62
1496.426	1833.62
1501.071	1856.62
1505.711	1846.62
1510.347	1848.62
1514.978	1883.62
1519.604	1871.62
1524.226	1876.62
1528.844	1851.62
1533.457	1869.62
1538.065	1834.62
1542.669	1798.62
1547.269	1793.62
1551.864	1782.62
1556.454	1774.62
1561.041	1787.62
1565.622	1792.62
1570.199	1783.62
1574.772	1810.62
1579.34	1813.62
1583.904	1821.62
1588.464	1833.62
1593.019	1862.62
1597.569	1842.62
1602.115	1832.62
1606.657	1833.62
1611.195	1853.62
1615.728	1834.62
1620.256	1800.62
1624.78	1784.62
1629.3	1792.62
1633.816	1819.62
1638.327	1810.62
1642.834	1840.62
1647.336	1838.62
1651.834	1892.62
1656.328	1864.62
1660.817	1835.62
1665.302	1842.62
1669.783	1825.62
1674.259	1797.62
1678.732	1752.62
1683.199	1738.62
1687.663	1658.62
1692.122	1629.62
1696.577	1600.62
1701.028	1572.62
1705.474	1537.62
1709.917	1523.62
1714.355	1496.62
1718.788	1480.62
1723.218	1463.62
1727.643	1447.62
1732.064	1440.62
1736.481	1395.62
1740.893	1380.62
1745.301	1346.62
1749.705	1305.62
1754.105	1289.62
1758.501	1279.62
1762.893	1242.62
1767.28	1206.62
1771.663	1209.62
1776.042	1177.62
1780.417	1190.62
1784.787	1198.62
1789.154	1203.62
1793.516	1202.62
1797.874	1196.62
1802.228	1179.62
1806.578	1172.62
1810.924	1177.62
1815.266	1087.62
1819.603	1152.62
1823.937	1123.62
1828.266	1120.62
1832.591	1110.62
1836.913	1102.62
1841.23	1090.62
1845.543	1089.62
1849.852	1092.62
1854.156	1089.62
1858.457	1089.62
1862.754	1098.62
1867.047	1092.62
1871.335	1120.62
1875.62	1116.62
1879.9	1124.62
1884.177	1097.62
1888.449	1086.62
1892.718	1079.62
1896.982	1092.62
1901.243	1061.62
1905.499	1072.62
1909.752	1048.62
1914	1051.62
1918.245	1082.62
1922.485	1073.62
1926.722	1052.62
1930.954	1063.62
1935.183	1085.62
1939.408	1092.62
1943.628	1078.62
1947.845	1062.62
1952.058	1050.62
1956.267	1035.62
1960.472	1046.62
1964.673	1022.62
1968.87	988.62
1973.063	964.62
1977.252	963.62
1981.438	940.62
1985.619	942.62
1989.797	910.62
1993.971	925.62
1998.14	934.62
2002.306	926.62
2006.469	922.62
2010.627	906.62
2014.781	909.62
2018.932	892.62
2023.078	911.62
2027.221	896.62
2031.36	878.62
2035.495	871.62
2039.627	862.62
2043.754	858.62
2047.878	860.62
2051.998	848.62
2056.114	844.62
2060.226	846.62
2064.334	853.62
2068.439	863.62
2072.54	864.62
2076.637	851.62
2080.73	857.62
2084.82	868.62
2088.906	866.62
2092.988	863.62
2097.066	856.62
2101.14	869.62
2105.211	856.62
2109.278	838.62
2113.342	819.62
2117.401	798.62
2121.457	780.62
2125.509	794.62
2129.558	795.62
2133.602	779.62
2137.643	764.62
2141.681	771.62
2145.714	761.62
2149.744	764.62
2153.77	757.62
2157.793	738.62
2161.812	715.62
2165.827	703.62
2169.838	732.62
2173.846	701.62
2177.851	686.62
2181.851	708.62
2185.848	682.62
2189.841	680.62
2193.831	663.62
2197.817	659.62
2201.799	667.62
2205.778	647.62
2209.753	655.62
2213.725	645.62
2217.693	645.62
2221.657	642.62
2225.618	643.62
2229.575	631.62
2233.529	625.62
2237.479	628.62
2241.425	613.62
2245.368	598.62
2249.307	613.62
2253.243	588.62
2257.175	580.62
2261.104	563.62
2265.029	571.62
2268.95	554.62
2272.868	564.62
2276.783	537.62
2280.694	546.62
2284.601	531.62
2288.505	528.62
2292.405	519.62
2296.302	504.62
2300.195	511.62
2304.085	485.62
2307.971	497.62
2311.854	470.62
2315.734	484.62
2319.609	471.62
2323.482	451.62
2327.351	460.62
2331.216	462.62
2335.078	461.62
2338.937	464.62
2342.792	441.62
2346.643	445.62
2350.492	450.62
2354.336	436.62
2358.178	447.62
2362.015	456.62
2365.85	448.62
2369.681	445.62
2373.508	443.62
2377.333	458.62
2381.153	445.62
2384.971	450.62
2388.785	439.62
2392.595	430.62
2396.402	437.62
2400.206	409.62
2404.007	419.62
2407.804	433.62
2411.597	428.62
2415.388	420.62
2419.174	410.62
2422.958	418.62
2426.738	410.62
2430.515	406.62
2434.289	403.62
2438.059	407.62
2441.825	405.62
2445.589	401.62
2449.349	376.62
2453.106	399.62
2456.859	390.62
2460.61	390.62
2464.356	373.62
2468.1	372.62
2471.84	371.62
2475.577	374.62
2479.311	369.62
2483.041	368.62
2486.768	378.62
2490.492	388.62
2494.213	366.62
2497.93	359.62
2501.644	353.62
2505.355	361.62
2509.062	355.62
2512.766	358.62
2516.467	343.62
2520.165	359.62
2523.859	347.62
2527.551	371.62
2531.239	340.62
2534.923	348.62
2538.605	343.62
2542.283	343.62
2545.958	342.62
2549.63	349.62
2553.299	351.62
2556.964	330.62
2560.626	340.62
2564.285	345.62
2567.941	319.62
2571.594	318.62
2575.243	342.62
2578.89	315.62
2582.533	327.62
2586.173	324.62
2589.809	316.62
2593.443	292.62
2597.073	308.62
2600.701	313.62
2604.325	306.62
2607.946	292.62
2611.564	298.62
2615.178	310.62
2618.79	302.62
2622.398	286.62
2626.004	295.62
2629.606	293.62
2633.205	274.62
2636.801	290.62
2640.394	275.62
2643.983	273.62
2647.57	271.62
2651.153	262.62
2654.734	279.62
2658.311	249.62
2661.885	248.62
2665.456	259.62
2669.025	254.62
2672.589	249.62
2676.151	264.62
2679.71	261.62
2683.266	251.62
2686.819	237.62
2690.368	255.62
2693.915	248.62
2697.458	239.62
2700.999	243.62
2704.536	237.62
2708.071	226.62
2711.602	235.62
2715.13	223.62
2718.656	204.62
2722.178	234.62
2725.697	220.62
2729.214	221.62
2732.727	227.62
2736.237	209.62
2739.744	221.62
2743.249	215.62
2746.75	219.62
2750.248	210.62
2753.743	210.62
2757.236	222.62
2760.725	222.62
2764.211	180.62
2767.695	221.62
2771.175	216.62
2774.652	211.62
2778.127	206.62
2781.598	206.62
2785.067	209.62
2788.532	201.62
2791.995	209.62
2795.455	213.62
2798.911	224.62
2802.365	203.62
2805.816	219.62
2809.264	216.62
2812.709	211.62
2816.151	216.62
2819.59	207.62
2823.026	206.62
2826.46	210.62
2829.89	226.62
2833.318	197.62
2836.742	208.62
2840.164	210.62
2843.583	217.62
2846.999	220.62
2850.412	219.62
2853.822	222.62
2857.229	235.62
2860.634	233.62
2864.035	215.62
2867.434	239.62
2870.83	244.62
2874.223	239.62
2877.613	246.62
2881	241.62
2884.385	254.62
2887.766	253.62
2891.145	251.62
2894.521	246.62
2897.894	238.62
2901.264	250.62
2904.631	259.62
2907.996	259.62
2911.358	267.62
2914.717	263.62
2918.073	259.62
2921.426	256.62
2924.777	255.62
2928.124	265.62
2931.469	288.62
2934.811	282.62
2938.15	300.62
2941.487	293.62
2944.821	313.62
2948.152	296.62
2951.48	293.62
2954.805	282.62
2958.128	298.62
2961.447	287.62
2964.765	293.62
2968.079	286.62
2971.39	283.62
2974.699	290.62
2978.005	292.62
2981.308	292.62
2984.609	291.62
2987.907	301.62
2991.202	307.62
2994.494	293.62
2997.784	297.62
3001.07	303.62
3004.355	297.62
3007.636	311.62
3010.915	301.62
3014.191	297.62
3017.464	306.62
3020.734	312.62
3024.002	317.62
3027.267	301.62
3030.53	314.62
3033.789	317.62
3037.046	316.62
3040.301	318.62
3043.552	327.62
3046.801	339.62
3050.048	356.62
3053.291	366.62
3056.532	364.62
3059.771	353.62
3063.006	383.62
3066.239	382.62
3069.469	397.62
3072.697	392.62
3075.922	408.62
3079.144	413.62
3082.364	445.62
3085.581	432.62
3088.795	466.62
3092.007	461.62
3095.216	488.62
3098.423	477.62
3101.627	469.62
3104.828	500.62
3108.026	492.62
3111.222	522.62
3114.416	537.62
3117.607	547.62
3120.795	547.62
3123.98	558.62
3127.163	553.62
3130.344	568.62
3133.521	582.62
3136.696	616.62
3139.869	612.62
3143.039	608.62
3146.206	636.62
3149.371	644.62
3152.533	642.62
3155.693	637.62
3158.85	658.62
3162.005	654.62
3165.157	650.62
3168.306	657.62
3171.453	654.62
3174.597	653.62
3177.739	641.62
3180.878	673.62
3184.014	656.62
3187.149	668.62
3190.28	674.62
3193.409	683.62
3196.536	666.62
3199.659	679.62
3202.781	677.62
3205.9	653.62
3209.016	671.62
3212.13	673.62
3215.241	673.62
3218.35	671.62
3221.456	663.62
3224.56	636.62
3227.661	660.62
3230.76	643.62
3233.856	634.62
3236.95	642.62
3240.041	620.62
3243.13	649.62
3246.216	624.62
3249.3	636.62
3252.382	640.62
3255.46	629.62
3258.537	572.62
3261.611	610.62
3264.682	613.62
3267.751	599.62
3270.818	611.62
3273.882	617.62
3276.943	599.62
3280.002	622.62
3283.059	583.62
3286.113	599.62
3289.165	562.62
3292.214	573.62
3295.261	588.62
3298.306	546.62
3301.348	555.62
3304.387	532.62
3307.425	530.62
3310.459	536.62
3313.492	520.62
3316.521	515.62
3319.549	524.62
3322.574	521.62
3325.597	512.62
3328.617	502.62
3331.635	496.62
3334.65	486.62
3337.663	497.62
3340.674	494.62
3343.682	496.62
3346.688	500.62
3349.691	492.62
3352.692	484.62
3355.691	497.62
3358.687	488.62
3361.681	489.62
3364.673	483.62
3367.662	478.62
3370.649	478.62
3373.633	456.62
3376.615	457.62
3379.595	436.62
3382.572	443.62
3385.547	436.62
3388.52	431.62
3391.49	430.62
3394.458	432.62
3397.424	419.62
3400.387	409.62
3403.348	418.62
3406.307	408.62
3409.263	408.62
3412.217	403.62
3415.168	401.62
3418.118	409.62
3421.065	389.62
3424.009	398.62
3426.951	386.62
3429.891	383.62
3432.829	383.62
3435.764	373.62
3438.697	364.62
3441.628	357.62
3444.557	334.62
3447.483	336.62
3450.407	335.62
3453.328	324.62
3456.247	306.62
3459.164	302.62
3462.079	305.62
3464.991	292.62
3467.902	274.62
3470.809	282.62
3473.715	272.62
3476.618	264.62
3479.519	256.62
3482.418	235.62
3485.315	232.62
3488.209	227.62
3491.101	236.62
3493.99	211.62
3496.878	213.62
3499.763	218.62
3502.646	209.62
3505.527	197.62
3508.405	193.62
3511.281	168.62
3514.155	183.62
3517.027	169.62
3519.897	147.62
3522.764	168.62
3525.629	132.62
3528.492	154.62
3531.352	143.62
3534.211	137.62
3537.067	127.62
3539.921	126.62
3542.773	128.62
3545.622	109.62
3548.469	97.62
3551.315	93.62
3554.157	100.62
3556.998	94.62
3559.837	84.62
3562.673	92.62
3565.507	83.62
3568.339	75.62
3571.169	77.62
3573.996	72.62
3576.822	56.62
3579.645	68.62
3582.466	60.62
3585.285	66.62
3588.101	60.62
3590.916	58.62
3593.728	60.62
3596.538	45.62
3599.346	46.62
3602.152	40.62
3604.956	40.62
3607.757	49.62
3610.556	29.62
3613.354	37.62
3616.149	31.62
3618.942	34.62
3621.732	36.62
3624.521	23.62
3627.307	17.62
3630.092	19.62
3632.874	36.62
3635.654	16.62
3638.432	9.62
3641.208	16.62
3643.982	15.62
3646.753	23.62
3649.523	-9.38
3652.29	11.62
3655.055	20.62
3657.818	11.62
3660.579	4.62
3663.338	-4.38
3666.095	0.62
3668.849	-28.38
3671.602	2.62
3674.352	-13.38
3677.101	4.62
3679.847	1.62
3682.591	-15.38
3685.333	-16.38
3688.073	-6.38
3690.811	-14.38
3693.547	-26.38
3696.281	-21.38
3699.013	-5.38
3701.742	-9.38
3704.47	-20.38
3707.195	-8.38
3709.919	-11.38
3712.64	-11.38
3715.359	-23.38
3718.076	-0.38
3720.792	-15.38
3723.505	-13.38
3726.216	-3.38
3728.925	-20.38
3731.632	-22.38
3734.336	-21.38
3737.039	-15.38
3739.74	-12.38
3742.439	-38.38
3745.136	-12.38
3747.83	-18.38
3750.523	-14.38
3753.213	-82.38
3755.902	-22.38
3758.589	-31.38
3761.273	-23.38
3763.956	-15.38
3766.636	-30.38
3769.315	-13.38
3771.991	-23.38
3774.665	-29.38
3777.338	-21.38
3780.008	-33.38
3782.677	-22.38
3785.343	-40.38
3788.007	-46.38
3790.67	-19.38
3793.33	-28.38
3795.989	-28.38
3798.645	-20.38
3801.299	-38.38
3803.952	-28.38
3806.602	-27.38
3809.251	-18.38
3811.897	-24.38
3814.542	-25.38
3817.184	-31.38
3819.825	-24.38
3822.463	-37.38
3825.1	-25.38
3827.735	-28.38
3830.367	-35.38
3832.998	-12.38
3835.627	-24.38
3838.253	-24.38
3840.878	-23.38
3843.501	-12.38
3846.122	-16.38
3848.741	-20.38
3851.358	-19.38
3853.973	-33.38
3856.586	-15.38
3859.197	-30.38
3861.806	-25.38
3864.414	-35.38
3867.019	-22.38
3869.622	-14.38
3872.224	-3.38
3874.823	14.62
3877.421	52.62
3880.016	81.62
3882.61	142.62
3885.202	170.62
3887.792	121.62
3890.38	58.62
3892.966	10.62
3895.55	-16.38
3898.132	-9.38
3900.713	-16.38
3903.291	-25.38
3905.868	-32.38
3908.442	-24.38
3911.015	-29.38
3913.586	-32.38
3916.155	-29.38
3918.722	-30.38
3921.287	-33.38
3923.85	-39.38
3926.411	-31.38
3928.971	-31.38
3931.528	-28.38
3934.084	-33.38
3936.638	-41.38
3939.19	-23.38
3941.74	-25.38
3944.288	-27.38
3946.834	-28.38
3949.378	-20.38
3951.921	-35.38
3954.462	-28.38
3957	-25.38
3959.537	-9.38
3962.072	-26.38
3964.606	-41.38
3967.137	-26.38
3969.667	-32.38
3972.194	-19.38
3974.72	-30.38
3977.244	-54.38
3979.766	-37.38
3982.286	-38.38
3984.805	-26.38
3987.321	-15.38
3989.836	-23.38
3992.349	-32.38
3994.86	-26.38
3997.369	-31.38
3999.877	-28.38
4002.382	-31.38
4004.886	-21.38
4007.388	-23.38
4009.888	-14.38
4012.386	-18.38
4014.883	-24.38
4017.377	-22.38
4019.87	-20.38
4022.361	-28.38
4024.85	-28.38
4027.338	-24.38
4029.823	-29.38
4032.307	-29.38
4034.789	-28.38
4037.269	-22.38
4039.747	-38.38
4042.224	-17.38
4044.699	-32.38
4047.172	-28.38
4049.643	-23.38
4052.112	-50.38
4054.58	-26.38
4057.046	-36.38
4059.51	-29.38
4061.972	-24.38
4064.432	-46.38
4066.891	-10.38
4069.348	-25.38
4071.803	-24.38
4074.256	-32.38
4076.708	-20.38
4079.158	-24.38
4081.606	-15.38
4084.052	-24.38
4086.497	-21.38
4088.939	-25.38
4091.38	-29.38
4093.819	-22.38
4096.257	0.62
4098.693	-6.38
4101.127	-4.38
4103.559	-0.38
4105.989	168.62
4108.418	165.62
4110.845	149.62
4113.27	169.62
4115.694	175.62
4118.115	162.62
4120.535	-22.38
4122.954	-19.38
4125.37	-12.38
4127.785	-26.38
4130.198	-15.38
4132.609	-24.38
4135.019	8.62
4137.427	1.62
4139.833	4.62
4142.237	-4.38
