Data from 2018-3-6_conc=2_n=2_RamanShift_01.txt Node
Date: Tue Mar 06 12:44:49 GMT+02:00 2018
User: LAB3
Spectrometer: QEPB0276
Trigger mode: 0
Integration Time (sec): 3.000000E1
Scans to average: 1
Electric dark correction enabled: true
Nonlinearity correction enabled: false
Boxcar width: 0
XAxis mode: Raman Shifts
Number of Pixels in Spectrum: 1044
>>>>>Begin Spectral Data<<<<<
160.701	172.38
166.742	214.38
172.777	325.38
178.805	625.38
184.826	1445.38
190.841	2885.38
196.849	4578.38
202.85	5900.38
208.845	6346.38
214.833	6350.38
220.815	6280.38
226.789	6298.38
232.758	6385.38
238.719	6402.38
244.674	6353.38
250.623	6359.38
256.565	6286.38
262.5	6259.38
268.429	6205.38
274.351	6171.38
280.267	6194.38
286.176	6210.38
292.079	6208.38
297.975	6236.38
303.865	6223.38
309.748	6267.38
315.625	6308.38
321.495	6329.38
327.359	6265.38
333.217	6313.38
339.068	6321.38
344.912	6380.38
350.751	6405.38
356.583	6421.38
362.408	6450.38
368.227	6476.38
374.04	6498.38
379.847	6529.38
385.647	6625.38
391.44	6625.38
397.228	6646.38
403.009	6698.38
408.784	6694.38
414.553	6770.38
420.315	6737.38
426.071	6760.38
431.821	6781.38
437.565	6774.38
443.302	6742.38
449.033	6715.38
454.758	6672.38
460.477	6616.38
466.189	6606.38
471.896	6527.38
477.596	6484.38
483.29	6381.38
488.978	6409.38
494.66	6365.38
500.335	6213.38
506.005	5932.38
511.668	5637.38
517.325	5359.38
522.977	5125.38
528.622	4984.38
534.261	4840.38
539.894	4737.38
545.521	4696.38
551.141	4633.38
556.756	4589.38
562.365	4559.38
567.968	4491.38
573.565	4442.38
579.155	4464.38
584.74	4420.38
590.319	4446.38
595.892	4416.38
601.459	4408.38
607.02	4415.38
612.575	4387.38
618.124	4343.38
623.667	4245.38
629.204	4211.38
634.735	4144.38
640.261	4084.38
645.781	4062.38
651.294	4015.38
656.802	4008.38
662.304	4013.38
667.8	4008.38
673.29	4002.38
678.775	3998.38
684.254	3942.38
689.726	3938.38
695.193	3907.38
700.655	3902.38
706.11	3873.38
711.56	3860.38
717.004	3852.38
722.442	3804.38
727.874	3786.38
733.301	3782.38
738.722	3764.38
744.137	3795.38
749.547	3755.38
754.951	3777.38
760.349	3759.38
765.741	3788.38
771.128	3815.38
776.509	3873.38
781.885	3917.38
787.254	3974.38
792.618	3976.38
797.977	3957.38
803.33	3924.38
808.677	3899.38
814.019	3901.38
819.355	3852.38
824.686	3782.38
830.011	3799.38
835.33	3749.38
840.644	3751.38
845.952	3697.38
851.255	3691.38
856.552	3670.38
861.844	3614.38
867.13	3588.38
872.41	3581.38
877.686	3583.38
882.955	3582.38
888.219	3555.38
893.478	3450.38
898.731	3414.38
903.979	3336.38
909.221	3289.38
914.458	3293.38
919.69	3282.38
924.916	3268.38
930.136	3294.38
935.351	3287.38
940.561	3277.38
945.766	3253.38
950.965	3257.38
956.158	3219.38
961.347	3201.38
966.529	3154.38
971.707	3143.38
976.879	3087.38
982.046	3062.38
987.208	3026.38
992.364	3088.38
997.515	3046.38
1002.66	3079.38
1007.801	3099.38
1012.936	3129.38
1018.066	3118.38
1023.19	3153.38
1028.309	3179.38
1033.423	3178.38
1038.532	3173.38
1043.636	3142.38
1048.734	3139.38
1053.827	3102.38
1058.915	3057.38
1063.998	3036.38
1069.075	3059.38
1074.147	3039.38
1079.214	3028.38
1084.276	3067.38
1089.333	3062.38
1094.385	3072.38
1099.431	3064.38
1104.472	3056.38
1109.509	2996.38
1114.54	2962.38
1119.565	2910.38
1124.586	2870.38
1129.602	2832.38
1134.613	2797.38
1139.618	2790.38
1144.619	2785.38
1149.614	2796.38
1154.604	2790.38
1159.589	2820.38
1164.57	2849.38
1169.545	2847.38
1174.515	2809.38
1179.48	2803.38
1184.44	2802.38
1189.395	2797.38
1194.345	2740.38
1199.29	2731.38
1204.23	2734.38
1209.165	2745.38
1214.095	2776.38
1219.021	2761.38
1223.941	2767.38
1228.856	2778.38
1233.766	2792.38
1238.672	2785.38
1243.572	2791.38
1248.467	2752.38
1253.358	2708.38
1258.244	2663.38
1263.124	2644.38
1268	2611.38
1272.871	2563.38
1277.737	2559.38
1282.599	2541.38
1287.455	2525.38
1292.306	2528.38
1297.153	2530.38
1301.995	2565.38
1306.832	2567.38
1311.664	2579.38
1316.491	2570.38
1321.314	2569.38
1326.132	2543.38
1330.945	2508.38
1335.753	2478.38
1340.556	2432.38
1345.354	2400.38
1350.148	2353.38
1354.937	2364.38
1359.722	2295.38
1364.501	2289.38
1369.276	2297.38
1374.046	2297.38
1378.811	2271.38
1383.572	2287.38
1388.327	2277.38
1393.079	2262.38
1397.825	2225.38
1402.567	2224.38
1407.304	2178.38
1412.036	2184.38
1416.764	2177.38
1421.487	2183.38
1426.205	2170.38
1430.919	2200.38
1435.628	2186.38
1440.333	2216.38
1445.032	2245.38
1449.727	2240.38
1454.418	2304.38
1459.104	2277.38
1463.785	2240.38
1468.462	2203.38
1473.134	2201.38
1477.802	2146.38
1482.465	2094.38
1487.123	2106.38
1491.777	2061.38
1496.426	2065.38
1501.071	2113.38
1505.711	2091.38
1510.347	2105.38
1514.978	2133.38
1519.604	2128.38
1524.226	2131.38
1528.844	2089.38
1533.457	2090.38
1538.065	2073.38
1542.669	2045.38
1547.269	2027.38
1551.864	2010.38
1556.454	1973.38
1561.041	1990.38
1565.622	1987.38
1570.199	1995.38
1574.772	2019.38
1579.34	2025.38
1583.904	2044.38
1588.464	2053.38
1593.019	2079.38
1597.569	2038.38
1602.115	2051.38
1606.657	2040.38
1611.195	2043.38
1615.728	2040.38
1620.256	2006.38
1624.78	1974.38
1629.3	2022.38
1633.816	2046.38
1638.327	2043.38
1642.834	2050.38
1647.336	2080.38
1651.834	2096.38
1656.328	2100.38
1660.817	2095.38
1665.302	2064.38
1669.783	2063.38
1674.259	2023.38
1678.732	2025.38
1683.199	1961.38
1687.663	1896.38
1692.122	1872.38
1696.577	1839.38
1701.028	1800.38
1705.474	1770.38
1709.917	1745.38
1714.355	1736.38
1718.788	1690.38
1723.218	1690.38
1727.643	1658.38
1732.064	1628.38
1736.481	1596.38
1740.893	1593.38
1745.301	1525.38
1749.705	1492.38
1754.105	1500.38
1758.501	1449.38
1762.893	1435.38
1767.28	1379.38
1771.663	1394.38
1776.042	1374.38
1780.417	1365.38
1784.787	1378.38
1789.154	1395.38
1793.516	1411.38
1797.874	1391.38
1802.228	1376.38
1806.578	1374.38
1810.924	1369.38
1815.266	1271.38
1819.603	1337.38
1823.937	1306.38
1828.266	1283.38
1832.591	1295.38
1836.913	1258.38
1841.23	1242.38
1845.543	1256.38
1849.852	1270.38
1854.156	1269.38
1858.457	1276.38
1862.754	1233.38
1867.047	1260.38
1871.335	1280.38
1875.62	1291.38
1879.9	1282.38
1884.177	1263.38
1888.449	1288.38
1892.718	1262.38
1896.982	1275.38
1901.243	1238.38
1905.499	1239.38
1909.752	1241.38
1914	1235.38
1918.245	1262.38
1922.485	1250.38
1926.722	1254.38
1930.954	1248.38
1935.183	1289.38
1939.408	1276.38
1943.628	1267.38
1947.845	1259.38
1952.058	1230.38
1956.267	1204.38
1960.472	1203.38
1964.673	1178.38
1968.87	1151.38
1973.063	1141.38
1977.252	1115.38
1981.438	1106.38
1985.619	1088.38
1989.797	1071.38
1993.971	1058.38
1998.14	1082.38
2002.306	1049.38
2006.469	1060.38
2010.627	1058.38
2014.781	1055.38
2018.932	1039.38
2023.078	1055.38
2027.221	1055.38
2031.36	1010.38
2035.495	1001.38
2039.627	1005.38
2043.754	993.38
2047.878	990.38
2051.998	984.38
2056.114	974.38
2060.226	997.38
2064.334	985.38
2068.439	1001.38
2072.54	1017.38
2076.637	1002.38
2080.73	1025.38
2084.82	1012.38
2088.906	1014.38
2092.988	1014.38
2097.066	1011.38
2101.14	1015.38
2105.211	985.38
2109.278	978.38
2113.342	946.38
2117.401	934.38
2121.457	933.38
2125.509	914.38
2129.558	925.38
2133.602	915.38
2137.643	897.38
2141.681	899.38
2145.714	886.38
2149.744	896.38
2153.77	876.38
2157.793	849.38
2161.812	831.38
2165.827	827.38
2169.838	832.38
2173.846	803.38
2177.851	782.38
2181.851	795.38
2185.848	783.38
2189.841	764.38
2193.831	752.38
2197.817	758.38
2201.799	758.38
2205.778	741.38
2209.753	744.38
2213.725	724.38
2217.693	733.38
2221.657	737.38
2225.618	749.38
2229.575	731.38
2233.529	726.38
2237.479	722.38
2241.425	699.38
2245.368	687.38
2249.307	689.38
2253.243	671.38
2257.175	664.38
2261.104	646.38
2265.029	651.38
2268.95	630.38
2272.868	619.38
2276.783	612.38
2280.694	611.38
2284.601	608.38
2288.505	594.38
2292.405	596.38
2296.302	571.38
2300.195	579.38
2304.085	549.38
2307.971	557.38
2311.854	531.38
2315.734	547.38
2319.609	547.38
2323.482	510.38
2327.351	515.38
2331.216	505.38
2335.078	524.38
2338.937	507.38
2342.792	496.38
2346.643	500.38
2350.492	509.38
2354.336	507.38
2358.178	498.38
2362.015	499.38
2365.85	493.38
2369.681	494.38
2373.508	496.38
2377.333	499.38
2381.153	499.38
2384.971	497.38
2388.785	501.38
2392.595	485.38
2396.402	479.38
2400.206	460.38
2404.007	478.38
2407.804	476.38
2411.597	482.38
2415.388	472.38
2419.174	465.38
2422.958	463.38
2426.738	458.38
2430.515	465.38
2434.289	451.38
2438.059	450.38
2441.825	441.38
2445.589	459.38
2449.349	433.38
2453.106	447.38
2456.859	442.38
2460.61	428.38
2464.356	419.38
2468.1	430.38
2471.84	414.38
2475.577	410.38
2479.311	410.38
2483.041	409.38
2486.768	422.38
2490.492	424.38
2494.213	413.38
2497.93	407.38
2501.644	399.38
2505.355	406.38
2509.062	417.38
2512.766	409.38
2516.467	400.38
2520.165	400.38
2523.859	378.38
2527.551	415.38
2531.239	382.38
2534.923	393.38
2538.605	385.38
2542.283	382.38
2545.958	385.38
2549.63	396.38
2553.299	402.38
2556.964	382.38
2560.626	387.38
2564.285	387.38
2567.941	369.38
2571.594	372.38
2575.243	377.38
2578.89	359.38
2582.533	372.38
2586.173	363.38
2589.809	364.38
2593.443	328.38
2597.073	352.38
2600.701	356.38
2604.325	342.38
2607.946	331.38
2611.564	355.38
2615.178	338.38
2618.79	332.38
2622.398	324.38
2626.004	332.38
2629.606	327.38
2633.205	316.38
2636.801	328.38
2640.394	305.38
2643.983	303.38
2647.57	309.38
2651.153	304.38
2654.734	313.38
2658.311	274.38
2661.885	287.38
2665.456	288.38
2669.025	288.38
2672.589	286.38
2676.151	295.38
2679.71	297.38
2683.266	278.38
2686.819	268.38
2690.368	275.38
2693.915	278.38
2697.458	267.38
2700.999	282.38
2704.536	266.38
2708.071	263.38
2711.602	260.38
2715.13	257.38
2718.656	243.38
2722.178	256.38
2725.697	246.38
2729.214	247.38
2732.727	247.38
2736.237	239.38
2739.744	253.38
2743.249	253.38
2746.75	256.38
2750.248	251.38
2753.743	260.38
2757.236	253.38
2760.725	264.38
2764.211	223.38
2767.695	256.38
2771.175	251.38
2774.652	253.38
2778.127	236.38
2781.598	239.38
2785.067	248.38
2788.532	236.38
2791.995	241.38
2795.455	233.38
2798.911	247.38
2802.365	233.38
2805.816	241.38
2809.264	256.38
2812.709	241.38
2816.151	251.38
2819.59	240.38
2823.026	245.38
2826.46	237.38
2829.89	262.38
2833.318	230.38
2836.742	245.38
2840.164	259.38
2843.583	250.38
2846.999	256.38
2850.412	254.38
2853.822	252.38
2857.229	277.38
2860.634	262.38
2864.035	259.38
2867.434	280.38
2870.83	289.38
2874.223	279.38
2877.613	288.38
2881	281.38
2884.385	290.38
2887.766	288.38
2891.145	290.38
2894.521	293.38
2897.894	278.38
2901.264	295.38
2904.631	286.38
2907.996	298.38
2911.358	303.38
2914.717	293.38
2918.073	297.38
2921.426	297.38
2924.777	283.38
2928.124	309.38
2931.469	334.38
2934.811	312.38
2938.15	342.38
2941.487	335.38
2944.821	344.38
2948.152	334.38
2951.48	339.38
2954.805	323.38
2958.128	345.38
2961.447	321.38
2964.765	340.38
2968.079	323.38
2971.39	325.38
2974.699	330.38
2978.005	342.38
2981.308	346.38
2984.609	337.38
2987.907	351.38
2991.202	355.38
2994.494	341.38
2997.784	347.38
3001.07	357.38
3004.355	347.38
3007.636	348.38
3010.915	354.38
3014.191	353.38
3017.464	356.38
3020.734	348.38
3024.002	355.38
3027.267	353.38
3030.53	361.38
3033.789	356.38
3037.046	365.38
3040.301	362.38
3043.552	382.38
3046.801	392.38
3050.048	394.38
3053.291	405.38
3056.532	405.38
3059.771	398.38
3063.006	429.38
3066.239	437.38
3069.469	456.38
3072.697	448.38
3075.922	463.38
3079.144	481.38
3082.364	507.38
3085.581	490.38
3088.795	526.38
3092.007	531.38
3095.216	538.38
3098.423	531.38
3101.627	532.38
3104.828	561.38
3108.026	565.38
3111.222	583.38
3114.416	604.38
3117.607	607.38
3120.795	617.38
3123.98	636.38
3127.163	621.38
3130.344	652.38
3133.521	659.38
3136.696	677.38
3139.869	697.38
3143.039	700.38
3146.206	730.38
3149.371	726.38
3152.533	726.38
3155.693	723.38
3158.85	736.38
3162.005	739.38
3165.157	746.38
3168.306	729.38
3171.453	765.38
3174.597	740.38
3177.739	728.38
3180.878	749.38
3184.014	748.38
3187.149	752.38
3190.28	739.38
3193.409	770.38
3196.536	769.38
3199.659	782.38
3202.781	770.38
3205.9	748.38
3209.016	777.38
3212.13	764.38
3215.241	767.38
3218.35	771.38
3221.456	738.38
3224.56	737.38
3227.661	747.38
3230.76	734.38
3233.856	726.38
3236.95	718.38
3240.041	713.38
3243.13	718.38
3246.216	720.38
3249.3	724.38
3252.382	716.38
3255.46	699.38
3258.537	646.38
3261.611	702.38
3264.682	704.38
3267.751	696.38
3270.818	685.38
3273.882	713.38
3276.943	681.38
3280.002	702.38
3283.059	675.38
3286.113	668.38
3289.165	657.38
3292.214	641.38
3295.261	643.38
3298.306	619.38
3301.348	630.38
3304.387	600.38
3307.425	613.38
3310.459	589.38
3313.492	603.38
3316.521	590.38
3319.549	581.38
3322.574	594.38
3325.597	576.38
3328.617	551.38
3331.635	559.38
3334.65	545.38
3337.663	548.38
3340.674	549.38
3343.682	556.38
3346.688	555.38
3349.691	540.38
3352.692	549.38
3355.691	549.38
3358.687	539.38
3361.681	558.38
3364.673	536.38
3367.662	528.38
3370.649	533.38
3373.633	509.38
3376.615	527.38
3379.595	506.38
3382.572	497.38
3385.547	489.38
3388.52	486.38
3391.49	482.38
3394.458	478.38
3397.424	479.38
3400.387	461.38
3403.348	465.38
3406.307	461.38
3409.263	469.38
3412.217	462.38
3415.168	463.38
3418.118	454.38
3421.065	440.38
3424.009	459.38
3426.951	436.38
3429.891	418.38
3432.829	428.38
3435.764	422.38
3438.697	408.38
3441.628	418.38
3444.557	389.38
3447.483	379.38
3450.407	384.38
3453.328	369.38
3456.247	352.38
3459.164	343.38
3462.079	352.38
3464.991	325.38
3467.902	327.38
3470.809	316.38
3473.715	319.38
3476.618	291.38
3479.519	293.38
3482.418	269.38
3485.315	276.38
3488.209	267.38
3491.101	265.38
3493.99	250.38
3496.878	242.38
3499.763	241.38
3502.646	245.38
3505.527	229.38
3508.405	224.38
3511.281	196.38
3514.155	220.38
3517.027	205.38
3519.897	182.38
3522.764	191.38
3525.629	174.38
3528.492	173.38
3531.352	172.38
3534.211	164.38
3537.067	156.38
3539.921	155.38
3542.773	148.38
3545.622	131.38
3548.469	120.38
3551.315	119.38
3554.157	121.38
3556.998	107.38
3559.837	113.38
3562.673	105.38
3565.507	102.38
3568.339	88.38
3571.169	92.38
3573.996	89.38
3576.822	70.38
3579.645	71.38
3582.466	71.38
3585.285	82.38
3588.101	78.38
3590.916	64.38
3593.728	67.38
3596.538	63.38
3599.346	60.38
3602.152	50.38
3604.956	52.38
3607.757	53.38
3610.556	36.38
3613.354	53.38
3616.149	41.38
3618.942	47.38
3621.732	44.38
3624.521	33.38
3627.307	27.38
3630.092	23.38
3632.874	42.38
3635.654	30.38
3638.432	21.38
3641.208	20.38
3643.982	18.38
3646.753	31.38
3649.523	-7.62
3652.29	12.38
3655.055	22.38
3657.818	16.38
3660.579	9.38
3663.338	-1.62
3666.095	5.38
3668.849	-15.62
3671.602	11.38
3674.352	-11.62
3677.101	10.38
3679.847	8.38
3682.591	-3.62
3685.333	-15.62
3688.073	-1.62
3690.811	-14.62
3693.547	-16.62
3696.281	-15.62
3699.013	-2.62
3701.742	-11.62
3704.47	-16.62
3707.195	-8.62
3709.919	-8.62
3712.64	-10.62
3715.359	-21.62
3718.076	-2.62
3720.792	-11.62
3723.505	-8.62
3726.216	-3.62
3728.925	-17.62
3731.632	-21.62
3734.336	-13.62
3737.039	-12.62
3739.74	-15.62
3742.439	-34.62
3745.136	-6.62
3747.83	-10.62
3750.523	-13.62
3753.213	-80.62
3755.902	-20.62
3758.589	-32.62
3761.273	-22.62
3763.956	-14.62
3766.636	-35.62
3769.315	-12.62
3771.991	-18.62
3774.665	-23.62
3777.338	-21.62
3780.008	-28.62
3782.677	-20.62
3785.343	-34.62
3788.007	-43.62
3790.67	-13.62
3793.33	-33.62
3795.989	-27.62
3798.645	-23.62
3801.299	-39.62
3803.952	-31.62
3806.602	-26.62
3809.251	-17.62
3811.897	-21.62
3814.542	-24.62
3817.184	-26.62
3819.825	-25.62
3822.463	-34.62
3825.1	-27.62
3827.735	-27.62
3830.367	-31.62
3832.998	-14.62
3835.627	-23.62
3838.253	-16.62
3840.878	-31.62
3843.501	-9.62
3846.122	-22.62
3848.741	-18.62
3851.358	-19.62
3853.973	-37.62
3856.586	-16.62
3859.197	-32.62
3861.806	-25.62
3864.414	-36.62
3867.019	-24.62
3869.622	-6.62
3872.224	-9.62
3874.823	13.38
3877.421	47.38
3880.016	68.38
3882.61	124.38
3885.202	148.38
3887.792	104.38
3890.38	63.38
3892.966	8.38
3895.55	-14.62
3898.132	-12.62
3900.713	-12.62
3903.291	-18.62
3905.868	-31.62
3908.442	-22.62
3911.015	-25.62
3913.586	-30.62
3916.155	-27.62
3918.722	-34.62
3921.287	-34.62
3923.85	-39.62
3926.411	-32.62
3928.971	-32.62
3931.528	-27.62
3934.084	-27.62
3936.638	-37.62
3939.19	-23.62
3941.74	-27.62
3944.288	-33.62
3946.834	-32.62
3949.378	-15.62
3951.921	-40.62
3954.462	-33.62
3957	-25.62
3959.537	-12.62
3962.072	-25.62
3964.606	-43.62
3967.137	-31.62
3969.667	-32.62
3972.194	-25.62
3974.72	-33.62
3977.244	-49.62
3979.766	-38.62
3982.286	-34.62
3984.805	-23.62
3987.321	-15.62
3989.836	-25.62
3992.349	-33.62
3994.86	-23.62
3997.369	-31.62
3999.877	-34.62
4002.382	-31.62
4004.886	-22.62
4007.388	-25.62
4009.888	-15.62
4012.386	-18.62
4014.883	-23.62
4017.377	-23.62
4019.87	-22.62
4022.361	-38.62
4024.85	-27.62
4027.338	-22.62
4029.823	-27.62
4032.307	-29.62
4034.789	-29.62
4037.269	-25.62
4039.747	-41.62
4042.224	-16.62
4044.699	-35.62
4047.172	-38.62
4049.643	-18.62
4052.112	-49.62
4054.58	-24.62
4057.046	-36.62
4059.51	-29.62
4061.972	-27.62
4064.432	-43.62
4066.891	-16.62
4069.348	-26.62
4071.803	-23.62
4074.256	-29.62
4076.708	-24.62
4079.158	-24.62
4081.606	-14.62
4084.052	-28.62
4086.497	-25.62
4088.939	-29.62
4091.38	-28.62
4093.819	-23.62
4096.257	0.38
4098.693	-5.62
4101.127	-3.62
4103.559	0.38
4105.989	160.38
4108.418	166.38
4110.845	146.38
4113.27	150.38
4115.694	169.38
4118.115	150.38
4120.535	-21.62
4122.954	-19.62
4125.37	-16.62
4127.785	-22.62
4130.198	-17.62
4132.609	-24.62
4135.019	6.38
4137.427	-0.62
4139.833	7.38
4142.237	-4.62
