Data from 2018-3-6_conc=3_n=7_RamanShift_01.txt Node
Date: Tue Mar 06 13:33:19 GMT+02:00 2018
User: LAB3
Spectrometer: QEPB0276
Trigger mode: 0
Integration Time (sec): 3.000000E1
Scans to average: 1
Electric dark correction enabled: true
Nonlinearity correction enabled: false
Boxcar width: 0
XAxis mode: Raman Shifts
Number of Pixels in Spectrum: 1044
>>>>>Begin Spectral Data<<<<<
160.701	148.5
166.742	178.5
172.777	267.5
178.805	523.5
184.826	1174.5
190.841	2376.5
196.849	3759.5
202.85	4802.5
208.845	5256.5
214.833	5250.5
220.815	5248.5
226.789	5227.5
232.758	5328.5
238.719	5299.5
244.674	5272.5
250.623	5296.5
256.565	5258.5
262.5	5225.5
268.429	5168.5
274.351	5175.5
280.267	5187.5
286.176	5194.5
292.079	5204.5
297.975	5212.5
303.865	5247.5
309.748	5239.5
315.625	5247.5
321.495	5263.5
327.359	5289.5
333.217	5315.5
339.068	5287.5
344.912	5329.5
350.751	5339.5
356.583	5366.5
362.408	5355.5
368.227	5403.5
374.04	5443.5
379.847	5472.5
385.647	5457.5
391.44	5506.5
397.228	5513.5
403.009	5568.5
408.784	5563.5
414.553	5622.5
420.315	5621.5
426.071	5608.5
431.821	5623.5
437.565	5615.5
443.302	5598.5
449.033	5568.5
454.758	5568.5
460.477	5549.5
466.189	5453.5
471.896	5445.5
477.596	5375.5
483.29	5343.5
488.978	5353.5
494.66	5318.5
500.335	5198.5
506.005	5020.5
511.668	4775.5
517.325	4564.5
522.977	4408.5
528.622	4292.5
534.261	4197.5
539.894	4152.5
545.521	4101.5
551.141	4017.5
556.756	3999.5
562.365	3976.5
567.968	3949.5
573.565	3917.5
579.155	3898.5
584.74	3860.5
590.319	3857.5
595.892	3871.5
601.459	3861.5
607.02	3834.5
612.575	3803.5
618.124	3729.5
623.667	3691.5
629.204	3671.5
634.735	3638.5
640.261	3595.5
645.781	3532.5
651.294	3547.5
656.802	3529.5
662.304	3547.5
667.8	3547.5
673.29	3498.5
678.775	3498.5
684.254	3501.5
689.726	3468.5
695.193	3439.5
700.655	3451.5
706.11	3407.5
711.56	3386.5
717.004	3405.5
722.442	3357.5
727.874	3325.5
733.301	3371.5
738.722	3301.5
744.137	3324.5
749.547	3317.5
754.951	3300.5
760.349	3308.5
765.741	3345.5
771.128	3350.5
776.509	3383.5
781.885	3445.5
787.254	3467.5
792.618	3462.5
797.977	3444.5
803.33	3420.5
808.677	3400.5
814.019	3382.5
819.355	3337.5
824.686	3332.5
830.011	3304.5
835.33	3306.5
840.644	3287.5
845.952	3267.5
851.255	3234.5
856.552	3214.5
861.844	3192.5
867.13	3146.5
872.41	3122.5
877.686	3115.5
882.955	3076.5
888.219	3055.5
893.478	3024.5
898.731	2984.5
903.979	2951.5
909.221	2943.5
914.458	2895.5
919.69	2910.5
924.916	2916.5
930.136	2925.5
935.351	2904.5
940.561	2943.5
945.766	2926.5
950.965	2900.5
956.158	2875.5
961.347	2858.5
966.529	2792.5
971.707	2776.5
976.879	2735.5
982.046	2712.5
987.208	2706.5
992.364	2714.5
997.515	2692.5
1002.66	2757.5
1007.801	2757.5
1012.936	2783.5
1018.066	2771.5
1023.19	2779.5
1028.309	2823.5
1033.423	2805.5
1038.532	2807.5
1043.636	2785.5
1048.734	2767.5
1053.827	2701.5
1058.915	2699.5
1063.998	2686.5
1069.075	2684.5
1074.147	2667.5
1079.214	2667.5
1084.276	2675.5
1089.333	2699.5
1094.385	2714.5
1099.431	2678.5
1104.472	2680.5
1109.509	2646.5
1114.54	2610.5
1119.565	2596.5
1124.586	2567.5
1129.602	2523.5
1134.613	2484.5
1139.618	2499.5
1144.619	2487.5
1149.614	2505.5
1154.604	2495.5
1159.589	2499.5
1164.57	2525.5
1169.545	2525.5
1174.515	2523.5
1179.48	2492.5
1184.44	2502.5
1189.395	2485.5
1194.345	2428.5
1199.29	2453.5
1204.23	2420.5
1209.165	2413.5
1214.095	2462.5
1219.021	2462.5
1223.941	2462.5
1228.856	2464.5
1233.766	2490.5
1238.672	2495.5
1243.572	2471.5
1248.467	2466.5
1253.358	2431.5
1258.244	2374.5
1263.124	2353.5
1268	2348.5
1272.871	2276.5
1277.737	2267.5
1282.599	2252.5
1287.455	2241.5
1292.306	2259.5
1297.153	2245.5
1301.995	2282.5
1306.832	2285.5
1311.664	2289.5
1316.491	2290.5
1321.314	2262.5
1326.132	2256.5
1330.945	2225.5
1335.753	2177.5
1340.556	2117.5
1345.354	2059.5
1350.148	2058.5
1354.937	2040.5
1359.722	1978.5
1364.501	1990.5
1369.276	1968.5
1374.046	1973.5
1378.811	1968.5
1383.572	1974.5
1388.327	1970.5
1393.079	1944.5
1397.825	1958.5
1402.567	1960.5
1407.304	1926.5
1412.036	1922.5
1416.764	1908.5
1421.487	1904.5
1426.205	1887.5
1430.919	1919.5
1435.628	1932.5
1440.333	1899.5
1445.032	1938.5
1449.727	1951.5
1454.418	1946.5
1459.104	1963.5
1463.785	1910.5
1468.462	1867.5
1473.134	1824.5
1477.802	1780.5
1482.465	1758.5
1487.123	1749.5
1491.777	1696.5
1496.426	1673.5
1501.071	1719.5
1505.711	1679.5
1510.347	1703.5
1514.978	1713.5
1519.604	1684.5
1524.226	1708.5
1528.844	1696.5
1533.457	1719.5
1538.065	1691.5
1542.669	1680.5
1547.269	1674.5
1551.864	1676.5
1556.454	1655.5
1561.041	1666.5
1565.622	1675.5
1570.199	1716.5
1574.772	1703.5
1579.34	1726.5
1583.904	1752.5
1588.464	1763.5
1593.019	1759.5
1597.569	1742.5
1602.115	1731.5
1606.657	1729.5
1611.195	1733.5
1615.728	1744.5
1620.256	1726.5
1624.78	1678.5
1629.3	1691.5
1633.816	1709.5
1638.327	1696.5
1642.834	1718.5
1647.336	1702.5
1651.834	1736.5
1656.328	1714.5
1660.817	1694.5
1665.302	1683.5
1669.783	1652.5
1674.259	1621.5
1678.732	1575.5
1683.199	1538.5
1687.663	1475.5
1692.122	1441.5
1696.577	1399.5
1701.028	1379.5
1705.474	1339.5
1709.917	1307.5
1714.355	1312.5
1718.788	1299.5
1723.218	1286.5
1727.643	1266.5
1732.064	1274.5
1736.481	1252.5
1740.893	1233.5
1745.301	1209.5
1749.705	1173.5
1754.105	1166.5
1758.501	1129.5
1762.893	1131.5
1767.28	1085.5
1771.663	1056.5
1776.042	1049.5
1780.417	1047.5
1784.787	1050.5
1789.154	1037.5
1793.516	1037.5
1797.874	1015.5
1802.228	1007.5
1806.578	1002.5
1810.924	1017.5
1815.266	910.5
1819.603	1013.5
1823.937	982.5
1828.266	998.5
1832.591	993.5
1836.913	988.5
1841.23	991.5
1845.543	981.5
1849.852	989.5
1854.156	980.5
1858.457	974.5
1862.754	976.5
1867.047	990.5
1871.335	996.5
1875.62	985.5
1879.9	971.5
1884.177	949.5
1888.449	960.5
1892.718	948.5
1896.982	941.5
1901.243	912.5
1905.499	901.5
1909.752	895.5
1914	867.5
1918.245	892.5
1922.485	864.5
1926.722	884.5
1930.954	868.5
1935.183	858.5
1939.408	873.5
1943.628	883.5
1947.845	868.5
1952.058	861.5
1956.267	847.5
1960.472	859.5
1964.673	840.5
1968.87	841.5
1973.063	819.5
1977.252	833.5
1981.438	812.5
1985.619	806.5
1989.797	804.5
1993.971	817.5
1998.14	822.5
2002.306	803.5
2006.469	818.5
2010.627	801.5
2014.781	799.5
2018.932	790.5
2023.078	809.5
2027.221	780.5
2031.36	770.5
2035.495	760.5
2039.627	760.5
2043.754	749.5
2047.878	730.5
2051.998	721.5
2056.114	708.5
2060.226	723.5
2064.334	728.5
2068.439	736.5
2072.54	730.5
2076.637	722.5
2080.73	715.5
2084.82	714.5
2088.906	711.5
2092.988	707.5
2097.066	708.5
2101.14	700.5
2105.211	700.5
2109.278	686.5
2113.342	678.5
2117.401	650.5
2121.457	668.5
2125.509	659.5
2129.558	672.5
2133.602	658.5
2137.643	662.5
2141.681	661.5
2145.714	657.5
2149.744	662.5
2153.77	647.5
2157.793	635.5
2161.812	610.5
2165.827	615.5
2169.838	625.5
2173.846	613.5
2177.851	595.5
2181.851	601.5
2185.848	591.5
2189.841	590.5
2193.831	579.5
2197.817	585.5
2201.799	579.5
2205.778	566.5
2209.753	571.5
2213.725	555.5
2217.693	558.5
2221.657	549.5
2225.618	560.5
2229.575	560.5
2233.529	554.5
2237.479	560.5
2241.425	546.5
2245.368	516.5
2249.307	525.5
2253.243	515.5
2257.175	513.5
2261.104	509.5
2265.029	496.5
2268.95	506.5
2272.868	490.5
2276.783	462.5
2280.694	479.5
2284.601	484.5
2288.505	467.5
2292.405	477.5
2296.302	452.5
2300.195	453.5
2304.085	417.5
2307.971	455.5
2311.854	425.5
2315.734	439.5
2319.609	440.5
2323.482	401.5
2327.351	421.5
2331.216	414.5
2335.078	427.5
2338.937	415.5
2342.792	408.5
2346.643	419.5
2350.492	422.5
2354.336	420.5
2358.178	415.5
2362.015	417.5
2365.85	419.5
2369.681	426.5
2373.508	424.5
2377.333	427.5
2381.153	424.5
2384.971	421.5
2388.785	410.5
2392.595	412.5
2396.402	414.5
2400.206	381.5
2404.007	395.5
2407.804	404.5
2411.597	402.5
2415.388	401.5
2419.174	390.5
2422.958	398.5
2426.738	388.5
2430.515	399.5
2434.289	385.5
2438.059	376.5
2441.825	375.5
2445.589	388.5
2449.349	359.5
2453.106	373.5
2456.859	362.5
2460.61	366.5
2464.356	353.5
2468.1	344.5
2471.84	354.5
2475.577	345.5
2479.311	336.5
2483.041	342.5
2486.768	360.5
2490.492	352.5
2494.213	337.5
2497.93	320.5
2501.644	318.5
2505.355	341.5
2509.062	336.5
2512.766	326.5
2516.467	313.5
2520.165	329.5
2523.859	302.5
2527.551	345.5
2531.239	301.5
2534.923	301.5
2538.605	308.5
2542.283	307.5
2545.958	307.5
2549.63	309.5
2553.299	309.5
2556.964	293.5
2560.626	288.5
2564.285	298.5
2567.941	281.5
2571.594	287.5
2575.243	291.5
2578.89	274.5
2582.533	283.5
2586.173	276.5
2589.809	279.5
2593.443	260.5
2597.073	271.5
2600.701	271.5
2604.325	271.5
2607.946	258.5
2611.564	273.5
2615.178	269.5
2618.79	263.5
2622.398	250.5
2626.004	265.5
2629.606	266.5
2633.205	241.5
2636.801	256.5
2640.394	254.5
2643.983	239.5
2647.57	244.5
2651.153	244.5
2654.734	246.5
2658.311	222.5
2661.885	227.5
2665.456	235.5
2669.025	232.5
2672.589	229.5
2676.151	243.5
2679.71	242.5
2683.266	232.5
2686.819	211.5
2690.368	220.5
2693.915	229.5
2697.458	220.5
2700.999	214.5
2704.536	215.5
2708.071	198.5
2711.602	202.5
2715.13	205.5
2718.656	184.5
2722.178	198.5
2725.697	183.5
2729.214	192.5
2732.727	189.5
2736.237	171.5
2739.744	181.5
2743.249	176.5
2746.75	183.5
2750.248	175.5
2753.743	185.5
2757.236	181.5
2760.725	183.5
2764.211	156.5
2767.695	179.5
2771.175	175.5
2774.652	179.5
2778.127	177.5
2781.598	172.5
2785.067	176.5
2788.532	169.5
2791.995	176.5
2795.455	172.5
2798.911	180.5
2802.365	170.5
2805.816	178.5
2809.264	182.5
2812.709	166.5
2816.151	175.5
2819.59	173.5
2823.026	171.5
2826.46	166.5
2829.89	183.5
2833.318	152.5
2836.742	166.5
2840.164	182.5
2843.583	180.5
2846.999	176.5
2850.412	177.5
2853.822	172.5
2857.229	187.5
2860.634	188.5
2864.035	166.5
2867.434	186.5
2870.83	191.5
2874.223	179.5
2877.613	186.5
2881	192.5
2884.385	185.5
2887.766	182.5
2891.145	193.5
2894.521	187.5
2897.894	183.5
2901.264	202.5
2904.631	197.5
2907.996	203.5
2911.358	208.5
2914.717	212.5
2918.073	199.5
2921.426	202.5
2924.777	190.5
2928.124	201.5
2931.469	216.5
2934.811	204.5
2938.15	231.5
2941.487	212.5
2944.821	237.5
2948.152	227.5
2951.48	223.5
2954.805	208.5
2958.128	224.5
2961.447	219.5
2964.765	229.5
2968.079	214.5
2971.39	222.5
2974.699	224.5
2978.005	227.5
2981.308	225.5
2984.609	224.5
2987.907	228.5
2991.202	235.5
2994.494	221.5
2997.784	239.5
3001.07	233.5
3004.355	235.5
3007.636	239.5
3010.915	250.5
3014.191	236.5
3017.464	245.5
3020.734	244.5
3024.002	251.5
3027.267	250.5
3030.53	258.5
3033.789	257.5
3037.046	256.5
3040.301	253.5
3043.552	268.5
3046.801	271.5
3050.048	285.5
3053.291	305.5
3056.532	294.5
3059.771	285.5
3063.006	311.5
3066.239	318.5
3069.469	328.5
3072.697	328.5
3075.922	323.5
3079.144	330.5
3082.364	368.5
3085.581	353.5
3088.795	382.5
3092.007	373.5
3095.216	380.5
3098.423	388.5
3101.627	364.5
3104.828	392.5
3108.026	400.5
3111.222	424.5
3114.416	439.5
3117.607	433.5
3120.795	433.5
3123.98	443.5
3127.163	440.5
3130.344	456.5
3133.521	458.5
3136.696	490.5
3139.869	492.5
3143.039	490.5
3146.206	519.5
3149.371	517.5
3152.533	520.5
3155.693	505.5
3158.85	513.5
3162.005	530.5
3165.157	528.5
3168.306	520.5
3171.453	539.5
3174.597	517.5
3177.739	516.5
3180.878	532.5
3184.014	538.5
3187.149	536.5
3190.28	529.5
3193.409	555.5
3196.536	548.5
3199.659	556.5
3202.781	555.5
3205.9	545.5
3209.016	550.5
3212.13	546.5
3215.241	548.5
3218.35	544.5
3221.456	518.5
3224.56	524.5
3227.661	518.5
3230.76	515.5
3233.856	506.5
3236.95	521.5
3240.041	493.5
3243.13	505.5
3246.216	497.5
3249.3	519.5
3252.382	494.5
3255.46	495.5
3258.537	437.5
3261.611	473.5
3264.682	486.5
3267.751	487.5
3270.818	475.5
3273.882	476.5
3276.943	484.5
3280.002	495.5
3283.059	454.5
3286.113	475.5
3289.165	449.5
3292.214	451.5
3295.261	453.5
3298.306	438.5
3301.348	447.5
3304.387	432.5
3307.425	431.5
3310.459	422.5
3313.492	420.5
3316.521	418.5
3319.549	419.5
3322.574	420.5
3325.597	411.5
3328.617	389.5
3331.635	401.5
3334.65	389.5
3337.663	404.5
3340.674	396.5
3343.682	397.5
3346.688	402.5
3349.691	396.5
3352.692	395.5
3355.691	401.5
3358.687	389.5
3361.681	389.5
3364.673	378.5
3367.662	382.5
3370.649	376.5
3373.633	364.5
3376.615	375.5
3379.595	348.5
3382.572	349.5
3385.547	342.5
3388.52	334.5
3391.49	344.5
3394.458	333.5
3397.424	342.5
3400.387	328.5
3403.348	330.5
3406.307	334.5
3409.263	317.5
3412.217	321.5
3415.168	324.5
3418.118	325.5
3421.065	314.5
3424.009	324.5
3426.951	309.5
3429.891	294.5
3432.829	292.5
3435.764	296.5
3438.697	273.5
3441.628	286.5
3444.557	264.5
3447.483	255.5
3450.407	264.5
3453.328	250.5
3456.247	247.5
3459.164	228.5
3462.079	241.5
3464.991	228.5
3467.902	217.5
3470.809	220.5
3473.715	216.5
3476.618	205.5
3479.519	190.5
3482.418	179.5
3485.315	177.5
3488.209	179.5
3491.101	181.5
3493.99	162.5
3496.878	162.5
3499.763	157.5
3502.646	167.5
3505.527	150.5
3508.405	147.5
3511.281	134.5
3514.155	146.5
3517.027	134.5
3519.897	113.5
3522.764	120.5
3525.629	101.5
3528.492	107.5
3531.352	110.5
3534.211	99.5
3537.067	89.5
3539.921	90.5
3542.773	100.5
3545.622	79.5
3548.469	74.5
3551.315	66.5
3554.157	74.5
3556.998	64.5
3559.837	55.5
3562.673	62.5
3565.507	58.5
3568.339	51.5
3571.169	51.5
3573.996	52.5
3576.822	30.5
3579.645	40.5
3582.466	36.5
3585.285	45.5
3588.101	41.5
3590.916	36.5
3593.728	37.5
3596.538	33.5
3599.346	39.5
3602.152	15.5
3604.956	28.5
3607.757	24.5
3610.556	12.5
3613.354	31.5
3616.149	23.5
3618.942	27.5
3621.732	16.5
3624.521	8.5
3627.307	4.5
3630.092	11.5
3632.874	21.5
3635.654	13.5
3638.432	-0.5
3641.208	1.5
3643.982	2.5
3646.753	14.5
3649.523	-21.5
3652.29	-0.5
3655.055	7.5
3657.818	-1.5
3660.579	-4.5
3663.338	-9.5
3666.095	-7.5
3668.849	-32.5
3671.602	-2.5
3674.352	-24.5
3677.101	1.5
3679.847	0.5
3682.591	-14.5
3685.333	-22.5
3688.073	-10.5
3690.811	-20.5
3693.547	-22.5
3696.281	-26.5
3699.013	-14.5
3701.742	-20.5
3704.47	-31.5
3707.195	-14.5
3709.919	-15.5
3712.64	-17.5
3715.359	-31.5
3718.076	-6.5
3720.792	-18.5
3723.505	-17.5
3726.216	-9.5
3728.925	-21.5
3731.632	-27.5
3734.336	-22.5
3737.039	-25.5
3739.74	-24.5
3742.439	-44.5
3745.136	-18.5
3747.83	-22.5
3750.523	-24.5
3753.213	-80.5
3755.902	-27.5
3758.589	-33.5
3761.273	-33.5
3763.956	-21.5
3766.636	-41.5
3769.315	-18.5
3771.991	-26.5
3774.665	-33.5
3777.338	-25.5
3780.008	-35.5
3782.677	-29.5
3785.343	-40.5
3788.007	-44.5
3790.67	-23.5
3793.33	-42.5
3795.989	-33.5
3798.645	-26.5
3801.299	-42.5
3803.952	-39.5
3806.602	-33.5
3809.251	-28.5
3811.897	-32.5
3814.542	-28.5
3817.184	-32.5
3819.825	-30.5
3822.463	-40.5
3825.1	-33.5
3827.735	-27.5
3830.367	-39.5
3832.998	-18.5
3835.627	-36.5
3838.253	-24.5
3840.878	-34.5
3843.501	-17.5
3846.122	-28.5
3848.741	-22.5
3851.358	-26.5
3853.973	-40.5
3856.586	-23.5
3859.197	-42.5
3861.806	-31.5
3864.414	-37.5
3867.019	-31.5
3869.622	-19.5
3872.224	-14.5
3874.823	3.5
3877.421	35.5
3880.016	52.5
3882.61	96.5
3885.202	110.5
3887.792	79.5
3890.38	36.5
3892.966	-3.5
3895.55	-30.5
3898.132	-21.5
3900.713	-26.5
3903.291	-28.5
3905.868	-34.5
3908.442	-29.5
3911.015	-28.5
3913.586	-37.5
3916.155	-31.5
3918.722	-40.5
3921.287	-37.5
3923.85	-42.5
3926.411	-37.5
3928.971	-36.5
3931.528	-30.5
3934.084	-36.5
3936.638	-45.5
3939.19	-24.5
3941.74	-29.5
3944.288	-38.5
3946.834	-34.5
3949.378	-21.5
3951.921	-34.5
3954.462	-32.5
3957	-28.5
3959.537	-16.5
3962.072	-30.5
3964.606	-46.5
3967.137	-35.5
3969.667	-34.5
3972.194	-26.5
3974.72	-35.5
3977.244	-56.5
3979.766	-34.5
3982.286	-36.5
3984.805	-32.5
3987.321	-21.5
3989.836	-21.5
3992.349	-38.5
3994.86	-26.5
3997.369	-34.5
3999.877	-33.5
4002.382	-33.5
4004.886	-28.5
4007.388	-26.5
4009.888	-19.5
4012.386	-21.5
4014.883	-25.5
4017.377	-29.5
4019.87	-25.5
4022.361	-45.5
4024.85	-25.5
4027.338	-26.5
4029.823	-31.5
4032.307	-31.5
4034.789	-28.5
4037.269	-28.5
4039.747	-41.5
4042.224	-24.5
4044.699	-35.5
4047.172	-34.5
4049.643	-20.5
4052.112	-49.5
4054.58	-26.5
4057.046	-41.5
4059.51	-32.5
4061.972	-26.5
4064.432	-44.5
4066.891	-14.5
4069.348	-28.5
4071.803	-25.5
4074.256	-34.5
4076.708	-22.5
4079.158	-23.5
4081.606	-15.5
4084.052	-24.5
4086.497	-27.5
4088.939	-30.5
4091.38	-31.5
4093.819	-20.5
4096.257	0.5
4098.693	-6.5
4101.127	-7.5
4103.559	-0.5
4105.989	133.5
4108.418	132.5
4110.845	128.5
4113.27	124.5
4115.694	141.5
4118.115	127.5
4120.535	-26.5
4122.954	-21.5
4125.37	-17.5
4127.785	-24.5
4130.198	-19.5
4132.609	-28.5
4135.019	11.5
4137.427	-0.5
4139.833	7.5
4142.237	-4.5
