Data from 2018-3-6_conc=2_n=1_RamanShift_01.txt Node
Date: Tue Mar 06 12:41:49 GMT+02:00 2018
User: LAB3
Spectrometer: QEPB0276
Trigger mode: 0
Integration Time (sec): 3.000000E1
Scans to average: 1
Electric dark correction enabled: true
Nonlinearity correction enabled: false
Boxcar width: 0
XAxis mode: Raman Shifts
Number of Pixels in Spectrum: 1044
>>>>>Begin Spectral Data<<<<<
160.701	159.88
166.742	203.88
172.777	292.88
178.805	581.88
184.826	1313.88
190.841	2634.88
196.849	4225.88
202.85	5429.88
208.845	5880.88
214.833	5858.88
220.815	5828.88
226.789	5825.88
232.758	5895.88
238.719	5911.88
244.674	5869.88
250.623	5870.88
256.565	5796.88
262.5	5778.88
268.429	5752.88
274.351	5737.88
280.267	5779.88
286.176	5768.88
292.079	5760.88
297.975	5782.88
303.865	5781.88
309.748	5846.88
315.625	5826.88
321.495	5791.88
327.359	5823.88
333.217	5868.88
339.068	5901.88
344.912	5923.88
350.751	5961.88
356.583	5990.88
362.408	5995.88
368.227	6044.88
374.04	6105.88
379.847	6084.88
385.647	6122.88
391.44	6157.88
397.228	6190.88
403.009	6228.88
408.784	6255.88
414.553	6263.88
420.315	6319.88
426.071	6301.88
431.821	6321.88
437.565	6311.88
443.302	6297.88
449.033	6274.88
454.758	6255.88
460.477	6155.88
466.189	6125.88
471.896	6073.88
477.596	6013.88
483.29	5966.88
488.978	5980.88
494.66	5948.88
500.335	5735.88
506.005	5503.88
511.668	5235.88
517.325	4953.88
522.977	4707.88
528.622	4589.88
534.261	4478.88
539.894	4393.88
545.521	4345.88
551.141	4246.88
556.756	4237.88
562.365	4172.88
567.968	4146.88
573.565	4105.88
579.155	4091.88
584.74	4045.88
590.319	4056.88
595.892	4056.88
601.459	4056.88
607.02	4037.88
612.575	3967.88
618.124	3950.88
623.667	3872.88
629.204	3855.88
634.735	3798.88
640.261	3721.88
645.781	3717.88
651.294	3681.88
656.802	3662.88
662.304	3651.88
667.8	3672.88
673.29	3626.88
678.775	3633.88
684.254	3627.88
689.726	3601.88
695.193	3590.88
700.655	3564.88
706.11	3552.88
711.56	3549.88
717.004	3486.88
722.442	3465.88
727.874	3462.88
733.301	3458.88
738.722	3409.88
744.137	3434.88
749.547	3426.88
754.951	3446.88
760.349	3435.88
765.741	3470.88
771.128	3494.88
776.509	3522.88
781.885	3576.88
787.254	3645.88
792.618	3622.88
797.977	3647.88
803.33	3614.88
808.677	3550.88
814.019	3560.88
819.355	3519.88
824.686	3476.88
830.011	3456.88
835.33	3471.88
840.644	3419.88
845.952	3370.88
851.255	3384.88
856.552	3302.88
861.844	3305.88
867.13	3242.88
872.41	3221.88
877.686	3185.88
882.955	3162.88
888.219	3147.88
893.478	3071.88
898.731	3062.88
903.979	3035.88
909.221	3007.88
914.458	2980.88
919.69	2960.88
924.916	2978.88
930.136	2973.88
935.351	2974.88
940.561	2980.88
945.766	2981.88
950.965	2979.88
956.158	2911.88
961.347	2908.88
966.529	2892.88
971.707	2859.88
976.879	2802.88
982.046	2768.88
987.208	2781.88
992.364	2748.88
997.515	2757.88
1002.66	2773.88
1007.801	2837.88
1012.936	2837.88
1018.066	2810.88
1023.19	2861.88
1028.309	2880.88
1033.423	2850.88
1038.532	2865.88
1043.636	2833.88
1048.734	2830.88
1053.827	2807.88
1058.915	2778.88
1063.998	2747.88
1069.075	2782.88
1074.147	2738.88
1079.214	2730.88
1084.276	2756.88
1089.333	2764.88
1094.385	2769.88
1099.431	2743.88
1104.472	2735.88
1109.509	2683.88
1114.54	2684.88
1119.565	2640.88
1124.586	2583.88
1129.602	2575.88
1134.613	2533.88
1139.618	2525.88
1144.619	2529.88
1149.614	2539.88
1154.604	2544.88
1159.589	2539.88
1164.57	2562.88
1169.545	2560.88
1174.515	2574.88
1179.48	2547.88
1184.44	2547.88
1189.395	2515.88
1194.345	2501.88
1199.29	2501.88
1204.23	2478.88
1209.165	2460.88
1214.095	2492.88
1219.021	2501.88
1223.941	2514.88
1228.856	2524.88
1233.766	2530.88
1238.672	2546.88
1243.572	2528.88
1248.467	2497.88
1253.358	2474.88
1258.244	2406.88
1263.124	2388.88
1268	2354.88
1272.871	2309.88
1277.737	2289.88
1282.599	2276.88
1287.455	2279.88
1292.306	2295.88
1297.153	2276.88
1301.995	2294.88
1306.832	2307.88
1311.664	2315.88
1316.491	2302.88
1321.314	2314.88
1326.132	2274.88
1330.945	2263.88
1335.753	2210.88
1340.556	2181.88
1345.354	2145.88
1350.148	2125.88
1354.937	2107.88
1359.722	2088.88
1364.501	2070.88
1369.276	2056.88
1374.046	2055.88
1378.811	2034.88
1383.572	2041.88
1388.327	2053.88
1393.079	2021.88
1397.825	2007.88
1402.567	1984.88
1407.304	1971.88
1412.036	1970.88
1416.764	1971.88
1421.487	1951.88
1426.205	1969.88
1430.919	1980.88
1435.628	1968.88
1440.333	1972.88
1445.032	1990.88
1449.727	2021.88
1454.418	2029.88
1459.104	2029.88
1463.785	1990.88
1468.462	1986.88
1473.134	1947.88
1477.802	1920.88
1482.465	1870.88
1487.123	1882.88
1491.777	1862.88
1496.426	1853.88
1501.071	1875.88
1505.711	1869.88
1510.347	1898.88
1514.978	1910.88
1519.604	1909.88
1524.226	1919.88
1528.844	1861.88
1533.457	1872.88
1538.065	1859.88
1542.669	1840.88
1547.269	1823.88
1551.864	1804.88
1556.454	1783.88
1561.041	1796.88
1565.622	1785.88
1570.199	1781.88
1574.772	1820.88
1579.34	1824.88
1583.904	1824.88
1588.464	1849.88
1593.019	1869.88
1597.569	1846.88
1602.115	1826.88
1606.657	1816.88
1611.195	1834.88
1615.728	1835.88
1620.256	1812.88
1624.78	1800.88
1629.3	1824.88
1633.816	1833.88
1638.327	1846.88
1642.834	1863.88
1647.336	1854.88
1651.834	1885.88
1656.328	1883.88
1660.817	1896.88
1665.302	1875.88
1669.783	1855.88
1674.259	1829.88
1678.732	1795.88
1683.199	1758.88
1687.663	1691.88
1692.122	1684.88
1696.577	1642.88
1701.028	1623.88
1705.474	1583.88
1709.917	1565.88
1714.355	1534.88
1718.788	1522.88
1723.218	1509.88
1727.643	1465.88
1732.064	1470.88
1736.481	1439.88
1740.893	1417.88
1745.301	1364.88
1749.705	1334.88
1754.105	1333.88
1758.501	1297.88
1762.893	1288.88
1767.28	1250.88
1771.663	1242.88
1776.042	1224.88
1780.417	1225.88
1784.787	1231.88
1789.154	1235.88
1793.516	1253.88
1797.874	1225.88
1802.228	1230.88
1806.578	1218.88
1810.924	1231.88
1815.266	1110.88
1819.603	1201.88
1823.937	1161.88
1828.266	1135.88
1832.591	1146.88
1836.913	1123.88
1841.23	1121.88
1845.543	1118.88
1849.852	1133.88
1854.156	1114.88
1858.457	1111.88
1862.754	1122.88
1867.047	1125.88
1871.335	1142.88
1875.62	1143.88
1879.9	1139.88
1884.177	1132.88
1888.449	1140.88
1892.718	1120.88
1896.982	1126.88
1901.243	1100.88
1905.499	1110.88
1909.752	1118.88
1914	1097.88
1918.245	1116.88
1922.485	1136.88
1926.722	1133.88
1930.954	1122.88
1935.183	1128.88
1939.408	1146.88
1943.628	1127.88
1947.845	1117.88
1952.058	1110.88
1956.267	1076.88
1960.472	1066.88
1964.673	1045.88
1968.87	1021.88
1973.063	1004.88
1977.252	988.88
1981.438	982.88
1985.619	955.88
1989.797	948.88
1993.971	940.88
1998.14	968.88
2002.306	940.88
2006.469	955.88
2010.627	919.88
2014.781	929.88
2018.932	926.88
2023.078	935.88
2027.221	925.88
2031.36	896.88
2035.495	884.88
2039.627	885.88
2043.754	881.88
2047.878	883.88
2051.998	873.88
2056.114	876.88
2060.226	869.88
2064.334	894.88
2068.439	900.88
2072.54	893.88
2076.637	888.88
2080.73	902.88
2084.82	885.88
2088.906	890.88
2092.988	890.88
2097.066	894.88
2101.14	894.88
2105.211	882.88
2109.278	849.88
2113.342	841.88
2117.401	833.88
2121.457	832.88
2125.509	821.88
2129.558	820.88
2133.602	808.88
2137.643	801.88
2141.681	792.88
2145.714	788.88
2149.744	788.88
2153.77	779.88
2157.793	753.88
2161.812	731.88
2165.827	716.88
2169.838	749.88
2173.846	708.88
2177.851	699.88
2181.851	714.88
2185.848	694.88
2189.841	689.88
2193.831	682.88
2197.817	674.88
2201.799	668.88
2205.778	666.88
2209.753	647.88
2213.725	655.88
2217.693	658.88
2221.657	642.88
2225.618	645.88
2229.575	642.88
2233.529	638.88
2237.479	628.88
2241.425	619.88
2245.368	602.88
2249.307	603.88
2253.243	590.88
2257.175	586.88
2261.104	565.88
2265.029	575.88
2268.95	564.88
2272.868	554.88
2276.783	544.88
2280.694	539.88
2284.601	535.88
2288.505	527.88
2292.405	531.88
2296.302	507.88
2300.195	503.88
2304.085	481.88
2307.971	492.88
2311.854	468.88
2315.734	478.88
2319.609	473.88
2323.482	439.88
2327.351	460.88
2331.216	453.88
2335.078	464.88
2338.937	446.88
2342.792	439.88
2346.643	438.88
2350.492	453.88
2354.336	441.88
2358.178	447.88
2362.015	440.88
2365.85	434.88
2369.681	440.88
2373.508	438.88
2377.333	442.88
2381.153	447.88
2384.971	427.88
2388.785	436.88
2392.595	425.88
2396.402	428.88
2400.206	390.88
2404.007	416.88
2407.804	406.88
2411.597	422.88
2415.388	414.88
2419.174	398.88
2422.958	410.88
2426.738	407.88
2430.515	411.88
2434.289	403.88
2438.059	402.88
2441.825	403.88
2445.589	399.88
2449.349	374.88
2453.106	386.88
2456.859	386.88
2460.61	396.88
2464.356	370.88
2468.1	370.88
2471.84	362.88
2475.577	360.88
2479.311	364.88
2483.041	360.88
2486.768	371.88
2490.492	372.88
2494.213	370.88
2497.93	352.88
2501.644	347.88
2505.355	359.88
2509.062	365.88
2512.766	360.88
2516.467	345.88
2520.165	360.88
2523.859	336.88
2527.551	375.88
2531.239	343.88
2534.923	351.88
2538.605	343.88
2542.283	351.88
2545.958	341.88
2549.63	360.88
2553.299	352.88
2556.964	328.88
2560.626	338.88
2564.285	341.88
2567.941	320.88
2571.594	324.88
2575.243	338.88
2578.89	330.88
2582.533	315.88
2586.173	313.88
2589.809	315.88
2593.443	298.88
2597.073	317.88
2600.701	316.88
2604.325	305.88
2607.946	295.88
2611.564	307.88
2615.178	312.88
2618.79	305.88
2622.398	283.88
2626.004	300.88
2629.606	283.88
2633.205	279.88
2636.801	287.88
2640.394	278.88
2643.983	271.88
2647.57	267.88
2651.153	260.88
2654.734	269.88
2658.311	243.88
2661.885	248.88
2665.456	255.88
2669.025	246.88
2672.589	245.88
2676.151	259.88
2679.71	260.88
2683.266	248.88
2686.819	243.88
2690.368	242.88
2693.915	242.88
2697.458	240.88
2700.999	245.88
2704.536	231.88
2708.071	229.88
2711.602	229.88
2715.13	225.88
2718.656	214.88
2722.178	228.88
2725.697	204.88
2729.214	218.88
2732.727	220.88
2736.237	211.88
2739.744	213.88
2743.249	213.88
2746.75	223.88
2750.248	211.88
2753.743	229.88
2757.236	224.88
2760.725	231.88
2764.211	191.88
2767.695	221.88
2771.175	210.88
2774.652	216.88
2778.127	207.88
2781.598	204.88
2785.067	213.88
2788.532	204.88
2791.995	210.88
2795.455	208.88
2798.911	213.88
2802.365	203.88
2805.816	211.88
2809.264	217.88
2812.709	210.88
2816.151	209.88
2819.59	203.88
2823.026	209.88
2826.46	209.88
2829.89	223.88
2833.318	192.88
2836.742	211.88
2840.164	213.88
2843.583	219.88
2846.999	210.88
2850.412	223.88
2853.822	216.88
2857.229	234.88
2860.634	222.88
2864.035	210.88
2867.434	236.88
2870.83	241.88
2874.223	228.88
2877.613	234.88
2881	241.88
2884.385	224.88
2887.766	239.88
2891.145	240.88
2894.521	223.88
2897.894	228.88
2901.264	236.88
2904.631	233.88
2907.996	236.88
2911.358	245.88
2914.717	233.88
2918.073	238.88
2921.426	234.88
2924.777	223.88
2928.124	245.88
2931.469	258.88
2934.811	241.88
2938.15	270.88
2941.487	269.88
2944.821	277.88
2948.152	271.88
2951.48	276.88
2954.805	252.88
2958.128	281.88
2961.447	266.88
2964.765	276.88
2968.079	274.88
2971.39	267.88
2974.699	276.88
2978.005	285.88
2981.308	282.88
2984.609	277.88
2987.907	290.88
2991.202	307.88
2994.494	296.88
2997.784	295.88
3001.07	304.88
3004.355	300.88
3007.636	308.88
3010.915	304.88
3014.191	297.88
3017.464	309.88
3020.734	313.88
3024.002	318.88
3027.267	304.88
3030.53	308.88
3033.789	315.88
3037.046	315.88
3040.301	311.88
3043.552	335.88
3046.801	335.88
3050.048	343.88
3053.291	360.88
3056.532	356.88
3059.771	356.88
3063.006	382.88
3066.239	386.88
3069.469	400.88
3072.697	407.88
3075.922	406.88
3079.144	422.88
3082.364	455.88
3085.581	434.88
3088.795	470.88
3092.007	470.88
3095.216	480.88
3098.423	479.88
3101.627	473.88
3104.828	502.88
3108.026	496.88
3111.222	526.88
3114.416	545.88
3117.607	545.88
3120.795	555.88
3123.98	564.88
3127.163	572.88
3130.344	576.88
3133.521	592.88
3136.696	624.88
3139.869	619.88
3143.039	621.88
3146.206	662.88
3149.371	663.88
3152.533	660.88
3155.693	650.88
3158.85	663.88
3162.005	687.88
3165.157	667.88
3168.306	671.88
3171.453	684.88
3174.597	661.88
3177.739	664.88
3180.878	667.88
3184.014	675.88
3187.149	693.88
3190.28	691.88
3193.409	689.88
3196.536	683.88
3199.659	703.88
3202.781	684.88
3205.9	686.88
3209.016	690.88
3212.13	689.88
3215.241	688.88
3218.35	672.88
3221.456	681.88
3224.56	666.88
3227.661	661.88
3230.76	658.88
3233.856	653.88
3236.95	655.88
3240.041	643.88
3243.13	662.88
3246.216	651.88
3249.3	650.88
3252.382	639.88
3255.46	623.88
3258.537	588.88
3261.611	616.88
3264.682	636.88
3267.751	633.88
3270.818	611.88
3273.882	626.88
3276.943	625.88
3280.002	626.88
3283.059	601.88
3286.113	596.88
3289.165	586.88
3292.214	577.88
3295.261	586.88
3298.306	541.88
3301.348	560.88
3304.387	533.88
3307.425	545.88
3310.459	533.88
3313.492	532.88
3316.521	527.88
3319.549	536.88
3322.574	519.88
3325.597	510.88
3328.617	493.88
3331.635	497.88
3334.65	483.88
3337.663	500.88
3340.674	501.88
3343.682	493.88
3346.688	508.88
3349.691	491.88
3352.692	486.88
3355.691	498.88
3358.687	489.88
3361.681	483.88
3364.673	480.88
3367.662	476.88
3370.649	490.88
3373.633	463.88
3376.615	464.88
3379.595	446.88
3382.572	450.88
3385.547	442.88
3388.52	436.88
3391.49	435.88
3394.458	434.88
3397.424	436.88
3400.387	415.88
3403.348	418.88
3406.307	412.88
3409.263	403.88
3412.217	416.88
3415.168	416.88
3418.118	411.88
3421.065	393.88
3424.009	398.88
3426.951	388.88
3429.891	376.88
3432.829	379.88
3435.764	387.88
3438.697	359.88
3441.628	368.88
3444.557	335.88
3447.483	326.88
3450.407	342.88
3453.328	326.88
3456.247	315.88
3459.164	298.88
3462.079	301.88
3464.991	305.88
3467.902	287.88
3470.809	279.88
3473.715	286.88
3476.618	265.88
3479.519	260.88
3482.418	245.88
3485.315	238.88
3488.209	241.88
3491.101	234.88
3493.99	215.88
3496.878	218.88
3499.763	223.88
3502.646	222.88
3505.527	205.88
3508.405	193.88
3511.281	186.88
3514.155	194.88
3517.027	178.88
3519.897	166.88
3522.764	175.88
3525.629	140.88
3528.492	157.88
3531.352	148.88
3534.211	138.88
3537.067	136.88
3539.921	135.88
3542.773	131.88
3545.622	114.88
3548.469	100.88
3551.315	107.88
3554.157	107.88
3556.998	95.88
3559.837	94.88
3562.673	97.88
3565.507	86.88
3568.339	77.88
3571.169	85.88
3573.996	80.88
3576.822	56.88
3579.645	55.88
3582.466	59.88
3585.285	67.88
3588.101	57.88
3590.916	52.88
3593.728	55.88
3596.538	50.88
3599.346	50.88
3602.152	42.88
3604.956	43.88
3607.757	45.88
3610.556	24.88
3613.354	40.88
3616.149	39.88
3618.942	40.88
3621.732	36.88
3624.521	26.88
3627.307	16.88
3630.092	19.88
3632.874	34.88
3635.654	18.88
3638.432	13.88
3641.208	12.88
3643.982	16.88
3646.753	23.88
3649.523	-16.12
3652.29	8.88
3655.055	13.88
3657.818	11.88
3660.579	3.88
3663.338	-2.12
3666.095	-2.12
3668.849	-21.12
3671.602	2.88
3674.352	-15.12
3677.101	6.88
3679.847	-1.12
3682.591	-10.12
3685.333	-12.12
3688.073	-3.12
3690.811	-16.12
3693.547	-18.12
3696.281	-22.12
3699.013	-7.12
3701.742	-14.12
3704.47	-21.12
3707.195	-7.12
3709.919	-11.12
3712.64	-13.12
3715.359	-25.12
3718.076	-4.12
3720.792	-17.12
3723.505	-12.12
3726.216	-3.12
3728.925	-21.12
3731.632	-23.12
3734.336	-17.12
3737.039	-17.12
3739.74	-15.12
3742.439	-42.12
3745.136	-14.12
3747.83	-18.12
3750.523	-15.12
3753.213	-86.12
3755.902	-23.12
3758.589	-30.12
3761.273	-25.12
3763.956	-17.12
3766.636	-37.12
3769.315	-13.12
3771.991	-20.12
3774.665	-26.12
3777.338	-22.12
3780.008	-34.12
3782.677	-26.12
3785.343	-35.12
3788.007	-43.12
3790.67	-18.12
3793.33	-32.12
3795.989	-28.12
3798.645	-22.12
3801.299	-36.12
3803.952	-33.12
3806.602	-27.12
3809.251	-20.12
3811.897	-25.12
3814.542	-31.12
3817.184	-30.12
3819.825	-22.12
3822.463	-38.12
3825.1	-32.12
3827.735	-24.12
3830.367	-32.12
3832.998	-16.12
3835.627	-28.12
3838.253	-20.12
3840.878	-28.12
3843.501	-12.12
3846.122	-22.12
3848.741	-16.12
3851.358	-18.12
3853.973	-41.12
3856.586	-17.12
3859.197	-31.12
3861.806	-23.12
3864.414	-36.12
3867.019	-26.12
3869.622	-13.12
3872.224	-10.12
3874.823	9.88
3877.421	47.88
3880.016	70.88
3882.61	118.88
3885.202	134.88
3887.792	101.88
3890.38	53.88
3892.966	6.88
3895.55	-21.12
3898.132	-14.12
3900.713	-17.12
3903.291	-27.12
3905.868	-33.12
3908.442	-25.12
3911.015	-30.12
3913.586	-32.12
3916.155	-33.12
3918.722	-32.12
3921.287	-36.12
3923.85	-41.12
3926.411	-32.12
3928.971	-37.12
3931.528	-29.12
3934.084	-32.12
3936.638	-43.12
3939.19	-25.12
3941.74	-24.12
3944.288	-30.12
3946.834	-32.12
3949.378	-22.12
3951.921	-36.12
3954.462	-30.12
3957	-24.12
3959.537	-19.12
3962.072	-26.12
3964.606	-46.12
3967.137	-34.12
3969.667	-35.12
3972.194	-25.12
3974.72	-37.12
3977.244	-51.12
3979.766	-39.12
3982.286	-37.12
3984.805	-24.12
3987.321	-19.12
3989.836	-24.12
3992.349	-36.12
3994.86	-27.12
3997.369	-37.12
3999.877	-29.12
4002.382	-30.12
4004.886	-23.12
4007.388	-28.12
4009.888	-21.12
4012.386	-23.12
4014.883	-27.12
4017.377	-30.12
4019.87	-26.12
4022.361	-39.12
4024.85	-24.12
4027.338	-21.12
4029.823	-33.12
4032.307	-30.12
4034.789	-30.12
4037.269	-28.12
4039.747	-41.12
4042.224	-21.12
4044.699	-36.12
4047.172	-34.12
4049.643	-18.12
4052.112	-50.12
4054.58	-28.12
4057.046	-39.12
4059.51	-30.12
4061.972	-26.12
4064.432	-46.12
4066.891	-17.12
4069.348	-31.12
4071.803	-27.12
4074.256	-32.12
4076.708	-22.12
4079.158	-32.12
4081.606	-11.12
4084.052	-26.12
4086.497	-23.12
4088.939	-28.12
4091.38	-29.12
4093.819	-23.12
4096.257	-0.12
4098.693	-6.12
4101.127	-4.12
4103.559	3.88
4105.989	152.88
4108.418	151.88
4110.845	138.88
4113.27	143.88
4115.694	158.88
4118.115	145.88
4120.535	-25.12
4122.954	-21.12
4125.37	-16.12
4127.785	-27.12
4130.198	-17.12
4132.609	-24.12
4135.019	4.88
4137.427	-0.12
4139.833	5.88
4142.237	-4.12
