Data from 2018-3-6_conc=0_n=2_RamanShift_03.txt Node
Date: Tue Mar 06 12:11:19 GMT+02:00 2018
User: LAB3
Spectrometer: QEPB0276
Trigger mode: 0
Integration Time (sec): 3.000000E1
Scans to average: 1
Electric dark correction enabled: true
Nonlinearity correction enabled: false
Boxcar width: 0
XAxis mode: Raman Shifts
Number of Pixels in Spectrum: 1044
>>>>>Begin Spectral Data<<<<<
160.701	35.62
166.742	63.62
172.777	111.62
178.805	256.62
184.826	657.62
190.841	1364.62
196.849	2192.62
202.85	2843.62
208.845	3053.62
214.833	3114.62
220.815	3088.62
226.789	3135.62
232.758	3187.62
238.719	3221.62
244.674	3227.62
250.623	3264.62
256.565	3219.62
262.5	3240.62
268.429	3209.62
274.351	3210.62
280.267	3218.62
286.176	3271.62
292.079	3255.62
297.975	3281.62
303.865	3314.62
309.748	3331.62
315.625	3316.62
321.495	3330.62
327.359	3325.62
333.217	3343.62
339.068	3347.62
344.912	3391.62
350.751	3352.62
356.583	3405.62
362.408	3408.62
368.227	3433.62
374.04	3435.62
379.847	3446.62
385.647	3491.62
391.44	3475.62
397.228	3499.62
403.009	3535.62
408.784	3510.62
414.553	3548.62
420.315	3567.62
426.071	3571.62
431.821	3549.62
437.565	3545.62
443.302	3567.62
449.033	3514.62
454.758	3548.62
460.477	3509.62
466.189	3456.62
471.896	3462.62
477.596	3432.62
483.29	3420.62
488.978	3411.62
494.66	3376.62
500.335	3319.62
506.005	3220.62
511.668	3120.62
517.325	2985.62
522.977	2884.62
528.622	2829.62
534.261	2795.62
539.894	2730.62
545.521	2720.62
551.141	2698.62
556.756	2670.62
562.365	2653.62
567.968	2628.62
573.565	2622.62
579.155	2613.62
584.74	2605.62
590.319	2611.62
595.892	2591.62
601.459	2594.62
607.02	2584.62
612.575	2562.62
618.124	2552.62
623.667	2508.62
629.204	2486.62
634.735	2469.62
640.261	2424.62
645.781	2417.62
651.294	2398.62
656.802	2408.62
662.304	2425.62
667.8	2398.62
673.29	2394.62
678.775	2397.62
684.254	2385.62
689.726	2377.62
695.193	2366.62
700.655	2363.62
706.11	2343.62
711.56	2335.62
717.004	2334.62
722.442	2295.62
727.874	2295.62
733.301	2311.62
738.722	2284.62
744.137	2289.62
749.547	2306.62
754.951	2295.62
760.349	2281.62
765.741	2307.62
771.128	2318.62
776.509	2322.62
781.885	2383.62
787.254	2392.62
792.618	2370.62
797.977	2379.62
803.33	2349.62
808.677	2335.62
814.019	2339.62
819.355	2312.62
824.686	2278.62
830.011	2284.62
835.33	2283.62
840.644	2300.62
845.952	2243.62
851.255	2264.62
856.552	2248.62
861.844	2237.62
867.13	2221.62
872.41	2246.62
877.686	2273.62
882.955	2264.62
888.219	2255.62
893.478	2179.62
898.731	2150.62
903.979	2092.62
909.221	2082.62
914.458	2041.62
919.69	2069.62
924.916	2059.62
930.136	2062.62
935.351	2054.62
940.561	2061.62
945.766	2058.62
950.965	2074.62
956.158	2032.62
961.347	2036.62
966.529	2004.62
971.707	1980.62
976.879	1946.62
982.046	1937.62
987.208	1923.62
992.364	1934.62
997.515	1945.62
1002.66	1951.62
1007.801	1963.62
1012.936	1972.62
1018.066	1979.62
1023.19	2016.62
1028.309	2016.62
1033.423	2026.62
1038.532	2026.62
1043.636	1996.62
1048.734	2011.62
1053.827	1983.62
1058.915	1952.62
1063.998	1955.62
1069.075	1943.62
1074.147	1926.62
1079.214	1938.62
1084.276	1980.62
1089.333	1976.62
1094.385	1985.62
1099.431	1980.62
1104.472	1949.62
1109.509	1920.62
1114.54	1907.62
1119.565	1865.62
1124.586	1854.62
1129.602	1845.62
1134.613	1815.62
1139.618	1814.62
1144.619	1808.62
1149.614	1813.62
1154.604	1790.62
1159.589	1810.62
1164.57	1836.62
1169.545	1833.62
1174.515	1821.62
1179.48	1804.62
1184.44	1821.62
1189.395	1801.62
1194.345	1766.62
1199.29	1779.62
1204.23	1768.62
1209.165	1758.62
1214.095	1789.62
1219.021	1792.62
1223.941	1791.62
1228.856	1797.62
1233.766	1810.62
1238.672	1821.62
1243.572	1818.62
1248.467	1783.62
1253.358	1775.62
1258.244	1754.62
1263.124	1745.62
1268	1717.62
1272.871	1675.62
1277.737	1684.62
1282.599	1666.62
1287.455	1667.62
1292.306	1666.62
1297.153	1675.62
1301.995	1682.62
1306.832	1686.62
1311.664	1693.62
1316.491	1671.62
1321.314	1688.62
1326.132	1682.62
1330.945	1644.62
1335.753	1622.62
1340.556	1585.62
1345.354	1541.62
1350.148	1553.62
1354.937	1516.62
1359.722	1510.62
1364.501	1478.62
1369.276	1472.62
1374.046	1484.62
1378.811	1480.62
1383.572	1488.62
1388.327	1477.62
1393.079	1479.62
1397.825	1465.62
1402.567	1481.62
1407.304	1453.62
1412.036	1444.62
1416.764	1461.62
1421.487	1439.62
1426.205	1450.62
1430.919	1451.62
1435.628	1470.62
1440.333	1490.62
1445.032	1493.62
1449.727	1508.62
1454.418	1536.62
1459.104	1534.62
1463.785	1485.62
1468.462	1477.62
1473.134	1450.62
1477.802	1425.62
1482.465	1367.62
1487.123	1367.62
1491.777	1342.62
1496.426	1330.62
1501.071	1365.62
1505.711	1336.62
1510.347	1360.62
1514.978	1365.62
1519.604	1345.62
1524.226	1353.62
1528.844	1332.62
1533.457	1330.62
1538.065	1337.62
1542.669	1317.62
1547.269	1313.62
1551.864	1308.62
1556.454	1288.62
1561.041	1276.62
1565.622	1272.62
1570.199	1292.62
1574.772	1314.62
1579.34	1320.62
1583.904	1332.62
1588.464	1326.62
1593.019	1339.62
1597.569	1332.62
1602.115	1313.62
1606.657	1299.62
1611.195	1293.62
1615.728	1291.62
1620.256	1271.62
1624.78	1243.62
1629.3	1267.62
1633.816	1273.62
1638.327	1261.62
1642.834	1279.62
1647.336	1282.62
1651.834	1305.62
1656.328	1294.62
1660.817	1283.62
1665.302	1280.62
1669.783	1269.62
1674.259	1246.62
1678.732	1225.62
1683.199	1213.62
1687.663	1153.62
1692.122	1151.62
1696.577	1112.62
1701.028	1104.62
1705.474	1088.62
1709.917	1074.62
1714.355	1061.62
1718.788	1052.62
1723.218	1047.62
1727.643	1032.62
1732.064	1042.62
1736.481	1004.62
1740.893	1004.62
1745.301	989.62
1749.705	947.62
1754.105	959.62
1758.501	931.62
1762.893	930.62
1767.28	893.62
1771.663	894.62
1776.042	889.62
1780.417	879.62
1784.787	887.62
1789.154	891.62
1793.516	884.62
1797.874	875.62
1802.228	857.62
1806.578	861.62
1810.924	869.62
1815.266	768.62
1819.603	842.62
1823.937	834.62
1828.266	819.62
1832.591	829.62
1836.913	821.62
1841.23	805.62
1845.543	816.62
1849.852	819.62
1854.156	821.62
1858.457	817.62
1862.754	816.62
1867.047	828.62
1871.335	844.62
1875.62	834.62
1879.9	826.62
1884.177	811.62
1888.449	817.62
1892.718	805.62
1896.982	807.62
1901.243	790.62
1905.499	798.62
1909.752	776.62
1914	764.62
1918.245	793.62
1922.485	782.62
1926.722	775.62
1930.954	770.62
1935.183	787.62
1939.408	783.62
1943.628	778.62
1947.845	763.62
1952.058	762.62
1956.267	741.62
1960.472	752.62
1964.673	728.62
1968.87	713.62
1973.063	704.62
1977.252	699.62
1981.438	696.62
1985.619	678.62
1989.797	677.62
1993.971	682.62
1998.14	679.62
2002.306	669.62
2006.469	680.62
2010.627	664.62
2014.781	663.62
2018.932	647.62
2023.078	675.62
2027.221	657.62
2031.36	638.62
2035.495	633.62
2039.627	642.62
2043.754	633.62
2047.878	620.62
2051.998	613.62
2056.114	618.62
2060.226	607.62
2064.334	639.62
2068.439	623.62
2072.54	635.62
2076.637	615.62
2080.73	620.62
2084.82	630.62
2088.906	621.62
2092.988	618.62
2097.066	619.62
2101.14	626.62
2105.211	609.62
2109.278	594.62
2113.342	595.62
2117.401	577.62
2121.457	563.62
2125.509	556.62
2129.558	569.62
2133.602	566.62
2137.643	560.62
2141.681	567.62
2145.714	565.62
2149.744	559.62
2153.77	551.62
2157.793	519.62
2161.812	513.62
2165.827	506.62
2169.838	519.62
2173.846	512.62
2177.851	506.62
2181.851	507.62
2185.848	491.62
2189.841	482.62
2193.831	487.62
2197.817	476.62
2201.799	479.62
2205.778	465.62
2209.753	477.62
2213.725	479.62
2217.693	490.62
2221.657	460.62
2225.618	475.62
2229.575	465.62
2233.529	466.62
2237.479	471.62
2241.425	450.62
2245.368	438.62
2249.307	444.62
2253.243	433.62
2257.175	439.62
2261.104	418.62
2265.029	423.62
2268.95	425.62
2272.868	410.62
2276.783	396.62
2280.694	403.62
2284.601	407.62
2288.505	381.62
2292.405	398.62
2296.302	374.62
2300.195	383.62
2304.085	350.62
2307.971	384.62
2311.854	349.62
2315.734	357.62
2319.609	372.62
2323.482	341.62
2327.351	348.62
2331.216	349.62
2335.078	359.62
2338.937	345.62
2342.792	336.62
2346.643	341.62
2350.492	357.62
2354.336	343.62
2358.178	343.62
2362.015	346.62
2365.85	348.62
2369.681	348.62
2373.508	341.62
2377.333	362.62
2381.153	354.62
2384.971	341.62
2388.785	347.62
2392.595	334.62
2396.402	334.62
2400.206	315.62
2404.007	321.62
2407.804	325.62
2411.597	330.62
2415.388	329.62
2419.174	325.62
2422.958	324.62
2426.738	323.62
2430.515	330.62
2434.289	312.62
2438.059	315.62
2441.825	311.62
2445.589	321.62
2449.349	293.62
2453.106	308.62
2456.859	303.62
2460.61	308.62
2464.356	297.62
2468.1	288.62
2471.84	289.62
2475.577	288.62
2479.311	289.62
2483.041	291.62
2486.768	300.62
2490.492	298.62
2494.213	286.62
2497.93	272.62
2501.644	271.62
2505.355	276.62
2509.062	286.62
2512.766	275.62
2516.467	270.62
2520.165	272.62
2523.859	262.62
2527.551	289.62
2531.239	267.62
2534.923	276.62
2538.605	262.62
2542.283	266.62
2545.958	267.62
2549.63	272.62
2553.299	277.62
2556.964	250.62
2560.626	260.62
2564.285	257.62
2567.941	252.62
2571.594	242.62
2575.243	262.62
2578.89	240.62
2582.533	251.62
2586.173	241.62
2589.809	242.62
2593.443	219.62
2597.073	233.62
2600.701	236.62
2604.325	236.62
2607.946	221.62
2611.564	233.62
2615.178	228.62
2618.79	230.62
2622.398	219.62
2626.004	236.62
2629.606	215.62
2633.205	211.62
2636.801	217.62
2640.394	209.62
2643.983	219.62
2647.57	209.62
2651.153	200.62
2654.734	211.62
2658.311	182.62
2661.885	191.62
2665.456	201.62
2669.025	199.62
2672.589	190.62
2676.151	205.62
2679.71	199.62
2683.266	194.62
2686.819	186.62
2690.368	191.62
2693.915	194.62
2697.458	181.62
2700.999	184.62
2704.536	182.62
2708.071	172.62
2711.602	177.62
2715.13	175.62
2718.656	160.62
2722.178	169.62
2725.697	156.62
2729.214	159.62
2732.727	160.62
2736.237	152.62
2739.744	159.62
2743.249	154.62
2746.75	162.62
2750.248	149.62
2753.743	160.62
2757.236	160.62
2760.725	165.62
2764.211	127.62
2767.695	150.62
2771.175	145.62
2774.652	150.62
2778.127	151.62
2781.598	147.62
2785.067	153.62
2788.532	135.62
2791.995	146.62
2795.455	141.62
2798.911	150.62
2802.365	139.62
2805.816	148.62
2809.264	152.62
2812.709	140.62
2816.151	141.62
2819.59	140.62
2823.026	147.62
2826.46	140.62
2829.89	147.62
2833.318	126.62
2836.742	149.62
2840.164	139.62
2843.583	148.62
2846.999	154.62
2850.412	149.62
2853.822	138.62
2857.229	159.62
2860.634	155.62
2864.035	136.62
2867.434	162.62
2870.83	162.62
2874.223	158.62
2877.613	167.62
2881	157.62
2884.385	166.62
2887.766	176.62
2891.145	171.62
2894.521	164.62
2897.894	155.62
2901.264	174.62
2904.631	171.62
2907.996	168.62
2911.358	173.62
2914.717	170.62
2918.073	161.62
2921.426	156.62
2924.777	153.62
2928.124	169.62
2931.469	190.62
2934.811	167.62
2938.15	198.62
2941.487	189.62
2944.821	204.62
2948.152	189.62
2951.48	189.62
2954.805	165.62
2958.128	180.62
2961.447	163.62
2964.765	185.62
2968.079	171.62
2971.39	169.62
2974.699	169.62
2978.005	169.62
2981.308	172.62
2984.609	161.62
2987.907	173.62
2991.202	184.62
2994.494	161.62
2997.784	171.62
3001.07	161.62
3004.355	158.62
3007.636	162.62
3010.915	157.62
3014.191	156.62
3017.464	155.62
3020.734	159.62
3024.002	162.62
3027.267	155.62
3030.53	158.62
3033.789	150.62
3037.046	163.62
3040.301	151.62
3043.552	159.62
3046.801	162.62
3050.048	173.62
3053.291	185.62
3056.532	164.62
3059.771	159.62
3063.006	182.62
3066.239	170.62
3069.469	183.62
3072.697	178.62
3075.922	190.62
3079.144	181.62
3082.364	198.62
3085.581	188.62
3088.795	213.62
3092.007	212.62
3095.216	211.62
3098.423	209.62
3101.627	189.62
3104.828	223.62
3108.026	209.62
3111.222	229.62
3114.416	238.62
3117.607	225.62
3120.795	231.62
3123.98	240.62
3127.163	225.62
3130.344	246.62
3133.521	241.62
3136.696	259.62
3139.869	264.62
3143.039	254.62
3146.206	283.62
3149.371	279.62
3152.533	277.62
3155.693	262.62
3158.85	268.62
3162.005	277.62
3165.157	270.62
3168.306	270.62
3171.453	284.62
3174.597	267.62
3177.739	260.62
3180.878	276.62
3184.014	275.62
3187.149	280.62
3190.28	275.62
3193.409	283.62
3196.536	278.62
3199.659	283.62
3202.781	293.62
3205.9	263.62
3209.016	273.62
3212.13	276.62
3215.241	278.62
3218.35	276.62
3221.456	267.62
3224.56	254.62
3227.661	262.62
3230.76	266.62
3233.856	251.62
3236.95	263.62
3240.041	249.62
3243.13	272.62
3246.216	257.62
3249.3	267.62
3252.382	257.62
3255.46	251.62
3258.537	198.62
3261.611	245.62
3264.682	254.62
3267.751	241.62
3270.818	233.62
3273.882	247.62
3276.943	231.62
3280.002	259.62
3283.059	228.62
3286.113	240.62
3289.165	220.62
3292.214	224.62
3295.261	236.62
3298.306	206.62
3301.348	218.62
3304.387	202.62
3307.425	218.62
3310.459	200.62
3313.492	211.62
3316.521	203.62
3319.549	213.62
3322.574	209.62
3325.597	199.62
3328.617	189.62
3331.635	189.62
3334.65	192.62
3337.663	196.62
3340.674	185.62
3343.682	194.62
3346.688	192.62
3349.691	200.62
3352.692	195.62
3355.691	191.62
3358.687	189.62
3361.681	187.62
3364.673	178.62
3367.662	184.62
3370.649	191.62
3373.633	174.62
3376.615	181.62
3379.595	160.62
3382.572	173.62
3385.547	166.62
3388.52	161.62
3391.49	161.62
3394.458	162.62
3397.424	167.62
3400.387	150.62
3403.348	161.62
3406.307	154.62
3409.263	150.62
3412.217	163.62
3415.168	156.62
3418.118	160.62
3421.065	143.62
3424.009	156.62
3426.951	145.62
3429.891	147.62
3432.829	138.62
3435.764	142.62
3438.697	122.62
3441.628	142.62
3444.557	123.62
3447.483	123.62
3450.407	127.62
3453.328	116.62
3456.247	111.62
3459.164	111.62
3462.079	119.62
3464.991	107.62
3467.902	110.62
3470.809	103.62
3473.715	103.62
3476.618	86.62
3479.519	97.62
3482.418	80.62
3485.315	81.62
3488.209	83.62
3491.101	78.62
3493.99	63.62
3496.878	70.62
3499.763	75.62
3502.646	74.62
3505.527	59.62
3508.405	64.62
3511.281	47.62
3514.155	61.62
3517.027	55.62
3519.897	49.62
3522.764	50.62
3525.629	28.62
3528.492	46.62
3531.352	43.62
3534.211	41.62
3537.067	38.62
3539.921	35.62
3542.773	38.62
3545.622	24.62
3548.469	20.62
3551.315	17.62
3554.157	18.62
3556.998	15.62
3559.837	12.62
3562.673	20.62
3565.507	13.62
3568.339	4.62
3571.169	10.62
3573.996	11.62
3576.822	-7.38
3579.645	-0.38
3582.466	3.62
3585.285	5.62
3588.101	3.62
3590.916	2.62
3593.728	4.62
3596.538	1.62
3599.346	-0.38
3602.152	-6.38
3604.956	0.62
3607.757	-1.38
3610.556	-12.38
3613.354	6.62
3616.149	-0.38
3618.942	-4.38
3621.732	-2.38
3624.521	-15.38
3627.307	-18.38
3630.092	-19.38
3632.874	-1.38
3635.654	-14.38
3638.432	-23.38
3641.208	-19.38
3643.982	-14.38
3646.753	-8.38
3649.523	-42.38
3652.29	-15.38
3655.055	-14.38
3657.818	-19.38
3660.579	-23.38
3663.338	-30.38
3666.095	-20.38
3668.849	-48.38
3671.602	-19.38
3674.352	-34.38
3677.101	-15.38
3679.847	-17.38
3682.591	-34.38
3685.333	-33.38
3688.073	-21.38
3690.811	-31.38
3693.547	-42.38
3696.281	-35.38
3699.013	-26.38
3701.742	-27.38
3704.47	-38.38
3707.195	-22.38
3709.919	-24.38
3712.64	-24.38
3715.359	-36.38
3718.076	-19.38
3720.792	-29.38
3723.505	-24.38
3726.216	-16.38
3728.925	-27.38
3731.632	-35.38
3734.336	-26.38
3737.039	-26.38
3739.74	-25.38
3742.439	-50.38
3745.136	-21.38
3747.83	-24.38
3750.523	-25.38
3753.213	-79.38
3755.902	-33.38
3758.589	-46.38
3761.273	-30.38
3763.956	-24.38
3766.636	-38.38
3769.315	-22.38
3771.991	-33.38
3774.665	-31.38
3777.338	-29.38
3780.008	-33.38
3782.677	-31.38
3785.343	-45.38
3788.007	-45.38
3790.67	-23.38
3793.33	-36.38
3795.989	-28.38
3798.645	-31.38
3801.299	-42.38
3803.952	-35.38
3806.602	-32.38
3809.251	-22.38
3811.897	-32.38
3814.542	-30.38
3817.184	-30.38
3819.825	-31.38
3822.463	-46.38
3825.1	-28.38
3827.735	-30.38
3830.367	-39.38
3832.998	-15.38
3835.627	-31.38
3838.253	-20.38
3840.878	-34.38
3843.501	-13.38
3846.122	-29.38
3848.741	-23.38
3851.358	-23.38
3853.973	-34.38
3856.586	-20.38
3859.197	-40.38
3861.806	-30.38
3864.414	-50.38
3867.019	-34.38
3869.622	-25.38
3872.224	-27.38
3874.823	-26.38
3877.421	-14.38
3880.016	-17.38
3882.61	-2.38
3885.202	10.62
3887.792	-0.38
3890.38	-9.38
3892.966	-32.38
3895.55	-40.38
3898.132	-30.38
3900.713	-24.38
3903.291	-28.38
3905.868	-46.38
3908.442	-30.38
3911.015	-31.38
3913.586	-39.38
3916.155	-40.38
3918.722	-35.38
3921.287	-43.38
3923.85	-48.38
3926.411	-41.38
3928.971	-39.38
3931.528	-35.38
3934.084	-39.38
3936.638	-48.38
3939.19	-28.38
3941.74	-31.38
3944.288	-38.38
3946.834	-38.38
3949.378	-24.38
3951.921	-37.38
3954.462	-36.38
3957	-34.38
3959.537	-27.38
3962.072	-42.38
3964.606	-48.38
3967.137	-39.38
3969.667	-39.38
3972.194	-26.38
3974.72	-37.38
3977.244	-56.38
3979.766	-38.38
3982.286	-40.38
3984.805	-30.38
3987.321	-22.38
3989.836	-25.38
3992.349	-40.38
3994.86	-34.38
3997.369	-38.38
3999.877	-33.38
4002.382	-32.38
4004.886	-28.38
4007.388	-30.38
4009.888	-20.38
4012.386	-23.38
4014.883	-26.38
4017.377	-32.38
4019.87	-27.38
4022.361	-39.38
4024.85	-32.38
4027.338	-32.38
4029.823	-36.38
4032.307	-34.38
4034.789	-29.38
4037.269	-26.38
4039.747	-43.38
4042.224	-24.38
4044.699	-39.38
4047.172	-30.38
4049.643	-22.38
4052.112	-57.38
4054.58	-30.38
4057.046	-40.38
4059.51	-30.38
4061.972	-25.38
4064.432	-48.38
4066.891	-19.38
4069.348	-29.38
4071.803	-27.38
4074.256	-34.38
4076.708	-26.38
4079.158	-27.38
4081.606	-19.38
4084.052	-27.38
4086.497	-29.38
4088.939	-31.38
4091.38	-36.38
4093.819	-23.38
4096.257	-2.38
4098.693	-6.38
4101.127	-5.38
4103.559	0.62
4105.989	11.62
4108.418	22.62
4110.845	17.62
4113.27	18.62
4115.694	29.62
4118.115	25.62
4120.535	-25.38
4122.954	-22.38
4125.37	-21.38
4127.785	-29.38
4130.198	-22.38
4132.609	-29.38
4135.019	7.62
4137.427	-0.38
4139.833	6.62
4142.237	-0.38
