Data from 2018-3-6_conc=4_n=3_RamanShift_03.txt Node
Date: Tue Mar 06 13:57:19 GMT+02:00 2018
User: LAB3
Spectrometer: QEPB0276
Trigger mode: 0
Integration Time (sec): 3.000000E1
Scans to average: 1
Electric dark correction enabled: true
Nonlinearity correction enabled: false
Boxcar width: 0
XAxis mode: Raman Shifts
Number of Pixels in Spectrum: 1044
>>>>>Begin Spectral Data<<<<<
160.701	90.75
166.742	117.75
172.777	171.75
178.805	356.75
184.826	824.75
190.841	1674.75
196.849	2633.75
202.85	3344.75
208.845	3599.75
214.833	3579.75
220.815	3555.75
226.789	3539.75
232.758	3560.75
238.719	3553.75
244.674	3512.75
250.623	3501.75
256.565	3479.75
262.5	3409.75
268.429	3392.75
274.351	3365.75
280.267	3350.75
286.176	3345.75
292.079	3371.75
297.975	3368.75
303.865	3362.75
309.748	3366.75
315.625	3347.75
321.495	3391.75
327.359	3340.75
333.217	3375.75
339.068	3395.75
344.912	3370.75
350.751	3413.75
356.583	3409.75
362.408	3408.75
368.227	3451.75
374.04	3433.75
379.847	3458.75
385.647	3482.75
391.44	3482.75
397.228	3509.75
403.009	3512.75
408.784	3537.75
414.553	3543.75
420.315	3542.75
426.071	3540.75
431.821	3555.75
437.565	3556.75
443.302	3547.75
449.033	3509.75
454.758	3503.75
460.477	3474.75
466.189	3461.75
471.896	3413.75
477.596	3402.75
483.29	3366.75
488.978	3383.75
494.66	3332.75
500.335	3292.75
506.005	3136.75
511.668	3006.75
517.325	2882.75
522.977	2761.75
528.622	2696.75
534.261	2634.75
539.894	2596.75
545.521	2559.75
551.141	2498.75
556.756	2499.75
562.365	2465.75
567.968	2487.75
573.565	2451.75
579.155	2451.75
584.74	2419.75
590.319	2422.75
595.892	2414.75
601.459	2441.75
607.02	2413.75
612.575	2392.75
618.124	2369.75
623.667	2305.75
629.204	2303.75
634.735	2268.75
640.261	2245.75
645.781	2213.75
651.294	2204.75
656.802	2208.75
662.304	2227.75
667.8	2186.75
673.29	2191.75
678.775	2187.75
684.254	2187.75
689.726	2172.75
695.193	2154.75
700.655	2152.75
706.11	2128.75
711.56	2134.75
717.004	2114.75
722.442	2093.75
727.874	2103.75
733.301	2090.75
738.722	2067.75
744.137	2081.75
749.547	2061.75
754.951	2060.75
760.349	2060.75
765.741	2086.75
771.128	2106.75
776.509	2112.75
781.885	2143.75
787.254	2145.75
792.618	2156.75
797.977	2141.75
803.33	2151.75
808.677	2112.75
814.019	2119.75
819.355	2076.75
824.686	2075.75
830.011	2062.75
835.33	2066.75
840.644	2055.75
845.952	2014.75
851.255	2009.75
856.552	1992.75
861.844	1990.75
867.13	1971.75
872.41	1939.75
877.686	1928.75
882.955	1927.75
888.219	1889.75
893.478	1884.75
898.731	1857.75
903.979	1851.75
909.221	1811.75
914.458	1802.75
919.69	1801.75
924.916	1813.75
930.136	1804.75
935.351	1823.75
940.561	1814.75
945.766	1805.75
950.965	1814.75
956.158	1765.75
961.347	1747.75
966.529	1753.75
971.707	1726.75
976.879	1704.75
982.046	1687.75
987.208	1666.75
992.364	1689.75
997.515	1673.75
1002.66	1691.75
1007.801	1700.75
1012.936	1721.75
1018.066	1695.75
1023.19	1737.75
1028.309	1724.75
1033.423	1730.75
1038.532	1735.75
1043.636	1704.75
1048.734	1701.75
1053.827	1679.75
1058.915	1653.75
1063.998	1651.75
1069.075	1639.75
1074.147	1670.75
1079.214	1643.75
1084.276	1663.75
1089.333	1643.75
1094.385	1676.75
1099.431	1657.75
1104.472	1656.75
1109.509	1627.75
1114.54	1615.75
1119.565	1602.75
1124.586	1582.75
1129.602	1559.75
1134.613	1529.75
1139.618	1527.75
1144.619	1526.75
1149.614	1530.75
1154.604	1536.75
1159.589	1535.75
1164.57	1564.75
1169.545	1565.75
1174.515	1550.75
1179.48	1554.75
1184.44	1529.75
1189.395	1531.75
1194.345	1510.75
1199.29	1515.75
1204.23	1493.75
1209.165	1485.75
1214.095	1517.75
1219.021	1535.75
1223.941	1505.75
1228.856	1534.75
1233.766	1535.75
1238.672	1542.75
1243.572	1531.75
1248.467	1524.75
1253.358	1499.75
1258.244	1473.75
1263.124	1472.75
1268	1440.75
1272.871	1408.75
1277.737	1400.75
1282.599	1383.75
1287.455	1383.75
1292.306	1393.75
1297.153	1368.75
1301.995	1404.75
1306.832	1408.75
1311.664	1388.75
1316.491	1400.75
1321.314	1386.75
1326.132	1383.75
1330.945	1362.75
1335.753	1343.75
1340.556	1322.75
1345.354	1295.75
1350.148	1273.75
1354.937	1262.75
1359.722	1241.75
1364.501	1246.75
1369.276	1252.75
1374.046	1251.75
1378.811	1224.75
1383.572	1235.75
1388.327	1235.75
1393.079	1211.75
1397.825	1198.75
1402.567	1222.75
1407.304	1201.75
1412.036	1192.75
1416.764	1194.75
1421.487	1172.75
1426.205	1169.75
1430.919	1178.75
1435.628	1196.75
1440.333	1184.75
1445.032	1191.75
1449.727	1201.75
1454.418	1224.75
1459.104	1210.75
1463.785	1174.75
1468.462	1189.75
1473.134	1172.75
1477.802	1151.75
1482.465	1106.75
1487.123	1108.75
1491.777	1083.75
1496.426	1062.75
1501.071	1108.75
1505.711	1090.75
1510.347	1115.75
1514.978	1103.75
1519.604	1118.75
1524.226	1123.75
1528.844	1097.75
1533.457	1106.75
1538.065	1095.75
1542.669	1089.75
1547.269	1080.75
1551.864	1074.75
1556.454	1057.75
1561.041	1064.75
1565.622	1062.75
1570.199	1081.75
1574.772	1092.75
1579.34	1092.75
1583.904	1092.75
1588.464	1122.75
1593.019	1132.75
1597.569	1105.75
1602.115	1092.75
1606.657	1105.75
1611.195	1116.75
1615.728	1106.75
1620.256	1076.75
1624.78	1060.75
1629.3	1080.75
1633.816	1098.75
1638.327	1097.75
1642.834	1096.75
1647.336	1095.75
1651.834	1119.75
1656.328	1103.75
1660.817	1106.75
1665.302	1084.75
1669.783	1060.75
1674.259	1050.75
1678.732	1049.75
1683.199	1008.75
1687.663	968.75
1692.122	974.75
1696.577	951.75
1701.028	938.75
1705.474	895.75
1709.917	882.75
1714.355	881.75
1718.788	869.75
1723.218	844.75
1727.643	845.75
1732.064	841.75
1736.481	808.75
1740.893	824.75
1745.301	786.75
1749.705	748.75
1754.105	753.75
1758.501	742.75
1762.893	739.75
1767.28	714.75
1771.663	715.75
1776.042	697.75
1780.417	693.75
1784.787	713.75
1789.154	705.75
1793.516	711.75
1797.874	691.75
1802.228	696.75
1806.578	683.75
1810.924	694.75
1815.266	571.75
1819.603	688.75
1823.937	672.75
1828.266	666.75
1832.591	657.75
1836.913	667.75
1841.23	650.75
1845.543	656.75
1849.852	644.75
1854.156	640.75
1858.457	645.75
1862.754	633.75
1867.047	641.75
1871.335	653.75
1875.62	650.75
1879.9	654.75
1884.177	643.75
1888.449	644.75
1892.718	641.75
1896.982	637.75
1901.243	607.75
1905.499	618.75
1909.752	601.75
1914	593.75
1918.245	615.75
1922.485	630.75
1926.722	622.75
1930.954	601.75
1935.183	618.75
1939.408	621.75
1943.628	615.75
1947.845	620.75
1952.058	598.75
1956.267	602.75
1960.472	607.75
1964.673	590.75
1968.87	580.75
1973.063	574.75
1977.252	563.75
1981.438	553.75
1985.619	551.75
1989.797	535.75
1993.971	549.75
1998.14	534.75
2002.306	543.75
2006.469	547.75
2010.627	525.75
2014.781	533.75
2018.932	526.75
2023.078	532.75
2027.221	524.75
2031.36	514.75
2035.495	510.75
2039.627	511.75
2043.754	508.75
2047.878	492.75
2051.998	493.75
2056.114	503.75
2060.226	481.75
2064.334	490.75
2068.439	503.75
2072.54	501.75
2076.637	492.75
2080.73	488.75
2084.82	483.75
2088.906	485.75
2092.988	486.75
2097.066	483.75
2101.14	490.75
2105.211	494.75
2109.278	476.75
2113.342	471.75
2117.401	456.75
2121.457	450.75
2125.509	446.75
2129.558	462.75
2133.602	440.75
2137.643	441.75
2141.681	442.75
2145.714	440.75
2149.744	447.75
2153.77	437.75
2157.793	430.75
2161.812	403.75
2165.827	396.75
2169.838	423.75
2173.846	402.75
2177.851	394.75
2181.851	400.75
2185.848	383.75
2189.841	400.75
2193.831	379.75
2197.817	386.75
2201.799	380.75
2205.778	353.75
2209.753	372.75
2213.725	360.75
2217.693	370.75
2221.657	359.75
2225.618	370.75
2229.575	363.75
2233.529	362.75
2237.479	359.75
2241.425	346.75
2245.368	332.75
2249.307	350.75
2253.243	336.75
2257.175	337.75
2261.104	319.75
2265.029	329.75
2268.95	322.75
2272.868	311.75
2276.783	311.75
2280.694	312.75
2284.601	308.75
2288.505	307.75
2292.405	309.75
2296.302	290.75
2300.195	287.75
2304.085	269.75
2307.971	283.75
2311.854	259.75
2315.734	275.75
2319.609	283.75
2323.482	249.75
2327.351	266.75
2331.216	261.75
2335.078	265.75
2338.937	258.75
2342.792	249.75
2346.643	253.75
2350.492	263.75
2354.336	254.75
2358.178	259.75
2362.015	258.75
2365.85	251.75
2369.681	261.75
2373.508	257.75
2377.333	257.75
2381.153	252.75
2384.971	247.75
2388.785	257.75
2392.595	243.75
2396.402	245.75
2400.206	222.75
2404.007	231.75
2407.804	253.75
2411.597	247.75
2415.388	232.75
2419.174	233.75
2422.958	232.75
2426.738	238.75
2430.515	243.75
2434.289	227.75
2438.059	228.75
2441.825	229.75
2445.589	231.75
2449.349	211.75
2453.106	232.75
2456.859	221.75
2460.61	221.75
2464.356	208.75
2468.1	213.75
2471.84	198.75
2475.577	207.75
2479.311	197.75
2483.041	207.75
2486.768	214.75
2490.492	220.75
2494.213	202.75
2497.93	197.75
2501.644	185.75
2505.355	198.75
2509.062	202.75
2512.766	196.75
2516.467	186.75
2520.165	201.75
2523.859	187.75
2527.551	210.75
2531.239	179.75
2534.923	192.75
2538.605	182.75
2542.283	183.75
2545.958	187.75
2549.63	195.75
2553.299	195.75
2556.964	174.75
2560.626	177.75
2564.285	185.75
2567.941	170.75
2571.594	169.75
2575.243	177.75
2578.89	166.75
2582.533	169.75
2586.173	168.75
2589.809	168.75
2593.443	149.75
2597.073	171.75
2600.701	165.75
2604.325	164.75
2607.946	154.75
2611.564	165.75
2615.178	164.75
2618.79	162.75
2622.398	154.75
2626.004	168.75
2629.606	158.75
2633.205	144.75
2636.801	156.75
2640.394	154.75
2643.983	140.75
2647.57	145.75
2651.153	133.75
2654.734	149.75
2658.311	119.75
2661.885	133.75
2665.456	135.75
2669.025	141.75
2672.589	128.75
2676.151	146.75
2679.71	147.75
2683.266	138.75
2686.819	127.75
2690.368	137.75
2693.915	134.75
2697.458	124.75
2700.999	129.75
2704.536	124.75
2708.071	120.75
2711.602	120.75
2715.13	119.75
2718.656	103.75
2722.178	115.75
2725.697	99.75
2729.214	109.75
2732.727	115.75
2736.237	96.75
2739.744	105.75
2743.249	103.75
2746.75	114.75
2750.248	107.75
2753.743	111.75
2757.236	107.75
2760.725	116.75
2764.211	80.75
2767.695	115.75
2771.175	102.75
2774.652	113.75
2778.127	93.75
2781.598	104.75
2785.067	104.75
2788.532	98.75
2791.995	110.75
2795.455	92.75
2798.911	113.75
2802.365	99.75
2805.816	109.75
2809.264	112.75
2812.709	106.75
2816.151	105.75
2819.59	92.75
2823.026	97.75
2826.46	100.75
2829.89	111.75
2833.318	78.75
2836.742	99.75
2840.164	108.75
2843.583	101.75
2846.999	108.75
2850.412	103.75
2853.822	101.75
2857.229	117.75
2860.634	109.75
2864.035	95.75
2867.434	119.75
2870.83	109.75
2874.223	111.75
2877.613	109.75
2881	108.75
2884.385	108.75
2887.766	109.75
2891.145	118.75
2894.521	105.75
2897.894	99.75
2901.264	122.75
2904.631	114.75
2907.996	119.75
2911.358	126.75
2914.717	114.75
2918.073	117.75
2921.426	115.75
2924.777	106.75
2928.124	122.75
2931.469	136.75
2934.811	124.75
2938.15	136.75
2941.487	126.75
2944.821	142.75
2948.152	128.75
2951.48	130.75
2954.805	124.75
2958.128	151.75
2961.447	130.75
2964.765	152.75
2968.079	135.75
2971.39	136.75
2974.699	137.75
2978.005	134.75
2981.308	134.75
2984.609	133.75
2987.907	149.75
2991.202	154.75
2994.494	130.75
2997.784	151.75
3001.07	146.75
3004.355	140.75
3007.636	152.75
3010.915	161.75
3014.191	147.75
3017.464	149.75
3020.734	152.75
3024.002	167.75
3027.267	153.75
3030.53	174.75
3033.789	163.75
3037.046	166.75
3040.301	155.75
3043.552	166.75
3046.801	174.75
3050.048	183.75
3053.291	202.75
3056.532	190.75
3059.771	178.75
3063.006	202.75
3066.239	204.75
3069.469	209.75
3072.697	194.75
3075.922	205.75
3079.144	211.75
3082.364	236.75
3085.581	220.75
3088.795	260.75
3092.007	248.75
3095.216	261.75
3098.423	243.75
3101.627	240.75
3104.828	274.75
3108.026	257.75
3111.222	279.75
3114.416	286.75
3117.607	278.75
3120.795	285.75
3123.98	291.75
3127.163	289.75
3130.344	301.75
3133.521	297.75
3136.696	320.75
3139.869	328.75
3143.039	314.75
3146.206	348.75
3149.371	340.75
3152.533	344.75
3155.693	336.75
3158.85	348.75
3162.005	355.75
3165.157	351.75
3168.306	346.75
3171.453	351.75
3174.597	340.75
3177.739	340.75
3180.878	355.75
3184.014	362.75
3187.149	360.75
3190.28	355.75
3193.409	361.75
3196.536	367.75
3199.659	381.75
3202.781	382.75
3205.9	351.75
3209.016	362.75
3212.13	360.75
3215.241	351.75
3218.35	364.75
3221.456	346.75
3224.56	340.75
3227.661	335.75
3230.76	334.75
3233.856	331.75
3236.95	339.75
3240.041	337.75
3243.13	341.75
3246.216	339.75
3249.3	336.75
3252.382	331.75
3255.46	332.75
3258.537	280.75
3261.611	315.75
3264.682	319.75
3267.751	315.75
3270.818	309.75
3273.882	322.75
3276.943	317.75
3280.002	332.75
3283.059	314.75
3286.113	302.75
3289.165	305.75
3292.214	292.75
3295.261	305.75
3298.306	280.75
3301.348	304.75
3304.387	283.75
3307.425	290.75
3310.459	281.75
3313.492	286.75
3316.521	293.75
3319.549	287.75
3322.574	284.75
3325.597	272.75
3328.617	268.75
3331.635	265.75
3334.65	251.75
3337.663	263.75
3340.674	259.75
3343.682	269.75
3346.688	269.75
3349.691	253.75
3352.692	258.75
3355.691	259.75
3358.687	254.75
3361.681	259.75
3364.673	252.75
3367.662	255.75
3370.649	256.75
3373.633	236.75
3376.615	247.75
3379.595	227.75
3382.572	232.75
3385.547	224.75
3388.52	217.75
3391.49	221.75
3394.458	224.75
3397.424	228.75
3400.387	209.75
3403.348	217.75
3406.307	211.75
3409.263	206.75
3412.217	219.75
3415.168	205.75
3418.118	209.75
3421.065	203.75
3424.009	208.75
3426.951	198.75
3429.891	194.75
3432.829	185.75
3435.764	189.75
3438.697	178.75
3441.628	185.75
3444.557	162.75
3447.483	157.75
3450.407	166.75
3453.328	160.75
3456.247	157.75
3459.164	150.75
3462.079	155.75
3464.991	143.75
3467.902	139.75
3470.809	135.75
3473.715	142.75
3476.618	123.75
3479.519	131.75
3482.418	106.75
3485.315	105.75
3488.209	108.75
3491.101	109.75
3493.99	103.75
3496.878	90.75
3499.763	95.75
3502.646	95.75
3505.527	88.75
3508.405	88.75
3511.281	72.75
3514.155	81.75
3517.027	77.75
3519.897	65.75
3522.764	75.75
3525.629	49.75
3528.492	69.75
3531.352	67.75
3534.211	57.75
3537.067	50.75
3539.921	49.75
3542.773	58.75
3545.622	35.75
3548.469	33.75
3551.315	32.75
3554.157	35.75
3556.998	21.75
3559.837	28.75
3562.673	35.75
3565.507	19.75
3568.339	18.75
3571.169	23.75
3573.996	23.75
3576.822	8.75
3579.645	16.75
3582.466	13.75
3585.285	19.75
3588.101	10.75
3590.916	15.75
3593.728	16.75
3596.538	7.75
3599.346	18.75
3602.152	-0.25
3604.956	3.75
3607.757	8.75
3610.556	-11.25
3613.354	11.75
3616.149	3.75
3618.942	5.75
3621.732	0.75
3624.521	-4.25
3627.307	-16.25
3630.092	-15.25
3632.874	6.75
3635.654	-4.25
3638.432	-13.25
3641.208	-11.25
3643.982	-10.25
3646.753	-4.25
3649.523	-38.25
3652.29	-12.25
3655.055	-9.25
3657.818	-12.25
3660.579	-17.25
3663.338	-23.25
3666.095	-23.25
3668.849	-43.25
3671.602	-11.25
3674.352	-35.25
3677.101	-13.25
3679.847	-13.25
3682.591	-26.25
3685.333	-32.25
3688.073	-22.25
3690.811	-33.25
3693.547	-34.25
3696.281	-36.25
3699.013	-24.25
3701.742	-28.25
3704.47	-39.25
3707.195	-24.25
3709.919	-26.25
3712.64	-32.25
3715.359	-35.25
3718.076	-17.25
3720.792	-29.25
3723.505	-27.25
3726.216	-15.25
3728.925	-32.25
3731.632	-38.25
3734.336	-31.25
3737.039	-30.25
3739.74	-25.25
3742.439	-59.25
3745.136	-24.25
3747.83	-23.25
3750.523	-27.25
3753.213	-94.25
3755.902	-30.25
3758.589	-46.25
3761.273	-37.25
3763.956	-23.25
3766.636	-38.25
3769.315	-20.25
3771.991	-33.25
3774.665	-35.25
3777.338	-27.25
3780.008	-38.25
3782.677	-27.25
3785.343	-45.25
3788.007	-47.25
3790.67	-27.25
3793.33	-45.25
3795.989	-34.25
3798.645	-27.25
3801.299	-43.25
3803.952	-35.25
3806.602	-38.25
3809.251	-27.25
3811.897	-35.25
3814.542	-30.25
3817.184	-36.25
3819.825	-33.25
3822.463	-46.25
3825.1	-39.25
3827.735	-35.25
3830.367	-41.25
3832.998	-21.25
3835.627	-32.25
3838.253	-30.25
3840.878	-35.25
3843.501	-20.25
3846.122	-31.25
3848.741	-31.25
3851.358	-29.25
3853.973	-45.25
3856.586	-25.25
3859.197	-40.25
3861.806	-33.25
3864.414	-46.25
3867.019	-35.25
3869.622	-24.25
3872.224	-26.25
3874.823	-12.25
3877.421	6.75
3880.016	16.75
3882.61	51.75
3885.202	63.75
3887.792	42.75
3890.38	10.75
3892.966	-16.25
3895.55	-38.25
3898.132	-25.25
3900.713	-30.25
3903.291	-29.25
3905.868	-37.25
3908.442	-36.25
3911.015	-37.25
3913.586	-37.25
3916.155	-36.25
3918.722	-39.25
3921.287	-39.25
3923.85	-45.25
3926.411	-38.25
3928.971	-38.25
3931.528	-28.25
3934.084	-36.25
3936.638	-45.25
3939.19	-31.25
3941.74	-32.25
3944.288	-35.25
3946.834	-35.25
3949.378	-24.25
3951.921	-40.25
3954.462	-35.25
3957	-34.25
3959.537	-20.25
3962.072	-32.25
3964.606	-48.25
3967.137	-33.25
3969.667	-39.25
3972.194	-29.25
3974.72	-34.25
3977.244	-56.25
3979.766	-39.25
3982.286	-41.25
3984.805	-33.25
3987.321	-24.25
3989.836	-24.25
3992.349	-40.25
3994.86	-27.25
3997.369	-39.25
3999.877	-34.25
4002.382	-35.25
4004.886	-27.25
4007.388	-28.25
4009.888	-25.25
4012.386	-26.25
4014.883	-30.25
4017.377	-32.25
4019.87	-25.25
4022.361	-40.25
4024.85	-31.25
4027.338	-29.25
4029.823	-35.25
4032.307	-33.25
4034.789	-31.25
4037.269	-30.25
4039.747	-48.25
4042.224	-26.25
4044.699	-37.25
4047.172	-36.25
4049.643	-28.25
4052.112	-56.25
4054.58	-33.25
4057.046	-42.25
4059.51	-32.25
4061.972	-37.25
4064.432	-50.25
4066.891	-25.25
4069.348	-33.25
4071.803	-28.25
4074.256	-35.25
4076.708	-28.25
4079.158	-27.25
4081.606	-24.25
4084.052	-32.25
4086.497	-28.25
4088.939	-32.25
4091.38	-31.25
4093.819	-25.25
4096.257	-2.25
4098.693	-7.25
4101.127	-7.25
4103.559	2.75
4105.989	77.75
4108.418	83.75
4110.845	78.75
4113.27	87.75
4115.694	85.75
4118.115	77.75
4120.535	-23.25
4122.954	-20.25
4125.37	-21.25
4127.785	-26.25
4130.198	-24.25
4132.609	-26.25
4135.019	9.75
4137.427	0.75
4139.833	5.75
4142.237	-2.25
