Data from 2018-3-6_conc=0_n=4_RamanShift_05.txt Node
Date: Tue Mar 06 12:19:49 GMT+02:00 2018
User: LAB3
Spectrometer: QEPB0276
Trigger mode: 0
Integration Time (sec): 3.000000E1
Scans to average: 1
Electric dark correction enabled: true
Nonlinearity correction enabled: false
Boxcar width: 0
XAxis mode: Raman Shifts
Number of Pixels in Spectrum: 1044
>>>>>Begin Spectral Data<<<<<
160.701	83.62
166.742	119.62
172.777	199.62
178.805	425.62
184.826	1043.62
190.841	2143.62
196.849	3469.62
202.85	4471.62
208.845	4867.62
214.833	4907.62
220.815	4907.62
226.789	4940.62
232.758	5025.62
238.719	5065.62
244.674	5059.62
250.623	5095.62
256.565	5064.62
262.5	5040.62
268.429	5049.62
274.351	5039.62
280.267	5056.62
286.176	5065.62
292.079	5105.62
297.975	5166.62
303.865	5187.62
309.748	5171.62
315.625	5199.62
321.495	5196.62
327.359	5198.62
333.217	5218.62
339.068	5257.62
344.912	5295.62
350.751	5291.62
356.583	5290.62
362.408	5321.62
368.227	5329.62
374.04	5371.62
379.847	5391.62
385.647	5449.62
391.44	5431.62
397.228	5459.62
403.009	5480.62
408.784	5512.62
414.553	5555.62
420.315	5545.62
426.071	5539.62
431.821	5586.62
437.565	5569.62
443.302	5575.62
449.033	5550.62
454.758	5535.62
460.477	5484.62
466.189	5438.62
471.896	5393.62
477.596	5370.62
483.29	5361.62
488.978	5341.62
494.66	5290.62
500.335	5192.62
506.005	5028.62
511.668	4831.62
517.325	4665.62
522.977	4516.62
528.622	4400.62
534.261	4335.62
539.894	4303.62
545.521	4249.62
551.141	4199.62
556.756	4161.62
562.365	4137.62
567.968	4107.62
573.565	4082.62
579.155	4100.62
584.74	4041.62
590.319	4041.62
595.892	4040.62
601.459	4033.62
607.02	4004.62
612.575	4011.62
618.124	3954.62
623.667	3900.62
629.204	3877.62
634.735	3846.62
640.261	3792.62
645.781	3780.62
651.294	3773.62
656.802	3758.62
662.304	3773.62
667.8	3756.62
673.29	3731.62
678.775	3742.62
684.254	3730.62
689.726	3691.62
695.193	3711.62
700.655	3684.62
706.11	3677.62
711.56	3628.62
717.004	3619.62
722.442	3592.62
727.874	3610.62
733.301	3578.62
738.722	3575.62
744.137	3556.62
749.547	3578.62
754.951	3567.62
760.349	3575.62
765.741	3589.62
771.128	3622.62
776.509	3632.62
781.885	3706.62
787.254	3694.62
792.618	3710.62
797.977	3653.62
803.33	3669.62
808.677	3659.62
814.019	3617.62
819.355	3591.62
824.686	3572.62
830.011	3556.62
835.33	3541.62
840.644	3538.62
845.952	3504.62
851.255	3525.62
856.552	3484.62
861.844	3468.62
867.13	3447.62
872.41	3444.62
877.686	3508.62
882.955	3523.62
888.219	3500.62
893.478	3403.62
898.731	3321.62
903.979	3268.62
909.221	3224.62
914.458	3206.62
919.69	3194.62
924.916	3195.62
930.136	3218.62
935.351	3211.62
940.561	3200.62
945.766	3195.62
950.965	3207.62
956.158	3142.62
961.347	3123.62
966.529	3108.62
971.707	3071.62
976.879	3029.62
982.046	3005.62
987.208	3018.62
992.364	3009.62
997.515	3009.62
1002.66	3038.62
1007.801	3036.62
1012.936	3090.62
1018.066	3096.62
1023.19	3121.62
1028.309	3137.62
1033.423	3130.62
1038.532	3149.62
1043.636	3140.62
1048.734	3130.62
1053.827	3093.62
1058.915	3055.62
1063.998	3037.62
1069.075	3000.62
1074.147	3023.62
1079.214	3009.62
1084.276	3047.62
1089.333	3043.62
1094.385	3084.62
1099.431	3050.62
1104.472	3044.62
1109.509	3012.62
1114.54	2965.62
1119.565	2904.62
1124.586	2885.62
1129.602	2832.62
1134.613	2792.62
1139.618	2820.62
1144.619	2800.62
1149.614	2800.62
1154.604	2796.62
1159.589	2831.62
1164.57	2844.62
1169.545	2848.62
1174.515	2835.62
1179.48	2825.62
1184.44	2823.62
1189.395	2769.62
1194.345	2768.62
1199.29	2772.62
1204.23	2748.62
1209.165	2732.62
1214.095	2768.62
1219.021	2776.62
1223.941	2786.62
1228.856	2780.62
1233.766	2797.62
1238.672	2821.62
1243.572	2799.62
1248.467	2786.62
1253.358	2751.62
1258.244	2711.62
1263.124	2683.62
1268	2673.62
1272.871	2599.62
1277.737	2610.62
1282.599	2579.62
1287.455	2595.62
1292.306	2594.62
1297.153	2586.62
1301.995	2603.62
1306.832	2617.62
1311.664	2630.62
1316.491	2614.62
1321.314	2612.62
1326.132	2586.62
1330.945	2565.62
1335.753	2499.62
1340.556	2446.62
1345.354	2411.62
1350.148	2381.62
1354.937	2375.62
1359.722	2310.62
1364.501	2301.62
1369.276	2284.62
1374.046	2324.62
1378.811	2273.62
1383.572	2292.62
1388.327	2307.62
1393.079	2278.62
1397.825	2272.62
1402.567	2260.62
1407.304	2234.62
1412.036	2249.62
1416.764	2235.62
1421.487	2237.62
1426.205	2245.62
1430.919	2254.62
1435.628	2260.62
1440.333	2283.62
1445.032	2323.62
1449.727	2336.62
1454.418	2342.62
1459.104	2361.62
1463.785	2327.62
1468.462	2290.62
1473.134	2207.62
1477.802	2178.62
1482.465	2117.62
1487.123	2124.62
1491.777	2093.62
1496.426	2079.62
1501.071	2094.62
1505.711	2078.62
1510.347	2090.62
1514.978	2106.62
1519.604	2101.62
1524.226	2117.62
1528.844	2085.62
1533.457	2068.62
1538.065	2049.62
1542.669	2051.62
1547.269	2018.62
1551.864	2005.62
1556.454	2005.62
1561.041	2015.62
1565.622	2008.62
1570.199	2008.62
1574.772	2017.62
1579.34	2064.62
1583.904	2045.62
1588.464	2057.62
1593.019	2078.62
1597.569	2037.62
1602.115	2045.62
1606.657	2014.62
1611.195	2030.62
1615.728	2005.62
1620.256	1988.62
1624.78	1951.62
1629.3	1973.62
1633.816	1980.62
1638.327	1987.62
1642.834	2003.62
1647.336	1991.62
1651.834	2023.62
1656.328	1994.62
1660.817	2014.62
1665.302	1990.62
1669.783	1967.62
1674.259	1937.62
1678.732	1900.62
1683.199	1869.62
1687.663	1807.62
1692.122	1787.62
1696.577	1762.62
1701.028	1712.62
1705.474	1689.62
1709.917	1660.62
1714.355	1652.62
1718.788	1650.62
1723.218	1623.62
1727.643	1621.62
1732.064	1617.62
1736.481	1581.62
1740.893	1578.62
1745.301	1527.62
1749.705	1480.62
1754.105	1484.62
1758.501	1454.62
1762.893	1456.62
1767.28	1387.62
1771.663	1396.62
1776.042	1389.62
1780.417	1383.62
1784.787	1369.62
1789.154	1385.62
1793.516	1376.62
1797.874	1363.62
1802.228	1362.62
1806.578	1339.62
1810.924	1353.62
1815.266	1252.62
1819.603	1330.62
1823.937	1306.62
1828.266	1311.62
1832.591	1285.62
1836.913	1273.62
1841.23	1273.62
1845.543	1268.62
1849.852	1292.62
1854.156	1274.62
1858.457	1267.62
1862.754	1269.62
1867.047	1268.62
1871.335	1299.62
1875.62	1284.62
1879.9	1287.62
1884.177	1275.62
1888.449	1274.62
1892.718	1259.62
1896.982	1258.62
1901.243	1213.62
1905.499	1239.62
1909.752	1217.62
1914	1191.62
1918.245	1226.62
1922.485	1231.62
1926.722	1215.62
1930.954	1220.62
1935.183	1216.62
1939.408	1234.62
1943.628	1224.62
1947.845	1217.62
1952.058	1200.62
1956.267	1176.62
1960.472	1164.62
1964.673	1143.62
1968.87	1124.62
1973.063	1104.62
1977.252	1090.62
1981.438	1080.62
1985.619	1076.62
1989.797	1050.62
1993.971	1055.62
1998.14	1056.62
2002.306	1051.62
2006.469	1044.62
2010.627	1040.62
2014.781	1042.62
2018.932	1027.62
2023.078	1048.62
2027.221	1035.62
2031.36	1019.62
2035.495	999.62
2039.627	991.62
2043.754	999.62
2047.878	969.62
2051.998	960.62
2056.114	957.62
2060.226	967.62
2064.334	988.62
2068.439	994.62
2072.54	997.62
2076.637	976.62
2080.73	971.62
2084.82	983.62
2088.906	957.62
2092.988	954.62
2097.066	964.62
2101.14	960.62
2105.211	956.62
2109.278	937.62
2113.342	929.62
2117.401	906.62
2121.457	891.62
2125.509	889.62
2129.558	894.62
2133.602	876.62
2137.643	888.62
2141.681	858.62
2145.714	873.62
2149.744	866.62
2153.77	863.62
2157.793	836.62
2161.812	821.62
2165.827	810.62
2169.838	821.62
2173.846	808.62
2177.851	795.62
2181.851	791.62
2185.848	794.62
2189.841	770.62
2193.831	756.62
2197.817	761.62
2201.799	755.62
2205.778	755.62
2209.753	751.62
2213.725	730.62
2217.693	747.62
2221.657	733.62
2225.618	753.62
2229.575	736.62
2233.529	735.62
2237.479	724.62
2241.425	709.62
2245.368	696.62
2249.307	708.62
2253.243	693.62
2257.175	683.62
2261.104	662.62
2265.029	667.62
2268.95	657.62
2272.868	655.62
2276.783	631.62
2280.694	628.62
2284.601	638.62
2288.505	624.62
2292.405	616.62
2296.302	604.62
2300.195	602.62
2304.085	583.62
2307.971	592.62
2311.854	564.62
2315.734	571.62
2319.609	577.62
2323.482	539.62
2327.351	550.62
2331.216	559.62
2335.078	563.62
2338.937	555.62
2342.792	550.62
2346.643	545.62
2350.492	554.62
2354.336	543.62
2358.178	554.62
2362.015	549.62
2365.85	544.62
2369.681	547.62
2373.508	554.62
2377.333	561.62
2381.153	557.62
2384.971	556.62
2388.785	556.62
2392.595	535.62
2396.402	538.62
2400.206	507.62
2404.007	533.62
2407.804	541.62
2411.597	529.62
2415.388	528.62
2419.174	520.62
2422.958	531.62
2426.738	522.62
2430.515	515.62
2434.289	492.62
2438.059	501.62
2441.825	500.62
2445.589	515.62
2449.349	481.62
2453.106	498.62
2456.859	481.62
2460.61	485.62
2464.356	470.62
2468.1	464.62
2471.84	455.62
2475.577	462.62
2479.311	474.62
2483.041	459.62
2486.768	469.62
2490.492	471.62
2494.213	451.62
2497.93	447.62
2501.644	436.62
2505.355	453.62
2509.062	445.62
2512.766	449.62
2516.467	432.62
2520.165	451.62
2523.859	418.62
2527.551	458.62
2531.239	422.62
2534.923	428.62
2538.605	415.62
2542.283	419.62
2545.958	427.62
2549.63	434.62
2553.299	419.62
2556.964	404.62
2560.626	407.62
2564.285	410.62
2567.941	406.62
2571.594	389.62
2575.243	404.62
2578.89	389.62
2582.533	399.62
2586.173	392.62
2589.809	392.62
2593.443	352.62
2597.073	378.62
2600.701	377.62
2604.325	366.62
2607.946	353.62
2611.564	373.62
2615.178	376.62
2618.79	363.62
2622.398	357.62
2626.004	371.62
2629.606	351.62
2633.205	334.62
2636.801	350.62
2640.394	349.62
2643.983	337.62
2647.57	335.62
2651.153	333.62
2654.734	343.62
2658.311	308.62
2661.885	319.62
2665.456	316.62
2669.025	319.62
2672.589	311.62
2676.151	331.62
2679.71	331.62
2683.266	309.62
2686.819	305.62
2690.368	301.62
2693.915	307.62
2697.458	300.62
2700.999	301.62
2704.536	297.62
2708.071	295.62
2711.602	279.62
2715.13	285.62
2718.656	251.62
2722.178	271.62
2725.697	260.62
2729.214	270.62
2732.727	276.62
2736.237	262.62
2739.744	267.62
2743.249	259.62
2746.75	266.62
2750.248	248.62
2753.743	262.62
2757.236	254.62
2760.725	266.62
2764.211	232.62
2767.695	254.62
2771.175	245.62
2774.652	250.62
2778.127	244.62
2781.598	247.62
2785.067	245.62
2788.532	240.62
2791.995	238.62
2795.455	233.62
2798.911	251.62
2802.365	238.62
2805.816	248.62
2809.264	260.62
2812.709	239.62
2816.151	242.62
2819.59	233.62
2823.026	238.62
2826.46	236.62
2829.89	242.62
2833.318	219.62
2836.742	243.62
2840.164	243.62
2843.583	246.62
2846.999	249.62
2850.412	246.62
2853.822	243.62
2857.229	265.62
2860.634	261.62
2864.035	238.62
2867.434	265.62
2870.83	273.62
2874.223	269.62
2877.613	272.62
2881	271.62
2884.385	278.62
2887.766	280.62
2891.145	269.62
2894.521	275.62
2897.894	275.62
2901.264	275.62
2904.631	283.62
2907.996	276.62
2911.358	282.62
2914.717	286.62
2918.073	270.62
2921.426	268.62
2924.777	259.62
2928.124	282.62
2931.469	306.62
2934.811	300.62
2938.15	328.62
2941.487	306.62
2944.821	323.62
2948.152	299.62
2951.48	301.62
2954.805	282.62
2958.128	304.62
2961.447	279.62
2964.765	288.62
2968.079	272.62
2971.39	278.62
2974.699	278.62
2978.005	273.62
2981.308	279.62
2984.609	274.62
2987.907	294.62
2991.202	287.62
2994.494	272.62
2997.784	283.62
3001.07	276.62
3004.355	265.62
3007.636	273.62
3010.915	269.62
3014.191	266.62
3017.464	268.62
3020.734	264.62
3024.002	260.62
3027.267	266.62
3030.53	265.62
3033.789	259.62
3037.046	262.62
3040.301	256.62
3043.552	272.62
3046.801	271.62
3050.048	284.62
3053.291	302.62
3056.532	287.62
3059.771	278.62
3063.006	300.62
3066.239	306.62
3069.469	308.62
3072.697	307.62
3075.922	313.62
3079.144	313.62
3082.364	351.62
3085.581	334.62
3088.795	353.62
3092.007	357.62
3095.216	363.62
3098.423	347.62
3101.627	335.62
3104.828	370.62
3108.026	357.62
3111.222	374.62
3114.416	397.62
3117.607	392.62
3120.795	404.62
3123.98	406.62
3127.163	402.62
3130.344	419.62
3133.521	419.62
3136.696	446.62
3139.869	453.62
3143.039	427.62
3146.206	460.62
3149.371	459.62
3152.533	454.62
3155.693	452.62
3158.85	468.62
3162.005	467.62
3165.157	460.62
3168.306	460.62
3171.453	476.62
3174.597	460.62
3177.739	454.62
3180.878	472.62
3184.014	472.62
3187.149	462.62
3190.28	469.62
3193.409	466.62
3196.536	478.62
3199.659	486.62
3202.781	491.62
3205.9	463.62
3209.016	478.62
3212.13	462.62
3215.241	472.62
3218.35	471.62
3221.456	464.62
3224.56	449.62
3227.661	454.62
3230.76	455.62
3233.856	436.62
3236.95	451.62
3240.041	430.62
3243.13	447.62
3246.216	440.62
3249.3	443.62
3252.382	441.62
3255.46	430.62
3258.537	380.62
3261.611	415.62
3264.682	434.62
3267.751	419.62
3270.818	415.62
3273.882	426.62
3276.943	415.62
3280.002	433.62
3283.059	401.62
3286.113	414.62
3289.165	398.62
3292.214	381.62
3295.261	397.62
3298.306	370.62
3301.348	380.62
3304.387	366.62
3307.425	377.62
3310.459	366.62
3313.492	357.62
3316.521	353.62
3319.549	369.62
3322.574	356.62
3325.597	349.62
3328.617	335.62
3331.635	342.62
3334.65	327.62
3337.663	346.62
3340.674	339.62
3343.682	342.62
3346.688	338.62
3349.691	317.62
3352.692	335.62
3355.691	343.62
3358.687	328.62
3361.681	333.62
3364.673	325.62
3367.662	325.62
3370.649	330.62
3373.633	304.62
3376.615	316.62
3379.595	292.62
3382.572	294.62
3385.547	290.62
3388.52	288.62
3391.49	285.62
3394.458	280.62
3397.424	290.62
3400.387	278.62
3403.348	278.62
3406.307	275.62
3409.263	272.62
3412.217	282.62
3415.168	275.62
3418.118	275.62
3421.065	260.62
3424.009	275.62
3426.951	265.62
3429.891	253.62
3432.829	250.62
3435.764	251.62
3438.697	241.62
3441.628	249.62
3444.557	222.62
3447.483	215.62
3450.407	233.62
3453.328	209.62
3456.247	205.62
3459.164	204.62
3462.079	216.62
3464.991	194.62
3467.902	185.62
3470.809	184.62
3473.715	186.62
3476.618	167.62
3479.519	180.62
3482.418	151.62
3485.315	151.62
3488.209	153.62
3491.101	150.62
3493.99	131.62
3496.878	135.62
3499.763	138.62
3502.646	138.62
3505.527	124.62
3508.405	125.62
3511.281	99.62
3514.155	120.62
3517.027	110.62
3519.897	101.62
3522.764	106.62
3525.629	89.62
3528.492	96.62
3531.352	93.62
3534.211	89.62
3537.067	82.62
3539.921	83.62
3542.773	79.62
3545.622	60.62
3548.469	60.62
3551.315	55.62
3554.157	66.62
3556.998	48.62
3559.837	56.62
3562.673	56.62
3565.507	43.62
3568.339	37.62
3571.169	38.62
3573.996	40.62
3576.822	14.62
3579.645	24.62
3582.466	26.62
3585.285	36.62
3588.101	33.62
3590.916	21.62
3593.728	32.62
3596.538	24.62
3599.346	23.62
3602.152	7.62
3604.956	16.62
3607.757	15.62
3610.556	-1.38
3613.354	13.62
3616.149	9.62
3618.942	11.62
3621.732	14.62
3624.521	1.62
3627.307	-7.38
3630.092	-5.38
3632.874	15.62
3635.654	0.62
3638.432	-6.38
3641.208	-7.38
3643.982	-5.38
3646.753	2.62
3649.523	-28.38
3652.29	-11.38
3655.055	-3.38
3657.818	-9.38
3660.579	-9.38
3663.338	-24.38
3666.095	-15.38
3668.849	-38.38
3671.602	-7.38
3674.352	-21.38
3677.101	-8.38
3679.847	-5.38
3682.591	-22.38
3685.333	-27.38
3688.073	-18.38
3690.811	-27.38
3693.547	-29.38
3696.281	-33.38
3699.013	-16.38
3701.742	-25.38
3704.47	-27.38
3707.195	-21.38
3709.919	-19.38
3712.64	-21.38
3715.359	-32.38
3718.076	-14.38
3720.792	-24.38
3723.505	-17.38
3726.216	-11.38
3728.925	-30.38
3731.632	-32.38
3734.336	-22.38
3737.039	-22.38
3739.74	-25.38
3742.439	-50.38
3745.136	-20.38
3747.83	-17.38
3750.523	-26.38
3753.213	-80.38
3755.902	-26.38
3758.589	-38.38
3761.273	-32.38
3763.956	-19.38
3766.636	-41.38
3769.315	-21.38
3771.991	-32.38
3774.665	-36.38
3777.338	-28.38
3780.008	-37.38
3782.677	-29.38
3785.343	-44.38
3788.007	-44.38
3790.67	-23.38
3793.33	-39.38
3795.989	-32.38
3798.645	-27.38
3801.299	-48.38
3803.952	-36.38
3806.602	-32.38
3809.251	-25.38
3811.897	-27.38
3814.542	-36.38
3817.184	-30.38
3819.825	-31.38
3822.463	-40.38
3825.1	-31.38
3827.735	-29.38
3830.367	-38.38
3832.998	-15.38
3835.627	-33.38
3838.253	-27.38
3840.878	-30.38
3843.501	-16.38
3846.122	-27.38
3848.741	-24.38
3851.358	-18.38
3853.973	-38.38
3856.586	-24.38
3859.197	-37.38
3861.806	-29.38
3864.414	-39.38
3867.019	-29.38
3869.622	-20.38
3872.224	-23.38
3874.823	-19.38
3877.421	-2.38
3880.016	5.62
3882.61	28.62
3885.202	39.62
3887.792	20.62
3890.38	3.62
3892.966	-26.38
3895.55	-37.38
3898.132	-26.38
3900.713	-25.38
3903.291	-28.38
3905.868	-36.38
3908.442	-33.38
3911.015	-31.38
3913.586	-36.38
3916.155	-36.38
3918.722	-37.38
3921.287	-31.38
3923.85	-43.38
3926.411	-37.38
3928.971	-43.38
3931.528	-30.38
3934.084	-34.38
3936.638	-41.38
3939.19	-26.38
3941.74	-27.38
3944.288	-34.38
3946.834	-33.38
3949.378	-26.38
3951.921	-34.38
3954.462	-34.38
3957	-29.38
3959.537	-21.38
3962.072	-34.38
3964.606	-45.38
3967.137	-36.38
3969.667	-38.38
3972.194	-23.38
3974.72	-38.38
3977.244	-57.38
3979.766	-40.38
3982.286	-37.38
3984.805	-28.38
3987.321	-21.38
3989.836	-28.38
3992.349	-38.38
3994.86	-32.38
3997.369	-38.38
3999.877	-34.38
4002.382	-37.38
4004.886	-28.38
4007.388	-30.38
4009.888	-26.38
4012.386	-22.38
4014.883	-30.38
4017.377	-29.38
4019.87	-24.38
4022.361	-37.38
4024.85	-32.38
4027.338	-26.38
4029.823	-39.38
4032.307	-31.38
4034.789	-32.38
4037.269	-33.38
4039.747	-43.38
4042.224	-22.38
4044.699	-40.38
4047.172	-35.38
4049.643	-26.38
4052.112	-53.38
4054.58	-30.38
4057.046	-43.38
4059.51	-33.38
4061.972	-32.38
4064.432	-47.38
4066.891	-18.38
4069.348	-26.38
4071.803	-25.38
4074.256	-35.38
4076.708	-23.38
4079.158	-31.38
4081.606	-16.38
4084.052	-29.38
4086.497	-26.38
4088.939	-33.38
4091.38	-33.38
4093.819	-25.38
4096.257	2.62
4098.693	-7.38
4101.127	-4.38
4103.559	0.62
4105.989	48.62
4108.418	56.62
4110.845	51.62
4113.27	60.62
4115.694	77.62
4118.115	62.62
4120.535	-30.38
4122.954	-22.38
4125.37	-19.38
4127.785	-25.38
4130.198	-19.38
4132.609	-22.38
4135.019	6.62
4137.427	-2.38
4139.833	8.62
4142.237	-4.38
