Data from 2018-3-6_conc=0_n=8_RamanShift_01.txt Node
Date: Tue Mar 06 12:30:49 GMT+02:00 2018
User: LAB3
Spectrometer: QEPB0276
Trigger mode: 0
Integration Time (sec): 3.000000E1
Scans to average: 1
Electric dark correction enabled: true
Nonlinearity correction enabled: false
Boxcar width: 0
XAxis mode: Raman Shifts
Number of Pixels in Spectrum: 1044
>>>>>Begin Spectral Data<<<<<
160.701	184.38
166.742	239.38
172.777	347.38
178.805	712.38
184.826	1612.38
190.841	3231.38
196.849	5134.38
202.85	6618.38
208.845	7151.38
214.833	7183.38
220.815	7068.38
226.789	7110.38
232.758	7175.38
238.719	7176.38
244.674	7146.38
250.623	7151.38
256.565	7044.38
262.5	6992.38
268.429	6952.38
274.351	6965.38
280.267	6952.38
286.176	6952.38
292.079	6973.38
297.975	7008.38
303.865	7028.38
309.748	7017.38
315.625	7024.38
321.495	7093.38
327.359	7068.38
333.217	7096.38
339.068	7158.38
344.912	7191.38
350.751	7205.38
356.583	7242.38
362.408	7266.38
368.227	7288.38
374.04	7369.38
379.847	7411.38
385.647	7472.38
391.44	7445.38
397.228	7516.38
403.009	7565.38
408.784	7586.38
414.553	7623.38
420.315	7637.38
426.071	7665.38
431.821	7650.38
437.565	7658.38
443.302	7656.38
449.033	7626.38
454.758	7552.38
460.477	7505.38
466.189	7430.38
471.896	7347.38
477.596	7269.38
483.29	7258.38
488.978	7252.38
494.66	7211.38
500.335	7011.38
506.005	6686.38
511.668	6334.38
517.325	5964.38
522.977	5725.38
528.622	5516.38
534.261	5412.38
539.894	5280.38
545.521	5213.38
551.141	5144.38
556.756	5060.38
562.365	5025.38
567.968	4988.38
573.565	4938.38
579.155	4920.38
584.74	4886.38
590.319	4874.38
595.892	4860.38
601.459	4900.38
607.02	4862.38
612.575	4847.38
618.124	4752.38
623.667	4661.38
629.204	4608.38
634.735	4544.38
640.261	4514.38
645.781	4431.38
651.294	4412.38
656.802	4399.38
662.304	4402.38
667.8	4411.38
673.29	4373.38
678.775	4339.38
684.254	4357.38
689.726	4312.38
695.193	4301.38
700.655	4283.38
706.11	4273.38
711.56	4232.38
717.004	4206.38
722.442	4146.38
727.874	4189.38
733.301	4183.38
738.722	4150.38
744.137	4126.38
749.547	4128.38
754.951	4161.38
760.349	4141.38
765.741	4187.38
771.128	4215.38
776.509	4233.38
781.885	4319.38
787.254	4366.38
792.618	4375.38
797.977	4364.38
803.33	4375.38
808.677	4298.38
814.019	4290.38
819.355	4247.38
824.686	4209.38
830.011	4149.38
835.33	4171.38
840.644	4160.38
845.952	4082.38
851.255	4080.38
856.552	4061.38
861.844	3978.38
867.13	3966.38
872.41	3986.38
877.686	3997.38
882.955	4005.38
888.219	3965.38
893.478	3863.38
898.731	3749.38
903.979	3673.38
909.221	3611.38
914.458	3601.38
919.69	3599.38
924.916	3577.38
930.136	3603.38
935.351	3594.38
940.561	3575.38
945.766	3602.38
950.965	3572.38
956.158	3520.38
961.347	3501.38
966.529	3437.38
971.707	3437.38
976.879	3359.38
982.046	3365.38
987.208	3343.38
992.364	3322.38
997.515	3328.38
1002.66	3376.38
1007.801	3387.38
1012.936	3423.38
1018.066	3417.38
1023.19	3471.38
1028.309	3494.38
1033.423	3482.38
1038.532	3473.38
1043.636	3463.38
1048.734	3469.38
1053.827	3442.38
1058.915	3392.38
1063.998	3386.38
1069.075	3326.38
1074.147	3343.38
1079.214	3347.38
1084.276	3413.38
1089.333	3388.38
1094.385	3405.38
1099.431	3385.38
1104.472	3346.38
1109.509	3268.38
1114.54	3253.38
1119.565	3192.38
1124.586	3140.38
1129.602	3106.38
1134.613	3053.38
1139.618	3079.38
1144.619	3066.38
1149.614	3062.38
1154.604	3057.38
1159.589	3048.38
1164.57	3111.38
1169.545	3094.38
1174.515	3086.38
1179.48	3082.38
1184.44	3049.38
1189.395	3065.38
1194.345	3016.38
1199.29	2997.38
1204.23	2988.38
1209.165	2995.38
1214.095	3000.38
1219.021	2992.38
1223.941	3010.38
1228.856	3035.38
1233.766	3048.38
1238.672	3033.38
1243.572	3023.38
1248.467	3012.38
1253.358	2963.38
1258.244	2917.38
1263.124	2883.38
1268	2850.38
1272.871	2776.38
1277.737	2797.38
1282.599	2771.38
1287.455	2766.38
1292.306	2780.38
1297.153	2749.38
1301.995	2784.38
1306.832	2791.38
1311.664	2805.38
1316.491	2818.38
1321.314	2771.38
1326.132	2765.38
1330.945	2728.38
1335.753	2638.38
1340.556	2645.38
1345.354	2603.38
1350.148	2545.38
1354.937	2546.38
1359.722	2496.38
1364.501	2478.38
1369.276	2485.38
1374.046	2464.38
1378.811	2461.38
1383.572	2447.38
1388.327	2460.38
1393.079	2427.38
1397.825	2434.38
1402.567	2418.38
1407.304	2367.38
1412.036	2385.38
1416.764	2370.38
1421.487	2352.38
1426.205	2366.38
1430.919	2378.38
1435.628	2407.38
1440.333	2401.38
1445.032	2418.38
1449.727	2493.38
1454.418	2519.38
1459.104	2521.38
1463.785	2481.38
1468.462	2440.38
1473.134	2346.38
1477.802	2329.38
1482.465	2261.38
1487.123	2267.38
1491.777	2226.38
1496.426	2234.38
1501.071	2278.38
1505.711	2247.38
1510.347	2256.38
1514.978	2296.38
1519.604	2266.38
1524.226	2271.38
1528.844	2258.38
1533.457	2236.38
1538.065	2217.38
1542.669	2207.38
1547.269	2176.38
1551.864	2158.38
1556.454	2136.38
1561.041	2154.38
1565.622	2135.38
1570.199	2165.38
1574.772	2175.38
1579.34	2189.38
1583.904	2207.38
1588.464	2220.38
1593.019	2230.38
1597.569	2220.38
1602.115	2208.38
1606.657	2192.38
1611.195	2214.38
1615.728	2200.38
1620.256	2173.38
1624.78	2157.38
1629.3	2170.38
1633.816	2193.38
1638.327	2184.38
1642.834	2213.38
1647.336	2230.38
1651.834	2265.38
1656.328	2250.38
1660.817	2256.38
1665.302	2219.38
1669.783	2172.38
1674.259	2163.38
1678.732	2126.38
1683.199	2080.38
1687.663	2012.38
1692.122	1991.38
1696.577	1956.38
1701.028	1900.38
1705.474	1865.38
1709.917	1876.38
1714.355	1834.38
1718.788	1799.38
1723.218	1785.38
1727.643	1760.38
1732.064	1727.38
1736.481	1699.38
1740.893	1690.38
1745.301	1640.38
1749.705	1583.38
1754.105	1586.38
1758.501	1540.38
1762.893	1524.38
1767.28	1467.38
1771.663	1477.38
1776.042	1454.38
1780.417	1450.38
1784.787	1455.38
1789.154	1462.38
1793.516	1473.38
1797.874	1463.38
1802.228	1438.38
1806.578	1435.38
1810.924	1445.38
1815.266	1326.38
1819.603	1410.38
1823.937	1370.38
1828.266	1362.38
1832.591	1374.38
1836.913	1336.38
1841.23	1311.38
1845.543	1333.38
1849.852	1340.38
1854.156	1319.38
1858.457	1335.38
1862.754	1318.38
1867.047	1337.38
1871.335	1342.38
1875.62	1349.38
1879.9	1351.38
1884.177	1335.38
1888.449	1328.38
1892.718	1319.38
1896.982	1325.38
1901.243	1305.38
1905.499	1296.38
1909.752	1289.38
1914	1276.38
1918.245	1305.38
1922.485	1299.38
1926.722	1306.38
1930.954	1301.38
1935.183	1336.38
1939.408	1306.38
1943.628	1332.38
1947.845	1310.38
1952.058	1311.38
1956.267	1272.38
1960.472	1255.38
1964.673	1240.38
1968.87	1203.38
1973.063	1185.38
1977.252	1162.38
1981.438	1147.38
1985.619	1135.38
1989.797	1136.38
1993.971	1138.38
1998.14	1137.38
2002.306	1133.38
2006.469	1127.38
2010.627	1103.38
2014.781	1095.38
2018.932	1076.38
2023.078	1104.38
2027.221	1093.38
2031.36	1079.38
2035.495	1050.38
2039.627	1057.38
2043.754	1043.38
2047.878	1041.38
2051.998	1045.38
2056.114	1035.38
2060.226	1027.38
2064.334	1046.38
2068.439	1042.38
2072.54	1038.38
2076.637	1050.38
2080.73	1053.38
2084.82	1053.38
2088.906	1043.38
2092.988	1046.38
2097.066	1040.38
2101.14	1044.38
2105.211	1025.38
2109.278	1005.38
2113.342	990.38
2117.401	994.38
2121.457	965.38
2125.509	961.38
2129.558	952.38
2133.602	953.38
2137.643	937.38
2141.681	931.38
2145.714	926.38
2149.744	932.38
2153.77	919.38
2157.793	901.38
2161.812	882.38
2165.827	852.38
2169.838	879.38
2173.846	856.38
2177.851	836.38
2181.851	847.38
2185.848	830.38
2189.841	820.38
2193.831	798.38
2197.817	809.38
2201.799	791.38
2205.778	775.38
2209.753	778.38
2213.725	776.38
2217.693	786.38
2221.657	779.38
2225.618	773.38
2229.575	768.38
2233.529	756.38
2237.479	761.38
2241.425	734.38
2245.368	715.38
2249.307	718.38
2253.243	707.38
2257.175	705.38
2261.104	678.38
2265.029	674.38
2268.95	666.38
2272.868	665.38
2276.783	646.38
2280.694	653.38
2284.601	644.38
2288.505	631.38
2292.405	631.38
2296.302	600.38
2300.195	603.38
2304.085	571.38
2307.971	600.38
2311.854	560.38
2315.734	573.38
2319.609	567.38
2323.482	536.38
2327.351	550.38
2331.216	555.38
2335.078	551.38
2338.937	535.38
2342.792	541.38
2346.643	529.38
2350.492	542.38
2354.336	535.38
2358.178	545.38
2362.015	530.38
2365.85	531.38
2369.681	533.38
2373.508	537.38
2377.333	537.38
2381.153	524.38
2384.971	520.38
2388.785	534.38
2392.595	517.38
2396.402	509.38
2400.206	486.38
2404.007	502.38
2407.804	488.38
2411.597	503.38
2415.388	508.38
2419.174	490.38
2422.958	495.38
2426.738	496.38
2430.515	485.38
2434.289	488.38
2438.059	478.38
2441.825	493.38
2445.589	482.38
2449.349	467.38
2453.106	466.38
2456.859	464.38
2460.61	469.38
2464.356	450.38
2468.1	445.38
2471.84	443.38
2475.577	442.38
2479.311	434.38
2483.041	444.38
2486.768	451.38
2490.492	445.38
2494.213	436.38
2497.93	419.38
2501.644	421.38
2505.355	425.38
2509.062	435.38
2512.766	429.38
2516.467	421.38
2520.165	431.38
2523.859	400.38
2527.551	440.38
2531.239	416.38
2534.923	411.38
2538.605	424.38
2542.283	414.38
2545.958	411.38
2549.63	421.38
2553.299	418.38
2556.964	403.38
2560.626	407.38
2564.285	409.38
2567.941	396.38
2571.594	387.38
2575.243	389.38
2578.89	386.38
2582.533	389.38
2586.173	377.38
2589.809	387.38
2593.443	343.38
2597.073	373.38
2600.701	378.38
2604.325	363.38
2607.946	356.38
2611.564	373.38
2615.178	356.38
2618.79	368.38
2622.398	346.38
2626.004	350.38
2629.606	346.38
2633.205	342.38
2636.801	339.38
2640.394	328.38
2643.983	332.38
2647.57	326.38
2651.153	314.38
2654.734	325.38
2658.311	292.38
2661.885	305.38
2665.456	308.38
2669.025	309.38
2672.589	301.38
2676.151	309.38
2679.71	309.38
2683.266	303.38
2686.819	294.38
2690.368	289.38
2693.915	287.38
2697.458	289.38
2700.999	285.38
2704.536	286.38
2708.071	284.38
2711.602	281.38
2715.13	282.38
2718.656	266.38
2722.178	278.38
2725.697	264.38
2729.214	267.38
2732.727	270.38
2736.237	270.38
2739.744	269.38
2743.249	273.38
2746.75	269.38
2750.248	264.38
2753.743	268.38
2757.236	272.38
2760.725	273.38
2764.211	234.38
2767.695	266.38
2771.175	261.38
2774.652	267.38
2778.127	254.38
2781.598	260.38
2785.067	260.38
2788.532	252.38
2791.995	262.38
2795.455	258.38
2798.911	264.38
2802.365	259.38
2805.816	270.38
2809.264	277.38
2812.709	265.38
2816.151	266.38
2819.59	261.38
2823.026	261.38
2826.46	265.38
2829.89	280.38
2833.318	249.38
2836.742	276.38
2840.164	268.38
2843.583	278.38
2846.999	275.38
2850.412	283.38
2853.822	280.38
2857.229	296.38
2860.634	295.38
2864.035	285.38
2867.434	313.38
2870.83	316.38
2874.223	322.38
2877.613	333.38
2881	325.38
2884.385	331.38
2887.766	340.38
2891.145	340.38
2894.521	343.38
2897.894	333.38
2901.264	341.38
2904.631	339.38
2907.996	346.38
2911.358	348.38
2914.717	344.38
2918.073	336.38
2921.426	348.38
2924.777	339.38
2928.124	364.38
2931.469	389.38
2934.811	389.38
2938.15	414.38
2941.487	404.38
2944.821	422.38
2948.152	392.38
2951.48	392.38
2954.805	369.38
2958.128	383.38
2961.447	364.38
2964.765	383.38
2968.079	363.38
2971.39	361.38
2974.699	369.38
2978.005	377.38
2981.308	377.38
2984.609	374.38
2987.907	385.38
2991.202	395.38
2994.494	374.38
2997.784	386.38
3001.07	381.38
3004.355	377.38
3007.636	391.38
3010.915	392.38
3014.191	383.38
3017.464	380.38
3020.734	384.38
3024.002	396.38
3027.267	384.38
3030.53	390.38
3033.789	392.38
3037.046	390.38
3040.301	393.38
3043.552	408.38
3046.801	419.38
3050.048	434.38
3053.291	453.38
3056.532	450.38
3059.771	440.38
3063.006	470.38
3066.239	474.38
3069.469	485.38
3072.697	493.38
3075.922	502.38
3079.144	518.38
3082.364	546.38
3085.581	530.38
3088.795	560.38
3092.007	573.38
3095.216	584.38
3098.423	580.38
3101.627	582.38
3104.828	607.38
3108.026	608.38
3111.222	647.38
3114.416	649.38
3117.607	646.38
3120.795	666.38
3123.98	682.38
3127.163	687.38
3130.344	708.38
3133.521	701.38
3136.696	743.38
3139.869	755.38
3143.039	747.38
3146.206	780.38
3149.371	789.38
3152.533	791.38
3155.693	785.38
3158.85	804.38
3162.005	803.38
3165.157	801.38
3168.306	807.38
3171.453	813.38
3174.597	814.38
3177.739	802.38
3180.878	820.38
3184.014	812.38
3187.149	800.38
3190.28	816.38
3193.409	828.38
3196.536	818.38
3199.659	845.38
3202.781	835.38
3205.9	820.38
3209.016	831.38
3212.13	826.38
3215.241	822.38
3218.35	815.38
3221.456	815.38
3224.56	804.38
3227.661	816.38
3230.76	797.38
3233.856	789.38
3236.95	787.38
3240.041	766.38
3243.13	779.38
3246.216	783.38
3249.3	773.38
3252.382	777.38
3255.46	757.38
3258.537	702.38
3261.611	745.38
3264.682	750.38
3267.751	747.38
3270.818	735.38
3273.882	748.38
3276.943	745.38
3280.002	753.38
3283.059	723.38
3286.113	719.38
3289.165	714.38
3292.214	689.38
3295.261	701.38
3298.306	674.38
3301.348	676.38
3304.387	652.38
3307.425	657.38
3310.459	641.38
3313.492	651.38
3316.521	632.38
3319.549	644.38
3322.574	627.38
3325.597	611.38
3328.617	622.38
3331.635	614.38
3334.65	599.38
3337.663	629.38
3340.674	602.38
3343.682	609.38
3346.688	615.38
3349.691	596.38
3352.692	601.38
3355.691	605.38
3358.687	603.38
3361.681	592.38
3364.673	591.38
3367.662	582.38
3370.649	585.38
3373.633	560.38
3376.615	573.38
3379.595	541.38
3382.572	538.38
3385.547	544.38
3388.52	532.38
3391.49	533.38
3394.458	518.38
3397.424	529.38
3400.387	507.38
3403.348	508.38
3406.307	505.38
3409.263	493.38
3412.217	507.38
3415.168	491.38
3418.118	498.38
3421.065	474.38
3424.009	491.38
3426.951	465.38
3429.891	467.38
3432.829	458.38
3435.764	442.38
3438.697	436.38
3441.628	448.38
3444.557	409.38
3447.483	414.38
3450.407	417.38
3453.328	383.38
3456.247	389.38
3459.164	366.38
3462.079	376.38
3464.991	366.38
3467.902	342.38
3470.809	331.38
3473.715	337.38
3476.618	315.38
3479.519	318.38
3482.418	290.38
3485.315	290.38
3488.209	288.38
3491.101	282.38
3493.99	275.38
3496.878	269.38
3499.763	271.38
3502.646	258.38
3505.527	245.38
3508.405	242.38
3511.281	220.38
3514.155	221.38
3517.027	216.38
3519.897	204.38
3522.764	201.38
3525.629	179.38
3528.492	183.38
3531.352	183.38
3534.211	169.38
3537.067	158.38
3539.921	159.38
3542.773	158.38
3545.622	144.38
3548.469	134.38
3551.315	124.38
3554.157	126.38
3556.998	115.38
3559.837	120.38
3562.673	116.38
3565.507	101.38
3568.339	94.38
3571.169	100.38
3573.996	99.38
3576.822	79.38
3579.645	78.38
3582.466	73.38
3585.285	86.38
3588.101	75.38
3590.916	64.38
3593.728	73.38
3596.538	64.38
3599.346	62.38
3602.152	52.38
3604.956	56.38
3607.757	51.38
3610.556	45.38
3613.354	49.38
3616.149	44.38
3618.942	42.38
3621.732	47.38
3624.521	30.38
3627.307	15.38
3630.092	28.38
3632.874	43.38
3635.654	29.38
3638.432	21.38
3641.208	18.38
3643.982	24.38
3646.753	25.38
3649.523	-1.62
3652.29	12.38
3655.055	20.38
3657.818	17.38
3660.579	8.38
3663.338	-2.62
3666.095	11.38
3668.849	-15.62
3671.602	7.38
3674.352	-11.62
3677.101	10.38
3679.847	6.38
3682.591	-4.62
3685.333	-14.62
3688.073	-4.62
3690.811	-17.62
3693.547	-16.62
3696.281	-19.62
3699.013	-8.62
3701.742	-11.62
3704.47	-21.62
3707.195	-10.62
3709.919	-10.62
3712.64	-11.62
3715.359	-26.62
3718.076	-4.62
3720.792	-14.62
3723.505	-8.62
3726.216	-5.62
3728.925	-21.62
3731.632	-21.62
3734.336	-18.62
3737.039	-18.62
3739.74	-15.62
3742.439	-44.62
3745.136	-9.62
3747.83	-18.62
3750.523	-16.62
3753.213	-86.62
3755.902	-23.62
3758.589	-33.62
3761.273	-24.62
3763.956	-11.62
3766.636	-33.62
3769.315	-14.62
3771.991	-23.62
3774.665	-26.62
3777.338	-24.62
3780.008	-35.62
3782.677	-22.62
3785.343	-44.62
3788.007	-45.62
3790.67	-23.62
3793.33	-35.62
3795.989	-30.62
3798.645	-25.62
3801.299	-40.62
3803.952	-35.62
3806.602	-31.62
3809.251	-23.62
3811.897	-29.62
3814.542	-28.62
3817.184	-29.62
3819.825	-28.62
3822.463	-40.62
3825.1	-35.62
3827.735	-27.62
3830.367	-37.62
3832.998	-14.62
3835.627	-30.62
3838.253	-25.62
3840.878	-35.62
3843.501	-15.62
3846.122	-24.62
3848.741	-19.62
3851.358	-16.62
3853.973	-36.62
3856.586	-17.62
3859.197	-35.62
3861.806	-25.62
3864.414	-39.62
3867.019	-26.62
3869.622	-16.62
3872.224	-5.62
3874.823	12.38
3877.421	48.38
3880.016	81.38
3882.61	144.38
3885.202	173.38
3887.792	128.38
3890.38	69.38
3892.966	10.38
3895.55	-22.62
3898.132	-17.62
3900.713	-19.62
3903.291	-25.62
3905.868	-32.62
3908.442	-28.62
3911.015	-26.62
3913.586	-34.62
3916.155	-33.62
3918.722	-36.62
3921.287	-36.62
3923.85	-45.62
3926.411	-38.62
3928.971	-39.62
3931.528	-28.62
3934.084	-32.62
3936.638	-40.62
3939.19	-28.62
3941.74	-27.62
3944.288	-32.62
3946.834	-31.62
3949.378	-20.62
3951.921	-36.62
3954.462	-29.62
3957	-26.62
3959.537	-15.62
3962.072	-31.62
3964.606	-42.62
3967.137	-32.62
3969.667	-34.62
3972.194	-28.62
3974.72	-37.62
3977.244	-51.62
3979.766	-35.62
3982.286	-35.62
3984.805	-25.62
3987.321	-17.62
3989.836	-24.62
3992.349	-34.62
3994.86	-27.62
3997.369	-31.62
3999.877	-28.62
4002.382	-30.62
4004.886	-28.62
4007.388	-26.62
4009.888	-18.62
4012.386	-15.62
4014.883	-23.62
4017.377	-25.62
4019.87	-25.62
4022.361	-36.62
4024.85	-28.62
4027.338	-24.62
4029.823	-26.62
4032.307	-27.62
4034.789	-21.62
4037.269	-25.62
4039.747	-41.62
4042.224	-19.62
4044.699	-26.62
4047.172	-30.62
4049.643	-16.62
4052.112	-50.62
4054.58	-22.62
4057.046	-36.62
4059.51	-22.62
4061.972	-22.62
4064.432	-38.62
4066.891	-16.62
4069.348	-27.62
4071.803	-23.62
4074.256	-24.62
4076.708	-20.62
4079.158	-19.62
4081.606	-11.62
4084.052	-24.62
4086.497	-18.62
4088.939	-20.62
4091.38	-29.62
4093.819	-19.62
4096.257	-0.62
4098.693	-9.62
4101.127	-4.62
4103.559	1.38
4105.989	165.38
4108.418	171.38
4110.845	157.38
4113.27	159.38
4115.694	175.38
4118.115	171.38
4120.535	-22.62
4122.954	-15.62
4125.37	-14.62
4127.785	-25.62
4130.198	-13.62
4132.609	-23.62
4135.019	8.38
4137.427	-1.62
4139.833	9.38
4142.237	-2.62
