Data from 2018-3-6_conc=5_n=1_RamanShift_05.txt Node
Date: Tue Mar 06 14:24:18 GMT+02:00 2018
User: LAB3
Spectrometer: QEPB0276
Trigger mode: 0
Integration Time (sec): 3.000000E1
Scans to average: 1
Electric dark correction enabled: true
Nonlinearity correction enabled: false
Boxcar width: 0
XAxis mode: Raman Shifts
Number of Pixels in Spectrum: 1044
>>>>>Begin Spectral Data<<<<<
160.701	57.5
166.742	82.5
172.777	120.5
178.805	239.5
184.826	559.5
190.841	1142.5
196.849	1773.5
202.85	2232.5
208.845	2392.5
214.833	2376.5
220.815	2314.5
226.789	2291.5
232.758	2313.5
238.719	2273.5
244.674	2246.5
250.623	2235.5
256.565	2182.5
262.5	2156.5
268.429	2131.5
274.351	2106.5
280.267	2109.5
286.176	2110.5
292.079	2081.5
297.975	2088.5
303.865	2101.5
309.748	2078.5
315.625	2068.5
321.495	2078.5
327.359	2057.5
333.217	2073.5
339.068	2075.5
344.912	2086.5
350.751	2091.5
356.583	2085.5
362.408	2073.5
368.227	2084.5
374.04	2080.5
379.847	2098.5
385.647	2127.5
391.44	2102.5
397.228	2121.5
403.009	2128.5
408.784	2119.5
414.553	2144.5
420.315	2143.5
426.071	2142.5
431.821	2146.5
437.565	2153.5
443.302	2144.5
449.033	2100.5
454.758	2118.5
460.477	2090.5
466.189	2072.5
471.896	2062.5
477.596	2062.5
483.29	2042.5
488.978	2031.5
494.66	2000.5
500.335	1953.5
506.005	1873.5
511.668	1791.5
517.325	1691.5
522.977	1621.5
528.622	1591.5
534.261	1544.5
539.894	1507.5
545.521	1492.5
551.141	1455.5
556.756	1439.5
562.365	1449.5
567.968	1430.5
573.565	1408.5
579.155	1417.5
584.74	1388.5
590.319	1412.5
595.892	1409.5
601.459	1426.5
607.02	1389.5
612.575	1390.5
618.124	1392.5
623.667	1333.5
629.204	1342.5
634.735	1315.5
640.261	1298.5
645.781	1253.5
651.294	1276.5
656.802	1277.5
662.304	1278.5
667.8	1283.5
673.29	1264.5
678.775	1267.5
684.254	1261.5
689.726	1233.5
695.193	1239.5
700.655	1233.5
706.11	1224.5
711.56	1214.5
717.004	1218.5
722.442	1189.5
727.874	1209.5
733.301	1207.5
738.722	1187.5
744.137	1202.5
749.547	1181.5
754.951	1178.5
760.349	1185.5
765.741	1212.5
771.128	1200.5
776.509	1221.5
781.885	1235.5
787.254	1257.5
792.618	1262.5
797.977	1255.5
803.33	1242.5
808.677	1221.5
814.019	1225.5
819.355	1209.5
824.686	1198.5
830.011	1174.5
835.33	1189.5
840.644	1189.5
845.952	1160.5
851.255	1171.5
856.552	1156.5
861.844	1152.5
867.13	1122.5
872.41	1103.5
877.686	1124.5
882.955	1091.5
888.219	1090.5
893.478	1065.5
898.731	1061.5
903.979	1047.5
909.221	1041.5
914.458	1026.5
919.69	1026.5
924.916	1027.5
930.136	1037.5
935.351	1026.5
940.561	1034.5
945.766	1027.5
950.965	1037.5
956.158	1010.5
961.347	999.5
966.529	1005.5
971.707	992.5
976.879	991.5
982.046	967.5
987.208	952.5
992.364	965.5
997.515	961.5
1002.66	962.5
1007.801	954.5
1012.936	962.5
1018.066	961.5
1023.19	996.5
1028.309	997.5
1033.423	991.5
1038.532	994.5
1043.636	976.5
1048.734	974.5
1053.827	960.5
1058.915	954.5
1063.998	941.5
1069.075	938.5
1074.147	955.5
1079.214	925.5
1084.276	958.5
1089.333	954.5
1094.385	952.5
1099.431	932.5
1104.472	934.5
1109.509	938.5
1114.54	917.5
1119.565	904.5
1124.586	905.5
1129.602	880.5
1134.613	849.5
1139.618	846.5
1144.619	860.5
1149.614	875.5
1154.604	876.5
1159.589	871.5
1164.57	884.5
1169.545	904.5
1174.515	893.5
1179.48	889.5
1184.44	883.5
1189.395	869.5
1194.345	862.5
1199.29	864.5
1204.23	836.5
1209.165	843.5
1214.095	871.5
1219.021	858.5
1223.941	849.5
1228.856	873.5
1233.766	876.5
1238.672	863.5
1243.572	866.5
1248.467	857.5
1253.358	861.5
1258.244	823.5
1263.124	858.5
1268	822.5
1272.871	786.5
1277.737	790.5
1282.599	788.5
1287.455	768.5
1292.306	789.5
1297.153	764.5
1301.995	779.5
1306.832	786.5
1311.664	793.5
1316.491	781.5
1321.314	786.5
1326.132	776.5
1330.945	771.5
1335.753	761.5
1340.556	736.5
1345.354	737.5
1350.148	725.5
1354.937	726.5
1359.722	697.5
1364.501	700.5
1369.276	705.5
1374.046	703.5
1378.811	692.5
1383.572	702.5
1388.327	707.5
1393.079	669.5
1397.825	674.5
1402.567	667.5
1407.304	678.5
1412.036	657.5
1416.764	662.5
1421.487	650.5
1426.205	663.5
1430.919	666.5
1435.628	673.5
1440.333	670.5
1445.032	684.5
1449.727	676.5
1454.418	688.5
1459.104	691.5
1463.785	673.5
1468.462	669.5
1473.134	659.5
1477.802	644.5
1482.465	611.5
1487.123	633.5
1491.777	600.5
1496.426	597.5
1501.071	629.5
1505.711	613.5
1510.347	618.5
1514.978	619.5
1519.604	610.5
1524.226	618.5
1528.844	612.5
1533.457	621.5
1538.065	618.5
1542.669	604.5
1547.269	600.5
1551.864	610.5
1556.454	589.5
1561.041	586.5
1565.622	598.5
1570.199	603.5
1574.772	611.5
1579.34	608.5
1583.904	623.5
1588.464	639.5
1593.019	644.5
1597.569	614.5
1602.115	615.5
1606.657	617.5
1611.195	632.5
1615.728	631.5
1620.256	599.5
1624.78	593.5
1629.3	594.5
1633.816	599.5
1638.327	610.5
1642.834	616.5
1647.336	612.5
1651.834	631.5
1656.328	631.5
1660.817	606.5
1665.302	604.5
1669.783	601.5
1674.259	594.5
1678.732	574.5
1683.199	569.5
1687.663	543.5
1692.122	544.5
1696.577	522.5
1701.028	519.5
1705.474	506.5
1709.917	492.5
1714.355	490.5
1718.788	482.5
1723.218	475.5
1727.643	457.5
1732.064	467.5
1736.481	448.5
1740.893	450.5
1745.301	445.5
1749.705	409.5
1754.105	424.5
1758.501	414.5
1762.893	414.5
1767.28	386.5
1771.663	386.5
1776.042	379.5
1780.417	385.5
1784.787	389.5
1789.154	390.5
1793.516	388.5
1797.874	389.5
1802.228	368.5
1806.578	371.5
1810.924	388.5
1815.266	268.5
1819.603	385.5
1823.937	364.5
1828.266	363.5
1832.591	369.5
1836.913	356.5
1841.23	349.5
1845.543	343.5
1849.852	360.5
1854.156	355.5
1858.457	354.5
1862.754	349.5
1867.047	362.5
1871.335	361.5
1875.62	368.5
1879.9	357.5
1884.177	344.5
1888.449	352.5
1892.718	348.5
1896.982	350.5
1901.243	334.5
1905.499	325.5
1909.752	336.5
1914	300.5
1918.245	339.5
1922.485	347.5
1926.722	328.5
1930.954	327.5
1935.183	334.5
1939.408	342.5
1943.628	335.5
1947.845	327.5
1952.058	332.5
1956.267	314.5
1960.472	330.5
1964.673	318.5
1968.87	310.5
1973.063	310.5
1977.252	305.5
1981.438	305.5
1985.619	306.5
1989.797	284.5
1993.971	296.5
1998.14	304.5
2002.306	293.5
2006.469	301.5
2010.627	288.5
2014.781	298.5
2018.932	287.5
2023.078	300.5
2027.221	288.5
2031.36	272.5
2035.495	289.5
2039.627	281.5
2043.754	284.5
2047.878	272.5
2051.998	266.5
2056.114	262.5
2060.226	273.5
2064.334	277.5
2068.439	283.5
2072.54	271.5
2076.637	265.5
2080.73	261.5
2084.82	259.5
2088.906	255.5
2092.988	260.5
2097.066	264.5
2101.14	275.5
2105.211	270.5
2109.278	257.5
2113.342	259.5
2117.401	253.5
2121.457	234.5
2125.509	237.5
2129.558	248.5
2133.602	243.5
2137.643	240.5
2141.681	240.5
2145.714	237.5
2149.744	244.5
2153.77	237.5
2157.793	220.5
2161.812	211.5
2165.827	206.5
2169.838	238.5
2173.846	219.5
2177.851	214.5
2181.851	228.5
2185.848	208.5
2189.841	212.5
2193.831	206.5
2197.817	204.5
2201.799	199.5
2205.778	201.5
2209.753	196.5
2213.725	194.5
2217.693	197.5
2221.657	187.5
2225.618	197.5
2229.575	202.5
2233.529	193.5
2237.479	212.5
2241.425	185.5
2245.368	181.5
2249.307	189.5
2253.243	183.5
2257.175	184.5
2261.104	175.5
2265.029	177.5
2268.95	173.5
2272.868	165.5
2276.783	167.5
2280.694	170.5
2284.601	163.5
2288.505	163.5
2292.405	171.5
2296.302	144.5
2300.195	157.5
2304.085	134.5
2307.971	154.5
2311.854	132.5
2315.734	143.5
2319.609	149.5
2323.482	127.5
2327.351	134.5
2331.216	136.5
2335.078	143.5
2338.937	139.5
2342.792	131.5
2346.643	132.5
2350.492	139.5
2354.336	136.5
2358.178	140.5
2362.015	142.5
2365.85	132.5
2369.681	126.5
2373.508	137.5
2377.333	148.5
2381.153	138.5
2384.971	133.5
2388.785	137.5
2392.595	125.5
2396.402	128.5
2400.206	109.5
2404.007	114.5
2407.804	127.5
2411.597	127.5
2415.388	119.5
2419.174	124.5
2422.958	122.5
2426.738	116.5
2430.515	129.5
2434.289	123.5
2438.059	124.5
2441.825	116.5
2445.589	122.5
2449.349	102.5
2453.106	115.5
2456.859	113.5
2460.61	116.5
2464.356	101.5
2468.1	95.5
2471.84	96.5
2475.577	103.5
2479.311	98.5
2483.041	99.5
2486.768	122.5
2490.492	113.5
2494.213	108.5
2497.93	88.5
2501.644	90.5
2505.355	103.5
2509.062	98.5
2512.766	90.5
2516.467	90.5
2520.165	94.5
2523.859	76.5
2527.551	113.5
2531.239	82.5
2534.923	97.5
2538.605	88.5
2542.283	90.5
2545.958	97.5
2549.63	98.5
2553.299	98.5
2556.964	80.5
2560.626	85.5
2564.285	86.5
2567.941	72.5
2571.594	76.5
2575.243	90.5
2578.89	77.5
2582.533	81.5
2586.173	87.5
2589.809	80.5
2593.443	57.5
2597.073	78.5
2600.701	80.5
2604.325	73.5
2607.946	68.5
2611.564	84.5
2615.178	74.5
2618.79	81.5
2622.398	67.5
2626.004	79.5
2629.606	76.5
2633.205	63.5
2636.801	74.5
2640.394	73.5
2643.983	62.5
2647.57	64.5
2651.153	64.5
2654.734	75.5
2658.311	43.5
2661.885	58.5
2665.456	59.5
2669.025	61.5
2672.589	60.5
2676.151	75.5
2679.71	68.5
2683.266	63.5
2686.819	54.5
2690.368	58.5
2693.915	67.5
2697.458	60.5
2700.999	56.5
2704.536	67.5
2708.071	55.5
2711.602	60.5
2715.13	59.5
2718.656	41.5
2722.178	53.5
2725.697	44.5
2729.214	48.5
2732.727	50.5
2736.237	36.5
2739.744	45.5
2743.249	42.5
2746.75	52.5
2750.248	43.5
2753.743	52.5
2757.236	46.5
2760.725	49.5
2764.211	26.5
2767.695	53.5
2771.175	40.5
2774.652	54.5
2778.127	45.5
2781.598	47.5
2785.067	49.5
2788.532	39.5
2791.995	43.5
2795.455	43.5
2798.911	53.5
2802.365	44.5
2805.816	50.5
2809.264	50.5
2812.709	43.5
2816.151	52.5
2819.59	38.5
2823.026	40.5
2826.46	39.5
2829.89	52.5
2833.318	21.5
2836.742	37.5
2840.164	42.5
2843.583	41.5
2846.999	40.5
2850.412	42.5
2853.822	33.5
2857.229	48.5
2860.634	48.5
2864.035	29.5
2867.434	52.5
2870.83	50.5
2874.223	44.5
2877.613	44.5
2881	39.5
2884.385	46.5
2887.766	42.5
2891.145	52.5
2894.521	43.5
2897.894	39.5
2901.264	50.5
2904.631	55.5
2907.996	51.5
2911.358	53.5
2914.717	52.5
2918.073	45.5
2921.426	44.5
2924.777	38.5
2928.124	51.5
2931.469	63.5
2934.811	45.5
2938.15	66.5
2941.487	59.5
2944.821	73.5
2948.152	63.5
2951.48	65.5
2954.805	52.5
2958.128	75.5
2961.447	56.5
2964.765	69.5
2968.079	53.5
2971.39	60.5
2974.699	66.5
2978.005	59.5
2981.308	59.5
2984.609	62.5
2987.907	62.5
2991.202	77.5
2994.494	55.5
2997.784	66.5
3001.07	67.5
3004.355	57.5
3007.636	66.5
3010.915	71.5
3014.191	66.5
3017.464	74.5
3020.734	76.5
3024.002	74.5
3027.267	75.5
3030.53	79.5
3033.789	76.5
3037.046	75.5
3040.301	67.5
3043.552	87.5
3046.801	82.5
3050.048	86.5
3053.291	108.5
3056.532	95.5
3059.771	76.5
3063.006	95.5
3066.239	92.5
3069.469	101.5
3072.697	99.5
3075.922	89.5
3079.144	103.5
3082.364	125.5
3085.581	102.5
3088.795	124.5
3092.007	133.5
3095.216	126.5
3098.423	118.5
3101.627	99.5
3104.828	130.5
3108.026	122.5
3111.222	145.5
3114.416	149.5
3117.607	138.5
3120.795	143.5
3123.98	147.5
3127.163	143.5
3130.344	148.5
3133.521	146.5
3136.696	168.5
3139.869	160.5
3143.039	147.5
3146.206	190.5
3149.371	176.5
3152.533	174.5
3155.693	164.5
3158.85	171.5
3162.005	180.5
3165.157	173.5
3168.306	179.5
3171.453	186.5
3174.597	168.5
3177.739	166.5
3180.878	181.5
3184.014	186.5
3187.149	183.5
3190.28	183.5
3193.409	185.5
3196.536	190.5
3199.659	196.5
3202.781	184.5
3205.9	178.5
3209.016	179.5
3212.13	180.5
3215.241	183.5
3218.35	181.5
3221.456	179.5
3224.56	170.5
3227.661	173.5
3230.76	170.5
3233.856	165.5
3236.95	170.5
3240.041	159.5
3243.13	167.5
3246.216	168.5
3249.3	175.5
3252.382	170.5
3255.46	156.5
3258.537	102.5
3261.611	153.5
3264.682	164.5
3267.751	161.5
3270.818	151.5
3273.882	169.5
3276.943	160.5
3280.002	172.5
3283.059	152.5
3286.113	153.5
3289.165	137.5
3292.214	150.5
3295.261	161.5
3298.306	129.5
3301.348	152.5
3304.387	140.5
3307.425	147.5
3310.459	135.5
3313.492	151.5
3316.521	142.5
3319.549	152.5
3322.574	144.5
3325.597	131.5
3328.617	131.5
3331.635	134.5
3334.65	115.5
3337.663	130.5
3340.674	130.5
3343.682	137.5
3346.688	139.5
3349.691	123.5
3352.692	125.5
3355.691	137.5
3358.687	131.5
3361.681	126.5
3364.673	130.5
3367.662	125.5
3370.649	132.5
3373.633	116.5
3376.615	126.5
3379.595	107.5
3382.572	108.5
3385.547	104.5
3388.52	108.5
3391.49	109.5
3394.458	108.5
3397.424	113.5
3400.387	99.5
3403.348	100.5
3406.307	106.5
3409.263	100.5
3412.217	112.5
3415.168	106.5
3418.118	113.5
3421.065	98.5
3424.009	107.5
3426.951	95.5
3429.891	87.5
3432.829	90.5
3435.764	95.5
3438.697	82.5
3441.628	98.5
3444.557	75.5
3447.483	71.5
3450.407	88.5
3453.328	76.5
3456.247	78.5
3459.164	65.5
3462.079	83.5
3464.991	69.5
3467.902	62.5
3470.809	63.5
3473.715	68.5
3476.618	54.5
3479.519	63.5
3482.418	35.5
3485.315	42.5
3488.209	41.5
3491.101	45.5
3493.99	26.5
3496.878	40.5
3499.763	44.5
3502.646	41.5
3505.527	26.5
3508.405	26.5
3511.281	18.5
3514.155	26.5
3517.027	28.5
3519.897	15.5
3522.764	28.5
3525.629	6.5
3528.492	21.5
3531.352	18.5
3534.211	19.5
3537.067	5.5
3539.921	16.5
3542.773	16.5
3545.622	3.5
3548.469	0.5
3551.315	-1.5
3554.157	12.5
3556.998	-3.5
3559.837	-0.5
3562.673	6.5
3565.507	-0.5
3568.339	-9.5
3571.169	-5.5
3573.996	-6.5
3576.822	-17.5
3579.645	-17.5
3582.466	-14.5
3585.285	-4.5
3588.101	-7.5
3590.916	-12.5
3593.728	0.5
3596.538	-14.5
3599.346	-4.5
3602.152	-21.5
3604.956	-9.5
3607.757	-2.5
3610.556	-24.5
3613.354	-10.5
3616.149	-10.5
3618.942	-9.5
3621.732	-12.5
3624.521	-14.5
3627.307	-28.5
3630.092	-26.5
3632.874	-8.5
3635.654	-17.5
3638.432	-23.5
3641.208	-23.5
3643.982	-16.5
3646.753	-8.5
3649.523	-39.5
3652.29	-24.5
3655.055	-18.5
3657.818	-18.5
3660.579	-23.5
3663.338	-33.5
3666.095	-28.5
3668.849	-44.5
3671.602	-19.5
3674.352	-35.5
3677.101	-15.5
3679.847	-18.5
3682.591	-34.5
3685.333	-33.5
3688.073	-22.5
3690.811	-32.5
3693.547	-43.5
3696.281	-38.5
3699.013	-25.5
3701.742	-33.5
3704.47	-35.5
3707.195	-25.5
3709.919	-23.5
3712.64	-24.5
3715.359	-41.5
3718.076	-18.5
3720.792	-31.5
3723.505	-24.5
3726.216	-16.5
3728.925	-31.5
3731.632	-37.5
3734.336	-26.5
3737.039	-29.5
3739.74	-22.5
3742.439	-48.5
3745.136	-25.5
3747.83	-29.5
3750.523	-25.5
3753.213	-86.5
3755.902	-30.5
3758.589	-45.5
3761.273	-34.5
3763.956	-27.5
3766.636	-42.5
3769.315	-19.5
3771.991	-30.5
3774.665	-33.5
3777.338	-31.5
3780.008	-41.5
3782.677	-35.5
3785.343	-50.5
3788.007	-50.5
3790.67	-23.5
3793.33	-39.5
3795.989	-37.5
3798.645	-31.5
3801.299	-42.5
3803.952	-42.5
3806.602	-34.5
3809.251	-25.5
3811.897	-32.5
3814.542	-33.5
3817.184	-33.5
3819.825	-36.5
3822.463	-44.5
3825.1	-37.5
3827.735	-35.5
3830.367	-42.5
3832.998	-17.5
3835.627	-38.5
3838.253	-22.5
3840.878	-35.5
3843.501	-21.5
3846.122	-29.5
3848.741	-26.5
3851.358	-26.5
3853.973	-44.5
3856.586	-20.5
3859.197	-38.5
3861.806	-31.5
3864.414	-44.5
3867.019	-32.5
3869.622	-23.5
3872.224	-27.5
3874.823	-18.5
3877.421	3.5
3880.016	10.5
3882.61	43.5
3885.202	58.5
3887.792	36.5
3890.38	11.5
3892.966	-18.5
3895.55	-36.5
3898.132	-20.5
3900.713	-21.5
3903.291	-30.5
3905.868	-38.5
3908.442	-31.5
3911.015	-31.5
3913.586	-34.5
3916.155	-34.5
3918.722	-42.5
3921.287	-40.5
3923.85	-45.5
3926.411	-40.5
3928.971	-39.5
3931.528	-32.5
3934.084	-39.5
3936.638	-46.5
3939.19	-27.5
3941.74	-32.5
3944.288	-38.5
3946.834	-32.5
3949.378	-27.5
3951.921	-39.5
3954.462	-35.5
3957	-32.5
3959.537	-24.5
3962.072	-38.5
3964.606	-48.5
3967.137	-38.5
3969.667	-41.5
3972.194	-28.5
3974.72	-42.5
3977.244	-59.5
3979.766	-43.5
3982.286	-41.5
3984.805	-32.5
3987.321	-22.5
3989.836	-31.5
3992.349	-40.5
3994.86	-38.5
3997.369	-42.5
3999.877	-37.5
4002.382	-39.5
4004.886	-25.5
4007.388	-35.5
4009.888	-21.5
4012.386	-26.5
4014.883	-31.5
4017.377	-34.5
4019.87	-28.5
4022.361	-45.5
4024.85	-30.5
4027.338	-33.5
4029.823	-32.5
4032.307	-32.5
4034.789	-33.5
4037.269	-34.5
4039.747	-49.5
4042.224	-29.5
4044.699	-41.5
4047.172	-34.5
4049.643	-31.5
4052.112	-57.5
4054.58	-35.5
4057.046	-49.5
4059.51	-32.5
4061.972	-41.5
4064.432	-54.5
4066.891	-24.5
4069.348	-33.5
4071.803	-35.5
4074.256	-34.5
4076.708	-29.5
4079.158	-33.5
4081.606	-17.5
4084.052	-35.5
4086.497	-27.5
4088.939	-33.5
4091.38	-37.5
4093.819	-29.5
4096.257	-0.5
4098.693	-5.5
4101.127	-3.5
4103.559	2.5
4105.989	60.5
4108.418	58.5
4110.845	48.5
4113.27	60.5
4115.694	61.5
4118.115	45.5
4120.535	-33.5
4122.954	-31.5
4125.37	-21.5
4127.785	-31.5
4130.198	-24.5
4132.609	-32.5
4135.019	10.5
4137.427	-1.5
4139.833	0.5
4142.237	-2.5
