Data from 2018-3-6_conc=4_n=4_RamanShift_05.txt Node
Date: Tue Mar 06 14:01:19 GMT+02:00 2018
User: LAB3
Spectrometer: QEPB0276
Trigger mode: 0
Integration Time (sec): 3.000000E1
Scans to average: 1
Electric dark correction enabled: true
Nonlinearity correction enabled: false
Boxcar width: 0
XAxis mode: Raman Shifts
Number of Pixels in Spectrum: 1044
>>>>>Begin Spectral Data<<<<<
160.701	78.88
166.742	108.88
172.777	158.88
178.805	326.88
184.826	757.88
190.841	1532.88
196.849	2383.88
202.85	3056.88
208.845	3280.88
214.833	3252.88
220.815	3203.88
226.789	3231.88
232.758	3227.88
238.719	3214.88
244.674	3187.88
250.623	3156.88
256.565	3130.88
262.5	3100.88
268.429	3075.88
274.351	3028.88
280.267	3058.88
286.176	3074.88
292.079	3075.88
297.975	3065.88
303.865	3076.88
309.748	3050.88
315.625	3052.88
321.495	3070.88
327.359	3054.88
333.217	3063.88
339.068	3049.88
344.912	3093.88
350.751	3070.88
356.583	3073.88
362.408	3119.88
368.227	3139.88
374.04	3114.88
379.847	3145.88
385.647	3161.88
391.44	3157.88
397.228	3181.88
403.009	3217.88
408.784	3227.88
414.553	3240.88
420.315	3276.88
426.071	3237.88
431.821	3233.88
437.565	3239.88
443.302	3238.88
449.033	3195.88
454.758	3196.88
460.477	3171.88
466.189	3138.88
471.896	3121.88
477.596	3088.88
483.29	3042.88
488.978	3063.88
494.66	3038.88
500.335	2965.88
506.005	2809.88
511.668	2694.88
517.325	2576.88
522.977	2456.88
528.622	2379.88
534.261	2331.88
539.894	2282.88
545.521	2258.88
551.141	2198.88
556.756	2188.88
562.365	2158.88
567.968	2156.88
573.565	2116.88
579.155	2131.88
584.74	2095.88
590.319	2120.88
595.892	2115.88
601.459	2114.88
607.02	2110.88
612.575	2084.88
618.124	2051.88
623.667	2010.88
629.204	1997.88
634.735	1975.88
640.261	1938.88
645.781	1930.88
651.294	1916.88
656.802	1903.88
662.304	1916.88
667.8	1911.88
673.29	1914.88
678.775	1903.88
684.254	1896.88
689.726	1862.88
695.193	1865.88
700.655	1852.88
706.11	1861.88
711.56	1837.88
717.004	1843.88
722.442	1804.88
727.874	1802.88
733.301	1821.88
738.722	1797.88
744.137	1793.88
749.547	1779.88
754.951	1807.88
760.349	1786.88
765.741	1811.88
771.128	1829.88
776.509	1837.88
781.885	1887.88
787.254	1898.88
792.618	1916.88
797.977	1887.88
803.33	1890.88
808.677	1854.88
814.019	1870.88
819.355	1823.88
824.686	1791.88
830.011	1795.88
835.33	1791.88
840.644	1794.88
845.952	1760.88
851.255	1762.88
856.552	1758.88
861.844	1729.88
867.13	1709.88
872.41	1693.88
877.686	1665.88
882.955	1659.88
888.219	1658.88
893.478	1626.88
898.731	1614.88
903.979	1600.88
909.221	1555.88
914.458	1551.88
919.69	1563.88
924.916	1565.88
930.136	1563.88
935.351	1561.88
940.561	1573.88
945.766	1569.88
950.965	1580.88
956.158	1549.88
961.347	1520.88
966.529	1513.88
971.707	1511.88
976.879	1471.88
982.046	1470.88
987.208	1435.88
992.364	1448.88
997.515	1458.88
1002.66	1472.88
1007.801	1476.88
1012.936	1474.88
1018.066	1478.88
1023.19	1499.88
1028.309	1504.88
1033.423	1505.88
1038.532	1515.88
1043.636	1490.88
1048.734	1510.88
1053.827	1462.88
1058.915	1457.88
1063.998	1459.88
1069.075	1452.88
1074.147	1453.88
1079.214	1426.88
1084.276	1446.88
1089.333	1439.88
1094.385	1465.88
1099.431	1437.88
1104.472	1440.88
1109.509	1418.88
1114.54	1415.88
1119.565	1381.88
1124.586	1378.88
1129.602	1364.88
1134.613	1324.88
1139.618	1324.88
1144.619	1332.88
1149.614	1350.88
1154.604	1351.88
1159.589	1340.88
1164.57	1359.88
1169.545	1360.88
1174.515	1353.88
1179.48	1341.88
1184.44	1332.88
1189.395	1357.88
1194.345	1303.88
1199.29	1307.88
1204.23	1315.88
1209.165	1310.88
1214.095	1316.88
1219.021	1325.88
1223.941	1303.88
1228.856	1326.88
1233.766	1325.88
1238.672	1339.88
1243.572	1344.88
1248.467	1316.88
1253.358	1303.88
1258.244	1266.88
1263.124	1279.88
1268	1251.88
1272.871	1208.88
1277.737	1206.88
1282.599	1195.88
1287.455	1192.88
1292.306	1219.88
1297.153	1202.88
1301.995	1213.88
1306.832	1214.88
1311.664	1205.88
1316.491	1194.88
1321.314	1207.88
1326.132	1188.88
1330.945	1195.88
1335.753	1164.88
1340.556	1151.88
1345.354	1136.88
1350.148	1133.88
1354.937	1123.88
1359.722	1087.88
1364.501	1081.88
1369.276	1086.88
1374.046	1102.88
1378.811	1073.88
1383.572	1097.88
1388.327	1084.88
1393.079	1067.88
1397.825	1063.88
1402.567	1051.88
1407.304	1041.88
1412.036	1046.88
1416.764	1032.88
1421.487	1006.88
1426.205	1018.88
1430.919	1044.88
1435.628	1042.88
1440.333	1044.88
1445.032	1062.88
1449.727	1060.88
1454.418	1063.88
1459.104	1066.88
1463.785	1042.88
1468.462	1050.88
1473.134	1020.88
1477.802	1002.88
1482.465	958.88
1487.123	977.88
1491.777	944.88
1496.426	956.88
1501.071	971.88
1505.711	949.88
1510.347	971.88
1514.978	971.88
1519.604	960.88
1524.226	989.88
1528.844	949.88
1533.457	967.88
1538.065	965.88
1542.669	964.88
1547.269	944.88
1551.864	940.88
1556.454	936.88
1561.041	942.88
1565.622	929.88
1570.199	946.88
1574.772	952.88
1579.34	947.88
1583.904	973.88
1588.464	980.88
1593.019	994.88
1597.569	962.88
1602.115	957.88
1606.657	964.88
1611.195	970.88
1615.728	963.88
1620.256	952.88
1624.78	927.88
1629.3	942.88
1633.816	942.88
1638.327	954.88
1642.834	966.88
1647.336	969.88
1651.834	989.88
1656.328	975.88
1660.817	956.88
1665.302	951.88
1669.783	929.88
1674.259	915.88
1678.732	912.88
1683.199	877.88
1687.663	858.88
1692.122	848.88
1696.577	842.88
1701.028	823.88
1705.474	798.88
1709.917	785.88
1714.355	777.88
1718.788	763.88
1723.218	761.88
1727.643	743.88
1732.064	739.88
1736.481	714.88
1740.893	727.88
1745.301	707.88
1749.705	661.88
1754.105	684.88
1758.501	651.88
1762.893	663.88
1767.28	625.88
1771.663	631.88
1776.042	632.88
1780.417	605.88
1784.787	630.88
1789.154	643.88
1793.516	630.88
1797.874	617.88
1802.228	616.88
1806.578	615.88
1810.924	617.88
1815.266	502.88
1819.603	618.88
1823.937	591.88
1828.266	588.88
1832.591	584.88
1836.913	582.88
1841.23	579.88
1845.543	570.88
1849.852	574.88
1854.156	561.88
1858.457	572.88
1862.754	577.88
1867.047	582.88
1871.335	583.88
1875.62	582.88
1879.9	583.88
1884.177	561.88
1888.449	571.88
1892.718	570.88
1896.982	577.88
1901.243	557.88
1905.499	553.88
1909.752	551.88
1914	529.88
1918.245	547.88
1922.485	550.88
1926.722	546.88
1930.954	548.88
1935.183	541.88
1939.408	556.88
1943.628	556.88
1947.845	543.88
1952.058	535.88
1956.267	522.88
1960.472	528.88
1964.673	523.88
1968.87	516.88
1973.063	504.88
1977.252	505.88
1981.438	491.88
1985.619	488.88
1989.797	481.88
1993.971	487.88
1998.14	489.88
2002.306	487.88
2006.469	490.88
2010.627	471.88
2014.781	480.88
2018.932	471.88
2023.078	489.88
2027.221	473.88
2031.36	452.88
2035.495	456.88
2039.627	455.88
2043.754	453.88
2047.878	444.88
2051.998	442.88
2056.114	442.88
2060.226	441.88
2064.334	442.88
2068.439	448.88
2072.54	439.88
2076.637	425.88
2080.73	435.88
2084.82	442.88
2088.906	415.88
2092.988	438.88
2097.066	439.88
2101.14	444.88
2105.211	434.88
2109.278	416.88
2113.342	415.88
2117.401	403.88
2121.457	397.88
2125.509	407.88
2129.558	408.88
2133.602	398.88
2137.643	399.88
2141.681	392.88
2145.714	392.88
2149.744	402.88
2153.77	393.88
2157.793	375.88
2161.812	355.88
2165.827	361.88
2169.838	375.88
2173.846	349.88
2177.851	355.88
2181.851	368.88
2185.848	355.88
2189.841	359.88
2193.831	341.88
2197.817	343.88
2201.799	336.88
2205.778	324.88
2209.753	318.88
2213.725	320.88
2217.693	328.88
2221.657	320.88
2225.618	330.88
2229.575	321.88
2233.529	325.88
2237.479	321.88
2241.425	312.88
2245.368	301.88
2249.307	310.88
2253.243	296.88
2257.175	293.88
2261.104	291.88
2265.029	299.88
2268.95	286.88
2272.868	275.88
2276.783	281.88
2280.694	278.88
2284.601	277.88
2288.505	277.88
2292.405	281.88
2296.302	252.88
2300.195	263.88
2304.085	231.88
2307.971	265.88
2311.854	230.88
2315.734	248.88
2319.609	244.88
2323.482	227.88
2327.351	227.88
2331.216	234.88
2335.078	243.88
2338.937	239.88
2342.792	219.88
2346.643	222.88
2350.492	230.88
2354.336	227.88
2358.178	228.88
2362.015	224.88
2365.85	225.88
2369.681	229.88
2373.508	229.88
2377.333	234.88
2381.153	234.88
2384.971	226.88
2388.785	220.88
2392.595	215.88
2396.402	208.88
2400.206	196.88
2404.007	208.88
2407.804	211.88
2411.597	223.88
2415.388	213.88
2419.174	214.88
2422.958	209.88
2426.738	211.88
2430.515	218.88
2434.289	199.88
2438.059	198.88
2441.825	207.88
2445.589	210.88
2449.349	181.88
2453.106	203.88
2456.859	188.88
2460.61	200.88
2464.356	186.88
2468.1	180.88
2471.84	186.88
2475.577	181.88
2479.311	180.88
2483.041	184.88
2486.768	189.88
2490.492	189.88
2494.213	180.88
2497.93	166.88
2501.644	165.88
2505.355	178.88
2509.062	178.88
2512.766	172.88
2516.467	165.88
2520.165	172.88
2523.859	158.88
2527.551	190.88
2531.239	167.88
2534.923	166.88
2538.605	163.88
2542.283	157.88
2545.958	159.88
2549.63	171.88
2553.299	167.88
2556.964	155.88
2560.626	155.88
2564.285	165.88
2567.941	146.88
2571.594	146.88
2575.243	156.88
2578.89	153.88
2582.533	150.88
2586.173	144.88
2589.809	155.88
2593.443	127.88
2597.073	153.88
2600.701	144.88
2604.325	139.88
2607.946	132.88
2611.564	148.88
2615.178	140.88
2618.79	144.88
2622.398	129.88
2626.004	139.88
2629.606	131.88
2633.205	122.88
2636.801	141.88
2640.394	138.88
2643.983	126.88
2647.57	126.88
2651.153	122.88
2654.734	135.88
2658.311	107.88
2661.885	120.88
2665.456	118.88
2669.025	118.88
2672.589	112.88
2676.151	131.88
2679.71	122.88
2683.266	116.88
2686.819	106.88
2690.368	116.88
2693.915	117.88
2697.458	106.88
2700.999	119.88
2704.536	111.88
2708.071	116.88
2711.602	108.88
2715.13	105.88
2718.656	82.88
2722.178	98.88
2725.697	90.88
2729.214	101.88
2732.727	104.88
2736.237	87.88
2739.744	95.88
2743.249	96.88
2746.75	92.88
2750.248	87.88
2753.743	93.88
2757.236	94.88
2760.725	98.88
2764.211	73.88
2767.695	97.88
2771.175	92.88
2774.652	95.88
2778.127	92.88
2781.598	88.88
2785.067	93.88
2788.532	79.88
2791.995	94.88
2795.455	87.88
2798.911	94.88
2802.365	88.88
2805.816	94.88
2809.264	103.88
2812.709	84.88
2816.151	95.88
2819.59	80.88
2823.026	96.88
2826.46	87.88
2829.89	100.88
2833.318	68.88
2836.742	86.88
2840.164	91.88
2843.583	87.88
2846.999	98.88
2850.412	94.88
2853.822	83.88
2857.229	106.88
2860.634	95.88
2864.035	80.88
2867.434	99.88
2870.83	102.88
2874.223	96.88
2877.613	100.88
2881	95.88
2884.385	95.88
2887.766	98.88
2891.145	106.88
2894.521	99.88
2897.894	89.88
2901.264	104.88
2904.631	99.88
2907.996	109.88
2911.358	110.88
2914.717	106.88
2918.073	94.88
2921.426	100.88
2924.777	94.88
2928.124	107.88
2931.469	117.88
2934.811	99.88
2938.15	123.88
2941.487	111.88
2944.821	123.88
2948.152	116.88
2951.48	121.88
2954.805	109.88
2958.128	133.88
2961.447	112.88
2964.765	130.88
2968.079	116.88
2971.39	117.88
2974.699	118.88
2978.005	121.88
2981.308	117.88
2984.609	116.88
2987.907	131.88
2991.202	129.88
2994.494	121.88
2997.784	131.88
3001.07	124.88
3004.355	125.88
3007.636	124.88
3010.915	132.88
3014.191	123.88
3017.464	129.88
3020.734	131.88
3024.002	140.88
3027.267	135.88
3030.53	139.88
3033.789	143.88
3037.046	144.88
3040.301	142.88
3043.552	147.88
3046.801	148.88
3050.048	161.88
3053.291	176.88
3056.532	163.88
3059.771	157.88
3063.006	171.88
3066.239	169.88
3069.469	177.88
3072.697	177.88
3075.922	181.88
3079.144	181.88
3082.364	206.88
3085.581	190.88
3088.795	215.88
3092.007	213.88
3095.216	215.88
3098.423	211.88
3101.627	191.88
3104.828	228.88
3108.026	222.88
3111.222	242.88
3114.416	246.88
3117.607	239.88
3120.795	241.88
3123.98	249.88
3127.163	245.88
3130.344	251.88
3133.521	254.88
3136.696	274.88
3139.869	276.88
3143.039	268.88
3146.206	297.88
3149.371	298.88
3152.533	285.88
3155.693	282.88
3158.85	297.88
3162.005	299.88
3165.157	290.88
3168.306	304.88
3171.453	306.88
3174.597	294.88
3177.739	289.88
3180.878	304.88
3184.014	305.88
3187.149	309.88
3190.28	307.88
3193.409	310.88
3196.536	305.88
3199.659	318.88
3202.781	315.88
3205.9	299.88
3209.016	312.88
3212.13	307.88
3215.241	305.88
3218.35	300.88
3221.456	297.88
3224.56	291.88
3227.661	293.88
3230.76	288.88
3233.856	286.88
3236.95	294.88
3240.041	280.88
3243.13	293.88
3246.216	284.88
3249.3	281.88
3252.382	278.88
3255.46	268.88
3258.537	226.88
3261.611	269.88
3264.682	265.88
3267.751	268.88
3270.818	262.88
3273.882	273.88
3276.943	263.88
3280.002	289.88
3283.059	262.88
3286.113	262.88
3289.165	255.88
3292.214	241.88
3295.261	263.88
3298.306	239.88
3301.348	254.88
3304.387	238.88
3307.425	244.88
3310.459	234.88
3313.492	244.88
3316.521	230.88
3319.549	241.88
3322.574	238.88
3325.597	229.88
3328.617	231.88
3331.635	222.88
3334.65	214.88
3337.663	231.88
3340.674	226.88
3343.682	221.88
3346.688	230.88
3349.691	212.88
3352.692	221.88
3355.691	229.88
3358.687	215.88
3361.681	220.88
3364.673	212.88
3367.662	217.88
3370.649	222.88
3373.633	204.88
3376.615	212.88
3379.595	190.88
3382.572	203.88
3385.547	182.88
3388.52	188.88
3391.49	184.88
3394.458	185.88
3397.424	199.88
3400.387	180.88
3403.348	185.88
3406.307	178.88
3409.263	181.88
3412.217	184.88
3415.168	179.88
3418.118	187.88
3421.065	174.88
3424.009	181.88
3426.951	164.88
3429.891	167.88
3432.829	161.88
3435.764	168.88
3438.697	155.88
3441.628	161.88
3444.557	137.88
3447.483	138.88
3450.407	145.88
3453.328	134.88
3456.247	126.88
3459.164	122.88
3462.079	135.88
3464.991	130.88
3467.902	118.88
3470.809	122.88
3473.715	119.88
3476.618	104.88
3479.519	107.88
3482.418	84.88
3485.315	92.88
3488.209	90.88
3491.101	88.88
3493.99	81.88
3496.878	78.88
3499.763	84.88
3502.646	89.88
3505.527	65.88
3508.405	71.88
3511.281	61.88
3514.155	63.88
3517.027	61.88
3519.897	54.88
3522.764	61.88
3525.629	41.88
3528.492	50.88
3531.352	50.88
3534.211	49.88
3537.067	45.88
3539.921	42.88
3542.773	43.88
3545.622	26.88
3548.469	24.88
3551.315	21.88
3554.157	32.88
3556.998	22.88
3559.837	26.88
3562.673	22.88
3565.507	16.88
3568.339	13.88
3571.169	14.88
3573.996	18.88
3576.822	3.88
3579.645	9.88
3582.466	6.88
3585.285	8.88
3588.101	10.88
3590.916	4.88
3593.728	8.88
3596.538	2.88
3599.346	5.88
3602.152	-9.12
3604.956	-2.12
3607.757	2.88
3610.556	-12.12
3613.354	-3.12
3616.149	-4.12
3618.942	-0.12
3621.732	3.88
3624.521	-12.12
3627.307	-20.12
3630.092	-12.12
3632.874	1.88
3635.654	-11.12
3638.432	-15.12
3641.208	-16.12
3643.982	-17.12
3646.753	-2.12
3649.523	-35.12
3652.29	-13.12
3655.055	-5.12
3657.818	-11.12
3660.579	-20.12
3663.338	-25.12
3666.095	-24.12
3668.849	-44.12
3671.602	-16.12
3674.352	-33.12
3677.101	-12.12
3679.847	-14.12
3682.591	-28.12
3685.333	-35.12
3688.073	-23.12
3690.811	-34.12
3693.547	-40.12
3696.281	-34.12
3699.013	-20.12
3701.742	-26.12
3704.47	-36.12
3707.195	-20.12
3709.919	-28.12
3712.64	-27.12
3715.359	-36.12
3718.076	-19.12
3720.792	-28.12
3723.505	-23.12
3726.216	-13.12
3728.925	-26.12
3731.632	-39.12
3734.336	-29.12
3737.039	-31.12
3739.74	-21.12
3742.439	-52.12
3745.136	-20.12
3747.83	-24.12
3750.523	-28.12
3753.213	-92.12
3755.902	-33.12
3758.589	-43.12
3761.273	-35.12
3763.956	-23.12
3766.636	-43.12
3769.315	-21.12
3771.991	-29.12
3774.665	-34.12
3777.338	-31.12
3780.008	-40.12
3782.677	-33.12
3785.343	-48.12
3788.007	-53.12
3790.67	-25.12
3793.33	-46.12
3795.989	-36.12
3798.645	-27.12
3801.299	-41.12
3803.952	-42.12
3806.602	-35.12
3809.251	-25.12
3811.897	-33.12
3814.542	-38.12
3817.184	-39.12
3819.825	-30.12
3822.463	-44.12
3825.1	-35.12
3827.735	-35.12
3830.367	-42.12
3832.998	-20.12
3835.627	-35.12
3838.253	-22.12
3840.878	-33.12
3843.501	-15.12
3846.122	-29.12
3848.741	-27.12
3851.358	-26.12
3853.973	-42.12
3856.586	-21.12
3859.197	-34.12
3861.806	-31.12
3864.414	-45.12
3867.019	-31.12
3869.622	-25.12
3872.224	-25.12
3874.823	-13.12
3877.421	10.88
3880.016	20.88
3882.61	46.88
3885.202	53.88
3887.792	39.88
3890.38	15.88
3892.966	-16.12
3895.55	-32.12
3898.132	-25.12
3900.713	-26.12
3903.291	-35.12
3905.868	-39.12
3908.442	-31.12
3911.015	-38.12
3913.586	-36.12
3916.155	-36.12
3918.722	-38.12
3921.287	-37.12
3923.85	-48.12
3926.411	-38.12
3928.971	-36.12
3931.528	-32.12
3934.084	-32.12
3936.638	-49.12
3939.19	-27.12
3941.74	-33.12
3944.288	-39.12
3946.834	-37.12
3949.378	-27.12
3951.921	-35.12
3954.462	-35.12
3957	-32.12
3959.537	-23.12
3962.072	-35.12
3964.606	-47.12
3967.137	-38.12
3969.667	-40.12
3972.194	-30.12
3974.72	-38.12
3977.244	-56.12
3979.766	-42.12
3982.286	-39.12
3984.805	-29.12
3987.321	-20.12
3989.836	-25.12
3992.349	-37.12
3994.86	-32.12
3997.369	-39.12
3999.877	-35.12
4002.382	-38.12
4004.886	-26.12
4007.388	-33.12
4009.888	-21.12
4012.386	-23.12
4014.883	-26.12
4017.377	-31.12
4019.87	-30.12
4022.361	-39.12
4024.85	-34.12
4027.338	-31.12
4029.823	-35.12
4032.307	-37.12
4034.789	-33.12
4037.269	-28.12
4039.747	-47.12
4042.224	-24.12
4044.699	-37.12
4047.172	-35.12
4049.643	-21.12
4052.112	-60.12
4054.58	-31.12
4057.046	-44.12
4059.51	-29.12
4061.972	-31.12
4064.432	-45.12
4066.891	-20.12
4069.348	-30.12
4071.803	-29.12
4074.256	-34.12
4076.708	-27.12
4079.158	-30.12
4081.606	-22.12
4084.052	-30.12
4086.497	-28.12
4088.939	-27.12
4091.38	-31.12
4093.819	-23.12
4096.257	-0.12
4098.693	-9.12
4101.127	-4.12
4103.559	1.88
4105.989	73.88
4108.418	75.88
4110.845	63.88
4113.27	73.88
4115.694	81.88
4118.115	68.88
4120.535	-25.12
4122.954	-24.12
4125.37	-19.12
4127.785	-31.12
4130.198	-22.12
4132.609	-25.12
4135.019	9.88
4137.427	0.88
4139.833	4.88
4142.237	-4.12
