Data from 2018-3-6_conc=3_n=5_RamanShift_04.txt Node
Date: Tue Mar 06 13:27:49 GMT+02:00 2018
User: LAB3
Spectrometer: QEPB0276
Trigger mode: 0
Integration Time (sec): 3.000000E1
Scans to average: 1
Electric dark correction enabled: true
Nonlinearity correction enabled: false
Boxcar width: 0
XAxis mode: Raman Shifts
Number of Pixels in Spectrum: 1044
>>>>>Begin Spectral Data<<<<<
160.701	127.88
166.742	163.88
172.777	227.88
178.805	486.88
184.826	1087.88
190.841	2153.88
196.849	3452.88
202.85	4411.88
208.845	4734.88
214.833	4748.88
220.815	4707.88
226.789	4700.88
232.758	4712.88
238.719	4710.88
244.674	4690.88
250.623	4680.88
256.565	4625.88
262.5	4587.88
268.429	4549.88
274.351	4544.88
280.267	4517.88
286.176	4566.88
292.079	4551.88
297.975	4551.88
303.865	4566.88
309.748	4564.88
315.625	4558.88
321.495	4572.88
327.359	4614.88
333.217	4584.88
339.068	4616.88
344.912	4661.88
350.751	4664.88
356.583	4694.88
362.408	4650.88
368.227	4709.88
374.04	4728.88
379.847	4779.88
385.647	4806.88
391.44	4804.88
397.228	4832.88
403.009	4867.88
408.784	4879.88
414.553	4914.88
420.315	4949.88
426.071	4879.88
431.821	4905.88
437.565	4916.88
443.302	4923.88
449.033	4862.88
454.758	4841.88
460.477	4810.88
466.189	4788.88
471.896	4710.88
477.596	4702.88
483.29	4679.88
488.978	4653.88
494.66	4628.88
500.335	4537.88
506.005	4333.88
511.668	4120.88
517.325	3908.88
522.977	3749.88
528.622	3622.88
534.261	3536.88
539.894	3445.88
545.521	3413.88
551.141	3366.88
556.756	3314.88
562.365	3322.88
567.968	3294.88
573.565	3274.88
579.155	3243.88
584.74	3207.88
590.319	3216.88
595.892	3216.88
601.459	3205.88
607.02	3209.88
612.575	3167.88
618.124	3144.88
623.667	3073.88
629.204	3042.88
634.735	2992.88
640.261	2983.88
645.781	2937.88
651.294	2921.88
656.802	2924.88
662.304	2914.88
667.8	2924.88
673.29	2908.88
678.775	2886.88
684.254	2875.88
689.726	2844.88
695.193	2844.88
700.655	2859.88
706.11	2818.88
711.56	2774.88
717.004	2811.88
722.442	2751.88
727.874	2765.88
733.301	2769.88
738.722	2721.88
744.137	2731.88
749.547	2733.88
754.951	2733.88
760.349	2755.88
765.741	2766.88
771.128	2768.88
776.509	2791.88
781.885	2846.88
787.254	2891.88
792.618	2869.88
797.977	2894.88
803.33	2867.88
808.677	2824.88
814.019	2817.88
819.355	2797.88
824.686	2760.88
830.011	2734.88
835.33	2752.88
840.644	2746.88
845.952	2695.88
851.255	2678.88
856.552	2660.88
861.844	2629.88
867.13	2597.88
872.41	2571.88
877.686	2558.88
882.955	2536.88
888.219	2521.88
893.478	2454.88
898.731	2443.88
903.979	2403.88
909.221	2390.88
914.458	2381.88
919.69	2369.88
924.916	2374.88
930.136	2390.88
935.351	2361.88
940.561	2385.88
945.766	2359.88
950.965	2372.88
956.158	2336.88
961.347	2303.88
966.529	2277.88
971.707	2283.88
976.879	2226.88
982.046	2216.88
987.208	2190.88
992.364	2207.88
997.515	2188.88
1002.66	2201.88
1007.801	2234.88
1012.936	2254.88
1018.066	2258.88
1023.19	2269.88
1028.309	2276.88
1033.423	2278.88
1038.532	2302.88
1043.636	2267.88
1048.734	2263.88
1053.827	2230.88
1058.915	2205.88
1063.998	2198.88
1069.075	2167.88
1074.147	2192.88
1079.214	2165.88
1084.276	2199.88
1089.333	2214.88
1094.385	2215.88
1099.431	2176.88
1104.472	2180.88
1109.509	2152.88
1114.54	2121.88
1119.565	2112.88
1124.586	2068.88
1129.602	2041.88
1134.613	2015.88
1139.618	2019.88
1144.619	2023.88
1149.614	2036.88
1154.604	2028.88
1159.589	2030.88
1164.57	2027.88
1169.545	2062.88
1174.515	2062.88
1179.48	2032.88
1184.44	2016.88
1189.395	2017.88
1194.345	1984.88
1199.29	1991.88
1204.23	1966.88
1209.165	1985.88
1214.095	2011.88
1219.021	1991.88
1223.941	1994.88
1228.856	2004.88
1233.766	2026.88
1238.672	2013.88
1243.572	2011.88
1248.467	2001.88
1253.358	1962.88
1258.244	1938.88
1263.124	1909.88
1268	1891.88
1272.871	1843.88
1277.737	1838.88
1282.599	1817.88
1287.455	1817.88
1292.306	1831.88
1297.153	1815.88
1301.995	1816.88
1306.832	1827.88
1311.664	1824.88
1316.491	1833.88
1321.314	1835.88
1326.132	1813.88
1330.945	1790.88
1335.753	1760.88
1340.556	1736.88
1345.354	1700.88
1350.148	1680.88
1354.937	1670.88
1359.722	1644.88
1364.501	1641.88
1369.276	1625.88
1374.046	1619.88
1378.811	1619.88
1383.572	1635.88
1388.327	1607.88
1393.079	1593.88
1397.825	1583.88
1402.567	1584.88
1407.304	1573.88
1412.036	1563.88
1416.764	1556.88
1421.487	1553.88
1426.205	1558.88
1430.919	1551.88
1435.628	1555.88
1440.333	1556.88
1445.032	1581.88
1449.727	1592.88
1454.418	1586.88
1459.104	1585.88
1463.785	1568.88
1468.462	1544.88
1473.134	1521.88
1477.802	1501.88
1482.465	1461.88
1487.123	1457.88
1491.777	1431.88
1496.426	1435.88
1501.071	1461.88
1505.711	1441.88
1510.347	1472.88
1514.978	1463.88
1519.604	1454.88
1524.226	1488.88
1528.844	1468.88
1533.457	1459.88
1538.065	1443.88
1542.669	1449.88
1547.269	1410.88
1551.864	1422.88
1556.454	1402.88
1561.041	1405.88
1565.622	1401.88
1570.199	1408.88
1574.772	1428.88
1579.34	1451.88
1583.904	1476.88
1588.464	1488.88
1593.019	1474.88
1597.569	1452.88
1602.115	1452.88
1606.657	1461.88
1611.195	1455.88
1615.728	1452.88
1620.256	1425.88
1624.78	1410.88
1629.3	1444.88
1633.816	1448.88
1638.327	1426.88
1642.834	1466.88
1647.336	1472.88
1651.834	1493.88
1656.328	1477.88
1660.817	1471.88
1665.302	1452.88
1669.783	1413.88
1674.259	1407.88
1678.732	1366.88
1683.199	1335.88
1687.663	1305.88
1692.122	1278.88
1696.577	1244.88
1701.028	1234.88
1705.474	1215.88
1709.917	1166.88
1714.355	1163.88
1718.788	1162.88
1723.218	1151.88
1727.643	1112.88
1732.064	1118.88
1736.481	1084.88
1740.893	1078.88
1745.301	1055.88
1749.705	1009.88
1754.105	1009.88
1758.501	975.88
1762.893	981.88
1767.28	943.88
1771.663	938.88
1776.042	926.88
1780.417	933.88
1784.787	923.88
1789.154	939.88
1793.516	930.88
1797.874	925.88
1802.228	922.88
1806.578	921.88
1810.924	938.88
1815.266	813.88
1819.603	914.88
1823.937	878.88
1828.266	884.88
1832.591	877.88
1836.913	860.88
1841.23	861.88
1845.543	852.88
1849.852	849.88
1854.156	857.88
1858.457	844.88
1862.754	851.88
1867.047	839.88
1871.335	867.88
1875.62	859.88
1879.9	869.88
1884.177	852.88
1888.449	851.88
1892.718	850.88
1896.982	849.88
1901.243	819.88
1905.499	825.88
1909.752	822.88
1914	797.88
1918.245	842.88
1922.485	825.88
1926.722	817.88
1930.954	816.88
1935.183	828.88
1939.408	843.88
1943.628	824.88
1947.845	825.88
1952.058	828.88
1956.267	801.88
1960.472	807.88
1964.673	774.88
1968.87	771.88
1973.063	771.88
1977.252	737.88
1981.438	743.88
1985.619	731.88
1989.797	711.88
1993.971	723.88
1998.14	732.88
2002.306	724.88
2006.469	730.88
2010.627	719.88
2014.781	699.88
2018.932	697.88
2023.078	727.88
2027.221	701.88
2031.36	683.88
2035.495	681.88
2039.627	685.88
2043.754	666.88
2047.878	648.88
2051.998	663.88
2056.114	667.88
2060.226	656.88
2064.334	665.88
2068.439	666.88
2072.54	670.88
2076.637	660.88
2080.73	655.88
2084.82	662.88
2088.906	669.88
2092.988	650.88
2097.066	662.88
2101.14	670.88
2105.211	649.88
2109.278	633.88
2113.342	628.88
2117.401	631.88
2121.457	606.88
2125.509	604.88
2129.558	615.88
2133.602	615.88
2137.643	605.88
2141.681	601.88
2145.714	594.88
2149.744	585.88
2153.77	584.88
2157.793	572.88
2161.812	550.88
2165.827	550.88
2169.838	565.88
2173.846	544.88
2177.851	542.88
2181.851	543.88
2185.848	521.88
2189.841	524.88
2193.831	527.88
2197.817	522.88
2201.799	501.88
2205.778	502.88
2209.753	503.88
2213.725	485.88
2217.693	498.88
2221.657	486.88
2225.618	495.88
2229.575	487.88
2233.529	485.88
2237.479	481.88
2241.425	472.88
2245.368	447.88
2249.307	452.88
2253.243	454.88
2257.175	451.88
2261.104	438.88
2265.029	435.88
2268.95	429.88
2272.868	429.88
2276.783	416.88
2280.694	419.88
2284.601	404.88
2288.505	402.88
2292.405	405.88
2296.302	393.88
2300.195	390.88
2304.085	362.88
2307.971	375.88
2311.854	353.88
2315.734	370.88
2319.609	366.88
2323.482	342.88
2327.351	348.88
2331.216	346.88
2335.078	352.88
2338.937	355.88
2342.792	342.88
2346.643	336.88
2350.492	350.88
2354.336	337.88
2358.178	347.88
2362.015	337.88
2365.85	338.88
2369.681	352.88
2373.508	346.88
2377.333	341.88
2381.153	343.88
2384.971	334.88
2388.785	337.88
2392.595	324.88
2396.402	326.88
2400.206	305.88
2404.007	319.88
2407.804	322.88
2411.597	324.88
2415.388	321.88
2419.174	317.88
2422.958	315.88
2426.738	306.88
2430.515	311.88
2434.289	301.88
2438.059	302.88
2441.825	299.88
2445.589	314.88
2449.349	285.88
2453.106	305.88
2456.859	292.88
2460.61	299.88
2464.356	284.88
2468.1	279.88
2471.84	283.88
2475.577	273.88
2479.311	280.88
2483.041	281.88
2486.768	291.88
2490.492	295.88
2494.213	277.88
2497.93	271.88
2501.644	257.88
2505.355	272.88
2509.062	272.88
2512.766	263.88
2516.467	261.88
2520.165	266.88
2523.859	256.88
2527.551	280.88
2531.239	249.88
2534.923	262.88
2538.605	256.88
2542.283	254.88
2545.958	255.88
2549.63	264.88
2553.299	267.88
2556.964	245.88
2560.626	249.88
2564.285	249.88
2567.941	243.88
2571.594	239.88
2575.243	249.88
2578.89	238.88
2582.533	240.88
2586.173	229.88
2589.809	247.88
2593.443	214.88
2597.073	228.88
2600.701	243.88
2604.325	218.88
2607.946	217.88
2611.564	225.88
2615.178	218.88
2618.79	228.88
2622.398	209.88
2626.004	217.88
2629.606	215.88
2633.205	204.88
2636.801	220.88
2640.394	210.88
2643.983	204.88
2647.57	201.88
2651.153	185.88
2654.734	205.88
2658.311	181.88
2661.885	185.88
2665.456	188.88
2669.025	192.88
2672.589	180.88
2676.151	206.88
2679.71	201.88
2683.266	174.88
2686.819	171.88
2690.368	182.88
2693.915	188.88
2697.458	180.88
2700.999	181.88
2704.536	180.88
2708.071	168.88
2711.602	171.88
2715.13	169.88
2718.656	150.88
2722.178	170.88
2725.697	151.88
2729.214	158.88
2732.727	164.88
2736.237	142.88
2739.744	152.88
2743.249	153.88
2746.75	156.88
2750.248	153.88
2753.743	153.88
2757.236	157.88
2760.725	161.88
2764.211	130.88
2767.695	162.88
2771.175	159.88
2774.652	154.88
2778.127	146.88
2781.598	154.88
2785.067	151.88
2788.532	143.88
2791.995	151.88
2795.455	142.88
2798.911	159.88
2802.365	149.88
2805.816	158.88
2809.264	161.88
2812.709	145.88
2816.151	159.88
2819.59	150.88
2823.026	148.88
2826.46	147.88
2829.89	164.88
2833.318	139.88
2836.742	152.88
2840.164	153.88
2843.583	156.88
2846.999	153.88
2850.412	156.88
2853.822	151.88
2857.229	168.88
2860.634	159.88
2864.035	144.88
2867.434	171.88
2870.83	164.88
2874.223	164.88
2877.613	169.88
2881	159.88
2884.385	172.88
2887.766	173.88
2891.145	166.88
2894.521	161.88
2897.894	161.88
2901.264	177.88
2904.631	177.88
2907.996	176.88
2911.358	190.88
2914.717	170.88
2918.073	177.88
2921.426	176.88
2924.777	164.88
2928.124	175.88
2931.469	200.88
2934.811	177.88
2938.15	208.88
2941.487	200.88
2944.821	217.88
2948.152	201.88
2951.48	205.88
2954.805	198.88
2958.128	211.88
2961.447	196.88
2964.765	212.88
2968.079	202.88
2971.39	211.88
2974.699	208.88
2978.005	214.88
2981.308	206.88
2984.609	199.88
2987.907	221.88
2991.202	216.88
2994.494	213.88
2997.784	231.88
3001.07	226.88
3004.355	227.88
3007.636	235.88
3010.915	235.88
3014.191	233.88
3017.464	236.88
3020.734	229.88
3024.002	235.88
3027.267	239.88
3030.53	239.88
3033.789	240.88
3037.046	252.88
3040.301	237.88
3043.552	254.88
3046.801	269.88
3050.048	276.88
3053.291	293.88
3056.532	280.88
3059.771	276.88
3063.006	301.88
3066.239	300.88
3069.469	321.88
3072.697	311.88
3075.922	312.88
3079.144	323.88
3082.364	338.88
3085.581	342.88
3088.795	363.88
3092.007	355.88
3095.216	379.88
3098.423	361.88
3101.627	342.88
3104.828	377.88
3108.026	378.88
3111.222	410.88
3114.416	435.88
3117.607	411.88
3120.795	423.88
3123.98	432.88
3127.163	426.88
3130.344	437.88
3133.521	451.88
3136.696	471.88
3139.869	471.88
3143.039	472.88
3146.206	501.88
3149.371	496.88
3152.533	495.88
3155.693	488.88
3158.85	505.88
3162.005	516.88
3165.157	501.88
3168.306	513.88
3171.453	527.88
3174.597	508.88
3177.739	494.88
3180.878	528.88
3184.014	528.88
3187.149	520.88
3190.28	526.88
3193.409	531.88
3196.536	535.88
3199.659	539.88
3202.781	538.88
3205.9	518.88
3209.016	541.88
3212.13	530.88
3215.241	528.88
3218.35	532.88
3221.456	517.88
3224.56	505.88
3227.661	515.88
3230.76	509.88
3233.856	501.88
3236.95	504.88
3240.041	492.88
3243.13	506.88
3246.216	488.88
3249.3	495.88
3252.382	494.88
3255.46	494.88
3258.537	444.88
3261.611	480.88
3264.682	484.88
3267.751	477.88
3270.818	466.88
3273.882	478.88
3276.943	474.88
3280.002	489.88
3283.059	460.88
3286.113	460.88
3289.165	457.88
3292.214	442.88
3295.261	451.88
3298.306	428.88
3301.348	438.88
3304.387	418.88
3307.425	426.88
3310.459	419.88
3313.492	429.88
3316.521	417.88
3319.549	418.88
3322.574	410.88
3325.597	404.88
3328.617	401.88
3331.635	381.88
3334.65	379.88
3337.663	404.88
3340.674	389.88
3343.682	381.88
3346.688	398.88
3349.691	385.88
3352.692	382.88
3355.691	396.88
3358.687	382.88
3361.681	375.88
3364.673	371.88
3367.662	374.88
3370.649	388.88
3373.633	358.88
3376.615	369.88
3379.595	343.88
3382.572	351.88
3385.547	341.88
3388.52	340.88
3391.49	336.88
3394.458	325.88
3397.424	335.88
3400.387	327.88
3403.348	328.88
3406.307	320.88
3409.263	314.88
3412.217	326.88
3415.168	313.88
3418.118	328.88
3421.065	303.88
3424.009	313.88
3426.951	298.88
3429.891	290.88
3432.829	290.88
3435.764	291.88
3438.697	277.88
3441.628	278.88
3444.557	259.88
3447.483	254.88
3450.407	262.88
3453.328	244.88
3456.247	239.88
3459.164	228.88
3462.079	243.88
3464.991	227.88
3467.902	218.88
3470.809	212.88
3473.715	219.88
3476.618	200.88
3479.519	191.88
3482.418	166.88
3485.315	178.88
3488.209	170.88
3491.101	173.88
3493.99	161.88
3496.878	159.88
3499.763	164.88
3502.646	155.88
3505.527	144.88
3508.405	142.88
3511.281	133.88
3514.155	135.88
3517.027	127.88
3519.897	116.88
3522.764	120.88
3525.629	94.88
3528.492	113.88
3531.352	111.88
3534.211	99.88
3537.067	91.88
3539.921	85.88
3542.773	99.88
3545.622	71.88
3548.469	70.88
3551.315	65.88
3554.157	76.88
3556.998	59.88
3559.837	64.88
3562.673	63.88
3565.507	56.88
3568.339	49.88
3571.169	51.88
3573.996	51.88
3576.822	33.88
3579.645	41.88
3582.466	36.88
3585.285	44.88
3588.101	35.88
3590.916	31.88
3593.728	42.88
3596.538	28.88
3599.346	31.88
3602.152	17.88
3604.956	22.88
3607.757	22.88
3610.556	11.88
3613.354	26.88
3616.149	17.88
3618.942	20.88
3621.732	18.88
3624.521	11.88
3627.307	-0.12
3630.092	-0.12
3632.874	18.88
3635.654	5.88
3638.432	0.88
3641.208	-0.12
3643.982	-1.12
3646.753	11.88
3649.523	-28.12
3652.29	-3.12
3655.055	1.88
3657.818	-2.12
3660.579	-5.12
3663.338	-18.12
3666.095	-11.12
3668.849	-26.12
3671.602	-6.12
3674.352	-27.12
3677.101	0.88
3679.847	-4.12
3682.591	-22.12
3685.333	-22.12
3688.073	-17.12
3690.811	-25.12
3693.547	-30.12
3696.281	-26.12
3699.013	-13.12
3701.742	-18.12
3704.47	-30.12
3707.195	-15.12
3709.919	-18.12
3712.64	-21.12
3715.359	-36.12
3718.076	-16.12
3720.792	-21.12
3723.505	-21.12
3726.216	-9.12
3728.925	-27.12
3731.632	-29.12
3734.336	-21.12
3737.039	-22.12
3739.74	-23.12
3742.439	-51.12
3745.136	-18.12
3747.83	-22.12
3750.523	-21.12
3753.213	-88.12
3755.902	-28.12
3758.589	-40.12
3761.273	-34.12
3763.956	-18.12
3766.636	-39.12
3769.315	-5.12
3771.991	-24.12
3774.665	-28.12
3777.338	-26.12
3780.008	-35.12
3782.677	-30.12
3785.343	-47.12
3788.007	-45.12
3790.67	-25.12
3793.33	-43.12
3795.989	-31.12
3798.645	-32.12
3801.299	-43.12
3803.952	-39.12
3806.602	-31.12
3809.251	-28.12
3811.897	-31.12
3814.542	-34.12
3817.184	-31.12
3819.825	-29.12
3822.463	-42.12
3825.1	-30.12
3827.735	-28.12
3830.367	-39.12
3832.998	-16.12
3835.627	-32.12
3838.253	-25.12
3840.878	-34.12
3843.501	-18.12
3846.122	-29.12
3848.741	-28.12
3851.358	-27.12
3853.973	-41.12
3856.586	-25.12
3859.197	-39.12
3861.806	-30.12
3864.414	-38.12
3867.019	-31.12
3869.622	-18.12
3872.224	-17.12
3874.823	-4.12
3877.421	18.88
3880.016	37.88
3882.61	71.88
3885.202	88.88
3887.792	65.88
3890.38	33.88
3892.966	-4.12
3895.55	-35.12
3898.132	-22.12
3900.713	-21.12
3903.291	-28.12
3905.868	-38.12
3908.442	-34.12
3911.015	-31.12
3913.586	-38.12
3916.155	-35.12
3918.722	-40.12
3921.287	-36.12
3923.85	-46.12
3926.411	-35.12
3928.971	-36.12
3931.528	-30.12
3934.084	-38.12
3936.638	-43.12
3939.19	-30.12
3941.74	-31.12
3944.288	-39.12
3946.834	-35.12
3949.378	-23.12
3951.921	-42.12
3954.462	-36.12
3957	-33.12
3959.537	-20.12
3962.072	-33.12
3964.606	-49.12
3967.137	-38.12
3969.667	-36.12
3972.194	-27.12
3974.72	-39.12
3977.244	-51.12
3979.766	-40.12
3982.286	-41.12
3984.805	-29.12
3987.321	-27.12
3989.836	-25.12
3992.349	-36.12
3994.86	-33.12
3997.369	-42.12
3999.877	-33.12
4002.382	-33.12
4004.886	-34.12
4007.388	-27.12
4009.888	-23.12
4012.386	-18.12
4014.883	-27.12
4017.377	-28.12
4019.87	-28.12
4022.361	-39.12
4024.85	-30.12
4027.338	-31.12
4029.823	-37.12
4032.307	-31.12
4034.789	-30.12
4037.269	-30.12
4039.747	-44.12
4042.224	-22.12
4044.699	-36.12
4047.172	-31.12
4049.643	-23.12
4052.112	-52.12
4054.58	-29.12
4057.046	-35.12
4059.51	-37.12
4061.972	-30.12
4064.432	-45.12
4066.891	-22.12
4069.348	-31.12
4071.803	-28.12
4074.256	-36.12
4076.708	-29.12
4079.158	-28.12
4081.606	-20.12
4084.052	-32.12
4086.497	-27.12
4088.939	-29.12
4091.38	-32.12
4093.819	-25.12
4096.257	3.88
4098.693	-5.12
4101.127	-3.12
4103.559	1.88
4105.989	117.88
4108.418	115.88
4110.845	104.88
4113.27	116.88
4115.694	122.88
4118.115	108.88
4120.535	-30.12
4122.954	-23.12
4125.37	-19.12
4127.785	-28.12
4130.198	-25.12
4132.609	-28.12
4135.019	9.88
4137.427	-0.12
4139.833	0.88
4142.237	-8.12
