Data from 2018-3-6_conc=4_n=7_RamanShift_03.txt Node
Date: Tue Mar 06 14:10:18 GMT+02:00 2018
User: LAB3
Spectrometer: QEPB0276
Trigger mode: 0
Integration Time (sec): 3.000000E1
Scans to average: 1
Electric dark correction enabled: true
Nonlinearity correction enabled: false
Boxcar width: 0
XAxis mode: Raman Shifts
Number of Pixels in Spectrum: 1044
>>>>>Begin Spectral Data<<<<<
160.701	106.38
166.742	129.38
172.777	177.38
178.805	337.38
184.826	747.38
190.841	1443.38
196.849	2274.38
202.85	2859.38
208.845	3059.38
214.833	3043.38
220.815	2978.38
226.789	2956.38
232.758	2913.38
238.719	2901.38
244.674	2879.38
250.623	2834.38
256.565	2795.38
262.5	2740.38
268.429	2726.38
274.351	2700.38
280.267	2681.38
286.176	2672.38
292.079	2680.38
297.975	2680.38
303.865	2657.38
309.748	2637.38
315.625	2653.38
321.495	2657.38
327.359	2641.38
333.217	2671.38
339.068	2652.38
344.912	2681.38
350.751	2672.38
356.583	2698.38
362.408	2691.38
368.227	2693.38
374.04	2715.38
379.847	2704.38
385.647	2771.38
391.44	2723.38
397.228	2767.38
403.009	2752.38
408.784	2761.38
414.553	2782.38
420.315	2812.38
426.071	2790.38
431.821	2814.38
437.565	2795.38
443.302	2778.38
449.033	2746.38
454.758	2740.38
460.477	2716.38
466.189	2695.38
471.896	2686.38
477.596	2663.38
483.29	2606.38
488.978	2641.38
494.66	2605.38
500.335	2503.38
506.005	2387.38
511.668	2263.38
517.325	2141.38
522.977	2047.38
528.622	1974.38
534.261	1936.38
539.894	1882.38
545.521	1850.38
551.141	1826.38
556.756	1793.38
562.365	1793.38
567.968	1762.38
573.565	1738.38
579.155	1762.38
584.74	1726.38
590.319	1714.38
595.892	1729.38
601.459	1725.38
607.02	1702.38
612.575	1702.38
618.124	1693.38
623.667	1653.38
629.204	1630.38
634.735	1613.38
640.261	1588.38
645.781	1549.38
651.294	1560.38
656.802	1550.38
662.304	1549.38
667.8	1558.38
673.29	1544.38
678.775	1523.38
684.254	1534.38
689.726	1514.38
695.193	1527.38
700.655	1504.38
706.11	1487.38
711.56	1479.38
717.004	1488.38
722.442	1465.38
727.874	1470.38
733.301	1466.38
738.722	1448.38
744.137	1440.38
749.547	1444.38
754.951	1436.38
760.349	1444.38
765.741	1452.38
771.128	1471.38
776.509	1485.38
781.885	1509.38
787.254	1538.38
792.618	1539.38
797.977	1540.38
803.33	1528.38
808.677	1517.38
814.019	1497.38
819.355	1475.38
824.686	1473.38
830.011	1459.38
835.33	1473.38
840.644	1455.38
845.952	1425.38
851.255	1413.38
856.552	1406.38
861.844	1385.38
867.13	1356.38
872.41	1343.38
877.686	1329.38
882.955	1351.38
888.219	1321.38
893.478	1295.38
898.731	1283.38
903.979	1285.38
909.221	1242.38
914.458	1248.38
919.69	1242.38
924.916	1235.38
930.136	1239.38
935.351	1245.38
940.561	1251.38
945.766	1250.38
950.965	1250.38
956.158	1211.38
961.347	1203.38
966.529	1203.38
971.707	1206.38
976.879	1169.38
982.046	1157.38
987.208	1138.38
992.364	1158.38
997.515	1160.38
1002.66	1168.38
1007.801	1173.38
1012.936	1177.38
1018.066	1159.38
1023.19	1192.38
1028.309	1185.38
1033.423	1192.38
1038.532	1207.38
1043.636	1182.38
1048.734	1184.38
1053.827	1170.38
1058.915	1158.38
1063.998	1150.38
1069.075	1134.38
1074.147	1143.38
1079.214	1126.38
1084.276	1146.38
1089.333	1145.38
1094.385	1156.38
1099.431	1143.38
1104.472	1143.38
1109.509	1110.38
1114.54	1102.38
1119.565	1105.38
1124.586	1068.38
1129.602	1065.38
1134.613	1034.38
1139.618	1048.38
1144.619	1053.38
1149.614	1050.38
1154.604	1049.38
1159.589	1048.38
1164.57	1080.38
1169.545	1078.38
1174.515	1060.38
1179.48	1056.38
1184.44	1052.38
1189.395	1050.38
1194.345	1035.38
1199.29	1035.38
1204.23	1040.38
1209.165	1019.38
1214.095	1047.38
1219.021	1038.38
1223.941	1021.38
1228.856	1031.38
1233.766	1053.38
1238.672	1053.38
1243.572	1053.38
1248.467	1034.38
1253.358	1027.38
1258.244	1004.38
1263.124	1007.38
1268	981.38
1272.871	946.38
1277.737	944.38
1282.599	936.38
1287.455	939.38
1292.306	951.38
1297.153	943.38
1301.995	946.38
1306.832	939.38
1311.664	948.38
1316.491	945.38
1321.314	946.38
1326.132	925.38
1330.945	936.38
1335.753	914.38
1340.556	890.38
1345.354	866.38
1350.148	866.38
1354.937	861.38
1359.722	825.38
1364.501	830.38
1369.276	848.38
1374.046	839.38
1378.811	821.38
1383.572	830.38
1388.327	824.38
1393.079	807.38
1397.825	810.38
1402.567	822.38
1407.304	794.38
1412.036	792.38
1416.764	808.38
1421.487	789.38
1426.205	783.38
1430.919	792.38
1435.628	805.38
1440.333	787.38
1445.032	807.38
1449.727	807.38
1454.418	821.38
1459.104	817.38
1463.785	782.38
1468.462	782.38
1473.134	779.38
1477.802	763.38
1482.465	729.38
1487.123	738.38
1491.777	712.38
1496.426	704.38
1501.071	738.38
1505.711	721.38
1510.347	729.38
1514.978	733.38
1519.604	725.38
1524.226	744.38
1528.844	719.38
1533.457	726.38
1538.065	734.38
1542.669	721.38
1547.269	720.38
1551.864	716.38
1556.454	708.38
1561.041	710.38
1565.622	717.38
1570.199	708.38
1574.772	724.38
1579.34	739.38
1583.904	738.38
1588.464	756.38
1593.019	766.38
1597.569	738.38
1602.115	750.38
1606.657	742.38
1611.195	742.38
1615.728	739.38
1620.256	718.38
1624.78	706.38
1629.3	715.38
1633.816	726.38
1638.327	724.38
1642.834	738.38
1647.336	738.38
1651.834	748.38
1656.328	748.38
1660.817	732.38
1665.302	724.38
1669.783	704.38
1674.259	697.38
1678.732	668.38
1683.199	665.38
1687.663	642.38
1692.122	633.38
1696.577	620.38
1701.028	604.38
1705.474	578.38
1709.917	576.38
1714.355	560.38
1718.788	568.38
1723.218	548.38
1727.643	544.38
1732.064	539.38
1736.481	523.38
1740.893	532.38
1745.301	516.38
1749.705	482.38
1754.105	496.38
1758.501	476.38
1762.893	482.38
1767.28	453.38
1771.663	461.38
1776.042	453.38
1780.417	440.38
1784.787	453.38
1789.154	448.38
1793.516	445.38
1797.874	443.38
1802.228	434.38
1806.578	439.38
1810.924	440.38
1815.266	319.38
1819.603	441.38
1823.937	425.38
1828.266	416.38
1832.591	429.38
1836.913	420.38
1841.23	416.38
1845.543	415.38
1849.852	413.38
1854.156	409.38
1858.457	417.38
1862.754	413.38
1867.047	413.38
1871.335	418.38
1875.62	416.38
1879.9	415.38
1884.177	402.38
1888.449	410.38
1892.718	399.38
1896.982	413.38
1901.243	393.38
1905.499	398.38
1909.752	381.38
1914	366.38
1918.245	384.38
1922.485	385.38
1926.722	382.38
1930.954	363.38
1935.183	387.38
1939.408	391.38
1943.628	384.38
1947.845	387.38
1952.058	381.38
1956.267	358.38
1960.472	374.38
1964.673	367.38
1968.87	366.38
1973.063	358.38
1977.252	348.38
1981.438	347.38
1985.619	347.38
1989.797	335.38
1993.971	339.38
1998.14	347.38
2002.306	350.38
2006.469	340.38
2010.627	332.38
2014.781	332.38
2018.932	331.38
2023.078	347.38
2027.221	335.38
2031.36	331.38
2035.495	329.38
2039.627	324.38
2043.754	327.38
2047.878	314.38
2051.998	322.38
2056.114	310.38
2060.226	311.38
2064.334	316.38
2068.439	313.38
2072.54	316.38
2076.637	306.38
2080.73	307.38
2084.82	309.38
2088.906	311.38
2092.988	302.38
2097.066	306.38
2101.14	310.38
2105.211	307.38
2109.278	296.38
2113.342	285.38
2117.401	282.38
2121.457	281.38
2125.509	274.38
2129.558	292.38
2133.602	288.38
2137.643	284.38
2141.681	276.38
2145.714	290.38
2149.744	280.38
2153.77	282.38
2157.793	262.38
2161.812	234.38
2165.827	248.38
2169.838	275.38
2173.846	251.38
2177.851	249.38
2181.851	258.38
2185.848	244.38
2189.841	247.38
2193.831	246.38
2197.817	247.38
2201.799	240.38
2205.778	223.38
2209.753	229.38
2213.725	230.38
2217.693	228.38
2221.657	229.38
2225.618	238.38
2229.575	229.38
2233.529	228.38
2237.479	233.38
2241.425	217.38
2245.368	215.38
2249.307	216.38
2253.243	212.38
2257.175	212.38
2261.104	200.38
2265.029	217.38
2268.95	211.38
2272.868	199.38
2276.783	191.38
2280.694	202.38
2284.601	203.38
2288.505	193.38
2292.405	200.38
2296.302	169.38
2300.195	185.38
2304.085	155.38
2307.971	184.38
2311.854	157.38
2315.734	172.38
2319.609	179.38
2323.482	163.38
2327.351	162.38
2331.216	168.38
2335.078	172.38
2338.937	166.38
2342.792	155.38
2346.643	158.38
2350.492	168.38
2354.336	165.38
2358.178	174.38
2362.015	171.38
2365.85	166.38
2369.681	163.38
2373.508	164.38
2377.333	170.38
2381.153	167.38
2384.971	158.38
2388.785	164.38
2392.595	153.38
2396.402	158.38
2400.206	129.38
2404.007	143.38
2407.804	149.38
2411.597	155.38
2415.388	152.38
2419.174	141.38
2422.958	145.38
2426.738	139.38
2430.515	152.38
2434.289	145.38
2438.059	145.38
2441.825	142.38
2445.589	147.38
2449.349	133.38
2453.106	139.38
2456.859	137.38
2460.61	142.38
2464.356	126.38
2468.1	117.38
2471.84	118.38
2475.577	128.38
2479.311	125.38
2483.041	126.38
2486.768	143.38
2490.492	135.38
2494.213	120.38
2497.93	119.38
2501.644	111.38
2505.355	115.38
2509.062	122.38
2512.766	119.38
2516.467	116.38
2520.165	116.38
2523.859	110.38
2527.551	136.38
2531.239	108.38
2534.923	118.38
2538.605	114.38
2542.283	114.38
2545.958	116.38
2549.63	122.38
2553.299	119.38
2556.964	110.38
2560.626	103.38
2564.285	104.38
2567.941	95.38
2571.594	98.38
2575.243	110.38
2578.89	94.38
2582.533	105.38
2586.173	100.38
2589.809	108.38
2593.443	76.38
2597.073	99.38
2600.701	101.38
2604.325	102.38
2607.946	90.38
2611.564	104.38
2615.178	103.38
2618.79	100.38
2622.398	82.38
2626.004	100.38
2629.606	100.38
2633.205	84.38
2636.801	92.38
2640.394	96.38
2643.983	83.38
2647.57	83.38
2651.153	78.38
2654.734	91.38
2658.311	64.38
2661.885	77.38
2665.456	83.38
2669.025	80.38
2672.589	71.38
2676.151	97.38
2679.71	90.38
2683.266	78.38
2686.819	69.38
2690.368	82.38
2693.915	87.38
2697.458	72.38
2700.999	81.38
2704.536	80.38
2708.071	75.38
2711.602	76.38
2715.13	72.38
2718.656	58.38
2722.178	68.38
2725.697	60.38
2729.214	59.38
2732.727	69.38
2736.237	46.38
2739.744	63.38
2743.249	58.38
2746.75	65.38
2750.248	58.38
2753.743	59.38
2757.236	62.38
2760.725	69.38
2764.211	37.38
2767.695	67.38
2771.175	62.38
2774.652	63.38
2778.127	52.38
2781.598	59.38
2785.067	54.38
2788.532	50.38
2791.995	63.38
2795.455	53.38
2798.911	68.38
2802.365	53.38
2805.816	60.38
2809.264	67.38
2812.709	54.38
2816.151	62.38
2819.59	43.38
2823.026	55.38
2826.46	49.38
2829.89	68.38
2833.318	40.38
2836.742	55.38
2840.164	57.38
2843.583	56.38
2846.999	57.38
2850.412	60.38
2853.822	49.38
2857.229	67.38
2860.634	61.38
2864.035	53.38
2867.434	71.38
2870.83	70.38
2874.223	62.38
2877.613	62.38
2881	59.38
2884.385	62.38
2887.766	59.38
2891.145	67.38
2894.521	67.38
2897.894	56.38
2901.264	77.38
2904.631	73.38
2907.996	77.38
2911.358	74.38
2914.717	75.38
2918.073	70.38
2921.426	71.38
2924.777	57.38
2928.124	67.38
2931.469	85.38
2934.811	67.38
2938.15	91.38
2941.487	83.38
2944.821	101.38
2948.152	81.38
2951.48	87.38
2954.805	77.38
2958.128	102.38
2961.447	84.38
2964.765	95.38
2968.079	81.38
2971.39	84.38
2974.699	89.38
2978.005	86.38
2981.308	79.38
2984.609	79.38
2987.907	94.38
2991.202	95.38
2994.494	84.38
2997.784	94.38
3001.07	94.38
3004.355	82.38
3007.636	92.38
3010.915	93.38
3014.191	94.38
3017.464	93.38
3020.734	99.38
3024.002	96.38
3027.267	102.38
3030.53	107.38
3033.789	100.38
3037.046	99.38
3040.301	101.38
3043.552	104.38
3046.801	116.38
3050.048	126.38
3053.291	138.38
3056.532	123.38
3059.771	112.38
3063.006	132.38
3066.239	136.38
3069.469	135.38
3072.697	140.38
3075.922	131.38
3079.144	127.38
3082.364	159.38
3085.581	147.38
3088.795	162.38
3092.007	163.38
3095.216	170.38
3098.423	162.38
3101.627	141.38
3104.828	175.38
3108.026	166.38
3111.222	183.38
3114.416	194.38
3117.607	191.38
3120.795	186.38
3123.98	200.38
3127.163	187.38
3130.344	200.38
3133.521	206.38
3136.696	225.38
3139.869	211.38
3143.039	205.38
3146.206	236.38
3149.371	231.38
3152.533	227.38
3155.693	217.38
3158.85	229.38
3162.005	239.38
3165.157	229.38
3168.306	232.38
3171.453	242.38
3174.597	234.38
3177.739	226.38
3180.878	243.38
3184.014	232.38
3187.149	238.38
3190.28	236.38
3193.409	255.38
3196.536	243.38
3199.659	260.38
3202.781	260.38
3205.9	240.38
3209.016	245.38
3212.13	244.38
3215.241	252.38
3218.35	244.38
3221.456	233.38
3224.56	225.38
3227.661	231.38
3230.76	223.38
3233.856	221.38
3236.95	233.38
3240.041	220.38
3243.13	227.38
3246.216	234.38
3249.3	236.38
3252.382	223.38
3255.46	207.38
3258.537	170.38
3261.611	203.38
3264.682	219.38
3267.751	220.38
3270.818	196.38
3273.882	215.38
3276.943	209.38
3280.002	222.38
3283.059	206.38
3286.113	212.38
3289.165	199.38
3292.214	201.38
3295.261	212.38
3298.306	183.38
3301.348	192.38
3304.387	189.38
3307.425	195.38
3310.459	185.38
3313.492	191.38
3316.521	186.38
3319.549	192.38
3322.574	195.38
3325.597	182.38
3328.617	174.38
3331.635	188.38
3334.65	156.38
3337.663	184.38
3340.674	168.38
3343.682	181.38
3346.688	179.38
3349.691	169.38
3352.692	170.38
3355.691	177.38
3358.687	179.38
3361.681	186.38
3364.673	173.38
3367.662	166.38
3370.649	178.38
3373.633	152.38
3376.615	169.38
3379.595	141.38
3382.572	151.38
3385.547	141.38
3388.52	145.38
3391.49	150.38
3394.458	153.38
3397.424	154.38
3400.387	130.38
3403.348	144.38
3406.307	134.38
3409.263	135.38
3412.217	143.38
3415.168	142.38
3418.118	149.38
3421.065	138.38
3424.009	140.38
3426.951	130.38
3429.891	124.38
3432.829	126.38
3435.764	125.38
3438.697	111.38
3441.628	134.38
3444.557	112.38
3447.483	105.38
3450.407	113.38
3453.328	101.38
3456.247	101.38
3459.164	94.38
3462.079	109.38
3464.991	95.38
3467.902	89.38
3470.809	84.38
3473.715	94.38
3476.618	75.38
3479.519	82.38
3482.418	62.38
3485.315	68.38
3488.209	64.38
3491.101	70.38
3493.99	55.38
3496.878	55.38
3499.763	57.38
3502.646	56.38
3505.527	52.38
3508.405	44.38
3511.281	33.38
3514.155	48.38
3517.027	42.38
3519.897	29.38
3522.764	44.38
3525.629	24.38
3528.492	36.38
3531.352	37.38
3534.211	32.38
3537.067	22.38
3539.921	30.38
3542.773	29.38
3545.622	10.38
3548.469	4.38
3551.315	8.38
3554.157	21.38
3556.998	7.38
3559.837	8.38
3562.673	17.38
3565.507	3.38
3568.339	4.38
3571.169	0.38
3573.996	6.38
3576.822	-9.62
3579.645	-2.62
3582.466	-2.62
3585.285	2.38
3588.101	-1.62
3590.916	-2.62
3593.728	5.38
3596.538	-10.62
3599.346	-0.62
3602.152	-14.62
3604.956	-7.62
3607.757	-2.62
3610.556	-17.62
3613.354	-1.62
3616.149	-6.62
3618.942	-2.62
3621.732	-3.62
3624.521	-18.62
3627.307	-28.62
3630.092	-17.62
3632.874	0.38
3635.654	-14.62
3638.432	-18.62
3641.208	-18.62
3643.982	-17.62
3646.753	-9.62
3649.523	-42.62
3652.29	-17.62
3655.055	-12.62
3657.818	-17.62
3660.579	-18.62
3663.338	-24.62
3666.095	-28.62
3668.849	-46.62
3671.602	-19.62
3674.352	-32.62
3677.101	-11.62
3679.847	-16.62
3682.591	-31.62
3685.333	-32.62
3688.073	-24.62
3690.811	-32.62
3693.547	-43.62
3696.281	-34.62
3699.013	-21.62
3701.742	-30.62
3704.47	-37.62
3707.195	-15.62
3709.919	-23.62
3712.64	-27.62
3715.359	-36.62
3718.076	-20.62
3720.792	-29.62
3723.505	-21.62
3726.216	-16.62
3728.925	-31.62
3731.632	-33.62
3734.336	-25.62
3737.039	-32.62
3739.74	-26.62
3742.439	-52.62
3745.136	-20.62
3747.83	-24.62
3750.523	-22.62
3753.213	-90.62
3755.902	-32.62
3758.589	-45.62
3761.273	-37.62
3763.956	-21.62
3766.636	-41.62
3769.315	-22.62
3771.991	-27.62
3774.665	-37.62
3777.338	-30.62
3780.008	-37.62
3782.677	-30.62
3785.343	-43.62
3788.007	-51.62
3790.67	-24.62
3793.33	-41.62
3795.989	-35.62
3798.645	-27.62
3801.299	-43.62
3803.952	-37.62
3806.602	-31.62
3809.251	-25.62
3811.897	-34.62
3814.542	-35.62
3817.184	-36.62
3819.825	-31.62
3822.463	-39.62
3825.1	-39.62
3827.735	-28.62
3830.367	-37.62
3832.998	-18.62
3835.627	-35.62
3838.253	-21.62
3840.878	-36.62
3843.501	-15.62
3846.122	-25.62
3848.741	-26.62
3851.358	-24.62
3853.973	-34.62
3856.586	-20.62
3859.197	-32.62
3861.806	-29.62
3864.414	-41.62
3867.019	-35.62
3869.622	-19.62
3872.224	-18.62
3874.823	0.38
3877.421	23.38
3880.016	46.38
3882.61	94.38
3885.202	110.38
3887.792	71.38
3890.38	36.38
3892.966	-7.62
3895.55	-29.62
3898.132	-16.62
3900.713	-22.62
3903.291	-29.62
3905.868	-35.62
3908.442	-29.62
3911.015	-29.62
3913.586	-33.62
3916.155	-31.62
3918.722	-35.62
3921.287	-34.62
3923.85	-47.62
3926.411	-39.62
3928.971	-37.62
3931.528	-29.62
3934.084	-33.62
3936.638	-41.62
3939.19	-32.62
3941.74	-29.62
3944.288	-35.62
3946.834	-35.62
3949.378	-25.62
3951.921	-37.62
3954.462	-31.62
3957	-34.62
3959.537	-21.62
3962.072	-32.62
3964.606	-44.62
3967.137	-38.62
3969.667	-40.62
3972.194	-28.62
3974.72	-37.62
3977.244	-51.62
3979.766	-40.62
3982.286	-41.62
3984.805	-28.62
3987.321	-20.62
3989.836	-27.62
3992.349	-42.62
3994.86	-33.62
3997.369	-37.62
3999.877	-35.62
4002.382	-40.62
4004.886	-28.62
4007.388	-32.62
4009.888	-21.62
4012.386	-27.62
4014.883	-32.62
4017.377	-30.62
4019.87	-27.62
4022.361	-39.62
4024.85	-33.62
4027.338	-32.62
4029.823	-35.62
4032.307	-34.62
4034.789	-29.62
4037.269	-34.62
4039.747	-45.62
4042.224	-26.62
4044.699	-38.62
4047.172	-32.62
4049.643	-26.62
4052.112	-55.62
4054.58	-31.62
4057.046	-42.62
4059.51	-34.62
4061.972	-34.62
4064.432	-51.62
4066.891	-21.62
4069.348	-33.62
4071.803	-31.62
4074.256	-32.62
4076.708	-29.62
4079.158	-31.62
4081.606	-22.62
4084.052	-35.62
4086.497	-26.62
4088.939	-30.62
4091.38	-30.62
4093.819	-28.62
4096.257	-0.62
4098.693	-4.62
4101.127	-4.62
4103.559	4.38
4105.989	104.38
4108.418	112.38
4110.845	101.38
4113.27	101.38
4115.694	102.38
4118.115	92.38
4120.535	-29.62
4122.954	-27.62
4125.37	-19.62
4127.785	-28.62
4130.198	-21.62
4132.609	-26.62
4135.019	5.38
4137.427	-0.62
4139.833	3.38
4142.237	-2.62
