Data from 2018-3-6_conc=0_n=3_RamanShift_02.txt Node
Date: Tue Mar 06 12:15:19 GMT+02:00 2018
User: LAB3
Spectrometer: QEPB0276
Trigger mode: 0
Integration Time (sec): 3.000000E1
Scans to average: 1
Electric dark correction enabled: true
Nonlinearity correction enabled: false
Boxcar width: 0
XAxis mode: Raman Shifts
Number of Pixels in Spectrum: 1044
>>>>>Begin Spectral Data<<<<<
160.701	75.25
166.742	119.25
172.777	196.25
178.805	448.25
184.826	1065.25
190.841	2164.25
196.849	3484.25
202.85	4506.25
208.845	4910.25
214.833	4945.25
220.815	4886.25
226.789	4973.25
232.758	5064.25
238.719	5091.25
244.674	5101.25
250.623	5120.25
256.565	5089.25
262.5	5064.25
268.429	5056.25
274.351	5096.25
280.267	5097.25
286.176	5126.25
292.079	5155.25
297.975	5148.25
303.865	5199.25
309.748	5206.25
315.625	5216.25
321.495	5253.25
327.359	5274.25
333.217	5289.25
339.068	5316.25
344.912	5317.25
350.751	5352.25
356.583	5359.25
362.408	5386.25
368.227	5408.25
374.04	5418.25
379.847	5462.25
385.647	5489.25
391.44	5488.25
397.228	5506.25
403.009	5552.25
408.784	5599.25
414.553	5604.25
420.315	5613.25
426.071	5628.25
431.821	5635.25
437.565	5614.25
443.302	5621.25
449.033	5602.25
454.758	5586.25
460.477	5540.25
466.189	5476.25
471.896	5469.25
477.596	5386.25
483.29	5411.25
488.978	5397.25
494.66	5346.25
500.335	5279.25
506.005	5056.25
511.668	4890.25
517.325	4691.25
522.977	4556.25
528.622	4424.25
534.261	4399.25
539.894	4308.25
545.521	4282.25
551.141	4215.25
556.756	4199.25
562.365	4156.25
567.968	4171.25
573.565	4125.25
579.155	4097.25
584.74	4088.25
590.319	4096.25
595.892	4089.25
601.459	4075.25
607.02	4061.25
612.575	4034.25
618.124	4006.25
623.667	3947.25
629.204	3917.25
634.735	3877.25
640.261	3832.25
645.781	3817.25
651.294	3795.25
656.802	3794.25
662.304	3799.25
667.8	3785.25
673.29	3755.25
678.775	3768.25
684.254	3739.25
689.726	3744.25
695.193	3709.25
700.655	3688.25
706.11	3697.25
711.56	3678.25
717.004	3636.25
722.442	3604.25
727.874	3625.25
733.301	3611.25
738.722	3607.25
744.137	3596.25
749.547	3599.25
754.951	3608.25
760.349	3582.25
765.741	3629.25
771.128	3629.25
776.509	3654.25
781.885	3702.25
787.254	3725.25
792.618	3718.25
797.977	3710.25
803.33	3724.25
808.677	3678.25
814.019	3626.25
819.355	3603.25
824.686	3607.25
830.011	3572.25
835.33	3585.25
840.644	3547.25
845.952	3524.25
851.255	3541.25
856.552	3528.25
861.844	3509.25
867.13	3479.25
872.41	3515.25
877.686	3557.25
882.955	3574.25
888.219	3537.25
893.478	3440.25
898.731	3362.25
903.979	3307.25
909.221	3250.25
914.458	3231.25
919.69	3229.25
924.916	3238.25
930.136	3245.25
935.351	3226.25
940.561	3239.25
945.766	3248.25
950.965	3225.25
956.158	3190.25
961.347	3172.25
966.529	3133.25
971.707	3098.25
976.879	3047.25
982.046	3036.25
987.208	3024.25
992.364	3028.25
997.515	3037.25
1002.66	3059.25
1007.801	3076.25
1012.936	3103.25
1018.066	3113.25
1023.19	3165.25
1028.309	3190.25
1033.423	3180.25
1038.532	3180.25
1043.636	3154.25
1048.734	3163.25
1053.827	3108.25
1058.915	3072.25
1063.998	3059.25
1069.075	3024.25
1074.147	3041.25
1079.214	3037.25
1084.276	3074.25
1089.333	3099.25
1094.385	3120.25
1099.431	3096.25
1104.472	3081.25
1109.509	3007.25
1114.54	3009.25
1119.565	2938.25
1124.586	2921.25
1129.602	2882.25
1134.613	2843.25
1139.618	2857.25
1144.619	2810.25
1149.614	2854.25
1154.604	2837.25
1159.589	2849.25
1164.57	2861.25
1169.545	2865.25
1174.515	2874.25
1179.48	2859.25
1184.44	2846.25
1189.395	2825.25
1194.345	2807.25
1199.29	2773.25
1204.23	2774.25
1209.165	2767.25
1214.095	2790.25
1219.021	2811.25
1223.941	2810.25
1228.856	2809.25
1233.766	2848.25
1238.672	2832.25
1243.572	2836.25
1248.467	2812.25
1253.358	2790.25
1258.244	2727.25
1263.124	2700.25
1268	2668.25
1272.871	2643.25
1277.737	2617.25
1282.599	2603.25
1287.455	2597.25
1292.306	2596.25
1297.153	2616.25
1301.995	2639.25
1306.832	2623.25
1311.664	2658.25
1316.491	2642.25
1321.314	2620.25
1326.132	2611.25
1330.945	2573.25
1335.753	2530.25
1340.556	2471.25
1345.354	2433.25
1350.148	2415.25
1354.937	2407.25
1359.722	2353.25
1364.501	2347.25
1369.276	2344.25
1374.046	2335.25
1378.811	2321.25
1383.572	2339.25
1388.327	2335.25
1393.079	2337.25
1397.825	2299.25
1402.567	2273.25
1407.304	2299.25
1412.036	2286.25
1416.764	2269.25
1421.487	2253.25
1426.205	2257.25
1430.919	2279.25
1435.628	2278.25
1440.333	2296.25
1445.032	2316.25
1449.727	2366.25
1454.418	2413.25
1459.104	2398.25
1463.785	2349.25
1468.462	2313.25
1473.134	2253.25
1477.802	2214.25
1482.465	2159.25
1487.123	2169.25
1491.777	2121.25
1496.426	2119.25
1501.071	2153.25
1505.711	2123.25
1510.347	2115.25
1514.978	2154.25
1519.604	2131.25
1524.226	2135.25
1528.844	2107.25
1533.457	2102.25
1538.065	2086.25
1542.669	2074.25
1547.269	2056.25
1551.864	2039.25
1556.454	2044.25
1561.041	2003.25
1565.622	2014.25
1570.199	2047.25
1574.772	2055.25
1579.34	2086.25
1583.904	2101.25
1588.464	2102.25
1593.019	2089.25
1597.569	2060.25
1602.115	2067.25
1606.657	2040.25
1611.195	2056.25
1615.728	2020.25
1620.256	1986.25
1624.78	1969.25
1629.3	2000.25
1633.816	2007.25
1638.327	2005.25
1642.834	2012.25
1647.336	2019.25
1651.834	2044.25
1656.328	2035.25
1660.817	2032.25
1665.302	2021.25
1669.783	1984.25
1674.259	1972.25
1678.732	1927.25
1683.199	1903.25
1687.663	1823.25
1692.122	1794.25
1696.577	1770.25
1701.028	1750.25
1705.474	1723.25
1709.917	1705.25
1714.355	1687.25
1718.788	1676.25
1723.218	1652.25
1727.643	1633.25
1732.064	1645.25
1736.481	1603.25
1740.893	1589.25
1745.301	1558.25
1749.705	1507.25
1754.105	1495.25
1758.501	1471.25
1762.893	1466.25
1767.28	1426.25
1771.663	1422.25
1776.042	1398.25
1780.417	1391.25
1784.787	1398.25
1789.154	1397.25
1793.516	1389.25
1797.874	1383.25
1802.228	1388.25
1806.578	1370.25
1810.924	1368.25
1815.266	1259.25
1819.603	1339.25
1823.937	1301.25
1828.266	1333.25
1832.591	1305.25
1836.913	1300.25
1841.23	1291.25
1845.543	1283.25
1849.852	1310.25
1854.156	1288.25
1858.457	1295.25
1862.754	1292.25
1867.047	1295.25
1871.335	1317.25
1875.62	1301.25
1879.9	1303.25
1884.177	1280.25
1888.449	1276.25
1892.718	1283.25
1896.982	1279.25
1901.243	1255.25
1905.499	1242.25
1909.752	1242.25
1914	1216.25
1918.245	1243.25
1922.485	1244.25
1926.722	1244.25
1930.954	1237.25
1935.183	1243.25
1939.408	1249.25
1943.628	1228.25
1947.845	1224.25
1952.058	1218.25
1956.267	1183.25
1960.472	1176.25
1964.673	1158.25
1968.87	1142.25
1973.063	1125.25
1977.252	1110.25
1981.438	1095.25
1985.619	1083.25
1989.797	1078.25
1993.971	1074.25
1998.14	1082.25
2002.306	1059.25
2006.469	1075.25
2010.627	1065.25
2014.781	1052.25
2018.932	1047.25
2023.078	1059.25
2027.221	1044.25
2031.36	1041.25
2035.495	1022.25
2039.627	1006.25
2043.754	995.25
2047.878	993.25
2051.998	991.25
2056.114	982.25
2060.226	979.25
2064.334	986.25
2068.439	1006.25
2072.54	1009.25
2076.637	984.25
2080.73	983.25
2084.82	992.25
2088.906	994.25
2092.988	980.25
2097.066	985.25
2101.14	980.25
2105.211	975.25
2109.278	946.25
2113.342	925.25
2117.401	913.25
2121.457	893.25
2125.509	902.25
2129.558	903.25
2133.602	889.25
2137.643	890.25
2141.681	883.25
2145.714	872.25
2149.744	872.25
2153.77	868.25
2157.793	849.25
2161.812	833.25
2165.827	828.25
2169.838	833.25
2173.846	825.25
2177.851	798.25
2181.851	805.25
2185.848	798.25
2189.841	791.25
2193.831	778.25
2197.817	770.25
2201.799	773.25
2205.778	757.25
2209.753	751.25
2213.725	739.25
2217.693	752.25
2221.657	738.25
2225.618	751.25
2229.575	749.25
2233.529	739.25
2237.479	732.25
2241.425	720.25
2245.368	708.25
2249.307	711.25
2253.243	698.25
2257.175	694.25
2261.104	680.25
2265.029	677.25
2268.95	672.25
2272.868	657.25
2276.783	649.25
2280.694	652.25
2284.601	639.25
2288.505	625.25
2292.405	635.25
2296.302	603.25
2300.195	609.25
2304.085	583.25
2307.971	600.25
2311.854	573.25
2315.734	583.25
2319.609	579.25
2323.482	543.25
2327.351	575.25
2331.216	558.25
2335.078	574.25
2338.937	558.25
2342.792	544.25
2346.643	551.25
2350.492	559.25
2354.336	545.25
2358.178	564.25
2362.015	557.25
2365.85	557.25
2369.681	561.25
2373.508	557.25
2377.333	565.25
2381.153	559.25
2384.971	547.25
2388.785	554.25
2392.595	550.25
2396.402	546.25
2400.206	518.25
2404.007	531.25
2407.804	539.25
2411.597	542.25
2415.388	530.25
2419.174	523.25
2422.958	528.25
2426.738	519.25
2430.515	523.25
2434.289	509.25
2438.059	511.25
2441.825	512.25
2445.589	511.25
2449.349	496.25
2453.106	496.25
2456.859	499.25
2460.61	505.25
2464.356	484.25
2468.1	474.25
2471.84	467.25
2475.577	464.25
2479.311	475.25
2483.041	472.25
2486.768	476.25
2490.492	476.25
2494.213	472.25
2497.93	456.25
2501.644	446.25
2505.355	459.25
2509.062	460.25
2512.766	450.25
2516.467	449.25
2520.165	447.25
2523.859	438.25
2527.551	465.25
2531.239	435.25
2534.923	442.25
2538.605	435.25
2542.283	435.25
2545.958	428.25
2549.63	445.25
2553.299	445.25
2556.964	413.25
2560.626	419.25
2564.285	418.25
2567.941	407.25
2571.594	405.25
2575.243	425.25
2578.89	398.25
2582.533	398.25
2586.173	389.25
2589.809	389.25
2593.443	368.25
2597.073	391.25
2600.701	387.25
2604.325	382.25
2607.946	374.25
2611.564	388.25
2615.178	377.25
2618.79	379.25
2622.398	360.25
2626.004	357.25
2629.606	366.25
2633.205	354.25
2636.801	357.25
2640.394	352.25
2643.983	341.25
2647.57	339.25
2651.153	328.25
2654.734	343.25
2658.311	313.25
2661.885	314.25
2665.456	327.25
2669.025	319.25
2672.589	308.25
2676.151	327.25
2679.71	322.25
2683.266	304.25
2686.819	306.25
2690.368	307.25
2693.915	310.25
2697.458	296.25
2700.999	300.25
2704.536	297.25
2708.071	286.25
2711.602	289.25
2715.13	288.25
2718.656	271.25
2722.178	275.25
2725.697	264.25
2729.214	273.25
2732.727	279.25
2736.237	264.25
2739.744	266.25
2743.249	257.25
2746.75	267.25
2750.248	264.25
2753.743	265.25
2757.236	271.25
2760.725	269.25
2764.211	228.25
2767.695	256.25
2771.175	252.25
2774.652	250.25
2778.127	245.25
2781.598	246.25
2785.067	246.25
2788.532	234.25
2791.995	251.25
2795.455	242.25
2798.911	268.25
2802.365	241.25
2805.816	254.25
2809.264	252.25
2812.709	240.25
2816.151	245.25
2819.59	231.25
2823.026	240.25
2826.46	244.25
2829.89	251.25
2833.318	230.25
2836.742	243.25
2840.164	253.25
2843.583	249.25
2846.999	255.25
2850.412	254.25
2853.822	261.25
2857.229	269.25
2860.634	265.25
2864.035	252.25
2867.434	269.25
2870.83	271.25
2874.223	275.25
2877.613	282.25
2881	285.25
2884.385	285.25
2887.766	282.25
2891.145	288.25
2894.521	279.25
2897.894	267.25
2901.264	290.25
2904.631	280.25
2907.996	286.25
2911.358	300.25
2914.717	285.25
2918.073	275.25
2921.426	271.25
2924.777	275.25
2928.124	293.25
2931.469	315.25
2934.811	307.25
2938.15	334.25
2941.487	323.25
2944.821	333.25
2948.152	309.25
2951.48	313.25
2954.805	288.25
2958.128	302.25
2961.447	283.25
2964.765	288.25
2968.079	282.25
2971.39	281.25
2974.699	282.25
2978.005	283.25
2981.308	290.25
2984.609	281.25
2987.907	290.25
2991.202	299.25
2994.494	274.25
2997.784	278.25
3001.07	281.25
3004.355	270.25
3007.636	269.25
3010.915	270.25
3014.191	264.25
3017.464	272.25
3020.734	270.25
3024.002	264.25
3027.267	270.25
3030.53	258.25
3033.789	264.25
3037.046	273.25
3040.301	258.25
3043.552	272.25
3046.801	274.25
3050.048	288.25
3053.291	298.25
3056.532	285.25
3059.771	272.25
3063.006	299.25
3066.239	310.25
3069.469	309.25
3072.697	310.25
3075.922	313.25
3079.144	333.25
3082.364	346.25
3085.581	331.25
3088.795	345.25
3092.007	348.25
3095.216	365.25
3098.423	359.25
3101.627	343.25
3104.828	362.25
3108.026	371.25
3111.222	391.25
3114.416	397.25
3117.607	403.25
3120.795	393.25
3123.98	410.25
3127.163	406.25
3130.344	419.25
3133.521	423.25
3136.696	440.25
3139.869	441.25
3143.039	435.25
3146.206	477.25
3149.371	460.25
3152.533	461.25
3155.693	448.25
3158.85	458.25
3162.005	464.25
3165.157	462.25
3168.306	457.25
3171.453	477.25
3174.597	463.25
3177.739	447.25
3180.878	466.25
3184.014	467.25
3187.149	470.25
3190.28	461.25
3193.409	471.25
3196.536	474.25
3199.659	487.25
3202.781	485.25
3205.9	460.25
3209.016	478.25
3212.13	477.25
3215.241	482.25
3218.35	465.25
3221.456	462.25
3224.56	444.25
3227.661	455.25
3230.76	452.25
3233.856	446.25
3236.95	443.25
3240.041	430.25
3243.13	456.25
3246.216	436.25
3249.3	437.25
3252.382	437.25
3255.46	424.25
3258.537	386.25
3261.611	412.25
3264.682	431.25
3267.751	421.25
3270.818	410.25
3273.882	426.25
3276.943	414.25
3280.002	421.25
3283.059	399.25
3286.113	398.25
3289.165	392.25
3292.214	385.25
3295.261	397.25
3298.306	371.25
3301.348	360.25
3304.387	355.25
3307.425	370.25
3310.459	354.25
3313.492	371.25
3316.521	353.25
3319.549	366.25
3322.574	352.25
3325.597	343.25
3328.617	341.25
3331.635	340.25
3334.65	322.25
3337.663	341.25
3340.674	334.25
3343.682	333.25
3346.688	342.25
3349.691	326.25
3352.692	333.25
3355.691	330.25
3358.687	318.25
3361.681	322.25
3364.673	329.25
3367.662	323.25
3370.649	319.25
3373.633	297.25
3376.615	316.25
3379.595	286.25
3382.572	297.25
3385.547	284.25
3388.52	283.25
3391.49	285.25
3394.458	290.25
3397.424	284.25
3400.387	273.25
3403.348	275.25
3406.307	272.25
3409.263	273.25
3412.217	268.25
3415.168	270.25
3418.118	272.25
3421.065	262.25
3424.009	267.25
3426.951	254.25
3429.891	251.25
3432.829	246.25
3435.764	252.25
3438.697	234.25
3441.628	253.25
3444.557	217.25
3447.483	208.25
3450.407	222.25
3453.328	210.25
3456.247	210.25
3459.164	198.25
3462.079	207.25
3464.991	194.25
3467.902	188.25
3470.809	181.25
3473.715	193.25
3476.618	172.25
3479.519	177.25
3482.418	146.25
3485.315	148.25
3488.209	145.25
3491.101	153.25
3493.99	132.25
3496.878	134.25
3499.763	141.25
3502.646	139.25
3505.527	123.25
3508.405	120.25
3511.281	101.25
3514.155	118.25
3517.027	113.25
3519.897	101.25
3522.764	106.25
3525.629	81.25
3528.492	93.25
3531.352	89.25
3534.211	83.25
3537.067	75.25
3539.921	77.25
3542.773	79.25
3545.622	60.25
3548.469	52.25
3551.315	55.25
3554.157	57.25
3556.998	49.25
3559.837	50.25
3562.673	56.25
3565.507	38.25
3568.339	36.25
3571.169	40.25
3573.996	35.25
3576.822	21.25
3579.645	25.25
3582.466	21.25
3585.285	36.25
3588.101	23.25
3590.916	21.25
3593.728	30.25
3596.538	18.25
3599.346	19.25
3602.152	10.25
3604.956	16.25
3607.757	14.25
3610.556	0.25
3613.354	13.25
3616.149	8.25
3618.942	5.25
3621.732	9.25
3624.521	2.25
3627.307	-5.75
3630.092	-6.75
3632.874	9.25
3635.654	-3.75
3638.432	-3.75
3641.208	-7.75
3643.982	2.25
3646.753	-1.75
3649.523	-23.75
3652.29	-7.75
3655.055	-3.75
3657.818	-5.75
3660.579	-9.75
3663.338	-21.75
3666.095	-13.75
3668.849	-44.75
3671.602	-10.75
3674.352	-24.75
3677.101	-6.75
3679.847	-6.75
3682.591	-26.75
3685.333	-30.75
3688.073	-14.75
3690.811	-31.75
3693.547	-28.75
3696.281	-28.75
3699.013	-14.75
3701.742	-22.75
3704.47	-29.75
3707.195	-13.75
3709.919	-16.75
3712.64	-22.75
3715.359	-32.75
3718.076	-11.75
3720.792	-19.75
3723.505	-16.75
3726.216	-12.75
3728.925	-27.75
3731.632	-29.75
3734.336	-23.75
3737.039	-20.75
3739.74	-18.75
3742.439	-43.75
3745.136	-19.75
3747.83	-19.75
3750.523	-15.75
3753.213	-80.75
3755.902	-30.75
3758.589	-40.75
3761.273	-30.75
3763.956	-19.75
3766.636	-40.75
3769.315	-20.75
3771.991	-24.75
3774.665	-33.75
3777.338	-27.75
3780.008	-40.75
3782.677	-29.75
3785.343	-40.75
3788.007	-49.75
3790.67	-24.75
3793.33	-41.75
3795.989	-36.75
3798.645	-23.75
3801.299	-41.75
3803.952	-39.75
3806.602	-35.75
3809.251	-23.75
3811.897	-28.75
3814.542	-33.75
3817.184	-37.75
3819.825	-29.75
3822.463	-42.75
3825.1	-35.75
3827.735	-33.75
3830.367	-37.75
3832.998	-27.75
3835.627	-38.75
3838.253	-24.75
3840.878	-33.75
3843.501	-16.75
3846.122	-28.75
3848.741	-26.75
3851.358	-26.75
3853.973	-39.75
3856.586	-30.75
3859.197	-40.75
3861.806	-31.75
3864.414	-45.75
3867.019	-37.75
3869.622	-27.75
3872.224	-25.75
3874.823	-24.75
3877.421	-7.75
3880.016	-6.75
3882.61	14.25
3885.202	34.25
3887.792	20.25
3890.38	-1.75
3892.966	-25.75
3895.55	-38.75
3898.132	-32.75
3900.713	-26.75
3903.291	-31.75
3905.868	-43.75
3908.442	-31.75
3911.015	-37.75
3913.586	-38.75
3916.155	-34.75
3918.722	-38.75
3921.287	-38.75
3923.85	-47.75
3926.411	-43.75
3928.971	-40.75
3931.528	-33.75
3934.084	-38.75
3936.638	-46.75
3939.19	-35.75
3941.74	-33.75
3944.288	-40.75
3946.834	-39.75
3949.378	-25.75
3951.921	-41.75
3954.462	-32.75
3957	-33.75
3959.537	-28.75
3962.072	-41.75
3964.606	-48.75
3967.137	-41.75
3969.667	-33.75
3972.194	-26.75
3974.72	-40.75
3977.244	-60.75
3979.766	-45.75
3982.286	-43.75
3984.805	-28.75
3987.321	-18.75
3989.836	-27.75
3992.349	-37.75
3994.86	-33.75
3997.369	-37.75
3999.877	-36.75
4002.382	-38.75
4004.886	-27.75
4007.388	-31.75
4009.888	-24.75
4012.386	-24.75
4014.883	-32.75
4017.377	-33.75
4019.87	-32.75
4022.361	-42.75
4024.85	-33.75
4027.338	-32.75
4029.823	-35.75
4032.307	-36.75
4034.789	-31.75
4037.269	-29.75
4039.747	-47.75
4042.224	-24.75
4044.699	-40.75
4047.172	-33.75
4049.643	-30.75
4052.112	-52.75
4054.58	-28.75
4057.046	-40.75
4059.51	-27.75
4061.972	-35.75
4064.432	-51.75
4066.891	-20.75
4069.348	-30.75
4071.803	-28.75
4074.256	-33.75
4076.708	-27.75
4079.158	-28.75
4081.606	-16.75
4084.052	-28.75
4086.497	-23.75
4088.939	-31.75
4091.38	-31.75
4093.819	-23.75
4096.257	0.25
4098.693	-3.75
4101.127	-7.75
4103.559	1.25
4105.989	50.25
4108.418	55.25
4110.845	48.25
4113.27	65.25
4115.694	69.25
4118.115	69.25
4120.535	-23.75
4122.954	-24.75
4125.37	-19.75
4127.785	-28.75
4130.198	-24.75
4132.609	-25.75
4135.019	7.25
4137.427	4.25
4139.833	1.25
4142.237	-2.75
