Data from 2018-3-6_conc=5_n=3_RamanShift_02.txt Node
Date: Tue Mar 06 14:28:48 GMT+02:00 2018
User: LAB3
Spectrometer: QEPB0276
Trigger mode: 0
Integration Time (sec): 3.000000E1
Scans to average: 1
Electric dark correction enabled: true
Nonlinearity correction enabled: false
Boxcar width: 0
XAxis mode: Raman Shifts
Number of Pixels in Spectrum: 1044
>>>>>Begin Spectral Data<<<<<
160.701	69.38
166.742	93.38
172.777	132.38
178.805	239.38
184.826	573.38
190.841	1143.38
196.849	1765.38
202.85	2259.38
208.845	2365.38
214.833	2330.38
220.815	2283.38
226.789	2260.38
232.758	2236.38
238.719	2198.38
244.674	2161.38
250.623	2147.38
256.565	2091.38
262.5	2048.38
268.429	2016.38
274.351	1997.38
280.267	1958.38
286.176	1980.38
292.079	1978.38
297.975	1956.38
303.865	1931.38
309.748	1938.38
315.625	1920.38
321.495	1931.38
327.359	1911.38
333.217	1906.38
339.068	1905.38
344.912	1921.38
350.751	1894.38
356.583	1923.38
362.408	1905.38
368.227	1924.38
374.04	1940.38
379.847	1919.38
385.647	1936.38
391.44	1945.38
397.228	1940.38
403.009	1965.38
408.784	1975.38
414.553	1980.38
420.315	2000.38
426.071	1975.38
431.821	1990.38
437.565	1973.38
443.302	1973.38
449.033	1961.38
454.758	1983.38
460.477	1941.38
466.189	1918.38
471.896	1896.38
477.596	1896.38
483.29	1881.38
488.978	1878.38
494.66	1850.38
500.335	1798.38
506.005	1722.38
511.668	1625.38
517.325	1548.38
522.977	1472.38
528.622	1432.38
534.261	1392.38
539.894	1366.38
545.521	1350.38
551.141	1331.38
556.756	1306.38
562.365	1276.38
567.968	1300.38
573.565	1251.38
579.155	1270.38
584.74	1262.38
590.319	1274.38
595.892	1262.38
601.459	1256.38
607.02	1233.38
612.575	1248.38
618.124	1226.38
623.667	1209.38
629.204	1187.38
634.735	1157.38
640.261	1164.38
645.781	1123.38
651.294	1126.38
656.802	1147.38
662.304	1147.38
667.8	1139.38
673.29	1133.38
678.775	1129.38
684.254	1132.38
689.726	1113.38
695.193	1100.38
700.655	1109.38
706.11	1092.38
711.56	1085.38
717.004	1096.38
722.442	1059.38
727.874	1075.38
733.301	1081.38
738.722	1052.38
744.137	1056.38
749.547	1048.38
754.951	1058.38
760.349	1058.38
765.741	1070.38
771.128	1075.38
776.509	1076.38
781.885	1108.38
787.254	1119.38
792.618	1117.38
797.977	1129.38
803.33	1103.38
808.677	1099.38
814.019	1101.38
819.355	1093.38
824.686	1057.38
830.011	1052.38
835.33	1060.38
840.644	1060.38
845.952	1038.38
851.255	1043.38
856.552	1025.38
861.844	1010.38
867.13	988.38
872.41	993.38
877.686	990.38
882.955	976.38
888.219	964.38
893.478	934.38
898.731	942.38
903.979	923.38
909.221	913.38
914.458	900.38
919.69	914.38
924.916	921.38
930.136	901.38
935.351	907.38
940.561	920.38
945.766	919.38
950.965	919.38
956.158	890.38
961.347	886.38
966.529	899.38
971.707	890.38
976.879	857.38
982.046	850.38
987.208	828.38
992.364	849.38
997.515	843.38
1002.66	866.38
1007.801	842.38
1012.936	863.38
1018.066	862.38
1023.19	871.38
1028.309	875.38
1033.423	864.38
1038.532	883.38
1043.636	877.38
1048.734	876.38
1053.827	847.38
1058.915	830.38
1063.998	832.38
1069.075	833.38
1074.147	844.38
1079.214	813.38
1084.276	832.38
1089.333	833.38
1094.385	845.38
1099.431	828.38
1104.472	833.38
1109.509	814.38
1114.54	807.38
1119.565	796.38
1124.586	793.38
1129.602	773.38
1134.613	756.38
1139.618	769.38
1144.619	760.38
1149.614	770.38
1154.604	771.38
1159.589	766.38
1164.57	790.38
1169.545	790.38
1174.515	788.38
1179.48	765.38
1184.44	775.38
1189.395	776.38
1194.345	757.38
1199.29	768.38
1204.23	743.38
1209.165	745.38
1214.095	763.38
1219.021	753.38
1223.941	754.38
1228.856	761.38
1233.766	768.38
1238.672	782.38
1243.572	756.38
1248.467	768.38
1253.358	740.38
1258.244	717.38
1263.124	733.38
1268	728.38
1272.871	689.38
1277.737	694.38
1282.599	695.38
1287.455	682.38
1292.306	686.38
1297.153	668.38
1301.995	689.38
1306.832	694.38
1311.664	699.38
1316.491	691.38
1321.314	695.38
1326.132	681.38
1330.945	680.38
1335.753	663.38
1340.556	660.38
1345.354	638.38
1350.148	636.38
1354.937	626.38
1359.722	610.38
1364.501	609.38
1369.276	614.38
1374.046	610.38
1378.811	614.38
1383.572	614.38
1388.327	606.38
1393.079	586.38
1397.825	594.38
1402.567	592.38
1407.304	596.38
1412.036	583.38
1416.764	594.38
1421.487	572.38
1426.205	575.38
1430.919	583.38
1435.628	591.38
1440.333	583.38
1445.032	599.38
1449.727	591.38
1454.418	608.38
1459.104	603.38
1463.785	572.38
1468.462	585.38
1473.134	577.38
1477.802	563.38
1482.465	529.38
1487.123	546.38
1491.777	542.38
1496.426	520.38
1501.071	549.38
1505.711	528.38
1510.347	547.38
1514.978	548.38
1519.604	535.38
1524.226	542.38
1528.844	525.38
1533.457	550.38
1538.065	541.38
1542.669	531.38
1547.269	538.38
1551.864	519.38
1556.454	512.38
1561.041	534.38
1565.622	517.38
1570.199	534.38
1574.772	538.38
1579.34	543.38
1583.904	555.38
1588.464	564.38
1593.019	554.38
1597.569	540.38
1602.115	534.38
1606.657	528.38
1611.195	560.38
1615.728	553.38
1620.256	537.38
1624.78	506.38
1629.3	542.38
1633.816	543.38
1638.327	528.38
1642.834	546.38
1647.336	540.38
1651.834	553.38
1656.328	546.38
1660.817	529.38
1665.302	522.38
1669.783	518.38
1674.259	519.38
1678.732	501.38
1683.199	491.38
1687.663	479.38
1692.122	460.38
1696.577	467.38
1701.028	458.38
1705.474	435.38
1709.917	434.38
1714.355	435.38
1718.788	409.38
1723.218	406.38
1727.643	396.38
1732.064	413.38
1736.481	386.38
1740.893	394.38
1745.301	373.38
1749.705	355.38
1754.105	370.38
1758.501	364.38
1762.893	363.38
1767.28	329.38
1771.663	341.38
1776.042	329.38
1780.417	326.38
1784.787	331.38
1789.154	346.38
1793.516	342.38
1797.874	325.38
1802.228	314.38
1806.578	307.38
1810.924	327.38
1815.266	208.38
1819.603	317.38
1823.937	312.38
1828.266	315.38
1832.591	316.38
1836.913	308.38
1841.23	300.38
1845.543	305.38
1849.852	310.38
1854.156	300.38
1858.457	307.38
1862.754	301.38
1867.047	305.38
1871.335	309.38
1875.62	315.38
1879.9	310.38
1884.177	297.38
1888.449	303.38
1892.718	303.38
1896.982	303.38
1901.243	281.38
1905.499	286.38
1909.752	281.38
1914	259.38
1918.245	292.38
1922.485	290.38
1926.722	280.38
1930.954	271.38
1935.183	290.38
1939.408	286.38
1943.628	290.38
1947.845	293.38
1952.058	282.38
1956.267	267.38
1960.472	287.38
1964.673	269.38
1968.87	272.38
1973.063	270.38
1977.252	267.38
1981.438	255.38
1985.619	260.38
1989.797	244.38
1993.971	253.38
1998.14	261.38
2002.306	260.38
2006.469	257.38
2010.627	241.38
2014.781	249.38
2018.932	241.38
2023.078	265.38
2027.221	250.38
2031.36	241.38
2035.495	233.38
2039.627	239.38
2043.754	244.38
2047.878	233.38
2051.998	228.38
2056.114	226.38
2060.226	227.38
2064.334	230.38
2068.439	236.38
2072.54	236.38
2076.637	219.38
2080.73	221.38
2084.82	221.38
2088.906	216.38
2092.988	224.38
2097.066	224.38
2101.14	235.38
2105.211	230.38
2109.278	214.38
2113.342	214.38
2117.401	200.38
2121.457	211.38
2125.509	204.38
2129.558	206.38
2133.602	203.38
2137.643	203.38
2141.681	199.38
2145.714	207.38
2149.744	201.38
2153.77	203.38
2157.793	189.38
2161.812	169.38
2165.827	176.38
2169.838	201.38
2173.846	180.38
2177.851	182.38
2181.851	194.38
2185.848	169.38
2189.841	182.38
2193.831	173.38
2197.817	176.38
2201.799	175.38
2205.778	166.38
2209.753	161.38
2213.725	157.38
2217.693	167.38
2221.657	164.38
2225.618	173.38
2229.575	173.38
2233.529	168.38
2237.479	165.38
2241.425	153.38
2245.368	152.38
2249.307	157.38
2253.243	150.38
2257.175	155.38
2261.104	139.38
2265.029	149.38
2268.95	148.38
2272.868	145.38
2276.783	135.38
2280.694	148.38
2284.601	137.38
2288.505	143.38
2292.405	145.38
2296.302	120.38
2300.195	137.38
2304.085	103.38
2307.971	130.38
2311.854	104.38
2315.734	128.38
2319.609	125.38
2323.482	99.38
2327.351	112.38
2331.216	113.38
2335.078	117.38
2338.937	114.38
2342.792	104.38
2346.643	107.38
2350.492	120.38
2354.336	111.38
2358.178	112.38
2362.015	111.38
2365.85	111.38
2369.681	107.38
2373.508	113.38
2377.333	120.38
2381.153	120.38
2384.971	109.38
2388.785	115.38
2392.595	107.38
2396.402	106.38
2400.206	84.38
2404.007	91.38
2407.804	111.38
2411.597	107.38
2415.388	97.38
2419.174	94.38
2422.958	99.38
2426.738	94.38
2430.515	107.38
2434.289	91.38
2438.059	93.38
2441.825	92.38
2445.589	106.38
2449.349	74.38
2453.106	98.38
2456.859	96.38
2460.61	95.38
2464.356	76.38
2468.1	76.38
2471.84	79.38
2475.577	75.38
2479.311	77.38
2483.041	84.38
2486.768	100.38
2490.492	95.38
2494.213	84.38
2497.93	74.38
2501.644	68.38
2505.355	74.38
2509.062	82.38
2512.766	77.38
2516.467	78.38
2520.165	71.38
2523.859	68.38
2527.551	97.38
2531.239	69.38
2534.923	77.38
2538.605	74.38
2542.283	75.38
2545.958	74.38
2549.63	79.38
2553.299	83.38
2556.964	59.38
2560.626	74.38
2564.285	68.38
2567.941	55.38
2571.594	60.38
2575.243	74.38
2578.89	59.38
2582.533	65.38
2586.173	65.38
2589.809	68.38
2593.443	44.38
2597.073	73.38
2600.701	64.38
2604.325	63.38
2607.946	50.38
2611.564	68.38
2615.178	67.38
2618.79	70.38
2622.398	51.38
2626.004	60.38
2629.606	61.38
2633.205	56.38
2636.801	65.38
2640.394	62.38
2643.983	53.38
2647.57	53.38
2651.153	53.38
2654.734	64.38
2658.311	33.38
2661.885	51.38
2665.456	49.38
2669.025	51.38
2672.589	42.38
2676.151	61.38
2679.71	60.38
2683.266	47.38
2686.819	41.38
2690.368	56.38
2693.915	55.38
2697.458	50.38
2700.999	48.38
2704.536	52.38
2708.071	48.38
2711.602	46.38
2715.13	40.38
2718.656	28.38
2722.178	43.38
2725.697	28.38
2729.214	38.38
2732.727	44.38
2736.237	19.38
2739.744	34.38
2743.249	26.38
2746.75	39.38
2750.248	29.38
2753.743	39.38
2757.236	35.38
2760.725	42.38
2764.211	10.38
2767.695	37.38
2771.175	36.38
2774.652	41.38
2778.127	32.38
2781.598	39.38
2785.067	40.38
2788.532	25.38
2791.995	40.38
2795.455	27.38
2798.911	43.38
2802.365	26.38
2805.816	37.38
2809.264	41.38
2812.709	30.38
2816.151	42.38
2819.59	27.38
2823.026	31.38
2826.46	31.38
2829.89	46.38
2833.318	14.38
2836.742	32.38
2840.164	32.38
2843.583	29.38
2846.999	33.38
2850.412	37.38
2853.822	31.38
2857.229	45.38
2860.634	39.38
2864.035	25.38
2867.434	45.38
2870.83	46.38
2874.223	35.38
2877.613	37.38
2881	29.38
2884.385	31.38
2887.766	36.38
2891.145	36.38
2894.521	31.38
2897.894	29.38
2901.264	40.38
2904.631	41.38
2907.996	44.38
2911.358	50.38
2914.717	41.38
2918.073	35.38
2921.426	34.38
2924.777	27.38
2928.124	37.38
2931.469	56.38
2934.811	30.38
2938.15	60.38
2941.487	44.38
2944.821	64.38
2948.152	46.38
2951.48	59.38
2954.805	39.38
2958.128	59.38
2961.447	46.38
2964.765	62.38
2968.079	46.38
2971.39	54.38
2974.699	53.38
2978.005	54.38
2981.308	58.38
2984.609	49.38
2987.907	58.38
2991.202	63.38
2994.494	48.38
2997.784	58.38
3001.07	55.38
3004.355	53.38
3007.636	68.38
3010.915	59.38
3014.191	60.38
3017.464	64.38
3020.734	66.38
3024.002	64.38
3027.267	63.38
3030.53	67.38
3033.789	66.38
3037.046	67.38
3040.301	59.38
3043.552	71.38
3046.801	74.38
3050.048	76.38
3053.291	96.38
3056.532	78.38
3059.771	67.38
3063.006	83.38
3066.239	83.38
3069.469	96.38
3072.697	85.38
3075.922	90.38
3079.144	96.38
3082.364	113.38
3085.581	87.38
3088.795	117.38
3092.007	112.38
3095.216	110.38
3098.423	107.38
3101.627	90.38
3104.828	114.38
3108.026	109.38
3111.222	133.38
3114.416	137.38
3117.607	127.38
3120.795	130.38
3123.98	133.38
3127.163	120.38
3130.344	127.38
3133.521	133.38
3136.696	150.38
3139.869	143.38
3143.039	128.38
3146.206	165.38
3149.371	158.38
3152.533	160.38
3155.693	146.38
3158.85	163.38
3162.005	164.38
3165.157	157.38
3168.306	169.38
3171.453	170.38
3174.597	149.38
3177.739	151.38
3180.878	174.38
3184.014	171.38
3187.149	172.38
3190.28	170.38
3193.409	180.38
3196.536	171.38
3199.659	180.38
3202.781	168.38
3205.9	161.38
3209.016	172.38
3212.13	167.38
3215.241	173.38
3218.35	166.38
3221.456	155.38
3224.56	153.38
3227.661	162.38
3230.76	156.38
3233.856	151.38
3236.95	152.38
3240.041	142.38
3243.13	157.38
3246.216	156.38
3249.3	160.38
3252.382	155.38
3255.46	136.38
3258.537	99.38
3261.611	140.38
3264.682	145.38
3267.751	145.38
3270.818	134.38
3273.882	151.38
3276.943	142.38
3280.002	156.38
3283.059	138.38
3286.113	140.38
3289.165	134.38
3292.214	131.38
3295.261	145.38
3298.306	124.38
3301.348	140.38
3304.387	124.38
3307.425	131.38
3310.459	131.38
3313.492	134.38
3316.521	126.38
3319.549	137.38
3322.574	128.38
3325.597	120.38
3328.617	120.38
3331.635	117.38
3334.65	111.38
3337.663	114.38
3340.674	118.38
3343.682	122.38
3346.688	128.38
3349.691	109.38
3352.692	112.38
3355.691	122.38
3358.687	118.38
3361.681	125.38
3364.673	108.38
3367.662	120.38
3370.649	119.38
3373.633	101.38
3376.615	111.38
3379.595	88.38
3382.572	104.38
3385.547	94.38
3388.52	92.38
3391.49	90.38
3394.458	93.38
3397.424	98.38
3400.387	82.38
3403.348	92.38
3406.307	97.38
3409.263	85.38
3412.217	96.38
3415.168	92.38
3418.118	103.38
3421.065	84.38
3424.009	91.38
3426.951	89.38
3429.891	75.38
3432.829	86.38
3435.764	86.38
3438.697	73.38
3441.628	80.38
3444.557	68.38
3447.483	57.38
3450.407	76.38
3453.328	61.38
3456.247	59.38
3459.164	51.38
3462.079	73.38
3464.991	56.38
3467.902	53.38
3470.809	51.38
3473.715	55.38
3476.618	42.38
3479.519	49.38
3482.418	25.38
3485.315	37.38
3488.209	35.38
3491.101	36.38
3493.99	21.38
3496.878	22.38
3499.763	30.38
3502.646	28.38
3505.527	27.38
3508.405	25.38
3511.281	12.38
3514.155	22.38
3517.027	21.38
3519.897	7.38
3522.764	15.38
3525.629	-5.62
3528.492	8.38
3531.352	14.38
3534.211	11.38
3537.067	7.38
3539.921	10.38
3542.773	11.38
3545.622	-6.62
3548.469	-5.62
3551.315	-9.62
3554.157	6.38
3556.998	-5.62
3559.837	-3.62
3562.673	-2.62
3565.507	-12.62
3568.339	-14.62
3571.169	-9.62
3573.996	-10.62
3576.822	-25.62
3579.645	-19.62
3582.466	-15.62
3585.285	-7.62
3588.101	-9.62
3590.916	-19.62
3593.728	-8.62
3596.538	-23.62
3599.346	-18.62
3602.152	-22.62
3604.956	-17.62
3607.757	-16.62
3610.556	-30.62
3613.354	-11.62
3616.149	-14.62
3618.942	-15.62
3621.732	-16.62
3624.521	-20.62
3627.307	-26.62
3630.092	-25.62
3632.874	-11.62
3635.654	-19.62
3638.432	-29.62
3641.208	-26.62
3643.982	-23.62
3646.753	-15.62
3649.523	-49.62
3652.29	-31.62
3655.055	-21.62
3657.818	-21.62
3660.579	-26.62
3663.338	-29.62
3666.095	-30.62
3668.849	-48.62
3671.602	-23.62
3674.352	-37.62
3677.101	-18.62
3679.847	-16.62
3682.591	-33.62
3685.333	-41.62
3688.073	-24.62
3690.811	-37.62
3693.547	-41.62
3696.281	-43.62
3699.013	-23.62
3701.742	-30.62
3704.47	-38.62
3707.195	-29.62
3709.919	-28.62
3712.64	-35.62
3715.359	-38.62
3718.076	-18.62
3720.792	-29.62
3723.505	-26.62
3726.216	-19.62
3728.925	-31.62
3731.632	-44.62
3734.336	-27.62
3737.039	-30.62
3739.74	-30.62
3742.439	-58.62
3745.136	-27.62
3747.83	-24.62
3750.523	-27.62
3753.213	-86.62
3755.902	-33.62
3758.589	-46.62
3761.273	-32.62
3763.956	-25.62
3766.636	-46.62
3769.315	-23.62
3771.991	-30.62
3774.665	-33.62
3777.338	-32.62
3780.008	-41.62
3782.677	-31.62
3785.343	-48.62
3788.007	-47.62
3790.67	-26.62
3793.33	-42.62
3795.989	-34.62
3798.645	-29.62
3801.299	-46.62
3803.952	-47.62
3806.602	-31.62
3809.251	-26.62
3811.897	-31.62
3814.542	-26.62
3817.184	-34.62
3819.825	-30.62
3822.463	-44.62
3825.1	-33.62
3827.735	-32.62
3830.367	-39.62
3832.998	-22.62
3835.627	-37.62
3838.253	-25.62
3840.878	-36.62
3843.501	-16.62
3846.122	-26.62
3848.741	-26.62
3851.358	-25.62
3853.973	-40.62
3856.586	-23.62
3859.197	-35.62
3861.806	-24.62
3864.414	-41.62
3867.019	-33.62
3869.622	-24.62
3872.224	-21.62
3874.823	-13.62
3877.421	7.38
3880.016	15.38
3882.61	52.38
3885.202	68.38
3887.792	42.38
3890.38	18.38
3892.966	-11.62
3895.55	-33.62
3898.132	-23.62
3900.713	-25.62
3903.291	-31.62
3905.868	-37.62
3908.442	-30.62
3911.015	-29.62
3913.586	-36.62
3916.155	-34.62
3918.722	-35.62
3921.287	-44.62
3923.85	-47.62
3926.411	-39.62
3928.971	-38.62
3931.528	-30.62
3934.084	-38.62
3936.638	-45.62
3939.19	-26.62
3941.74	-31.62
3944.288	-36.62
3946.834	-32.62
3949.378	-29.62
3951.921	-35.62
3954.462	-32.62
3957	-33.62
3959.537	-21.62
3962.072	-36.62
3964.606	-47.62
3967.137	-38.62
3969.667	-37.62
3972.194	-28.62
3974.72	-40.62
3977.244	-56.62
3979.766	-41.62
3982.286	-43.62
3984.805	-34.62
3987.321	-27.62
3989.836	-28.62
3992.349	-41.62
3994.86	-33.62
3997.369	-41.62
3999.877	-38.62
4002.382	-39.62
4004.886	-32.62
4007.388	-31.62
4009.888	-22.62
4012.386	-29.62
4014.883	-29.62
4017.377	-33.62
4019.87	-31.62
4022.361	-40.62
4024.85	-29.62
4027.338	-29.62
4029.823	-35.62
4032.307	-31.62
4034.789	-30.62
4037.269	-31.62
4039.747	-47.62
4042.224	-28.62
4044.699	-38.62
4047.172	-40.62
4049.643	-26.62
4052.112	-54.62
4054.58	-29.62
4057.046	-43.62
4059.51	-32.62
4061.972	-32.62
4064.432	-53.62
4066.891	-23.62
4069.348	-35.62
4071.803	-35.62
4074.256	-33.62
4076.708	-26.62
4079.158	-32.62
4081.606	-15.62
4084.052	-35.62
4086.497	-25.62
4088.939	-32.62
4091.38	-38.62
4093.819	-27.62
4096.257	1.38
4098.693	-6.62
4101.127	-4.62
4103.559	-1.62
4105.989	66.38
4108.418	76.38
4110.845	57.38
4113.27	61.38
4115.694	76.38
4118.115	59.38
4120.535	-28.62
4122.954	-25.62
4125.37	-23.62
4127.785	-28.62
4130.198	-24.62
4132.609	-29.62
4135.019	9.38
4137.427	-0.62
4139.833	5.38
4142.237	-2.62
