Data from 2018-3-6_conc=4_n=3_RamanShift_05.txt Node
Date: Tue Mar 06 13:58:19 GMT+02:00 2018
User: LAB3
Spectrometer: QEPB0276
Trigger mode: 0
Integration Time (sec): 3.000000E1
Scans to average: 1
Electric dark correction enabled: true
Nonlinearity correction enabled: false
Boxcar width: 0
XAxis mode: Raman Shifts
Number of Pixels in Spectrum: 1044
>>>>>Begin Spectral Data<<<<<
160.701	90.62
166.742	112.62
172.777	162.62
178.805	340.62
184.826	797.62
190.841	1598.62
196.849	2500.62
202.85	3217.62
208.845	3441.62
214.833	3432.62
220.815	3382.62
226.789	3386.62
232.758	3393.62
238.719	3367.62
244.674	3340.62
250.623	3328.62
256.565	3285.62
262.5	3243.62
268.429	3204.62
274.351	3182.62
280.267	3175.62
286.176	3171.62
292.079	3183.62
297.975	3174.62
303.865	3152.62
309.748	3170.62
315.625	3159.62
321.495	3182.62
327.359	3166.62
333.217	3168.62
339.068	3166.62
344.912	3206.62
350.751	3189.62
356.583	3198.62
362.408	3216.62
368.227	3235.62
374.04	3236.62
379.847	3242.62
385.647	3272.62
391.44	3260.62
397.228	3288.62
403.009	3281.62
408.784	3324.62
414.553	3313.62
420.315	3340.62
426.071	3310.62
431.821	3326.62
437.565	3311.62
443.302	3336.62
449.033	3296.62
454.758	3311.62
460.477	3254.62
466.189	3230.62
471.896	3223.62
477.596	3204.62
483.29	3165.62
488.978	3178.62
494.66	3147.62
500.335	3049.62
506.005	2955.62
511.668	2809.62
517.325	2698.62
522.977	2578.62
528.622	2506.62
534.261	2470.62
539.894	2387.62
545.521	2374.62
551.141	2334.62
556.756	2319.62
562.365	2310.62
567.968	2287.62
573.565	2276.62
579.155	2260.62
584.74	2232.62
590.319	2261.62
595.892	2259.62
601.459	2235.62
607.02	2214.62
612.575	2213.62
618.124	2191.62
623.667	2146.62
629.204	2131.62
634.735	2119.62
640.261	2083.62
645.781	2042.62
651.294	2049.62
656.802	2035.62
662.304	2066.62
667.8	2052.62
673.29	2039.62
678.775	2028.62
684.254	2009.62
689.726	2000.62
695.193	2003.62
700.655	2003.62
706.11	1982.62
711.56	1953.62
717.004	1960.62
722.442	1963.62
727.874	1947.62
733.301	1953.62
738.722	1917.62
744.137	1928.62
749.547	1912.62
754.951	1906.62
760.349	1922.62
765.741	1943.62
771.128	1945.62
776.509	1964.62
781.885	1991.62
787.254	2017.62
792.618	2018.62
797.977	2030.62
803.33	2002.62
808.677	1963.62
814.019	1967.62
819.355	1929.62
824.686	1940.62
830.011	1904.62
835.33	1924.62
840.644	1915.62
845.952	1898.62
851.255	1869.62
856.552	1844.62
861.844	1847.62
867.13	1815.62
872.41	1809.62
877.686	1804.62
882.955	1759.62
888.219	1760.62
893.478	1736.62
898.731	1733.62
903.979	1693.62
909.221	1689.62
914.458	1660.62
919.69	1683.62
924.916	1655.62
930.136	1678.62
935.351	1660.62
940.561	1686.62
945.766	1674.62
950.965	1673.62
956.158	1648.62
961.347	1624.62
966.529	1623.62
971.707	1607.62
976.879	1570.62
982.046	1562.62
987.208	1546.62
992.364	1567.62
997.515	1553.62
1002.66	1562.62
1007.801	1586.62
1012.936	1572.62
1018.066	1571.62
1023.19	1627.62
1028.309	1602.62
1033.423	1615.62
1038.532	1622.62
1043.636	1592.62
1048.734	1589.62
1053.827	1566.62
1058.915	1542.62
1063.998	1557.62
1069.075	1519.62
1074.147	1532.62
1079.214	1519.62
1084.276	1546.62
1089.333	1542.62
1094.385	1553.62
1099.431	1537.62
1104.472	1552.62
1109.509	1510.62
1114.54	1505.62
1119.565	1477.62
1124.586	1468.62
1129.602	1433.62
1134.613	1417.62
1139.618	1418.62
1144.619	1417.62
1149.614	1422.62
1154.604	1426.62
1159.589	1422.62
1164.57	1441.62
1169.545	1457.62
1174.515	1441.62
1179.48	1423.62
1184.44	1415.62
1189.395	1415.62
1194.345	1405.62
1199.29	1399.62
1204.23	1380.62
1209.165	1372.62
1214.095	1416.62
1219.021	1398.62
1223.941	1403.62
1228.856	1406.62
1233.766	1411.62
1238.672	1449.62
1243.572	1424.62
1248.467	1412.62
1253.358	1396.62
1258.244	1355.62
1263.124	1355.62
1268	1341.62
1272.871	1308.62
1277.737	1292.62
1282.599	1273.62
1287.455	1265.62
1292.306	1297.62
1297.153	1275.62
1301.995	1296.62
1306.832	1300.62
1311.664	1309.62
1316.491	1303.62
1321.314	1296.62
1326.132	1268.62
1330.945	1266.62
1335.753	1240.62
1340.556	1227.62
1345.354	1202.62
1350.148	1184.62
1354.937	1181.62
1359.722	1150.62
1364.501	1152.62
1369.276	1161.62
1374.046	1150.62
1378.811	1132.62
1383.572	1149.62
1388.327	1149.62
1393.079	1127.62
1397.825	1130.62
1402.567	1123.62
1407.304	1091.62
1412.036	1095.62
1416.764	1089.62
1421.487	1092.62
1426.205	1083.62
1430.919	1111.62
1435.628	1122.62
1440.333	1091.62
1445.032	1112.62
1449.727	1123.62
1454.418	1141.62
1459.104	1130.62
1463.785	1087.62
1468.462	1103.62
1473.134	1057.62
1477.802	1041.62
1482.465	1013.62
1487.123	1031.62
1491.777	1001.62
1496.426	1004.62
1501.071	1023.62
1505.711	1011.62
1510.347	1028.62
1514.978	1037.62
1519.604	1023.62
1524.226	1039.62
1528.844	1010.62
1533.457	1024.62
1538.065	1022.62
1542.669	1004.62
1547.269	997.62
1551.864	1003.62
1556.454	995.62
1561.041	991.62
1565.622	998.62
1570.199	995.62
1574.772	1015.62
1579.34	1025.62
1583.904	1032.62
1588.464	1046.62
1593.019	1044.62
1597.569	1024.62
1602.115	1040.62
1606.657	1016.62
1611.195	1039.62
1615.728	1019.62
1620.256	1015.62
1624.78	981.62
1629.3	1003.62
1633.816	1013.62
1638.327	1003.62
1642.834	1025.62
1647.336	1024.62
1651.834	1040.62
1656.328	1039.62
1660.817	1027.62
1665.302	1003.62
1669.783	988.62
1674.259	980.62
1678.732	956.62
1683.199	944.62
1687.663	904.62
1692.122	897.62
1696.577	876.62
1701.028	864.62
1705.474	840.62
1709.917	820.62
1714.355	824.62
1718.788	808.62
1723.218	796.62
1727.643	772.62
1732.064	791.62
1736.481	764.62
1740.893	757.62
1745.301	745.62
1749.705	693.62
1754.105	718.62
1758.501	692.62
1762.893	687.62
1767.28	657.62
1771.663	670.62
1776.042	652.62
1780.417	656.62
1784.787	662.62
1789.154	669.62
1793.516	657.62
1797.874	656.62
1802.228	646.62
1806.578	637.62
1810.924	651.62
1815.266	533.62
1819.603	637.62
1823.937	609.62
1828.266	625.62
1832.591	626.62
1836.913	616.62
1841.23	591.62
1845.543	605.62
1849.852	604.62
1854.156	597.62
1858.457	592.62
1862.754	585.62
1867.047	601.62
1871.335	608.62
1875.62	610.62
1879.9	604.62
1884.177	591.62
1888.449	582.62
1892.718	590.62
1896.982	598.62
1901.243	574.62
1905.499	573.62
1909.752	566.62
1914	555.62
1918.245	569.62
1922.485	573.62
1926.722	567.62
1930.954	554.62
1935.183	569.62
1939.408	582.62
1943.628	578.62
1947.845	570.62
1952.058	559.62
1956.267	545.62
1960.472	559.62
1964.673	541.62
1968.87	530.62
1973.063	538.62
1977.252	525.62
1981.438	513.62
1985.619	507.62
1989.797	490.62
1993.971	500.62
1998.14	516.62
2002.306	502.62
2006.469	512.62
2010.627	491.62
2014.781	504.62
2018.932	496.62
2023.078	512.62
2027.221	494.62
2031.36	472.62
2035.495	470.62
2039.627	489.62
2043.754	474.62
2047.878	455.62
2051.998	460.62
2056.114	464.62
2060.226	446.62
2064.334	460.62
2068.439	457.62
2072.54	471.62
2076.637	457.62
2080.73	467.62
2084.82	457.62
2088.906	454.62
2092.988	449.62
2097.066	456.62
2101.14	455.62
2105.211	457.62
2109.278	449.62
2113.342	443.62
2117.401	419.62
2121.457	415.62
2125.509	405.62
2129.558	416.62
2133.602	413.62
2137.643	410.62
2141.681	417.62
2145.714	402.62
2149.744	412.62
2153.77	402.62
2157.793	394.62
2161.812	373.62
2165.827	374.62
2169.838	387.62
2173.846	376.62
2177.851	367.62
2181.851	378.62
2185.848	368.62
2189.841	368.62
2193.831	355.62
2197.817	340.62
2201.799	356.62
2205.778	340.62
2209.753	336.62
2213.725	338.62
2217.693	341.62
2221.657	334.62
2225.618	350.62
2229.575	338.62
2233.529	339.62
2237.479	337.62
2241.425	312.62
2245.368	312.62
2249.307	317.62
2253.243	308.62
2257.175	314.62
2261.104	298.62
2265.029	296.62
2268.95	299.62
2272.868	293.62
2276.783	289.62
2280.694	284.62
2284.601	285.62
2288.505	278.62
2292.405	284.62
2296.302	263.62
2300.195	274.62
2304.085	240.62
2307.971	263.62
2311.854	247.62
2315.734	247.62
2319.609	254.62
2323.482	227.62
2327.351	244.62
2331.216	237.62
2335.078	247.62
2338.937	245.62
2342.792	236.62
2346.643	231.62
2350.492	243.62
2354.336	239.62
2358.178	250.62
2362.015	230.62
2365.85	238.62
2369.681	235.62
2373.508	243.62
2377.333	244.62
2381.153	240.62
2384.971	237.62
2388.785	236.62
2392.595	228.62
2396.402	227.62
2400.206	202.62
2404.007	216.62
2407.804	217.62
2411.597	220.62
2415.388	213.62
2419.174	219.62
2422.958	223.62
2426.738	223.62
2430.515	220.62
2434.289	211.62
2438.059	209.62
2441.825	206.62
2445.589	227.62
2449.349	201.62
2453.106	204.62
2456.859	204.62
2460.61	202.62
2464.356	188.62
2468.1	188.62
2471.84	188.62
2475.577	197.62
2479.311	185.62
2483.041	193.62
2486.768	210.62
2490.492	201.62
2494.213	189.62
2497.93	184.62
2501.644	175.62
2505.355	178.62
2509.062	177.62
2512.766	186.62
2516.467	172.62
2520.165	180.62
2523.859	164.62
2527.551	204.62
2531.239	162.62
2534.923	179.62
2538.605	175.62
2542.283	168.62
2545.958	166.62
2549.63	182.62
2553.299	179.62
2556.964	159.62
2560.626	161.62
2564.285	172.62
2567.941	154.62
2571.594	160.62
2575.243	168.62
2578.89	155.62
2582.533	163.62
2586.173	161.62
2589.809	159.62
2593.443	134.62
2597.073	148.62
2600.701	161.62
2604.325	150.62
2607.946	145.62
2611.564	156.62
2615.178	151.62
2618.79	150.62
2622.398	144.62
2626.004	146.62
2629.606	148.62
2633.205	139.62
2636.801	147.62
2640.394	139.62
2643.983	135.62
2647.57	137.62
2651.153	130.62
2654.734	142.62
2658.311	113.62
2661.885	122.62
2665.456	129.62
2669.025	125.62
2672.589	121.62
2676.151	135.62
2679.71	135.62
2683.266	124.62
2686.819	124.62
2690.368	129.62
2693.915	130.62
2697.458	114.62
2700.999	122.62
2704.536	125.62
2708.071	117.62
2711.602	121.62
2715.13	112.62
2718.656	93.62
2722.178	110.62
2725.697	98.62
2729.214	101.62
2732.727	107.62
2736.237	93.62
2739.744	95.62
2743.249	102.62
2746.75	102.62
2750.248	102.62
2753.743	110.62
2757.236	105.62
2760.725	105.62
2764.211	75.62
2767.695	107.62
2771.175	100.62
2774.652	104.62
2778.127	99.62
2781.598	96.62
2785.067	100.62
2788.532	92.62
2791.995	107.62
2795.455	94.62
2798.911	111.62
2802.365	96.62
2805.816	102.62
2809.264	113.62
2812.709	91.62
2816.151	102.62
2819.59	87.62
2823.026	90.62
2826.46	91.62
2829.89	109.62
2833.318	75.62
2836.742	93.62
2840.164	98.62
2843.583	97.62
2846.999	101.62
2850.412	102.62
2853.822	101.62
2857.229	118.62
2860.634	108.62
2864.035	88.62
2867.434	109.62
2870.83	115.62
2874.223	100.62
2877.613	108.62
2881	101.62
2884.385	100.62
2887.766	101.62
2891.145	115.62
2894.521	105.62
2897.894	107.62
2901.264	117.62
2904.631	114.62
2907.996	116.62
2911.358	119.62
2914.717	117.62
2918.073	113.62
2921.426	113.62
2924.777	103.62
2928.124	115.62
2931.469	123.62
2934.811	109.62
2938.15	132.62
2941.487	119.62
2944.821	142.62
2948.152	127.62
2951.48	130.62
2954.805	119.62
2958.128	144.62
2961.447	124.62
2964.765	140.62
2968.079	124.62
2971.39	134.62
2974.699	135.62
2978.005	137.62
2981.308	130.62
2984.609	125.62
2987.907	139.62
2991.202	147.62
2994.494	127.62
2997.784	149.62
3001.07	144.62
3004.355	137.62
3007.636	148.62
3010.915	144.62
3014.191	141.62
3017.464	143.62
3020.734	150.62
3024.002	152.62
3027.267	156.62
3030.53	149.62
3033.789	150.62
3037.046	159.62
3040.301	152.62
3043.552	164.62
3046.801	166.62
3050.048	182.62
3053.291	198.62
3056.532	174.62
3059.771	167.62
3063.006	188.62
3066.239	190.62
3069.469	199.62
3072.697	195.62
3075.922	203.62
3079.144	193.62
3082.364	228.62
3085.581	211.62
3088.795	238.62
3092.007	235.62
3095.216	250.62
3098.423	229.62
3101.627	220.62
3104.828	249.62
3108.026	244.62
3111.222	272.62
3114.416	270.62
3117.607	264.62
3120.795	273.62
3123.98	280.62
3127.163	273.62
3130.344	280.62
3133.521	286.62
3136.696	309.62
3139.869	307.62
3143.039	297.62
3146.206	327.62
3149.371	323.62
3152.533	313.62
3155.693	315.62
3158.85	335.62
3162.005	332.62
3165.157	324.62
3168.306	330.62
3171.453	349.62
3174.597	328.62
3177.739	327.62
3180.878	345.62
3184.014	340.62
3187.149	340.62
3190.28	342.62
3193.409	355.62
3196.536	353.62
3199.659	355.62
3202.781	348.62
3205.9	333.62
3209.016	359.62
3212.13	344.62
3215.241	340.62
3218.35	342.62
3221.456	328.62
3224.56	329.62
3227.661	326.62
3230.76	332.62
3233.856	322.62
3236.95	318.62
3240.041	310.62
3243.13	316.62
3246.216	313.62
3249.3	325.62
3252.382	313.62
3255.46	303.62
3258.537	271.62
3261.611	292.62
3264.682	307.62
3267.751	300.62
3270.818	294.62
3273.882	310.62
3276.943	295.62
3280.002	311.62
3283.059	290.62
3286.113	295.62
3289.165	288.62
3292.214	287.62
3295.261	291.62
3298.306	270.62
3301.348	279.62
3304.387	268.62
3307.425	274.62
3310.459	268.62
3313.492	275.62
3316.521	265.62
3319.549	273.62
3322.574	266.62
3325.597	254.62
3328.617	246.62
3331.635	264.62
3334.65	236.62
3337.663	260.62
3340.674	254.62
3343.682	252.62
3346.688	263.62
3349.691	245.62
3352.692	254.62
3355.691	262.62
3358.687	250.62
3361.681	248.62
3364.673	243.62
3367.662	241.62
3370.649	252.62
3373.633	230.62
3376.615	238.62
3379.595	205.62
3382.572	222.62
3385.547	224.62
3388.52	203.62
3391.49	214.62
3394.458	210.62
3397.424	217.62
3400.387	198.62
3403.348	204.62
3406.307	206.62
3409.263	197.62
3412.217	206.62
3415.168	199.62
3418.118	206.62
3421.065	187.62
3424.009	207.62
3426.951	190.62
3429.891	184.62
3432.829	182.62
3435.764	185.62
3438.697	168.62
3441.628	182.62
3444.557	156.62
3447.483	158.62
3450.407	158.62
3453.328	146.62
3456.247	153.62
3459.164	140.62
3462.079	154.62
3464.991	141.62
3467.902	136.62
3470.809	129.62
3473.715	132.62
3476.618	121.62
3479.519	118.62
3482.418	95.62
3485.315	107.62
3488.209	107.62
3491.101	96.62
3493.99	91.62
3496.878	88.62
3499.763	91.62
3502.646	89.62
3505.527	84.62
3508.405	82.62
3511.281	69.62
3514.155	74.62
3517.027	75.62
3519.897	61.62
3522.764	72.62
3525.629	43.62
3528.492	62.62
3531.352	64.62
3534.211	58.62
3537.067	47.62
3539.921	49.62
3542.773	50.62
3545.622	36.62
3548.469	34.62
3551.315	30.62
3554.157	37.62
3556.998	25.62
3559.837	32.62
3562.673	34.62
3565.507	23.62
3568.339	15.62
3571.169	27.62
3573.996	25.62
3576.822	5.62
3579.645	12.62
3582.466	9.62
3585.285	24.62
3588.101	12.62
3590.916	4.62
3593.728	15.62
3596.538	6.62
3599.346	9.62
3602.152	-0.38
3604.956	7.62
3607.757	8.62
3610.556	-7.38
3613.354	7.62
3616.149	6.62
3618.942	5.62
3621.732	8.62
3624.521	-5.38
3627.307	-14.38
3630.092	-16.38
3632.874	4.62
3635.654	-9.38
3638.432	-10.38
3641.208	-10.38
3643.982	-15.38
3646.753	-1.38
3649.523	-34.38
3652.29	-13.38
3655.055	-12.38
3657.818	-10.38
3660.579	-17.38
3663.338	-20.38
3666.095	-19.38
3668.849	-39.38
3671.602	-13.38
3674.352	-28.38
3677.101	-12.38
3679.847	-12.38
3682.591	-26.38
3685.333	-33.38
3688.073	-20.38
3690.811	-28.38
3693.547	-33.38
3696.281	-35.38
3699.013	-18.38
3701.742	-26.38
3704.47	-37.38
3707.195	-21.38
3709.919	-25.38
3712.64	-24.38
3715.359	-36.38
3718.076	-17.38
3720.792	-27.38
3723.505	-24.38
3726.216	-18.38
3728.925	-27.38
3731.632	-32.38
3734.336	-29.38
3737.039	-25.38
3739.74	-27.38
3742.439	-52.38
3745.136	-24.38
3747.83	-24.38
3750.523	-19.38
3753.213	-90.38
3755.902	-31.38
3758.589	-43.38
3761.273	-28.38
3763.956	-19.38
3766.636	-40.38
3769.315	-20.38
3771.991	-32.38
3774.665	-34.38
3777.338	-29.38
3780.008	-40.38
3782.677	-30.38
3785.343	-44.38
3788.007	-48.38
3790.67	-25.38
3793.33	-41.38
3795.989	-33.38
3798.645	-27.38
3801.299	-44.38
3803.952	-42.38
3806.602	-35.38
3809.251	-24.38
3811.897	-36.38
3814.542	-36.38
3817.184	-36.38
3819.825	-30.38
3822.463	-42.38
3825.1	-39.38
3827.735	-34.38
3830.367	-41.38
3832.998	-19.38
3835.627	-34.38
3838.253	-23.38
3840.878	-32.38
3843.501	-17.38
3846.122	-27.38
3848.741	-31.38
3851.358	-24.38
3853.973	-40.38
3856.586	-22.38
3859.197	-42.38
3861.806	-32.38
3864.414	-44.38
3867.019	-34.38
3869.622	-22.38
3872.224	-20.38
3874.823	-15.38
3877.421	7.62
3880.016	14.62
3882.61	49.62
3885.202	57.62
3887.792	38.62
3890.38	20.62
3892.966	-11.38
3895.55	-35.38
3898.132	-21.38
3900.713	-19.38
3903.291	-25.38
3905.868	-38.38
3908.442	-27.38
3911.015	-29.38
3913.586	-39.38
3916.155	-38.38
3918.722	-40.38
3921.287	-43.38
3923.85	-42.38
3926.411	-36.38
3928.971	-34.38
3931.528	-28.38
3934.084	-38.38
3936.638	-43.38
3939.19	-28.38
3941.74	-28.38
3944.288	-36.38
3946.834	-32.38
3949.378	-24.38
3951.921	-40.38
3954.462	-31.38
3957	-31.38
3959.537	-23.38
3962.072	-34.38
3964.606	-44.38
3967.137	-35.38
3969.667	-37.38
3972.194	-28.38
3974.72	-36.38
3977.244	-54.38
3979.766	-39.38
3982.286	-38.38
3984.805	-30.38
3987.321	-23.38
3989.836	-25.38
3992.349	-39.38
3994.86	-31.38
3997.369	-35.38
3999.877	-36.38
4002.382	-36.38
4004.886	-23.38
4007.388	-31.38
4009.888	-20.38
4012.386	-27.38
4014.883	-30.38
4017.377	-25.38
4019.87	-31.38
4022.361	-41.38
4024.85	-30.38
4027.338	-30.38
4029.823	-37.38
4032.307	-32.38
4034.789	-31.38
4037.269	-29.38
4039.747	-44.38
4042.224	-19.38
4044.699	-40.38
4047.172	-34.38
4049.643	-22.38
4052.112	-54.38
4054.58	-28.38
4057.046	-42.38
4059.51	-35.38
4061.972	-32.38
4064.432	-42.38
4066.891	-17.38
4069.348	-31.38
4071.803	-23.38
4074.256	-35.38
4076.708	-28.38
4079.158	-29.38
4081.606	-23.38
4084.052	-34.38
4086.497	-26.38
4088.939	-28.38
4091.38	-32.38
4093.819	-25.38
4096.257	-2.38
4098.693	-5.38
4101.127	-3.38
4103.559	0.62
4105.989	76.62
4108.418	80.62
4110.845	76.62
4113.27	79.62
4115.694	83.62
4118.115	71.62
4120.535	-27.38
4122.954	-23.38
4125.37	-19.38
4127.785	-28.38
4130.198	-23.38
4132.609	-25.38
4135.019	6.62
4137.427	0.62
4139.833	5.62
4142.237	-2.38
