Data from 2018-3-6_conc=0_n=7_RamanShift_05.txt Node
Date: Tue Mar 06 12:29:19 GMT+02:00 2018
User: LAB3
Spectrometer: QEPB0276
Trigger mode: 0
Integration Time (sec): 3.000000E1
Scans to average: 1
Electric dark correction enabled: true
Nonlinearity correction enabled: false
Boxcar width: 0
XAxis mode: Raman Shifts
Number of Pixels in Spectrum: 1044
>>>>>Begin Spectral Data<<<<<
160.701	163.12
166.742	206.12
172.777	326.12
178.805	667.12
184.826	1553.12
190.841	3124.12
196.849	4971.12
202.85	6384.12
208.845	6923.12
214.833	6976.12
220.815	6913.12
226.789	6903.12
232.758	6987.12
238.719	7061.12
244.674	7021.12
250.623	7014.12
256.565	6930.12
262.5	6847.12
268.429	6842.12
274.351	6842.12
280.267	6885.12
286.176	6865.12
292.079	6917.12
297.975	6916.12
303.865	6958.12
309.748	6950.12
315.625	7016.12
321.495	7025.12
327.359	7012.12
333.217	7049.12
339.068	7110.12
344.912	7105.12
350.751	7130.12
356.583	7143.12
362.408	7194.12
368.227	7230.12
374.04	7269.12
379.847	7296.12
385.647	7342.12
391.44	7348.12
397.228	7382.12
403.009	7442.12
408.784	7464.12
414.553	7506.12
420.315	7535.12
426.071	7575.12
431.821	7528.12
437.565	7569.12
443.302	7525.12
449.033	7491.12
454.758	7443.12
460.477	7378.12
466.189	7316.12
471.896	7267.12
477.596	7196.12
483.29	7182.12
488.978	7158.12
494.66	7121.12
500.335	6940.12
506.005	6632.12
511.668	6318.12
517.325	6012.12
522.977	5750.12
528.622	5587.12
534.261	5461.12
539.894	5345.12
545.521	5303.12
551.141	5186.12
556.756	5171.12
562.365	5103.12
567.968	5086.12
573.565	5010.12
579.155	5022.12
584.74	4942.12
590.319	4954.12
595.892	4956.12
601.459	4959.12
607.02	4940.12
612.575	4896.12
618.124	4843.12
623.667	4765.12
629.204	4691.12
634.735	4657.12
640.261	4590.12
645.781	4535.12
651.294	4555.12
656.802	4528.12
662.304	4513.12
667.8	4518.12
673.29	4461.12
678.775	4481.12
684.254	4457.12
689.726	4425.12
695.193	4422.12
700.655	4404.12
706.11	4363.12
711.56	4334.12
717.004	4316.12
722.442	4290.12
727.874	4277.12
733.301	4272.12
738.722	4259.12
744.137	4235.12
749.547	4231.12
754.951	4254.12
760.349	4245.12
765.741	4289.12
771.128	4275.12
776.509	4364.12
781.885	4414.12
787.254	4470.12
792.618	4454.12
797.977	4462.12
803.33	4419.12
808.677	4414.12
814.019	4372.12
819.355	4316.12
824.686	4273.12
830.011	4262.12
835.33	4243.12
840.644	4254.12
845.952	4174.12
851.255	4157.12
856.552	4139.12
861.844	4093.12
867.13	4071.12
872.41	4060.12
877.686	4118.12
882.955	4115.12
888.219	4069.12
893.478	3980.12
898.731	3845.12
903.979	3796.12
909.221	3737.12
914.458	3719.12
919.69	3723.12
924.916	3708.12
930.136	3715.12
935.351	3686.12
940.561	3699.12
945.766	3670.12
950.965	3688.12
956.158	3650.12
961.347	3605.12
966.529	3560.12
971.707	3540.12
976.879	3503.12
982.046	3475.12
987.208	3441.12
992.364	3446.12
997.515	3464.12
1002.66	3450.12
1007.801	3515.12
1012.936	3538.12
1018.066	3545.12
1023.19	3559.12
1028.309	3596.12
1033.423	3601.12
1038.532	3618.12
1043.636	3591.12
1048.734	3563.12
1053.827	3548.12
1058.915	3491.12
1063.998	3487.12
1069.075	3475.12
1074.147	3479.12
1079.214	3465.12
1084.276	3498.12
1089.333	3520.12
1094.385	3503.12
1099.431	3478.12
1104.472	3450.12
1109.509	3425.12
1114.54	3355.12
1119.565	3304.12
1124.586	3261.12
1129.602	3222.12
1134.613	3184.12
1139.618	3191.12
1144.619	3172.12
1149.614	3198.12
1154.604	3188.12
1159.589	3198.12
1164.57	3204.12
1169.545	3247.12
1174.515	3215.12
1179.48	3192.12
1184.44	3162.12
1189.395	3149.12
1194.345	3097.12
1199.29	3106.12
1204.23	3107.12
1209.165	3112.12
1214.095	3136.12
1219.021	3103.12
1223.941	3140.12
1228.856	3163.12
1233.766	3165.12
1238.672	3185.12
1243.572	3147.12
1248.467	3134.12
1253.358	3098.12
1258.244	3022.12
1263.124	2990.12
1268	2970.12
1272.871	2895.12
1277.737	2911.12
1282.599	2890.12
1287.455	2891.12
1292.306	2852.12
1297.153	2876.12
1301.995	2925.12
1306.832	2922.12
1311.664	2918.12
1316.491	2913.12
1321.314	2909.12
1326.132	2869.12
1330.945	2847.12
1335.753	2785.12
1340.556	2719.12
1345.354	2706.12
1350.148	2688.12
1354.937	2646.12
1359.722	2625.12
1364.501	2608.12
1369.276	2617.12
1374.046	2596.12
1378.811	2572.12
1383.572	2595.12
1388.327	2583.12
1393.079	2550.12
1397.825	2532.12
1402.567	2533.12
1407.304	2508.12
1412.036	2501.12
1416.764	2506.12
1421.487	2469.12
1426.205	2474.12
1430.919	2500.12
1435.628	2509.12
1440.333	2550.12
1445.032	2558.12
1449.727	2602.12
1454.418	2633.12
1459.104	2652.12
1463.785	2597.12
1468.462	2546.12
1473.134	2500.12
1477.802	2437.12
1482.465	2369.12
1487.123	2388.12
1491.777	2368.12
1496.426	2358.12
1501.071	2377.12
1505.711	2369.12
1510.347	2399.12
1514.978	2421.12
1519.604	2409.12
1524.226	2394.12
1528.844	2382.12
1533.457	2344.12
1538.065	2327.12
1542.669	2312.12
1547.269	2285.12
1551.864	2282.12
1556.454	2263.12
1561.041	2250.12
1565.622	2256.12
1570.199	2268.12
1574.772	2277.12
1579.34	2303.12
1583.904	2327.12
1588.464	2325.12
1593.019	2344.12
1597.569	2312.12
1602.115	2321.12
1606.657	2299.12
1611.195	2317.12
1615.728	2310.12
1620.256	2278.12
1624.78	2244.12
1629.3	2274.12
1633.816	2265.12
1638.327	2315.12
1642.834	2327.12
1647.336	2331.12
1651.834	2358.12
1656.328	2350.12
1660.817	2325.12
1665.302	2305.12
1669.783	2287.12
1674.259	2286.12
1678.732	2231.12
1683.199	2179.12
1687.663	2133.12
1692.122	2084.12
1696.577	2060.12
1701.028	2026.12
1705.474	1992.12
1709.917	1945.12
1714.355	1936.12
1718.788	1896.12
1723.218	1882.12
1727.643	1859.12
1732.064	1836.12
1736.481	1796.12
1740.893	1783.12
1745.301	1732.12
1749.705	1697.12
1754.105	1678.12
1758.501	1629.12
1762.893	1607.12
1767.28	1584.12
1771.663	1579.12
1776.042	1543.12
1780.417	1565.12
1784.787	1561.12
1789.154	1582.12
1793.516	1580.12
1797.874	1572.12
1802.228	1567.12
1806.578	1562.12
1810.924	1550.12
1815.266	1444.12
1819.603	1507.12
1823.937	1471.12
1828.266	1468.12
1832.591	1456.12
1836.913	1439.12
1841.23	1421.12
1845.543	1410.12
1849.852	1424.12
1854.156	1428.12
1858.457	1428.12
1862.754	1431.12
1867.047	1433.12
1871.335	1454.12
1875.62	1444.12
1879.9	1457.12
1884.177	1428.12
1888.449	1422.12
1892.718	1411.12
1896.982	1441.12
1901.243	1407.12
1905.499	1408.12
1909.752	1391.12
1914	1366.12
1918.245	1404.12
1922.485	1419.12
1926.722	1410.12
1930.954	1413.12
1935.183	1400.12
1939.408	1434.12
1943.628	1409.12
1947.845	1410.12
1952.058	1390.12
1956.267	1369.12
1960.472	1357.12
1964.673	1334.12
1968.87	1314.12
1973.063	1270.12
1977.252	1271.12
1981.438	1230.12
1985.619	1222.12
1989.797	1199.12
1993.971	1201.12
1998.14	1203.12
2002.306	1203.12
2006.469	1199.12
2010.627	1182.12
2014.781	1175.12
2018.932	1181.12
2023.078	1191.12
2027.221	1162.12
2031.36	1158.12
2035.495	1142.12
2039.627	1111.12
2043.754	1126.12
2047.878	1112.12
2051.998	1090.12
2056.114	1101.12
2060.226	1115.12
2064.334	1104.12
2068.439	1128.12
2072.54	1130.12
2076.637	1116.12
2080.73	1127.12
2084.82	1118.12
2088.906	1133.12
2092.988	1128.12
2097.066	1125.12
2101.14	1117.12
2105.211	1089.12
2109.278	1091.12
2113.342	1057.12
2117.401	1042.12
2121.457	1032.12
2125.509	1037.12
2129.558	1027.12
2133.602	1017.12
2137.643	1014.12
2141.681	1003.12
2145.714	997.12
2149.744	1003.12
2153.77	975.12
2157.793	949.12
2161.812	923.12
2165.827	913.12
2169.838	938.12
2173.846	903.12
2177.851	895.12
2181.851	891.12
2185.848	870.12
2189.841	858.12
2193.831	858.12
2197.817	859.12
2201.799	854.12
2205.778	838.12
2209.753	826.12
2213.725	818.12
2217.693	824.12
2221.657	824.12
2225.618	832.12
2229.575	823.12
2233.529	809.12
2237.479	805.12
2241.425	780.12
2245.368	766.12
2249.307	774.12
2253.243	759.12
2257.175	753.12
2261.104	734.12
2265.029	738.12
2268.95	720.12
2272.868	707.12
2276.783	694.12
2280.694	684.12
2284.601	688.12
2288.505	678.12
2292.405	674.12
2296.302	635.12
2300.195	642.12
2304.085	620.12
2307.971	636.12
2311.854	600.12
2315.734	608.12
2319.609	608.12
2323.482	585.12
2327.351	586.12
2331.216	574.12
2335.078	594.12
2338.937	579.12
2342.792	564.12
2346.643	562.12
2350.492	569.12
2354.336	569.12
2358.178	564.12
2362.015	569.12
2365.85	574.12
2369.681	567.12
2373.508	570.12
2377.333	580.12
2381.153	564.12
2384.971	564.12
2388.785	573.12
2392.595	544.12
2396.402	552.12
2400.206	525.12
2404.007	534.12
2407.804	543.12
2411.597	547.12
2415.388	540.12
2419.174	528.12
2422.958	533.12
2426.738	525.12
2430.515	533.12
2434.289	517.12
2438.059	514.12
2441.825	517.12
2445.589	525.12
2449.349	489.12
2453.106	502.12
2456.859	489.12
2460.61	497.12
2464.356	486.12
2468.1	467.12
2471.84	465.12
2475.577	474.12
2479.311	469.12
2483.041	475.12
2486.768	475.12
2490.492	476.12
2494.213	475.12
2497.93	469.12
2501.644	450.12
2505.355	465.12
2509.062	460.12
2512.766	456.12
2516.467	457.12
2520.165	449.12
2523.859	445.12
2527.551	479.12
2531.239	444.12
2534.923	454.12
2538.605	434.12
2542.283	442.12
2545.958	442.12
2549.63	447.12
2553.299	439.12
2556.964	427.12
2560.626	437.12
2564.285	428.12
2567.941	414.12
2571.594	411.12
2575.243	419.12
2578.89	410.12
2582.533	424.12
2586.173	408.12
2589.809	412.12
2593.443	379.12
2597.073	400.12
2600.701	410.12
2604.325	388.12
2607.946	375.12
2611.564	388.12
2615.178	387.12
2618.79	386.12
2622.398	377.12
2626.004	375.12
2629.606	375.12
2633.205	366.12
2636.801	357.12
2640.394	366.12
2643.983	354.12
2647.57	347.12
2651.153	345.12
2654.734	354.12
2658.311	322.12
2661.885	325.12
2665.456	337.12
2669.025	332.12
2672.589	323.12
2676.151	339.12
2679.71	335.12
2683.266	320.12
2686.819	304.12
2690.368	324.12
2693.915	322.12
2697.458	305.12
2700.999	314.12
2704.536	310.12
2708.071	297.12
2711.602	302.12
2715.13	300.12
2718.656	277.12
2722.178	294.12
2725.697	279.12
2729.214	291.12
2732.727	288.12
2736.237	279.12
2739.744	284.12
2743.249	294.12
2746.75	287.12
2750.248	284.12
2753.743	294.12
2757.236	291.12
2760.725	295.12
2764.211	255.12
2767.695	285.12
2771.175	274.12
2774.652	277.12
2778.127	281.12
2781.598	280.12
2785.067	283.12
2788.532	266.12
2791.995	277.12
2795.455	265.12
2798.911	283.12
2802.365	282.12
2805.816	285.12
2809.264	279.12
2812.709	270.12
2816.151	277.12
2819.59	275.12
2823.026	275.12
2826.46	279.12
2829.89	285.12
2833.318	260.12
2836.742	291.12
2840.164	292.12
2843.583	285.12
2846.999	294.12
2850.412	300.12
2853.822	294.12
2857.229	313.12
2860.634	316.12
2864.035	299.12
2867.434	316.12
2870.83	325.12
2874.223	320.12
2877.613	332.12
2881	337.12
2884.385	337.12
2887.766	344.12
2891.145	357.12
2894.521	343.12
2897.894	325.12
2901.264	354.12
2904.631	350.12
2907.996	351.12
2911.358	354.12
2914.717	357.12
2918.073	343.12
2921.426	342.12
2924.777	349.12
2928.124	378.12
2931.469	396.12
2934.811	386.12
2938.15	421.12
2941.487	414.12
2944.821	420.12
2948.152	402.12
2951.48	401.12
2954.805	372.12
2958.128	401.12
2961.447	375.12
2964.765	388.12
2968.079	377.12
2971.39	375.12
2974.699	377.12
2978.005	386.12
2981.308	378.12
2984.609	386.12
2987.907	397.12
2991.202	399.12
2994.494	381.12
2997.784	386.12
3001.07	398.12
3004.355	386.12
3007.636	383.12
3010.915	389.12
3014.191	386.12
3017.464	386.12
3020.734	389.12
3024.002	391.12
3027.267	387.12
3030.53	391.12
3033.789	394.12
3037.046	394.12
3040.301	398.12
3043.552	407.12
3046.801	414.12
3050.048	436.12
3053.291	448.12
3056.532	439.12
3059.771	436.12
3063.006	462.12
3066.239	471.12
3069.469	492.12
3072.697	489.12
3075.922	501.12
3079.144	508.12
3082.364	539.12
3085.581	531.12
3088.795	561.12
3092.007	549.12
3095.216	563.12
3098.423	582.12
3101.627	562.12
3104.828	595.12
3108.026	591.12
3111.222	626.12
3114.416	640.12
3117.607	643.12
3120.795	645.12
3123.98	674.12
3127.163	665.12
3130.344	696.12
3133.521	700.12
3136.696	730.12
3139.869	733.12
3143.039	735.12
3146.206	764.12
3149.371	763.12
3152.533	760.12
3155.693	752.12
3158.85	781.12
3162.005	772.12
3165.157	781.12
3168.306	779.12
3171.453	793.12
3174.597	772.12
3177.739	770.12
3180.878	798.12
3184.014	799.12
3187.149	795.12
3190.28	780.12
3193.409	814.12
3196.536	804.12
3199.659	807.12
3202.781	807.12
3205.9	791.12
3209.016	800.12
3212.13	810.12
3215.241	803.12
3218.35	796.12
3221.456	780.12
3224.56	769.12
3227.661	784.12
3230.76	764.12
3233.856	764.12
3236.95	762.12
3240.041	753.12
3243.13	765.12
3246.216	751.12
3249.3	755.12
3252.382	744.12
3255.46	734.12
3258.537	683.12
3261.611	719.12
3264.682	733.12
3267.751	731.12
3270.818	725.12
3273.882	723.12
3276.943	725.12
3280.002	723.12
3283.059	704.12
3286.113	698.12
3289.165	676.12
3292.214	680.12
3295.261	679.12
3298.306	658.12
3301.348	647.12
3304.387	644.12
3307.425	637.12
3310.459	630.12
3313.492	639.12
3316.521	601.12
3319.549	616.12
3322.574	606.12
3325.597	604.12
3328.617	587.12
3331.635	582.12
3334.65	582.12
3337.663	579.12
3340.674	588.12
3343.682	592.12
3346.688	585.12
3349.691	580.12
3352.692	577.12
3355.691	589.12
3358.687	578.12
3361.681	575.12
3364.673	567.12
3367.662	562.12
3370.649	562.12
3373.633	540.12
3376.615	544.12
3379.595	521.12
3382.572	531.12
3385.547	517.12
3388.52	521.12
3391.49	509.12
3394.458	505.12
3397.424	507.12
3400.387	477.12
3403.348	487.12
3406.307	491.12
3409.263	481.12
3412.217	479.12
3415.168	472.12
3418.118	469.12
3421.065	463.12
3424.009	478.12
3426.951	457.12
3429.891	445.12
3432.829	446.12
3435.764	443.12
3438.697	426.12
3441.628	420.12
3444.557	398.12
3447.483	382.12
3450.407	394.12
3453.328	375.12
3456.247	365.12
3459.164	361.12
3462.079	359.12
3464.991	341.12
3467.902	330.12
3470.809	327.12
3473.715	325.12
3476.618	306.12
3479.519	298.12
3482.418	279.12
3485.315	279.12
3488.209	273.12
3491.101	270.12
3493.99	252.12
3496.878	259.12
3499.763	255.12
3502.646	247.12
3505.527	234.12
3508.405	230.12
3511.281	206.12
3514.155	224.12
3517.027	211.12
3519.897	190.12
3522.764	192.12
3525.629	175.12
3528.492	176.12
3531.352	180.12
3534.211	165.12
3537.067	154.12
3539.921	149.12
3542.773	151.12
3545.622	133.12
3548.469	120.12
3551.315	116.12
3554.157	119.12
3556.998	111.12
3559.837	107.12
3562.673	108.12
3565.507	99.12
3568.339	97.12
3571.169	91.12
3573.996	91.12
3576.822	71.12
3579.645	71.12
3582.466	72.12
3585.285	79.12
3588.101	68.12
3590.916	64.12
3593.728	69.12
3596.538	66.12
3599.346	64.12
3602.152	50.12
3604.956	48.12
3607.757	50.12
3610.556	33.12
3613.354	54.12
3616.149	42.12
3618.942	45.12
3621.732	44.12
3624.521	32.12
3627.307	26.12
3630.092	22.12
3632.874	39.12
3635.654	24.12
3638.432	19.12
3641.208	20.12
3643.982	20.12
3646.753	29.12
3649.523	-1.88
3652.29	14.12
3655.055	14.12
3657.818	13.12
3660.579	9.12
3663.338	3.12
3666.095	0.12
3668.849	-18.88
3671.602	6.12
3674.352	-13.88
3677.101	8.12
3679.847	2.12
3682.591	-7.88
3685.333	-14.88
3688.073	-1.88
3690.811	-16.88
3693.547	-19.88
3696.281	-17.88
3699.013	-7.88
3701.742	-11.88
3704.47	-20.88
3707.195	-10.88
3709.919	-8.88
3712.64	-15.88
3715.359	-28.88
3718.076	1.12
3720.792	-17.88
3723.505	-11.88
3726.216	0.12
3728.925	-17.88
3731.632	-23.88
3734.336	-20.88
3737.039	-16.88
3739.74	-13.88
3742.439	-39.88
3745.136	-8.88
3747.83	-17.88
3750.523	-14.88
3753.213	-80.88
3755.902	-24.88
3758.589	-33.88
3761.273	-25.88
3763.956	-16.88
3766.636	-32.88
3769.315	-11.88
3771.991	-19.88
3774.665	-27.88
3777.338	-21.88
3780.008	-27.88
3782.677	-25.88
3785.343	-32.88
3788.007	-42.88
3790.67	-16.88
3793.33	-34.88
3795.989	-24.88
3798.645	-21.88
3801.299	-33.88
3803.952	-33.88
3806.602	-26.88
3809.251	-22.88
3811.897	-21.88
3814.542	-27.88
3817.184	-33.88
3819.825	-24.88
3822.463	-41.88
3825.1	-30.88
3827.735	-24.88
3830.367	-33.88
3832.998	-14.88
3835.627	-23.88
3838.253	-19.88
3840.878	-28.88
3843.501	-13.88
3846.122	-19.88
3848.741	-17.88
3851.358	-22.88
3853.973	-34.88
3856.586	-15.88
3859.197	-33.88
3861.806	-26.88
3864.414	-37.88
3867.019	-26.88
3869.622	-16.88
3872.224	-12.88
3874.823	3.12
3877.421	30.12
3880.016	53.12
3882.61	104.12
3885.202	124.12
3887.792	90.12
3890.38	48.12
3892.966	0.12
3895.55	-18.88
3898.132	-15.88
3900.713	-21.88
3903.291	-24.88
3905.868	-36.88
3908.442	-25.88
3911.015	-28.88
3913.586	-27.88
3916.155	-29.88
3918.722	-32.88
3921.287	-36.88
3923.85	-43.88
3926.411	-36.88
3928.971	-32.88
3931.528	-30.88
3934.084	-33.88
3936.638	-44.88
3939.19	-29.88
3941.74	-28.88
3944.288	-35.88
3946.834	-33.88
3949.378	-23.88
3951.921	-38.88
3954.462	-34.88
3957	-29.88
3959.537	-22.88
3962.072	-35.88
3964.606	-40.88
3967.137	-32.88
3969.667	-37.88
3972.194	-29.88
3974.72	-27.88
3977.244	-53.88
3979.766	-34.88
3982.286	-33.88
3984.805	-27.88
3987.321	-22.88
3989.836	-21.88
3992.349	-34.88
3994.86	-32.88
3997.369	-36.88
3999.877	-28.88
4002.382	-28.88
4004.886	-26.88
4007.388	-30.88
4009.888	-20.88
4012.386	-24.88
4014.883	-25.88
4017.377	-28.88
4019.87	-27.88
4022.361	-35.88
4024.85	-30.88
4027.338	-26.88
4029.823	-32.88
4032.307	-30.88
4034.789	-25.88
4037.269	-26.88
4039.747	-40.88
4042.224	-17.88
4044.699	-35.88
4047.172	-29.88
4049.643	-20.88
4052.112	-52.88
4054.58	-22.88
4057.046	-41.88
4059.51	-30.88
4061.972	-30.88
4064.432	-45.88
4066.891	-19.88
4069.348	-29.88
4071.803	-24.88
4074.256	-27.88
4076.708	-21.88
4079.158	-26.88
4081.606	-15.88
4084.052	-29.88
4086.497	-19.88
4088.939	-28.88
4091.38	-26.88
4093.819	-18.88
4096.257	2.12
4098.693	-5.88
4101.127	-6.88
4103.559	3.12
4105.989	135.12
4108.418	136.12
4110.845	123.12
4113.27	130.12
4115.694	148.12
4118.115	137.12
4120.535	-21.88
4122.954	-16.88
4125.37	-14.88
4127.785	-20.88
4130.198	-19.88
4132.609	-24.88
4135.019	10.12
4137.427	-0.88
4139.833	3.12
4142.237	-4.88
