Data from 2018-3-6_conc=6_n=9_RamanShift_03.txt Node
Date: Tue Mar 06 15:19:48 GMT+02:00 2018
User: LAB3
Spectrometer: QEPB0276
Trigger mode: 0
Integration Time (sec): 3.000000E1
Scans to average: 1
Electric dark correction enabled: true
Nonlinearity correction enabled: false
Boxcar width: 0
XAxis mode: Raman Shifts
Number of Pixels in Spectrum: 1044
>>>>>Begin Spectral Data<<<<<
160.701	34.75
166.742	45.75
172.777	79.75
178.805	142.75
184.826	360.75
190.841	736.75
196.849	1104.75
202.85	1407.75
208.845	1502.75
214.833	1466.75
220.815	1443.75
226.789	1407.75
232.758	1448.75
238.719	1410.75
244.674	1391.75
250.623	1371.75
256.565	1355.75
262.5	1333.75
268.429	1311.75
274.351	1300.75
280.267	1291.75
286.176	1287.75
292.079	1294.75
297.975	1282.75
303.865	1273.75
309.748	1277.75
315.625	1259.75
321.495	1268.75
327.359	1273.75
333.217	1273.75
339.068	1251.75
344.912	1262.75
350.751	1269.75
356.583	1278.75
362.408	1276.75
368.227	1271.75
374.04	1278.75
379.847	1303.75
385.647	1298.75
391.44	1294.75
397.228	1305.75
403.009	1318.75
408.784	1316.75
414.553	1315.75
420.315	1331.75
426.071	1302.75
431.821	1334.75
437.565	1331.75
443.302	1293.75
449.033	1287.75
454.758	1314.75
460.477	1281.75
466.189	1272.75
471.896	1257.75
477.596	1255.75
483.29	1229.75
488.978	1236.75
494.66	1221.75
500.335	1189.75
506.005	1126.75
511.668	1070.75
517.325	1010.75
522.977	980.75
528.622	936.75
534.261	909.75
539.894	888.75
545.521	898.75
551.141	863.75
556.756	840.75
562.365	840.75
567.968	832.75
573.565	828.75
579.155	842.75
584.74	826.75
590.319	832.75
595.892	834.75
601.459	839.75
607.02	830.75
612.575	811.75
618.124	818.75
623.667	781.75
629.204	784.75
634.735	776.75
640.261	756.75
645.781	720.75
651.294	730.75
656.802	733.75
662.304	742.75
667.8	748.75
673.29	729.75
678.775	741.75
684.254	725.75
689.726	711.75
695.193	723.75
700.655	726.75
706.11	706.75
711.56	701.75
717.004	707.75
722.442	687.75
727.874	697.75
733.301	703.75
738.722	684.75
744.137	682.75
749.547	686.75
754.951	685.75
760.349	688.75
765.741	702.75
771.128	711.75
776.509	709.75
781.885	717.75
787.254	737.75
792.618	718.75
797.977	732.75
803.33	728.75
808.677	716.75
814.019	704.75
819.355	715.75
824.686	694.75
830.011	692.75
835.33	700.75
840.644	705.75
845.952	674.75
851.255	702.75
856.552	667.75
861.844	680.75
867.13	656.75
872.41	646.75
877.686	646.75
882.955	638.75
888.219	632.75
893.478	622.75
898.731	627.75
903.979	619.75
909.221	603.75
914.458	599.75
919.69	588.75
924.916	596.75
930.136	597.75
935.351	588.75
940.561	610.75
945.766	595.75
950.965	603.75
956.158	578.75
961.347	583.75
966.529	568.75
971.707	584.75
976.879	569.75
982.046	555.75
987.208	547.75
992.364	556.75
997.515	551.75
1002.66	556.75
1007.801	549.75
1012.936	555.75
1018.066	545.75
1023.19	567.75
1028.309	576.75
1033.423	573.75
1038.532	581.75
1043.636	560.75
1048.734	573.75
1053.827	556.75
1058.915	541.75
1063.998	555.75
1069.075	543.75
1074.147	562.75
1079.214	530.75
1084.276	558.75
1089.333	544.75
1094.385	560.75
1099.431	541.75
1104.472	537.75
1109.509	528.75
1114.54	529.75
1119.565	525.75
1124.586	522.75
1129.602	508.75
1134.613	480.75
1139.618	488.75
1144.619	496.75
1149.614	496.75
1154.604	501.75
1159.589	493.75
1164.57	517.75
1169.545	522.75
1174.515	516.75
1179.48	503.75
1184.44	507.75
1189.395	507.75
1194.345	497.75
1199.29	504.75
1204.23	480.75
1209.165	475.75
1214.095	494.75
1219.021	490.75
1223.941	488.75
1228.856	492.75
1233.766	496.75
1238.672	509.75
1243.572	493.75
1248.467	501.75
1253.358	489.75
1258.244	475.75
1263.124	483.75
1268	478.75
1272.871	449.75
1277.737	453.75
1282.599	451.75
1287.455	445.75
1292.306	457.75
1297.153	442.75
1301.995	455.75
1306.832	448.75
1311.664	454.75
1316.491	448.75
1321.314	457.75
1326.132	447.75
1330.945	451.75
1335.753	434.75
1340.556	425.75
1345.354	422.75
1350.148	426.75
1354.937	420.75
1359.722	397.75
1364.501	403.75
1369.276	405.75
1374.046	407.75
1378.811	389.75
1383.572	407.75
1388.327	405.75
1393.079	386.75
1397.825	387.75
1402.567	389.75
1407.304	382.75
1412.036	379.75
1416.764	377.75
1421.487	363.75
1426.205	371.75
1430.919	377.75
1435.628	373.75
1440.333	365.75
1445.032	380.75
1449.727	389.75
1454.418	389.75
1459.104	396.75
1463.785	373.75
1468.462	384.75
1473.134	373.75
1477.802	373.75
1482.465	347.75
1487.123	361.75
1491.777	340.75
1496.426	328.75
1501.071	365.75
1505.711	354.75
1510.347	371.75
1514.978	368.75
1519.604	351.75
1524.226	375.75
1528.844	342.75
1533.457	361.75
1538.065	346.75
1542.669	348.75
1547.269	359.75
1551.864	360.75
1556.454	341.75
1561.041	347.75
1565.622	336.75
1570.199	355.75
1574.772	344.75
1579.34	356.75
1583.904	360.75
1588.464	364.75
1593.019	363.75
1597.569	349.75
1602.115	354.75
1606.657	347.75
1611.195	363.75
1615.728	360.75
1620.256	341.75
1624.78	323.75
1629.3	341.75
1633.816	351.75
1638.327	347.75
1642.834	351.75
1647.336	345.75
1651.834	361.75
1656.328	358.75
1660.817	347.75
1665.302	343.75
1669.783	342.75
1674.259	342.75
1678.732	327.75
1683.199	322.75
1687.663	310.75
1692.122	311.75
1696.577	307.75
1701.028	314.75
1705.474	292.75
1709.917	283.75
1714.355	278.75
1718.788	278.75
1723.218	265.75
1727.643	263.75
1732.064	274.75
1736.481	251.75
1740.893	270.75
1745.301	253.75
1749.705	229.75
1754.105	246.75
1758.501	230.75
1762.893	242.75
1767.28	212.75
1771.663	214.75
1776.042	215.75
1780.417	215.75
1784.787	227.75
1789.154	224.75
1793.516	224.75
1797.874	221.75
1802.228	209.75
1806.578	196.75
1810.924	224.75
1815.266	88.75
1819.603	214.75
1823.937	198.75
1828.266	204.75
1832.591	208.75
1836.913	205.75
1841.23	190.75
1845.543	193.75
1849.852	203.75
1854.156	198.75
1858.457	195.75
1862.754	192.75
1867.047	193.75
1871.335	210.75
1875.62	205.75
1879.9	202.75
1884.177	194.75
1888.449	197.75
1892.718	193.75
1896.982	197.75
1901.243	185.75
1905.499	191.75
1909.752	190.75
1914	168.75
1918.245	202.75
1922.485	196.75
1926.722	194.75
1930.954	178.75
1935.183	197.75
1939.408	195.75
1943.628	190.75
1947.845	184.75
1952.058	182.75
1956.267	179.75
1960.472	182.75
1964.673	177.75
1968.87	176.75
1973.063	170.75
1977.252	175.75
1981.438	169.75
1985.619	166.75
1989.797	158.75
1993.971	162.75
1998.14	172.75
2002.306	169.75
2006.469	178.75
2010.627	160.75
2014.781	160.75
2018.932	160.75
2023.078	170.75
2027.221	167.75
2031.36	151.75
2035.495	153.75
2039.627	159.75
2043.754	164.75
2047.878	151.75
2051.998	156.75
2056.114	153.75
2060.226	150.75
2064.334	152.75
2068.439	156.75
2072.54	162.75
2076.637	145.75
2080.73	150.75
2084.82	149.75
2088.906	144.75
2092.988	144.75
2097.066	148.75
2101.14	158.75
2105.211	149.75
2109.278	130.75
2113.342	145.75
2117.401	128.75
2121.457	128.75
2125.509	125.75
2129.558	143.75
2133.602	135.75
2137.643	136.75
2141.681	133.75
2145.714	130.75
2149.744	125.75
2153.77	130.75
2157.793	116.75
2161.812	107.75
2165.827	107.75
2169.838	136.75
2173.846	122.75
2177.851	122.75
2181.851	127.75
2185.848	115.75
2189.841	123.75
2193.831	110.75
2197.817	108.75
2201.799	108.75
2205.778	105.75
2209.753	101.75
2213.725	100.75
2217.693	110.75
2221.657	98.75
2225.618	109.75
2229.575	108.75
2233.529	111.75
2237.479	112.75
2241.425	97.75
2245.368	90.75
2249.307	97.75
2253.243	97.75
2257.175	104.75
2261.104	81.75
2265.029	97.75
2268.95	93.75
2272.868	87.75
2276.783	83.75
2280.694	91.75
2284.601	89.75
2288.505	81.75
2292.405	93.75
2296.302	72.75
2300.195	86.75
2304.085	55.75
2307.971	82.75
2311.854	68.75
2315.734	76.75
2319.609	85.75
2323.482	61.75
2327.351	73.75
2331.216	71.75
2335.078	75.75
2338.937	72.75
2342.792	56.75
2346.643	68.75
2350.492	73.75
2354.336	66.75
2358.178	76.75
2362.015	66.75
2365.85	64.75
2369.681	69.75
2373.508	67.75
2377.333	77.75
2381.153	72.75
2384.971	61.75
2388.785	69.75
2392.595	55.75
2396.402	55.75
2400.206	38.75
2404.007	57.75
2407.804	59.75
2411.597	62.75
2415.388	51.75
2419.174	62.75
2422.958	55.75
2426.738	52.75
2430.515	62.75
2434.289	44.75
2438.059	47.75
2441.825	53.75
2445.589	64.75
2449.349	40.75
2453.106	56.75
2456.859	51.75
2460.61	60.75
2464.356	44.75
2468.1	38.75
2471.84	44.75
2475.577	43.75
2479.311	41.75
2483.041	42.75
2486.768	59.75
2490.492	61.75
2494.213	51.75
2497.93	31.75
2501.644	34.75
2505.355	43.75
2509.062	43.75
2512.766	46.75
2516.467	34.75
2520.165	41.75
2523.859	29.75
2527.551	62.75
2531.239	34.75
2534.923	40.75
2538.605	40.75
2542.283	41.75
2545.958	41.75
2549.63	50.75
2553.299	48.75
2556.964	35.75
2560.626	33.75
2564.285	35.75
2567.941	23.75
2571.594	30.75
2575.243	38.75
2578.89	29.75
2582.533	31.75
2586.173	31.75
2589.809	34.75
2593.443	16.75
2597.073	32.75
2600.701	32.75
2604.325	29.75
2607.946	21.75
2611.564	39.75
2615.178	29.75
2618.79	35.75
2622.398	29.75
2626.004	32.75
2629.606	32.75
2633.205	19.75
2636.801	33.75
2640.394	30.75
2643.983	22.75
2647.57	26.75
2651.153	20.75
2654.734	30.75
2658.311	8.75
2661.885	18.75
2665.456	19.75
2669.025	21.75
2672.589	21.75
2676.151	34.75
2679.71	32.75
2683.266	24.75
2686.819	17.75
2690.368	22.75
2693.915	28.75
2697.458	25.75
2700.999	31.75
2704.536	28.75
2708.071	25.75
2711.602	22.75
2715.13	19.75
2718.656	7.75
2722.178	20.75
2725.697	11.75
2729.214	10.75
2732.727	21.75
2736.237	6.75
2739.744	9.75
2743.249	8.75
2746.75	11.75
2750.248	6.75
2753.743	13.75
2757.236	17.75
2760.725	18.75
2764.211	-12.25
2767.695	19.75
2771.175	11.75
2774.652	17.75
2778.127	9.75
2781.598	8.75
2785.067	11.75
2788.532	8.75
2791.995	16.75
2795.455	6.75
2798.911	17.75
2802.365	7.75
2805.816	11.75
2809.264	24.75
2812.709	9.75
2816.151	16.75
2819.59	2.75
2823.026	8.75
2826.46	3.75
2829.89	24.75
2833.318	-9.25
2836.742	12.75
2840.164	10.75
2843.583	9.75
2846.999	15.75
2850.412	12.75
2853.822	14.75
2857.229	22.75
2860.634	13.75
2864.035	-0.25
2867.434	14.75
2870.83	14.75
2874.223	4.75
2877.613	10.75
2881	0.75
2884.385	9.75
2887.766	9.75
2891.145	7.75
2894.521	11.75
2897.894	-0.25
2901.264	15.75
2904.631	10.75
2907.996	18.75
2911.358	24.75
2914.717	12.75
2918.073	5.75
2921.426	11.75
2924.777	-3.25
2928.124	8.75
2931.469	25.75
2934.811	4.75
2938.15	21.75
2941.487	19.75
2944.821	38.75
2948.152	21.75
2951.48	29.75
2954.805	11.75
2958.128	34.75
2961.447	19.75
2964.765	38.75
2968.079	23.75
2971.39	25.75
2974.699	24.75
2978.005	27.75
2981.308	25.75
2984.609	16.75
2987.907	33.75
2991.202	35.75
2994.494	21.75
2997.784	32.75
3001.07	28.75
3004.355	23.75
3007.636	27.75
3010.915	28.75
3014.191	23.75
3017.464	32.75
3020.734	31.75
3024.002	28.75
3027.267	27.75
3030.53	36.75
3033.789	28.75
3037.046	31.75
3040.301	24.75
3043.552	30.75
3046.801	41.75
3050.048	44.75
3053.291	55.75
3056.532	40.75
3059.771	23.75
3063.006	50.75
3066.239	37.75
3069.469	44.75
3072.697	37.75
3075.922	38.75
3079.144	43.75
3082.364	65.75
3085.581	43.75
3088.795	63.75
3092.007	60.75
3095.216	77.75
3098.423	56.75
3101.627	31.75
3104.828	61.75
3108.026	60.75
3111.222	78.75
3114.416	81.75
3117.607	75.75
3120.795	80.75
3123.98	77.75
3127.163	69.75
3130.344	71.75
3133.521	76.75
3136.696	94.75
3139.869	86.75
3143.039	69.75
3146.206	106.75
3149.371	98.75
3152.533	95.75
3155.693	83.75
3158.85	99.75
3162.005	100.75
3165.157	97.75
3168.306	91.75
3171.453	102.75
3174.597	85.75
3177.739	85.75
3180.878	95.75
3184.014	103.75
3187.149	94.75
3190.28	94.75
3193.409	104.75
3196.536	105.75
3199.659	101.75
3202.781	98.75
3205.9	94.75
3209.016	101.75
3212.13	96.75
3215.241	95.75
3218.35	94.75
3221.456	87.75
3224.56	79.75
3227.661	90.75
3230.76	95.75
3233.856	87.75
3236.95	93.75
3240.041	82.75
3243.13	98.75
3246.216	90.75
3249.3	93.75
3252.382	90.75
3255.46	81.75
3258.537	37.75
3261.611	83.75
3264.682	87.75
3267.751	87.75
3270.818	72.75
3273.882	85.75
3276.943	82.75
3280.002	92.75
3283.059	77.75
3286.113	74.75
3289.165	73.75
3292.214	69.75
3295.261	87.75
3298.306	65.75
3301.348	76.75
3304.387	66.75
3307.425	81.75
3310.459	67.75
3313.492	78.75
3316.521	68.75
3319.549	77.75
3322.574	72.75
3325.597	71.75
3328.617	57.75
3331.635	65.75
3334.65	48.75
3337.663	60.75
3340.674	62.75
3343.682	73.75
3346.688	63.75
3349.691	63.75
3352.692	60.75
3355.691	76.75
3358.687	59.75
3361.681	62.75
3364.673	61.75
3367.662	65.75
3370.649	69.75
3373.633	52.75
3376.615	62.75
3379.595	45.75
3382.572	52.75
3385.547	53.75
3388.52	44.75
3391.49	52.75
3394.458	52.75
3397.424	49.75
3400.387	40.75
3403.348	54.75
3406.307	48.75
3409.263	47.75
3412.217	56.75
3415.168	45.75
3418.118	58.75
3421.065	45.75
3424.009	57.75
3426.951	39.75
3429.891	36.75
3432.829	43.75
3435.764	45.75
3438.697	30.75
3441.628	45.75
3444.557	22.75
3447.483	27.75
3450.407	35.75
3453.328	32.75
3456.247	28.75
3459.164	24.75
3462.079	38.75
3464.991	28.75
3467.902	26.75
3470.809	23.75
3473.715	27.75
3476.618	21.75
3479.519	24.75
3482.418	1.75
3485.315	10.75
3488.209	13.75
3491.101	10.75
3493.99	-1.25
3496.878	2.75
3499.763	10.75
3502.646	10.75
3505.527	0.75
3508.405	2.75
3511.281	-14.25
3514.155	1.75
3517.027	-0.25
3519.897	-11.25
3522.764	0.75
3525.629	-19.25
3528.492	-6.25
3531.352	-4.25
3534.211	-4.25
3537.067	-11.25
3539.921	-12.25
3542.773	-6.25
3545.622	-14.25
3548.469	-16.25
3551.315	-17.25
3554.157	-11.25
3556.998	-22.25
3559.837	-17.25
3562.673	-15.25
3565.507	-20.25
3568.339	-24.25
3571.169	-22.25
3573.996	-18.25
3576.822	-33.25
3579.645	-28.25
3582.466	-18.25
3585.285	-15.25
3588.101	-21.25
3590.916	-19.25
3593.728	-14.25
3596.538	-21.25
3599.346	-16.25
3602.152	-27.25
3604.956	-22.25
3607.757	-17.25
3610.556	-35.25
3613.354	-19.25
3616.149	-21.25
3618.942	-17.25
3621.732	-19.25
3624.521	-29.25
3627.307	-36.25
3630.092	-28.25
3632.874	-17.25
3635.654	-25.25
3638.432	-31.25
3641.208	-35.25
3643.982	-32.25
3646.753	-16.25
3649.523	-55.25
3652.29	-34.25
3655.055	-23.25
3657.818	-22.25
3660.579	-32.25
3663.338	-32.25
3666.095	-32.25
3668.849	-54.25
3671.602	-22.25
3674.352	-40.25
3677.101	-24.25
3679.847	-23.25
3682.591	-35.25
3685.333	-38.25
3688.073	-29.25
3690.811	-38.25
3693.547	-43.25
3696.281	-40.25
3699.013	-25.25
3701.742	-34.25
3704.47	-37.25
3707.195	-27.25
3709.919	-33.25
3712.64	-27.25
3715.359	-41.25
3718.076	-22.25
3720.792	-25.25
3723.505	-24.25
3726.216	-24.25
3728.925	-35.25
3731.632	-35.25
3734.336	-33.25
3737.039	-32.25
3739.74	-30.25
3742.439	-55.25
3745.136	-29.25
3747.83	-28.25
3750.523	-32.25
3753.213	-105.25
3755.902	-36.25
3758.589	-52.25
3761.273	-38.25
3763.956	-27.25
3766.636	-46.25
3769.315	-28.25
3771.991	-33.25
3774.665	-39.25
3777.338	-32.25
3780.008	-42.25
3782.677	-33.25
3785.343	-41.25
3788.007	-55.25
3790.67	-26.25
3793.33	-44.25
3795.989	-38.25
3798.645	-30.25
3801.299	-45.25
3803.952	-41.25
3806.602	-34.25
3809.251	-29.25
3811.897	-35.25
3814.542	-33.25
3817.184	-32.25
3819.825	-31.25
3822.463	-45.25
3825.1	-36.25
3827.735	-30.25
3830.367	-40.25
3832.998	-20.25
3835.627	-34.25
3838.253	-23.25
3840.878	-32.25
3843.501	-19.25
3846.122	-33.25
3848.741	-29.25
3851.358	-26.25
3853.973	-44.25
3856.586	-23.25
3859.197	-39.25
3861.806	-30.25
3864.414	-44.25
3867.019	-38.25
3869.622	-26.25
3872.224	-28.25
3874.823	-17.25
3877.421	-4.25
3880.016	7.75
3882.61	40.75
3885.202	50.75
3887.792	24.75
3890.38	4.75
3892.966	-24.25
3895.55	-42.25
3898.132	-29.25
3900.713	-24.25
3903.291	-34.25
3905.868	-41.25
3908.442	-32.25
3911.015	-37.25
3913.586	-39.25
3916.155	-37.25
3918.722	-39.25
3921.287	-39.25
3923.85	-44.25
3926.411	-39.25
3928.971	-39.25
3931.528	-27.25
3934.084	-38.25
3936.638	-44.25
3939.19	-31.25
3941.74	-28.25
3944.288	-33.25
3946.834	-31.25
3949.378	-25.25
3951.921	-37.25
3954.462	-33.25
3957	-35.25
3959.537	-16.25
3962.072	-36.25
3964.606	-47.25
3967.137	-36.25
3969.667	-38.25
3972.194	-35.25
3974.72	-38.25
3977.244	-57.25
3979.766	-43.25
3982.286	-44.25
3984.805	-30.25
3987.321	-28.25
3989.836	-32.25
3992.349	-43.25
3994.86	-37.25
3997.369	-45.25
3999.877	-38.25
4002.382	-40.25
4004.886	-29.25
4007.388	-30.25
4009.888	-26.25
4012.386	-28.25
4014.883	-28.25
4017.377	-28.25
4019.87	-28.25
4022.361	-45.25
4024.85	-36.25
4027.338	-26.25
4029.823	-41.25
4032.307	-37.25
4034.789	-33.25
4037.269	-32.25
4039.747	-40.25
4042.224	-30.25
4044.699	-35.25
4047.172	-35.25
4049.643	-24.25
4052.112	-59.25
4054.58	-32.25
4057.046	-42.25
4059.51	-32.25
4061.972	-31.25
4064.432	-51.25
4066.891	-20.25
4069.348	-31.25
4071.803	-32.25
4074.256	-38.25
4076.708	-31.25
4079.158	-34.25
4081.606	-21.25
4084.052	-32.25
4086.497	-29.25
4088.939	-35.25
4091.38	-39.25
4093.819	-29.25
4096.257	4.75
4098.693	-6.25
4101.127	-7.25
4103.559	0.75
4105.989	48.75
4108.418	40.75
4110.845	27.75
4113.27	32.75
4115.694	42.75
4118.115	27.75
4120.535	-30.25
4122.954	-28.25
4125.37	-23.25
4127.785	-31.25
4130.198	-27.25
4132.609	-33.25
4135.019	8.75
4137.427	-1.25
4139.833	3.75
4142.237	-3.25
