Data from 2018-3-6_conc=5_n=9_RamanShift_01.txt Node
Date: Tue Mar 06 14:47:18 GMT+02:00 2018
User: LAB3
Spectrometer: QEPB0276
Trigger mode: 0
Integration Time (sec): 3.000000E1
Scans to average: 1
Electric dark correction enabled: true
Nonlinearity correction enabled: false
Boxcar width: 0
XAxis mode: Raman Shifts
Number of Pixels in Spectrum: 1044
>>>>>Begin Spectral Data<<<<<
160.701	53.88
166.742	73.88
172.777	95.88
178.805	185.88
184.826	443.88
190.841	895.88
196.849	1392.88
202.85	1788.88
208.845	1886.88
214.833	1891.88
220.815	1826.88
226.789	1818.88
232.758	1816.88
238.719	1761.88
244.674	1734.88
250.623	1711.88
256.565	1697.88
262.5	1661.88
268.429	1635.88
274.351	1623.88
280.267	1613.88
286.176	1593.88
292.079	1610.88
297.975	1573.88
303.865	1596.88
309.748	1584.88
315.625	1579.88
321.495	1587.88
327.359	1569.88
333.217	1564.88
339.068	1570.88
344.912	1581.88
350.751	1563.88
356.583	1569.88
362.408	1597.88
368.227	1592.88
374.04	1577.88
379.847	1607.88
385.647	1623.88
391.44	1595.88
397.228	1613.88
403.009	1621.88
408.784	1628.88
414.553	1630.88
420.315	1638.88
426.071	1623.88
431.821	1627.88
437.565	1624.88
443.302	1612.88
449.033	1605.88
454.758	1603.88
460.477	1588.88
466.189	1571.88
471.896	1561.88
477.596	1559.88
483.29	1521.88
488.978	1527.88
494.66	1513.88
500.335	1479.88
506.005	1411.88
511.668	1334.88
517.325	1274.88
522.977	1201.88
528.622	1185.88
534.261	1158.88
539.894	1130.88
545.521	1106.88
551.141	1088.88
556.756	1068.88
562.365	1061.88
567.968	1049.88
573.565	1043.88
579.155	1062.88
584.74	1048.88
590.319	1037.88
595.892	1035.88
601.459	1049.88
607.02	1027.88
612.575	1049.88
618.124	1023.88
623.667	991.88
629.204	976.88
634.735	968.88
640.261	958.88
645.781	922.88
651.294	935.88
656.802	937.88
662.304	934.88
667.8	945.88
673.29	938.88
678.775	935.88
684.254	917.88
689.726	913.88
695.193	917.88
700.655	913.88
706.11	894.88
711.56	895.88
717.004	906.88
722.442	877.88
727.874	898.88
733.301	900.88
738.722	880.88
744.137	873.88
749.547	862.88
754.951	881.88
760.349	874.88
765.741	894.88
771.128	892.88
776.509	890.88
781.885	923.88
787.254	928.88
792.618	927.88
797.977	942.88
803.33	922.88
808.677	906.88
814.019	900.88
819.355	885.88
824.686	895.88
830.011	884.88
835.33	891.88
840.644	888.88
845.952	851.88
851.255	870.88
856.552	855.88
861.844	839.88
867.13	832.88
872.41	824.88
877.686	826.88
882.955	812.88
888.219	805.88
893.478	776.88
898.731	797.88
903.979	773.88
909.221	757.88
914.458	746.88
919.69	760.88
924.916	759.88
930.136	762.88
935.351	747.88
940.561	753.88
945.766	763.88
950.965	764.88
956.158	748.88
961.347	730.88
966.529	727.88
971.707	742.88
976.879	712.88
982.046	708.88
987.208	684.88
992.364	703.88
997.515	702.88
1002.66	708.88
1007.801	698.88
1012.936	717.88
1018.066	704.88
1023.19	724.88
1028.309	722.88
1033.423	726.88
1038.532	740.88
1043.636	714.88
1048.734	716.88
1053.827	696.88
1058.915	696.88
1063.998	693.88
1069.075	694.88
1074.147	691.88
1079.214	678.88
1084.276	693.88
1089.333	693.88
1094.385	698.88
1099.431	695.88
1104.472	697.88
1109.509	678.88
1114.54	669.88
1119.565	657.88
1124.586	664.88
1129.602	660.88
1134.613	628.88
1139.618	631.88
1144.619	627.88
1149.614	637.88
1154.604	622.88
1159.589	627.88
1164.57	646.88
1169.545	648.88
1174.515	653.88
1179.48	639.88
1184.44	642.88
1189.395	637.88
1194.345	624.88
1199.29	635.88
1204.23	610.88
1209.165	602.88
1214.095	633.88
1219.021	619.88
1223.941	613.88
1228.856	626.88
1233.766	632.88
1238.672	636.88
1243.572	642.88
1248.467	628.88
1253.358	619.88
1258.244	600.88
1263.124	604.88
1268	599.88
1272.871	575.88
1277.737	583.88
1282.599	565.88
1287.455	558.88
1292.306	583.88
1297.153	567.88
1301.995	572.88
1306.832	577.88
1311.664	574.88
1316.491	583.88
1321.314	577.88
1326.132	565.88
1330.945	570.88
1335.753	547.88
1340.556	547.88
1345.354	533.88
1350.148	537.88
1354.937	527.88
1359.722	506.88
1364.501	515.88
1369.276	524.88
1374.046	527.88
1378.811	497.88
1383.572	515.88
1388.327	514.88
1393.079	495.88
1397.825	493.88
1402.567	494.88
1407.304	498.88
1412.036	493.88
1416.764	491.88
1421.487	476.88
1426.205	472.88
1430.919	487.88
1435.628	495.88
1440.333	474.88
1445.032	480.88
1449.727	498.88
1454.418	511.88
1459.104	501.88
1463.785	486.88
1468.462	492.88
1473.134	482.88
1477.802	474.88
1482.465	448.88
1487.123	470.88
1491.777	430.88
1496.426	441.88
1501.071	469.88
1505.711	447.88
1510.347	461.88
1514.978	462.88
1519.604	453.88
1524.226	470.88
1528.844	446.88
1533.457	462.88
1538.065	449.88
1542.669	453.88
1547.269	451.88
1551.864	455.88
1556.454	432.88
1561.041	436.88
1565.622	434.88
1570.199	442.88
1574.772	449.88
1579.34	457.88
1583.904	457.88
1588.464	476.88
1593.019	464.88
1597.569	462.88
1602.115	447.88
1606.657	458.88
1611.195	463.88
1615.728	463.88
1620.256	446.88
1624.78	437.88
1629.3	443.88
1633.816	451.88
1638.327	447.88
1642.834	457.88
1647.336	456.88
1651.834	466.88
1656.328	467.88
1660.817	451.88
1665.302	436.88
1669.783	435.88
1674.259	441.88
1678.732	432.88
1683.199	416.88
1687.663	403.88
1692.122	400.88
1696.577	389.88
1701.028	396.88
1705.474	371.88
1709.917	361.88
1714.355	361.88
1718.788	366.88
1723.218	337.88
1727.643	341.88
1732.064	344.88
1736.481	330.88
1740.893	333.88
1745.301	329.88
1749.705	296.88
1754.105	309.88
1758.501	302.88
1762.893	304.88
1767.28	276.88
1771.663	286.88
1776.042	283.88
1780.417	284.88
1784.787	280.88
1789.154	296.88
1793.516	285.88
1797.874	287.88
1802.228	281.88
1806.578	263.88
1810.924	282.88
1815.266	169.88
1819.603	275.88
1823.937	271.88
1828.266	266.88
1832.591	266.88
1836.913	266.88
1841.23	262.88
1845.543	253.88
1849.852	268.88
1854.156	266.88
1858.457	261.88
1862.754	250.88
1867.047	254.88
1871.335	271.88
1875.62	265.88
1879.9	260.88
1884.177	255.88
1888.449	254.88
1892.718	257.88
1896.982	268.88
1901.243	242.88
1905.499	247.88
1909.752	246.88
1914	227.88
1918.245	254.88
1922.485	258.88
1926.722	241.88
1930.954	237.88
1935.183	253.88
1939.408	257.88
1943.628	237.88
1947.845	245.88
1952.058	241.88
1956.267	228.88
1960.472	246.88
1964.673	235.88
1968.87	233.88
1973.063	228.88
1977.252	224.88
1981.438	219.88
1985.619	216.88
1989.797	201.88
1993.971	213.88
1998.14	228.88
2002.306	216.88
2006.469	221.88
2010.627	205.88
2014.781	200.88
2018.932	200.88
2023.078	220.88
2027.221	219.88
2031.36	202.88
2035.495	205.88
2039.627	198.88
2043.754	209.88
2047.878	196.88
2051.998	188.88
2056.114	194.88
2060.226	197.88
2064.334	205.88
2068.439	203.88
2072.54	205.88
2076.637	195.88
2080.73	193.88
2084.82	186.88
2088.906	191.88
2092.988	187.88
2097.066	196.88
2101.14	207.88
2105.211	200.88
2109.278	187.88
2113.342	183.88
2117.401	179.88
2121.457	164.88
2125.509	164.88
2129.558	184.88
2133.602	173.88
2137.643	177.88
2141.681	172.88
2145.714	172.88
2149.744	179.88
2153.77	171.88
2157.793	169.88
2161.812	128.88
2165.827	152.88
2169.838	169.88
2173.846	146.88
2177.851	152.88
2181.851	162.88
2185.848	155.88
2189.841	153.88
2193.831	143.88
2197.817	152.88
2201.799	148.88
2205.778	136.88
2209.753	137.88
2213.725	129.88
2217.693	140.88
2221.657	138.88
2225.618	147.88
2229.575	141.88
2233.529	147.88
2237.479	138.88
2241.425	138.88
2245.368	122.88
2249.307	138.88
2253.243	125.88
2257.175	137.88
2261.104	121.88
2265.029	133.88
2268.95	130.88
2272.868	123.88
2276.783	109.88
2280.694	121.88
2284.601	124.88
2288.505	121.88
2292.405	126.88
2296.302	98.88
2300.195	108.88
2304.085	86.88
2307.971	114.88
2311.854	89.88
2315.734	95.88
2319.609	103.88
2323.482	87.88
2327.351	91.88
2331.216	92.88
2335.078	98.88
2338.937	97.88
2342.792	89.88
2346.643	88.88
2350.492	103.88
2354.336	85.88
2358.178	93.88
2362.015	90.88
2365.85	85.88
2369.681	87.88
2373.508	96.88
2377.333	99.88
2381.153	93.88
2384.971	86.88
2388.785	92.88
2392.595	79.88
2396.402	82.88
2400.206	58.88
2404.007	78.88
2407.804	80.88
2411.597	84.88
2415.388	77.88
2419.174	77.88
2422.958	77.88
2426.738	78.88
2430.515	83.88
2434.289	73.88
2438.059	74.88
2441.825	77.88
2445.589	85.88
2449.349	57.88
2453.106	79.88
2456.859	71.88
2460.61	83.88
2464.356	66.88
2468.1	65.88
2471.84	67.88
2475.577	66.88
2479.311	63.88
2483.041	71.88
2486.768	76.88
2490.492	77.88
2494.213	70.88
2497.93	55.88
2501.644	56.88
2505.355	64.88
2509.062	66.88
2512.766	61.88
2516.467	55.88
2520.165	58.88
2523.859	52.88
2527.551	79.88
2531.239	54.88
2534.923	60.88
2538.605	57.88
2542.283	63.88
2545.958	57.88
2549.63	63.88
2553.299	65.88
2556.964	47.88
2560.626	53.88
2564.285	58.88
2567.941	44.88
2571.594	46.88
2575.243	61.88
2578.89	50.88
2582.533	52.88
2586.173	49.88
2589.809	54.88
2593.443	29.88
2597.073	45.88
2600.701	54.88
2604.325	51.88
2607.946	43.88
2611.564	56.88
2615.178	48.88
2618.79	52.88
2622.398	41.88
2626.004	45.88
2629.606	46.88
2633.205	34.88
2636.801	52.88
2640.394	50.88
2643.983	37.88
2647.57	39.88
2651.153	39.88
2654.734	47.88
2658.311	23.88
2661.885	30.88
2665.456	35.88
2669.025	31.88
2672.589	27.88
2676.151	43.88
2679.71	47.88
2683.266	41.88
2686.819	29.88
2690.368	39.88
2693.915	43.88
2697.458	35.88
2700.999	39.88
2704.536	32.88
2708.071	32.88
2711.602	30.88
2715.13	27.88
2718.656	14.88
2722.178	24.88
2725.697	17.88
2729.214	29.88
2732.727	28.88
2736.237	13.88
2739.744	24.88
2743.249	15.88
2746.75	26.88
2750.248	21.88
2753.743	26.88
2757.236	27.88
2760.725	33.88
2764.211	0.88
2767.695	31.88
2771.175	24.88
2774.652	26.88
2778.127	23.88
2781.598	20.88
2785.067	28.88
2788.532	13.88
2791.995	28.88
2795.455	21.88
2798.911	32.88
2802.365	18.88
2805.816	26.88
2809.264	37.88
2812.709	24.88
2816.151	31.88
2819.59	15.88
2823.026	19.88
2826.46	23.88
2829.89	34.88
2833.318	5.88
2836.742	20.88
2840.164	22.88
2843.583	22.88
2846.999	16.88
2850.412	25.88
2853.822	14.88
2857.229	34.88
2860.634	27.88
2864.035	12.88
2867.434	27.88
2870.83	36.88
2874.223	24.88
2877.613	19.88
2881	14.88
2884.385	18.88
2887.766	18.88
2891.145	25.88
2894.521	18.88
2897.894	14.88
2901.264	33.88
2904.631	28.88
2907.996	33.88
2911.358	35.88
2914.717	32.88
2918.073	27.88
2921.426	23.88
2924.777	13.88
2928.124	25.88
2931.469	40.88
2934.811	18.88
2938.15	46.88
2941.487	32.88
2944.821	45.88
2948.152	37.88
2951.48	48.88
2954.805	27.88
2958.128	50.88
2961.447	32.88
2964.765	51.88
2968.079	41.88
2971.39	42.88
2974.699	37.88
2978.005	41.88
2981.308	44.88
2984.609	32.88
2987.907	42.88
2991.202	44.88
2994.494	34.88
2997.784	43.88
3001.07	36.88
3004.355	42.88
3007.636	49.88
3010.915	43.88
3014.191	43.88
3017.464	42.88
3020.734	46.88
3024.002	50.88
3027.267	46.88
3030.53	50.88
3033.789	50.88
3037.046	47.88
3040.301	46.88
3043.552	53.88
3046.801	55.88
3050.048	62.88
3053.291	79.88
3056.532	60.88
3059.771	52.88
3063.006	71.88
3066.239	63.88
3069.469	70.88
3072.697	61.88
3075.922	63.88
3079.144	69.88
3082.364	90.88
3085.581	73.88
3088.795	93.88
3092.007	86.88
3095.216	93.88
3098.423	83.88
3101.627	72.88
3104.828	98.88
3108.026	78.88
3111.222	107.88
3114.416	106.88
3117.607	98.88
3120.795	102.88
3123.98	109.88
3127.163	95.88
3130.344	110.88
3133.521	101.88
3136.696	119.88
3139.869	116.88
3143.039	103.88
3146.206	131.88
3149.371	132.88
3152.533	119.88
3155.693	112.88
3158.85	129.88
3162.005	134.88
3165.157	131.88
3168.306	131.88
3171.453	138.88
3174.597	121.88
3177.739	124.88
3180.878	133.88
3184.014	143.88
3187.149	135.88
3190.28	136.88
3193.409	146.88
3196.536	139.88
3199.659	148.88
3202.781	145.88
3205.9	128.88
3209.016	138.88
3212.13	138.88
3215.241	136.88
3218.35	131.88
3221.456	125.88
3224.56	118.88
3227.661	127.88
3230.76	126.88
3233.856	118.88
3236.95	134.88
3240.041	117.88
3243.13	131.88
3246.216	115.88
3249.3	131.88
3252.382	122.88
3255.46	115.88
3258.537	65.88
3261.611	107.88
3264.682	114.88
3267.751	117.88
3270.818	103.88
3273.882	117.88
3276.943	114.88
3280.002	125.88
3283.059	108.88
3286.113	115.88
3289.165	101.88
3292.214	96.88
3295.261	119.88
3298.306	91.88
3301.348	105.88
3304.387	94.88
3307.425	103.88
3310.459	99.88
3313.492	108.88
3316.521	103.88
3319.549	107.88
3322.574	98.88
3325.597	104.88
3328.617	91.88
3331.635	98.88
3334.65	77.88
3337.663	100.88
3340.674	89.88
3343.682	97.88
3346.688	100.88
3349.691	91.88
3352.692	93.88
3355.691	93.88
3358.687	93.88
3361.681	98.88
3364.673	87.88
3367.662	95.88
3370.649	96.88
3373.633	77.88
3376.615	87.88
3379.595	68.88
3382.572	78.88
3385.547	61.88
3388.52	68.88
3391.49	75.88
3394.458	73.88
3397.424	76.88
3400.387	67.88
3403.348	75.88
3406.307	73.88
3409.263	71.88
3412.217	78.88
3415.168	71.88
3418.118	77.88
3421.065	64.88
3424.009	75.88
3426.951	59.88
3429.891	59.88
3432.829	58.88
3435.764	61.88
3438.697	59.88
3441.628	65.88
3444.557	48.88
3447.483	45.88
3450.407	55.88
3453.328	46.88
3456.247	44.88
3459.164	42.88
3462.079	50.88
3464.991	44.88
3467.902	44.88
3470.809	38.88
3473.715	43.88
3476.618	34.88
3479.519	40.88
3482.418	12.88
3485.315	29.88
3488.209	26.88
3491.101	29.88
3493.99	17.88
3496.878	16.88
3499.763	26.88
3502.646	18.88
3505.527	9.88
3508.405	7.88
3511.281	3.88
3514.155	12.88
3517.027	9.88
3519.897	2.88
3522.764	13.88
3525.629	-9.12
3528.492	5.88
3531.352	6.88
3534.211	1.88
3537.067	-3.12
3539.921	1.88
3542.773	10.88
3545.622	-4.12
3548.469	-10.12
3551.315	-13.12
3554.157	-3.12
3556.998	-13.12
3559.837	-10.12
3562.673	-0.12
3565.507	-14.12
3568.339	-19.12
3571.169	-18.12
3573.996	-17.12
3576.822	-33.12
3579.645	-24.12
3582.466	-20.12
3585.285	-16.12
3588.101	-19.12
3590.916	-22.12
3593.728	-12.12
3596.538	-17.12
3599.346	-17.12
3602.152	-26.12
3604.956	-19.12
3607.757	-16.12
3610.556	-30.12
3613.354	-15.12
3616.149	-20.12
3618.942	-14.12
3621.732	-19.12
3624.521	-19.12
3627.307	-28.12
3630.092	-26.12
3632.874	-9.12
3635.654	-19.12
3638.432	-28.12
3641.208	-29.12
3643.982	-27.12
3646.753	-18.12
3649.523	-47.12
3652.29	-29.12
3655.055	-19.12
3657.818	-20.12
3660.579	-29.12
3663.338	-37.12
3666.095	-31.12
3668.849	-53.12
3671.602	-21.12
3674.352	-32.12
3677.101	-23.12
3679.847	-18.12
3682.591	-35.12
3685.333	-40.12
3688.073	-26.12
3690.811	-37.12
3693.547	-43.12
3696.281	-44.12
3699.013	-25.12
3701.742	-34.12
3704.47	-39.12
3707.195	-35.12
3709.919	-30.12
3712.64	-32.12
3715.359	-43.12
3718.076	-23.12
3720.792	-36.12
3723.505	-30.12
3726.216	-25.12
3728.925	-31.12
3731.632	-34.12
3734.336	-31.12
3737.039	-33.12
3739.74	-33.12
3742.439	-55.12
3745.136	-23.12
3747.83	-30.12
3750.523	-29.12
3753.213	-92.12
3755.902	-38.12
3758.589	-46.12
3761.273	-39.12
3763.956	-23.12
3766.636	-44.12
3769.315	-20.12
3771.991	-32.12
3774.665	-35.12
3777.338	-33.12
3780.008	-44.12
3782.677	-31.12
3785.343	-50.12
3788.007	-47.12
3790.67	-20.12
3793.33	-44.12
3795.989	-34.12
3798.645	-32.12
3801.299	-46.12
3803.952	-42.12
3806.602	-39.12
3809.251	-28.12
3811.897	-34.12
3814.542	-35.12
3817.184	-42.12
3819.825	-37.12
3822.463	-47.12
3825.1	-38.12
3827.735	-40.12
3830.367	-45.12
3832.998	-22.12
3835.627	-36.12
3838.253	-27.12
3840.878	-35.12
3843.501	-22.12
3846.122	-28.12
3848.741	-29.12
3851.358	-27.12
3853.973	-47.12
3856.586	-28.12
3859.197	-39.12
3861.806	-37.12
3864.414	-39.12
3867.019	-36.12
3869.622	-24.12
3872.224	-22.12
3874.823	-9.12
3877.421	11.88
3880.016	29.88
3882.61	69.88
3885.202	78.88
3887.792	50.88
3890.38	21.88
3892.966	-10.12
3895.55	-31.12
3898.132	-26.12
3900.713	-22.12
3903.291	-27.12
3905.868	-40.12
3908.442	-27.12
3911.015	-34.12
3913.586	-37.12
3916.155	-33.12
3918.722	-41.12
3921.287	-39.12
3923.85	-43.12
3926.411	-41.12
3928.971	-39.12
3931.528	-29.12
3934.084	-40.12
3936.638	-49.12
3939.19	-34.12
3941.74	-38.12
3944.288	-39.12
3946.834	-37.12
3949.378	-32.12
3951.921	-37.12
3954.462	-40.12
3957	-31.12
3959.537	-23.12
3962.072	-38.12
3964.606	-52.12
3967.137	-38.12
3969.667	-38.12
3972.194	-33.12
3974.72	-32.12
3977.244	-60.12
3979.766	-43.12
3982.286	-39.12
3984.805	-30.12
3987.321	-21.12
3989.836	-27.12
3992.349	-36.12
3994.86	-30.12
3997.369	-44.12
3999.877	-42.12
4002.382	-36.12
4004.886	-28.12
4007.388	-31.12
4009.888	-20.12
4012.386	-29.12
4014.883	-33.12
4017.377	-34.12
4019.87	-32.12
4022.361	-42.12
4024.85	-32.12
4027.338	-33.12
4029.823	-38.12
4032.307	-35.12
4034.789	-34.12
4037.269	-35.12
4039.747	-45.12
4042.224	-31.12
4044.699	-41.12
4047.172	-39.12
4049.643	-27.12
4052.112	-61.12
4054.58	-29.12
4057.046	-45.12
4059.51	-33.12
4061.972	-36.12
4064.432	-51.12
4066.891	-23.12
4069.348	-32.12
4071.803	-32.12
4074.256	-36.12
4076.708	-26.12
4079.158	-27.12
4081.606	-24.12
4084.052	-31.12
4086.497	-29.12
4088.939	-34.12
4091.38	-35.12
4093.819	-28.12
4096.257	1.88
4098.693	-8.12
4101.127	-5.12
4103.559	2.88
4105.989	63.88
4108.418	64.88
4110.845	49.88
4113.27	50.88
4115.694	54.88
4118.115	47.88
4120.535	-31.12
4122.954	-28.12
4125.37	-24.12
4127.785	-31.12
4130.198	-23.12
4132.609	-28.12
4135.019	6.88
4137.427	1.88
4139.833	5.88
4142.237	-6.12
