Data from 2018-3-6_conc=0_n=5_RamanShift_05.txt Node
Date: Tue Mar 06 12:22:49 GMT+02:00 2018
User: LAB3
Spectrometer: QEPB0276
Trigger mode: 0
Integration Time (sec): 3.000000E1
Scans to average: 1
Electric dark correction enabled: true
Nonlinearity correction enabled: false
Boxcar width: 0
XAxis mode: Raman Shifts
Number of Pixels in Spectrum: 1044
>>>>>Begin Spectral Data<<<<<
160.701	97.25
166.742	132.25
172.777	228.25
178.805	496.25
184.826	1174.25
190.841	2392.25
196.849	3857.25
202.85	5016.25
208.845	5439.25
214.833	5546.25
220.815	5515.25
226.789	5597.25
232.758	5684.25
238.719	5731.25
244.674	5745.25
250.623	5744.25
256.565	5764.25
262.5	5736.25
268.429	5757.25
274.351	5732.25
280.267	5768.25
286.176	5803.25
292.079	5861.25
297.975	5890.25
303.865	5900.25
309.748	5936.25
315.625	5933.25
321.495	5941.25
327.359	5970.25
333.217	6026.25
339.068	6044.25
344.912	6070.25
350.751	6066.25
356.583	6065.25
362.408	6109.25
368.227	6130.25
374.04	6139.25
379.847	6153.25
385.647	6211.25
391.44	6195.25
397.228	6264.25
403.009	6270.25
408.784	6280.25
414.553	6309.25
420.315	6354.25
426.071	6338.25
431.821	6390.25
437.565	6373.25
443.302	6340.25
449.033	6334.25
454.758	6331.25
460.477	6255.25
466.189	6215.25
471.896	6168.25
477.596	6135.25
483.29	6102.25
488.978	6100.25
494.66	6043.25
500.335	5953.25
506.005	5770.25
511.668	5579.25
517.325	5370.25
522.977	5218.25
528.622	5091.25
534.261	5102.25
539.894	4995.25
545.521	4905.25
551.141	4827.25
556.756	4840.25
562.365	4789.25
567.968	4786.25
573.565	4752.25
579.155	4744.25
584.74	4699.25
590.319	4697.25
595.892	4732.25
601.459	4715.25
607.02	4687.25
612.575	4648.25
618.124	4624.25
623.667	4538.25
629.204	4517.25
634.735	4459.25
640.261	4443.25
645.781	4402.25
651.294	4413.25
656.802	4381.25
662.304	4394.25
667.8	4373.25
673.29	4343.25
678.775	4339.25
684.254	4343.25
689.726	4312.25
695.193	4308.25
700.655	4256.25
706.11	4257.25
711.56	4259.25
717.004	4222.25
722.442	4209.25
727.874	4213.25
733.301	4220.25
738.722	4140.25
744.137	4182.25
749.547	4149.25
754.951	4162.25
760.349	4158.25
765.741	4200.25
771.128	4179.25
776.509	4257.25
781.885	4316.25
787.254	4322.25
792.618	4300.25
797.977	4308.25
803.33	4264.25
808.677	4220.25
814.019	4238.25
819.355	4201.25
824.686	4163.25
830.011	4154.25
835.33	4131.25
840.644	4160.25
845.952	4113.25
851.255	4111.25
856.552	4078.25
861.844	4069.25
867.13	4046.25
872.41	4088.25
877.686	4078.25
882.955	4099.25
888.219	4042.25
893.478	3948.25
898.731	3866.25
903.979	3806.25
909.221	3753.25
914.458	3747.25
919.69	3736.25
924.916	3760.25
930.136	3753.25
935.351	3735.25
940.561	3735.25
945.766	3755.25
950.965	3739.25
956.158	3722.25
961.347	3680.25
966.529	3639.25
971.707	3583.25
976.879	3547.25
982.046	3505.25
987.208	3497.25
992.364	3514.25
997.515	3523.25
1002.66	3518.25
1007.801	3581.25
1012.936	3611.25
1018.066	3618.25
1023.19	3658.25
1028.309	3644.25
1033.423	3657.25
1038.532	3669.25
1043.636	3659.25
1048.734	3659.25
1053.827	3594.25
1058.915	3576.25
1063.998	3521.25
1069.075	3509.25
1074.147	3526.25
1079.214	3543.25
1084.276	3543.25
1089.333	3573.25
1094.385	3584.25
1099.431	3557.25
1104.472	3547.25
1109.509	3510.25
1114.54	3451.25
1119.565	3409.25
1124.586	3390.25
1129.602	3328.25
1134.613	3291.25
1139.618	3263.25
1144.619	3279.25
1149.614	3269.25
1154.604	3288.25
1159.589	3284.25
1164.57	3325.25
1169.545	3340.25
1174.515	3361.25
1179.48	3317.25
1184.44	3309.25
1189.395	3296.25
1194.345	3248.25
1199.29	3248.25
1204.23	3217.25
1209.165	3228.25
1214.095	3276.25
1219.021	3247.25
1223.941	3274.25
1228.856	3289.25
1233.766	3318.25
1238.672	3306.25
1243.572	3300.25
1248.467	3284.25
1253.358	3283.25
1258.244	3207.25
1263.124	3162.25
1268	3131.25
1272.871	3066.25
1277.737	3063.25
1282.599	3025.25
1287.455	3052.25
1292.306	3051.25
1297.153	3056.25
1301.995	3073.25
1306.832	3105.25
1311.664	3076.25
1316.491	3085.25
1321.314	3084.25
1326.132	3054.25
1330.945	3029.25
1335.753	2954.25
1340.556	2905.25
1345.354	2864.25
1350.148	2826.25
1354.937	2824.25
1359.722	2759.25
1364.501	2726.25
1369.276	2715.25
1374.046	2722.25
1378.811	2693.25
1383.572	2691.25
1388.327	2690.25
1393.079	2689.25
1397.825	2655.25
1402.567	2639.25
1407.304	2617.25
1412.036	2613.25
1416.764	2623.25
1421.487	2604.25
1426.205	2610.25
1430.919	2663.25
1435.628	2662.25
1440.333	2704.25
1445.032	2711.25
1449.727	2735.25
1454.418	2753.25
1459.104	2777.25
1463.785	2723.25
1468.462	2690.25
1473.134	2644.25
1477.802	2591.25
1482.465	2529.25
1487.123	2509.25
1491.777	2483.25
1496.426	2475.25
1501.071	2501.25
1505.711	2471.25
1510.347	2508.25
1514.978	2507.25
1519.604	2485.25
1524.226	2498.25
1528.844	2447.25
1533.457	2472.25
1538.065	2421.25
1542.669	2398.25
1547.269	2390.25
1551.864	2348.25
1556.454	2342.25
1561.041	2355.25
1565.622	2363.25
1570.199	2380.25
1574.772	2381.25
1579.34	2389.25
1583.904	2426.25
1588.464	2432.25
1593.019	2439.25
1597.569	2405.25
1602.115	2397.25
1606.657	2372.25
1611.195	2396.25
1615.728	2372.25
1620.256	2347.25
1624.78	2318.25
1629.3	2319.25
1633.816	2324.25
1638.327	2322.25
1642.834	2320.25
1647.336	2332.25
1651.834	2365.25
1656.328	2382.25
1660.817	2356.25
1665.302	2328.25
1669.783	2316.25
1674.259	2297.25
1678.732	2268.25
1683.199	2231.25
1687.663	2159.25
1692.122	2141.25
1696.577	2098.25
1701.028	2049.25
1705.474	2016.25
1709.917	1993.25
1714.355	1976.25
1718.788	1980.25
1723.218	1939.25
1727.643	1938.25
1732.064	1932.25
1736.481	1902.25
1740.893	1895.25
1745.301	1838.25
1749.705	1792.25
1754.105	1799.25
1758.501	1731.25
1762.893	1714.25
1767.28	1677.25
1771.663	1660.25
1776.042	1662.25
1780.417	1629.25
1784.787	1646.25
1789.154	1673.25
1793.516	1643.25
1797.874	1645.25
1802.228	1625.25
1806.578	1623.25
1810.924	1615.25
1815.266	1491.25
1819.603	1567.25
1823.937	1557.25
1828.266	1531.25
1832.591	1538.25
1836.913	1545.25
1841.23	1518.25
1845.543	1515.25
1849.852	1532.25
1854.156	1518.25
1858.457	1520.25
1862.754	1514.25
1867.047	1538.25
1871.335	1550.25
1875.62	1545.25
1879.9	1547.25
1884.177	1528.25
1888.449	1537.25
1892.718	1518.25
1896.982	1515.25
1901.243	1477.25
1905.499	1488.25
1909.752	1481.25
1914	1466.25
1918.245	1485.25
1922.485	1489.25
1926.722	1495.25
1930.954	1483.25
1935.183	1475.25
1939.408	1491.25
1943.628	1477.25
1947.845	1475.25
1952.058	1451.25
1956.267	1424.25
1960.472	1405.25
1964.673	1376.25
1968.87	1347.25
1973.063	1324.25
1977.252	1311.25
1981.438	1288.25
1985.619	1284.25
1989.797	1255.25
1993.971	1250.25
1998.14	1258.25
2002.306	1258.25
2006.469	1271.25
2010.627	1244.25
2014.781	1239.25
2018.932	1221.25
2023.078	1238.25
2027.221	1233.25
2031.36	1198.25
2035.495	1191.25
2039.627	1187.25
2043.754	1182.25
2047.878	1165.25
2051.998	1158.25
2056.114	1174.25
2060.226	1142.25
2064.334	1155.25
2068.439	1189.25
2072.54	1183.25
2076.637	1165.25
2080.73	1158.25
2084.82	1155.25
2088.906	1165.25
2092.988	1174.25
2097.066	1143.25
2101.14	1155.25
2105.211	1150.25
2109.278	1103.25
2113.342	1100.25
2117.401	1097.25
2121.457	1067.25
2125.509	1041.25
2129.558	1058.25
2133.602	1039.25
2137.643	1034.25
2141.681	1031.25
2145.714	1032.25
2149.744	1021.25
2153.77	1015.25
2157.793	998.25
2161.812	975.25
2165.827	959.25
2169.838	983.25
2173.846	954.25
2177.851	933.25
2181.851	927.25
2185.848	931.25
2189.841	914.25
2193.831	902.25
2197.817	903.25
2201.799	900.25
2205.778	880.25
2209.753	869.25
2213.725	875.25
2217.693	887.25
2221.657	880.25
2225.618	866.25
2229.575	864.25
2233.529	856.25
2237.479	861.25
2241.425	836.25
2245.368	817.25
2249.307	821.25
2253.243	817.25
2257.175	807.25
2261.104	789.25
2265.029	789.25
2268.95	768.25
2272.868	752.25
2276.783	753.25
2280.694	743.25
2284.601	742.25
2288.505	739.25
2292.405	726.25
2296.302	704.25
2300.195	704.25
2304.085	669.25
2307.971	684.25
2311.854	666.25
2315.734	665.25
2319.609	675.25
2323.482	635.25
2327.351	652.25
2331.216	643.25
2335.078	645.25
2338.937	635.25
2342.792	631.25
2346.643	631.25
2350.492	646.25
2354.336	633.25
2358.178	640.25
2362.015	651.25
2365.85	641.25
2369.681	646.25
2373.508	638.25
2377.333	655.25
2381.153	637.25
2384.971	642.25
2388.785	638.25
2392.595	626.25
2396.402	615.25
2400.206	598.25
2404.007	611.25
2407.804	625.25
2411.597	612.25
2415.388	611.25
2419.174	604.25
2422.958	599.25
2426.738	604.25
2430.515	609.25
2434.289	601.25
2438.059	581.25
2441.825	590.25
2445.589	599.25
2449.349	569.25
2453.106	573.25
2456.859	574.25
2460.61	570.25
2464.356	562.25
2468.1	553.25
2471.84	554.25
2475.577	543.25
2479.311	546.25
2483.041	538.25
2486.768	560.25
2490.492	557.25
2494.213	548.25
2497.93	526.25
2501.644	525.25
2505.355	538.25
2509.062	527.25
2512.766	524.25
2516.467	523.25
2520.165	516.25
2523.859	509.25
2527.551	540.25
2531.239	502.25
2534.923	509.25
2538.605	501.25
2542.283	513.25
2545.958	506.25
2549.63	520.25
2553.299	518.25
2556.964	494.25
2560.626	490.25
2564.285	492.25
2567.941	481.25
2571.594	473.25
2575.243	490.25
2578.89	464.25
2582.533	479.25
2586.173	470.25
2589.809	454.25
2593.443	441.25
2597.073	446.25
2600.701	448.25
2604.325	445.25
2607.946	430.25
2611.564	439.25
2615.178	453.25
2618.79	436.25
2622.398	423.25
2626.004	425.25
2629.606	423.25
2633.205	420.25
2636.801	418.25
2640.394	412.25
2643.983	405.25
2647.57	400.25
2651.153	383.25
2654.734	406.25
2658.311	363.25
2661.885	374.25
2665.456	381.25
2669.025	382.25
2672.589	363.25
2676.151	388.25
2679.71	376.25
2683.266	360.25
2686.819	358.25
2690.368	357.25
2693.915	359.25
2697.458	338.25
2700.999	351.25
2704.536	344.25
2708.071	335.25
2711.602	337.25
2715.13	333.25
2718.656	308.25
2722.178	331.25
2725.697	313.25
2729.214	325.25
2732.727	326.25
2736.237	308.25
2739.744	314.25
2743.249	316.25
2746.75	320.25
2750.248	302.25
2753.743	316.25
2757.236	307.25
2760.725	325.25
2764.211	279.25
2767.695	306.25
2771.175	301.25
2774.652	304.25
2778.127	294.25
2781.598	294.25
2785.067	297.25
2788.532	282.25
2791.995	290.25
2795.455	290.25
2798.911	300.25
2802.365	291.25
2805.816	294.25
2809.264	299.25
2812.709	293.25
2816.151	301.25
2819.59	291.25
2823.026	284.25
2826.46	284.25
2829.89	299.25
2833.318	275.25
2836.742	301.25
2840.164	300.25
2843.583	297.25
2846.999	299.25
2850.412	301.25
2853.822	298.25
2857.229	318.25
2860.634	310.25
2864.035	299.25
2867.434	319.25
2870.83	325.25
2874.223	318.25
2877.613	324.25
2881	318.25
2884.385	325.25
2887.766	335.25
2891.145	327.25
2894.521	330.25
2897.894	318.25
2901.264	319.25
2904.631	318.25
2907.996	326.25
2911.358	324.25
2914.717	337.25
2918.073	310.25
2921.426	321.25
2924.777	309.25
2928.124	328.25
2931.469	343.25
2934.811	338.25
2938.15	358.25
2941.487	354.25
2944.821	364.25
2948.152	342.25
2951.48	345.25
2954.805	312.25
2958.128	324.25
2961.447	306.25
2964.765	318.25
2968.079	301.25
2971.39	310.25
2974.699	311.25
2978.005	307.25
2981.308	317.25
2984.609	300.25
2987.907	317.25
2991.202	317.25
2994.494	300.25
2997.784	305.25
3001.07	310.25
3004.355	292.25
3007.636	304.25
3010.915	297.25
3014.191	298.25
3017.464	296.25
3020.734	293.25
3024.002	286.25
3027.267	289.25
3030.53	298.25
3033.789	282.25
3037.046	288.25
3040.301	285.25
3043.552	300.25
3046.801	302.25
3050.048	314.25
3053.291	326.25
3056.532	323.25
3059.771	309.25
3063.006	331.25
3066.239	327.25
3069.469	352.25
3072.697	333.25
3075.922	340.25
3079.144	347.25
3082.364	375.25
3085.581	359.25
3088.795	386.25
3092.007	373.25
3095.216	387.25
3098.423	379.25
3101.627	362.25
3104.828	393.25
3108.026	395.25
3111.222	423.25
3114.416	422.25
3117.607	412.25
3120.795	425.25
3123.98	428.25
3127.163	436.25
3130.344	432.25
3133.521	435.25
3136.696	463.25
3139.869	463.25
3143.039	463.25
3146.206	495.25
3149.371	492.25
3152.533	486.25
3155.693	479.25
3158.85	488.25
3162.005	489.25
3165.157	494.25
3168.306	492.25
3171.453	504.25
3174.597	488.25
3177.739	486.25
3180.878	504.25
3184.014	499.25
3187.149	496.25
3190.28	491.25
3193.409	501.25
3196.536	495.25
3199.659	509.25
3202.781	499.25
3205.9	485.25
3209.016	498.25
3212.13	492.25
3215.241	495.25
3218.35	485.25
3221.456	477.25
3224.56	471.25
3227.661	479.25
3230.76	462.25
3233.856	461.25
3236.95	461.25
3240.041	463.25
3243.13	470.25
3246.216	468.25
3249.3	458.25
3252.382	460.25
3255.46	446.25
3258.537	399.25
3261.611	428.25
3264.682	450.25
3267.751	443.25
3270.818	427.25
3273.882	441.25
3276.943	433.25
3280.002	430.25
3283.059	417.25
3286.113	425.25
3289.165	411.25
3292.214	404.25
3295.261	414.25
3298.306	372.25
3301.348	396.25
3304.387	374.25
3307.425	387.25
3310.459	376.25
3313.492	372.25
3316.521	357.25
3319.549	379.25
3322.574	372.25
3325.597	359.25
3328.617	345.25
3331.635	357.25
3334.65	330.25
3337.663	359.25
3340.674	345.25
3343.682	350.25
3346.688	356.25
3349.691	341.25
3352.692	343.25
3355.691	342.25
3358.687	340.25
3361.681	342.25
3364.673	332.25
3367.662	326.25
3370.649	326.25
3373.633	325.25
3376.615	326.25
3379.595	311.25
3382.572	301.25
3385.547	300.25
3388.52	298.25
3391.49	295.25
3394.458	299.25
3397.424	295.25
3400.387	282.25
3403.348	292.25
3406.307	292.25
3409.263	285.25
3412.217	278.25
3415.168	277.25
3418.118	285.25
3421.065	277.25
3424.009	276.25
3426.951	266.25
3429.891	261.25
3432.829	255.25
3435.764	259.25
3438.697	248.25
3441.628	249.25
3444.557	227.25
3447.483	223.25
3450.407	237.25
3453.328	218.25
3456.247	205.25
3459.164	197.25
3462.079	206.25
3464.991	193.25
3467.902	192.25
3470.809	188.25
3473.715	190.25
3476.618	168.25
3479.519	169.25
3482.418	163.25
3485.315	162.25
3488.209	153.25
3491.101	164.25
3493.99	141.25
3496.878	138.25
3499.763	140.25
3502.646	142.25
3505.527	125.25
3508.405	128.25
3511.281	111.25
3514.155	125.25
3517.027	123.25
3519.897	92.25
3522.764	100.25
3525.629	83.25
3528.492	103.25
3531.352	91.25
3534.211	91.25
3537.067	83.25
3539.921	84.25
3542.773	83.25
3545.622	65.25
3548.469	57.25
3551.315	56.25
3554.157	62.25
3556.998	53.25
3559.837	57.25
3562.673	57.25
3565.507	51.25
3568.339	38.25
3571.169	43.25
3573.996	42.25
3576.822	27.25
3579.645	29.25
3582.466	34.25
3585.285	40.25
3588.101	30.25
3590.916	26.25
3593.728	29.25
3596.538	31.25
3599.346	29.25
3602.152	16.25
3604.956	20.25
3607.757	27.25
3610.556	5.25
3613.354	16.25
3616.149	16.25
3618.942	16.25
3621.732	16.25
3624.521	3.25
3627.307	-4.75
3630.092	0.25
3632.874	19.25
3635.654	6.25
3638.432	-3.75
3641.208	-0.75
3643.982	-2.75
3646.753	9.25
3649.523	-25.75
3652.29	-2.75
3655.055	1.25
3657.818	-3.75
3660.579	-6.75
3663.338	-13.75
3666.095	-8.75
3668.849	-31.75
3671.602	-1.75
3674.352	-20.75
3677.101	-1.75
3679.847	-4.75
3682.591	-16.75
3685.333	-24.75
3688.073	-7.75
3690.811	-21.75
3693.547	-28.75
3696.281	-32.75
3699.013	-14.75
3701.742	-21.75
3704.47	-28.75
3707.195	-12.75
3709.919	-16.75
3712.64	-19.75
3715.359	-29.75
3718.076	-9.75
3720.792	-26.75
3723.505	-18.75
3726.216	-7.75
3728.925	-24.75
3731.632	-28.75
3734.336	-23.75
3737.039	-21.75
3739.74	-18.75
3742.439	-49.75
3745.136	-17.75
3747.83	-16.75
3750.523	-16.75
3753.213	-78.75
3755.902	-28.75
3758.589	-43.75
3761.273	-27.75
3763.956	-18.75
3766.636	-40.75
3769.315	-20.75
3771.991	-28.75
3774.665	-28.75
3777.338	-22.75
3780.008	-36.75
3782.677	-25.75
3785.343	-45.75
3788.007	-44.75
3790.67	-22.75
3793.33	-38.75
3795.989	-32.75
3798.645	-22.75
3801.299	-38.75
3803.952	-39.75
3806.602	-29.75
3809.251	-25.75
3811.897	-29.75
3814.542	-37.75
3817.184	-34.75
3819.825	-33.75
3822.463	-35.75
3825.1	-28.75
3827.735	-31.75
3830.367	-39.75
3832.998	-15.75
3835.627	-32.75
3838.253	-22.75
3840.878	-32.75
3843.501	-13.75
3846.122	-24.75
3848.741	-23.75
3851.358	-22.75
3853.973	-40.75
3856.586	-18.75
3859.197	-36.75
3861.806	-30.75
3864.414	-41.75
3867.019	-39.75
3869.622	-24.75
3872.224	-27.75
3874.823	-19.75
3877.421	2.25
3880.016	-3.75
3882.61	28.25
3885.202	34.25
3887.792	21.25
3890.38	4.25
3892.966	-27.75
3895.55	-39.75
3898.132	-25.75
3900.713	-25.75
3903.291	-34.75
3905.868	-37.75
3908.442	-32.75
3911.015	-32.75
3913.586	-39.75
3916.155	-35.75
3918.722	-40.75
3921.287	-39.75
3923.85	-52.75
3926.411	-37.75
3928.971	-42.75
3931.528	-28.75
3934.084	-32.75
3936.638	-43.75
3939.19	-30.75
3941.74	-28.75
3944.288	-36.75
3946.834	-34.75
3949.378	-23.75
3951.921	-40.75
3954.462	-30.75
3957	-35.75
3959.537	-23.75
3962.072	-27.75
3964.606	-47.75
3967.137	-37.75
3969.667	-31.75
3972.194	-24.75
3974.72	-39.75
3977.244	-55.75
3979.766	-37.75
3982.286	-36.75
3984.805	-27.75
3987.321	-21.75
3989.836	-28.75
3992.349	-40.75
3994.86	-33.75
3997.369	-38.75
3999.877	-34.75
4002.382	-31.75
4004.886	-26.75
4007.388	-30.75
4009.888	-22.75
4012.386	-21.75
4014.883	-26.75
4017.377	-31.75
4019.87	-25.75
4022.361	-38.75
4024.85	-29.75
4027.338	-27.75
4029.823	-34.75
4032.307	-32.75
4034.789	-27.75
4037.269	-29.75
4039.747	-44.75
4042.224	-22.75
4044.699	-36.75
4047.172	-32.75
4049.643	-20.75
4052.112	-51.75
4054.58	-23.75
4057.046	-39.75
4059.51	-32.75
4061.972	-29.75
4064.432	-44.75
4066.891	-15.75
4069.348	-27.75
4071.803	-22.75
4074.256	-35.75
4076.708	-21.75
4079.158	-28.75
4081.606	-16.75
4084.052	-26.75
4086.497	-26.75
4088.939	-27.75
4091.38	-29.75
4093.819	-21.75
4096.257	1.25
4098.693	-6.75
4101.127	-6.75
4103.559	3.25
4105.989	59.25
4108.418	67.25
4110.845	54.25
4113.27	65.25
4115.694	86.25
4118.115	78.25
4120.535	-21.75
4122.954	-22.75
4125.37	-15.75
4127.785	-23.75
4130.198	-21.75
4132.609	-28.75
4135.019	6.25
4137.427	0.25
4139.833	7.25
4142.237	-4.75
