Data from 2018-3-6_conc=3_n=6_RamanShift_03.txt Node
Date: Tue Mar 06 13:30:49 GMT+02:00 2018
User: LAB3
Spectrometer: QEPB0276
Trigger mode: 0
Integration Time (sec): 3.000000E1
Scans to average: 1
Electric dark correction enabled: true
Nonlinearity correction enabled: false
Boxcar width: 0
XAxis mode: Raman Shifts
Number of Pixels in Spectrum: 1044
>>>>>Begin Spectral Data<<<<<
160.701	128.38
166.742	163.38
172.777	243.38
178.805	493.38
184.826	1143.38
190.841	2289.38
196.849	3598.38
202.85	4599.38
208.845	4963.38
214.833	4970.38
220.815	4928.38
226.789	4941.38
232.758	4995.38
238.719	5003.38
244.674	4981.38
250.623	4955.38
256.565	4910.38
262.5	4856.38
268.429	4846.38
274.351	4823.38
280.267	4809.38
286.176	4814.38
292.079	4849.38
297.975	4838.38
303.865	4845.38
309.748	4860.38
315.625	4860.38
321.495	4883.38
327.359	4869.38
333.217	4886.38
339.068	4913.38
344.912	4952.38
350.751	4940.38
356.583	5001.38
362.408	4995.38
368.227	5012.38
374.04	5075.38
379.847	5077.38
385.647	5122.38
391.44	5090.38
397.228	5119.38
403.009	5173.38
408.784	5197.38
414.553	5239.38
420.315	5240.38
426.071	5228.38
431.821	5225.38
437.565	5234.38
443.302	5201.38
449.033	5204.38
454.758	5195.38
460.477	5133.38
466.189	5099.38
471.896	5052.38
477.596	4971.38
483.29	4968.38
488.978	4958.38
494.66	4895.38
500.335	4816.38
506.005	4626.38
511.668	4379.38
517.325	4182.38
522.977	3997.38
528.622	3897.38
534.261	3781.38
539.894	3739.38
545.521	3658.38
551.141	3621.38
556.756	3576.38
562.365	3558.38
567.968	3511.38
573.565	3492.38
579.155	3469.38
584.74	3438.38
590.319	3428.38
595.892	3424.38
601.459	3431.38
607.02	3417.38
612.575	3397.38
618.124	3380.38
623.667	3316.38
629.204	3257.38
634.735	3219.38
640.261	3177.38
645.781	3140.38
651.294	3138.38
656.802	3144.38
662.304	3145.38
667.8	3152.38
673.29	3088.38
678.775	3112.38
684.254	3077.38
689.726	3049.38
695.193	3071.38
700.655	3034.38
706.11	3035.38
711.56	3008.38
717.004	2997.38
722.442	2969.38
727.874	2986.38
733.301	2985.38
738.722	2926.38
744.137	2947.38
749.547	2947.38
754.951	2933.38
760.349	2923.38
765.741	2953.38
771.128	2985.38
776.509	3014.38
781.885	3060.38
787.254	3089.38
792.618	3080.38
797.977	3093.38
803.33	3063.38
808.677	3046.38
814.019	3005.38
819.355	3004.38
824.686	2956.38
830.011	2928.38
835.33	2952.38
840.644	2906.38
845.952	2872.38
851.255	2876.38
856.552	2833.38
861.844	2826.38
867.13	2765.38
872.41	2756.38
877.686	2761.38
882.955	2731.38
888.219	2695.38
893.478	2663.38
898.731	2628.38
903.979	2594.38
909.221	2565.38
914.458	2549.38
919.69	2537.38
924.916	2565.38
930.136	2557.38
935.351	2559.38
940.561	2568.38
945.766	2548.38
950.965	2548.38
956.158	2506.38
961.347	2503.38
966.529	2436.38
971.707	2445.38
976.879	2417.38
982.046	2382.38
987.208	2369.38
992.364	2379.38
997.515	2376.38
1002.66	2384.38
1007.801	2416.38
1012.936	2435.38
1018.066	2456.38
1023.19	2466.38
1028.309	2456.38
1033.423	2457.38
1038.532	2470.38
1043.636	2439.38
1048.734	2426.38
1053.827	2387.38
1058.915	2371.38
1063.998	2369.38
1069.075	2334.38
1074.147	2338.38
1079.214	2337.38
1084.276	2369.38
1089.333	2373.38
1094.385	2380.38
1099.431	2342.38
1104.472	2367.38
1109.509	2319.38
1114.54	2295.38
1119.565	2255.38
1124.586	2244.38
1129.602	2214.38
1134.613	2163.38
1139.618	2150.38
1144.619	2192.38
1149.614	2180.38
1154.604	2181.38
1159.589	2190.38
1164.57	2199.38
1169.545	2210.38
1174.515	2205.38
1179.48	2192.38
1184.44	2191.38
1189.395	2171.38
1194.345	2157.38
1199.29	2141.38
1204.23	2133.38
1209.165	2114.38
1214.095	2135.38
1219.021	2133.38
1223.941	2147.38
1228.856	2173.38
1233.766	2182.38
1238.672	2155.38
1243.572	2170.38
1248.467	2160.38
1253.358	2117.38
1258.244	2069.38
1263.124	2076.38
1268	2050.38
1272.871	1976.38
1277.737	1976.38
1282.599	1961.38
1287.455	1946.38
1292.306	1958.38
1297.153	1956.38
1301.995	1957.38
1306.832	1961.38
1311.664	2010.38
1316.491	1975.38
1321.314	1988.38
1326.132	1952.38
1330.945	1904.38
1335.753	1884.38
1340.556	1872.38
1345.354	1829.38
1350.148	1815.38
1354.937	1813.38
1359.722	1759.38
1364.501	1758.38
1369.276	1746.38
1374.046	1766.38
1378.811	1749.38
1383.572	1747.38
1388.327	1747.38
1393.079	1722.38
1397.825	1710.38
1402.567	1704.38
1407.304	1705.38
1412.036	1686.38
1416.764	1689.38
1421.487	1647.38
1426.205	1675.38
1430.919	1678.38
1435.628	1688.38
1440.333	1674.38
1445.032	1682.38
1449.727	1708.38
1454.418	1727.38
1459.104	1733.38
1463.785	1674.38
1468.462	1657.38
1473.134	1651.38
1477.802	1619.38
1482.465	1576.38
1487.123	1572.38
1491.777	1539.38
1496.426	1534.38
1501.071	1572.38
1505.711	1556.38
1510.347	1583.38
1514.978	1591.38
1519.604	1591.38
1524.226	1580.38
1528.844	1576.38
1533.457	1585.38
1538.065	1559.38
1542.669	1536.38
1547.269	1530.38
1551.864	1517.38
1556.454	1507.38
1561.041	1533.38
1565.622	1509.38
1570.199	1536.38
1574.772	1547.38
1579.34	1554.38
1583.904	1566.38
1588.464	1573.38
1593.019	1587.38
1597.569	1572.38
1602.115	1570.38
1606.657	1552.38
1611.195	1565.38
1615.728	1565.38
1620.256	1543.38
1624.78	1524.38
1629.3	1548.38
1633.816	1552.38
1638.327	1547.38
1642.834	1559.38
1647.336	1560.38
1651.834	1596.38
1656.328	1586.38
1660.817	1554.38
1665.302	1546.38
1669.783	1542.38
1674.259	1494.38
1678.732	1476.38
1683.199	1447.38
1687.663	1402.38
1692.122	1392.38
1696.577	1343.38
1701.028	1329.38
1705.474	1301.38
1709.917	1293.38
1714.355	1261.38
1718.788	1252.38
1723.218	1237.38
1727.643	1219.38
1732.064	1190.38
1736.481	1182.38
1740.893	1173.38
1745.301	1141.38
1749.705	1114.38
1754.105	1096.38
1758.501	1064.38
1762.893	1068.38
1767.28	1029.38
1771.663	1021.38
1776.042	1004.38
1780.417	999.38
1784.787	1015.38
1789.154	1016.38
1793.516	1019.38
1797.874	1017.38
1802.228	1004.38
1806.578	994.38
1810.924	994.38
1815.266	890.38
1819.603	996.38
1823.937	956.38
1828.266	945.38
1832.591	961.38
1836.913	941.38
1841.23	929.38
1845.543	928.38
1849.852	938.38
1854.156	928.38
1858.457	929.38
1862.754	914.38
1867.047	935.38
1871.335	932.38
1875.62	932.38
1879.9	942.38
1884.177	923.38
1888.449	917.38
1892.718	905.38
1896.982	916.38
1901.243	902.38
1905.499	905.38
1909.752	891.38
1914	867.38
1918.245	888.38
1922.485	912.38
1926.722	898.38
1930.954	900.38
1935.183	903.38
1939.408	913.38
1943.628	913.38
1947.845	907.38
1952.058	874.38
1956.267	871.38
1960.472	881.38
1964.673	848.38
1968.87	846.38
1973.063	823.38
1977.252	817.38
1981.438	797.38
1985.619	802.38
1989.797	774.38
1993.971	787.38
1998.14	786.38
2002.306	769.38
2006.469	791.38
2010.627	769.38
2014.781	784.38
2018.932	759.38
2023.078	775.38
2027.221	763.38
2031.36	733.38
2035.495	748.38
2039.627	728.38
2043.754	739.38
2047.878	722.38
2051.998	715.38
2056.114	715.38
2060.226	716.38
2064.334	724.38
2068.439	729.38
2072.54	727.38
2076.637	720.38
2080.73	709.38
2084.82	705.38
2088.906	729.38
2092.988	722.38
2097.066	725.38
2101.14	710.38
2105.211	714.38
2109.278	696.38
2113.342	689.38
2117.401	681.38
2121.457	667.38
2125.509	665.38
2129.558	664.38
2133.602	655.38
2137.643	651.38
2141.681	646.38
2145.714	649.38
2149.744	644.38
2153.77	630.38
2157.793	628.38
2161.812	595.38
2165.827	591.38
2169.838	600.38
2173.846	588.38
2177.851	579.38
2181.851	590.38
2185.848	571.38
2189.841	571.38
2193.831	563.38
2197.817	552.38
2201.799	549.38
2205.778	541.38
2209.753	542.38
2213.725	530.38
2217.693	534.38
2221.657	525.38
2225.618	532.38
2229.575	531.38
2233.529	533.38
2237.479	527.38
2241.425	506.38
2245.368	494.38
2249.307	500.38
2253.243	481.38
2257.175	482.38
2261.104	476.38
2265.029	478.38
2268.95	469.38
2272.868	458.38
2276.783	442.38
2280.694	461.38
2284.601	451.38
2288.505	449.38
2292.405	443.38
2296.302	422.38
2300.195	427.38
2304.085	399.38
2307.971	419.38
2311.854	392.38
2315.734	398.38
2319.609	394.38
2323.482	369.38
2327.351	381.38
2331.216	380.38
2335.078	384.38
2338.937	378.38
2342.792	367.38
2346.643	367.38
2350.492	370.38
2354.336	371.38
2358.178	374.38
2362.015	374.38
2365.85	366.38
2369.681	374.38
2373.508	376.38
2377.333	372.38
2381.153	375.38
2384.971	365.38
2388.785	359.38
2392.595	351.38
2396.402	351.38
2400.206	332.38
2404.007	343.38
2407.804	342.38
2411.597	352.38
2415.388	350.38
2419.174	342.38
2422.958	346.38
2426.738	343.38
2430.515	344.38
2434.289	333.38
2438.059	327.38
2441.825	327.38
2445.589	339.38
2449.349	313.38
2453.106	325.38
2456.859	317.38
2460.61	326.38
2464.356	309.38
2468.1	298.38
2471.84	307.38
2475.577	302.38
2479.311	299.38
2483.041	300.38
2486.768	312.38
2490.492	314.38
2494.213	301.38
2497.93	286.38
2501.644	290.38
2505.355	289.38
2509.062	297.38
2512.766	284.38
2516.467	275.38
2520.165	293.38
2523.859	270.38
2527.551	313.38
2531.239	271.38
2534.923	283.38
2538.605	278.38
2542.283	289.38
2545.958	281.38
2549.63	285.38
2553.299	282.38
2556.964	260.38
2560.626	271.38
2564.285	270.38
2567.941	251.38
2571.594	249.38
2575.243	267.38
2578.89	251.38
2582.533	263.38
2586.173	252.38
2589.809	253.38
2593.443	228.38
2597.073	244.38
2600.701	247.38
2604.325	245.38
2607.946	228.38
2611.564	255.38
2615.178	244.38
2618.79	248.38
2622.398	229.38
2626.004	240.38
2629.606	239.38
2633.205	224.38
2636.801	223.38
2640.394	228.38
2643.983	212.38
2647.57	218.38
2651.153	208.38
2654.734	220.38
2658.311	193.38
2661.885	200.38
2665.456	209.38
2669.025	203.38
2672.589	198.38
2676.151	210.38
2679.71	210.38
2683.266	202.38
2686.819	183.38
2690.368	199.38
2693.915	199.38
2697.458	193.38
2700.999	201.38
2704.536	192.38
2708.071	190.38
2711.602	187.38
2715.13	177.38
2718.656	165.38
2722.178	179.38
2725.697	169.38
2729.214	175.38
2732.727	173.38
2736.237	159.38
2739.744	165.38
2743.249	171.38
2746.75	175.38
2750.248	167.38
2753.743	180.38
2757.236	172.38
2760.725	176.38
2764.211	142.38
2767.695	172.38
2771.175	165.38
2774.652	167.38
2778.127	159.38
2781.598	162.38
2785.067	169.38
2788.532	157.38
2791.995	177.38
2795.455	155.38
2798.911	171.38
2802.365	163.38
2805.816	170.38
2809.264	166.38
2812.709	167.38
2816.151	178.38
2819.59	161.38
2823.026	166.38
2826.46	159.38
2829.89	177.38
2833.318	145.38
2836.742	165.38
2840.164	169.38
2843.583	166.38
2846.999	168.38
2850.412	171.38
2853.822	164.38
2857.229	178.38
2860.634	173.38
2864.035	163.38
2867.434	183.38
2870.83	180.38
2874.223	180.38
2877.613	190.38
2881	178.38
2884.385	181.38
2887.766	189.38
2891.145	182.38
2894.521	183.38
2897.894	181.38
2901.264	200.38
2904.631	188.38
2907.996	195.38
2911.358	202.38
2914.717	194.38
2918.073	197.38
2921.426	193.38
2924.777	170.38
2928.124	194.38
2931.469	217.38
2934.811	201.38
2938.15	233.38
2941.487	214.38
2944.821	226.38
2948.152	220.38
2951.48	223.38
2954.805	207.38
2958.128	222.38
2961.447	210.38
2964.765	230.38
2968.079	221.38
2971.39	227.38
2974.699	224.38
2978.005	228.38
2981.308	229.38
2984.609	219.38
2987.907	243.38
2991.202	244.38
2994.494	234.38
2997.784	232.38
3001.07	238.38
3004.355	241.38
3007.636	249.38
3010.915	248.38
3014.191	243.38
3017.464	250.38
3020.734	246.38
3024.002	264.38
3027.267	250.38
3030.53	262.38
3033.789	256.38
3037.046	264.38
3040.301	258.38
3043.552	281.38
3046.801	277.38
3050.048	293.38
3053.291	311.38
3056.532	300.38
3059.771	292.38
3063.006	321.38
3066.239	311.38
3069.469	323.38
3072.697	331.38
3075.922	326.38
3079.144	343.38
3082.364	375.38
3085.581	355.38
3088.795	393.38
3092.007	388.38
3095.216	401.38
3098.423	392.38
3101.627	382.38
3104.828	416.38
3108.026	409.38
3111.222	437.38
3114.416	449.38
3117.607	446.38
3120.795	453.38
3123.98	457.38
3127.163	466.38
3130.344	480.38
3133.521	481.38
3136.696	503.38
3139.869	517.38
3143.039	498.38
3146.206	537.38
3149.371	544.38
3152.533	539.38
3155.693	533.38
3158.85	546.38
3162.005	551.38
3165.157	550.38
3168.306	551.38
3171.453	569.38
3174.597	557.38
3177.739	540.38
3180.878	551.38
3184.014	554.38
3187.149	560.38
3190.28	563.38
3193.409	574.38
3196.536	578.38
3199.659	568.38
3202.781	572.38
3205.9	563.38
3209.016	575.38
3212.13	568.38
3215.241	571.38
3218.35	561.38
3221.456	539.38
3224.56	534.38
3227.661	544.38
3230.76	551.38
3233.856	524.38
3236.95	537.38
3240.041	520.38
3243.13	535.38
3246.216	536.38
3249.3	529.38
3252.382	530.38
3255.46	510.38
3258.537	469.38
3261.611	510.38
3264.682	523.38
3267.751	505.38
3270.818	493.38
3273.882	522.38
3276.943	513.38
3280.002	519.38
3283.059	499.38
3286.113	492.38
3289.165	484.38
3292.214	474.38
3295.261	480.38
3298.306	459.38
3301.348	468.38
3304.387	454.38
3307.425	456.38
3310.459	442.38
3313.492	465.38
3316.521	439.38
3319.549	442.38
3322.574	437.38
3325.597	438.38
3328.617	417.38
3331.635	420.38
3334.65	413.38
3337.663	419.38
3340.674	414.38
3343.682	414.38
3346.688	424.38
3349.691	411.38
3352.692	409.38
3355.691	415.38
3358.687	408.38
3361.681	420.38
3364.673	405.38
3367.662	397.38
3370.649	397.38
3373.633	375.38
3376.615	382.38
3379.595	362.38
3382.572	369.38
3385.547	360.38
3388.52	364.38
3391.49	357.38
3394.458	355.38
3397.424	364.38
3400.387	346.38
3403.348	357.38
3406.307	347.38
3409.263	336.38
3412.217	341.38
3415.168	334.38
3418.118	342.38
3421.065	328.38
3424.009	338.38
3426.951	314.38
3429.891	311.38
3432.829	317.38
3435.764	306.38
3438.697	300.38
3441.628	303.38
3444.557	280.38
3447.483	276.38
3450.407	279.38
3453.328	265.38
3456.247	250.38
3459.164	247.38
3462.079	256.38
3464.991	251.38
3467.902	230.38
3470.809	229.38
3473.715	228.38
3476.618	214.38
3479.519	218.38
3482.418	193.38
3485.315	197.38
3488.209	190.38
3491.101	191.38
3493.99	170.38
3496.878	168.38
3499.763	177.38
3502.646	173.38
3505.527	154.38
3508.405	152.38
3511.281	136.38
3514.155	148.38
3517.027	139.38
3519.897	119.38
3522.764	126.38
3525.629	107.38
3528.492	124.38
3531.352	116.38
3534.211	109.38
3537.067	102.38
3539.921	98.38
3542.773	106.38
3545.622	82.38
3548.469	78.38
3551.315	79.38
3554.157	77.38
3556.998	68.38
3559.837	67.38
3562.673	71.38
3565.507	62.38
3568.339	53.38
3571.169	60.38
3573.996	55.38
3576.822	26.38
3579.645	36.38
3582.466	34.38
3585.285	45.38
3588.101	40.38
3590.916	31.38
3593.728	40.38
3596.538	28.38
3599.346	31.38
3602.152	24.38
3604.956	24.38
3607.757	19.38
3610.556	18.38
3613.354	27.38
3616.149	25.38
3618.942	23.38
3621.732	18.38
3624.521	5.38
3627.307	-0.62
3630.092	1.38
3632.874	18.38
3635.654	1.38
3638.432	-1.62
3641.208	1.38
3643.982	4.38
3646.753	7.38
3649.523	-25.62
3652.29	-4.62
3655.055	4.38
3657.818	-2.62
3660.579	-5.62
3663.338	-21.62
3666.095	-8.62
3668.849	-32.62
3671.602	-5.62
3674.352	-20.62
3677.101	2.38
3679.847	-3.62
3682.591	-18.62
3685.333	-28.62
3688.073	-13.62
3690.811	-24.62
3693.547	-27.62
3696.281	-28.62
3699.013	-12.62
3701.742	-24.62
3704.47	-27.62
3707.195	-18.62
3709.919	-15.62
3712.64	-17.62
3715.359	-32.62
3718.076	-11.62
3720.792	-18.62
3723.505	-22.62
3726.216	-15.62
3728.925	-21.62
3731.632	-33.62
3734.336	-25.62
3737.039	-24.62
3739.74	-20.62
3742.439	-48.62
3745.136	-21.62
3747.83	-21.62
3750.523	-23.62
3753.213	-89.62
3755.902	-30.62
3758.589	-47.62
3761.273	-28.62
3763.956	-18.62
3766.636	-35.62
3769.315	-17.62
3771.991	-35.62
3774.665	-30.62
3777.338	-26.62
3780.008	-40.62
3782.677	-32.62
3785.343	-43.62
3788.007	-48.62
3790.67	-22.62
3793.33	-41.62
3795.989	-32.62
3798.645	-30.62
3801.299	-41.62
3803.952	-37.62
3806.602	-34.62
3809.251	-25.62
3811.897	-26.62
3814.542	-31.62
3817.184	-37.62
3819.825	-31.62
3822.463	-40.62
3825.1	-31.62
3827.735	-30.62
3830.367	-36.62
3832.998	-19.62
3835.627	-33.62
3838.253	-24.62
3840.878	-36.62
3843.501	-16.62
3846.122	-28.62
3848.741	-21.62
3851.358	-23.62
3853.973	-38.62
3856.586	-22.62
3859.197	-35.62
3861.806	-30.62
3864.414	-38.62
3867.019	-29.62
3869.622	-22.62
3872.224	-20.62
3874.823	-3.62
3877.421	16.38
3880.016	35.38
3882.61	68.38
3885.202	75.38
3887.792	58.38
3890.38	28.38
3892.966	-7.62
3895.55	-30.62
3898.132	-19.62
3900.713	-22.62
3903.291	-25.62
3905.868	-33.62
3908.442	-32.62
3911.015	-29.62
3913.586	-34.62
3916.155	-31.62
3918.722	-38.62
3921.287	-34.62
3923.85	-43.62
3926.411	-39.62
3928.971	-34.62
3931.528	-30.62
3934.084	-30.62
3936.638	-41.62
3939.19	-30.62
3941.74	-32.62
3944.288	-40.62
3946.834	-33.62
3949.378	-11.62
3951.921	3.38
3954.462	-31.62
3957	-29.62
3959.537	-22.62
3962.072	-31.62
3964.606	-52.62
3967.137	-32.62
3969.667	-35.62
3972.194	-25.62
3974.72	-37.62
3977.244	-54.62
3979.766	-39.62
3982.286	-40.62
3984.805	-30.62
3987.321	-18.62
3989.836	-26.62
3992.349	-32.62
3994.86	-27.62
3997.369	-33.62
3999.877	-32.62
4002.382	-34.62
4004.886	-27.62
4007.388	-23.62
4009.888	-14.62
4012.386	-22.62
4014.883	-28.62
4017.377	-32.62
4019.87	-26.62
4022.361	-36.62
4024.85	-29.62
4027.338	-28.62
4029.823	-35.62
4032.307	-31.62
4034.789	-27.62
4037.269	-26.62
4039.747	-42.62
4042.224	-23.62
4044.699	-34.62
4047.172	-32.62
4049.643	-26.62
4052.112	-55.62
4054.58	-26.62
4057.046	-39.62
4059.51	-31.62
4061.972	-27.62
4064.432	-44.62
4066.891	-14.62
4069.348	-30.62
4071.803	-25.62
4074.256	-34.62
4076.708	-28.62
4079.158	-28.62
4081.606	-17.62
4084.052	-33.62
4086.497	-25.62
4088.939	-29.62
4091.38	-29.62
4093.819	-24.62
4096.257	4.38
4098.693	-5.62
4101.127	-5.62
4103.559	4.38
4105.989	115.38
4108.418	115.38
4110.845	102.38
4113.27	116.38
4115.694	125.38
4118.115	111.38
4120.535	-27.62
4122.954	-23.62
4125.37	-17.62
4127.785	-26.62
4130.198	-24.62
4132.609	-29.62
4135.019	7.38
4137.427	1.38
4139.833	2.38
4142.237	-8.62
