Data from 2018-3-6_conc=6_n=7_RamanShift_04.txt Node
Date: Tue Mar 06 15:14:48 GMT+02:00 2018
User: LAB3
Spectrometer: QEPB0276
Trigger mode: 0
Integration Time (sec): 3.000000E1
Scans to average: 1
Electric dark correction enabled: true
Nonlinearity correction enabled: false
Boxcar width: 0
XAxis mode: Raman Shifts
Number of Pixels in Spectrum: 1044
>>>>>Begin Spectral Data<<<<<
160.701	38.38
166.742	54.38
172.777	75.38
178.805	154.38
184.826	374.38
190.841	753.38
196.849	1169.38
202.85	1477.38
208.845	1531.38
214.833	1530.38
220.815	1486.38
226.789	1480.38
232.758	1466.38
238.719	1442.38
244.674	1431.38
250.623	1406.38
256.565	1381.38
262.5	1363.38
268.429	1345.38
274.351	1304.38
280.267	1310.38
286.176	1307.38
292.079	1298.38
297.975	1301.38
303.865	1288.38
309.748	1288.38
315.625	1278.38
321.495	1287.38
327.359	1275.38
333.217	1260.38
339.068	1277.38
344.912	1280.38
350.751	1272.38
356.583	1281.38
362.408	1303.38
368.227	1291.38
374.04	1296.38
379.847	1306.38
385.647	1314.38
391.44	1300.38
397.228	1314.38
403.009	1318.38
408.784	1325.38
414.553	1337.38
420.315	1332.38
426.071	1317.38
431.821	1334.38
437.565	1328.38
443.302	1324.38
449.033	1292.38
454.758	1310.38
460.477	1291.38
466.189	1281.38
471.896	1277.38
477.596	1263.38
483.29	1248.38
488.978	1246.38
494.66	1234.38
500.335	1180.38
506.005	1143.38
511.668	1101.38
517.325	1033.38
522.977	975.38
528.622	946.38
534.261	944.38
539.894	908.38
545.521	898.38
551.141	854.38
556.756	871.38
562.365	857.38
567.968	843.38
573.565	834.38
579.155	855.38
584.74	832.38
590.319	843.38
595.892	845.38
601.459	826.38
607.02	832.38
612.575	834.38
618.124	819.38
623.667	798.38
629.204	783.38
634.735	783.38
640.261	769.38
645.781	742.38
651.294	747.38
656.802	748.38
662.304	757.38
667.8	756.38
673.29	746.38
678.775	737.38
684.254	743.38
689.726	731.38
695.193	742.38
700.655	709.38
706.11	731.38
711.56	721.38
717.004	725.38
722.442	701.38
727.874	716.38
733.301	715.38
738.722	700.38
744.137	708.38
749.547	693.38
754.951	695.38
760.349	700.38
765.741	708.38
771.128	716.38
776.509	709.38
781.885	742.38
787.254	750.38
792.618	731.38
797.977	743.38
803.33	731.38
808.677	722.38
814.019	724.38
819.355	724.38
824.686	714.38
830.011	705.38
835.33	703.38
840.644	722.38
845.952	688.38
851.255	691.38
856.552	682.38
861.844	683.38
867.13	664.38
872.41	653.38
877.686	647.38
882.955	656.38
888.219	636.38
893.478	632.38
898.731	627.38
903.979	633.38
909.221	617.38
914.458	612.38
919.69	606.38
924.916	609.38
930.136	612.38
935.351	608.38
940.561	622.38
945.766	616.38
950.965	615.38
956.158	595.38
961.347	589.38
966.529	594.38
971.707	585.38
976.879	574.38
982.046	569.38
987.208	552.38
992.364	562.38
997.515	560.38
1002.66	559.38
1007.801	562.38
1012.936	582.38
1018.066	552.38
1023.19	580.38
1028.309	591.38
1033.423	584.38
1038.532	591.38
1043.636	562.38
1048.734	565.38
1053.827	553.38
1058.915	551.38
1063.998	551.38
1069.075	550.38
1074.147	565.38
1079.214	530.38
1084.276	567.38
1089.333	561.38
1094.385	573.38
1099.431	552.38
1104.472	566.38
1109.509	543.38
1114.54	523.38
1119.565	527.38
1124.586	524.38
1129.602	514.38
1134.613	491.38
1139.618	510.38
1144.619	510.38
1149.614	513.38
1154.604	496.38
1159.589	507.38
1164.57	519.38
1169.545	525.38
1174.515	518.38
1179.48	511.38
1184.44	514.38
1189.395	523.38
1194.345	503.38
1199.29	508.38
1204.23	488.38
1209.165	478.38
1214.095	502.38
1219.021	502.38
1223.941	494.38
1228.856	493.38
1233.766	516.38
1238.672	514.38
1243.572	513.38
1248.467	503.38
1253.358	488.38
1258.244	484.38
1263.124	489.38
1268	485.38
1272.871	457.38
1277.737	460.38
1282.599	459.38
1287.455	449.38
1292.306	452.38
1297.153	452.38
1301.995	453.38
1306.832	449.38
1311.664	452.38
1316.491	447.38
1321.314	447.38
1326.132	448.38
1330.945	442.38
1335.753	436.38
1340.556	428.38
1345.354	430.38
1350.148	419.38
1354.937	424.38
1359.722	402.38
1364.501	408.38
1369.276	410.38
1374.046	421.38
1378.811	408.38
1383.572	425.38
1388.327	416.38
1393.079	388.38
1397.825	399.38
1402.567	394.38
1407.304	391.38
1412.036	385.38
1416.764	380.38
1421.487	388.38
1426.205	371.38
1430.919	389.38
1435.628	389.38
1440.333	383.38
1445.032	389.38
1449.727	380.38
1454.418	402.38
1459.104	403.38
1463.785	387.38
1468.462	397.38
1473.134	379.38
1477.802	377.38
1482.465	352.38
1487.123	362.38
1491.777	341.38
1496.426	345.38
1501.071	373.38
1505.711	358.38
1510.347	374.38
1514.978	372.38
1519.604	355.38
1524.226	384.38
1528.844	351.38
1533.457	369.38
1538.065	361.38
1542.669	369.38
1547.269	359.38
1551.864	364.38
1556.454	340.38
1561.041	351.38
1565.622	347.38
1570.199	354.38
1574.772	358.38
1579.34	353.38
1583.904	365.38
1588.464	373.38
1593.019	371.38
1597.569	360.38
1602.115	359.38
1606.657	359.38
1611.195	367.38
1615.728	374.38
1620.256	358.38
1624.78	334.38
1629.3	344.38
1633.816	354.38
1638.327	359.38
1642.834	359.38
1647.336	363.38
1651.834	372.38
1656.328	367.38
1660.817	351.38
1665.302	349.38
1669.783	347.38
1674.259	331.38
1678.732	329.38
1683.199	322.38
1687.663	308.38
1692.122	317.38
1696.577	309.38
1701.028	315.38
1705.474	293.38
1709.917	287.38
1714.355	286.38
1718.788	284.38
1723.218	268.38
1727.643	268.38
1732.064	266.38
1736.481	251.38
1740.893	265.38
1745.301	256.38
1749.705	226.38
1754.105	245.38
1758.501	233.38
1762.893	256.38
1767.28	220.38
1771.663	224.38
1776.042	216.38
1780.417	227.38
1784.787	225.38
1789.154	234.38
1793.516	233.38
1797.874	223.38
1802.228	219.38
1806.578	211.38
1810.924	224.38
1815.266	108.38
1819.603	223.38
1823.937	212.38
1828.266	214.38
1832.591	209.38
1836.913	198.38
1841.23	192.38
1845.543	200.38
1849.852	207.38
1854.156	197.38
1858.457	199.38
1862.754	185.38
1867.047	198.38
1871.335	211.38
1875.62	205.38
1879.9	204.38
1884.177	189.38
1888.449	196.38
1892.718	196.38
1896.982	212.38
1901.243	186.38
1905.499	193.38
1909.752	190.38
1914	180.38
1918.245	197.38
1922.485	207.38
1926.722	198.38
1930.954	184.38
1935.183	202.38
1939.408	207.38
1943.628	204.38
1947.845	199.38
1952.058	192.38
1956.267	177.38
1960.472	195.38
1964.673	190.38
1968.87	180.38
1973.063	178.38
1977.252	178.38
1981.438	169.38
1985.619	171.38
1989.797	153.38
1993.971	161.38
1998.14	174.38
2002.306	168.38
2006.469	177.38
2010.627	156.38
2014.781	164.38
2018.932	158.38
2023.078	179.38
2027.221	169.38
2031.36	154.38
2035.495	155.38
2039.627	160.38
2043.754	159.38
2047.878	151.38
2051.998	151.38
2056.114	152.38
2060.226	160.38
2064.334	158.38
2068.439	161.38
2072.54	165.38
2076.637	144.38
2080.73	154.38
2084.82	152.38
2088.906	155.38
2092.988	145.38
2097.066	154.38
2101.14	161.38
2105.211	158.38
2109.278	153.38
2113.342	149.38
2117.401	137.38
2121.457	139.38
2125.509	129.38
2129.558	143.38
2133.602	136.38
2137.643	136.38
2141.681	136.38
2145.714	140.38
2149.744	129.38
2153.77	135.38
2157.793	120.38
2161.812	101.38
2165.827	109.38
2169.838	138.38
2173.846	121.38
2177.851	107.38
2181.851	135.38
2185.848	112.38
2189.841	111.38
2193.831	118.38
2197.817	118.38
2201.799	114.38
2205.778	101.38
2209.753	100.38
2213.725	99.38
2217.693	110.38
2221.657	100.38
2225.618	110.38
2229.575	110.38
2233.529	113.38
2237.479	111.38
2241.425	102.38
2245.368	98.38
2249.307	103.38
2253.243	97.38
2257.175	102.38
2261.104	94.38
2265.029	95.38
2268.95	96.38
2272.868	92.38
2276.783	79.38
2280.694	94.38
2284.601	88.38
2288.505	89.38
2292.405	99.38
2296.302	76.38
2300.195	86.38
2304.085	52.38
2307.971	77.38
2311.854	58.38
2315.734	75.38
2319.609	76.38
2323.482	55.38
2327.351	71.38
2331.216	72.38
2335.078	75.38
2338.937	68.38
2342.792	60.38
2346.643	64.38
2350.492	69.38
2354.336	67.38
2358.178	73.38
2362.015	70.38
2365.85	64.38
2369.681	69.38
2373.508	75.38
2377.333	77.38
2381.153	66.38
2384.971	65.38
2388.785	69.38
2392.595	57.38
2396.402	63.38
2400.206	40.38
2404.007	52.38
2407.804	58.38
2411.597	65.38
2415.388	58.38
2419.174	51.38
2422.958	61.38
2426.738	61.38
2430.515	60.38
2434.289	51.38
2438.059	50.38
2441.825	49.38
2445.589	61.38
2449.349	40.38
2453.106	52.38
2456.859	50.38
2460.61	60.38
2464.356	38.38
2468.1	38.38
2471.84	42.38
2475.577	47.38
2479.311	42.38
2483.041	48.38
2486.768	62.38
2490.492	63.38
2494.213	48.38
2497.93	37.38
2501.644	39.38
2505.355	42.38
2509.062	42.38
2512.766	47.38
2516.467	41.38
2520.165	37.38
2523.859	31.38
2527.551	63.38
2531.239	34.38
2534.923	47.38
2538.605	37.38
2542.283	41.38
2545.958	37.38
2549.63	43.38
2553.299	50.38
2556.964	30.38
2560.626	40.38
2564.285	45.38
2567.941	70.38
2571.594	28.38
2575.243	38.38
2578.89	32.38
2582.533	29.38
2586.173	35.38
2589.809	36.38
2593.443	9.38
2597.073	32.38
2600.701	32.38
2604.325	30.38
2607.946	22.38
2611.564	38.38
2615.178	36.38
2618.79	34.38
2622.398	23.38
2626.004	33.38
2629.606	25.38
2633.205	19.38
2636.801	36.38
2640.394	32.38
2643.983	22.38
2647.57	23.38
2651.153	19.38
2654.734	32.38
2658.311	4.38
2661.885	19.38
2665.456	18.38
2669.025	24.38
2672.589	16.38
2676.151	30.38
2679.71	32.38
2683.266	20.38
2686.819	15.38
2690.368	23.38
2693.915	24.38
2697.458	25.38
2700.999	21.38
2704.536	28.38
2708.071	19.38
2711.602	22.38
2715.13	17.38
2718.656	1.38
2722.178	15.38
2725.697	-0.62
2729.214	11.38
2732.727	17.38
2736.237	9.38
2739.744	8.38
2743.249	9.38
2746.75	16.38
2750.248	8.38
2753.743	18.38
2757.236	12.38
2760.725	18.38
2764.211	-13.62
2767.695	17.38
2771.175	13.38
2774.652	16.38
2778.127	10.38
2781.598	15.38
2785.067	13.38
2788.532	2.38
2791.995	13.38
2795.455	8.38
2798.911	20.38
2802.365	4.38
2805.816	13.38
2809.264	23.38
2812.709	9.38
2816.151	19.38
2819.59	0.38
2823.026	4.38
2826.46	8.38
2829.89	17.38
2833.318	-8.62
2836.742	2.38
2840.164	10.38
2843.583	11.38
2846.999	7.38
2850.412	10.38
2853.822	9.38
2857.229	21.38
2860.634	16.38
2864.035	3.38
2867.434	16.38
2870.83	16.38
2874.223	11.38
2877.613	13.38
2881	-0.62
2884.385	8.38
2887.766	12.38
2891.145	11.38
2894.521	12.38
2897.894	0.38
2901.264	16.38
2904.631	14.38
2907.996	21.38
2911.358	17.38
2914.717	14.38
2918.073	10.38
2921.426	7.38
2924.777	-3.62
2928.124	13.38
2931.469	21.38
2934.811	4.38
2938.15	24.38
2941.487	11.38
2944.821	40.38
2948.152	17.38
2951.48	22.38
2954.805	9.38
2958.128	37.38
2961.447	14.38
2964.765	34.38
2968.079	21.38
2971.39	24.38
2974.699	28.38
2978.005	34.38
2981.308	24.38
2984.609	16.38
2987.907	31.38
2991.202	36.38
2994.494	13.38
2997.784	28.38
3001.07	27.38
3004.355	22.38
3007.636	28.38
3010.915	31.38
3014.191	26.38
3017.464	30.38
3020.734	24.38
3024.002	34.38
3027.267	31.38
3030.53	28.38
3033.789	26.38
3037.046	28.38
3040.301	26.38
3043.552	38.38
3046.801	32.38
3050.048	41.38
3053.291	54.38
3056.532	39.38
3059.771	28.38
3063.006	53.38
3066.239	43.38
3069.469	48.38
3072.697	34.38
3075.922	42.38
3079.144	46.38
3082.364	62.38
3085.581	50.38
3088.795	74.38
3092.007	62.38
3095.216	74.38
3098.423	63.38
3101.627	40.38
3104.828	68.38
3108.026	56.38
3111.222	79.38
3114.416	83.38
3117.607	70.38
3120.795	80.38
3123.98	74.38
3127.163	69.38
3130.344	70.38
3133.521	73.38
3136.696	88.38
3139.869	84.38
3143.039	73.38
3146.206	100.38
3149.371	97.38
3152.533	94.38
3155.693	84.38
3158.85	93.38
3162.005	99.38
3165.157	88.38
3168.306	93.38
3171.453	99.38
3174.597	87.38
3177.739	83.38
3180.878	97.38
3184.014	101.38
3187.149	97.38
3190.28	101.38
3193.409	106.38
3196.536	104.38
3199.659	109.38
3202.781	109.38
3205.9	92.38
3209.016	102.38
3212.13	104.38
3215.241	92.38
3218.35	98.38
3221.456	92.38
3224.56	83.38
3227.661	96.38
3230.76	91.38
3233.856	90.38
3236.95	98.38
3240.041	82.38
3243.13	93.38
3246.216	95.38
3249.3	92.38
3252.382	90.38
3255.46	84.38
3258.537	36.38
3261.611	81.38
3264.682	89.38
3267.751	83.38
3270.818	70.38
3273.882	84.38
3276.943	81.38
3280.002	97.38
3283.059	78.38
3286.113	87.38
3289.165	71.38
3292.214	69.38
3295.261	88.38
3298.306	61.38
3301.348	73.38
3304.387	57.38
3307.425	76.38
3310.459	68.38
3313.492	81.38
3316.521	75.38
3319.549	79.38
3322.574	77.38
3325.597	71.38
3328.617	64.38
3331.635	68.38
3334.65	56.38
3337.663	70.38
3340.674	61.38
3343.682	67.38
3346.688	72.38
3349.691	62.38
3352.692	60.38
3355.691	70.38
3358.687	65.38
3361.681	72.38
3364.673	59.38
3367.662	70.38
3370.649	66.38
3373.633	51.38
3376.615	67.38
3379.595	41.38
3382.572	50.38
3385.547	45.38
3388.52	43.38
3391.49	50.38
3394.458	52.38
3397.424	51.38
3400.387	37.38
3403.348	47.38
3406.307	44.38
3409.263	46.38
3412.217	49.38
3415.168	50.38
3418.118	60.38
3421.065	47.38
3424.009	50.38
3426.951	47.38
3429.891	35.38
3432.829	39.38
3435.764	46.38
3438.697	38.38
3441.628	48.38
3444.557	26.38
3447.483	30.38
3450.407	36.38
3453.328	31.38
3456.247	31.38
3459.164	30.38
3462.079	31.38
3464.991	30.38
3467.902	26.38
3470.809	26.38
3473.715	28.38
3476.618	16.38
3479.519	20.38
3482.418	5.38
3485.315	10.38
3488.209	4.38
3491.101	13.38
3493.99	-2.62
3496.878	8.38
3499.763	7.38
3502.646	6.38
3505.527	-2.62
3508.405	-1.62
3511.281	-9.62
3514.155	6.38
3517.027	-1.62
3519.897	-15.62
3522.764	-1.62
3525.629	-20.62
3528.492	-3.62
3531.352	-5.62
3534.211	-6.62
3537.067	-13.62
3539.921	-11.62
3542.773	-0.62
3545.622	-18.62
3548.469	-18.62
3551.315	-15.62
3554.157	-7.62
3556.998	-21.62
3559.837	-11.62
3562.673	-10.62
3565.507	-19.62
3568.339	-25.62
3571.169	-18.62
3573.996	-16.62
3576.822	-33.62
3579.645	-32.62
3582.466	-24.62
3585.285	-10.62
3588.101	-17.62
3590.916	-26.62
3593.728	-18.62
3596.538	-23.62
3599.346	-17.62
3602.152	-28.62
3604.956	-24.62
3607.757	-22.62
3610.556	-35.62
3613.354	-19.62
3616.149	-18.62
3618.942	-18.62
3621.732	-23.62
3624.521	-31.62
3627.307	-39.62
3630.092	-39.62
3632.874	-14.62
3635.654	-29.62
3638.432	-30.62
3641.208	-31.62
3643.982	-32.62
3646.753	-20.62
3649.523	-55.62
3652.29	-25.62
3655.055	-28.62
3657.818	-27.62
3660.579	-33.62
3663.338	-34.62
3666.095	-35.62
3668.849	-56.62
3671.602	-24.62
3674.352	-41.62
3677.101	-17.62
3679.847	-20.62
3682.591	-38.62
3685.333	-41.62
3688.073	-29.62
3690.811	-36.62
3693.547	-44.62
3696.281	-45.62
3699.013	-32.62
3701.742	-36.62
3704.47	-40.62
3707.195	-28.62
3709.919	-33.62
3712.64	-37.62
3715.359	-44.62
3718.076	-24.62
3720.792	-30.62
3723.505	-34.62
3726.216	-23.62
3728.925	-41.62
3731.632	-38.62
3734.336	-30.62
3737.039	-33.62
3739.74	-32.62
3742.439	-59.62
3745.136	-23.62
3747.83	-29.62
3750.523	-26.62
3753.213	-93.62
3755.902	-33.62
3758.589	-49.62
3761.273	-39.62
3763.956	-23.62
3766.636	-46.62
3769.315	-25.62
3771.991	-34.62
3774.665	-36.62
3777.338	-35.62
3780.008	-42.62
3782.677	-36.62
3785.343	-50.62
3788.007	-48.62
3790.67	-29.62
3793.33	-48.62
3795.989	-32.62
3798.645	-34.62
3801.299	-47.62
3803.952	-44.62
3806.602	-37.62
3809.251	-31.62
3811.897	-30.62
3814.542	-44.62
3817.184	-42.62
3819.825	-36.62
3822.463	-51.62
3825.1	-40.62
3827.735	-34.62
3830.367	-44.62
3832.998	-22.62
3835.627	-41.62
3838.253	-22.62
3840.878	-35.62
3843.501	-18.62
3846.122	-29.62
3848.741	-25.62
3851.358	-25.62
3853.973	-44.62
3856.586	-22.62
3859.197	-38.62
3861.806	-39.62
3864.414	-46.62
3867.019	-37.62
3869.622	-27.62
3872.224	-27.62
3874.823	-22.62
3877.421	-3.62
3880.016	2.38
3882.61	33.38
3885.202	43.38
3887.792	29.38
3890.38	7.38
3892.966	-26.62
3895.55	-38.62
3898.132	-31.62
3900.713	-28.62
3903.291	-32.62
3905.868	-40.62
3908.442	-35.62
3911.015	-34.62
3913.586	-44.62
3916.155	-39.62
3918.722	-42.62
3921.287	-40.62
3923.85	-50.62
3926.411	-40.62
3928.971	-41.62
3931.528	-28.62
3934.084	-36.62
3936.638	-45.62
3939.19	-28.62
3941.74	-28.62
3944.288	-31.62
3946.834	-35.62
3949.378	-29.62
3951.921	-35.62
3954.462	-38.62
3957	-32.62
3959.537	-28.62
3962.072	-34.62
3964.606	-50.62
3967.137	-38.62
3969.667	-45.62
3972.194	-31.62
3974.72	-42.62
3977.244	-64.62
3979.766	-45.62
3982.286	-45.62
3984.805	-33.62
3987.321	-27.62
3989.836	-30.62
3992.349	-41.62
3994.86	-35.62
3997.369	-40.62
3999.877	-43.62
4002.382	-35.62
4004.886	-28.62
4007.388	-33.62
4009.888	-25.62
4012.386	-28.62
4014.883	-28.62
4017.377	-35.62
4019.87	-27.62
4022.361	-36.62
4024.85	-37.62
4027.338	-30.62
4029.823	-36.62
4032.307	-34.62
4034.789	-33.62
4037.269	-36.62
4039.747	-50.62
4042.224	-28.62
4044.699	-41.62
4047.172	-39.62
4049.643	-28.62
4052.112	-61.62
4054.58	-34.62
4057.046	-44.62
4059.51	-33.62
4061.972	-38.62
4064.432	-53.62
4066.891	-25.62
4069.348	-34.62
4071.803	-34.62
4074.256	-41.62
4076.708	-31.62
4079.158	-34.62
4081.606	-21.62
4084.052	-36.62
4086.497	-27.62
4088.939	-34.62
4091.38	-38.62
4093.819	-27.62
4096.257	3.38
4098.693	-6.62
4101.127	-5.62
4103.559	0.38
4105.989	48.38
4108.418	49.38
4110.845	33.38
4113.27	35.38
4115.694	43.38
4118.115	27.38
4120.535	-29.62
4122.954	-29.62
4125.37	-19.62
4127.785	-30.62
4130.198	-21.62
4132.609	-32.62
4135.019	5.38
4137.427	-1.62
4139.833	5.38
4142.237	-0.62
