Data from 2018-3-6_conc=0_n=2_RamanShift_02.txt Node
Date: Tue Mar 06 12:10:49 GMT+02:00 2018
User: LAB3
Spectrometer: QEPB0276
Trigger mode: 0
Integration Time (sec): 3.000000E1
Scans to average: 1
Electric dark correction enabled: true
Nonlinearity correction enabled: false
Boxcar width: 0
XAxis mode: Raman Shifts
Number of Pixels in Spectrum: 1044
>>>>>Begin Spectral Data<<<<<
160.701	92.88
166.742	129.88
172.777	215.88
178.805	480.88
184.826	1122.88
190.841	2277.88
196.849	3670.88
202.85	4721.88
208.845	5128.88
214.833	5163.88
220.815	5178.88
226.789	5235.88
232.758	5300.88
238.719	5382.88
244.674	5357.88
250.623	5385.88
256.565	5388.88
262.5	5353.88
268.429	5341.88
274.351	5382.88
280.267	5390.88
286.176	5437.88
292.079	5468.88
297.975	5490.88
303.865	5494.88
309.748	5535.88
315.625	5535.88
321.495	5568.88
327.359	5578.88
333.217	5603.88
339.068	5643.88
344.912	5670.88
350.751	5656.88
356.583	5628.88
362.408	5718.88
368.227	5731.88
374.04	5755.88
379.847	5763.88
385.647	5853.88
391.44	5792.88
397.228	5856.88
403.009	5870.88
408.784	5914.88
414.553	5910.88
420.315	5953.88
426.071	5948.88
431.821	5998.88
437.565	5955.88
443.302	5951.88
449.033	5902.88
454.758	5913.88
460.477	5845.88
466.189	5818.88
471.896	5786.88
477.596	5755.88
483.29	5710.88
488.978	5715.88
494.66	5672.88
500.335	5550.88
506.005	5384.88
511.668	5206.88
517.325	4989.88
522.977	4844.88
528.622	4768.88
534.261	4667.88
539.894	4611.88
545.521	4570.88
551.141	4515.88
556.756	4478.88
562.365	4446.88
567.968	4447.88
573.565	4398.88
579.155	4409.88
584.74	4356.88
590.319	4396.88
595.892	4360.88
601.459	4362.88
607.02	4331.88
612.575	4324.88
618.124	4278.88
623.667	4192.88
629.204	4166.88
634.735	4132.88
640.261	4092.88
645.781	4036.88
651.294	4050.88
656.802	4062.88
662.304	4048.88
667.8	4057.88
673.29	4008.88
678.775	4017.88
684.254	3987.88
689.726	3994.88
695.193	4004.88
700.655	3977.88
706.11	3950.88
711.56	3936.88
717.004	3924.88
722.442	3889.88
727.874	3872.88
733.301	3890.88
738.722	3854.88
744.137	3858.88
749.547	3830.88
754.951	3855.88
760.349	3847.88
765.741	3886.88
771.128	3888.88
776.509	3926.88
781.885	3969.88
787.254	3995.88
792.618	4007.88
797.977	4011.88
803.33	3964.88
808.677	3928.88
814.019	3893.88
819.355	3893.88
824.686	3851.88
830.011	3823.88
835.33	3840.88
840.644	3837.88
845.952	3811.88
851.255	3799.88
856.552	3783.88
861.844	3757.88
867.13	3747.88
872.41	3754.88
877.686	3801.88
882.955	3844.88
888.219	3789.88
893.478	3687.88
898.731	3590.88
903.979	3536.88
909.221	3472.88
914.458	3467.88
919.69	3441.88
924.916	3458.88
930.136	3467.88
935.351	3463.88
940.561	3472.88
945.766	3473.88
950.965	3458.88
956.158	3443.88
961.347	3385.88
966.529	3369.88
971.707	3334.88
976.879	3286.88
982.046	3270.88
987.208	3218.88
992.364	3233.88
997.515	3252.88
1002.66	3277.88
1007.801	3302.88
1012.936	3349.88
1018.066	3359.88
1023.19	3394.88
1028.309	3409.88
1033.423	3376.88
1038.532	3382.88
1043.636	3391.88
1048.734	3377.88
1053.827	3355.88
1058.915	3313.88
1063.998	3246.88
1069.075	3233.88
1074.147	3259.88
1079.214	3244.88
1084.276	3316.88
1089.333	3313.88
1094.385	3332.88
1099.431	3295.88
1104.472	3285.88
1109.509	3259.88
1114.54	3191.88
1119.565	3139.88
1124.586	3142.88
1129.602	3087.88
1134.613	3049.88
1139.618	3025.88
1144.619	3027.88
1149.614	3040.88
1154.604	3039.88
1159.589	3052.88
1164.57	3065.88
1169.545	3083.88
1174.515	3090.88
1179.48	3059.88
1184.44	3040.88
1189.395	3023.88
1194.345	2977.88
1199.29	2984.88
1204.23	2988.88
1209.165	2962.88
1214.095	2998.88
1219.021	3015.88
1223.941	3031.88
1228.856	3053.88
1233.766	3042.88
1238.672	3056.88
1243.572	3056.88
1248.467	3002.88
1253.358	3000.88
1258.244	2914.88
1263.124	2900.88
1268	2865.88
1272.871	2819.88
1277.737	2846.88
1282.599	2814.88
1287.455	2806.88
1292.306	2796.88
1297.153	2793.88
1301.995	2813.88
1306.832	2830.88
1311.664	2837.88
1316.491	2818.88
1321.314	2818.88
1326.132	2779.88
1330.945	2762.88
1335.753	2713.88
1340.556	2661.88
1345.354	2606.88
1350.148	2585.88
1354.937	2576.88
1359.722	2501.88
1364.501	2492.88
1369.276	2508.88
1374.046	2492.88
1378.811	2482.88
1383.572	2488.88
1388.327	2492.88
1393.079	2475.88
1397.825	2458.88
1402.567	2432.88
1407.304	2426.88
1412.036	2406.88
1416.764	2430.88
1421.487	2446.88
1426.205	2426.88
1430.919	2430.88
1435.628	2452.88
1440.333	2473.88
1445.032	2502.88
1449.727	2531.88
1454.418	2564.88
1459.104	2555.88
1463.785	2512.88
1468.462	2476.88
1473.134	2412.88
1477.802	2353.88
1482.465	2302.88
1487.123	2311.88
1491.777	2303.88
1496.426	2252.88
1501.071	2282.88
1505.711	2269.88
1510.347	2263.88
1514.978	2297.88
1519.604	2263.88
1524.226	2268.88
1528.844	2256.88
1533.457	2260.88
1538.065	2209.88
1542.669	2211.88
1547.269	2192.88
1551.864	2182.88
1556.454	2174.88
1561.041	2173.88
1565.622	2136.88
1570.199	2177.88
1574.772	2195.88
1579.34	2223.88
1583.904	2235.88
1588.464	2219.88
1593.019	2237.88
1597.569	2212.88
1602.115	2205.88
1606.657	2188.88
1611.195	2169.88
1615.728	2162.88
1620.256	2122.88
1624.78	2108.88
1629.3	2141.88
1633.816	2128.88
1638.327	2149.88
1642.834	2145.88
1647.336	2153.88
1651.834	2170.88
1656.328	2180.88
1660.817	2158.88
1665.302	2147.88
1669.783	2132.88
1674.259	2104.88
1678.732	2069.88
1683.199	2010.88
1687.663	1968.88
1692.122	1944.88
1696.577	1883.88
1701.028	1856.88
1705.474	1830.88
1709.917	1807.88
1714.355	1800.88
1718.788	1788.88
1723.218	1757.88
1727.643	1752.88
1732.064	1753.88
1736.481	1720.88
1740.893	1694.88
1745.301	1681.88
1749.705	1623.88
1754.105	1612.88
1758.501	1571.88
1762.893	1564.88
1767.28	1526.88
1771.663	1509.88
1776.042	1489.88
1780.417	1487.88
1784.787	1490.88
1789.154	1498.88
1793.516	1498.88
1797.874	1483.88
1802.228	1473.88
1806.578	1454.88
1810.924	1463.88
1815.266	1386.88
1819.603	1449.88
1823.937	1416.88
1828.266	1427.88
1832.591	1407.88
1836.913	1403.88
1841.23	1390.88
1845.543	1405.88
1849.852	1402.88
1854.156	1385.88
1858.457	1394.88
1862.754	1393.88
1867.047	1386.88
1871.335	1413.88
1875.62	1400.88
1879.9	1405.88
1884.177	1393.88
1888.449	1399.88
1892.718	1366.88
1896.982	1375.88
1901.243	1339.88
1905.499	1343.88
1909.752	1320.88
1914	1298.88
1918.245	1352.88
1922.485	1314.88
1926.722	1332.88
1930.954	1327.88
1935.183	1316.88
1939.408	1335.88
1943.628	1337.88
1947.845	1313.88
1952.058	1291.88
1956.267	1264.88
1960.472	1264.88
1964.673	1235.88
1968.87	1215.88
1973.063	1203.88
1977.252	1188.88
1981.438	1173.88
1985.619	1145.88
1989.797	1140.88
1993.971	1151.88
1998.14	1154.88
2002.306	1144.88
2006.469	1155.88
2010.627	1146.88
2014.781	1128.88
2018.932	1121.88
2023.078	1133.88
2027.221	1118.88
2031.36	1092.88
2035.495	1078.88
2039.627	1072.88
2043.754	1071.88
2047.878	1052.88
2051.998	1050.88
2056.114	1041.88
2060.226	1052.88
2064.334	1059.88
2068.439	1061.88
2072.54	1064.88
2076.637	1050.88
2080.73	1068.88
2084.82	1045.88
2088.906	1051.88
2092.988	1053.88
2097.066	1032.88
2101.14	1048.88
2105.211	1033.88
2109.278	998.88
2113.342	1007.88
2117.401	974.88
2121.457	964.88
2125.509	958.88
2129.558	974.88
2133.602	945.88
2137.643	943.88
2141.681	939.88
2145.714	939.88
2149.744	940.88
2153.77	935.88
2157.793	912.88
2161.812	888.88
2165.827	875.88
2169.838	891.88
2173.846	875.88
2177.851	863.88
2181.851	855.88
2185.848	838.88
2189.841	827.88
2193.831	834.88
2197.817	819.88
2201.799	818.88
2205.778	813.88
2209.753	815.88
2213.725	800.88
2217.693	806.88
2221.657	800.88
2225.618	807.88
2229.575	795.88
2233.529	803.88
2237.479	796.88
2241.425	767.88
2245.368	759.88
2249.307	757.88
2253.243	752.88
2257.175	740.88
2261.104	725.88
2265.029	727.88
2268.95	707.88
2272.868	714.88
2276.783	695.88
2280.694	708.88
2284.601	689.88
2288.505	683.88
2292.405	668.88
2296.302	651.88
2300.195	660.88
2304.085	621.88
2307.971	641.88
2311.854	624.88
2315.734	625.88
2319.609	616.88
2323.482	596.88
2327.351	599.88
2331.216	613.88
2335.078	617.88
2338.937	606.88
2342.792	601.88
2346.643	604.88
2350.492	612.88
2354.336	595.88
2358.178	606.88
2362.015	595.88
2365.85	598.88
2369.681	609.88
2373.508	607.88
2377.333	612.88
2381.153	613.88
2384.971	601.88
2388.785	608.88
2392.595	594.88
2396.402	591.88
2400.206	547.88
2404.007	574.88
2407.804	577.88
2411.597	579.88
2415.388	575.88
2419.174	573.88
2422.958	565.88
2426.738	557.88
2430.515	571.88
2434.289	565.88
2438.059	552.88
2441.825	563.88
2445.589	561.88
2449.349	536.88
2453.106	549.88
2456.859	536.88
2460.61	529.88
2464.356	510.88
2468.1	513.88
2471.84	509.88
2475.577	513.88
2479.311	517.88
2483.041	504.88
2486.768	518.88
2490.492	510.88
2494.213	503.88
2497.93	493.88
2501.644	484.88
2505.355	496.88
2509.062	493.88
2512.766	489.88
2516.467	479.88
2520.165	475.88
2523.859	463.88
2527.551	495.88
2531.239	463.88
2534.923	471.88
2538.605	458.88
2542.283	474.88
2545.958	466.88
2549.63	479.88
2553.299	472.88
2556.964	438.88
2560.626	449.88
2564.285	449.88
2567.941	434.88
2571.594	437.88
2575.243	452.88
2578.89	436.88
2582.533	433.88
2586.173	427.88
2589.809	429.88
2593.443	386.88
2597.073	410.88
2600.701	422.88
2604.325	414.88
2607.946	397.88
2611.564	417.88
2615.178	407.88
2618.79	401.88
2622.398	387.88
2626.004	399.88
2629.606	394.88
2633.205	381.88
2636.801	390.88
2640.394	378.88
2643.983	366.88
2647.57	363.88
2651.153	352.88
2654.734	368.88
2658.311	342.88
2661.885	346.88
2665.456	349.88
2669.025	362.88
2672.589	341.88
2676.151	363.88
2679.71	353.88
2683.266	348.88
2686.819	333.88
2690.368	330.88
2693.915	346.88
2697.458	329.88
2700.999	322.88
2704.536	324.88
2708.071	322.88
2711.602	323.88
2715.13	310.88
2718.656	295.88
2722.178	313.88
2725.697	292.88
2729.214	300.88
2732.727	304.88
2736.237	284.88
2739.744	293.88
2743.249	290.88
2746.75	292.88
2750.248	279.88
2753.743	284.88
2757.236	287.88
2760.725	290.88
2764.211	255.88
2767.695	282.88
2771.175	274.88
2774.652	273.88
2778.127	273.88
2781.598	265.88
2785.067	278.88
2788.532	262.88
2791.995	274.88
2795.455	260.88
2798.911	279.88
2802.365	267.88
2805.816	270.88
2809.264	273.88
2812.709	267.88
2816.151	272.88
2819.59	254.88
2823.026	263.88
2826.46	265.88
2829.89	277.88
2833.318	252.88
2836.742	262.88
2840.164	266.88
2843.583	266.88
2846.999	271.88
2850.412	282.88
2853.822	273.88
2857.229	285.88
2860.634	283.88
2864.035	267.88
2867.434	296.88
2870.83	292.88
2874.223	290.88
2877.613	296.88
2881	297.88
2884.385	307.88
2887.766	304.88
2891.145	312.88
2894.521	298.88
2897.894	295.88
2901.264	305.88
2904.631	307.88
2907.996	297.88
2911.358	311.88
2914.717	296.88
2918.073	294.88
2921.426	296.88
2924.777	290.88
2928.124	313.88
2931.469	324.88
2934.811	315.88
2938.15	349.88
2941.487	342.88
2944.821	345.88
2948.152	329.88
2951.48	325.88
2954.805	307.88
2958.128	307.88
2961.447	295.88
2964.765	309.88
2968.079	287.88
2971.39	295.88
2974.699	295.88
2978.005	302.88
2981.308	302.88
2984.609	288.88
2987.907	298.88
2991.202	307.88
2994.494	279.88
2997.784	298.88
3001.07	293.88
3004.355	282.88
3007.636	286.88
3010.915	288.88
3014.191	274.88
3017.464	283.88
3020.734	272.88
3024.002	271.88
3027.267	280.88
3030.53	280.88
3033.789	273.88
3037.046	281.88
3040.301	267.88
3043.552	271.88
3046.801	282.88
3050.048	295.88
3053.291	310.88
3056.532	306.88
3059.771	286.88
3063.006	314.88
3066.239	309.88
3069.469	328.88
3072.697	316.88
3075.922	326.88
3079.144	327.88
3082.364	352.88
3085.581	333.88
3088.795	363.88
3092.007	356.88
3095.216	371.88
3098.423	363.88
3101.627	354.88
3104.828	382.88
3108.026	367.88
3111.222	394.88
3114.416	407.88
3117.607	396.88
3120.795	412.88
3123.98	414.88
3127.163	411.88
3130.344	422.88
3133.521	437.88
3136.696	445.88
3139.869	445.88
3143.039	443.88
3146.206	466.88
3149.371	487.88
3152.533	475.88
3155.693	459.88
3158.85	476.88
3162.005	473.88
3165.157	476.88
3168.306	463.88
3171.453	490.88
3174.597	456.88
3177.739	464.88
3180.878	476.88
3184.014	477.88
3187.149	480.88
3190.28	477.88
3193.409	476.88
3196.536	478.88
3199.659	500.88
3202.781	484.88
3205.9	475.88
3209.016	486.88
3212.13	473.88
3215.241	475.88
3218.35	480.88
3221.456	462.88
3224.56	462.88
3227.661	463.88
3230.76	464.88
3233.856	451.88
3236.95	461.88
3240.041	446.88
3243.13	456.88
3246.216	452.88
3249.3	449.88
3252.382	440.88
3255.46	442.88
3258.537	383.88
3261.611	428.88
3264.682	435.88
3267.751	438.88
3270.818	419.88
3273.882	428.88
3276.943	418.88
3280.002	441.88
3283.059	412.88
3286.113	416.88
3289.165	395.88
3292.214	399.88
3295.261	407.88
3298.306	371.88
3301.348	388.88
3304.387	372.88
3307.425	387.88
3310.459	369.88
3313.492	360.88
3316.521	355.88
3319.549	368.88
3322.574	360.88
3325.597	358.88
3328.617	348.88
3331.635	350.88
3334.65	327.88
3337.663	350.88
3340.674	334.88
3343.682	335.88
3346.688	355.88
3349.691	323.88
3352.692	333.88
3355.691	340.88
3358.687	338.88
3361.681	337.88
3364.673	320.88
3367.662	329.88
3370.649	328.88
3373.633	305.88
3376.615	306.88
3379.595	287.88
3382.572	308.88
3385.547	296.88
3388.52	283.88
3391.49	297.88
3394.458	286.88
3397.424	294.88
3400.387	267.88
3403.348	288.88
3406.307	283.88
3409.263	283.88
3412.217	280.88
3415.168	277.88
3418.118	285.88
3421.065	259.88
3424.009	278.88
3426.951	256.88
3429.891	246.88
3432.829	248.88
3435.764	250.88
3438.697	239.88
3441.628	242.88
3444.557	219.88
3447.483	219.88
3450.407	221.88
3453.328	218.88
3456.247	207.88
3459.164	200.88
3462.079	205.88
3464.991	203.88
3467.902	185.88
3470.809	180.88
3473.715	185.88
3476.618	175.88
3479.519	165.88
3482.418	150.88
3485.315	161.88
3488.209	152.88
3491.101	151.88
3493.99	130.88
3496.878	142.88
3499.763	145.88
3502.646	139.88
3505.527	125.88
3508.405	126.88
3511.281	109.88
3514.155	114.88
3517.027	112.88
3519.897	99.88
3522.764	105.88
3525.629	77.88
3528.492	99.88
3531.352	92.88
3534.211	91.88
3537.067	82.88
3539.921	81.88
3542.773	80.88
3545.622	64.88
3548.469	63.88
3551.315	66.88
3554.157	64.88
3556.998	51.88
3559.837	55.88
3562.673	58.88
3565.507	44.88
3568.339	43.88
3571.169	50.88
3573.996	44.88
3576.822	27.88
3579.645	30.88
3582.466	30.88
3585.285	39.88
3588.101	36.88
3590.916	23.88
3593.728	33.88
3596.538	24.88
3599.346	28.88
3602.152	12.88
3604.956	21.88
3607.757	23.88
3610.556	13.88
3613.354	21.88
3616.149	19.88
3618.942	21.88
3621.732	24.88
3624.521	4.88
3627.307	3.88
3630.092	0.88
3632.874	21.88
3635.654	3.88
3638.432	-4.12
3641.208	-1.12
3643.982	1.88
3646.753	11.88
3649.523	-20.12
3652.29	0.88
3655.055	3.88
3657.818	-0.12
3660.579	-6.12
3663.338	-15.12
3666.095	-12.12
3668.849	-27.12
3671.602	-2.12
3674.352	-15.12
3677.101	-1.12
3679.847	-1.12
3682.591	-13.12
3685.333	-20.12
3688.073	-12.12
3690.811	-22.12
3693.547	-28.12
3696.281	-25.12
3699.013	-17.12
3701.742	-23.12
3704.47	-24.12
3707.195	-11.12
3709.919	-15.12
3712.64	-13.12
3715.359	-24.12
3718.076	-6.12
3720.792	-17.12
3723.505	-15.12
3726.216	-6.12
3728.925	-23.12
3731.632	-25.12
3734.336	-21.12
3737.039	-17.12
3739.74	-20.12
3742.439	-45.12
3745.136	-17.12
3747.83	-15.12
3750.523	-14.12
3753.213	-79.12
3755.902	-29.12
3758.589	-40.12
3761.273	-28.12
3763.956	-18.12
3766.636	-45.12
3769.315	-15.12
3771.991	-27.12
3774.665	-28.12
3777.338	-27.12
3780.008	-33.12
3782.677	-27.12
3785.343	-44.12
3788.007	-41.12
3790.67	-19.12
3793.33	-36.12
3795.989	-35.12
3798.645	-20.12
3801.299	-41.12
3803.952	-38.12
3806.602	-31.12
3809.251	-22.12
3811.897	-31.12
3814.542	-31.12
3817.184	-29.12
3819.825	-26.12
3822.463	-39.12
3825.1	-28.12
3827.735	-26.12
3830.367	-35.12
3832.998	-15.12
3835.627	-29.12
3838.253	-20.12
3840.878	-31.12
3843.501	-11.12
3846.122	-22.12
3848.741	-23.12
3851.358	-19.12
3853.973	-37.12
3856.586	-19.12
3859.197	-30.12
3861.806	-26.12
3864.414	-44.12
3867.019	-28.12
3869.622	-21.12
3872.224	-15.12
3874.823	-16.12
3877.421	0.88
3880.016	6.88
3882.61	33.88
3885.202	37.88
3887.792	25.88
3890.38	6.88
3892.966	-21.12
3895.55	-32.12
3898.132	-22.12
3900.713	-21.12
3903.291	-25.12
3905.868	-32.12
3908.442	-27.12
3911.015	-27.12
3913.586	-30.12
3916.155	-25.12
3918.722	-35.12
3921.287	-30.12
3923.85	-42.12
3926.411	-37.12
3928.971	-36.12
3931.528	-26.12
3934.084	-29.12
3936.638	-41.12
3939.19	-25.12
3941.74	-26.12
3944.288	-27.12
3946.834	-29.12
3949.378	-23.12
3951.921	-35.12
3954.462	-33.12
3957	-31.12
3959.537	-22.12
3962.072	-29.12
3964.606	-42.12
3967.137	-30.12
3969.667	-35.12
3972.194	-24.12
3974.72	-31.12
3977.244	-52.12
3979.766	-39.12
3982.286	-34.12
3984.805	-26.12
3987.321	-17.12
3989.836	-17.12
3992.349	-33.12
3994.86	-27.12
3997.369	-32.12
3999.877	-31.12
4002.382	-34.12
4004.886	-26.12
4007.388	-24.12
4009.888	-21.12
4012.386	-20.12
4014.883	-25.12
4017.377	-30.12
4019.87	-19.12
4022.361	-35.12
4024.85	-24.12
4027.338	-28.12
4029.823	-29.12
4032.307	-30.12
4034.789	-25.12
4037.269	-25.12
4039.747	-42.12
4042.224	-19.12
4044.699	-34.12
4047.172	-27.12
4049.643	-23.12
4052.112	-48.12
4054.58	-25.12
4057.046	-39.12
4059.51	-28.12
4061.972	-33.12
4064.432	-43.12
4066.891	-15.12
4069.348	-29.12
4071.803	-24.12
4074.256	-34.12
4076.708	-23.12
4079.158	-27.12
4081.606	-15.12
4084.052	-28.12
4086.497	-26.12
4088.939	-24.12
4091.38	-32.12
4093.819	-18.12
4096.257	-0.12
4098.693	-8.12
4101.127	-5.12
4103.559	4.88
4105.989	57.88
4108.418	59.88
4110.845	54.88
4113.27	61.88
4115.694	78.88
4118.115	68.88
4120.535	-23.12
4122.954	-19.12
4125.37	-13.12
4127.785	-22.12
4130.198	-22.12
4132.609	-25.12
4135.019	7.88
4137.427	-1.12
4139.833	3.88
4142.237	-2.12
