Data from 2018-3-6_conc=6_n=5_RamanShift_05.txt Node
Date: Tue Mar 06 15:07:48 GMT+02:00 2018
User: LAB3
Spectrometer: QEPB0276
Trigger mode: 0
Integration Time (sec): 3.000000E1
Scans to average: 1
Electric dark correction enabled: true
Nonlinearity correction enabled: false
Boxcar width: 0
XAxis mode: Raman Shifts
Number of Pixels in Spectrum: 1044
>>>>>Begin Spectral Data<<<<<
160.701	41.12
166.742	60.12
172.777	90.12
178.805	161.12
184.826	380.12
190.841	786.12
196.849	1215.12
202.85	1557.12
208.845	1642.12
214.833	1637.12
220.815	1599.12
226.789	1588.12
232.758	1604.12
238.719	1581.12
244.674	1558.12
250.623	1552.12
256.565	1520.12
262.5	1503.12
268.429	1494.12
274.351	1471.12
280.267	1463.12
286.176	1478.12
292.079	1461.12
297.975	1464.12
303.865	1462.12
309.748	1452.12
315.625	1452.12
321.495	1444.12
327.359	1448.12
333.217	1441.12
339.068	1436.12
344.912	1453.12
350.751	1468.12
356.583	1463.12
362.408	1466.12
368.227	1461.12
374.04	1482.12
379.847	1466.12
385.647	1487.12
391.44	1490.12
397.228	1499.12
403.009	1499.12
408.784	1491.12
414.553	1540.12
420.315	1520.12
426.071	1516.12
431.821	1521.12
437.565	1517.12
443.302	1506.12
449.033	1496.12
454.758	1493.12
460.477	1468.12
466.189	1471.12
471.896	1459.12
477.596	1437.12
483.29	1418.12
488.978	1422.12
494.66	1412.12
500.335	1371.12
506.005	1301.12
511.668	1230.12
517.325	1163.12
522.977	1100.12
528.622	1068.12
534.261	1039.12
539.894	1007.12
545.521	998.12
551.141	967.12
556.756	955.12
562.365	964.12
567.968	950.12
573.565	946.12
579.155	944.12
584.74	931.12
590.319	938.12
595.892	944.12
601.459	943.12
607.02	922.12
612.575	928.12
618.124	919.12
623.667	891.12
629.204	876.12
634.735	876.12
640.261	852.12
645.781	823.12
651.294	839.12
656.802	852.12
662.304	838.12
667.8	845.12
673.29	824.12
678.775	835.12
684.254	836.12
689.726	807.12
695.193	817.12
700.655	806.12
706.11	812.12
711.56	797.12
717.004	797.12
722.442	789.12
727.874	794.12
733.301	796.12
738.722	774.12
744.137	783.12
749.547	765.12
754.951	772.12
760.349	788.12
765.741	793.12
771.128	791.12
776.509	787.12
781.885	822.12
787.254	828.12
792.618	823.12
797.977	841.12
803.33	823.12
808.677	820.12
814.019	823.12
819.355	795.12
824.686	795.12
830.011	789.12
835.33	789.12
840.644	797.12
845.952	759.12
851.255	774.12
856.552	761.12
861.844	746.12
867.13	742.12
872.41	729.12
877.686	726.12
882.955	730.12
888.219	711.12
893.478	687.12
898.731	693.12
903.979	697.12
909.221	670.12
914.458	665.12
919.69	677.12
924.916	667.12
930.136	674.12
935.351	659.12
940.561	685.12
945.766	671.12
950.965	671.12
956.158	643.12
961.347	646.12
966.529	636.12
971.707	653.12
976.879	637.12
982.046	619.12
987.208	615.12
992.364	634.12
997.515	636.12
1002.66	625.12
1007.801	623.12
1012.936	630.12
1018.066	622.12
1023.19	649.12
1028.309	647.12
1033.423	656.12
1038.532	653.12
1043.636	634.12
1048.734	636.12
1053.827	630.12
1058.915	605.12
1063.998	604.12
1069.075	604.12
1074.147	622.12
1079.214	595.12
1084.276	619.12
1089.333	618.12
1094.385	622.12
1099.431	616.12
1104.472	623.12
1109.509	603.12
1114.54	599.12
1119.565	563.12
1124.586	580.12
1129.602	559.12
1134.613	552.12
1139.618	562.12
1144.619	563.12
1149.614	563.12
1154.604	559.12
1159.589	560.12
1164.57	580.12
1169.545	580.12
1174.515	576.12
1179.48	552.12
1184.44	567.12
1189.395	572.12
1194.345	554.12
1199.29	565.12
1204.23	553.12
1209.165	529.12
1214.095	561.12
1219.021	547.12
1223.941	548.12
1228.856	553.12
1233.766	569.12
1238.672	572.12
1243.572	572.12
1248.467	549.12
1253.358	546.12
1258.244	531.12
1263.124	555.12
1268	538.12
1272.871	502.12
1277.737	516.12
1282.599	510.12
1287.455	508.12
1292.306	517.12
1297.153	495.12
1301.995	505.12
1306.832	503.12
1311.664	511.12
1316.491	509.12
1321.314	497.12
1326.132	496.12
1330.945	498.12
1335.753	492.12
1340.556	483.12
1345.354	465.12
1350.148	470.12
1354.937	463.12
1359.722	447.12
1364.501	450.12
1369.276	461.12
1374.046	471.12
1378.811	454.12
1383.572	458.12
1388.327	452.12
1393.079	445.12
1397.825	440.12
1402.567	439.12
1407.304	430.12
1412.036	432.12
1416.764	429.12
1421.487	417.12
1426.205	425.12
1430.919	422.12
1435.628	431.12
1440.333	421.12
1445.032	434.12
1449.727	441.12
1454.418	452.12
1459.104	443.12
1463.785	422.12
1468.462	437.12
1473.134	420.12
1477.802	415.12
1482.465	389.12
1487.123	399.12
1491.777	389.12
1496.426	377.12
1501.071	409.12
1505.711	390.12
1510.347	403.12
1514.978	418.12
1519.604	396.12
1524.226	413.12
1528.844	400.12
1533.457	412.12
1538.065	398.12
1542.669	397.12
1547.269	408.12
1551.864	401.12
1556.454	386.12
1561.041	397.12
1565.622	384.12
1570.199	402.12
1574.772	402.12
1579.34	405.12
1583.904	411.12
1588.464	419.12
1593.019	409.12
1597.569	399.12
1602.115	396.12
1606.657	392.12
1611.195	405.12
1615.728	414.12
1620.256	383.12
1624.78	376.12
1629.3	392.12
1633.816	393.12
1638.327	386.12
1642.834	399.12
1647.336	396.12
1651.834	411.12
1656.328	410.12
1660.817	408.12
1665.302	392.12
1669.783	377.12
1674.259	377.12
1678.732	375.12
1683.199	365.12
1687.663	348.12
1692.122	364.12
1696.577	359.12
1701.028	352.12
1705.474	331.12
1709.917	321.12
1714.355	319.12
1718.788	306.12
1723.218	290.12
1727.643	290.12
1732.064	298.12
1736.481	282.12
1740.893	290.12
1745.301	284.12
1749.705	257.12
1754.105	278.12
1758.501	259.12
1762.893	274.12
1767.28	247.12
1771.663	252.12
1776.042	239.12
1780.417	239.12
1784.787	253.12
1789.154	257.12
1793.516	259.12
1797.874	254.12
1802.228	242.12
1806.578	245.12
1810.924	251.12
1815.266	139.12
1819.603	245.12
1823.937	231.12
1828.266	237.12
1832.591	238.12
1836.913	232.12
1841.23	229.12
1845.543	224.12
1849.852	236.12
1854.156	226.12
1858.457	223.12
1862.754	228.12
1867.047	224.12
1871.335	236.12
1875.62	228.12
1879.9	236.12
1884.177	232.12
1888.449	223.12
1892.718	219.12
1896.982	227.12
1901.243	209.12
1905.499	217.12
1909.752	215.12
1914	193.12
1918.245	223.12
1922.485	226.12
1926.722	212.12
1930.954	211.12
1935.183	225.12
1939.408	221.12
1943.628	221.12
1947.845	221.12
1952.058	219.12
1956.267	200.12
1960.472	211.12
1964.673	211.12
1968.87	204.12
1973.063	196.12
1977.252	200.12
1981.438	192.12
1985.619	195.12
1989.797	186.12
1993.971	183.12
1998.14	202.12
2002.306	193.12
2006.469	197.12
2010.627	176.12
2014.781	180.12
2018.932	179.12
2023.078	202.12
2027.221	189.12
2031.36	177.12
2035.495	185.12
2039.627	182.12
2043.754	186.12
2047.878	169.12
2051.998	171.12
2056.114	168.12
2060.226	164.12
2064.334	178.12
2068.439	179.12
2072.54	183.12
2076.637	170.12
2080.73	174.12
2084.82	167.12
2088.906	168.12
2092.988	167.12
2097.066	175.12
2101.14	178.12
2105.211	174.12
2109.278	162.12
2113.342	162.12
2117.401	152.12
2121.457	151.12
2125.509	141.12
2129.558	158.12
2133.602	149.12
2137.643	157.12
2141.681	153.12
2145.714	153.12
2149.744	156.12
2153.77	143.12
2157.793	139.12
2161.812	115.12
2165.827	121.12
2169.838	154.12
2173.846	133.12
2177.851	130.12
2181.851	142.12
2185.848	135.12
2189.841	136.12
2193.831	128.12
2197.817	132.12
2201.799	128.12
2205.778	123.12
2209.753	121.12
2213.725	118.12
2217.693	123.12
2221.657	119.12
2225.618	132.12
2229.575	127.12
2233.529	128.12
2237.479	124.12
2241.425	119.12
2245.368	101.12
2249.307	114.12
2253.243	110.12
2257.175	115.12
2261.104	106.12
2265.029	110.12
2268.95	105.12
2272.868	107.12
2276.783	91.12
2280.694	108.12
2284.601	106.12
2288.505	99.12
2292.405	108.12
2296.302	86.12
2300.195	94.12
2304.085	68.12
2307.971	101.12
2311.854	71.12
2315.734	89.12
2319.609	92.12
2323.482	69.12
2327.351	79.12
2331.216	77.12
2335.078	84.12
2338.937	89.12
2342.792	77.12
2346.643	70.12
2350.492	85.12
2354.336	72.12
2358.178	78.12
2362.015	83.12
2365.85	74.12
2369.681	70.12
2373.508	70.12
2377.333	79.12
2381.153	79.12
2384.971	73.12
2388.785	80.12
2392.595	65.12
2396.402	71.12
2400.206	43.12
2404.007	63.12
2407.804	75.12
2411.597	78.12
2415.388	69.12
2419.174	71.12
2422.958	67.12
2426.738	67.12
2430.515	73.12
2434.289	63.12
2438.059	58.12
2441.825	63.12
2445.589	75.12
2449.349	50.12
2453.106	62.12
2456.859	62.12
2460.61	66.12
2464.356	47.12
2468.1	46.12
2471.84	51.12
2475.577	52.12
2479.311	48.12
2483.041	50.12
2486.768	74.12
2490.492	68.12
2494.213	56.12
2497.93	45.12
2501.644	44.12
2505.355	50.12
2509.062	52.12
2512.766	54.12
2516.467	48.12
2520.165	49.12
2523.859	35.12
2527.551	76.12
2531.239	49.12
2534.923	55.12
2538.605	48.12
2542.283	52.12
2545.958	51.12
2549.63	51.12
2553.299	59.12
2556.964	38.12
2560.626	47.12
2564.285	47.12
2567.941	31.12
2571.594	33.12
2575.243	51.12
2578.89	41.12
2582.533	42.12
2586.173	39.12
2589.809	42.12
2593.443	18.12
2597.073	44.12
2600.701	38.12
2604.325	39.12
2607.946	25.12
2611.564	48.12
2615.178	42.12
2618.79	39.12
2622.398	31.12
2626.004	41.12
2629.606	37.12
2633.205	26.12
2636.801	38.12
2640.394	39.12
2643.983	32.12
2647.57	33.12
2651.153	20.12
2654.734	34.12
2658.311	11.12
2661.885	24.12
2665.456	23.12
2669.025	23.12
2672.589	23.12
2676.151	41.12
2679.71	38.12
2683.266	27.12
2686.819	19.12
2690.368	30.12
2693.915	30.12
2697.458	28.12
2700.999	32.12
2704.536	33.12
2708.071	34.12
2711.602	31.12
2715.13	21.12
2718.656	13.12
2722.178	24.12
2725.697	14.12
2729.214	19.12
2732.727	28.12
2736.237	7.12
2739.744	17.12
2743.249	21.12
2746.75	21.12
2750.248	12.12
2753.743	19.12
2757.236	20.12
2760.725	23.12
2764.211	-9.88
2767.695	24.12
2771.175	14.12
2774.652	21.12
2778.127	16.12
2781.598	19.12
2785.067	18.12
2788.532	13.12
2791.995	18.12
2795.455	11.12
2798.911	24.12
2802.365	16.12
2805.816	19.12
2809.264	28.12
2812.709	11.12
2816.151	19.12
2819.59	7.12
2823.026	11.12
2826.46	9.12
2829.89	18.12
2833.318	-6.88
2836.742	16.12
2840.164	21.12
2843.583	12.12
2846.999	7.12
2850.412	18.12
2853.822	11.12
2857.229	20.12
2860.634	23.12
2864.035	-3.88
2867.434	21.12
2870.83	23.12
2874.223	12.12
2877.613	13.12
2881	6.12
2884.385	14.12
2887.766	17.12
2891.145	12.12
2894.521	12.12
2897.894	9.12
2901.264	23.12
2904.631	14.12
2907.996	23.12
2911.358	30.12
2914.717	23.12
2918.073	17.12
2921.426	16.12
2924.777	3.12
2928.124	14.12
2931.469	33.12
2934.811	8.12
2938.15	32.12
2941.487	20.12
2944.821	38.12
2948.152	23.12
2951.48	31.12
2954.805	14.12
2958.128	34.12
2961.447	19.12
2964.765	40.12
2968.079	28.12
2971.39	32.12
2974.699	33.12
2978.005	32.12
2981.308	31.12
2984.609	25.12
2987.907	38.12
2991.202	39.12
2994.494	21.12
2997.784	34.12
3001.07	31.12
3004.355	27.12
3007.636	33.12
3010.915	37.12
3014.191	33.12
3017.464	42.12
3020.734	35.12
3024.002	34.12
3027.267	34.12
3030.53	38.12
3033.789	36.12
3037.046	35.12
3040.301	30.12
3043.552	39.12
3046.801	47.12
3050.048	52.12
3053.291	65.12
3056.532	48.12
3059.771	35.12
3063.006	64.12
3066.239	50.12
3069.469	57.12
3072.697	50.12
3075.922	51.12
3079.144	55.12
3082.364	77.12
3085.581	57.12
3088.795	78.12
3092.007	70.12
3095.216	79.12
3098.423	69.12
3101.627	49.12
3104.828	74.12
3108.026	71.12
3111.222	93.12
3114.416	93.12
3117.607	79.12
3120.795	83.12
3123.98	84.12
3127.163	75.12
3130.344	78.12
3133.521	85.12
3136.696	103.12
3139.869	103.12
3143.039	82.12
3146.206	115.12
3149.371	107.12
3152.533	103.12
3155.693	95.12
3158.85	112.12
3162.005	115.12
3165.157	105.12
3168.306	110.12
3171.453	114.12
3174.597	99.12
3177.739	102.12
3180.878	111.12
3184.014	115.12
3187.149	113.12
3190.28	113.12
3193.409	115.12
3196.536	115.12
3199.659	126.12
3202.781	119.12
3205.9	98.12
3209.016	111.12
3212.13	112.12
3215.241	103.12
3218.35	104.12
3221.456	110.12
3224.56	100.12
3227.661	106.12
3230.76	102.12
3233.856	91.12
3236.95	107.12
3240.041	95.12
3243.13	108.12
3246.216	104.12
3249.3	109.12
3252.382	102.12
3255.46	93.12
3258.537	51.12
3261.611	91.12
3264.682	96.12
3267.751	98.12
3270.818	83.12
3273.882	96.12
3276.943	95.12
3280.002	110.12
3283.059	86.12
3286.113	85.12
3289.165	81.12
3292.214	84.12
3295.261	98.12
3298.306	74.12
3301.348	84.12
3304.387	79.12
3307.425	89.12
3310.459	76.12
3313.492	87.12
3316.521	80.12
3319.549	89.12
3322.574	91.12
3325.597	83.12
3328.617	73.12
3331.635	74.12
3334.65	55.12
3337.663	80.12
3340.674	65.12
3343.682	79.12
3346.688	82.12
3349.691	68.12
3352.692	68.12
3355.691	83.12
3358.687	75.12
3361.681	77.12
3364.673	70.12
3367.662	77.12
3370.649	72.12
3373.633	65.12
3376.615	75.12
3379.595	53.12
3382.572	55.12
3385.547	62.12
3388.52	56.12
3391.49	55.12
3394.458	62.12
3397.424	64.12
3400.387	45.12
3403.348	58.12
3406.307	52.12
3409.263	53.12
3412.217	63.12
3415.168	59.12
3418.118	61.12
3421.065	55.12
3424.009	69.12
3426.951	50.12
3429.891	50.12
3432.829	53.12
3435.764	50.12
3438.697	42.12
3441.628	59.12
3444.557	39.12
3447.483	30.12
3450.407	48.12
3453.328	34.12
3456.247	39.12
3459.164	22.12
3462.079	45.12
3464.991	35.12
3467.902	29.12
3470.809	31.12
3473.715	33.12
3476.618	21.12
3479.519	27.12
3482.418	3.12
3485.315	13.12
3488.209	14.12
3491.101	13.12
3493.99	-0.88
3496.878	5.12
3499.763	14.12
3502.646	10.12
3505.527	6.12
3508.405	7.12
3511.281	-5.88
3514.155	8.12
3517.027	2.12
3519.897	-1.88
3522.764	6.12
3525.629	-17.88
3528.492	4.12
3531.352	0.12
3534.211	-1.88
3537.067	-7.88
3539.921	-5.88
3542.773	5.12
3545.622	-8.88
3548.469	-14.88
3551.315	-20.88
3554.157	-8.88
3556.998	-16.88
3559.837	-13.88
3562.673	-9.88
3565.507	-17.88
3568.339	-24.88
3571.169	-17.88
3573.996	-22.88
3576.822	-33.88
3579.645	-30.88
3582.466	-26.88
3585.285	-16.88
3588.101	-16.88
3590.916	-25.88
3593.728	-14.88
3596.538	-22.88
3599.346	-18.88
3602.152	-28.88
3604.956	-20.88
3607.757	-20.88
3610.556	-29.88
3613.354	-13.88
3616.149	-20.88
3618.942	-18.88
3621.732	-16.88
3624.521	-29.88
3627.307	-30.88
3630.092	-28.88
3632.874	-15.88
3635.654	-24.88
3638.432	-29.88
3641.208	-35.88
3643.982	-33.88
3646.753	-18.88
3649.523	-56.88
3652.29	-31.88
3655.055	-27.88
3657.818	-29.88
3660.579	-31.88
3663.338	-39.88
3666.095	-32.88
3668.849	-53.88
3671.602	-26.88
3674.352	-42.88
3677.101	-18.88
3679.847	-19.88
3682.591	-39.88
3685.333	-37.88
3688.073	-27.88
3690.811	-37.88
3693.547	-44.88
3696.281	-47.88
3699.013	-27.88
3701.742	-39.88
3704.47	-43.88
3707.195	-29.88
3709.919	-30.88
3712.64	-32.88
3715.359	-44.88
3718.076	-24.88
3720.792	-33.88
3723.505	-31.88
3726.216	-26.88
3728.925	-36.88
3731.632	-41.88
3734.336	-32.88
3737.039	-31.88
3739.74	-30.88
3742.439	-54.88
3745.136	-28.88
3747.83	-28.88
3750.523	-27.88
3753.213	-95.88
3755.902	-33.88
3758.589	-44.88
3761.273	-30.88
3763.956	-23.88
3766.636	-44.88
3769.315	-23.88
3771.991	-28.88
3774.665	-40.88
3777.338	-35.88
3780.008	-45.88
3782.677	-32.88
3785.343	-48.88
3788.007	-52.88
3790.67	-32.88
3793.33	-48.88
3795.989	-42.88
3798.645	-32.88
3801.299	-50.88
3803.952	-48.88
3806.602	-42.88
3809.251	-30.88
3811.897	-34.88
3814.542	-35.88
3817.184	-36.88
3819.825	-34.88
3822.463	-46.88
3825.1	-35.88
3827.735	-32.88
3830.367	-41.88
3832.998	-23.88
3835.627	-35.88
3838.253	-24.88
3840.878	-33.88
3843.501	-21.88
3846.122	-28.88
3848.741	-26.88
3851.358	-21.88
3853.973	-48.88
3856.586	-24.88
3859.197	-42.88
3861.806	-34.88
3864.414	-46.88
3867.019	-36.88
3869.622	-29.88
3872.224	-29.88
3874.823	-15.88
3877.421	-1.88
3880.016	0.12
3882.61	37.12
3885.202	44.12
3887.792	26.12
3890.38	4.12
3892.966	-18.88
3895.55	-35.88
3898.132	-25.88
3900.713	-20.88
3903.291	-33.88
3905.868	-37.88
3908.442	-33.88
3911.015	-34.88
3913.586	-42.88
3916.155	-34.88
3918.722	-42.88
3921.287	-35.88
3923.85	-48.88
3926.411	-41.88
3928.971	-41.88
3931.528	-30.88
3934.084	-42.88
3936.638	-45.88
3939.19	-33.88
3941.74	-37.88
3944.288	-44.88
3946.834	-37.88
3949.378	-22.88
3951.921	-41.88
3954.462	-36.88
3957	-33.88
3959.537	-22.88
3962.072	-32.88
3964.606	-44.88
3967.137	-35.88
3969.667	-38.88
3972.194	-31.88
3974.72	-42.88
3977.244	-59.88
3979.766	-36.88
3982.286	-39.88
3984.805	-30.88
3987.321	-30.88
3989.836	-34.88
3992.349	-38.88
3994.86	-32.88
3997.369	-38.88
3999.877	-38.88
4002.382	-41.88
4004.886	-34.88
4007.388	-36.88
4009.888	-26.88
4012.386	-29.88
4014.883	-30.88
4017.377	-34.88
4019.87	-26.88
4022.361	-40.88
4024.85	-35.88
4027.338	-31.88
4029.823	-43.88
4032.307	-39.88
4034.789	-31.88
4037.269	-34.88
4039.747	-48.88
4042.224	-25.88
4044.699	-41.88
4047.172	-36.88
4049.643	-30.88
4052.112	-55.88
4054.58	-28.88
4057.046	-44.88
4059.51	-34.88
4061.972	-30.88
4064.432	-51.88
4066.891	-24.88
4069.348	-39.88
4071.803	-32.88
4074.256	-34.88
4076.708	-29.88
4079.158	-35.88
4081.606	-27.88
4084.052	-37.88
4086.497	-33.88
4088.939	-33.88
4091.38	-40.88
4093.819	-26.88
4096.257	0.12
4098.693	-10.88
4101.127	-5.88
4103.559	4.12
4105.989	50.12
4108.418	57.12
4110.845	43.12
4113.27	47.12
4115.694	51.12
4118.115	35.12
4120.535	-30.88
4122.954	-26.88
4125.37	-23.88
4127.785	-30.88
4130.198	-27.88
4132.609	-29.88
4135.019	10.12
4137.427	-1.88
4139.833	7.12
4142.237	-2.88
