Data from 2018-3-6_conc=3_n=2_RamanShift_02.txt Node
Date: Tue Mar 06 13:17:49 GMT+02:00 2018
User: LAB3
Spectrometer: QEPB0276
Trigger mode: 0
Integration Time (sec): 3.000000E1
Scans to average: 1
Electric dark correction enabled: true
Nonlinearity correction enabled: false
Boxcar width: 0
XAxis mode: Raman Shifts
Number of Pixels in Spectrum: 1044
>>>>>Begin Spectral Data<<<<<
160.701	149.25
166.742	185.25
172.777	278.25
178.805	550.25
184.826	1263.25
190.841	2516.25
196.849	3982.25
202.85	5103.25
208.845	5539.25
214.833	5571.25
220.815	5480.25
226.789	5513.25
232.758	5532.25
238.719	5562.25
244.674	5542.25
250.623	5510.25
256.565	5477.25
262.5	5443.25
268.429	5379.25
274.351	5396.25
280.267	5369.25
286.176	5423.25
292.079	5393.25
297.975	5415.25
303.865	5428.25
309.748	5475.25
315.625	5474.25
321.495	5464.25
327.359	5474.25
333.217	5488.25
339.068	5518.25
344.912	5544.25
350.751	5566.25
356.583	5597.25
362.408	5619.25
368.227	5633.25
374.04	5655.25
379.847	5725.25
385.647	5736.25
391.44	5748.25
397.228	5815.25
403.009	5820.25
408.784	5821.25
414.553	5880.25
420.315	5868.25
426.071	5896.25
431.821	5887.25
437.565	5934.25
443.302	5888.25
449.033	5857.25
454.758	5820.25
460.477	5795.25
466.189	5695.25
471.896	5664.25
477.596	5591.25
483.29	5556.25
488.978	5560.25
494.66	5525.25
500.335	5388.25
506.005	5142.25
511.668	4880.25
517.325	4632.25
522.977	4425.25
528.622	4295.25
534.261	4176.25
539.894	4108.25
545.521	4037.25
551.141	3978.25
556.756	3921.25
562.365	3862.25
567.968	3852.25
573.565	3808.25
579.155	3783.25
584.74	3796.25
590.319	3783.25
595.892	3765.25
601.459	3786.25
607.02	3764.25
612.575	3718.25
618.124	3682.25
623.667	3623.25
629.204	3589.25
634.735	3545.25
640.261	3478.25
645.781	3420.25
651.294	3411.25
656.802	3417.25
662.304	3420.25
667.8	3434.25
673.29	3394.25
678.775	3389.25
684.254	3370.25
689.726	3345.25
695.193	3339.25
700.655	3336.25
706.11	3300.25
711.56	3314.25
717.004	3290.25
722.442	3224.25
727.874	3247.25
733.301	3233.25
738.722	3204.25
744.137	3209.25
749.547	3213.25
754.951	3212.25
760.349	3223.25
765.741	3238.25
771.128	3267.25
776.509	3283.25
781.885	3352.25
787.254	3388.25
792.618	3408.25
797.977	3406.25
803.33	3362.25
808.677	3350.25
814.019	3308.25
819.355	3286.25
824.686	3237.25
830.011	3214.25
835.33	3241.25
840.644	3207.25
845.952	3161.25
851.255	3143.25
856.552	3113.25
861.844	3077.25
867.13	3054.25
872.41	2981.25
877.686	3001.25
882.955	2965.25
888.219	2941.25
893.478	2892.25
898.731	2836.25
903.979	2848.25
909.221	2797.25
914.458	2765.25
919.69	2784.25
924.916	2796.25
930.136	2776.25
935.351	2811.25
940.561	2786.25
945.766	2777.25
950.965	2771.25
956.158	2744.25
961.347	2696.25
966.529	2692.25
971.707	2654.25
976.879	2620.25
982.046	2579.25
987.208	2557.25
992.364	2545.25
997.515	2592.25
1002.66	2602.25
1007.801	2620.25
1012.936	2648.25
1018.066	2626.25
1023.19	2664.25
1028.309	2682.25
1033.423	2676.25
1038.532	2692.25
1043.636	2667.25
1048.734	2652.25
1053.827	2604.25
1058.915	2608.25
1063.998	2572.25
1069.075	2571.25
1074.147	2559.25
1079.214	2579.25
1084.276	2586.25
1089.333	2580.25
1094.385	2578.25
1099.431	2575.25
1104.472	2564.25
1109.509	2546.25
1114.54	2510.25
1119.565	2474.25
1124.586	2434.25
1129.602	2414.25
1134.613	2383.25
1139.618	2359.25
1144.619	2349.25
1149.614	2369.25
1154.604	2354.25
1159.589	2365.25
1164.57	2404.25
1169.545	2411.25
1174.515	2399.25
1179.48	2393.25
1184.44	2374.25
1189.395	2372.25
1194.345	2337.25
1199.29	2341.25
1204.23	2308.25
1209.165	2337.25
1214.095	2349.25
1219.021	2331.25
1223.941	2337.25
1228.856	2361.25
1233.766	2371.25
1238.672	2374.25
1243.572	2362.25
1248.467	2340.25
1253.358	2330.25
1258.244	2243.25
1263.124	2241.25
1268	2217.25
1272.871	2164.25
1277.737	2125.25
1282.599	2138.25
1287.455	2124.25
1292.306	2149.25
1297.153	2133.25
1301.995	2152.25
1306.832	2155.25
1311.664	2144.25
1316.491	2157.25
1321.314	2174.25
1326.132	2108.25
1330.945	2109.25
1335.753	2084.25
1340.556	2019.25
1345.354	2003.25
1350.148	1968.25
1354.937	1982.25
1359.722	1942.25
1364.501	1923.25
1369.276	1934.25
1374.046	1912.25
1378.811	1909.25
1383.572	1905.25
1388.327	1905.25
1393.079	1890.25
1397.825	1868.25
1402.567	1856.25
1407.304	1841.25
1412.036	1847.25
1416.764	1823.25
1421.487	1815.25
1426.205	1825.25
1430.919	1827.25
1435.628	1819.25
1440.333	1825.25
1445.032	1891.25
1449.727	1868.25
1454.418	1887.25
1459.104	1858.25
1463.785	1840.25
1468.462	1842.25
1473.134	1811.25
1477.802	1775.25
1482.465	1737.25
1487.123	1724.25
1491.777	1706.25
1496.426	1700.25
1501.071	1742.25
1505.711	1722.25
1510.347	1747.25
1514.978	1742.25
1519.604	1747.25
1524.226	1757.25
1528.844	1718.25
1533.457	1734.25
1538.065	1706.25
1542.669	1725.25
1547.269	1673.25
1551.864	1692.25
1556.454	1650.25
1561.041	1679.25
1565.622	1661.25
1570.199	1685.25
1574.772	1686.25
1579.34	1719.25
1583.904	1720.25
1588.464	1748.25
1593.019	1752.25
1597.569	1724.25
1602.115	1723.25
1606.657	1730.25
1611.195	1725.25
1615.728	1732.25
1620.256	1712.25
1624.78	1677.25
1629.3	1701.25
1633.816	1717.25
1638.327	1704.25
1642.834	1734.25
1647.336	1737.25
1651.834	1759.25
1656.328	1747.25
1660.817	1734.25
1665.302	1706.25
1669.783	1697.25
1674.259	1669.25
1678.732	1652.25
1683.199	1603.25
1687.663	1545.25
1692.122	1532.25
1696.577	1500.25
1701.028	1481.25
1705.474	1432.25
1709.917	1420.25
1714.355	1405.25
1718.788	1390.25
1723.218	1357.25
1727.643	1331.25
1732.064	1337.25
1736.481	1297.25
1740.893	1303.25
1745.301	1248.25
1749.705	1219.25
1754.105	1209.25
1758.501	1179.25
1762.893	1173.25
1767.28	1128.25
1771.663	1140.25
1776.042	1115.25
1780.417	1116.25
1784.787	1116.25
1789.154	1131.25
1793.516	1122.25
1797.874	1125.25
1802.228	1114.25
1806.578	1117.25
1810.924	1114.25
1815.266	1021.25
1819.603	1087.25
1823.937	1049.25
1828.266	1069.25
1832.591	1039.25
1836.913	1056.25
1841.23	1016.25
1845.543	1021.25
1849.852	1037.25
1854.156	1022.25
1858.457	1034.25
1862.754	1022.25
1867.047	1034.25
1871.335	1047.25
1875.62	1045.25
1879.9	1047.25
1884.177	1023.25
1888.449	1028.25
1892.718	1006.25
1896.982	1028.25
1901.243	1005.25
1905.499	1004.25
1909.752	1003.25
1914	974.25
1918.245	985.25
1922.485	1011.25
1926.722	995.25
1930.954	1003.25
1935.183	1011.25
1939.408	1013.25
1943.628	1024.25
1947.845	992.25
1952.058	996.25
1956.267	968.25
1960.472	971.25
1964.673	927.25
1968.87	939.25
1973.063	909.25
1977.252	902.25
1981.438	885.25
1985.619	879.25
1989.797	857.25
1993.971	867.25
1998.14	882.25
2002.306	873.25
2006.469	863.25
2010.627	848.25
2014.781	869.25
2018.932	845.25
2023.078	857.25
2027.221	841.25
2031.36	823.25
2035.495	824.25
2039.627	818.25
2043.754	816.25
2047.878	793.25
2051.998	795.25
2056.114	789.25
2060.226	807.25
2064.334	811.25
2068.439	803.25
2072.54	814.25
2076.637	811.25
2080.73	813.25
2084.82	815.25
2088.906	797.25
2092.988	801.25
2097.066	806.25
2101.14	801.25
2105.211	797.25
2109.278	790.25
2113.342	769.25
2117.401	758.25
2121.457	741.25
2125.509	746.25
2129.558	748.25
2133.602	732.25
2137.643	724.25
2141.681	714.25
2145.714	714.25
2149.744	715.25
2153.77	714.25
2157.793	691.25
2161.812	668.25
2165.827	671.25
2169.838	688.25
2173.846	654.25
2177.851	647.25
2181.851	651.25
2185.848	636.25
2189.841	637.25
2193.831	616.25
2197.817	613.25
2201.799	622.25
2205.778	603.25
2209.753	592.25
2213.725	597.25
2217.693	597.25
2221.657	594.25
2225.618	597.25
2229.575	594.25
2233.529	580.25
2237.479	592.25
2241.425	572.25
2245.368	559.25
2249.307	556.25
2253.243	550.25
2257.175	542.25
2261.104	524.25
2265.029	523.25
2268.95	524.25
2272.868	512.25
2276.783	508.25
2280.694	495.25
2284.601	499.25
2288.505	485.25
2292.405	498.25
2296.302	470.25
2300.195	466.25
2304.085	443.25
2307.971	465.25
2311.854	444.25
2315.734	448.25
2319.609	443.25
2323.482	415.25
2327.351	433.25
2331.216	426.25
2335.078	421.25
2338.937	418.25
2342.792	409.25
2346.643	412.25
2350.492	420.25
2354.336	411.25
2358.178	421.25
2362.015	425.25
2365.85	416.25
2369.681	418.25
2373.508	424.25
2377.333	426.25
2381.153	414.25
2384.971	414.25
2388.785	416.25
2392.595	402.25
2396.402	396.25
2400.206	375.25
2404.007	386.25
2407.804	389.25
2411.597	404.25
2415.388	388.25
2419.174	389.25
2422.958	389.25
2426.738	377.25
2430.515	382.25
2434.289	375.25
2438.059	372.25
2441.825	369.25
2445.589	373.25
2449.349	362.25
2453.106	368.25
2456.859	367.25
2460.61	359.25
2464.356	350.25
2468.1	339.25
2471.84	344.25
2475.577	339.25
2479.311	343.25
2483.041	341.25
2486.768	352.25
2490.492	344.25
2494.213	344.25
2497.93	324.25
2501.644	327.25
2505.355	330.25
2509.062	330.25
2512.766	329.25
2516.467	321.25
2520.165	320.25
2523.859	316.25
2527.551	338.25
2531.239	314.25
2534.923	322.25
2538.605	311.25
2542.283	319.25
2545.958	315.25
2549.63	326.25
2553.299	332.25
2556.964	304.25
2560.626	306.25
2564.285	305.25
2567.941	293.25
2571.594	287.25
2575.243	306.25
2578.89	291.25
2582.533	295.25
2586.173	287.25
2589.809	291.25
2593.443	270.25
2597.073	278.25
2600.701	280.25
2604.325	282.25
2607.946	266.25
2611.564	283.25
2615.178	277.25
2618.79	274.25
2622.398	264.25
2626.004	271.25
2629.606	271.25
2633.205	255.25
2636.801	258.25
2640.394	258.25
2643.983	253.25
2647.57	258.25
2651.153	244.25
2654.734	259.25
2658.311	218.25
2661.885	238.25
2665.456	241.25
2669.025	238.25
2672.589	233.25
2676.151	246.25
2679.71	243.25
2683.266	223.25
2686.819	220.25
2690.368	232.25
2693.915	231.25
2697.458	220.25
2700.999	217.25
2704.536	218.25
2708.071	214.25
2711.602	214.25
2715.13	210.25
2718.656	194.25
2722.178	211.25
2725.697	196.25
2729.214	195.25
2732.727	209.25
2736.237	198.25
2739.744	205.25
2743.249	200.25
2746.75	201.25
2750.248	192.25
2753.743	198.25
2757.236	199.25
2760.725	209.25
2764.211	174.25
2767.695	198.25
2771.175	195.25
2774.652	200.25
2778.127	191.25
2781.598	181.25
2785.067	189.25
2788.532	191.25
2791.995	200.25
2795.455	183.25
2798.911	199.25
2802.365	188.25
2805.816	194.25
2809.264	204.25
2812.709	192.25
2816.151	188.25
2819.59	185.25
2823.026	194.25
2826.46	185.25
2829.89	198.25
2833.318	169.25
2836.742	191.25
2840.164	197.25
2843.583	194.25
2846.999	194.25
2850.412	195.25
2853.822	196.25
2857.229	215.25
2860.634	204.25
2864.035	185.25
2867.434	217.25
2870.83	221.25
2874.223	209.25
2877.613	214.25
2881	209.25
2884.385	215.25
2887.766	220.25
2891.145	219.25
2894.521	215.25
2897.894	197.25
2901.264	215.25
2904.631	222.25
2907.996	228.25
2911.358	233.25
2914.717	230.25
2918.073	220.25
2921.426	222.25
2924.777	219.25
2928.124	226.25
2931.469	247.25
2934.811	233.25
2938.15	251.25
2941.487	246.25
2944.821	261.25
2948.152	249.25
2951.48	259.25
2954.805	244.25
2958.128	257.25
2961.447	244.25
2964.765	266.25
2968.079	243.25
2971.39	262.25
2974.699	258.25
2978.005	253.25
2981.308	265.25
2984.609	253.25
2987.907	271.25
2991.202	277.25
2994.494	262.25
2997.784	279.25
3001.07	270.25
3004.355	275.25
3007.636	281.25
3010.915	286.25
3014.191	281.25
3017.464	284.25
3020.734	283.25
3024.002	292.25
3027.267	284.25
3030.53	302.25
3033.789	291.25
3037.046	302.25
3040.301	297.25
3043.552	312.25
3046.801	320.25
3050.048	327.25
3053.291	344.25
3056.532	346.25
3059.771	341.25
3063.006	356.25
3066.239	359.25
3069.469	371.25
3072.697	368.25
3075.922	390.25
3079.144	398.25
3082.364	418.25
3085.581	409.25
3088.795	435.25
3092.007	437.25
3095.216	440.25
3098.423	440.25
3101.627	433.25
3104.828	463.25
3108.026	462.25
3111.222	492.25
3114.416	500.25
3117.607	507.25
3120.795	509.25
3123.98	526.25
3127.163	521.25
3130.344	528.25
3133.521	547.25
3136.696	573.25
3139.869	578.25
3143.039	574.25
3146.206	600.25
3149.371	591.25
3152.533	599.25
3155.693	585.25
3158.85	615.25
3162.005	621.25
3165.157	617.25
3168.306	624.25
3171.453	638.25
3174.597	613.25
3177.739	602.25
3180.878	630.25
3184.014	633.25
3187.149	633.25
3190.28	633.25
3193.409	651.25
3196.536	640.25
3199.659	642.25
3202.781	638.25
3205.9	638.25
3209.016	644.25
3212.13	634.25
3215.241	645.25
3218.35	629.25
3221.456	629.25
3224.56	604.25
3227.661	624.25
3230.76	619.25
3233.856	604.25
3236.95	599.25
3240.041	593.25
3243.13	611.25
3246.216	607.25
3249.3	612.25
3252.382	583.25
3255.46	582.25
3258.537	532.25
3261.611	575.25
3264.682	588.25
3267.751	575.25
3270.818	570.25
3273.882	574.25
3276.943	572.25
3280.002	580.25
3283.059	563.25
3286.113	563.25
3289.165	555.25
3292.214	543.25
3295.261	549.25
3298.306	524.25
3301.348	531.25
3304.387	512.25
3307.425	506.25
3310.459	506.25
3313.492	513.25
3316.521	503.25
3319.549	498.25
3322.574	498.25
3325.597	486.25
3328.617	478.25
3331.635	474.25
3334.65	469.25
3337.663	482.25
3340.674	478.25
3343.682	473.25
3346.688	481.25
3349.691	452.25
3352.692	464.25
3355.691	476.25
3358.687	462.25
3361.681	451.25
3364.673	454.25
3367.662	453.25
3370.649	452.25
3373.633	432.25
3376.615	446.25
3379.595	415.25
3382.572	428.25
3385.547	415.25
3388.52	410.25
3391.49	398.25
3394.458	402.25
3397.424	404.25
3400.387	385.25
3403.348	397.25
3406.307	387.25
3409.263	387.25
3412.217	391.25
3415.168	381.25
3418.118	390.25
3421.065	374.25
3424.009	378.25
3426.951	371.25
3429.891	353.25
3432.829	356.25
3435.764	350.25
3438.697	342.25
3441.628	352.25
3444.557	324.25
3447.483	315.25
3450.407	321.25
3453.328	302.25
3456.247	298.25
3459.164	276.25
3462.079	286.25
3464.991	283.25
3467.902	267.25
3470.809	260.25
3473.715	258.25
3476.618	247.25
3479.519	239.25
3482.418	219.25
3485.315	220.25
3488.209	223.25
3491.101	216.25
3493.99	201.25
3496.878	196.25
3499.763	200.25
3502.646	196.25
3505.527	192.25
3508.405	188.25
3511.281	169.25
3514.155	174.25
3517.027	162.25
3519.897	147.25
3522.764	152.25
3525.629	131.25
3528.492	142.25
3531.352	134.25
3534.211	135.25
3537.067	122.25
3539.921	125.25
3542.773	124.25
3545.622	105.25
3548.469	94.25
3551.315	87.25
3554.157	94.25
3556.998	86.25
3559.837	85.25
3562.673	84.25
3565.507	74.25
3568.339	65.25
3571.169	70.25
3573.996	68.25
3576.822	45.25
3579.645	54.25
3582.466	53.25
3585.285	61.25
3588.101	61.25
3590.916	50.25
3593.728	48.25
3596.538	45.25
3599.346	48.25
3602.152	37.25
3604.956	35.25
3607.757	41.25
3610.556	28.25
3613.354	34.25
3616.149	35.25
3618.942	29.25
3621.732	29.25
3624.521	15.25
3627.307	9.25
3630.092	10.25
3632.874	27.25
3635.654	17.25
3638.432	4.25
3641.208	11.25
3643.982	10.25
3646.753	18.25
3649.523	-22.75
3652.29	1.25
3655.055	3.25
3657.818	4.25
3660.579	2.25
3663.338	-7.75
3666.095	-11.75
3668.849	-23.75
3671.602	1.25
3674.352	-16.75
3677.101	0.25
3679.847	-1.75
3682.591	-15.75
3685.333	-22.75
3688.073	-5.75
3690.811	-21.75
3693.547	-26.75
3696.281	-27.75
3699.013	-14.75
3701.742	-17.75
3704.47	-31.75
3707.195	-11.75
3709.919	-14.75
3712.64	-19.75
3715.359	-30.75
3718.076	-7.75
3720.792	-22.75
3723.505	-15.75
3726.216	-12.75
3728.925	-18.75
3731.632	-29.75
3734.336	-20.75
3737.039	-21.75
3739.74	-16.75
3742.439	-46.75
3745.136	-21.75
3747.83	-19.75
3750.523	-18.75
3753.213	-77.75
3755.902	-24.75
3758.589	-40.75
3761.273	-26.75
3763.956	-18.75
3766.636	-37.75
3769.315	-15.75
3771.991	-27.75
3774.665	-30.75
3777.338	-26.75
3780.008	-39.75
3782.677	-24.75
3785.343	-42.75
3788.007	-47.75
3790.67	-21.75
3793.33	-38.75
3795.989	-33.75
3798.645	-24.75
3801.299	-39.75
3803.952	-36.75
3806.602	-32.75
3809.251	-24.75
3811.897	-20.75
3814.542	-33.75
3817.184	-33.75
3819.825	-31.75
3822.463	-36.75
3825.1	-30.75
3827.735	-28.75
3830.367	-36.75
3832.998	-13.75
3835.627	-33.75
3838.253	-19.75
3840.878	-28.75
3843.501	-12.75
3846.122	-22.75
3848.741	-24.75
3851.358	-23.75
3853.973	-38.75
3856.586	-22.75
3859.197	-35.75
3861.806	-23.75
3864.414	-36.75
3867.019	-30.75
3869.622	-17.75
3872.224	-17.75
3874.823	-2.75
3877.421	28.25
3880.016	56.25
3882.61	94.25
3885.202	97.25
3887.792	72.25
3890.38	35.25
3892.966	-5.75
3895.55	-24.75
3898.132	-21.75
3900.713	-20.75
3903.291	-27.75
3905.868	-38.75
3908.442	-32.75
3911.015	-32.75
3913.586	-36.75
3916.155	-31.75
3918.722	-33.75
3921.287	-33.75
3923.85	-44.75
3926.411	-35.75
3928.971	-37.75
3931.528	-29.75
3934.084	-38.75
3936.638	-44.75
3939.19	-28.75
3941.74	-28.75
3944.288	-35.75
3946.834	-36.75
3949.378	-25.75
3951.921	-36.75
3954.462	-29.75
3957	-32.75
3959.537	-19.75
3962.072	-30.75
3964.606	-40.75
3967.137	-36.75
3969.667	-37.75
3972.194	-28.75
3974.72	-36.75
3977.244	-63.75
3979.766	-37.75
3982.286	-39.75
3984.805	-24.75
3987.321	-26.75
3989.836	-25.75
3992.349	-33.75
3994.86	-29.75
3997.369	-38.75
3999.877	-30.75
4002.382	-33.75
4004.886	-26.75
4007.388	-30.75
4009.888	-24.75
4012.386	-24.75
4014.883	-28.75
4017.377	-29.75
4019.87	-22.75
4022.361	-41.75
4024.85	-27.75
4027.338	-27.75
4029.823	-31.75
4032.307	-33.75
4034.789	-27.75
4037.269	-29.75
4039.747	-42.75
4042.224	-20.75
4044.699	-34.75
4047.172	-32.75
4049.643	-23.75
4052.112	-57.75
4054.58	-26.75
4057.046	-37.75
4059.51	-30.75
4061.972	-30.75
4064.432	-44.75
4066.891	-19.75
4069.348	-28.75
4071.803	-22.75
4074.256	-34.75
4076.708	-26.75
4079.158	-25.75
4081.606	-16.75
4084.052	-27.75
4086.497	-26.75
4088.939	-29.75
4091.38	-25.75
4093.819	-24.75
4096.257	0.25
4098.693	-2.75
4101.127	-2.75
4103.559	-3.75
4105.989	132.25
4108.418	129.25
4110.845	127.25
4113.27	133.25
4115.694	139.25
4118.115	137.25
4120.535	-24.75
4122.954	-23.75
4125.37	-18.75
4127.785	-24.75
4130.198	-25.75
4132.609	-26.75
4135.019	9.25
4137.427	0.25
4139.833	3.25
4142.237	-3.75
