Data from 2018-3-6_conc=4_n=1_RamanShift_05.txt Node
Date: Tue Mar 06 13:51:19 GMT+02:00 2018
User: LAB3
Spectrometer: QEPB0276
Trigger mode: 0
Integration Time (sec): 3.000000E1
Scans to average: 1
Electric dark correction enabled: true
Nonlinearity correction enabled: false
Boxcar width: 0
XAxis mode: Raman Shifts
Number of Pixels in Spectrum: 1044
>>>>>Begin Spectral Data<<<<<
160.701	113.12
166.742	144.12
172.777	219.12
178.805	427.12
184.826	978.12
190.841	1970.12
196.849	3077.12
202.85	3946.12
208.845	4252.12
214.833	4272.12
220.815	4246.12
226.789	4236.12
232.758	4259.12
238.719	4257.12
244.674	4260.12
250.623	4201.12
256.565	4187.12
262.5	4136.12
268.429	4103.12
274.351	4113.12
280.267	4093.12
286.176	4123.12
292.079	4122.12
297.975	4130.12
303.865	4121.12
309.748	4126.12
315.625	4120.12
321.495	4159.12
327.359	4149.12
333.217	4164.12
339.068	4181.12
344.912	4192.12
350.751	4218.12
356.583	4204.12
362.408	4263.12
368.227	4250.12
374.04	4279.12
379.847	4289.12
385.647	4339.12
391.44	4351.12
397.228	4369.12
403.009	4385.12
408.784	4418.12
414.553	4413.12
420.315	4407.12
426.071	4447.12
431.821	4437.12
437.565	4465.12
443.302	4410.12
449.033	4404.12
454.758	4399.12
460.477	4344.12
466.189	4293.12
471.896	4258.12
477.596	4238.12
483.29	4216.12
488.978	4200.12
494.66	4170.12
500.335	4038.12
506.005	3887.12
511.668	3724.12
517.325	3520.12
522.977	3383.12
528.622	3303.12
534.261	3222.12
539.894	3163.12
545.521	3115.12
551.141	3061.12
556.756	3016.12
562.365	3018.12
567.968	3004.12
573.565	2963.12
579.155	2973.12
584.74	2933.12
590.319	2922.12
595.892	2932.12
601.459	2922.12
607.02	2907.12
612.575	2894.12
618.124	2861.12
623.667	2812.12
629.204	2806.12
634.735	2736.12
640.261	2721.12
645.781	2707.12
651.294	2664.12
656.802	2659.12
662.304	2666.12
667.8	2651.12
673.29	2652.12
678.775	2652.12
684.254	2632.12
689.726	2602.12
695.193	2610.12
700.655	2584.12
706.11	2574.12
711.56	2569.12
717.004	2546.12
722.442	2527.12
727.874	2521.12
733.301	2536.12
738.722	2502.12
744.137	2506.12
749.547	2507.12
754.951	2512.12
760.349	2514.12
765.741	2540.12
771.128	2536.12
776.509	2553.12
781.885	2615.12
787.254	2623.12
792.618	2608.12
797.977	2622.12
803.33	2617.12
808.677	2574.12
814.019	2575.12
819.355	2563.12
824.686	2517.12
830.011	2507.12
835.33	2539.12
840.644	2480.12
845.952	2468.12
851.255	2459.12
856.552	2414.12
861.844	2408.12
867.13	2373.12
872.41	2340.12
877.686	2336.12
882.955	2333.12
888.219	2301.12
893.478	2259.12
898.731	2250.12
903.979	2211.12
909.221	2194.12
914.458	2184.12
919.69	2190.12
924.916	2177.12
930.136	2172.12
935.351	2163.12
940.561	2204.12
945.766	2190.12
950.965	2167.12
956.158	2154.12
961.347	2134.12
966.529	2103.12
971.707	2083.12
976.879	2072.12
982.046	2018.12
987.208	2019.12
992.364	2033.12
997.515	2026.12
1002.66	2054.12
1007.801	2068.12
1012.936	2080.12
1018.066	2066.12
1023.19	2090.12
1028.309	2110.12
1033.423	2097.12
1038.532	2079.12
1043.636	2083.12
1048.734	2080.12
1053.827	2044.12
1058.915	2010.12
1063.998	1993.12
1069.075	2024.12
1074.147	2001.12
1079.214	2004.12
1084.276	2011.12
1089.333	2022.12
1094.385	2028.12
1099.431	2013.12
1104.472	2017.12
1109.509	1995.12
1114.54	1958.12
1119.565	1919.12
1124.586	1917.12
1129.602	1894.12
1134.613	1855.12
1139.618	1856.12
1144.619	1848.12
1149.614	1861.12
1154.604	1868.12
1159.589	1869.12
1164.57	1896.12
1169.545	1894.12
1174.515	1899.12
1179.48	1877.12
1184.44	1876.12
1189.395	1861.12
1194.345	1830.12
1199.29	1834.12
1204.23	1824.12
1209.165	1811.12
1214.095	1839.12
1219.021	1815.12
1223.941	1827.12
1228.856	1845.12
1233.766	1856.12
1238.672	1865.12
1243.572	1856.12
1248.467	1871.12
1253.358	1834.12
1258.244	1765.12
1263.124	1782.12
1268	1738.12
1272.871	1705.12
1277.737	1680.12
1282.599	1680.12
1287.455	1678.12
1292.306	1676.12
1297.153	1685.12
1301.995	1691.12
1306.832	1700.12
1311.664	1698.12
1316.491	1693.12
1321.314	1703.12
1326.132	1668.12
1330.945	1651.12
1335.753	1619.12
1340.556	1583.12
1345.354	1577.12
1350.148	1541.12
1354.937	1533.12
1359.722	1528.12
1364.501	1517.12
1369.276	1503.12
1374.046	1516.12
1378.811	1498.12
1383.572	1508.12
1388.327	1503.12
1393.079	1485.12
1397.825	1465.12
1402.567	1472.12
1407.304	1460.12
1412.036	1449.12
1416.764	1433.12
1421.487	1424.12
1426.205	1429.12
1430.919	1447.12
1435.628	1437.12
1440.333	1429.12
1445.032	1470.12
1449.727	1479.12
1454.418	1482.12
1459.104	1476.12
1463.785	1443.12
1468.462	1422.12
1473.134	1421.12
1477.802	1385.12
1482.465	1334.12
1487.123	1360.12
1491.777	1346.12
1496.426	1316.12
1501.071	1354.12
1505.711	1335.12
1510.347	1359.12
1514.978	1362.12
1519.604	1369.12
1524.226	1366.12
1528.844	1333.12
1533.457	1354.12
1538.065	1353.12
1542.669	1326.12
1547.269	1315.12
1551.864	1318.12
1556.454	1299.12
1561.041	1311.12
1565.622	1309.12
1570.199	1302.12
1574.772	1325.12
1579.34	1333.12
1583.904	1358.12
1588.464	1368.12
1593.019	1361.12
1597.569	1337.12
1602.115	1350.12
1606.657	1349.12
1611.195	1349.12
1615.728	1349.12
1620.256	1328.12
1624.78	1291.12
1629.3	1321.12
1633.816	1327.12
1638.327	1346.12
1642.834	1350.12
1647.336	1349.12
1651.834	1378.12
1656.328	1362.12
1660.817	1347.12
1665.302	1345.12
1669.783	1323.12
1674.259	1297.12
1678.732	1260.12
1683.199	1251.12
1687.663	1195.12
1692.122	1191.12
1696.577	1148.12
1701.028	1151.12
1705.474	1102.12
1709.917	1095.12
1714.355	1084.12
1718.788	1074.12
1723.218	1056.12
1727.643	1027.12
1732.064	1029.12
1736.481	1017.12
1740.893	1001.12
1745.301	980.12
1749.705	934.12
1754.105	953.12
1758.501	925.12
1762.893	910.12
1767.28	889.12
1771.663	889.12
1776.042	878.12
1780.417	868.12
1784.787	877.12
1789.154	873.12
1793.516	870.12
1797.874	873.12
1802.228	876.12
1806.578	858.12
1810.924	858.12
1815.266	738.12
1819.603	856.12
1823.937	828.12
1828.266	826.12
1832.591	813.12
1836.913	801.12
1841.23	808.12
1845.543	794.12
1849.852	804.12
1854.156	793.12
1858.457	799.12
1862.754	790.12
1867.047	799.12
1871.335	811.12
1875.62	808.12
1879.9	804.12
1884.177	790.12
1888.449	795.12
1892.718	812.12
1896.982	799.12
1901.243	769.12
1905.499	776.12
1909.752	753.12
1914	740.12
1918.245	781.12
1922.485	783.12
1926.722	759.12
1930.954	767.12
1935.183	781.12
1939.408	769.12
1943.628	778.12
1947.845	768.12
1952.058	759.12
1956.267	746.12
1960.472	762.12
1964.673	732.12
1968.87	724.12
1973.063	713.12
1977.252	702.12
1981.438	700.12
1985.619	682.12
1989.797	665.12
1993.971	665.12
1998.14	678.12
2002.306	678.12
2006.469	686.12
2010.627	650.12
2014.781	661.12
2018.932	657.12
2023.078	664.12
2027.221	659.12
2031.36	635.12
2035.495	638.12
2039.627	636.12
2043.754	632.12
2047.878	630.12
2051.998	625.12
2056.114	623.12
2060.226	623.12
2064.334	629.12
2068.439	624.12
2072.54	635.12
2076.637	614.12
2080.73	627.12
2084.82	623.12
2088.906	618.12
2092.988	608.12
2097.066	607.12
2101.14	628.12
2105.211	618.12
2109.278	599.12
2113.342	588.12
2117.401	584.12
2121.457	566.12
2125.509	574.12
2129.558	569.12
2133.602	563.12
2137.643	569.12
2141.681	563.12
2145.714	555.12
2149.744	565.12
2153.77	553.12
2157.793	547.12
2161.812	507.12
2165.827	499.12
2169.838	532.12
2173.846	506.12
2177.851	498.12
2181.851	510.12
2185.848	493.12
2189.841	491.12
2193.831	476.12
2197.817	483.12
2201.799	478.12
2205.778	463.12
2209.753	467.12
2213.725	459.12
2217.693	471.12
2221.657	463.12
2225.618	457.12
2229.575	452.12
2233.529	465.12
2237.479	459.12
2241.425	446.12
2245.368	422.12
2249.307	424.12
2253.243	424.12
2257.175	422.12
2261.104	410.12
2265.029	409.12
2268.95	399.12
2272.868	402.12
2276.783	390.12
2280.694	393.12
2284.601	394.12
2288.505	380.12
2292.405	382.12
2296.302	355.12
2300.195	370.12
2304.085	329.12
2307.971	367.12
2311.854	336.12
2315.734	348.12
2319.609	348.12
2323.482	326.12
2327.351	331.12
2331.216	327.12
2335.078	329.12
2338.937	331.12
2342.792	320.12
2346.643	322.12
2350.492	317.12
2354.336	325.12
2358.178	324.12
2362.015	322.12
2365.85	317.12
2369.681	320.12
2373.508	320.12
2377.333	326.12
2381.153	324.12
2384.971	313.12
2388.785	322.12
2392.595	304.12
2396.402	304.12
2400.206	288.12
2404.007	299.12
2407.804	304.12
2411.597	307.12
2415.388	300.12
2419.174	293.12
2422.958	295.12
2426.738	292.12
2430.515	302.12
2434.289	285.12
2438.059	291.12
2441.825	290.12
2445.589	290.12
2449.349	265.12
2453.106	280.12
2456.859	275.12
2460.61	285.12
2464.356	257.12
2468.1	266.12
2471.84	262.12
2475.577	252.12
2479.311	261.12
2483.041	261.12
2486.768	276.12
2490.492	271.12
2494.213	259.12
2497.93	248.12
2501.644	246.12
2505.355	262.12
2509.062	248.12
2512.766	248.12
2516.467	243.12
2520.165	254.12
2523.859	232.12
2527.551	268.12
2531.239	231.12
2534.923	247.12
2538.605	242.12
2542.283	246.12
2545.958	235.12
2549.63	257.12
2553.299	242.12
2556.964	226.12
2560.626	233.12
2564.285	240.12
2567.941	218.12
2571.594	224.12
2575.243	237.12
2578.89	222.12
2582.533	217.12
2586.173	214.12
2589.809	220.12
2593.443	198.12
2597.073	218.12
2600.701	219.12
2604.325	216.12
2607.946	205.12
2611.564	221.12
2615.178	216.12
2618.79	216.12
2622.398	202.12
2626.004	209.12
2629.606	205.12
2633.205	187.12
2636.801	201.12
2640.394	194.12
2643.983	197.12
2647.57	185.12
2651.153	184.12
2654.734	194.12
2658.311	169.12
2661.885	179.12
2665.456	178.12
2669.025	176.12
2672.589	168.12
2676.151	188.12
2679.71	189.12
2683.266	174.12
2686.819	169.12
2690.368	169.12
2693.915	172.12
2697.458	167.12
2700.999	171.12
2704.536	167.12
2708.071	164.12
2711.602	161.12
2715.13	158.12
2718.656	144.12
2722.178	157.12
2725.697	145.12
2729.214	142.12
2732.727	153.12
2736.237	134.12
2739.744	150.12
2743.249	141.12
2746.75	150.12
2750.248	138.12
2753.743	147.12
2757.236	144.12
2760.725	151.12
2764.211	120.12
2767.695	146.12
2771.175	141.12
2774.652	151.12
2778.127	139.12
2781.598	136.12
2785.067	137.12
2788.532	132.12
2791.995	147.12
2795.455	139.12
2798.911	150.12
2802.365	137.12
2805.816	133.12
2809.264	148.12
2812.709	136.12
2816.151	143.12
2819.59	131.12
2823.026	147.12
2826.46	140.12
2829.89	146.12
2833.318	119.12
2836.742	142.12
2840.164	138.12
2843.583	142.12
2846.999	138.12
2850.412	143.12
2853.822	142.12
2857.229	157.12
2860.634	153.12
2864.035	134.12
2867.434	154.12
2870.83	160.12
2874.223	152.12
2877.613	163.12
2881	147.12
2884.385	150.12
2887.766	157.12
2891.145	156.12
2894.521	155.12
2897.894	149.12
2901.264	168.12
2904.631	158.12
2907.996	165.12
2911.358	176.12
2914.717	167.12
2918.073	155.12
2921.426	154.12
2924.777	147.12
2928.124	158.12
2931.469	178.12
2934.811	162.12
2938.15	185.12
2941.487	173.12
2944.821	202.12
2948.152	182.12
2951.48	191.12
2954.805	174.12
2958.128	196.12
2961.447	177.12
2964.765	193.12
2968.079	178.12
2971.39	185.12
2974.699	180.12
2978.005	188.12
2981.308	189.12
2984.609	181.12
2987.907	196.12
2991.202	201.12
2994.494	187.12
2997.784	200.12
3001.07	199.12
3004.355	196.12
3007.636	210.12
3010.915	203.12
3014.191	211.12
3017.464	207.12
3020.734	207.12
3024.002	216.12
3027.267	218.12
3030.53	214.12
3033.789	207.12
3037.046	218.12
3040.301	212.12
3043.552	224.12
3046.801	233.12
3050.048	242.12
3053.291	262.12
3056.532	250.12
3059.771	238.12
3063.006	254.12
3066.239	257.12
3069.469	276.12
3072.697	275.12
3075.922	279.12
3079.144	288.12
3082.364	310.12
3085.581	296.12
3088.795	317.12
3092.007	323.12
3095.216	328.12
3098.423	323.12
3101.627	307.12
3104.828	342.12
3108.026	344.12
3111.222	357.12
3114.416	365.12
3117.607	368.12
3120.795	367.12
3123.98	385.12
3127.163	377.12
3130.344	397.12
3133.521	395.12
3136.696	421.12
3139.869	422.12
3143.039	425.12
3146.206	453.12
3149.371	452.12
3152.533	444.12
3155.693	436.12
3158.85	449.12
3162.005	453.12
3165.157	448.12
3168.306	456.12
3171.453	458.12
3174.597	456.12
3177.739	449.12
3180.878	459.12
3184.014	470.12
3187.149	469.12
3190.28	463.12
3193.409	482.12
3196.536	477.12
3199.659	482.12
3202.781	483.12
3205.9	458.12
3209.016	473.12
3212.13	470.12
3215.241	464.12
3218.35	480.12
3221.456	456.12
3224.56	447.12
3227.661	444.12
3230.76	445.12
3233.856	440.12
3236.95	456.12
3240.041	427.12
3243.13	446.12
3246.216	436.12
3249.3	434.12
3252.382	436.12
3255.46	426.12
3258.537	359.12
3261.611	410.12
3264.682	418.12
3267.751	416.12
3270.818	410.12
3273.882	419.12
3276.943	416.12
3280.002	430.12
3283.059	401.12
3286.113	415.12
3289.165	403.12
3292.214	387.12
3295.261	392.12
3298.306	374.12
3301.348	396.12
3304.387	368.12
3307.425	376.12
3310.459	373.12
3313.492	368.12
3316.521	358.12
3319.549	366.12
3322.574	364.12
3325.597	356.12
3328.617	341.12
3331.635	348.12
3334.65	337.12
3337.663	344.12
3340.674	353.12
3343.682	342.12
3346.688	350.12
3349.691	338.12
3352.692	340.12
3355.691	351.12
3358.687	340.12
3361.681	342.12
3364.673	321.12
3367.662	342.12
3370.649	336.12
3373.633	318.12
3376.615	323.12
3379.595	296.12
3382.572	303.12
3385.547	288.12
3388.52	293.12
3391.49	295.12
3394.458	298.12
3397.424	294.12
3400.387	278.12
3403.348	292.12
3406.307	281.12
3409.263	269.12
3412.217	287.12
3415.168	285.12
3418.118	283.12
3421.065	266.12
3424.009	268.12
3426.951	268.12
3429.891	263.12
3432.829	252.12
3435.764	248.12
3438.697	236.12
3441.628	253.12
3444.557	219.12
3447.483	224.12
3450.407	231.12
3453.328	222.12
3456.247	211.12
3459.164	202.12
3462.079	208.12
3464.991	201.12
3467.902	191.12
3470.809	186.12
3473.715	196.12
3476.618	174.12
3479.519	176.12
3482.418	155.12
3485.315	159.12
3488.209	150.12
3491.101	155.12
3493.99	133.12
3496.878	140.12
3499.763	140.12
3502.646	143.12
3505.527	125.12
3508.405	119.12
3511.281	110.12
3514.155	117.12
3517.027	114.12
3519.897	100.12
3522.764	104.12
3525.629	85.12
3528.492	100.12
3531.352	96.12
3534.211	92.12
3537.067	82.12
3539.921	82.12
3542.773	83.12
3545.622	64.12
3548.469	60.12
3551.315	64.12
3554.157	62.12
3556.998	53.12
3559.837	53.12
3562.673	56.12
3565.507	49.12
3568.339	48.12
3571.169	44.12
3573.996	43.12
3576.822	24.12
3579.645	26.12
3582.466	31.12
3585.285	37.12
3588.101	33.12
3590.916	27.12
3593.728	34.12
3596.538	29.12
3599.346	27.12
3602.152	15.12
3604.956	18.12
3607.757	20.12
3610.556	10.12
3613.354	22.12
3616.149	19.12
3618.942	21.12
3621.732	17.12
3624.521	7.12
3627.307	-0.88
3630.092	1.12
3632.874	19.12
3635.654	3.12
3638.432	-1.88
3641.208	-5.88
3643.982	2.12
3646.753	8.12
3649.523	-22.88
3652.29	0.12
3655.055	4.12
3657.818	-2.88
3660.579	-4.88
3663.338	-16.88
3666.095	-7.88
3668.849	-33.88
3671.602	-1.88
3674.352	-23.88
3677.101	1.12
3679.847	-1.88
3682.591	-17.88
3685.333	-19.88
3688.073	-12.88
3690.811	-22.88
3693.547	-27.88
3696.281	-25.88
3699.013	-15.88
3701.742	-21.88
3704.47	-30.88
3707.195	-13.88
3709.919	-17.88
3712.64	-18.88
3715.359	-29.88
3718.076	-8.88
3720.792	-23.88
3723.505	-21.88
3726.216	-8.88
3728.925	-28.88
3731.632	-36.88
3734.336	-22.88
3737.039	-24.88
3739.74	-19.88
3742.439	-46.88
3745.136	-18.88
3747.83	-18.88
3750.523	-16.88
3753.213	-81.88
3755.902	-26.88
3758.589	-38.88
3761.273	-26.88
3763.956	-18.88
3766.636	-33.88
3769.315	-14.88
3771.991	-25.88
3774.665	-33.88
3777.338	-20.88
3780.008	-30.88
3782.677	-26.88
3785.343	-42.88
3788.007	-47.88
3790.67	-21.88
3793.33	-44.88
3795.989	-28.88
3798.645	-23.88
3801.299	-39.88
3803.952	-35.88
3806.602	-29.88
3809.251	-25.88
3811.897	-23.88
3814.542	-27.88
3817.184	-31.88
3819.825	-29.88
3822.463	-41.88
3825.1	-32.88
3827.735	-30.88
3830.367	-32.88
3832.998	-17.88
3835.627	-29.88
3838.253	-21.88
3840.878	-29.88
3843.501	-13.88
3846.122	-19.88
3848.741	-20.88
3851.358	-16.88
3853.973	-36.88
3856.586	-17.88
3859.197	-35.88
3861.806	-32.88
3864.414	-40.88
3867.019	-26.88
3869.622	-18.88
3872.224	-18.88
3874.823	-1.88
3877.421	21.12
3880.016	37.12
3882.61	78.12
3885.202	89.12
3887.792	63.12
3890.38	28.12
3892.966	-11.88
3895.55	-31.88
3898.132	-20.88
3900.713	-18.88
3903.291	-27.88
3905.868	-39.88
3908.442	-28.88
3911.015	-33.88
3913.586	-36.88
3916.155	-33.88
3918.722	-36.88
3921.287	-39.88
3923.85	-39.88
3926.411	-38.88
3928.971	-39.88
3931.528	-29.88
3934.084	-34.88
3936.638	-42.88
3939.19	-28.88
3941.74	-29.88
3944.288	-34.88
3946.834	-30.88
3949.378	-24.88
3951.921	-34.88
3954.462	-32.88
3957	-31.88
3959.537	-15.88
3962.072	-35.88
3964.606	-43.88
3967.137	-37.88
3969.667	-34.88
3972.194	-25.88
3974.72	-36.88
3977.244	-56.88
3979.766	-37.88
3982.286	-36.88
3984.805	-29.88
3987.321	-22.88
3989.836	-26.88
3992.349	-31.88
3994.86	-27.88
3997.369	-36.88
3999.877	-32.88
4002.382	-31.88
4004.886	-24.88
4007.388	-27.88
4009.888	-17.88
4012.386	-24.88
4014.883	-27.88
4017.377	-29.88
4019.87	-25.88
4022.361	-38.88
4024.85	-31.88
4027.338	-28.88
4029.823	-32.88
4032.307	-32.88
4034.789	-27.88
4037.269	-33.88
4039.747	-39.88
4042.224	-23.88
4044.699	-35.88
4047.172	-33.88
4049.643	-22.88
4052.112	-53.88
4054.58	-25.88
4057.046	-43.88
4059.51	-29.88
4061.972	-26.88
4064.432	-50.88
4066.891	-14.88
4069.348	-35.88
4071.803	-27.88
4074.256	-34.88
4076.708	-20.88
4079.158	-32.88
4081.606	-16.88
4084.052	-32.88
4086.497	-26.88
4088.939	-33.88
4091.38	-32.88
4093.819	-21.88
4096.257	0.12
4098.693	-6.88
4101.127	-3.88
4103.559	-0.88
4105.989	102.12
4108.418	107.12
4110.845	93.12
4113.27	100.12
4115.694	108.12
4118.115	101.12
4120.535	-25.88
4122.954	-21.88
4125.37	-23.88
4127.785	-26.88
4130.198	-20.88
4132.609	-24.88
4135.019	7.12
4137.427	2.12
4139.833	5.12
4142.237	-2.88
