Data from 2018-3-6_conc=6_n=6_RamanShift_05.txt Node
Date: Tue Mar 06 15:10:48 GMT+02:00 2018
User: LAB3
Spectrometer: QEPB0276
Trigger mode: 0
Integration Time (sec): 3.000000E1
Scans to average: 1
Electric dark correction enabled: true
Nonlinearity correction enabled: false
Boxcar width: 0
XAxis mode: Raman Shifts
Number of Pixels in Spectrum: 1044
>>>>>Begin Spectral Data<<<<<
160.701	42.88
166.742	55.88
172.777	86.88
178.805	171.88
184.826	391.88
190.841	793.88
196.849	1221.88
202.85	1571.88
208.845	1667.88
214.833	1651.88
220.815	1614.88
226.789	1603.88
232.758	1608.88
238.719	1594.88
244.674	1567.88
250.623	1553.88
256.565	1532.88
262.5	1491.88
268.429	1487.88
274.351	1472.88
280.267	1461.88
286.176	1481.88
292.079	1465.88
297.975	1457.88
303.865	1460.88
309.748	1455.88
315.625	1448.88
321.495	1439.88
327.359	1451.88
333.217	1432.88
339.068	1450.88
344.912	1476.88
350.751	1447.88
356.583	1461.88
362.408	1458.88
368.227	1466.88
374.04	1477.88
379.847	1475.88
385.647	1498.88
391.44	1485.88
397.228	1482.88
403.009	1496.88
408.784	1506.88
414.553	1517.88
420.315	1501.88
426.071	1490.88
431.821	1508.88
437.565	1519.88
443.302	1512.88
449.033	1491.88
454.758	1493.88
460.477	1457.88
466.189	1465.88
471.896	1449.88
477.596	1437.88
483.29	1430.88
488.978	1418.88
494.66	1405.88
500.335	1366.88
506.005	1304.88
511.668	1239.88
517.325	1158.88
522.977	1118.88
528.622	1078.88
534.261	1049.88
539.894	1029.88
545.521	1001.88
551.141	992.88
556.756	971.88
562.365	966.88
567.968	962.88
573.565	949.88
579.155	961.88
584.74	933.88
590.319	950.88
595.892	943.88
601.459	954.88
607.02	952.88
612.575	944.88
618.124	927.88
623.667	897.88
629.204	897.88
634.735	885.88
640.261	874.88
645.781	836.88
651.294	853.88
656.802	861.88
662.304	858.88
667.8	867.88
673.29	844.88
678.775	847.88
684.254	849.88
689.726	821.88
695.193	826.88
700.655	824.88
706.11	821.88
711.56	824.88
717.004	821.88
722.442	784.88
727.874	807.88
733.301	808.88
738.722	800.88
744.137	806.88
749.547	782.88
754.951	796.88
760.349	793.88
765.741	806.88
771.128	794.88
776.509	812.88
781.885	834.88
787.254	851.88
792.618	840.88
797.977	851.88
803.33	830.88
808.677	814.88
814.019	825.88
819.355	813.88
824.686	808.88
830.011	807.88
835.33	809.88
840.644	807.88
845.952	779.88
851.255	789.88
856.552	794.88
861.844	776.88
867.13	750.88
872.41	743.88
877.686	747.88
882.955	741.88
888.219	727.88
893.478	718.88
898.731	717.88
903.979	719.88
909.221	688.88
914.458	691.88
919.69	681.88
924.916	696.88
930.136	683.88
935.351	682.88
940.561	695.88
945.766	681.88
950.965	695.88
956.158	681.88
961.347	662.88
966.529	665.88
971.707	663.88
976.879	652.88
982.046	639.88
987.208	619.88
992.364	651.88
997.515	634.88
1002.66	641.88
1007.801	645.88
1012.936	641.88
1018.066	636.88
1023.19	652.88
1028.309	664.88
1033.423	662.88
1038.532	675.88
1043.636	653.88
1048.734	643.88
1053.827	636.88
1058.915	618.88
1063.998	631.88
1069.075	613.88
1074.147	638.88
1079.214	621.88
1084.276	637.88
1089.333	630.88
1094.385	636.88
1099.431	626.88
1104.472	624.88
1109.509	612.88
1114.54	604.88
1119.565	604.88
1124.586	591.88
1129.602	584.88
1134.613	574.88
1139.618	576.88
1144.619	568.88
1149.614	587.88
1154.604	573.88
1159.589	572.88
1164.57	593.88
1169.545	590.88
1174.515	589.88
1179.48	589.88
1184.44	575.88
1189.395	576.88
1194.345	580.88
1199.29	575.88
1204.23	565.88
1209.165	557.88
1214.095	573.88
1219.021	569.88
1223.941	561.88
1228.856	569.88
1233.766	586.88
1238.672	577.88
1243.572	579.88
1248.467	574.88
1253.358	560.88
1258.244	545.88
1263.124	554.88
1268	536.88
1272.871	525.88
1277.737	526.88
1282.599	526.88
1287.455	520.88
1292.306	525.88
1297.153	512.88
1301.995	532.88
1306.832	515.88
1311.664	516.88
1316.491	526.88
1321.314	526.88
1326.132	516.88
1330.945	515.88
1335.753	504.88
1340.556	499.88
1345.354	493.88
1350.148	482.88
1354.937	487.88
1359.722	469.88
1364.501	469.88
1369.276	477.88
1374.046	487.88
1378.811	472.88
1383.572	477.88
1388.327	468.88
1393.079	453.88
1397.825	444.88
1402.567	443.88
1407.304	441.88
1412.036	443.88
1416.764	442.88
1421.487	429.88
1426.205	430.88
1430.919	441.88
1435.628	439.88
1440.333	437.88
1445.032	446.88
1449.727	445.88
1454.418	455.88
1459.104	465.88
1463.785	440.88
1468.462	447.88
1473.134	436.88
1477.802	437.88
1482.465	413.88
1487.123	424.88
1491.777	401.88
1496.426	397.88
1501.071	427.88
1505.711	409.88
1510.347	431.88
1514.978	429.88
1519.604	421.88
1524.226	428.88
1528.844	415.88
1533.457	419.88
1538.065	411.88
1542.669	410.88
1547.269	409.88
1551.864	406.88
1556.454	389.88
1561.041	393.88
1565.622	407.88
1570.199	404.88
1574.772	410.88
1579.34	423.88
1583.904	414.88
1588.464	419.88
1593.019	430.88
1597.569	402.88
1602.115	414.88
1606.657	411.88
1611.195	425.88
1615.728	433.88
1620.256	405.88
1624.78	376.88
1629.3	402.88
1633.816	406.88
1638.327	404.88
1642.834	413.88
1647.336	414.88
1651.834	435.88
1656.328	417.88
1660.817	414.88
1665.302	409.88
1669.783	407.88
1674.259	396.88
1678.732	388.88
1683.199	387.88
1687.663	376.88
1692.122	372.88
1696.577	360.88
1701.028	368.88
1705.474	346.88
1709.917	337.88
1714.355	330.88
1718.788	331.88
1723.218	317.88
1727.643	303.88
1732.064	319.88
1736.481	288.88
1740.893	315.88
1745.301	296.88
1749.705	266.88
1754.105	284.88
1758.501	272.88
1762.893	285.88
1767.28	257.88
1771.663	266.88
1776.042	262.88
1780.417	264.88
1784.787	270.88
1789.154	275.88
1793.516	272.88
1797.874	275.88
1802.228	257.88
1806.578	255.88
1810.924	267.88
1815.266	151.88
1819.603	277.88
1823.937	245.88
1828.266	247.88
1832.591	255.88
1836.913	247.88
1841.23	240.88
1845.543	224.88
1849.852	255.88
1854.156	238.88
1858.457	235.88
1862.754	227.88
1867.047	228.88
1871.335	241.88
1875.62	250.88
1879.9	238.88
1884.177	232.88
1888.449	238.88
1892.718	243.88
1896.982	249.88
1901.243	225.88
1905.499	234.88
1909.752	224.88
1914	223.88
1918.245	234.88
1922.485	240.88
1926.722	233.88
1930.954	225.88
1935.183	238.88
1939.408	244.88
1943.628	239.88
1947.845	235.88
1952.058	238.88
1956.267	221.88
1960.472	231.88
1964.673	223.88
1968.87	219.88
1973.063	217.88
1977.252	211.88
1981.438	214.88
1985.619	204.88
1989.797	191.88
1993.971	198.88
1998.14	207.88
2002.306	194.88
2006.469	203.88
2010.627	189.88
2014.781	194.88
2018.932	187.88
2023.078	202.88
2027.221	199.88
2031.36	180.88
2035.495	191.88
2039.627	190.88
2043.754	192.88
2047.878	183.88
2051.998	191.88
2056.114	181.88
2060.226	184.88
2064.334	196.88
2068.439	197.88
2072.54	193.88
2076.637	176.88
2080.73	192.88
2084.82	181.88
2088.906	181.88
2092.988	174.88
2097.066	188.88
2101.14	194.88
2105.211	189.88
2109.278	180.88
2113.342	176.88
2117.401	165.88
2121.457	161.88
2125.509	160.88
2129.558	169.88
2133.602	167.88
2137.643	167.88
2141.681	162.88
2145.714	166.88
2149.744	168.88
2153.77	162.88
2157.793	147.88
2161.812	129.88
2165.827	140.88
2169.838	159.88
2173.846	144.88
2177.851	140.88
2181.851	156.88
2185.848	137.88
2189.841	141.88
2193.831	140.88
2197.817	141.88
2201.799	136.88
2205.778	126.88
2209.753	128.88
2213.725	119.88
2217.693	132.88
2221.657	126.88
2225.618	134.88
2229.575	134.88
2233.529	137.88
2237.479	134.88
2241.425	128.88
2245.368	111.88
2249.307	127.88
2253.243	114.88
2257.175	124.88
2261.104	111.88
2265.029	117.88
2268.95	116.88
2272.868	106.88
2276.783	107.88
2280.694	119.88
2284.601	111.88
2288.505	108.88
2292.405	111.88
2296.302	93.88
2300.195	103.88
2304.085	66.88
2307.971	102.88
2311.854	73.88
2315.734	96.88
2319.609	97.88
2323.482	81.88
2327.351	87.88
2331.216	85.88
2335.078	92.88
2338.937	85.88
2342.792	85.88
2346.643	82.88
2350.492	92.88
2354.336	81.88
2358.178	89.88
2362.015	88.88
2365.85	79.88
2369.681	79.88
2373.508	82.88
2377.333	91.88
2381.153	79.88
2384.971	79.88
2388.785	84.88
2392.595	64.88
2396.402	71.88
2400.206	51.88
2404.007	63.88
2407.804	71.88
2411.597	77.88
2415.388	71.88
2419.174	63.88
2422.958	74.88
2426.738	79.88
2430.515	81.88
2434.289	64.88
2438.059	69.88
2441.825	64.88
2445.589	75.88
2449.349	54.88
2453.106	69.88
2456.859	69.88
2460.61	73.88
2464.356	57.88
2468.1	51.88
2471.84	51.88
2475.577	59.88
2479.311	54.88
2483.041	55.88
2486.768	67.88
2490.492	71.88
2494.213	57.88
2497.93	48.88
2501.644	44.88
2505.355	54.88
2509.062	59.88
2512.766	52.88
2516.467	48.88
2520.165	55.88
2523.859	37.88
2527.551	78.88
2531.239	45.88
2534.923	54.88
2538.605	48.88
2542.283	60.88
2545.958	55.88
2549.63	61.88
2553.299	64.88
2556.964	44.88
2560.626	52.88
2564.285	50.88
2567.941	36.88
2571.594	39.88
2575.243	53.88
2578.89	44.88
2582.533	52.88
2586.173	47.88
2589.809	47.88
2593.443	23.88
2597.073	41.88
2600.701	42.88
2604.325	44.88
2607.946	33.88
2611.564	51.88
2615.178	41.88
2618.79	45.88
2622.398	32.88
2626.004	46.88
2629.606	45.88
2633.205	31.88
2636.801	38.88
2640.394	37.88
2643.983	36.88
2647.57	31.88
2651.153	30.88
2654.734	43.88
2658.311	15.88
2661.885	25.88
2665.456	35.88
2669.025	33.88
2672.589	30.88
2676.151	50.88
2679.71	43.88
2683.266	31.88
2686.819	22.88
2690.368	37.88
2693.915	34.88
2697.458	36.88
2700.999	36.88
2704.536	31.88
2708.071	28.88
2711.602	28.88
2715.13	25.88
2718.656	9.88
2722.178	26.88
2725.697	9.88
2729.214	19.88
2732.727	28.88
2736.237	9.88
2739.744	18.88
2743.249	15.88
2746.75	25.88
2750.248	11.88
2753.743	26.88
2757.236	24.88
2760.725	31.88
2764.211	-3.12
2767.695	29.88
2771.175	26.88
2774.652	25.88
2778.127	20.88
2781.598	18.88
2785.067	25.88
2788.532	16.88
2791.995	26.88
2795.455	14.88
2798.911	28.88
2802.365	17.88
2805.816	18.88
2809.264	30.88
2812.709	16.88
2816.151	17.88
2819.59	12.88
2823.026	17.88
2826.46	11.88
2829.89	28.88
2833.318	-4.12
2836.742	20.88
2840.164	15.88
2843.583	18.88
2846.999	21.88
2850.412	23.88
2853.822	14.88
2857.229	31.88
2860.634	21.88
2864.035	10.88
2867.434	25.88
2870.83	31.88
2874.223	18.88
2877.613	23.88
2881	5.88
2884.385	15.88
2887.766	17.88
2891.145	21.88
2894.521	22.88
2897.894	7.88
2901.264	30.88
2904.631	16.88
2907.996	25.88
2911.358	34.88
2914.717	23.88
2918.073	20.88
2921.426	18.88
2924.777	5.88
2928.124	23.88
2931.469	37.88
2934.811	12.88
2938.15	41.88
2941.487	16.88
2944.821	40.88
2948.152	24.88
2951.48	35.88
2954.805	20.88
2958.128	43.88
2961.447	28.88
2964.765	48.88
2968.079	29.88
2971.39	41.88
2974.699	35.88
2978.005	34.88
2981.308	29.88
2984.609	29.88
2987.907	38.88
2991.202	46.88
2994.494	29.88
2997.784	39.88
3001.07	38.88
3004.355	33.88
3007.636	37.88
3010.915	40.88
3014.191	33.88
3017.464	43.88
3020.734	43.88
3024.002	48.88
3027.267	40.88
3030.53	44.88
3033.789	42.88
3037.046	41.88
3040.301	36.88
3043.552	43.88
3046.801	42.88
3050.048	57.88
3053.291	66.88
3056.532	47.88
3059.771	35.88
3063.006	50.88
3066.239	52.88
3069.469	58.88
3072.697	49.88
3075.922	55.88
3079.144	60.88
3082.364	78.88
3085.581	63.88
3088.795	75.88
3092.007	80.88
3095.216	80.88
3098.423	79.88
3101.627	55.88
3104.828	78.88
3108.026	69.88
3111.222	94.88
3114.416	98.88
3117.607	83.88
3120.795	89.88
3123.98	94.88
3127.163	78.88
3130.344	92.88
3133.521	84.88
3136.696	104.88
3139.869	103.88
3143.039	87.88
3146.206	118.88
3149.371	114.88
3152.533	105.88
3155.693	101.88
3158.85	110.88
3162.005	118.88
3165.157	111.88
3168.306	111.88
3171.453	119.88
3174.597	104.88
3177.739	99.88
3180.878	111.88
3184.014	119.88
3187.149	120.88
3190.28	117.88
3193.409	126.88
3196.536	125.88
3199.659	129.88
3202.781	128.88
3205.9	105.88
3209.016	120.88
3212.13	118.88
3215.241	121.88
3218.35	118.88
3221.456	110.88
3224.56	106.88
3227.661	118.88
3230.76	104.88
3233.856	103.88
3236.95	110.88
3240.041	98.88
3243.13	111.88
3246.216	110.88
3249.3	116.88
3252.382	106.88
3255.46	97.88
3258.537	54.88
3261.611	91.88
3264.682	101.88
3267.751	103.88
3270.818	90.88
3273.882	106.88
3276.943	100.88
3280.002	111.88
3283.059	87.88
3286.113	93.88
3289.165	93.88
3292.214	89.88
3295.261	102.88
3298.306	80.88
3301.348	92.88
3304.387	83.88
3307.425	99.88
3310.459	87.88
3313.492	88.88
3316.521	86.88
3319.549	92.88
3322.574	94.88
3325.597	87.88
3328.617	76.88
3331.635	82.88
3334.65	63.88
3337.663	84.88
3340.674	77.88
3343.682	70.88
3346.688	89.88
3349.691	78.88
3352.692	75.88
3355.691	82.88
3358.687	77.88
3361.681	79.88
3364.673	73.88
3367.662	79.88
3370.649	80.88
3373.633	62.88
3376.615	78.88
3379.595	59.88
3382.572	67.88
3385.547	60.88
3388.52	56.88
3391.49	62.88
3394.458	66.88
3397.424	70.88
3400.387	48.88
3403.348	67.88
3406.307	62.88
3409.263	58.88
3412.217	72.88
3415.168	65.88
3418.118	71.88
3421.065	57.88
3424.009	71.88
3426.951	57.88
3429.891	49.88
3432.829	52.88
3435.764	52.88
3438.697	43.88
3441.628	57.88
3444.557	39.88
3447.483	38.88
3450.407	52.88
3453.328	41.88
3456.247	38.88
3459.164	31.88
3462.079	45.88
3464.991	31.88
3467.902	28.88
3470.809	30.88
3473.715	34.88
3476.618	25.88
3479.519	28.88
3482.418	2.88
3485.315	18.88
3488.209	19.88
3491.101	13.88
3493.99	8.88
3496.878	8.88
3499.763	18.88
3502.646	16.88
3505.527	10.88
3508.405	5.88
3511.281	0.88
3514.155	12.88
3517.027	7.88
3519.897	-3.12
3522.764	9.88
3525.629	-12.12
3528.492	0.88
3531.352	1.88
3534.211	-2.12
3537.067	-0.12
3539.921	-0.12
3542.773	6.88
3545.622	-13.12
3548.469	-18.12
3551.315	-14.12
3554.157	-10.12
3556.998	-16.12
3559.837	-10.12
3562.673	-10.12
3565.507	-19.12
3568.339	-19.12
3571.169	-22.12
3573.996	-13.12
3576.822	-26.12
3579.645	-23.12
3582.466	-16.12
3585.285	-16.12
3588.101	-16.12
3590.916	-23.12
3593.728	-9.12
3596.538	-20.12
3599.346	-11.12
3602.152	-24.12
3604.956	-15.12
3607.757	-16.12
3610.556	-32.12
3613.354	-14.12
3616.149	-18.12
3618.942	-17.12
3621.732	-18.12
3624.521	-26.12
3627.307	-30.12
3630.092	-27.12
3632.874	-15.12
3635.654	-24.12
3638.432	-32.12
3641.208	-34.12
3643.982	-28.12
3646.753	-17.12
3649.523	-53.12
3652.29	-28.12
3655.055	-22.12
3657.818	-26.12
3660.579	-26.12
3663.338	-39.12
3666.095	-35.12
3668.849	-54.12
3671.602	-22.12
3674.352	-35.12
3677.101	-20.12
3679.847	-17.12
3682.591	-36.12
3685.333	-37.12
3688.073	-24.12
3690.811	-35.12
3693.547	-46.12
3696.281	-38.12
3699.013	-26.12
3701.742	-33.12
3704.47	-37.12
3707.195	-30.12
3709.919	-28.12
3712.64	-33.12
3715.359	-42.12
3718.076	-23.12
3720.792	-30.12
3723.505	-28.12
3726.216	-26.12
3728.925	-30.12
3731.632	-38.12
3734.336	-30.12
3737.039	-28.12
3739.74	-30.12
3742.439	-54.12
3745.136	-24.12
3747.83	-25.12
3750.523	-29.12
3753.213	-84.12
3755.902	-36.12
3758.589	-43.12
3761.273	-30.12
3763.956	-21.12
3766.636	-47.12
3769.315	-23.12
3771.991	-32.12
3774.665	-33.12
3777.338	-28.12
3780.008	-40.12
3782.677	-37.12
3785.343	-48.12
3788.007	-49.12
3790.67	-30.12
3793.33	-42.12
3795.989	-39.12
3798.645	-31.12
3801.299	-48.12
3803.952	-41.12
3806.602	-34.12
3809.251	-30.12
3811.897	-32.12
3814.542	-35.12
3817.184	-36.12
3819.825	-29.12
3822.463	-47.12
3825.1	-35.12
3827.735	-34.12
3830.367	-44.12
3832.998	-19.12
3835.627	-35.12
3838.253	-25.12
3840.878	-31.12
3843.501	-16.12
3846.122	-29.12
3848.741	-25.12
3851.358	-17.12
3853.973	-38.12
3856.586	-25.12
3859.197	-37.12
3861.806	-34.12
3864.414	-40.12
3867.019	-34.12
3869.622	-25.12
3872.224	-31.12
3874.823	-24.12
3877.421	-4.12
3880.016	4.88
3882.61	29.88
3885.202	42.88
3887.792	23.88
3890.38	7.88
3892.966	-21.12
3895.55	-38.12
3898.132	-24.12
3900.713	-26.12
3903.291	-27.12
3905.868	-38.12
3908.442	-25.12
3911.015	-35.12
3913.586	-34.12
3916.155	-29.12
3918.722	-41.12
3921.287	-40.12
3923.85	-46.12
3926.411	-41.12
3928.971	-36.12
3931.528	-31.12
3934.084	-32.12
3936.638	-44.12
3939.19	-29.12
3941.74	-28.12
3944.288	-36.12
3946.834	-37.12
3949.378	-27.12
3951.921	-38.12
3954.462	-39.12
3957	-38.12
3959.537	-24.12
3962.072	-33.12
3964.606	-49.12
3967.137	-38.12
3969.667	-36.12
3972.194	-30.12
3974.72	-40.12
3977.244	-59.12
3979.766	-43.12
3982.286	-38.12
3984.805	-28.12
3987.321	-24.12
3989.836	-26.12
3992.349	-38.12
3994.86	-30.12
3997.369	-34.12
3999.877	-37.12
4002.382	-36.12
4004.886	-34.12
4007.388	-34.12
4009.888	-21.12
4012.386	-25.12
4014.883	-30.12
4017.377	-29.12
4019.87	-28.12
4022.361	-43.12
4024.85	-30.12
4027.338	-30.12
4029.823	-37.12
4032.307	-38.12
4034.789	-35.12
4037.269	-32.12
4039.747	-44.12
4042.224	-29.12
4044.699	-42.12
4047.172	-39.12
4049.643	-30.12
4052.112	-54.12
4054.58	-29.12
4057.046	-43.12
4059.51	-31.12
4061.972	-31.12
4064.432	-48.12
4066.891	-20.12
4069.348	-32.12
4071.803	-28.12
4074.256	-37.12
4076.708	-24.12
4079.158	-32.12
4081.606	-21.12
4084.052	-32.12
4086.497	-26.12
4088.939	-34.12
4091.38	-37.12
4093.819	-28.12
4096.257	1.88
4098.693	-6.12
4101.127	-4.12
4103.559	-1.12
4105.989	46.88
4108.418	49.88
4110.845	32.88
4113.27	46.88
4115.694	46.88
4118.115	33.88
4120.535	-30.12
4122.954	-27.12
4125.37	-24.12
4127.785	-32.12
4130.198	-25.12
4132.609	-29.12
4135.019	9.88
4137.427	-0.12
4139.833	4.88
4142.237	-5.12
