Data from 2018-3-6_conc=5_n=2_RamanShift_01.txt Node
Date: Tue Mar 06 14:25:18 GMT+02:00 2018
User: LAB3
Spectrometer: QEPB0276
Trigger mode: 0
Integration Time (sec): 3.000000E1
Scans to average: 1
Electric dark correction enabled: true
Nonlinearity correction enabled: false
Boxcar width: 0
XAxis mode: Raman Shifts
Number of Pixels in Spectrum: 1044
>>>>>Begin Spectral Data<<<<<
160.701	58.88
166.742	74.88
172.777	119.88
178.805	233.88
184.826	524.88
190.841	1070.88
196.849	1662.88
202.85	2119.88
208.845	2268.88
214.833	2240.88
220.815	2172.88
226.789	2168.88
232.758	2153.88
238.719	2138.88
244.674	2089.88
250.623	2086.88
256.565	2032.88
262.5	2004.88
268.429	1968.88
274.351	1955.88
280.267	1939.88
286.176	1960.88
292.079	1945.88
297.975	1921.88
303.865	1928.88
309.748	1932.88
315.625	1905.88
321.495	1930.88
327.359	1919.88
333.217	1908.88
339.068	1921.88
344.912	1918.88
350.751	1919.88
356.583	1930.88
362.408	1930.88
368.227	1922.88
374.04	1939.88
379.847	1932.88
385.647	1942.88
391.44	1958.88
397.228	1956.88
403.009	1972.88
408.784	1970.88
414.553	1988.88
420.315	1995.88
426.071	1986.88
431.821	2002.88
437.565	1991.88
443.302	1982.88
449.033	1969.88
454.758	1969.88
460.477	1952.88
466.189	1906.88
471.896	1913.88
477.596	1902.88
483.29	1871.88
488.978	1868.88
494.66	1846.88
500.335	1801.88
506.005	1716.88
511.668	1638.88
517.325	1558.88
522.977	1484.88
528.622	1444.88
534.261	1416.88
539.894	1377.88
545.521	1377.88
551.141	1323.88
556.756	1327.88
562.365	1312.88
567.968	1321.88
573.565	1278.88
579.155	1302.88
584.74	1279.88
590.319	1294.88
595.892	1287.88
601.459	1297.88
607.02	1271.88
612.575	1254.88
618.124	1250.88
623.667	1211.88
629.204	1215.88
634.735	1194.88
640.261	1176.88
645.781	1150.88
651.294	1171.88
656.802	1144.88
662.304	1194.88
667.8	1159.88
673.29	1156.88
678.775	1157.88
684.254	1152.88
689.726	1113.88
695.193	1123.88
700.655	1116.88
706.11	1129.88
711.56	1112.88
717.004	1103.88
722.442	1091.88
727.874	1085.88
733.301	1098.88
738.722	1066.88
744.137	1081.88
749.547	1075.88
754.951	1081.88
760.349	1076.88
765.741	1089.88
771.128	1093.88
776.509	1105.88
781.885	1115.88
787.254	1132.88
792.618	1135.88
797.977	1119.88
803.33	1128.88
808.677	1115.88
814.019	1116.88
819.355	1110.88
824.686	1081.88
830.011	1076.88
835.33	1100.88
840.644	1089.88
845.952	1045.88
851.255	1061.88
856.552	1054.88
861.844	1038.88
867.13	1016.88
872.41	1019.88
877.686	1014.88
882.955	999.88
888.219	980.88
893.478	973.88
898.731	960.88
903.979	970.88
909.221	943.88
914.458	932.88
919.69	939.88
924.916	937.88
930.136	936.88
935.351	934.88
940.561	946.88
945.766	945.88
950.965	939.88
956.158	928.88
961.347	892.88
966.529	908.88
971.707	897.88
976.879	878.88
982.046	884.88
987.208	857.88
992.364	856.88
997.515	861.88
1002.66	878.88
1007.801	868.88
1012.936	889.88
1018.066	869.88
1023.19	892.88
1028.309	903.88
1033.423	894.88
1038.532	902.88
1043.636	873.88
1048.734	892.88
1053.827	848.88
1058.915	856.88
1063.998	867.88
1069.075	846.88
1074.147	866.88
1079.214	835.88
1084.276	861.88
1089.333	856.88
1094.385	872.88
1099.431	852.88
1104.472	845.88
1109.509	826.88
1114.54	820.88
1119.565	837.88
1124.586	812.88
1129.602	802.88
1134.613	769.88
1139.618	777.88
1144.619	780.88
1149.614	790.88
1154.604	786.88
1159.589	775.88
1164.57	796.88
1169.545	803.88
1174.515	798.88
1179.48	784.88
1184.44	792.88
1189.395	809.88
1194.345	776.88
1199.29	782.88
1204.23	762.88
1209.165	759.88
1214.095	779.88
1219.021	773.88
1223.941	778.88
1228.856	787.88
1233.766	791.88
1238.672	793.88
1243.572	780.88
1248.467	775.88
1253.358	768.88
1258.244	743.88
1263.124	756.88
1268	741.88
1272.871	717.88
1277.737	709.88
1282.599	702.88
1287.455	700.88
1292.306	707.88
1297.153	686.88
1301.995	713.88
1306.832	703.88
1311.664	712.88
1316.491	713.88
1321.314	713.88
1326.132	699.88
1330.945	708.88
1335.753	681.88
1340.556	668.88
1345.354	647.88
1350.148	650.88
1354.937	641.88
1359.722	635.88
1364.501	628.88
1369.276	638.88
1374.046	644.88
1378.811	620.88
1383.572	633.88
1388.327	631.88
1393.079	608.88
1397.825	609.88
1402.567	605.88
1407.304	607.88
1412.036	601.88
1416.764	597.88
1421.487	589.88
1426.205	588.88
1430.919	598.88
1435.628	595.88
1440.333	586.88
1445.032	603.88
1449.727	607.88
1454.418	619.88
1459.104	616.88
1463.785	594.88
1468.462	604.88
1473.134	581.88
1477.802	580.88
1482.465	552.88
1487.123	566.88
1491.777	535.88
1496.426	532.88
1501.071	554.88
1505.711	535.88
1510.347	558.88
1514.978	552.88
1519.604	554.88
1524.226	558.88
1528.844	537.88
1533.457	553.88
1538.065	549.88
1542.669	541.88
1547.269	538.88
1551.864	540.88
1556.454	531.88
1561.041	535.88
1565.622	528.88
1570.199	545.88
1574.772	542.88
1579.34	562.88
1583.904	562.88
1588.464	570.88
1593.019	577.88
1597.569	556.88
1602.115	557.88
1606.657	547.88
1611.195	557.88
1615.728	569.88
1620.256	549.88
1624.78	526.88
1629.3	533.88
1633.816	548.88
1638.327	534.88
1642.834	549.88
1647.336	544.88
1651.834	567.88
1656.328	554.88
1660.817	550.88
1665.302	542.88
1669.783	531.88
1674.259	521.88
1678.732	497.88
1683.199	503.88
1687.663	466.88
1692.122	484.88
1696.577	465.88
1701.028	468.88
1705.474	438.88
1709.917	437.88
1714.355	432.88
1718.788	428.88
1723.218	409.88
1727.643	408.88
1732.064	401.88
1736.481	390.88
1740.893	400.88
1745.301	379.88
1749.705	352.88
1754.105	375.88
1758.501	357.88
1762.893	369.88
1767.28	337.88
1771.663	342.88
1776.042	334.88
1780.417	331.88
1784.787	340.88
1789.154	346.88
1793.516	354.88
1797.874	336.88
1802.228	326.88
1806.578	315.88
1810.924	326.88
1815.266	216.88
1819.603	327.88
1823.937	316.88
1828.266	323.88
1832.591	316.88
1836.913	321.88
1841.23	303.88
1845.543	303.88
1849.852	318.88
1854.156	311.88
1858.457	307.88
1862.754	295.88
1867.047	304.88
1871.335	315.88
1875.62	305.88
1879.9	309.88
1884.177	303.88
1888.449	307.88
1892.718	311.88
1896.982	299.88
1901.243	287.88
1905.499	287.88
1909.752	279.88
1914	269.88
1918.245	291.88
1922.485	295.88
1926.722	283.88
1930.954	279.88
1935.183	298.88
1939.408	295.88
1943.628	284.88
1947.845	280.88
1952.058	279.88
1956.267	267.88
1960.472	286.88
1964.673	279.88
1968.87	275.88
1973.063	276.88
1977.252	265.88
1981.438	261.88
1985.619	252.88
1989.797	247.88
1993.971	254.88
1998.14	269.88
2002.306	255.88
2006.469	262.88
2010.627	247.88
2014.781	244.88
2018.932	246.88
2023.078	267.88
2027.221	260.88
2031.36	232.88
2035.495	250.88
2039.627	238.88
2043.754	248.88
2047.878	230.88
2051.998	234.88
2056.114	227.88
2060.226	227.88
2064.334	237.88
2068.439	241.88
2072.54	241.88
2076.637	224.88
2080.73	229.88
2084.82	232.88
2088.906	221.88
2092.988	226.88
2097.066	228.88
2101.14	239.88
2105.211	233.88
2109.278	218.88
2113.342	212.88
2117.401	202.88
2121.457	207.88
2125.509	198.88
2129.558	214.88
2133.602	213.88
2137.643	202.88
2141.681	203.88
2145.714	205.88
2149.744	206.88
2153.77	206.88
2157.793	191.88
2161.812	177.88
2165.827	181.88
2169.838	199.88
2173.846	177.88
2177.851	182.88
2181.851	193.88
2185.848	175.88
2189.841	183.88
2193.831	176.88
2197.817	180.88
2201.799	175.88
2205.778	163.88
2209.753	173.88
2213.725	159.88
2217.693	177.88
2221.657	159.88
2225.618	172.88
2229.575	170.88
2233.529	165.88
2237.479	166.88
2241.425	160.88
2245.368	146.88
2249.307	162.88
2253.243	150.88
2257.175	163.88
2261.104	151.88
2265.029	156.88
2268.95	149.88
2272.868	147.88
2276.783	143.88
2280.694	140.88
2284.601	140.88
2288.505	139.88
2292.405	145.88
2296.302	131.88
2300.195	139.88
2304.085	105.88
2307.971	128.88
2311.854	112.88
2315.734	125.88
2319.609	128.88
2323.482	105.88
2327.351	122.88
2331.216	119.88
2335.078	122.88
2338.937	116.88
2342.792	113.88
2346.643	115.88
2350.492	122.88
2354.336	113.88
2358.178	122.88
2362.015	119.88
2365.85	111.88
2369.681	114.88
2373.508	116.88
2377.333	121.88
2381.153	118.88
2384.971	112.88
2388.785	111.88
2392.595	108.88
2396.402	101.88
2400.206	84.88
2404.007	102.88
2407.804	107.88
2411.597	113.88
2415.388	104.88
2419.174	99.88
2422.958	110.88
2426.738	109.88
2430.515	108.88
2434.289	100.88
2438.059	94.88
2441.825	95.88
2445.589	105.88
2449.349	85.88
2453.106	95.88
2456.859	91.88
2460.61	103.88
2464.356	84.88
2468.1	76.88
2471.84	87.88
2475.577	87.88
2479.311	84.88
2483.041	90.88
2486.768	96.88
2490.492	99.88
2494.213	84.88
2497.93	76.88
2501.644	75.88
2505.355	83.88
2509.062	81.88
2512.766	81.88
2516.467	81.88
2520.165	76.88
2523.859	61.88
2527.551	92.88
2531.239	68.88
2534.923	76.88
2538.605	76.88
2542.283	77.88
2545.958	74.88
2549.63	84.88
2553.299	83.88
2556.964	61.88
2560.626	74.88
2564.285	75.88
2567.941	62.88
2571.594	64.88
2575.243	72.88
2578.89	65.88
2582.533	69.88
2586.173	71.88
2589.809	73.88
2593.443	37.88
2597.073	62.88
2600.701	69.88
2604.325	63.88
2607.946	57.88
2611.564	74.88
2615.178	60.88
2618.79	73.88
2622.398	57.88
2626.004	66.88
2629.606	66.88
2633.205	50.88
2636.801	71.88
2640.394	60.88
2643.983	55.88
2647.57	54.88
2651.153	53.88
2654.734	63.88
2658.311	33.88
2661.885	39.88
2665.456	49.88
2669.025	50.88
2672.589	46.88
2676.151	63.88
2679.71	65.88
2683.266	51.88
2686.819	46.88
2690.368	53.88
2693.915	57.88
2697.458	50.88
2700.999	53.88
2704.536	48.88
2708.071	50.88
2711.602	45.88
2715.13	49.88
2718.656	28.88
2722.178	47.88
2725.697	30.88
2729.214	38.88
2732.727	41.88
2736.237	26.88
2739.744	33.88
2743.249	36.88
2746.75	36.88
2750.248	32.88
2753.743	40.88
2757.236	33.88
2760.725	42.88
2764.211	10.88
2767.695	35.88
2771.175	31.88
2774.652	39.88
2778.127	34.88
2781.598	37.88
2785.067	40.88
2788.532	25.88
2791.995	39.88
2795.455	34.88
2798.911	42.88
2802.365	33.88
2805.816	38.88
2809.264	51.88
2812.709	32.88
2816.151	39.88
2819.59	26.88
2823.026	29.88
2826.46	28.88
2829.89	46.88
2833.318	14.88
2836.742	31.88
2840.164	36.88
2843.583	34.88
2846.999	32.88
2850.412	31.88
2853.822	30.88
2857.229	50.88
2860.634	33.88
2864.035	18.88
2867.434	40.88
2870.83	35.88
2874.223	29.88
2877.613	36.88
2881	27.88
2884.385	32.88
2887.766	36.88
2891.145	46.88
2894.521	39.88
2897.894	28.88
2901.264	40.88
2904.631	39.88
2907.996	43.88
2911.358	47.88
2914.717	43.88
2918.073	41.88
2921.426	31.88
2924.777	23.88
2928.124	44.88
2931.469	57.88
2934.811	36.88
2938.15	61.88
2941.487	43.88
2944.821	62.88
2948.152	48.88
2951.48	61.88
2954.805	42.88
2958.128	61.88
2961.447	46.88
2964.765	67.88
2968.079	54.88
2971.39	60.88
2974.699	52.88
2978.005	58.88
2981.308	51.88
2984.609	43.88
2987.907	61.88
2991.202	62.88
2994.494	50.88
2997.784	56.88
3001.07	56.88
3004.355	51.88
3007.636	60.88
3010.915	61.88
3014.191	53.88
3017.464	67.88
3020.734	62.88
3024.002	59.88
3027.267	66.88
3030.53	61.88
3033.789	61.88
3037.046	68.88
3040.301	59.88
3043.552	73.88
3046.801	74.88
3050.048	79.88
3053.291	97.88
3056.532	82.88
3059.771	66.88
3063.006	83.88
3066.239	83.88
3069.469	91.88
3072.697	82.88
3075.922	86.88
3079.144	97.88
3082.364	113.88
3085.581	87.88
3088.795	110.88
3092.007	103.88
3095.216	113.88
3098.423	107.88
3101.627	89.88
3104.828	110.88
3108.026	110.88
3111.222	129.88
3114.416	130.88
3117.607	126.88
3120.795	133.88
3123.98	136.88
3127.163	122.88
3130.344	129.88
3133.521	126.88
3136.696	148.88
3139.869	143.88
3143.039	130.88
3146.206	161.88
3149.371	163.88
3152.533	156.88
3155.693	146.88
3158.85	166.88
3162.005	160.88
3165.157	154.88
3168.306	159.88
3171.453	172.88
3174.597	155.88
3177.739	149.88
3180.878	165.88
3184.014	165.88
3187.149	166.88
3190.28	164.88
3193.409	181.88
3196.536	169.88
3199.659	177.88
3202.781	172.88
3205.9	163.88
3209.016	171.88
3212.13	165.88
3215.241	164.88
3218.35	173.88
3221.456	165.88
3224.56	160.88
3227.661	161.88
3230.76	156.88
3233.856	148.88
3236.95	154.88
3240.041	146.88
3243.13	158.88
3246.216	150.88
3249.3	163.88
3252.382	154.88
3255.46	146.88
3258.537	86.88
3261.611	133.88
3264.682	151.88
3267.751	146.88
3270.818	127.88
3273.882	150.88
3276.943	146.88
3280.002	161.88
3283.059	139.88
3286.113	137.88
3289.165	130.88
3292.214	129.88
3295.261	149.88
3298.306	126.88
3301.348	134.88
3304.387	128.88
3307.425	134.88
3310.459	123.88
3313.492	134.88
3316.521	123.88
3319.549	133.88
3322.574	126.88
3325.597	122.88
3328.617	116.88
3331.635	118.88
3334.65	98.88
3337.663	124.88
3340.674	117.88
3343.682	117.88
3346.688	121.88
3349.691	106.88
3352.692	115.88
3355.691	125.88
3358.687	117.88
3361.681	116.88
3364.673	109.88
3367.662	118.88
3370.649	120.88
3373.633	102.88
3376.615	111.88
3379.595	100.88
3382.572	105.88
3385.547	94.88
3388.52	95.88
3391.49	95.88
3394.458	100.88
3397.424	98.88
3400.387	84.88
3403.348	92.88
3406.307	92.88
3409.263	84.88
3412.217	103.88
3415.168	99.88
3418.118	99.88
3421.065	88.88
3424.009	96.88
3426.951	87.88
3429.891	81.88
3432.829	85.88
3435.764	85.88
3438.697	72.88
3441.628	95.88
3444.557	67.88
3447.483	66.88
3450.407	73.88
3453.328	66.88
3456.247	60.88
3459.164	57.88
3462.079	72.88
3464.991	59.88
3467.902	58.88
3470.809	54.88
3473.715	63.88
3476.618	50.88
3479.519	48.88
3482.418	28.88
3485.315	36.88
3488.209	36.88
3491.101	45.88
3493.99	28.88
3496.878	21.88
3499.763	33.88
3502.646	32.88
3505.527	24.88
3508.405	23.88
3511.281	14.88
3514.155	25.88
3517.027	17.88
3519.897	9.88
3522.764	23.88
3525.629	-2.12
3528.492	16.88
3531.352	17.88
3534.211	12.88
3537.067	0.88
3539.921	8.88
3542.773	14.88
3545.622	-3.12
3548.469	-3.12
3551.315	-3.12
3554.157	0.88
3556.998	-8.12
3559.837	-3.12
3562.673	3.88
3565.507	-10.12
3568.339	-8.12
3571.169	-5.12
3573.996	-9.12
3576.822	-25.12
3579.645	-22.12
3582.466	-17.12
3585.285	-6.12
3588.101	-12.12
3590.916	-14.12
3593.728	-8.12
3596.538	-15.12
3599.346	-12.12
3602.152	-19.12
3604.956	-17.12
3607.757	-10.12
3610.556	-31.12
3613.354	-16.12
3616.149	-10.12
3618.942	-9.12
3621.732	-14.12
3624.521	-21.12
3627.307	-32.12
3630.092	-30.12
3632.874	-13.12
3635.654	-19.12
3638.432	-26.12
3641.208	-27.12
3643.982	-27.12
3646.753	-20.12
3649.523	-46.12
3652.29	-26.12
3655.055	-17.12
3657.818	-21.12
3660.579	-26.12
3663.338	-36.12
3666.095	-28.12
3668.849	-47.12
3671.602	-19.12
3674.352	-36.12
3677.101	-19.12
3679.847	-22.12
3682.591	-36.12
3685.333	-37.12
3688.073	-27.12
3690.811	-39.12
3693.547	-39.12
3696.281	-45.12
3699.013	-28.12
3701.742	-31.12
3704.47	-36.12
3707.195	-28.12
3709.919	-26.12
3712.64	-33.12
3715.359	-42.12
3718.076	-16.12
3720.792	-32.12
3723.505	-29.12
3726.216	-20.12
3728.925	-35.12
3731.632	-41.12
3734.336	-29.12
3737.039	-32.12
3739.74	-29.12
3742.439	-56.12
3745.136	-30.12
3747.83	-30.12
3750.523	-29.12
3753.213	-87.12
3755.902	-33.12
3758.589	-46.12
3761.273	-37.12
3763.956	-26.12
3766.636	-51.12
3769.315	-25.12
3771.991	-35.12
3774.665	-37.12
3777.338	-36.12
3780.008	-47.12
3782.677	-40.12
3785.343	-50.12
3788.007	-48.12
3790.67	-29.12
3793.33	-46.12
3795.989	-37.12
3798.645	-36.12
3801.299	-48.12
3803.952	-41.12
3806.602	-37.12
3809.251	-29.12
3811.897	-32.12
3814.542	-36.12
3817.184	-37.12
3819.825	-31.12
3822.463	-47.12
3825.1	-33.12
3827.735	-34.12
3830.367	-40.12
3832.998	-22.12
3835.627	-35.12
3838.253	-28.12
3840.878	-33.12
3843.501	-22.12
3846.122	-33.12
3848.741	-30.12
3851.358	-32.12
3853.973	-45.12
3856.586	-27.12
3859.197	-41.12
3861.806	-36.12
3864.414	-42.12
3867.019	-39.12
3869.622	-25.12
3872.224	-25.12
3874.823	-16.12
3877.421	2.88
3880.016	15.88
3882.61	47.88
3885.202	53.88
3887.792	37.88
3890.38	9.88
3892.966	-22.12
3895.55	-36.12
3898.132	-25.12
3900.713	-25.12
3903.291	-32.12
3905.868	-41.12
3908.442	-32.12
3911.015	-30.12
3913.586	-38.12
3916.155	-35.12
3918.722	-40.12
3921.287	-40.12
3923.85	-46.12
3926.411	-42.12
3928.971	-45.12
3931.528	-34.12
3934.084	-36.12
3936.638	-43.12
3939.19	-31.12
3941.74	-28.12
3944.288	-37.12
3946.834	-40.12
3949.378	-27.12
3951.921	-39.12
3954.462	-37.12
3957	-29.12
3959.537	-23.12
3962.072	-32.12
3964.606	-51.12
3967.137	-41.12
3969.667	-38.12
3972.194	-36.12
3974.72	-38.12
3977.244	-60.12
3979.766	-45.12
3982.286	-41.12
3984.805	-35.12
3987.321	-25.12
3989.836	-32.12
3992.349	-41.12
3994.86	-35.12
3997.369	-39.12
3999.877	-39.12
4002.382	-40.12
4004.886	-28.12
4007.388	-35.12
4009.888	-25.12
4012.386	-32.12
4014.883	-35.12
4017.377	-30.12
4019.87	-31.12
4022.361	-40.12
4024.85	-34.12
4027.338	-32.12
4029.823	-43.12
4032.307	-37.12
4034.789	-33.12
4037.269	-38.12
4039.747	-49.12
4042.224	-25.12
4044.699	-38.12
4047.172	-36.12
4049.643	-31.12
4052.112	-58.12
4054.58	-35.12
4057.046	-47.12
4059.51	-35.12
4061.972	-33.12
4064.432	-50.12
4066.891	-22.12
4069.348	-32.12
4071.803	-31.12
4074.256	-37.12
4076.708	-26.12
4079.158	-31.12
4081.606	-25.12
4084.052	-35.12
4086.497	-29.12
4088.939	-32.12
4091.38	-34.12
4093.819	-25.12
4096.257	0.88
4098.693	-4.12
4101.127	-4.12
4103.559	0.88
4105.989	62.88
4108.418	66.88
4110.845	53.88
4113.27	54.88
4115.694	67.88
4118.115	52.88
4120.535	-34.12
4122.954	-23.12
4125.37	-24.12
4127.785	-32.12
4130.198	-25.12
4132.609	-31.12
4135.019	5.88
4137.427	-2.12
4139.833	5.88
4142.237	-3.12
