Data from 2018-3-6_conc=4_n=6_RamanShift_04.txt Node
Date: Tue Mar 06 14:07:48 GMT+02:00 2018
User: LAB3
Spectrometer: QEPB0276
Trigger mode: 0
Integration Time (sec): 3.000000E1
Scans to average: 1
Electric dark correction enabled: true
Nonlinearity correction enabled: false
Boxcar width: 0
XAxis mode: Raman Shifts
Number of Pixels in Spectrum: 1044
>>>>>Begin Spectral Data<<<<<
160.701	66.75
166.742	95.75
172.777	146.75
178.805	291.75
184.826	677.75
190.841	1363.75
196.849	2131.75
202.85	2691.75
208.845	2891.75
214.833	2874.75
220.815	2839.75
226.789	2821.75
232.758	2848.75
238.719	2801.75
244.674	2797.75
250.623	2768.75
256.565	2741.75
262.5	2697.75
268.429	2677.75
274.351	2638.75
280.267	2611.75
286.176	2633.75
292.079	2642.75
297.975	2628.75
303.865	2622.75
309.748	2605.75
315.625	2611.75
321.495	2605.75
327.359	2606.75
333.217	2630.75
339.068	2623.75
344.912	2647.75
350.751	2634.75
356.583	2640.75
362.408	2621.75
368.227	2660.75
374.04	2664.75
379.847	2655.75
385.647	2681.75
391.44	2685.75
397.228	2670.75
403.009	2698.75
408.784	2719.75
414.553	2742.75
420.315	2731.75
426.071	2718.75
431.821	2753.75
437.565	2716.75
443.302	2718.75
449.033	2705.75
454.758	2699.75
460.477	2677.75
466.189	2648.75
471.896	2636.75
477.596	2618.75
483.29	2560.75
488.978	2592.75
494.66	2543.75
500.335	2502.75
506.005	2370.75
511.668	2279.75
517.325	2178.75
522.977	2092.75
528.622	2018.75
534.261	1978.75
539.894	1920.75
545.521	1903.75
551.141	1863.75
556.756	1852.75
562.365	1835.75
567.968	1838.75
573.565	1802.75
579.155	1804.75
584.74	1797.75
590.319	1794.75
595.892	1773.75
601.459	1800.75
607.02	1762.75
612.575	1770.75
618.124	1765.75
623.667	1704.75
629.204	1684.75
634.735	1677.75
640.261	1647.75
645.781	1627.75
651.294	1625.75
656.802	1615.75
662.304	1623.75
667.8	1633.75
673.29	1616.75
678.775	1609.75
684.254	1604.75
689.726	1606.75
695.193	1599.75
700.655	1584.75
706.11	1559.75
711.56	1565.75
717.004	1563.75
722.442	1523.75
727.874	1528.75
733.301	1547.75
738.722	1515.75
744.137	1523.75
749.547	1524.75
754.951	1503.75
760.349	1514.75
765.741	1540.75
771.128	1525.75
776.509	1561.75
781.885	1580.75
787.254	1599.75
792.618	1590.75
797.977	1594.75
803.33	1574.75
808.677	1557.75
814.019	1558.75
819.355	1546.75
824.686	1531.75
830.011	1513.75
835.33	1527.75
840.644	1532.75
845.952	1483.75
851.255	1503.75
856.552	1496.75
861.844	1464.75
867.13	1433.75
872.41	1427.75
877.686	1419.75
882.955	1409.75
888.219	1391.75
893.478	1366.75
898.731	1349.75
903.979	1351.75
909.221	1314.75
914.458	1312.75
919.69	1323.75
924.916	1329.75
930.136	1322.75
935.351	1311.75
940.561	1336.75
945.766	1322.75
950.965	1332.75
956.158	1303.75
961.347	1290.75
966.529	1264.75
971.707	1272.75
976.879	1257.75
982.046	1248.75
987.208	1222.75
992.364	1241.75
997.515	1218.75
1002.66	1247.75
1007.801	1231.75
1012.936	1251.75
1018.066	1241.75
1023.19	1251.75
1028.309	1282.75
1033.423	1282.75
1038.532	1285.75
1043.636	1255.75
1048.734	1246.75
1053.827	1232.75
1058.915	1222.75
1063.998	1223.75
1069.075	1216.75
1074.147	1234.75
1079.214	1207.75
1084.276	1240.75
1089.333	1222.75
1094.385	1215.75
1099.431	1200.75
1104.472	1224.75
1109.509	1201.75
1114.54	1187.75
1119.565	1179.75
1124.586	1153.75
1129.602	1143.75
1134.613	1114.75
1139.618	1122.75
1144.619	1107.75
1149.614	1112.75
1154.604	1129.75
1159.589	1130.75
1164.57	1149.75
1169.545	1151.75
1174.515	1149.75
1179.48	1143.75
1184.44	1133.75
1189.395	1128.75
1194.345	1111.75
1199.29	1123.75
1204.23	1107.75
1209.165	1086.75
1214.095	1118.75
1219.021	1111.75
1223.941	1098.75
1228.856	1129.75
1233.766	1115.75
1238.672	1128.75
1243.572	1119.75
1248.467	1115.75
1253.358	1107.75
1258.244	1071.75
1263.124	1077.75
1268	1065.75
1272.871	1031.75
1277.737	1029.75
1282.599	1015.75
1287.455	1000.75
1292.306	1009.75
1297.153	993.75
1301.995	1031.75
1306.832	1014.75
1311.664	1015.75
1316.491	1005.75
1321.314	1011.75
1326.132	1008.75
1330.945	1000.75
1335.753	973.75
1340.556	961.75
1345.354	950.75
1350.148	935.75
1354.937	925.75
1359.722	912.75
1364.501	916.75
1369.276	911.75
1374.046	917.75
1378.811	910.75
1383.572	914.75
1388.327	902.75
1393.079	896.75
1397.825	878.75
1402.567	881.75
1407.304	878.75
1412.036	864.75
1416.764	867.75
1421.487	858.75
1426.205	855.75
1430.919	863.75
1435.628	860.75
1440.333	850.75
1445.032	879.75
1449.727	899.75
1454.418	880.75
1459.104	889.75
1463.785	865.75
1468.462	874.75
1473.134	852.75
1477.802	850.75
1482.465	809.75
1487.123	820.75
1491.777	794.75
1496.426	786.75
1501.071	809.75
1505.711	819.75
1510.347	813.75
1514.978	813.75
1519.604	801.75
1524.226	822.75
1528.844	794.75
1533.457	821.75
1538.065	799.75
1542.669	799.75
1547.269	793.75
1551.864	781.75
1556.454	787.75
1561.041	781.75
1565.622	779.75
1570.199	789.75
1574.772	799.75
1579.34	803.75
1583.904	814.75
1588.464	821.75
1593.019	821.75
1597.569	793.75
1602.115	802.75
1606.657	806.75
1611.195	809.75
1615.728	808.75
1620.256	784.75
1624.78	774.75
1629.3	768.75
1633.816	797.75
1638.327	792.75
1642.834	807.75
1647.336	799.75
1651.834	815.75
1656.328	803.75
1660.817	791.75
1665.302	792.75
1669.783	779.75
1674.259	757.75
1678.732	744.75
1683.199	733.75
1687.663	695.75
1692.122	703.75
1696.577	679.75
1701.028	682.75
1705.474	654.75
1709.917	635.75
1714.355	638.75
1718.788	625.75
1723.218	617.75
1727.643	608.75
1732.064	607.75
1736.481	592.75
1740.893	599.75
1745.301	574.75
1749.705	543.75
1754.105	544.75
1758.501	537.75
1762.893	541.75
1767.28	500.75
1771.663	514.75
1776.042	497.75
1780.417	510.75
1784.787	507.75
1789.154	510.75
1793.516	504.75
1797.874	518.75
1802.228	497.75
1806.578	499.75
1810.924	502.75
1815.266	379.75
1819.603	508.75
1823.937	472.75
1828.266	489.75
1832.591	474.75
1836.913	473.75
1841.23	462.75
1845.543	470.75
1849.852	477.75
1854.156	469.75
1858.457	462.75
1862.754	470.75
1867.047	461.75
1871.335	471.75
1875.62	473.75
1879.9	466.75
1884.177	458.75
1888.449	465.75
1892.718	451.75
1896.982	467.75
1901.243	441.75
1905.499	453.75
1909.752	438.75
1914	418.75
1918.245	440.75
1922.485	446.75
1926.722	435.75
1930.954	435.75
1935.183	447.75
1939.408	455.75
1943.628	441.75
1947.845	441.75
1952.058	440.75
1956.267	424.75
1960.472	432.75
1964.673	425.75
1968.87	410.75
1973.063	406.75
1977.252	408.75
1981.438	399.75
1985.619	390.75
1989.797	387.75
1993.971	384.75
1998.14	393.75
2002.306	380.75
2006.469	403.75
2010.627	387.75
2014.781	380.75
2018.932	379.75
2023.078	391.75
2027.221	383.75
2031.36	364.75
2035.495	372.75
2039.627	364.75
2043.754	360.75
2047.878	350.75
2051.998	358.75
2056.114	350.75
2060.226	348.75
2064.334	356.75
2068.439	361.75
2072.54	362.75
2076.637	348.75
2080.73	347.75
2084.82	347.75
2088.906	348.75
2092.988	345.75
2097.066	352.75
2101.14	355.75
2105.211	348.75
2109.278	336.75
2113.342	332.75
2117.401	321.75
2121.457	322.75
2125.509	324.75
2129.558	325.75
2133.602	314.75
2137.643	323.75
2141.681	319.75
2145.714	317.75
2149.744	323.75
2153.77	313.75
2157.793	302.75
2161.812	281.75
2165.827	278.75
2169.838	308.75
2173.846	286.75
2177.851	285.75
2181.851	295.75
2185.848	285.75
2189.841	282.75
2193.831	272.75
2197.817	275.75
2201.799	269.75
2205.778	266.75
2209.753	260.75
2213.725	263.75
2217.693	268.75
2221.657	257.75
2225.618	266.75
2229.575	262.75
2233.529	261.75
2237.479	266.75
2241.425	251.75
2245.368	231.75
2249.307	249.75
2253.243	236.75
2257.175	246.75
2261.104	235.75
2265.029	238.75
2268.95	224.75
2272.868	225.75
2276.783	214.75
2280.694	223.75
2284.601	217.75
2288.505	215.75
2292.405	223.75
2296.302	201.75
2300.195	210.75
2304.085	175.75
2307.971	204.75
2311.854	182.75
2315.734	194.75
2319.609	201.75
2323.482	172.75
2327.351	180.75
2331.216	181.75
2335.078	199.75
2338.937	191.75
2342.792	179.75
2346.643	175.75
2350.492	182.75
2354.336	176.75
2358.178	184.75
2362.015	178.75
2365.85	178.75
2369.681	187.75
2373.508	180.75
2377.333	185.75
2381.153	185.75
2384.971	178.75
2388.785	180.75
2392.595	169.75
2396.402	163.75
2400.206	151.75
2404.007	161.75
2407.804	166.75
2411.597	166.75
2415.388	168.75
2419.174	162.75
2422.958	161.75
2426.738	162.75
2430.515	165.75
2434.289	155.75
2438.059	153.75
2441.825	154.75
2445.589	168.75
2449.349	141.75
2453.106	159.75
2456.859	146.75
2460.61	165.75
2464.356	139.75
2468.1	134.75
2471.84	130.75
2475.577	145.75
2479.311	140.75
2483.041	144.75
2486.768	162.75
2490.492	149.75
2494.213	147.75
2497.93	131.75
2501.644	128.75
2505.355	140.75
2509.062	144.75
2512.766	138.75
2516.467	126.75
2520.165	130.75
2523.859	115.75
2527.551	150.75
2531.239	123.75
2534.923	130.75
2538.605	127.75
2542.283	130.75
2545.958	133.75
2549.63	138.75
2553.299	133.75
2556.964	116.75
2560.626	118.75
2564.285	127.75
2567.941	112.75
2571.594	113.75
2575.243	117.75
2578.89	113.75
2582.533	116.75
2586.173	115.75
2589.809	117.75
2593.443	91.75
2597.073	112.75
2600.701	114.75
2604.325	112.75
2607.946	104.75
2611.564	123.75
2615.178	106.75
2618.79	104.75
2622.398	98.75
2626.004	114.75
2629.606	114.75
2633.205	98.75
2636.801	117.75
2640.394	105.75
2643.983	98.75
2647.57	96.75
2651.153	93.75
2654.734	105.75
2658.311	74.75
2661.885	88.75
2665.456	83.75
2669.025	92.75
2672.589	82.75
2676.151	101.75
2679.71	101.75
2683.266	78.75
2686.819	82.75
2690.368	98.75
2693.915	92.75
2697.458	88.75
2700.999	99.75
2704.536	88.75
2708.071	85.75
2711.602	87.75
2715.13	80.75
2718.656	68.75
2722.178	85.75
2725.697	67.75
2729.214	66.75
2732.727	77.75
2736.237	62.75
2739.744	67.75
2743.249	62.75
2746.75	77.75
2750.248	62.75
2753.743	72.75
2757.236	73.75
2760.725	81.75
2764.211	40.75
2767.695	76.75
2771.175	66.75
2774.652	76.75
2778.127	66.75
2781.598	72.75
2785.067	70.75
2788.532	63.75
2791.995	70.75
2795.455	57.75
2798.911	79.75
2802.365	68.75
2805.816	71.75
2809.264	83.75
2812.709	65.75
2816.151	78.75
2819.59	54.75
2823.026	69.75
2826.46	60.75
2829.89	81.75
2833.318	44.75
2836.742	59.75
2840.164	70.75
2843.583	62.75
2846.999	70.75
2850.412	71.75
2853.822	66.75
2857.229	81.75
2860.634	73.75
2864.035	54.75
2867.434	76.75
2870.83	82.75
2874.223	71.75
2877.613	75.75
2881	62.75
2884.385	70.75
2887.766	70.75
2891.145	81.75
2894.521	72.75
2897.894	67.75
2901.264	84.75
2904.631	78.75
2907.996	84.75
2911.358	89.75
2914.717	85.75
2918.073	78.75
2921.426	71.75
2924.777	66.75
2928.124	86.75
2931.469	91.75
2934.811	74.75
2938.15	97.75
2941.487	86.75
2944.821	103.75
2948.152	92.75
2951.48	103.75
2954.805	83.75
2958.128	99.75
2961.447	87.75
2964.765	108.75
2968.079	87.75
2971.39	94.75
2974.699	92.75
2978.005	101.75
2981.308	92.75
2984.609	89.75
2987.907	97.75
2991.202	106.75
2994.494	90.75
2997.784	106.75
3001.07	97.75
3004.355	94.75
3007.636	99.75
3010.915	104.75
3014.191	104.75
3017.464	106.75
3020.734	108.75
3024.002	107.75
3027.267	112.75
3030.53	112.75
3033.789	114.75
3037.046	119.75
3040.301	104.75
3043.552	116.75
3046.801	124.75
3050.048	129.75
3053.291	147.75
3056.532	129.75
3059.771	115.75
3063.006	137.75
3066.239	134.75
3069.469	143.75
3072.697	142.75
3075.922	144.75
3079.144	147.75
3082.364	172.75
3085.581	150.75
3088.795	171.75
3092.007	177.75
3095.216	188.75
3098.423	178.75
3101.627	149.75
3104.828	179.75
3108.026	169.75
3111.222	194.75
3114.416	203.75
3117.607	199.75
3120.795	203.75
3123.98	205.75
3127.163	202.75
3130.344	205.75
3133.521	201.75
3136.696	231.75
3139.869	225.75
3143.039	217.75
3146.206	247.75
3149.371	250.75
3152.533	233.75
3155.693	242.75
3158.85	241.75
3162.005	245.75
3165.157	242.75
3168.306	249.75
3171.453	248.75
3174.597	247.75
3177.739	235.75
3180.878	253.75
3184.014	249.75
3187.149	256.75
3190.28	249.75
3193.409	264.75
3196.536	254.75
3199.659	263.75
3202.781	264.75
3205.9	238.75
3209.016	260.75
3212.13	260.75
3215.241	246.75
3218.35	252.75
3221.456	247.75
3224.56	235.75
3227.661	246.75
3230.76	233.75
3233.856	229.75
3236.95	240.75
3240.041	227.75
3243.13	239.75
3246.216	234.75
3249.3	238.75
3252.382	240.75
3255.46	225.75
3258.537	181.75
3261.611	219.75
3264.682	225.75
3267.751	232.75
3270.818	224.75
3273.882	225.75
3276.943	224.75
3280.002	231.75
3283.059	209.75
3286.113	208.75
3289.165	208.75
3292.214	197.75
3295.261	219.75
3298.306	196.75
3301.348	205.75
3304.387	190.75
3307.425	203.75
3310.459	191.75
3313.492	205.75
3316.521	197.75
3319.549	207.75
3322.574	198.75
3325.597	188.75
3328.617	191.75
3331.635	187.75
3334.65	173.75
3337.663	181.75
3340.674	175.75
3343.682	185.75
3346.688	191.75
3349.691	176.75
3352.692	178.75
3355.691	189.75
3358.687	173.75
3361.681	180.75
3364.673	175.75
3367.662	170.75
3370.649	175.75
3373.633	163.75
3376.615	168.75
3379.595	146.75
3382.572	154.75
3385.547	151.75
3388.52	154.75
3391.49	153.75
3394.458	157.75
3397.424	156.75
3400.387	134.75
3403.348	151.75
3406.307	148.75
3409.263	141.75
3412.217	153.75
3415.168	150.75
3418.118	151.75
3421.065	135.75
3424.009	145.75
3426.951	130.75
3429.891	132.75
3432.829	133.75
3435.764	127.75
3438.697	120.75
3441.628	129.75
3444.557	109.75
3447.483	107.75
3450.407	124.75
3453.328	108.75
3456.247	97.75
3459.164	92.75
3462.079	110.75
3464.991	93.75
3467.902	94.75
3470.809	90.75
3473.715	97.75
3476.618	86.75
3479.519	80.75
3482.418	63.75
3485.315	67.75
3488.209	70.75
3491.101	69.75
3493.99	58.75
3496.878	56.75
3499.763	61.75
3502.646	58.75
3505.527	48.75
3508.405	46.75
3511.281	35.75
3514.155	48.75
3517.027	42.75
3519.897	31.75
3522.764	40.75
3525.629	17.75
3528.492	30.75
3531.352	31.75
3534.211	33.75
3537.067	21.75
3539.921	30.75
3542.773	37.75
3545.622	14.75
3548.469	9.75
3551.315	9.75
3554.157	14.75
3556.998	9.75
3559.837	12.75
3562.673	14.75
3565.507	5.75
3568.339	-0.25
3571.169	7.75
3573.996	5.75
3576.822	-9.25
3579.645	-9.25
3582.466	-2.25
3585.285	4.75
3588.101	1.75
3590.916	-5.25
3593.728	2.75
3596.538	-3.25
3599.346	-1.25
3602.152	-12.25
3604.956	-6.25
3607.757	-3.25
3610.556	-13.25
3613.354	-3.25
3616.149	-1.25
3618.942	-9.25
3621.732	-5.25
3624.521	-16.25
3627.307	-18.25
3630.092	-20.25
3632.874	-4.25
3635.654	-9.25
3638.432	-20.25
3641.208	-19.25
3643.982	-17.25
3646.753	-14.25
3649.523	-46.25
3652.29	-22.25
3655.055	-9.25
3657.818	-19.25
3660.579	-26.25
3663.338	-33.25
3666.095	-26.25
3668.849	-49.25
3671.602	-18.25
3674.352	-32.25
3677.101	-14.25
3679.847	-15.25
3682.591	-31.25
3685.333	-34.25
3688.073	-26.25
3690.811	-32.25
3693.547	-38.25
3696.281	-37.25
3699.013	-23.25
3701.742	-26.25
3704.47	-39.25
3707.195	-26.25
3709.919	-27.25
3712.64	-28.25
3715.359	-39.25
3718.076	-17.25
3720.792	-30.25
3723.505	-24.25
3726.216	-14.25
3728.925	-27.25
3731.632	-37.25
3734.336	-28.25
3737.039	-29.25
3739.74	-26.25
3742.439	-52.25
3745.136	-25.25
3747.83	-24.25
3750.523	-25.25
3753.213	-92.25
3755.902	-26.25
3758.589	-46.25
3761.273	-38.25
3763.956	-22.25
3766.636	-44.25
3769.315	-21.25
3771.991	-33.25
3774.665	-31.25
3777.338	-29.25
3780.008	-38.25
3782.677	-32.25
3785.343	-44.25
3788.007	-52.25
3790.67	-21.25
3793.33	-43.25
3795.989	-36.25
3798.645	-32.25
3801.299	-42.25
3803.952	-36.25
3806.602	-32.25
3809.251	-33.25
3811.897	-33.25
3814.542	-32.25
3817.184	-33.25
3819.825	-31.25
3822.463	-44.25
3825.1	-33.25
3827.735	-34.25
3830.367	-41.25
3832.998	-22.25
3835.627	-38.25
3838.253	-24.25
3840.878	-32.25
3843.501	-17.25
3846.122	-32.25
3848.741	-27.25
3851.358	-27.25
3853.973	-43.25
3856.586	-24.25
3859.197	-40.25
3861.806	-33.25
3864.414	-43.25
3867.019	-33.25
3869.622	-23.25
3872.224	-27.25
3874.823	-10.25
3877.421	5.75
3880.016	8.75
3882.61	35.75
3885.202	55.75
3887.792	33.75
3890.38	13.75
3892.966	-18.25
3895.55	-36.25
3898.132	-25.25
3900.713	-24.25
3903.291	-31.25
3905.868	-39.25
3908.442	-29.25
3911.015	-31.25
3913.586	-32.25
3916.155	-33.25
3918.722	-37.25
3921.287	-40.25
3923.85	-46.25
3926.411	-34.25
3928.971	-42.25
3931.528	-29.25
3934.084	-35.25
3936.638	-44.25
3939.19	-27.25
3941.74	-31.25
3944.288	-33.25
3946.834	-34.25
3949.378	-25.25
3951.921	-36.25
3954.462	-32.25
3957	-31.25
3959.537	-20.25
3962.072	-34.25
3964.606	-47.25
3967.137	-32.25
3969.667	-42.25
3972.194	-28.25
3974.72	-38.25
3977.244	-59.25
3979.766	-35.25
3982.286	-39.25
3984.805	-29.25
3987.321	-22.25
3989.836	-29.25
3992.349	-35.25
3994.86	-33.25
3997.369	-42.25
3999.877	-36.25
4002.382	-34.25
4004.886	-29.25
4007.388	-30.25
4009.888	-22.25
4012.386	-24.25
4014.883	-29.25
4017.377	-32.25
4019.87	-29.25
4022.361	-37.25
4024.85	-34.25
4027.338	-29.25
4029.823	-35.25
4032.307	-33.25
4034.789	-29.25
4037.269	-34.25
4039.747	-48.25
4042.224	-20.25
4044.699	-33.25
4047.172	-33.25
4049.643	-22.25
4052.112	-54.25
4054.58	-29.25
4057.046	-37.25
4059.51	-31.25
4061.972	-27.25
4064.432	-52.25
4066.891	-17.25
4069.348	-31.25
4071.803	-27.25
4074.256	-38.25
4076.708	-29.25
4079.158	-29.25
4081.606	-18.25
4084.052	-30.25
4086.497	-27.25
4088.939	-31.25
4091.38	-34.25
4093.819	-26.25
4096.257	0.75
4098.693	-7.25
4101.127	-6.25
4103.559	0.75
4105.989	66.75
4108.418	73.75
4110.845	61.75
4113.27	69.75
4115.694	72.75
4118.115	62.75
4120.535	-24.25
4122.954	-25.25
4125.37	-20.25
4127.785	-28.25
4130.198	-20.25
4132.609	-27.25
4135.019	8.75
4137.427	1.75
4139.833	4.75
4142.237	-3.25
