Data from 2018-3-6_conc=5_n=3_RamanShift_05.txt Node
Date: Tue Mar 06 14:30:18 GMT+02:00 2018
User: LAB3
Spectrometer: QEPB0276
Trigger mode: 0
Integration Time (sec): 3.000000E1
Scans to average: 1
Electric dark correction enabled: true
Nonlinearity correction enabled: false
Boxcar width: 0
XAxis mode: Raman Shifts
Number of Pixels in Spectrum: 1044
>>>>>Begin Spectral Data<<<<<
160.701	51.12
166.742	72.12
172.777	115.12
178.805	210.12
184.826	507.12
190.841	1028.12
196.849	1616.12
202.85	2055.12
208.845	2173.12
214.833	2144.12
220.815	2102.12
226.789	2082.12
232.758	2093.12
238.719	2065.12
244.674	2037.12
250.623	2019.12
256.565	1980.12
262.5	1961.12
268.429	1932.12
274.351	1907.12
280.267	1898.12
286.176	1891.12
292.079	1882.12
297.975	1895.12
303.865	1852.12
309.748	1881.12
315.625	1864.12
321.495	1872.12
327.359	1845.12
333.217	1853.12
339.068	1854.12
344.912	1869.12
350.751	1876.12
356.583	1866.12
362.408	1862.12
368.227	1883.12
374.04	1886.12
379.847	1893.12
385.647	1908.12
391.44	1900.12
397.228	1902.12
403.009	1892.12
408.784	1908.12
414.553	1942.12
420.315	1936.12
426.071	1903.12
431.821	1925.12
437.565	1937.12
443.302	1894.12
449.033	1892.12
454.758	1904.12
460.477	1882.12
466.189	1865.12
471.896	1839.12
477.596	1833.12
483.29	1809.12
488.978	1829.12
494.66	1803.12
500.335	1742.12
506.005	1671.12
511.668	1607.12
517.325	1533.12
522.977	1469.12
528.622	1433.12
534.261	1392.12
539.894	1361.12
545.521	1333.12
551.141	1304.12
556.756	1314.12
562.365	1297.12
567.968	1312.12
573.565	1279.12
579.155	1281.12
584.74	1268.12
590.319	1275.12
595.892	1282.12
601.459	1257.12
607.02	1258.12
612.575	1263.12
618.124	1249.12
623.667	1211.12
629.204	1202.12
634.735	1198.12
640.261	1180.12
645.781	1141.12
651.294	1154.12
656.802	1174.12
662.304	1176.12
667.8	1158.12
673.29	1141.12
678.775	1163.12
684.254	1140.12
689.726	1120.12
695.193	1127.12
700.655	1132.12
706.11	1130.12
711.56	1116.12
717.004	1118.12
722.442	1103.12
727.874	1090.12
733.301	1097.12
738.722	1074.12
744.137	1102.12
749.547	1087.12
754.951	1071.12
760.349	1071.12
765.741	1098.12
771.128	1094.12
776.509	1090.12
781.885	1137.12
787.254	1138.12
792.618	1125.12
797.977	1139.12
803.33	1125.12
808.677	1110.12
814.019	1117.12
819.355	1083.12
824.686	1090.12
830.011	1084.12
835.33	1090.12
840.644	1078.12
845.952	1069.12
851.255	1077.12
856.552	1035.12
861.844	1040.12
867.13	1012.12
872.41	1017.12
877.686	1008.12
882.955	1007.12
888.219	996.12
893.478	975.12
898.731	973.12
903.979	951.12
909.221	943.12
914.458	941.12
919.69	937.12
924.916	931.12
930.136	936.12
935.351	931.12
940.561	948.12
945.766	941.12
950.965	948.12
956.158	930.12
961.347	918.12
966.529	905.12
971.707	908.12
976.879	888.12
982.046	880.12
987.208	862.12
992.364	875.12
997.515	873.12
1002.66	877.12
1007.801	875.12
1012.936	881.12
1018.066	862.12
1023.19	899.12
1028.309	899.12
1033.423	896.12
1038.532	908.12
1043.636	894.12
1048.734	880.12
1053.827	881.12
1058.915	860.12
1063.998	863.12
1069.075	855.12
1074.147	869.12
1079.214	852.12
1084.276	867.12
1089.333	862.12
1094.385	866.12
1099.431	867.12
1104.472	857.12
1109.509	846.12
1114.54	837.12
1119.565	829.12
1124.586	827.12
1129.602	807.12
1134.613	795.12
1139.618	783.12
1144.619	786.12
1149.614	795.12
1154.604	801.12
1159.589	788.12
1164.57	814.12
1169.545	816.12
1174.515	822.12
1179.48	798.12
1184.44	798.12
1189.395	810.12
1194.345	779.12
1199.29	790.12
1204.23	777.12
1209.165	768.12
1214.095	789.12
1219.021	788.12
1223.941	776.12
1228.856	780.12
1233.766	793.12
1238.672	809.12
1243.572	783.12
1248.467	788.12
1253.358	779.12
1258.244	752.12
1263.124	757.12
1268	756.12
1272.871	716.12
1277.737	716.12
1282.599	714.12
1287.455	711.12
1292.306	727.12
1297.153	715.12
1301.995	719.12
1306.832	717.12
1311.664	711.12
1316.491	725.12
1321.314	722.12
1326.132	707.12
1330.945	705.12
1335.753	703.12
1340.556	687.12
1345.354	663.12
1350.148	660.12
1354.937	666.12
1359.722	647.12
1364.501	630.12
1369.276	638.12
1374.046	651.12
1378.811	634.12
1383.572	644.12
1388.327	645.12
1393.079	620.12
1397.825	636.12
1402.567	614.12
1407.304	619.12
1412.036	607.12
1416.764	611.12
1421.487	601.12
1426.205	607.12
1430.919	606.12
1435.628	606.12
1440.333	611.12
1445.032	620.12
1449.727	623.12
1454.418	625.12
1459.104	622.12
1463.785	605.12
1468.462	608.12
1473.134	600.12
1477.802	591.12
1482.465	560.12
1487.123	566.12
1491.777	545.12
1496.426	544.12
1501.071	567.12
1505.711	560.12
1510.347	568.12
1514.978	578.12
1519.604	557.12
1524.226	571.12
1528.844	557.12
1533.457	564.12
1538.065	561.12
1542.669	562.12
1547.269	559.12
1551.864	549.12
1556.454	543.12
1561.041	545.12
1565.622	540.12
1570.199	561.12
1574.772	547.12
1579.34	566.12
1583.904	562.12
1588.464	578.12
1593.019	587.12
1597.569	562.12
1602.115	558.12
1606.657	557.12
1611.195	576.12
1615.728	578.12
1620.256	564.12
1624.78	528.12
1629.3	551.12
1633.816	568.12
1638.327	555.12
1642.834	568.12
1647.336	552.12
1651.834	586.12
1656.328	569.12
1660.817	553.12
1665.302	549.12
1669.783	543.12
1674.259	529.12
1678.732	521.12
1683.199	514.12
1687.663	493.12
1692.122	492.12
1696.577	472.12
1701.028	469.12
1705.474	455.12
1709.917	449.12
1714.355	455.12
1718.788	442.12
1723.218	426.12
1727.643	414.12
1732.064	420.12
1736.481	406.12
1740.893	412.12
1745.301	402.12
1749.705	374.12
1754.105	398.12
1758.501	379.12
1762.893	381.12
1767.28	346.12
1771.663	364.12
1776.042	353.12
1780.417	350.12
1784.787	358.12
1789.154	362.12
1793.516	355.12
1797.874	344.12
1802.228	339.12
1806.578	341.12
1810.924	344.12
1815.266	236.12
1819.603	351.12
1823.937	331.12
1828.266	340.12
1832.591	339.12
1836.913	329.12
1841.23	325.12
1845.543	318.12
1849.852	329.12
1854.156	323.12
1858.457	317.12
1862.754	314.12
1867.047	324.12
1871.335	338.12
1875.62	330.12
1879.9	319.12
1884.177	316.12
1888.449	314.12
1892.718	319.12
1896.982	318.12
1901.243	301.12
1905.499	306.12
1909.752	304.12
1914	285.12
1918.245	311.12
1922.485	312.12
1926.722	298.12
1930.954	292.12
1935.183	305.12
1939.408	318.12
1943.628	311.12
1947.845	294.12
1952.058	295.12
1956.267	283.12
1960.472	294.12
1964.673	286.12
1968.87	294.12
1973.063	278.12
1977.252	282.12
1981.438	279.12
1985.619	275.12
1989.797	254.12
1993.971	265.12
1998.14	276.12
2002.306	269.12
2006.469	273.12
2010.627	262.12
2014.781	257.12
2018.932	245.12
2023.078	276.12
2027.221	268.12
2031.36	252.12
2035.495	246.12
2039.627	251.12
2043.754	253.12
2047.878	239.12
2051.998	244.12
2056.114	236.12
2060.226	243.12
2064.334	244.12
2068.439	253.12
2072.54	253.12
2076.637	233.12
2080.73	246.12
2084.82	236.12
2088.906	236.12
2092.988	226.12
2097.066	231.12
2101.14	247.12
2105.211	240.12
2109.278	230.12
2113.342	228.12
2117.401	218.12
2121.457	212.12
2125.509	215.12
2129.558	224.12
2133.602	217.12
2137.643	215.12
2141.681	212.12
2145.714	212.12
2149.744	220.12
2153.77	224.12
2157.793	200.12
2161.812	180.12
2165.827	177.12
2169.838	209.12
2173.846	199.12
2177.851	191.12
2181.851	210.12
2185.848	188.12
2189.841	189.12
2193.831	183.12
2197.817	184.12
2201.799	179.12
2205.778	171.12
2209.753	176.12
2213.725	172.12
2217.693	177.12
2221.657	174.12
2225.618	186.12
2229.575	172.12
2233.529	181.12
2237.479	177.12
2241.425	161.12
2245.368	156.12
2249.307	162.12
2253.243	160.12
2257.175	166.12
2261.104	149.12
2265.029	160.12
2268.95	155.12
2272.868	153.12
2276.783	152.12
2280.694	152.12
2284.601	148.12
2288.505	144.12
2292.405	148.12
2296.302	118.12
2300.195	140.12
2304.085	113.12
2307.971	139.12
2311.854	118.12
2315.734	128.12
2319.609	131.12
2323.482	108.12
2327.351	116.12
2331.216	118.12
2335.078	132.12
2338.937	126.12
2342.792	116.12
2346.643	116.12
2350.492	124.12
2354.336	113.12
2358.178	126.12
2362.015	125.12
2365.85	109.12
2369.681	122.12
2373.508	117.12
2377.333	128.12
2381.153	124.12
2384.971	114.12
2388.785	119.12
2392.595	103.12
2396.402	103.12
2400.206	88.12
2404.007	100.12
2407.804	103.12
2411.597	118.12
2415.388	109.12
2419.174	100.12
2422.958	105.12
2426.738	100.12
2430.515	104.12
2434.289	96.12
2438.059	97.12
2441.825	92.12
2445.589	112.12
2449.349	94.12
2453.106	96.12
2456.859	102.12
2460.61	102.12
2464.356	94.12
2468.1	84.12
2471.84	88.12
2475.577	90.12
2479.311	84.12
2483.041	92.12
2486.768	100.12
2490.492	103.12
2494.213	89.12
2497.93	80.12
2501.644	77.12
2505.355	86.12
2509.062	90.12
2512.766	85.12
2516.467	86.12
2520.165	81.12
2523.859	66.12
2527.551	102.12
2531.239	76.12
2534.923	79.12
2538.605	82.12
2542.283	83.12
2545.958	82.12
2549.63	93.12
2553.299	95.12
2556.964	71.12
2560.626	72.12
2564.285	83.12
2567.941	64.12
2571.594	77.12
2575.243	84.12
2578.89	69.12
2582.533	78.12
2586.173	71.12
2589.809	74.12
2593.443	46.12
2597.073	74.12
2600.701	69.12
2604.325	67.12
2607.946	61.12
2611.564	78.12
2615.178	71.12
2618.79	74.12
2622.398	63.12
2626.004	66.12
2629.606	66.12
2633.205	57.12
2636.801	70.12
2640.394	70.12
2643.983	57.12
2647.57	53.12
2651.153	52.12
2654.734	68.12
2658.311	41.12
2661.885	49.12
2665.456	48.12
2669.025	49.12
2672.589	49.12
2676.151	64.12
2679.71	65.12
2683.266	52.12
2686.819	49.12
2690.368	59.12
2693.915	59.12
2697.458	47.12
2700.999	55.12
2704.536	58.12
2708.071	48.12
2711.602	52.12
2715.13	51.12
2718.656	33.12
2722.178	44.12
2725.697	35.12
2729.214	42.12
2732.727	46.12
2736.237	28.12
2739.744	38.12
2743.249	37.12
2746.75	38.12
2750.248	31.12
2753.743	41.12
2757.236	43.12
2760.725	47.12
2764.211	16.12
2767.695	44.12
2771.175	34.12
2774.652	49.12
2778.127	31.12
2781.598	39.12
2785.067	43.12
2788.532	29.12
2791.995	45.12
2795.455	32.12
2798.911	48.12
2802.365	32.12
2805.816	36.12
2809.264	45.12
2812.709	40.12
2816.151	43.12
2819.59	26.12
2823.026	39.12
2826.46	36.12
2829.89	42.12
2833.318	20.12
2836.742	34.12
2840.164	39.12
2843.583	35.12
2846.999	37.12
2850.412	39.12
2853.822	35.12
2857.229	55.12
2860.634	43.12
2864.035	27.12
2867.434	45.12
2870.83	47.12
2874.223	38.12
2877.613	42.12
2881	27.12
2884.385	35.12
2887.766	43.12
2891.145	43.12
2894.521	41.12
2897.894	33.12
2901.264	48.12
2904.631	46.12
2907.996	44.12
2911.358	55.12
2914.717	42.12
2918.073	37.12
2921.426	38.12
2924.777	29.12
2928.124	49.12
2931.469	61.12
2934.811	36.12
2938.15	61.12
2941.487	52.12
2944.821	64.12
2948.152	53.12
2951.48	61.12
2954.805	42.12
2958.128	67.12
2961.447	48.12
2964.765	68.12
2968.079	50.12
2971.39	56.12
2974.699	53.12
2978.005	59.12
2981.308	63.12
2984.609	47.12
2987.907	61.12
2991.202	66.12
2994.494	51.12
2997.784	60.12
3001.07	61.12
3004.355	54.12
3007.636	68.12
3010.915	59.12
3014.191	57.12
3017.464	62.12
3020.734	65.12
3024.002	69.12
3027.267	62.12
3030.53	72.12
3033.789	62.12
3037.046	64.12
3040.301	61.12
3043.552	71.12
3046.801	73.12
3050.048	79.12
3053.291	96.12
3056.532	83.12
3059.771	69.12
3063.006	84.12
3066.239	79.12
3069.469	100.12
3072.697	88.12
3075.922	88.12
3079.144	91.12
3082.364	108.12
3085.581	91.12
3088.795	117.12
3092.007	112.12
3095.216	113.12
3098.423	108.12
3101.627	91.12
3104.828	119.12
3108.026	106.12
3111.222	129.12
3114.416	140.12
3117.607	135.12
3120.795	134.12
3123.98	136.12
3127.163	131.12
3130.344	139.12
3133.521	129.12
3136.696	153.12
3139.869	142.12
3143.039	135.12
3146.206	169.12
3149.371	160.12
3152.533	156.12
3155.693	149.12
3158.85	160.12
3162.005	166.12
3165.157	157.12
3168.306	158.12
3171.453	175.12
3174.597	158.12
3177.739	146.12
3180.878	167.12
3184.014	163.12
3187.149	164.12
3190.28	166.12
3193.409	167.12
3196.536	171.12
3199.659	176.12
3202.781	175.12
3205.9	159.12
3209.016	172.12
3212.13	167.12
3215.241	155.12
3218.35	164.12
3221.456	158.12
3224.56	154.12
3227.661	156.12
3230.76	156.12
3233.856	152.12
3236.95	163.12
3240.041	146.12
3243.13	164.12
3246.216	151.12
3249.3	167.12
3252.382	147.12
3255.46	140.12
3258.537	93.12
3261.611	140.12
3264.682	152.12
3267.751	146.12
3270.818	128.12
3273.882	155.12
3276.943	139.12
3280.002	163.12
3283.059	136.12
3286.113	134.12
3289.165	125.12
3292.214	130.12
3295.261	145.12
3298.306	116.12
3301.348	126.12
3304.387	120.12
3307.425	135.12
3310.459	121.12
3313.492	139.12
3316.521	122.12
3319.549	134.12
3322.574	126.12
3325.597	123.12
3328.617	114.12
3331.635	124.12
3334.65	107.12
3337.663	126.12
3340.674	110.12
3343.682	120.12
3346.688	124.12
3349.691	108.12
3352.692	117.12
3355.691	121.12
3358.687	119.12
3361.681	120.12
3364.673	104.12
3367.662	119.12
3370.649	119.12
3373.633	99.12
3376.615	114.12
3379.595	91.12
3382.572	98.12
3385.547	93.12
3388.52	92.12
3391.49	100.12
3394.458	98.12
3397.424	99.12
3400.387	84.12
3403.348	91.12
3406.307	97.12
3409.263	91.12
3412.217	92.12
3415.168	91.12
3418.118	99.12
3421.065	78.12
3424.009	95.12
3426.951	88.12
3429.891	81.12
3432.829	80.12
3435.764	85.12
3438.697	76.12
3441.628	89.12
3444.557	57.12
3447.483	65.12
3450.407	76.12
3453.328	61.12
3456.247	57.12
3459.164	57.12
3462.079	63.12
3464.991	55.12
3467.902	56.12
3470.809	55.12
3473.715	58.12
3476.618	41.12
3479.519	51.12
3482.418	29.12
3485.315	36.12
3488.209	37.12
3491.101	35.12
3493.99	23.12
3496.878	25.12
3499.763	30.12
3502.646	34.12
3505.527	28.12
3508.405	29.12
3511.281	12.12
3514.155	27.12
3517.027	22.12
3519.897	12.12
3522.764	23.12
3525.629	2.12
3528.492	16.12
3531.352	19.12
3534.211	13.12
3537.067	5.12
3539.921	8.12
3542.773	13.12
3545.622	0.12
3548.469	-1.88
3551.315	-6.88
3554.157	5.12
3556.998	-1.88
3559.837	-0.88
3562.673	-1.88
3565.507	-5.88
3568.339	-15.88
3571.169	-11.88
3573.996	-4.88
3576.822	-21.88
3579.645	-12.88
3582.466	-17.88
3585.285	-2.88
3588.101	-7.88
3590.916	-19.88
3593.728	-8.88
3596.538	-14.88
3599.346	-13.88
3602.152	-18.88
3604.956	-13.88
3607.757	-11.88
3610.556	-25.88
3613.354	-12.88
3616.149	-16.88
3618.942	-10.88
3621.732	-12.88
3624.521	-20.88
3627.307	-28.88
3630.092	-17.88
3632.874	-6.88
3635.654	-21.88
3638.432	-21.88
3641.208	-26.88
3643.982	-18.88
3646.753	-9.88
3649.523	-44.88
3652.29	-26.88
3655.055	-16.88
3657.818	-19.88
3660.579	-21.88
3663.338	-32.88
3666.095	-33.88
3668.849	-53.88
3671.602	-22.88
3674.352	-32.88
3677.101	-17.88
3679.847	-14.88
3682.591	-32.88
3685.333	-37.88
3688.073	-21.88
3690.811	-37.88
3693.547	-40.88
3696.281	-32.88
3699.013	-26.88
3701.742	-32.88
3704.47	-39.88
3707.195	-27.88
3709.919	-28.88
3712.64	-29.88
3715.359	-43.88
3718.076	-21.88
3720.792	-29.88
3723.505	-26.88
3726.216	-22.88
3728.925	-27.88
3731.632	-35.88
3734.336	-31.88
3737.039	-33.88
3739.74	-24.88
3742.439	-52.88
3745.136	-22.88
3747.83	-28.88
3750.523	-21.88
3753.213	-82.88
3755.902	-32.88
3758.589	-43.88
3761.273	-37.88
3763.956	-22.88
3766.636	-44.88
3769.315	-24.88
3771.991	-29.88
3774.665	-38.88
3777.338	-34.88
3780.008	-44.88
3782.677	-31.88
3785.343	-48.88
3788.007	-47.88
3790.67	-26.88
3793.33	-43.88
3795.989	-35.88
3798.645	-30.88
3801.299	-43.88
3803.952	-41.88
3806.602	-34.88
3809.251	-29.88
3811.897	-34.88
3814.542	-29.88
3817.184	-32.88
3819.825	-29.88
3822.463	-45.88
3825.1	-30.88
3827.735	-31.88
3830.367	-40.88
3832.998	-21.88
3835.627	-32.88
3838.253	-24.88
3840.878	-34.88
3843.501	-16.88
3846.122	-26.88
3848.741	-22.88
3851.358	-22.88
3853.973	-45.88
3856.586	-22.88
3859.197	-35.88
3861.806	-29.88
3864.414	-46.88
3867.019	-32.88
3869.622	-25.88
3872.224	-28.88
3874.823	-15.88
3877.421	1.12
3880.016	4.12
3882.61	38.12
3885.202	45.12
3887.792	27.12
3890.38	8.12
3892.966	-24.88
3895.55	-39.88
3898.132	-28.88
3900.713	-25.88
3903.291	-29.88
3905.868	-39.88
3908.442	-31.88
3911.015	-30.88
3913.586	-32.88
3916.155	-35.88
3918.722	-40.88
3921.287	-40.88
3923.85	-47.88
3926.411	-34.88
3928.971	-37.88
3931.528	-33.88
3934.084	-34.88
3936.638	-41.88
3939.19	-29.88
3941.74	-29.88
3944.288	-36.88
3946.834	-31.88
3949.378	-24.88
3951.921	-42.88
3954.462	-32.88
3957	-29.88
3959.537	-21.88
3962.072	-40.88
3964.606	-48.88
3967.137	-41.88
3969.667	-37.88
3972.194	-30.88
3974.72	-41.88
3977.244	-53.88
3979.766	-41.88
3982.286	-38.88
3984.805	-31.88
3987.321	-23.88
3989.836	-27.88
3992.349	-41.88
3994.86	-32.88
3997.369	-42.88
3999.877	-38.88
4002.382	-37.88
4004.886	-30.88
4007.388	-33.88
4009.888	-23.88
4012.386	-31.88
4014.883	-30.88
4017.377	-32.88
4019.87	-29.88
4022.361	-40.88
4024.85	-34.88
4027.338	-33.88
4029.823	-38.88
4032.307	-36.88
4034.789	-32.88
4037.269	-32.88
4039.747	-49.88
4042.224	-25.88
4044.699	-37.88
4047.172	-38.88
4049.643	-27.88
4052.112	-59.88
4054.58	-33.88
4057.046	-46.88
4059.51	-33.88
4061.972	-32.88
4064.432	-48.88
4066.891	-27.88
4069.348	-36.88
4071.803	-32.88
4074.256	-37.88
4076.708	-29.88
4079.158	-33.88
4081.606	-19.88
4084.052	-37.88
4086.497	-30.88
4088.939	-34.88
4091.38	-30.88
4093.819	-29.88
4096.257	2.12
4098.693	-5.88
4101.127	-4.88
4103.559	2.12
4105.989	54.12
4108.418	56.12
4110.845	44.12
4113.27	53.12
4115.694	60.12
4118.115	39.12
4120.535	-28.88
4122.954	-23.88
4125.37	-22.88
4127.785	-29.88
4130.198	-21.88
4132.609	-30.88
4135.019	7.12
4137.427	0.12
4139.833	2.12
4142.237	-2.88
