Data from 2018-3-6_conc=2_n=5_RamanShift_03.txt Node
Date: Tue Mar 06 12:55:19 GMT+02:00 2018
User: LAB3
Spectrometer: QEPB0276
Trigger mode: 0
Integration Time (sec): 3.000000E1
Scans to average: 1
Electric dark correction enabled: true
Nonlinearity correction enabled: false
Boxcar width: 0
XAxis mode: Raman Shifts
Number of Pixels in Spectrum: 1044
>>>>>Begin Spectral Data<<<<<
160.701	171.75
166.742	205.75
172.777	309.75
178.805	629.75
184.826	1424.75
190.841	2860.75
196.849	4497.75
202.85	5756.75
208.845	6247.75
214.833	6288.75
220.815	6234.75
226.789	6258.75
232.758	6304.75
238.719	6295.75
244.674	6299.75
250.623	6267.75
256.565	6206.75
262.5	6150.75
268.429	6117.75
274.351	6128.75
280.267	6123.75
286.176	6150.75
292.079	6120.75
297.975	6157.75
303.865	6181.75
309.748	6215.75
315.625	6197.75
321.495	6237.75
327.359	6233.75
333.217	6251.75
339.068	6298.75
344.912	6325.75
350.751	6342.75
356.583	6366.75
362.408	6424.75
368.227	6444.75
374.04	6440.75
379.847	6510.75
385.647	6529.75
391.44	6561.75
397.228	6609.75
403.009	6641.75
408.784	6635.75
414.553	6694.75
420.315	6739.75
426.071	6729.75
431.821	6727.75
437.565	6724.75
443.302	6665.75
449.033	6676.75
454.758	6644.75
460.477	6608.75
466.189	6518.75
471.896	6446.75
477.596	6408.75
483.29	6367.75
488.978	6375.75
494.66	6322.75
500.335	6152.75
506.005	5861.75
511.668	5550.75
517.325	5256.75
522.977	5018.75
528.622	4870.75
534.261	4705.75
539.894	4632.75
545.521	4547.75
551.141	4481.75
556.756	4428.75
562.365	4437.75
567.968	4344.75
573.565	4328.75
579.155	4296.75
584.74	4285.75
590.319	4276.75
595.892	4256.75
601.459	4264.75
607.02	4239.75
612.575	4215.75
618.124	4164.75
623.667	4093.75
629.204	4033.75
634.735	3976.75
640.261	3943.75
645.781	3868.75
651.294	3874.75
656.802	3861.75
662.304	3855.75
667.8	3847.75
673.29	3821.75
678.775	3814.75
684.254	3807.75
689.726	3798.75
695.193	3792.75
700.655	3742.75
706.11	3702.75
711.56	3730.75
717.004	3685.75
722.442	3651.75
727.874	3662.75
733.301	3662.75
738.722	3626.75
744.137	3626.75
749.547	3621.75
754.951	3617.75
760.349	3628.75
765.741	3656.75
771.128	3638.75
776.509	3727.75
781.885	3781.75
787.254	3835.75
792.618	3825.75
797.977	3828.75
803.33	3802.75
808.677	3789.75
814.019	3748.75
819.355	3721.75
824.686	3663.75
830.011	3633.75
835.33	3641.75
840.644	3615.75
845.952	3563.75
851.255	3535.75
856.552	3512.75
861.844	3469.75
867.13	3446.75
872.41	3398.75
877.686	3387.75
882.955	3374.75
888.219	3315.75
893.478	3268.75
898.731	3238.75
903.979	3194.75
909.221	3132.75
914.458	3130.75
919.69	3129.75
924.916	3140.75
930.136	3137.75
935.351	3140.75
940.561	3127.75
945.766	3134.75
950.965	3116.75
956.158	3076.75
961.347	3069.75
966.529	3036.75
971.707	2983.75
976.879	2955.75
982.046	2910.75
987.208	2900.75
992.364	2900.75
997.515	2904.75
1002.66	2906.75
1007.801	2947.75
1012.936	2984.75
1018.066	2970.75
1023.19	2996.75
1028.309	3013.75
1033.423	3040.75
1038.532	3049.75
1043.636	3003.75
1048.734	2993.75
1053.827	2963.75
1058.915	2923.75
1063.998	2917.75
1069.075	2894.75
1074.147	2906.75
1079.214	2896.75
1084.276	2896.75
1089.333	2936.75
1094.385	2941.75
1099.431	2913.75
1104.472	2892.75
1109.509	2865.75
1114.54	2798.75
1119.565	2773.75
1124.586	2718.75
1129.602	2700.75
1134.613	2670.75
1139.618	2660.75
1144.619	2675.75
1149.614	2669.75
1154.604	2663.75
1159.589	2664.75
1164.57	2727.75
1169.545	2712.75
1174.515	2693.75
1179.48	2685.75
1184.44	2658.75
1189.395	2663.75
1194.345	2618.75
1199.29	2632.75
1204.23	2601.75
1209.165	2598.75
1214.095	2630.75
1219.021	2636.75
1223.941	2631.75
1228.856	2653.75
1233.766	2657.75
1238.672	2673.75
1243.572	2662.75
1248.467	2631.75
1253.358	2585.75
1258.244	2535.75
1263.124	2510.75
1268	2482.75
1272.871	2413.75
1277.737	2412.75
1282.599	2405.75
1287.455	2371.75
1292.306	2390.75
1297.153	2410.75
1301.995	2421.75
1306.832	2437.75
1311.664	2435.75
1316.491	2419.75
1321.314	2403.75
1326.132	2414.75
1330.945	2364.75
1335.753	2316.75
1340.556	2267.75
1345.354	2242.75
1350.148	2235.75
1354.937	2214.75
1359.722	2165.75
1364.501	2154.75
1369.276	2149.75
1374.046	2154.75
1378.811	2129.75
1383.572	2154.75
1388.327	2141.75
1393.079	2104.75
1397.825	2106.75
1402.567	2072.75
1407.304	2053.75
1412.036	2065.75
1416.764	2068.75
1421.487	2044.75
1426.205	2045.75
1430.919	2066.75
1435.628	2061.75
1440.333	2079.75
1445.032	2091.75
1449.727	2104.75
1454.418	2126.75
1459.104	2123.75
1463.785	2074.75
1468.462	2069.75
1473.134	2028.75
1477.802	1990.75
1482.465	1941.75
1487.123	1941.75
1491.777	1916.75
1496.426	1913.75
1501.071	1937.75
1505.711	1930.75
1510.347	1962.75
1514.978	1967.75
1519.604	1956.75
1524.226	1955.75
1528.844	1930.75
1533.457	1933.75
1538.065	1916.75
1542.669	1900.75
1547.269	1886.75
1551.864	1892.75
1556.454	1869.75
1561.041	1863.75
1565.622	1858.75
1570.199	1872.75
1574.772	1869.75
1579.34	1889.75
1583.904	1928.75
1588.464	1927.75
1593.019	1944.75
1597.569	1934.75
1602.115	1943.75
1606.657	1918.75
1611.195	1927.75
1615.728	1908.75
1620.256	1886.75
1624.78	1894.75
1629.3	1894.75
1633.816	1917.75
1638.327	1904.75
1642.834	1936.75
1647.336	1936.75
1651.834	1955.75
1656.328	1951.75
1660.817	1936.75
1665.302	1921.75
1669.783	1912.75
1674.259	1869.75
1678.732	1831.75
1683.199	1817.75
1687.663	1736.75
1692.122	1718.75
1696.577	1675.75
1701.028	1666.75
1705.474	1615.75
1709.917	1593.75
1714.355	1567.75
1718.788	1553.75
1723.218	1522.75
1727.643	1508.75
1732.064	1500.75
1736.481	1447.75
1740.893	1445.75
1745.301	1411.75
1749.705	1377.75
1754.105	1350.75
1758.501	1316.75
1762.893	1298.75
1767.28	1264.75
1771.663	1276.75
1776.042	1254.75
1780.417	1250.75
1784.787	1267.75
1789.154	1256.75
1793.516	1270.75
1797.874	1264.75
1802.228	1245.75
1806.578	1230.75
1810.924	1246.75
1815.266	1136.75
1819.603	1217.75
1823.937	1179.75
1828.266	1183.75
1832.591	1166.75
1836.913	1152.75
1841.23	1135.75
1845.543	1135.75
1849.852	1147.75
1854.156	1147.75
1858.457	1128.75
1862.754	1144.75
1867.047	1143.75
1871.335	1176.75
1875.62	1169.75
1879.9	1164.75
1884.177	1144.75
1888.449	1153.75
1892.718	1145.75
1896.982	1135.75
1901.243	1117.75
1905.499	1113.75
1909.752	1112.75
1914	1100.75
1918.245	1125.75
1922.485	1131.75
1926.722	1125.75
1930.954	1126.75
1935.183	1121.75
1939.408	1143.75
1943.628	1134.75
1947.845	1125.75
1952.058	1113.75
1956.267	1083.75
1960.472	1075.75
1964.673	1071.75
1968.87	1023.75
1973.063	1008.75
1977.252	1012.75
1981.438	993.75
1985.619	976.75
1989.797	964.75
1993.971	970.75
1998.14	989.75
2002.306	955.75
2006.469	976.75
2010.627	952.75
2014.781	961.75
2018.932	948.75
2023.078	967.75
2027.221	943.75
2031.36	917.75
2035.495	919.75
2039.627	915.75
2043.754	903.75
2047.878	894.75
2051.998	895.75
2056.114	891.75
2060.226	892.75
2064.334	903.75
2068.439	900.75
2072.54	904.75
2076.637	889.75
2080.73	904.75
2084.82	896.75
2088.906	905.75
2092.988	904.75
2097.066	901.75
2101.14	901.75
2105.211	880.75
2109.278	865.75
2113.342	866.75
2117.401	842.75
2121.457	831.75
2125.509	824.75
2129.558	822.75
2133.602	823.75
2137.643	814.75
2141.681	799.75
2145.714	802.75
2149.744	802.75
2153.77	775.75
2157.793	767.75
2161.812	752.75
2165.827	734.75
2169.838	766.75
2173.846	733.75
2177.851	713.75
2181.851	724.75
2185.848	708.75
2189.841	704.75
2193.831	693.75
2197.817	690.75
2201.799	684.75
2205.778	665.75
2209.753	667.75
2213.725	673.75
2217.693	674.75
2221.657	662.75
2225.618	671.75
2229.575	658.75
2233.529	657.75
2237.479	654.75
2241.425	623.75
2245.368	626.75
2249.307	630.75
2253.243	610.75
2257.175	617.75
2261.104	593.75
2265.029	599.75
2268.95	593.75
2272.868	570.75
2276.783	557.75
2280.694	564.75
2284.601	550.75
2288.505	551.75
2292.405	542.75
2296.302	533.75
2300.195	522.75
2304.085	498.75
2307.971	518.75
2311.854	494.75
2315.734	505.75
2319.609	506.75
2323.482	467.75
2327.351	470.75
2331.216	472.75
2335.078	487.75
2338.937	480.75
2342.792	465.75
2346.643	459.75
2350.492	474.75
2354.336	464.75
2358.178	472.75
2362.015	465.75
2365.85	466.75
2369.681	467.75
2373.508	465.75
2377.333	472.75
2381.153	473.75
2384.971	454.75
2388.785	458.75
2392.595	453.75
2396.402	447.75
2400.206	425.75
2404.007	439.75
2407.804	444.75
2411.597	454.75
2415.388	438.75
2419.174	436.75
2422.958	434.75
2426.738	430.75
2430.515	430.75
2434.289	413.75
2438.059	429.75
2441.825	410.75
2445.589	428.75
2449.349	402.75
2453.106	417.75
2456.859	403.75
2460.61	406.75
2464.356	393.75
2468.1	378.75
2471.84	387.75
2475.577	385.75
2479.311	379.75
2483.041	381.75
2486.768	390.75
2490.492	406.75
2494.213	385.75
2497.93	375.75
2501.644	360.75
2505.355	368.75
2509.062	376.75
2512.766	375.75
2516.467	364.75
2520.165	370.75
2523.859	359.75
2527.551	378.75
2531.239	351.75
2534.923	359.75
2538.605	355.75
2542.283	359.75
2545.958	362.75
2549.63	366.75
2553.299	360.75
2556.964	343.75
2560.626	366.75
2564.285	335.75
2567.941	334.75
2571.594	338.75
2575.243	347.75
2578.89	336.75
2582.533	331.75
2586.173	336.75
2589.809	339.75
2593.443	297.75
2597.073	327.75
2600.701	318.75
2604.325	311.75
2607.946	311.75
2611.564	324.75
2615.178	319.75
2618.79	305.75
2622.398	305.75
2626.004	307.75
2629.606	307.75
2633.205	290.75
2636.801	299.75
2640.394	296.75
2643.983	289.75
2647.57	289.75
2651.153	268.75
2654.734	288.75
2658.311	253.75
2661.885	265.75
2665.456	267.75
2669.025	263.75
2672.589	259.75
2676.151	273.75
2679.71	273.75
2683.266	256.75
2686.819	251.75
2690.368	257.75
2693.915	260.75
2697.458	246.75
2700.999	253.75
2704.536	253.75
2708.071	238.75
2711.602	245.75
2715.13	236.75
2718.656	218.75
2722.178	235.75
2725.697	216.75
2729.214	228.75
2732.727	229.75
2736.237	216.75
2739.744	228.75
2743.249	227.75
2746.75	232.75
2750.248	225.75
2753.743	225.75
2757.236	223.75
2760.725	230.75
2764.211	196.75
2767.695	226.75
2771.175	213.75
2774.652	228.75
2778.127	214.75
2781.598	213.75
2785.067	221.75
2788.532	209.75
2791.995	223.75
2795.455	210.75
2798.911	224.75
2802.365	216.75
2805.816	225.75
2809.264	236.75
2812.709	210.75
2816.151	220.75
2819.59	209.75
2823.026	205.75
2826.46	216.75
2829.89	233.75
2833.318	197.75
2836.742	216.75
2840.164	226.75
2843.583	226.75
2846.999	228.75
2850.412	230.75
2853.822	226.75
2857.229	235.75
2860.634	240.75
2864.035	220.75
2867.434	240.75
2870.83	252.75
2874.223	247.75
2877.613	245.75
2881	244.75
2884.385	249.75
2887.766	250.75
2891.145	245.75
2894.521	249.75
2897.894	235.75
2901.264	259.75
2904.631	249.75
2907.996	256.75
2911.358	269.75
2914.717	263.75
2918.073	260.75
2921.426	255.75
2924.777	251.75
2928.124	255.75
2931.469	271.75
2934.811	271.75
2938.15	291.75
2941.487	293.75
2944.821	296.75
2948.152	285.75
2951.48	293.75
2954.805	271.75
2958.128	299.75
2961.447	284.75
2964.765	297.75
2968.079	286.75
2971.39	285.75
2974.699	292.75
2978.005	288.75
2981.308	291.75
2984.609	293.75
2987.907	306.75
2991.202	310.75
2994.494	296.75
2997.784	317.75
3001.07	309.75
3004.355	313.75
3007.636	318.75
3010.915	327.75
3014.191	313.75
3017.464	329.75
3020.734	326.75
3024.002	325.75
3027.267	324.75
3030.53	328.75
3033.789	330.75
3037.046	332.75
3040.301	328.75
3043.552	344.75
3046.801	349.75
3050.048	372.75
3053.291	379.75
3056.532	379.75
3059.771	374.75
3063.006	400.75
3066.239	400.75
3069.469	416.75
3072.697	417.75
3075.922	430.75
3079.144	432.75
3082.364	460.75
3085.581	459.75
3088.795	480.75
3092.007	481.75
3095.216	503.75
3098.423	498.75
3101.627	487.75
3104.828	508.75
3108.026	525.75
3111.222	551.75
3114.416	560.75
3117.607	554.75
3120.795	566.75
3123.98	578.75
3127.163	579.75
3130.344	606.75
3133.521	590.75
3136.696	649.75
3139.869	642.75
3143.039	631.75
3146.206	664.75
3149.371	668.75
3152.533	672.75
3155.693	669.75
3158.85	673.75
3162.005	690.75
3165.157	680.75
3168.306	688.75
3171.453	703.75
3174.597	692.75
3177.739	686.75
3180.878	714.75
3184.014	688.75
3187.149	698.75
3190.28	700.75
3193.409	705.75
3196.536	706.75
3199.659	723.75
3202.781	711.75
3205.9	697.75
3209.016	706.75
3212.13	709.75
3215.241	705.75
3218.35	701.75
3221.456	699.75
3224.56	685.75
3227.661	683.75
3230.76	676.75
3233.856	671.75
3236.95	664.75
3240.041	662.75
3243.13	670.75
3246.216	665.75
3249.3	662.75
3252.382	658.75
3255.46	642.75
3258.537	605.75
3261.611	641.75
3264.682	650.75
3267.751	643.75
3270.818	630.75
3273.882	646.75
3276.943	641.75
3280.002	637.75
3283.059	627.75
3286.113	613.75
3289.165	612.75
3292.214	603.75
3295.261	604.75
3298.306	557.75
3301.348	584.75
3304.387	569.75
3307.425	584.75
3310.459	561.75
3313.492	564.75
3316.521	557.75
3319.549	557.75
3322.574	553.75
3325.597	541.75
3328.617	525.75
3331.635	523.75
3334.65	509.75
3337.663	518.75
3340.674	526.75
3343.682	524.75
3346.688	529.75
3349.691	505.75
3352.692	511.75
3355.691	516.75
3358.687	507.75
3361.681	506.75
3364.673	509.75
3367.662	498.75
3370.649	506.75
3373.633	479.75
3376.615	489.75
3379.595	471.75
3382.572	458.75
3385.547	458.75
3388.52	450.75
3391.49	452.75
3394.458	448.75
3397.424	445.75
3400.387	428.75
3403.348	429.75
3406.307	428.75
3409.263	417.75
3412.217	433.75
3415.168	423.75
3418.118	425.75
3421.065	404.75
3424.009	412.75
3426.951	400.75
3429.891	401.75
3432.829	400.75
3435.764	391.75
3438.697	365.75
3441.628	383.75
3444.557	355.75
3447.483	342.75
3450.407	345.75
3453.328	331.75
3456.247	325.75
3459.164	309.75
3462.079	333.75
3464.991	305.75
3467.902	297.75
3470.809	287.75
3473.715	293.75
3476.618	274.75
3479.519	272.75
3482.418	254.75
3485.315	251.75
3488.209	247.75
3491.101	244.75
3493.99	223.75
3496.878	218.75
3499.763	230.75
3502.646	224.75
3505.527	198.75
3508.405	200.75
3511.281	188.75
3514.155	191.75
3517.027	184.75
3519.897	166.75
3522.764	176.75
3525.629	154.75
3528.492	157.75
3531.352	153.75
3534.211	155.75
3537.067	136.75
3539.921	135.75
3542.773	130.75
3545.622	114.75
3548.469	112.75
3551.315	109.75
3554.157	107.75
3556.998	92.75
3559.837	104.75
3562.673	102.75
3565.507	84.75
3568.339	82.75
3571.169	83.75
3573.996	77.75
3576.822	55.75
3579.645	70.75
3582.466	70.75
3585.285	70.75
3588.101	61.75
3590.916	59.75
3593.728	59.75
3596.538	52.75
3599.346	59.75
3602.152	39.75
3604.956	52.75
3607.757	48.75
3610.556	25.75
3613.354	44.75
3616.149	39.75
3618.942	36.75
3621.732	37.75
3624.521	26.75
3627.307	15.75
3630.092	23.75
3632.874	32.75
3635.654	24.75
3638.432	16.75
3641.208	14.75
3643.982	15.75
3646.753	21.75
3649.523	-13.25
3652.29	8.75
3655.055	17.75
3657.818	9.75
3660.579	2.75
3663.338	-4.25
3666.095	1.75
3668.849	-22.25
3671.602	6.75
3674.352	-14.25
3677.101	5.75
3679.847	4.75
3682.591	-4.25
3685.333	-18.25
3688.073	-3.25
3690.811	-15.25
3693.547	-23.25
3696.281	-20.25
3699.013	-8.25
3701.742	-16.25
3704.47	-22.25
3707.195	-9.25
3709.919	-10.25
3712.64	-15.25
3715.359	-27.25
3718.076	-5.25
3720.792	-14.25
3723.505	-13.25
3726.216	-5.25
3728.925	-18.25
3731.632	-25.25
3734.336	-21.25
3737.039	-15.25
3739.74	-14.25
3742.439	-40.25
3745.136	-13.25
3747.83	-15.25
3750.523	-7.25
3753.213	-83.25
3755.902	-20.25
3758.589	-37.25
3761.273	-27.25
3763.956	-14.25
3766.636	-31.25
3769.315	-13.25
3771.991	-27.25
3774.665	-26.25
3777.338	-22.25
3780.008	-31.25
3782.677	-24.25
3785.343	-42.25
3788.007	-46.25
3790.67	-19.25
3793.33	-34.25
3795.989	-28.25
3798.645	-25.25
3801.299	-35.25
3803.952	-34.25
3806.602	-31.25
3809.251	-17.25
3811.897	-28.25
3814.542	-26.25
3817.184	-33.25
3819.825	-30.25
3822.463	-37.25
3825.1	-32.25
3827.735	-26.25
3830.367	-34.25
3832.998	-14.25
3835.627	-28.25
3838.253	-19.25
3840.878	-25.25
3843.501	-13.25
3846.122	-25.25
3848.741	-21.25
3851.358	-19.25
3853.973	-40.25
3856.586	-18.25
3859.197	-35.25
3861.806	-27.25
3864.414	-40.25
3867.019	-24.25
3869.622	-16.25
3872.224	-4.25
3874.823	9.75
3877.421	36.75
3880.016	65.75
3882.61	114.75
3885.202	127.75
3887.792	97.75
3890.38	53.75
3892.966	4.75
3895.55	-21.25
3898.132	-13.25
3900.713	-18.25
3903.291	-24.25
3905.868	-35.25
3908.442	-27.25
3911.015	-28.25
3913.586	-32.25
3916.155	-34.25
3918.722	-32.25
3921.287	-33.25
3923.85	-39.25
3926.411	-36.25
3928.971	-31.25
3931.528	-26.25
3934.084	-36.25
3936.638	-41.25
3939.19	-26.25
3941.74	-30.25
3944.288	-33.25
3946.834	-34.25
3949.378	-22.25
3951.921	-33.25
3954.462	-29.25
3957	-29.25
3959.537	-13.25
3962.072	-30.25
3964.606	-46.25
3967.137	-29.25
3969.667	-33.25
3972.194	-25.25
3974.72	-33.25
3977.244	-51.25
3979.766	-34.25
3982.286	-38.25
3984.805	-23.25
3987.321	-19.25
3989.836	-20.25
3992.349	-32.25
3994.86	-30.25
3997.369	-33.25
3999.877	-23.25
4002.382	-31.25
4004.886	-24.25
4007.388	-26.25
4009.888	-21.25
4012.386	-20.25
4014.883	-27.25
4017.377	-27.25
4019.87	-18.25
4022.361	-34.25
4024.85	-28.25
4027.338	-24.25
4029.823	-33.25
4032.307	-31.25
4034.789	-26.25
4037.269	-26.25
4039.747	-39.25
4042.224	-18.25
4044.699	-33.25
4047.172	-35.25
4049.643	-24.25
4052.112	-55.25
4054.58	-30.25
4057.046	-36.25
4059.51	-26.25
4061.972	-25.25
4064.432	-44.25
4066.891	-15.25
4069.348	-28.25
4071.803	-30.25
4074.256	-32.25
4076.708	-19.25
4079.158	-24.25
4081.606	-18.25
4084.052	-30.25
4086.497	-21.25
4088.939	-26.25
4091.38	-31.25
4093.819	-19.25
4096.257	-1.25
4098.693	-5.25
4101.127	-8.25
4103.559	2.75
4105.989	148.75
4108.418	152.75
4110.845	142.75
4113.27	146.75
4115.694	151.75
4118.115	151.75
4120.535	-20.25
4122.954	-15.25
4125.37	-14.25
4127.785	-21.25
4130.198	-17.25
4132.609	-24.25
4135.019	11.75
4137.427	-1.25
4139.833	5.75
4142.237	-4.25
