Data from 2018-3-6_conc=4_n=8_RamanShift_04.txt Node
Date: Tue Mar 06 14:14:18 GMT+02:00 2018
User: LAB3
Spectrometer: QEPB0276
Trigger mode: 0
Integration Time (sec): 3.000000E1
Scans to average: 1
Electric dark correction enabled: true
Nonlinearity correction enabled: false
Boxcar width: 0
XAxis mode: Raman Shifts
Number of Pixels in Spectrum: 1044
>>>>>Begin Spectral Data<<<<<
160.701	55.75
166.742	81.75
172.777	126.75
178.805	253.75
184.826	594.75
190.841	1210.75
196.849	1900.75
202.85	2422.75
208.845	2594.75
214.833	2586.75
220.815	2507.75
226.789	2498.75
232.758	2513.75
238.719	2476.75
244.674	2452.75
250.623	2413.75
256.565	2404.75
262.5	2342.75
268.429	2324.75
274.351	2298.75
280.267	2296.75
286.176	2268.75
292.079	2298.75
297.975	2279.75
303.865	2247.75
309.748	2265.75
315.625	2263.75
321.495	2274.75
327.359	2260.75
333.217	2265.75
339.068	2266.75
344.912	2278.75
350.751	2263.75
356.583	2282.75
362.408	2288.75
368.227	2283.75
374.04	2299.75
379.847	2281.75
385.647	2331.75
391.44	2310.75
397.228	2303.75
403.009	2312.75
408.784	2331.75
414.553	2337.75
420.315	2340.75
426.071	2334.75
431.821	2353.75
437.565	2344.75
443.302	2328.75
449.033	2319.75
454.758	2318.75
460.477	2294.75
466.189	2281.75
471.896	2259.75
477.596	2252.75
483.29	2218.75
488.978	2209.75
494.66	2205.75
500.335	2163.75
506.005	2071.75
511.668	1969.75
517.325	1880.75
522.977	1824.75
528.622	1769.75
534.261	1746.75
539.894	1674.75
545.521	1671.75
551.141	1630.75
556.756	1624.75
562.365	1614.75
567.968	1610.75
573.565	1593.75
579.155	1591.75
584.74	1569.75
590.319	1579.75
595.892	1582.75
601.459	1570.75
607.02	1580.75
612.575	1567.75
618.124	1549.75
623.667	1515.75
629.204	1500.75
634.735	1486.75
640.261	1463.75
645.781	1432.75
651.294	1436.75
656.802	1451.75
662.304	1447.75
667.8	1458.75
673.29	1431.75
678.775	1435.75
684.254	1429.75
689.726	1406.75
695.193	1414.75
700.655	1398.75
706.11	1393.75
711.56	1378.75
717.004	1380.75
722.442	1348.75
727.874	1359.75
733.301	1373.75
738.722	1348.75
744.137	1339.75
749.547	1343.75
754.951	1350.75
760.349	1355.75
765.741	1362.75
771.128	1354.75
776.509	1386.75
781.885	1403.75
787.254	1390.75
792.618	1391.75
797.977	1400.75
803.33	1412.75
808.677	1395.75
814.019	1376.75
819.355	1372.75
824.686	1346.75
830.011	1344.75
835.33	1359.75
840.644	1347.75
845.952	1315.75
851.255	1323.75
856.552	1299.75
861.844	1292.75
867.13	1270.75
872.41	1259.75
877.686	1265.75
882.955	1261.75
888.219	1251.75
893.478	1220.75
898.731	1216.75
903.979	1200.75
909.221	1177.75
914.458	1163.75
919.69	1183.75
924.916	1176.75
930.136	1183.75
935.351	1170.75
940.561	1181.75
945.766	1175.75
950.965	1179.75
956.158	1165.75
961.347	1133.75
966.529	1138.75
971.707	1136.75
976.879	1108.75
982.046	1105.75
987.208	1092.75
992.364	1098.75
997.515	1080.75
1002.66	1102.75
1007.801	1101.75
1012.936	1118.75
1018.066	1091.75
1023.19	1140.75
1028.309	1129.75
1033.423	1117.75
1038.532	1128.75
1043.636	1114.75
1048.734	1107.75
1053.827	1092.75
1058.915	1090.75
1063.998	1082.75
1069.075	1059.75
1074.147	1090.75
1079.214	1067.75
1084.276	1085.75
1089.333	1075.75
1094.385	1086.75
1099.431	1079.75
1104.472	1081.75
1109.509	1060.75
1114.54	1041.75
1119.565	1043.75
1124.586	1029.75
1129.602	1012.75
1134.613	987.75
1139.618	1003.75
1144.619	991.75
1149.614	988.75
1154.604	989.75
1159.589	1012.75
1164.57	1015.75
1169.545	1024.75
1174.515	1014.75
1179.48	998.75
1184.44	993.75
1189.395	996.75
1194.345	980.75
1199.29	997.75
1204.23	963.75
1209.165	952.75
1214.095	982.75
1219.021	975.75
1223.941	956.75
1228.856	986.75
1233.766	1003.75
1238.672	997.75
1243.572	987.75
1248.467	999.75
1253.358	975.75
1258.244	937.75
1263.124	956.75
1268	926.75
1272.871	898.75
1277.737	914.75
1282.599	902.75
1287.455	908.75
1292.306	902.75
1297.153	878.75
1301.995	887.75
1306.832	898.75
1311.664	887.75
1316.491	901.75
1321.314	912.75
1326.132	876.75
1330.945	882.75
1335.753	859.75
1340.556	847.75
1345.354	831.75
1350.148	837.75
1354.937	821.75
1359.722	804.75
1364.501	800.75
1369.276	805.75
1374.046	814.75
1378.811	806.75
1383.572	799.75
1388.327	801.75
1393.079	781.75
1397.825	766.75
1402.567	762.75
1407.304	771.75
1412.036	758.75
1416.764	763.75
1421.487	757.75
1426.205	759.75
1430.919	761.75
1435.628	755.75
1440.333	761.75
1445.032	781.75
1449.727	774.75
1454.418	773.75
1459.104	780.75
1463.785	745.75
1468.462	775.75
1473.134	758.75
1477.802	741.75
1482.465	701.75
1487.123	718.75
1491.777	694.75
1496.426	673.75
1501.071	707.75
1505.711	684.75
1510.347	710.75
1514.978	698.75
1519.604	704.75
1524.226	726.75
1528.844	689.75
1533.457	703.75
1538.065	693.75
1542.669	709.75
1547.269	702.75
1551.864	702.75
1556.454	680.75
1561.041	679.75
1565.622	686.75
1570.199	690.75
1574.772	694.75
1579.34	699.75
1583.904	717.75
1588.464	721.75
1593.019	729.75
1597.569	708.75
1602.115	705.75
1606.657	698.75
1611.195	716.75
1615.728	702.75
1620.256	701.75
1624.78	684.75
1629.3	690.75
1633.816	692.75
1638.327	685.75
1642.834	716.75
1647.336	700.75
1651.834	726.75
1656.328	710.75
1660.817	701.75
1665.302	687.75
1669.783	675.75
1674.259	660.75
1678.732	662.75
1683.199	640.75
1687.663	610.75
1692.122	620.75
1696.577	599.75
1701.028	604.75
1705.474	562.75
1709.917	570.75
1714.355	559.75
1718.788	561.75
1723.218	549.75
1727.643	531.75
1732.064	532.75
1736.481	523.75
1740.893	519.75
1745.301	511.75
1749.705	474.75
1754.105	492.75
1758.501	459.75
1762.893	477.75
1767.28	438.75
1771.663	452.75
1776.042	444.75
1780.417	440.75
1784.787	438.75
1789.154	459.75
1793.516	441.75
1797.874	440.75
1802.228	438.75
1806.578	417.75
1810.924	442.75
1815.266	338.75
1819.603	438.75
1823.937	423.75
1828.266	426.75
1832.591	425.75
1836.913	414.75
1841.23	416.75
1845.543	401.75
1849.852	413.75
1854.156	407.75
1858.457	416.75
1862.754	399.75
1867.047	410.75
1871.335	417.75
1875.62	414.75
1879.9	404.75
1884.177	406.75
1888.449	408.75
1892.718	404.75
1896.982	406.75
1901.243	374.75
1905.499	392.75
1909.752	385.75
1914	369.75
1918.245	398.75
1922.485	388.75
1926.722	381.75
1930.954	375.75
1935.183	385.75
1939.408	400.75
1943.628	393.75
1947.845	386.75
1952.058	376.75
1956.267	369.75
1960.472	373.75
1964.673	368.75
1968.87	357.75
1973.063	361.75
1977.252	355.75
1981.438	343.75
1985.619	337.75
1989.797	337.75
1993.971	342.75
1998.14	347.75
2002.306	339.75
2006.469	349.75
2010.627	324.75
2014.781	337.75
2018.932	324.75
2023.078	350.75
2027.221	334.75
2031.36	320.75
2035.495	327.75
2039.627	319.75
2043.754	323.75
2047.878	317.75
2051.998	301.75
2056.114	302.75
2060.226	305.75
2064.334	307.75
2068.439	321.75
2072.54	323.75
2076.637	306.75
2080.73	305.75
2084.82	303.75
2088.906	297.75
2092.988	297.75
2097.066	302.75
2101.14	308.75
2105.211	310.75
2109.278	291.75
2113.342	289.75
2117.401	277.75
2121.457	267.75
2125.509	270.75
2129.558	288.75
2133.602	286.75
2137.643	279.75
2141.681	277.75
2145.714	273.75
2149.744	278.75
2153.77	266.75
2157.793	264.75
2161.812	237.75
2165.827	241.75
2169.838	266.75
2173.846	248.75
2177.851	244.75
2181.851	257.75
2185.848	243.75
2189.841	243.75
2193.831	229.75
2197.817	234.75
2201.799	237.75
2205.778	225.75
2209.753	231.75
2213.725	223.75
2217.693	230.75
2221.657	215.75
2225.618	222.75
2229.575	228.75
2233.529	222.75
2237.479	217.75
2241.425	211.75
2245.368	209.75
2249.307	218.75
2253.243	204.75
2257.175	205.75
2261.104	199.75
2265.029	197.75
2268.95	206.75
2272.868	187.75
2276.783	188.75
2280.694	193.75
2284.601	194.75
2288.505	188.75
2292.405	188.75
2296.302	171.75
2300.195	184.75
2304.085	145.75
2307.971	173.75
2311.854	155.75
2315.734	174.75
2319.609	175.75
2323.482	147.75
2327.351	156.75
2331.216	162.75
2335.078	169.75
2338.937	162.75
2342.792	153.75
2346.643	145.75
2350.492	166.75
2354.336	144.75
2358.178	158.75
2362.015	155.75
2365.85	158.75
2369.681	158.75
2373.508	157.75
2377.333	166.75
2381.153	163.75
2384.971	152.75
2388.785	164.75
2392.595	148.75
2396.402	141.75
2400.206	125.75
2404.007	144.75
2407.804	140.75
2411.597	147.75
2415.388	134.75
2419.174	135.75
2422.958	148.75
2426.738	139.75
2430.515	144.75
2434.289	128.75
2438.059	130.75
2441.825	130.75
2445.589	144.75
2449.349	118.75
2453.106	134.75
2456.859	131.75
2460.61	136.75
2464.356	117.75
2468.1	111.75
2471.84	114.75
2475.577	112.75
2479.311	113.75
2483.041	121.75
2486.768	131.75
2490.492	132.75
2494.213	117.75
2497.93	112.75
2501.644	104.75
2505.355	115.75
2509.062	110.75
2512.766	113.75
2516.467	107.75
2520.165	106.75
2523.859	100.75
2527.551	133.75
2531.239	107.75
2534.923	109.75
2538.605	108.75
2542.283	101.75
2545.958	109.75
2549.63	116.75
2553.299	115.75
2556.964	96.75
2560.626	98.75
2564.285	104.75
2567.941	94.75
2571.594	86.75
2575.243	106.75
2578.89	94.75
2582.533	97.75
2586.173	97.75
2589.809	99.75
2593.443	73.75
2597.073	91.75
2600.701	98.75
2604.325	91.75
2607.946	84.75
2611.564	99.75
2615.178	101.75
2618.79	91.75
2622.398	82.75
2626.004	93.75
2629.606	92.75
2633.205	76.75
2636.801	90.75
2640.394	93.75
2643.983	86.75
2647.57	83.75
2651.153	77.75
2654.734	85.75
2658.311	61.75
2661.885	74.75
2665.456	80.75
2669.025	78.75
2672.589	68.75
2676.151	86.75
2679.71	80.75
2683.266	74.75
2686.819	65.75
2690.368	73.75
2693.915	80.75
2697.458	78.75
2700.999	81.75
2704.536	75.75
2708.071	69.75
2711.602	74.75
2715.13	70.75
2718.656	47.75
2722.178	69.75
2725.697	50.75
2729.214	59.75
2732.727	70.75
2736.237	47.75
2739.744	55.75
2743.249	55.75
2746.75	59.75
2750.248	55.75
2753.743	59.75
2757.236	59.75
2760.725	63.75
2764.211	29.75
2767.695	55.75
2771.175	56.75
2774.652	59.75
2778.127	53.75
2781.598	52.75
2785.067	60.75
2788.532	47.75
2791.995	58.75
2795.455	50.75
2798.911	61.75
2802.365	53.75
2805.816	58.75
2809.264	65.75
2812.709	50.75
2816.151	57.75
2819.59	50.75
2823.026	52.75
2826.46	49.75
2829.89	64.75
2833.318	40.75
2836.742	51.75
2840.164	57.75
2843.583	52.75
2846.999	52.75
2850.412	52.75
2853.822	52.75
2857.229	62.75
2860.634	58.75
2864.035	45.75
2867.434	65.75
2870.83	64.75
2874.223	52.75
2877.613	60.75
2881	47.75
2884.385	52.75
2887.766	59.75
2891.145	57.75
2894.521	56.75
2897.894	51.75
2901.264	64.75
2904.631	65.75
2907.996	71.75
2911.358	69.75
2914.717	63.75
2918.073	61.75
2921.426	63.75
2924.777	43.75
2928.124	56.75
2931.469	74.75
2934.811	54.75
2938.15	85.75
2941.487	73.75
2944.821	88.75
2948.152	68.75
2951.48	82.75
2954.805	61.75
2958.128	84.75
2961.447	75.75
2964.765	90.75
2968.079	69.75
2971.39	76.75
2974.699	75.75
2978.005	85.75
2981.308	78.75
2984.609	69.75
2987.907	86.75
2991.202	84.75
2994.494	72.75
2997.784	80.75
3001.07	81.75
3004.355	79.75
3007.636	83.75
3010.915	84.75
3014.191	83.75
3017.464	82.75
3020.734	82.75
3024.002	84.75
3027.267	84.75
3030.53	94.75
3033.789	94.75
3037.046	88.75
3040.301	91.75
3043.552	94.75
3046.801	96.75
3050.048	99.75
3053.291	125.75
3056.532	105.75
3059.771	101.75
3063.006	119.75
3066.239	106.75
3069.469	120.75
3072.697	114.75
3075.922	122.75
3079.144	113.75
3082.364	139.75
3085.581	131.75
3088.795	149.75
3092.007	135.75
3095.216	148.75
3098.423	144.75
3101.627	128.75
3104.828	152.75
3108.026	144.75
3111.222	171.75
3114.416	170.75
3117.607	169.75
3120.795	171.75
3123.98	165.75
3127.163	162.75
3130.344	173.75
3133.521	172.75
3136.696	192.75
3139.869	189.75
3143.039	177.75
3146.206	205.75
3149.371	210.75
3152.533	202.75
3155.693	194.75
3158.85	204.75
3162.005	202.75
3165.157	205.75
3168.306	202.75
3171.453	213.75
3174.597	196.75
3177.739	205.75
3180.878	213.75
3184.014	214.75
3187.149	209.75
3190.28	214.75
3193.409	220.75
3196.536	208.75
3199.659	225.75
3202.781	219.75
3205.9	203.75
3209.016	213.75
3212.13	211.75
3215.241	208.75
3218.35	214.75
3221.456	200.75
3224.56	200.75
3227.661	202.75
3230.76	198.75
3233.856	188.75
3236.95	203.75
3240.041	188.75
3243.13	207.75
3246.216	191.75
3249.3	198.75
3252.382	195.75
3255.46	189.75
3258.537	139.75
3261.611	183.75
3264.682	181.75
3267.751	188.75
3270.818	168.75
3273.882	186.75
3276.943	180.75
3280.002	192.75
3283.059	172.75
3286.113	172.75
3289.165	171.75
3292.214	158.75
3295.261	183.75
3298.306	159.75
3301.348	173.75
3304.387	153.75
3307.425	167.75
3310.459	161.75
3313.492	171.75
3316.521	157.75
3319.549	169.75
3322.574	158.75
3325.597	157.75
3328.617	153.75
3331.635	150.75
3334.65	134.75
3337.663	154.75
3340.674	148.75
3343.682	154.75
3346.688	158.75
3349.691	145.75
3352.692	153.75
3355.691	154.75
3358.687	149.75
3361.681	148.75
3364.673	139.75
3367.662	142.75
3370.649	157.75
3373.633	131.75
3376.615	141.75
3379.595	118.75
3382.572	134.75
3385.547	125.75
3388.52	122.75
3391.49	126.75
3394.458	121.75
3397.424	127.75
3400.387	122.75
3403.348	119.75
3406.307	126.75
3409.263	121.75
3412.217	125.75
3415.168	117.75
3418.118	132.75
3421.065	112.75
3424.009	118.75
3426.951	108.75
3429.891	109.75
3432.829	108.75
3435.764	107.75
3438.697	101.75
3441.628	107.75
3444.557	85.75
3447.483	82.75
3450.407	95.75
3453.328	84.75
3456.247	83.75
3459.164	69.75
3462.079	93.75
3464.991	76.75
3467.902	71.75
3470.809	65.75
3473.715	69.75
3476.618	62.75
3479.519	62.75
3482.418	42.75
3485.315	49.75
3488.209	54.75
3491.101	57.75
3493.99	32.75
3496.878	43.75
3499.763	41.75
3502.646	42.75
3505.527	34.75
3508.405	29.75
3511.281	25.75
3514.155	44.75
3517.027	32.75
3519.897	24.75
3522.764	36.75
3525.629	7.75
3528.492	18.75
3531.352	26.75
3534.211	21.75
3537.067	13.75
3539.921	17.75
3542.773	22.75
3545.622	2.75
3548.469	5.75
3551.315	2.75
3554.157	7.75
3556.998	0.75
3559.837	2.75
3562.673	8.75
3565.507	-3.25
3568.339	-8.25
3571.169	1.75
3573.996	2.75
3576.822	-21.25
3579.645	-12.25
3582.466	-16.25
3585.285	-3.25
3588.101	-11.25
3590.916	-14.25
3593.728	-0.25
3596.538	-17.25
3599.346	-7.25
3602.152	-21.25
3604.956	-12.25
3607.757	-9.25
3610.556	-26.25
3613.354	-7.25
3616.149	-12.25
3618.942	-6.25
3621.732	-8.25
3624.521	-17.25
3627.307	-27.25
3630.092	-21.25
3632.874	-7.25
3635.654	-20.25
3638.432	-22.25
3641.208	-20.25
3643.982	-16.25
3646.753	-13.25
3649.523	-44.25
3652.29	-22.25
3655.055	-16.25
3657.818	-16.25
3660.579	-26.25
3663.338	-33.25
3666.095	-27.25
3668.849	-50.25
3671.602	-19.25
3674.352	-35.25
3677.101	-19.25
3679.847	-16.25
3682.591	-29.25
3685.333	-37.25
3688.073	-27.25
3690.811	-32.25
3693.547	-43.25
3696.281	-40.25
3699.013	-28.25
3701.742	-30.25
3704.47	-37.25
3707.195	-28.25
3709.919	-29.25
3712.64	-28.25
3715.359	-41.25
3718.076	-21.25
3720.792	-29.25
3723.505	-27.25
3726.216	-21.25
3728.925	-32.25
3731.632	-36.25
3734.336	-28.25
3737.039	-30.25
3739.74	-31.25
3742.439	-59.25
3745.136	-23.25
3747.83	-25.25
3750.523	-24.25
3753.213	-85.25
3755.902	-33.25
3758.589	-41.25
3761.273	-37.25
3763.956	-21.25
3766.636	-45.25
3769.315	-20.25
3771.991	-29.25
3774.665	-37.25
3777.338	-32.25
3780.008	-40.25
3782.677	-34.25
3785.343	-45.25
3788.007	-46.25
3790.67	-27.25
3793.33	-43.25
3795.989	-37.25
3798.645	-31.25
3801.299	-43.25
3803.952	-40.25
3806.602	-37.25
3809.251	-27.25
3811.897	-32.25
3814.542	-33.25
3817.184	-38.25
3819.825	-34.25
3822.463	-44.25
3825.1	-31.25
3827.735	-35.25
3830.367	-43.25
3832.998	-17.25
3835.627	-36.25
3838.253	-24.25
3840.878	-34.25
3843.501	-17.25
3846.122	-29.25
3848.741	-28.25
3851.358	-25.25
3853.973	-43.25
3856.586	-26.25
3859.197	-35.25
3861.806	-33.25
3864.414	-43.25
3867.019	-31.25
3869.622	-30.25
3872.224	-22.25
3874.823	-16.25
3877.421	-3.25
3880.016	12.75
3882.61	35.75
3885.202	41.75
3887.792	30.75
3890.38	11.75
3892.966	-22.25
3895.55	-31.25
3898.132	-26.25
3900.713	-24.25
3903.291	-30.25
3905.868	-42.25
3908.442	-33.25
3911.015	-33.25
3913.586	-42.25
3916.155	-40.25
3918.722	-43.25
3921.287	-38.25
3923.85	-45.25
3926.411	-42.25
3928.971	-36.25
3931.528	-31.25
3934.084	-39.25
3936.638	-44.25
3939.19	-31.25
3941.74	-30.25
3944.288	-35.25
3946.834	-38.25
3949.378	-32.25
3951.921	-39.25
3954.462	-36.25
3957	-30.25
3959.537	-23.25
3962.072	-39.25
3964.606	-46.25
3967.137	-40.25
3969.667	-37.25
3972.194	-30.25
3974.72	-37.25
3977.244	-55.25
3979.766	-42.25
3982.286	-42.25
3984.805	-33.25
3987.321	-23.25
3989.836	-26.25
3992.349	-42.25
3994.86	-31.25
3997.369	-41.25
3999.877	-38.25
4002.382	-36.25
4004.886	-30.25
4007.388	-31.25
4009.888	-25.25
4012.386	-27.25
4014.883	-28.25
4017.377	-31.25
4019.87	-31.25
4022.361	-44.25
4024.85	-32.25
4027.338	-33.25
4029.823	-36.25
4032.307	-37.25
4034.789	-34.25
4037.269	-31.25
4039.747	-45.25
4042.224	-24.25
4044.699	-36.25
4047.172	-37.25
4049.643	-24.25
4052.112	-59.25
4054.58	-34.25
4057.046	-50.25
4059.51	-34.25
4061.972	-33.25
4064.432	-48.25
4066.891	-23.25
4069.348	-27.25
4071.803	-31.25
4074.256	-39.25
4076.708	-30.25
4079.158	-31.25
4081.606	-26.25
4084.052	-31.25
4086.497	-30.25
4088.939	-29.25
4091.38	-37.25
4093.819	-28.25
4096.257	2.75
4098.693	-9.25
4101.127	-8.25
4103.559	1.75
4105.989	52.75
4108.418	55.75
4110.845	43.75
4113.27	48.75
4115.694	63.75
4118.115	46.75
4120.535	-30.25
4122.954	-23.25
4125.37	-20.25
4127.785	-31.25
4130.198	-27.25
4132.609	-27.25
4135.019	9.75
4137.427	-0.25
4139.833	6.75
4142.237	-3.25
