Data from 2018-3-6_conc=5_n=9_RamanShift_03.txt Node
Date: Tue Mar 06 14:48:18 GMT+02:00 2018
User: LAB3
Spectrometer: QEPB0276
Trigger mode: 0
Integration Time (sec): 3.000000E1
Scans to average: 1
Electric dark correction enabled: true
Nonlinearity correction enabled: false
Boxcar width: 0
XAxis mode: Raman Shifts
Number of Pixels in Spectrum: 1044
>>>>>Begin Spectral Data<<<<<
160.701	43.75
166.742	65.75
172.777	91.75
178.805	173.75
184.826	417.75
190.841	845.75
196.849	1317.75
202.85	1690.75
208.845	1776.75
214.833	1774.75
220.815	1739.75
226.789	1715.75
232.758	1712.75
238.719	1696.75
244.674	1664.75
250.623	1634.75
256.565	1611.75
262.5	1580.75
268.429	1573.75
274.351	1557.75
280.267	1540.75
286.176	1534.75
292.079	1543.75
297.975	1539.75
303.865	1523.75
309.748	1524.75
315.625	1512.75
321.495	1523.75
327.359	1510.75
333.217	1507.75
339.068	1518.75
344.912	1519.75
350.751	1528.75
356.583	1498.75
362.408	1537.75
368.227	1518.75
374.04	1534.75
379.847	1542.75
385.647	1546.75
391.44	1545.75
397.228	1560.75
403.009	1561.75
408.784	1587.75
414.553	1579.75
420.315	1585.75
426.071	1559.75
431.821	1585.75
437.565	1599.75
443.302	1564.75
449.033	1555.75
454.758	1545.75
460.477	1539.75
466.189	1517.75
471.896	1517.75
477.596	1495.75
483.29	1485.75
488.978	1490.75
494.66	1469.75
500.335	1424.75
506.005	1361.75
511.668	1308.75
517.325	1255.75
522.977	1183.75
528.622	1153.75
534.261	1131.75
539.894	1104.75
545.521	1101.75
551.141	1075.75
556.756	1064.75
562.365	1055.75
567.968	1038.75
573.565	1035.75
579.155	1041.75
584.74	1029.75
590.319	1040.75
595.892	1026.75
601.459	1024.75
607.02	1035.75
612.575	1028.75
618.124	1008.75
623.667	982.75
629.204	977.75
634.735	965.75
640.261	952.75
645.781	923.75
651.294	936.75
656.802	923.75
662.304	947.75
667.8	948.75
673.29	931.75
678.775	919.75
684.254	926.75
689.726	899.75
695.193	915.75
700.655	900.75
706.11	916.75
711.56	898.75
717.004	910.75
722.442	880.75
727.874	881.75
733.301	904.75
738.722	874.75
744.137	870.75
749.547	873.75
754.951	863.75
760.349	870.75
765.741	874.75
771.128	866.75
776.509	879.75
781.885	913.75
787.254	918.75
792.618	912.75
797.977	929.75
803.33	909.75
808.677	894.75
814.019	888.75
819.355	886.75
824.686	873.75
830.011	860.75
835.33	879.75
840.644	870.75
845.952	854.75
851.255	870.75
856.552	851.75
861.844	829.75
867.13	844.75
872.41	817.75
877.686	826.75
882.955	798.75
888.219	803.75
893.478	783.75
898.731	779.75
903.979	775.75
909.221	772.75
914.458	764.75
919.69	747.75
924.916	752.75
930.136	750.75
935.351	744.75
940.561	765.75
945.766	753.75
950.965	758.75
956.158	731.75
961.347	742.75
966.529	715.75
971.707	721.75
976.879	729.75
982.046	705.75
987.208	693.75
992.364	701.75
997.515	710.75
1002.66	700.75
1007.801	704.75
1012.936	708.75
1018.066	694.75
1023.19	729.75
1028.309	727.75
1033.423	732.75
1038.532	746.75
1043.636	714.75
1048.734	718.75
1053.827	706.75
1058.915	698.75
1063.998	701.75
1069.075	688.75
1074.147	696.75
1079.214	681.75
1084.276	704.75
1089.333	697.75
1094.385	705.75
1099.431	691.75
1104.472	689.75
1109.509	673.75
1114.54	666.75
1119.565	663.75
1124.586	664.75
1129.602	658.75
1134.613	631.75
1139.618	636.75
1144.619	637.75
1149.614	645.75
1154.604	638.75
1159.589	642.75
1164.57	660.75
1169.545	664.75
1174.515	657.75
1179.48	645.75
1184.44	639.75
1189.395	643.75
1194.345	627.75
1199.29	631.75
1204.23	623.75
1209.165	618.75
1214.095	634.75
1219.021	626.75
1223.941	622.75
1228.856	641.75
1233.766	629.75
1238.672	643.75
1243.572	641.75
1248.467	623.75
1253.358	631.75
1258.244	600.75
1263.124	620.75
1268	612.75
1272.871	578.75
1277.737	575.75
1282.599	567.75
1287.455	569.75
1292.306	581.75
1297.153	573.75
1301.995	584.75
1306.832	581.75
1311.664	578.75
1316.491	572.75
1321.314	578.75
1326.132	572.75
1330.945	582.75
1335.753	562.75
1340.556	548.75
1345.354	544.75
1350.148	536.75
1354.937	537.75
1359.722	514.75
1364.501	509.75
1369.276	526.75
1374.046	527.75
1378.811	516.75
1383.572	525.75
1388.327	524.75
1393.079	501.75
1397.825	497.75
1402.567	491.75
1407.304	494.75
1412.036	493.75
1416.764	490.75
1421.487	486.75
1426.205	476.75
1430.919	486.75
1435.628	496.75
1440.333	483.75
1445.032	490.75
1449.727	490.75
1454.418	513.75
1459.104	509.75
1463.785	482.75
1468.462	495.75
1473.134	485.75
1477.802	483.75
1482.465	441.75
1487.123	458.75
1491.777	439.75
1496.426	440.75
1501.071	469.75
1505.711	454.75
1510.347	463.75
1514.978	462.75
1519.604	464.75
1524.226	474.75
1528.844	439.75
1533.457	462.75
1538.065	460.75
1542.669	461.75
1547.269	449.75
1551.864	451.75
1556.454	431.75
1561.041	444.75
1565.622	434.75
1570.199	461.75
1574.772	448.75
1579.34	448.75
1583.904	451.75
1588.464	469.75
1593.019	480.75
1597.569	442.75
1602.115	459.75
1606.657	446.75
1611.195	457.75
1615.728	463.75
1620.256	450.75
1624.78	423.75
1629.3	438.75
1633.816	441.75
1638.327	442.75
1642.834	454.75
1647.336	453.75
1651.834	461.75
1656.328	454.75
1660.817	444.75
1665.302	445.75
1669.783	437.75
1674.259	426.75
1678.732	425.75
1683.199	430.75
1687.663	397.75
1692.122	406.75
1696.577	402.75
1701.028	399.75
1705.474	375.75
1709.917	376.75
1714.355	364.75
1718.788	358.75
1723.218	346.75
1727.643	336.75
1732.064	350.75
1736.481	334.75
1740.893	342.75
1745.301	323.75
1749.705	304.75
1754.105	317.75
1758.501	300.75
1762.893	322.75
1767.28	291.75
1771.663	298.75
1776.042	286.75
1780.417	293.75
1784.787	282.75
1789.154	298.75
1793.516	290.75
1797.874	283.75
1802.228	271.75
1806.578	268.75
1810.924	288.75
1815.266	173.75
1819.603	282.75
1823.937	271.75
1828.266	270.75
1832.591	278.75
1836.913	265.75
1841.23	261.75
1845.543	258.75
1849.852	278.75
1854.156	261.75
1858.457	262.75
1862.754	250.75
1867.047	263.75
1871.335	271.75
1875.62	275.75
1879.9	269.75
1884.177	258.75
1888.449	264.75
1892.718	262.75
1896.982	264.75
1901.243	242.75
1905.499	256.75
1909.752	246.75
1914	230.75
1918.245	254.75
1922.485	254.75
1926.722	257.75
1930.954	239.75
1935.183	254.75
1939.408	257.75
1943.628	247.75
1947.845	246.75
1952.058	258.75
1956.267	230.75
1960.472	246.75
1964.673	242.75
1968.87	229.75
1973.063	231.75
1977.252	227.75
1981.438	222.75
1985.619	224.75
1989.797	208.75
1993.971	209.75
1998.14	228.75
2002.306	224.75
2006.469	219.75
2010.627	213.75
2014.781	216.75
2018.932	208.75
2023.078	232.75
2027.221	212.75
2031.36	211.75
2035.495	210.75
2039.627	205.75
2043.754	212.75
2047.878	197.75
2051.998	199.75
2056.114	198.75
2060.226	196.75
2064.334	203.75
2068.439	212.75
2072.54	204.75
2076.637	199.75
2080.73	200.75
2084.82	204.75
2088.906	188.75
2092.988	193.75
2097.066	197.75
2101.14	205.75
2105.211	202.75
2109.278	197.75
2113.342	182.75
2117.401	175.75
2121.457	177.75
2125.509	170.75
2129.558	186.75
2133.602	182.75
2137.643	180.75
2141.681	175.75
2145.714	177.75
2149.744	179.75
2153.77	176.75
2157.793	154.75
2161.812	144.75
2165.827	147.75
2169.838	170.75
2173.846	160.75
2177.851	157.75
2181.851	169.75
2185.848	159.75
2189.841	159.75
2193.831	155.75
2197.817	147.75
2201.799	147.75
2205.778	132.75
2209.753	139.75
2213.725	135.75
2217.693	147.75
2221.657	141.75
2225.618	148.75
2229.575	147.75
2233.529	148.75
2237.479	152.75
2241.425	136.75
2245.368	129.75
2249.307	130.75
2253.243	128.75
2257.175	142.75
2261.104	124.75
2265.029	128.75
2268.95	127.75
2272.868	120.75
2276.783	114.75
2280.694	120.75
2284.601	123.75
2288.505	119.75
2292.405	125.75
2296.302	98.75
2300.195	118.75
2304.085	85.75
2307.971	111.75
2311.854	89.75
2315.734	100.75
2319.609	114.75
2323.482	88.75
2327.351	89.75
2331.216	101.75
2335.078	103.75
2338.937	100.75
2342.792	91.75
2346.643	91.75
2350.492	101.75
2354.336	91.75
2358.178	101.75
2362.015	100.75
2365.85	98.75
2369.681	100.75
2373.508	103.75
2377.333	100.75
2381.153	95.75
2384.971	93.75
2388.785	95.75
2392.595	84.75
2396.402	81.75
2400.206	66.75
2404.007	79.75
2407.804	87.75
2411.597	89.75
2415.388	81.75
2419.174	72.75
2422.958	81.75
2426.738	78.75
2430.515	89.75
2434.289	75.75
2438.059	76.75
2441.825	74.75
2445.589	86.75
2449.349	61.75
2453.106	83.75
2456.859	77.75
2460.61	80.75
2464.356	66.75
2468.1	66.75
2471.84	63.75
2475.577	67.75
2479.311	60.75
2483.041	66.75
2486.768	80.75
2490.492	84.75
2494.213	64.75
2497.93	56.75
2501.644	56.75
2505.355	69.75
2509.062	68.75
2512.766	64.75
2516.467	60.75
2520.165	60.75
2523.859	51.75
2527.551	81.75
2531.239	53.75
2534.923	63.75
2538.605	63.75
2542.283	64.75
2545.958	69.75
2549.63	72.75
2553.299	72.75
2556.964	46.75
2560.626	57.75
2564.285	61.75
2567.941	48.75
2571.594	46.75
2575.243	59.75
2578.89	49.75
2582.533	58.75
2586.173	57.75
2589.809	58.75
2593.443	27.75
2597.073	52.75
2600.701	53.75
2604.325	51.75
2607.946	33.75
2611.564	58.75
2615.178	54.75
2618.79	52.75
2622.398	46.75
2626.004	51.75
2629.606	46.75
2633.205	36.75
2636.801	51.75
2640.394	46.75
2643.983	41.75
2647.57	40.75
2651.153	38.75
2654.734	50.75
2658.311	20.75
2661.885	29.75
2665.456	35.75
2669.025	37.75
2672.589	32.75
2676.151	47.75
2679.71	46.75
2683.266	30.75
2686.819	32.75
2690.368	40.75
2693.915	44.75
2697.458	35.75
2700.999	41.75
2704.536	42.75
2708.071	34.75
2711.602	35.75
2715.13	35.75
2718.656	23.75
2722.178	38.75
2725.697	20.75
2729.214	24.75
2732.727	34.75
2736.237	13.75
2739.744	23.75
2743.249	28.75
2746.75	27.75
2750.248	20.75
2753.743	28.75
2757.236	31.75
2760.725	33.75
2764.211	-1.25
2767.695	31.75
2771.175	29.75
2774.652	31.75
2778.127	17.75
2781.598	25.75
2785.067	28.75
2788.532	18.75
2791.995	24.75
2795.455	12.75
2798.911	32.75
2802.365	15.75
2805.816	28.75
2809.264	28.75
2812.709	18.75
2816.151	29.75
2819.59	18.75
2823.026	18.75
2826.46	18.75
2829.89	33.75
2833.318	3.75
2836.742	21.75
2840.164	23.75
2843.583	24.75
2846.999	22.75
2850.412	29.75
2853.822	21.75
2857.229	36.75
2860.634	32.75
2864.035	9.75
2867.434	34.75
2870.83	36.75
2874.223	20.75
2877.613	22.75
2881	13.75
2884.385	22.75
2887.766	22.75
2891.145	30.75
2894.521	24.75
2897.894	11.75
2901.264	35.75
2904.631	28.75
2907.996	34.75
2911.358	40.75
2914.717	33.75
2918.073	30.75
2921.426	22.75
2924.777	13.75
2928.124	20.75
2931.469	35.75
2934.811	18.75
2938.15	40.75
2941.487	30.75
2944.821	56.75
2948.152	32.75
2951.48	43.75
2954.805	25.75
2958.128	47.75
2961.447	36.75
2964.765	51.75
2968.079	40.75
2971.39	40.75
2974.699	39.75
2978.005	43.75
2981.308	42.75
2984.609	34.75
2987.907	43.75
2991.202	46.75
2994.494	37.75
2997.784	43.75
3001.07	46.75
3004.355	35.75
3007.636	47.75
3010.915	42.75
3014.191	44.75
3017.464	49.75
3020.734	50.75
3024.002	45.75
3027.267	45.75
3030.53	46.75
3033.789	50.75
3037.046	48.75
3040.301	40.75
3043.552	43.75
3046.801	53.75
3050.048	67.75
3053.291	83.75
3056.532	55.75
3059.771	52.75
3063.006	67.75
3066.239	61.75
3069.469	70.75
3072.697	58.75
3075.922	57.75
3079.144	63.75
3082.364	87.75
3085.581	70.75
3088.795	91.75
3092.007	84.75
3095.216	96.75
3098.423	79.75
3101.627	65.75
3104.828	90.75
3108.026	80.75
3111.222	101.75
3114.416	100.75
3117.607	101.75
3120.795	102.75
3123.98	107.75
3127.163	91.75
3130.344	104.75
3133.521	102.75
3136.696	120.75
3139.869	115.75
3143.039	103.75
3146.206	132.75
3149.371	129.75
3152.533	123.75
3155.693	113.75
3158.85	132.75
3162.005	132.75
3165.157	125.75
3168.306	125.75
3171.453	140.75
3174.597	124.75
3177.739	119.75
3180.878	133.75
3184.014	130.75
3187.149	129.75
3190.28	133.75
3193.409	143.75
3196.536	132.75
3199.659	145.75
3202.781	138.75
3205.9	124.75
3209.016	136.75
3212.13	125.75
3215.241	126.75
3218.35	131.75
3221.456	122.75
3224.56	112.75
3227.661	118.75
3230.76	118.75
3233.856	113.75
3236.95	121.75
3240.041	117.75
3243.13	127.75
3246.216	119.75
3249.3	127.75
3252.382	114.75
3255.46	115.75
3258.537	63.75
3261.611	103.75
3264.682	120.75
3267.751	113.75
3270.818	95.75
3273.882	123.75
3276.943	109.75
3280.002	129.75
3283.059	102.75
3286.113	110.75
3289.165	105.75
3292.214	103.75
3295.261	114.75
3298.306	88.75
3301.348	101.75
3304.387	96.75
3307.425	102.75
3310.459	98.75
3313.492	110.75
3316.521	99.75
3319.549	98.75
3322.574	106.75
3325.597	97.75
3328.617	85.75
3331.635	84.75
3334.65	73.75
3337.663	86.75
3340.674	84.75
3343.682	89.75
3346.688	99.75
3349.691	82.75
3352.692	84.75
3355.691	100.75
3358.687	84.75
3361.681	92.75
3364.673	78.75
3367.662	88.75
3370.649	94.75
3373.633	74.75
3376.615	89.75
3379.595	64.75
3382.572	75.75
3385.547	73.75
3388.52	70.75
3391.49	70.75
3394.458	73.75
3397.424	81.75
3400.387	61.75
3403.348	72.75
3406.307	74.75
3409.263	69.75
3412.217	78.75
3415.168	70.75
3418.118	75.75
3421.065	62.75
3424.009	67.75
3426.951	62.75
3429.891	58.75
3432.829	58.75
3435.764	62.75
3438.697	52.75
3441.628	65.75
3444.557	42.75
3447.483	40.75
3450.407	53.75
3453.328	44.75
3456.247	42.75
3459.164	33.75
3462.079	50.75
3464.991	39.75
3467.902	43.75
3470.809	36.75
3473.715	40.75
3476.618	27.75
3479.519	40.75
3482.418	16.75
3485.315	20.75
3488.209	19.75
3491.101	26.75
3493.99	11.75
3496.878	17.75
3499.763	21.75
3502.646	25.75
3505.527	11.75
3508.405	8.75
3511.281	0.75
3514.155	16.75
3517.027	6.75
3519.897	-2.25
3522.764	11.75
3525.629	-9.25
3528.492	7.75
3531.352	6.75
3534.211	-0.25
3537.067	-3.25
3539.921	-0.25
3542.773	5.75
3545.622	-13.25
3548.469	-11.25
3551.315	-16.25
3554.157	-7.25
3556.998	-20.25
3559.837	-12.25
3562.673	-10.25
3565.507	-20.25
3568.339	-22.25
3571.169	-16.25
3573.996	-10.25
3576.822	-29.25
3579.645	-26.25
3582.466	-25.25
3585.285	-8.25
3588.101	-13.25
3590.916	-20.25
3593.728	-15.25
3596.538	-19.25
3599.346	-20.25
3602.152	-25.25
3604.956	-16.25
3607.757	-16.25
3610.556	-29.25
3613.354	-12.25
3616.149	-14.25
3618.942	-16.25
3621.732	-15.25
3624.521	-24.25
3627.307	-33.25
3630.092	-27.25
3632.874	-13.25
3635.654	-22.25
3638.432	-31.25
3641.208	-32.25
3643.982	-25.25
3646.753	-16.25
3649.523	-48.25
3652.29	-29.25
3655.055	-22.25
3657.818	-25.25
3660.579	-29.25
3663.338	-34.25
3666.095	-33.25
3668.849	-52.25
3671.602	-26.25
3674.352	-42.25
3677.101	-21.25
3679.847	-18.25
3682.591	-36.25
3685.333	-40.25
3688.073	-29.25
3690.811	-44.25
3693.547	-45.25
3696.281	-42.25
3699.013	-31.25
3701.742	-33.25
3704.47	-41.25
3707.195	-27.25
3709.919	-29.25
3712.64	-33.25
3715.359	-40.25
3718.076	-19.25
3720.792	-30.25
3723.505	-29.25
3726.216	-20.25
3728.925	-34.25
3731.632	-39.25
3734.336	-34.25
3737.039	-30.25
3739.74	-27.25
3742.439	-55.25
3745.136	-21.25
3747.83	-25.25
3750.523	-26.25
3753.213	-97.25
3755.902	-33.25
3758.589	-45.25
3761.273	-36.25
3763.956	-23.25
3766.636	-47.25
3769.315	-26.25
3771.991	-34.25
3774.665	-42.25
3777.338	-33.25
3780.008	-48.25
3782.677	-37.25
3785.343	-48.25
3788.007	-52.25
3790.67	-29.25
3793.33	-47.25
3795.989	-38.25
3798.645	-35.25
3801.299	-44.25
3803.952	-43.25
3806.602	-36.25
3809.251	-30.25
3811.897	-35.25
3814.542	-36.25
3817.184	-36.25
3819.825	-35.25
3822.463	-43.25
3825.1	-34.25
3827.735	-34.25
3830.367	-43.25
3832.998	-21.25
3835.627	-37.25
3838.253	-24.25
3840.878	-31.25
3843.501	-12.25
3846.122	-30.25
3848.741	-24.25
3851.358	-22.25
3853.973	-46.25
3856.586	-23.25
3859.197	-38.25
3861.806	-29.25
3864.414	-43.25
3867.019	-36.25
3869.622	-27.25
3872.224	-22.25
3874.823	-11.25
3877.421	8.75
3880.016	17.75
3882.61	56.75
3885.202	62.75
3887.792	49.75
3890.38	16.75
3892.966	-17.25
3895.55	-36.25
3898.132	-28.25
3900.713	-28.25
3903.291	-28.25
3905.868	-39.25
3908.442	-35.25
3911.015	-35.25
3913.586	-38.25
3916.155	-36.25
3918.722	-41.25
3921.287	-36.25
3923.85	-51.25
3926.411	-41.25
3928.971	-43.25
3931.528	-31.25
3934.084	-39.25
3936.638	-43.25
3939.19	-32.25
3941.74	-31.25
3944.288	-39.25
3946.834	-35.25
3949.378	-22.25
3951.921	-37.25
3954.462	-37.25
3957	-29.25
3959.537	-23.25
3962.072	-30.25
3964.606	-49.25
3967.137	-37.25
3969.667	-39.25
3972.194	-29.25
3974.72	-36.25
3977.244	-54.25
3979.766	-42.25
3982.286	-38.25
3984.805	-29.25
3987.321	-27.25
3989.836	-28.25
3992.349	-40.25
3994.86	-31.25
3997.369	-41.25
3999.877	-37.25
4002.382	-40.25
4004.886	-30.25
4007.388	-34.25
4009.888	-19.25
4012.386	-29.25
4014.883	-32.25
4017.377	-35.25
4019.87	-31.25
4022.361	-46.25
4024.85	-33.25
4027.338	-34.25
4029.823	-41.25
4032.307	-34.25
4034.789	-34.25
4037.269	-35.25
4039.747	-48.25
4042.224	-22.25
4044.699	-40.25
4047.172	-39.25
4049.643	-29.25
4052.112	-62.25
4054.58	-32.25
4057.046	-43.25
4059.51	-33.25
4061.972	-34.25
4064.432	-55.25
4066.891	-21.25
4069.348	-36.25
4071.803	-30.25
4074.256	-38.25
4076.708	-27.25
4079.158	-30.25
4081.606	-23.25
4084.052	-33.25
4086.497	-27.25
4088.939	-31.25
4091.38	-35.25
4093.819	-32.25
4096.257	-0.25
4098.693	-5.25
4101.127	-10.25
4103.559	1.75
4105.989	48.75
4108.418	52.75
4110.845	41.75
4113.27	43.75
4115.694	55.75
4118.115	39.75
4120.535	-29.25
4122.954	-26.25
4125.37	-23.25
4127.785	-27.25
4130.198	-20.25
4132.609	-29.25
4135.019	10.75
4137.427	1.75
4139.833	4.75
4142.237	-3.25
