Data from 2018-3-6_conc=5_n=1_RamanShift_04.txt Node
Date: Tue Mar 06 14:23:48 GMT+02:00 2018
User: LAB3
Spectrometer: QEPB0276
Trigger mode: 0
Integration Time (sec): 3.000000E1
Scans to average: 1
Electric dark correction enabled: true
Nonlinearity correction enabled: false
Boxcar width: 0
XAxis mode: Raman Shifts
Number of Pixels in Spectrum: 1044
>>>>>Begin Spectral Data<<<<<
160.701	59.5
166.742	79.5
172.777	122.5
178.805	237.5
184.826	563.5
190.841	1120.5
196.849	1764.5
202.85	2202.5
208.845	2379.5
214.833	2346.5
220.815	2264.5
226.789	2255.5
232.758	2264.5
238.719	2239.5
244.674	2185.5
250.623	2153.5
256.565	2139.5
262.5	2097.5
268.429	2070.5
274.351	2037.5
280.267	2019.5
286.176	2042.5
292.079	2033.5
297.975	2001.5
303.865	2014.5
309.748	2014.5
315.625	1996.5
321.495	1990.5
327.359	1979.5
333.217	1973.5
339.068	2001.5
344.912	1998.5
350.751	1987.5
356.583	2006.5
362.408	2004.5
368.227	2007.5
374.04	2008.5
379.847	2030.5
385.647	2042.5
391.44	1999.5
397.228	2015.5
403.009	2053.5
408.784	2037.5
414.553	2062.5
420.315	2072.5
426.071	2066.5
431.821	2049.5
437.565	2065.5
443.302	2041.5
449.033	2032.5
454.758	2036.5
460.477	2013.5
466.189	1999.5
471.896	1988.5
477.596	1966.5
483.29	1952.5
488.978	1946.5
494.66	1933.5
500.335	1864.5
506.005	1800.5
511.668	1718.5
517.325	1636.5
522.977	1572.5
528.622	1525.5
534.261	1506.5
539.894	1452.5
545.521	1428.5
551.141	1417.5
556.756	1409.5
562.365	1398.5
567.968	1394.5
573.565	1355.5
579.155	1370.5
584.74	1361.5
590.319	1349.5
595.892	1354.5
601.459	1378.5
607.02	1345.5
612.575	1325.5
618.124	1328.5
623.667	1305.5
629.204	1273.5
634.735	1254.5
640.261	1254.5
645.781	1222.5
651.294	1231.5
656.802	1235.5
662.304	1237.5
667.8	1227.5
673.29	1221.5
678.775	1226.5
684.254	1208.5
689.726	1190.5
695.193	1214.5
700.655	1182.5
706.11	1204.5
711.56	1173.5
717.004	1183.5
722.442	1151.5
727.874	1172.5
733.301	1175.5
738.722	1145.5
744.137	1145.5
749.547	1145.5
754.951	1145.5
760.349	1145.5
765.741	1154.5
771.128	1159.5
776.509	1182.5
781.885	1208.5
787.254	1201.5
792.618	1197.5
797.977	1209.5
803.33	1201.5
808.677	1171.5
814.019	1160.5
819.355	1159.5
824.686	1154.5
830.011	1140.5
835.33	1163.5
840.644	1144.5
845.952	1114.5
851.255	1121.5
856.552	1113.5
861.844	1095.5
867.13	1079.5
872.41	1080.5
877.686	1076.5
882.955	1059.5
888.219	1050.5
893.478	1034.5
898.731	1021.5
903.979	1021.5
909.221	999.5
914.458	1002.5
919.69	990.5
924.916	1017.5
930.136	997.5
935.351	985.5
940.561	1007.5
945.766	986.5
950.965	990.5
956.158	988.5
961.347	974.5
966.529	964.5
971.707	964.5
976.879	947.5
982.046	934.5
987.208	920.5
992.364	927.5
997.515	934.5
1002.66	932.5
1007.801	924.5
1012.936	941.5
1018.066	928.5
1023.19	958.5
1028.309	956.5
1033.423	958.5
1038.532	953.5
1043.636	946.5
1048.734	948.5
1053.827	928.5
1058.915	910.5
1063.998	899.5
1069.075	894.5
1074.147	917.5
1079.214	892.5
1084.276	930.5
1089.333	900.5
1094.385	914.5
1099.431	906.5
1104.472	913.5
1109.509	901.5
1114.54	887.5
1119.565	880.5
1124.586	868.5
1129.602	850.5
1134.613	835.5
1139.618	837.5
1144.619	835.5
1149.614	833.5
1154.604	833.5
1159.589	841.5
1164.57	860.5
1169.545	856.5
1174.515	854.5
1179.48	866.5
1184.44	858.5
1189.395	843.5
1194.345	822.5
1199.29	840.5
1204.23	818.5
1209.165	802.5
1214.095	826.5
1219.021	827.5
1223.941	819.5
1228.856	833.5
1233.766	846.5
1238.672	838.5
1243.572	848.5
1248.467	822.5
1253.358	827.5
1258.244	787.5
1263.124	799.5
1268	783.5
1272.871	763.5
1277.737	756.5
1282.599	749.5
1287.455	755.5
1292.306	758.5
1297.153	744.5
1301.995	761.5
1306.832	763.5
1311.664	767.5
1316.491	769.5
1321.314	764.5
1326.132	745.5
1330.945	757.5
1335.753	732.5
1340.556	713.5
1345.354	694.5
1350.148	698.5
1354.937	690.5
1359.722	681.5
1364.501	664.5
1369.276	687.5
1374.046	676.5
1378.811	672.5
1383.572	674.5
1388.327	677.5
1393.079	657.5
1397.825	655.5
1402.567	658.5
1407.304	651.5
1412.036	642.5
1416.764	649.5
1421.487	628.5
1426.205	636.5
1430.919	636.5
1435.628	647.5
1440.333	628.5
1445.032	649.5
1449.727	655.5
1454.418	657.5
1459.104	655.5
1463.785	642.5
1468.462	640.5
1473.134	637.5
1477.802	612.5
1482.465	588.5
1487.123	606.5
1491.777	575.5
1496.426	566.5
1501.071	592.5
1505.711	581.5
1510.347	609.5
1514.978	611.5
1519.604	594.5
1524.226	601.5
1528.844	580.5
1533.457	600.5
1538.065	595.5
1542.669	590.5
1547.269	586.5
1551.864	572.5
1556.454	573.5
1561.041	572.5
1565.622	572.5
1570.199	574.5
1574.772	590.5
1579.34	597.5
1583.904	600.5
1588.464	608.5
1593.019	610.5
1597.569	594.5
1602.115	585.5
1606.657	602.5
1611.195	606.5
1615.728	603.5
1620.256	585.5
1624.78	571.5
1629.3	588.5
1633.816	584.5
1638.327	591.5
1642.834	588.5
1647.336	577.5
1651.834	607.5
1656.328	595.5
1660.817	597.5
1665.302	584.5
1669.783	577.5
1674.259	571.5
1678.732	555.5
1683.199	537.5
1687.663	519.5
1692.122	512.5
1696.577	500.5
1701.028	504.5
1705.474	472.5
1709.917	469.5
1714.355	465.5
1718.788	464.5
1723.218	452.5
1727.643	433.5
1732.064	451.5
1736.481	427.5
1740.893	432.5
1745.301	424.5
1749.705	389.5
1754.105	399.5
1758.501	392.5
1762.893	402.5
1767.28	373.5
1771.663	384.5
1776.042	363.5
1780.417	361.5
1784.787	375.5
1789.154	380.5
1793.516	371.5
1797.874	365.5
1802.228	353.5
1806.578	353.5
1810.924	360.5
1815.266	250.5
1819.603	356.5
1823.937	348.5
1828.266	360.5
1832.591	347.5
1836.913	344.5
1841.23	341.5
1845.543	334.5
1849.852	348.5
1854.156	337.5
1858.457	332.5
1862.754	329.5
1867.047	333.5
1871.335	353.5
1875.62	348.5
1879.9	343.5
1884.177	328.5
1888.449	332.5
1892.718	330.5
1896.982	337.5
1901.243	318.5
1905.499	329.5
1909.752	319.5
1914	298.5
1918.245	331.5
1922.485	327.5
1926.722	306.5
1930.954	305.5
1935.183	322.5
1939.408	336.5
1943.628	316.5
1947.845	311.5
1952.058	311.5
1956.267	302.5
1960.472	314.5
1964.673	306.5
1968.87	300.5
1973.063	293.5
1977.252	282.5
1981.438	293.5
1985.619	275.5
1989.797	273.5
1993.971	279.5
1998.14	294.5
2002.306	273.5
2006.469	283.5
2010.627	268.5
2014.781	280.5
2018.932	272.5
2023.078	290.5
2027.221	274.5
2031.36	265.5
2035.495	270.5
2039.627	268.5
2043.754	262.5
2047.878	255.5
2051.998	257.5
2056.114	250.5
2060.226	254.5
2064.334	255.5
2068.439	263.5
2072.54	257.5
2076.637	246.5
2080.73	257.5
2084.82	253.5
2088.906	246.5
2092.988	252.5
2097.066	255.5
2101.14	256.5
2105.211	256.5
2109.278	236.5
2113.342	244.5
2117.401	229.5
2121.457	227.5
2125.509	226.5
2129.558	237.5
2133.602	233.5
2137.643	239.5
2141.681	230.5
2145.714	231.5
2149.744	229.5
2153.77	224.5
2157.793	215.5
2161.812	190.5
2165.827	196.5
2169.838	222.5
2173.846	205.5
2177.851	202.5
2181.851	213.5
2185.848	202.5
2189.841	207.5
2193.831	197.5
2197.817	197.5
2201.799	192.5
2205.778	185.5
2209.753	191.5
2213.725	174.5
2217.693	191.5
2221.657	176.5
2225.618	187.5
2229.575	184.5
2233.529	179.5
2237.479	184.5
2241.425	182.5
2245.368	168.5
2249.307	180.5
2253.243	172.5
2257.175	178.5
2261.104	160.5
2265.029	169.5
2268.95	163.5
2272.868	161.5
2276.783	157.5
2280.694	158.5
2284.601	154.5
2288.505	157.5
2292.405	163.5
2296.302	144.5
2300.195	147.5
2304.085	121.5
2307.971	143.5
2311.854	126.5
2315.734	136.5
2319.609	139.5
2323.482	113.5
2327.351	127.5
2331.216	131.5
2335.078	138.5
2338.937	129.5
2342.792	125.5
2346.643	121.5
2350.492	140.5
2354.336	123.5
2358.178	133.5
2362.015	127.5
2365.85	127.5
2369.681	128.5
2373.508	135.5
2377.333	135.5
2381.153	135.5
2384.971	124.5
2388.785	126.5
2392.595	111.5
2396.402	123.5
2400.206	102.5
2404.007	113.5
2407.804	119.5
2411.597	120.5
2415.388	119.5
2419.174	110.5
2422.958	116.5
2426.738	124.5
2430.515	118.5
2434.289	103.5
2438.059	108.5
2441.825	104.5
2445.589	112.5
2449.349	90.5
2453.106	111.5
2456.859	103.5
2460.61	111.5
2464.356	95.5
2468.1	94.5
2471.84	92.5
2475.577	96.5
2479.311	98.5
2483.041	100.5
2486.768	111.5
2490.492	104.5
2494.213	99.5
2497.93	90.5
2501.644	83.5
2505.355	95.5
2509.062	95.5
2512.766	90.5
2516.467	80.5
2520.165	92.5
2523.859	76.5
2527.551	111.5
2531.239	83.5
2534.923	87.5
2538.605	84.5
2542.283	85.5
2545.958	91.5
2549.63	95.5
2553.299	96.5
2556.964	77.5
2560.626	81.5
2564.285	86.5
2567.941	72.5
2571.594	73.5
2575.243	89.5
2578.89	75.5
2582.533	72.5
2586.173	73.5
2589.809	80.5
2593.443	54.5
2597.073	74.5
2600.701	81.5
2604.325	78.5
2607.946	63.5
2611.564	79.5
2615.178	75.5
2618.79	70.5
2622.398	71.5
2626.004	79.5
2629.606	69.5
2633.205	56.5
2636.801	66.5
2640.394	70.5
2643.983	67.5
2647.57	65.5
2651.153	57.5
2654.734	71.5
2658.311	44.5
2661.885	54.5
2665.456	57.5
2669.025	62.5
2672.589	52.5
2676.151	76.5
2679.71	68.5
2683.266	61.5
2686.819	48.5
2690.368	59.5
2693.915	58.5
2697.458	59.5
2700.999	64.5
2704.536	61.5
2708.071	49.5
2711.602	54.5
2715.13	51.5
2718.656	32.5
2722.178	55.5
2725.697	40.5
2729.214	44.5
2732.727	54.5
2736.237	37.5
2739.744	39.5
2743.249	38.5
2746.75	43.5
2750.248	36.5
2753.743	46.5
2757.236	39.5
2760.725	47.5
2764.211	19.5
2767.695	51.5
2771.175	43.5
2774.652	46.5
2778.127	33.5
2781.598	40.5
2785.067	44.5
2788.532	35.5
2791.995	47.5
2795.455	35.5
2798.911	50.5
2802.365	32.5
2805.816	44.5
2809.264	47.5
2812.709	37.5
2816.151	47.5
2819.59	31.5
2823.026	36.5
2826.46	35.5
2829.89	48.5
2833.318	23.5
2836.742	40.5
2840.164	36.5
2843.583	42.5
2846.999	36.5
2850.412	45.5
2853.822	36.5
2857.229	56.5
2860.634	46.5
2864.035	27.5
2867.434	48.5
2870.83	48.5
2874.223	40.5
2877.613	41.5
2881	36.5
2884.385	42.5
2887.766	38.5
2891.145	40.5
2894.521	44.5
2897.894	35.5
2901.264	53.5
2904.631	48.5
2907.996	57.5
2911.358	53.5
2914.717	46.5
2918.073	47.5
2921.426	45.5
2924.777	27.5
2928.124	46.5
2931.469	58.5
2934.811	45.5
2938.15	67.5
2941.487	57.5
2944.821	73.5
2948.152	55.5
2951.48	62.5
2954.805	46.5
2958.128	69.5
2961.447	51.5
2964.765	75.5
2968.079	55.5
2971.39	64.5
2974.699	69.5
2978.005	66.5
2981.308	61.5
2984.609	56.5
2987.907	69.5
2991.202	72.5
2994.494	60.5
2997.784	63.5
3001.07	64.5
3004.355	60.5
3007.636	70.5
3010.915	69.5
3014.191	62.5
3017.464	69.5
3020.734	69.5
3024.002	72.5
3027.267	71.5
3030.53	69.5
3033.789	74.5
3037.046	75.5
3040.301	65.5
3043.552	74.5
3046.801	78.5
3050.048	90.5
3053.291	100.5
3056.532	91.5
3059.771	70.5
3063.006	96.5
3066.239	86.5
3069.469	103.5
3072.697	96.5
3075.922	94.5
3079.144	99.5
3082.364	128.5
3085.581	102.5
3088.795	127.5
3092.007	113.5
3095.216	126.5
3098.423	123.5
3101.627	103.5
3104.828	127.5
3108.026	126.5
3111.222	138.5
3114.416	151.5
3117.607	138.5
3120.795	146.5
3123.98	145.5
3127.163	136.5
3130.344	145.5
3133.521	135.5
3136.696	163.5
3139.869	162.5
3143.039	150.5
3146.206	180.5
3149.371	182.5
3152.533	173.5
3155.693	164.5
3158.85	169.5
3162.005	181.5
3165.157	172.5
3168.306	180.5
3171.453	181.5
3174.597	169.5
3177.739	168.5
3180.878	182.5
3184.014	180.5
3187.149	183.5
3190.28	185.5
3193.409	194.5
3196.536	176.5
3199.659	190.5
3202.781	191.5
3205.9	173.5
3209.016	187.5
3212.13	179.5
3215.241	173.5
3218.35	183.5
3221.456	170.5
3224.56	161.5
3227.661	177.5
3230.76	164.5
3233.856	167.5
3236.95	173.5
3240.041	164.5
3243.13	174.5
3246.216	171.5
3249.3	170.5
3252.382	167.5
3255.46	160.5
3258.537	113.5
3261.611	146.5
3264.682	163.5
3267.751	156.5
3270.818	142.5
3273.882	158.5
3276.943	158.5
3280.002	166.5
3283.059	147.5
3286.113	153.5
3289.165	148.5
3292.214	144.5
3295.261	163.5
3298.306	140.5
3301.348	143.5
3304.387	136.5
3307.425	146.5
3310.459	143.5
3313.492	148.5
3316.521	132.5
3319.549	141.5
3322.574	143.5
3325.597	137.5
3328.617	129.5
3331.635	131.5
3334.65	113.5
3337.663	131.5
3340.674	119.5
3343.682	130.5
3346.688	135.5
3349.691	130.5
3352.692	131.5
3355.691	132.5
3358.687	131.5
3361.681	130.5
3364.673	123.5
3367.662	130.5
3370.649	136.5
3373.633	108.5
3376.615	123.5
3379.595	104.5
3382.572	111.5
3385.547	103.5
3388.52	100.5
3391.49	101.5
3394.458	111.5
3397.424	105.5
3400.387	94.5
3403.348	105.5
3406.307	100.5
3409.263	102.5
3412.217	101.5
3415.168	100.5
3418.118	106.5
3421.065	89.5
3424.009	102.5
3426.951	97.5
3429.891	90.5
3432.829	91.5
3435.764	95.5
3438.697	84.5
3441.628	96.5
3444.557	70.5
3447.483	79.5
3450.407	85.5
3453.328	74.5
3456.247	68.5
3459.164	53.5
3462.079	73.5
3464.991	67.5
3467.902	58.5
3470.809	60.5
3473.715	61.5
3476.618	52.5
3479.519	54.5
3482.418	33.5
3485.315	43.5
3488.209	37.5
3491.101	42.5
3493.99	26.5
3496.878	34.5
3499.763	35.5
3502.646	37.5
3505.527	29.5
3508.405	29.5
3511.281	16.5
3514.155	24.5
3517.027	25.5
3519.897	14.5
3522.764	20.5
3525.629	8.5
3528.492	20.5
3531.352	18.5
3534.211	16.5
3537.067	11.5
3539.921	14.5
3542.773	15.5
3545.622	-5.5
3548.469	-1.5
3551.315	-6.5
3554.157	3.5
3556.998	-6.5
3559.837	-4.5
3562.673	4.5
3565.507	-7.5
3568.339	-9.5
3571.169	-9.5
3573.996	-9.5
3576.822	-15.5
3579.645	-17.5
3582.466	-10.5
3585.285	-4.5
3588.101	-8.5
3590.916	-14.5
3593.728	-8.5
3596.538	-16.5
3599.346	-7.5
3602.152	-23.5
3604.956	-16.5
3607.757	-10.5
3610.556	-27.5
3613.354	-12.5
3616.149	-18.5
3618.942	-12.5
3621.732	-11.5
3624.521	-24.5
3627.307	-30.5
3630.092	-24.5
3632.874	-4.5
3635.654	-23.5
3638.432	-28.5
3641.208	-24.5
3643.982	-24.5
3646.753	-16.5
3649.523	-43.5
3652.29	-24.5
3655.055	-21.5
3657.818	-27.5
3660.579	-26.5
3663.338	-32.5
3666.095	-31.5
3668.849	-47.5
3671.602	-19.5
3674.352	-37.5
3677.101	-17.5
3679.847	-19.5
3682.591	-36.5
3685.333	-40.5
3688.073	-27.5
3690.811	-35.5
3693.547	-40.5
3696.281	-39.5
3699.013	-33.5
3701.742	-36.5
3704.47	-41.5
3707.195	-28.5
3709.919	-27.5
3712.64	-33.5
3715.359	-40.5
3718.076	-20.5
3720.792	-31.5
3723.505	-29.5
3726.216	-22.5
3728.925	-35.5
3731.632	-36.5
3734.336	-30.5
3737.039	-36.5
3739.74	-35.5
3742.439	-55.5
3745.136	-21.5
3747.83	-27.5
3750.523	-30.5
3753.213	-88.5
3755.902	-34.5
3758.589	-44.5
3761.273	-40.5
3763.956	-23.5
3766.636	-47.5
3769.315	-20.5
3771.991	-34.5
3774.665	-32.5
3777.338	-30.5
3780.008	-42.5
3782.677	-32.5
3785.343	-48.5
3788.007	-50.5
3790.67	-28.5
3793.33	-43.5
3795.989	-40.5
3798.645	-26.5
3801.299	-47.5
3803.952	-44.5
3806.602	-38.5
3809.251	-30.5
3811.897	-35.5
3814.542	-33.5
3817.184	-36.5
3819.825	-35.5
3822.463	-47.5
3825.1	-38.5
3827.735	-34.5
3830.367	-37.5
3832.998	-24.5
3835.627	-37.5
3838.253	-27.5
3840.878	-33.5
3843.501	-18.5
3846.122	-28.5
3848.741	-25.5
3851.358	-25.5
3853.973	-43.5
3856.586	-24.5
3859.197	-38.5
3861.806	-33.5
3864.414	-42.5
3867.019	-36.5
3869.622	-23.5
3872.224	-22.5
3874.823	-17.5
3877.421	4.5
3880.016	18.5
3882.61	44.5
3885.202	51.5
3887.792	34.5
3890.38	12.5
3892.966	-17.5
3895.55	-34.5
3898.132	-27.5
3900.713	-27.5
3903.291	-30.5
3905.868	-35.5
3908.442	-27.5
3911.015	-30.5
3913.586	-35.5
3916.155	-36.5
3918.722	-39.5
3921.287	-41.5
3923.85	-48.5
3926.411	-36.5
3928.971	-38.5
3931.528	-32.5
3934.084	-34.5
3936.638	-41.5
3939.19	-32.5
3941.74	-31.5
3944.288	-37.5
3946.834	-35.5
3949.378	-25.5
3951.921	-39.5
3954.462	-35.5
3957	-30.5
3959.537	-19.5
3962.072	-33.5
3964.606	-52.5
3967.137	-36.5
3969.667	-36.5
3972.194	-24.5
3974.72	-37.5
3977.244	-55.5
3979.766	-36.5
3982.286	-38.5
3984.805	-25.5
3987.321	-22.5
3989.836	-25.5
3992.349	-35.5
3994.86	-30.5
3997.369	-41.5
3999.877	-35.5
4002.382	-35.5
4004.886	-26.5
4007.388	-29.5
4009.888	-21.5
4012.386	-28.5
4014.883	-31.5
4017.377	-35.5
4019.87	-25.5
4022.361	-42.5
4024.85	-31.5
4027.338	-29.5
4029.823	-38.5
4032.307	-34.5
4034.789	-36.5
4037.269	-28.5
4039.747	-46.5
4042.224	-24.5
4044.699	-37.5
4047.172	-36.5
4049.643	-25.5
4052.112	-55.5
4054.58	-31.5
4057.046	-45.5
4059.51	-30.5
4061.972	-31.5
4064.432	-47.5
4066.891	-19.5
4069.348	-32.5
4071.803	-28.5
4074.256	-35.5
4076.708	-26.5
4079.158	-31.5
4081.606	-18.5
4084.052	-34.5
4086.497	-27.5
4088.939	-30.5
4091.38	-30.5
4093.819	-29.5
4096.257	2.5
4098.693	-6.5
4101.127	-6.5
4103.559	-3.5
4105.989	59.5
4108.418	70.5
4110.845	50.5
4113.27	56.5
4115.694	68.5
4118.115	54.5
4120.535	-25.5
4122.954	-26.5
4125.37	-21.5
4127.785	-27.5
4130.198	-26.5
4132.609	-28.5
4135.019	8.5
4137.427	2.5
4139.833	6.5
4142.237	-3.5
