Data from 2018-3-6_conc=5_n=7_RamanShift_01.txt Node
Date: Tue Mar 06 14:41:18 GMT+02:00 2018
User: LAB3
Spectrometer: QEPB0276
Trigger mode: 0
Integration Time (sec): 3.000000E1
Scans to average: 1
Electric dark correction enabled: true
Nonlinearity correction enabled: false
Boxcar width: 0
XAxis mode: Raman Shifts
Number of Pixels in Spectrum: 1044
>>>>>Begin Spectral Data<<<<<
160.701	54.38
166.742	69.38
172.777	102.38
178.805	195.38
184.826	462.38
190.841	928.38
196.849	1450.38
202.85	1838.38
208.845	1975.38
214.833	1938.38
220.815	1893.38
226.789	1876.38
232.758	1884.38
238.719	1867.38
244.674	1830.38
250.623	1798.38
256.565	1774.38
262.5	1737.38
268.429	1714.38
274.351	1694.38
280.267	1702.38
286.176	1686.38
292.079	1685.38
297.975	1684.38
303.865	1674.38
309.748	1671.38
315.625	1658.38
321.495	1671.38
327.359	1660.38
333.217	1665.38
339.068	1637.38
344.912	1669.38
350.751	1649.38
356.583	1687.38
362.408	1678.38
368.227	1666.38
374.04	1679.38
379.847	1681.38
385.647	1694.38
391.44	1679.38
397.228	1699.38
403.009	1692.38
408.784	1726.38
414.553	1733.38
420.315	1732.38
426.071	1702.38
431.821	1722.38
437.565	1721.38
443.302	1695.38
449.033	1696.38
454.758	1690.38
460.477	1685.38
466.189	1675.38
471.896	1653.38
477.596	1650.38
483.29	1611.38
488.978	1638.38
494.66	1598.38
500.335	1548.38
506.005	1486.38
511.668	1416.38
517.325	1338.38
522.977	1292.38
528.622	1236.38
534.261	1233.38
539.894	1182.38
545.521	1180.38
551.141	1156.38
556.756	1140.38
562.365	1136.38
567.968	1122.38
573.565	1101.38
579.155	1116.38
584.74	1089.38
590.319	1117.38
595.892	1092.38
601.459	1121.38
607.02	1100.38
612.575	1091.38
618.124	1085.38
623.667	1047.38
629.204	1033.38
634.735	1026.38
640.261	1009.38
645.781	994.38
651.294	1001.38
656.802	1011.38
662.304	996.38
667.8	1014.38
673.29	985.38
678.775	996.38
684.254	986.38
689.726	973.38
695.193	983.38
700.655	963.38
706.11	963.38
711.56	954.38
717.004	956.38
722.442	931.38
727.874	956.38
733.301	952.38
738.722	916.38
744.137	932.38
749.547	907.38
754.951	926.38
760.349	919.38
765.741	942.38
771.128	941.38
776.509	948.38
781.885	977.38
787.254	984.38
792.618	966.38
797.977	982.38
803.33	980.38
808.677	962.38
814.019	962.38
819.355	937.38
824.686	944.38
830.011	916.38
835.33	946.38
840.644	935.38
845.952	911.38
851.255	906.38
856.552	910.38
861.844	893.38
867.13	869.38
872.41	872.38
877.686	870.38
882.955	858.38
888.219	856.38
893.478	814.38
898.731	833.38
903.979	824.38
909.221	802.38
914.458	803.38
919.69	804.38
924.916	804.38
930.136	805.38
935.351	789.38
940.561	808.38
945.766	809.38
950.965	814.38
956.158	782.38
961.347	779.38
966.529	782.38
971.707	775.38
976.879	768.38
982.046	756.38
987.208	738.38
992.364	754.38
997.515	752.38
1002.66	760.38
1007.801	749.38
1012.936	768.38
1018.066	746.38
1023.19	763.38
1028.309	772.38
1033.423	780.38
1038.532	778.38
1043.636	747.38
1048.734	761.38
1053.827	738.38
1058.915	741.38
1063.998	739.38
1069.075	741.38
1074.147	748.38
1079.214	712.38
1084.276	747.38
1089.333	731.38
1094.385	741.38
1099.431	734.38
1104.472	734.38
1109.509	727.38
1114.54	702.38
1119.565	686.38
1124.586	704.38
1129.602	690.38
1134.613	661.38
1139.618	668.38
1144.619	672.38
1149.614	681.38
1154.604	676.38
1159.589	670.38
1164.57	686.38
1169.545	689.38
1174.515	684.38
1179.48	679.38
1184.44	681.38
1189.395	682.38
1194.345	661.38
1199.29	668.38
1204.23	652.38
1209.165	646.38
1214.095	668.38
1219.021	661.38
1223.941	652.38
1228.856	672.38
1233.766	678.38
1238.672	684.38
1243.572	675.38
1248.467	669.38
1253.358	659.38
1258.244	634.38
1263.124	651.38
1268	634.38
1272.871	602.38
1277.737	607.38
1282.599	607.38
1287.455	597.38
1292.306	608.38
1297.153	604.38
1301.995	610.38
1306.832	613.38
1311.664	607.38
1316.491	603.38
1321.314	612.38
1326.132	606.38
1330.945	602.38
1335.753	584.38
1340.556	585.38
1345.354	557.38
1350.148	553.38
1354.937	558.38
1359.722	533.38
1364.501	541.38
1369.276	556.38
1374.046	543.38
1378.811	545.38
1383.572	552.38
1388.327	536.38
1393.079	519.38
1397.825	521.38
1402.567	523.38
1407.304	516.38
1412.036	515.38
1416.764	523.38
1421.487	498.38
1426.205	513.38
1430.919	508.38
1435.628	516.38
1440.333	500.38
1445.032	521.38
1449.727	519.38
1454.418	536.38
1459.104	536.38
1463.785	501.38
1468.462	522.38
1473.134	507.38
1477.802	499.38
1482.465	476.38
1487.123	488.38
1491.777	465.38
1496.426	458.38
1501.071	494.38
1505.711	463.38
1510.347	482.38
1514.978	481.38
1519.604	481.38
1524.226	489.38
1528.844	478.38
1533.457	483.38
1538.065	480.38
1542.669	463.38
1547.269	467.38
1551.864	470.38
1556.454	454.38
1561.041	461.38
1565.622	458.38
1570.199	467.38
1574.772	480.38
1579.34	473.38
1583.904	482.38
1588.464	498.38
1593.019	493.38
1597.569	471.38
1602.115	475.38
1606.657	483.38
1611.195	488.38
1615.728	488.38
1620.256	469.38
1624.78	461.38
1629.3	470.38
1633.816	463.38
1638.327	466.38
1642.834	476.38
1647.336	469.38
1651.834	492.38
1656.328	477.38
1660.817	468.38
1665.302	464.38
1669.783	454.38
1674.259	454.38
1678.732	439.38
1683.199	436.38
1687.663	405.38
1692.122	408.38
1696.577	400.38
1701.028	403.38
1705.474	389.38
1709.917	375.38
1714.355	377.38
1718.788	364.38
1723.218	356.38
1727.643	355.38
1732.064	353.38
1736.481	323.38
1740.893	347.38
1745.301	329.38
1749.705	308.38
1754.105	324.38
1758.501	311.38
1762.893	315.38
1767.28	287.38
1771.663	299.38
1776.042	283.38
1780.417	288.38
1784.787	295.38
1789.154	295.38
1793.516	299.38
1797.874	292.38
1802.228	285.38
1806.578	277.38
1810.924	299.38
1815.266	178.38
1819.603	288.38
1823.937	277.38
1828.266	285.38
1832.591	280.38
1836.913	273.38
1841.23	259.38
1845.543	269.38
1849.852	276.38
1854.156	265.38
1858.457	262.38
1862.754	258.38
1867.047	269.38
1871.335	282.38
1875.62	282.38
1879.9	277.38
1884.177	266.38
1888.449	268.38
1892.718	267.38
1896.982	273.38
1901.243	257.38
1905.499	259.38
1909.752	242.38
1914	234.38
1918.245	260.38
1922.485	258.38
1926.722	248.38
1930.954	247.38
1935.183	255.38
1939.408	255.38
1943.628	253.38
1947.845	250.38
1952.058	252.38
1956.267	232.38
1960.472	257.38
1964.673	241.38
1968.87	238.38
1973.063	239.38
1977.252	235.38
1981.438	228.38
1985.619	216.38
1989.797	212.38
1993.971	222.38
1998.14	232.38
2002.306	221.38
2006.469	225.38
2010.627	219.38
2014.781	219.38
2018.932	205.38
2023.078	231.38
2027.221	222.38
2031.36	203.38
2035.495	217.38
2039.627	205.38
2043.754	212.38
2047.878	207.38
2051.998	201.38
2056.114	209.38
2060.226	203.38
2064.334	202.38
2068.439	211.38
2072.54	206.38
2076.637	194.38
2080.73	193.38
2084.82	199.38
2088.906	192.38
2092.988	195.38
2097.066	201.38
2101.14	207.38
2105.211	201.38
2109.278	191.38
2113.342	188.38
2117.401	180.38
2121.457	177.38
2125.509	177.38
2129.558	186.38
2133.602	181.38
2137.643	183.38
2141.681	187.38
2145.714	183.38
2149.744	183.38
2153.77	178.38
2157.793	168.38
2161.812	143.38
2165.827	152.38
2169.838	175.38
2173.846	166.38
2177.851	159.38
2181.851	170.38
2185.848	158.38
2189.841	159.38
2193.831	155.38
2197.817	154.38
2201.799	150.38
2205.778	139.38
2209.753	143.38
2213.725	147.38
2217.693	144.38
2221.657	143.38
2225.618	150.38
2229.575	148.38
2233.529	149.38
2237.479	146.38
2241.425	134.38
2245.368	128.38
2249.307	137.38
2253.243	137.38
2257.175	137.38
2261.104	125.38
2265.029	138.38
2268.95	134.38
2272.868	126.38
2276.783	118.38
2280.694	128.38
2284.601	119.38
2288.505	114.38
2292.405	127.38
2296.302	109.38
2300.195	108.38
2304.085	83.38
2307.971	114.38
2311.854	87.38
2315.734	100.38
2319.609	109.38
2323.482	83.38
2327.351	92.38
2331.216	99.38
2335.078	107.38
2338.937	105.38
2342.792	95.38
2346.643	90.38
2350.492	106.38
2354.336	93.38
2358.178	101.38
2362.015	101.38
2365.85	97.38
2369.681	96.38
2373.508	95.38
2377.333	102.38
2381.153	99.38
2384.971	96.38
2388.785	102.38
2392.595	91.38
2396.402	92.38
2400.206	63.38
2404.007	80.38
2407.804	88.38
2411.597	90.38
2415.388	88.38
2419.174	87.38
2422.958	90.38
2426.738	83.38
2430.515	94.38
2434.289	83.38
2438.059	75.38
2441.825	87.38
2445.589	88.38
2449.349	69.38
2453.106	81.38
2456.859	81.38
2460.61	84.38
2464.356	65.38
2468.1	68.38
2471.84	63.38
2475.577	70.38
2479.311	66.38
2483.041	69.38
2486.768	88.38
2490.492	85.38
2494.213	73.38
2497.93	65.38
2501.644	53.38
2505.355	67.38
2509.062	65.38
2512.766	58.38
2516.467	63.38
2520.165	61.38
2523.859	53.38
2527.551	80.38
2531.239	60.38
2534.923	66.38
2538.605	54.38
2542.283	61.38
2545.958	56.38
2549.63	71.38
2553.299	74.38
2556.964	51.38
2560.626	55.38
2564.285	63.38
2567.941	46.38
2571.594	45.38
2575.243	62.38
2578.89	49.38
2582.533	57.38
2586.173	60.38
2589.809	52.38
2593.443	30.38
2597.073	56.38
2600.701	59.38
2604.325	53.38
2607.946	40.38
2611.564	62.38
2615.178	54.38
2618.79	58.38
2622.398	45.38
2626.004	56.38
2629.606	49.38
2633.205	40.38
2636.801	53.38
2640.394	51.38
2643.983	43.38
2647.57	37.38
2651.153	39.38
2654.734	54.38
2658.311	27.38
2661.885	37.38
2665.456	35.38
2669.025	42.38
2672.589	29.38
2676.151	51.38
2679.71	46.38
2683.266	44.38
2686.819	38.38
2690.368	40.38
2693.915	49.38
2697.458	46.38
2700.999	48.38
2704.536	52.38
2708.071	39.38
2711.602	38.38
2715.13	37.38
2718.656	15.38
2722.178	35.38
2725.697	24.38
2729.214	25.38
2732.727	33.38
2736.237	20.38
2739.744	25.38
2743.249	18.38
2746.75	28.38
2750.248	24.38
2753.743	22.38
2757.236	26.38
2760.725	34.38
2764.211	0.38
2767.695	29.38
2771.175	27.38
2774.652	30.38
2778.127	21.38
2781.598	22.38
2785.067	24.38
2788.532	16.38
2791.995	22.38
2795.455	18.38
2798.911	34.38
2802.365	19.38
2805.816	22.38
2809.264	37.38
2812.709	20.38
2816.151	33.38
2819.59	15.38
2823.026	19.38
2826.46	18.38
2829.89	30.38
2833.318	11.38
2836.742	21.38
2840.164	21.38
2843.583	25.38
2846.999	22.38
2850.412	33.38
2853.822	25.38
2857.229	36.38
2860.634	28.38
2864.035	8.38
2867.434	32.38
2870.83	26.38
2874.223	27.38
2877.613	24.38
2881	14.38
2884.385	17.38
2887.766	21.38
2891.145	32.38
2894.521	23.38
2897.894	19.38
2901.264	38.38
2904.631	35.38
2907.996	38.38
2911.358	35.38
2914.717	32.38
2918.073	29.38
2921.426	29.38
2924.777	16.38
2928.124	31.38
2931.469	51.38
2934.811	22.38
2938.15	46.38
2941.487	38.38
2944.821	54.38
2948.152	37.38
2951.48	52.38
2954.805	32.38
2958.128	54.38
2961.447	37.38
2964.765	53.38
2968.079	42.38
2971.39	47.38
2974.699	46.38
2978.005	47.38
2981.308	45.38
2984.609	36.38
2987.907	43.38
2991.202	49.38
2994.494	34.38
2997.784	48.38
3001.07	44.38
3004.355	37.38
3007.636	49.38
3010.915	41.38
3014.191	37.38
3017.464	46.38
3020.734	47.38
3024.002	51.38
3027.267	57.38
3030.53	52.38
3033.789	51.38
3037.046	52.38
3040.301	48.38
3043.552	50.38
3046.801	55.38
3050.048	68.38
3053.291	80.38
3056.532	70.38
3059.771	48.38
3063.006	67.38
3066.239	68.38
3069.469	74.38
3072.697	63.38
3075.922	66.38
3079.144	63.38
3082.364	91.38
3085.581	72.38
3088.795	92.38
3092.007	91.38
3095.216	95.38
3098.423	92.38
3101.627	68.38
3104.828	93.38
3108.026	85.38
3111.222	114.38
3114.416	117.38
3117.607	98.38
3120.795	107.38
3123.98	104.38
3127.163	96.38
3130.344	113.38
3133.521	101.38
3136.696	137.38
3139.869	121.38
3143.039	111.38
3146.206	144.38
3149.371	134.38
3152.533	125.38
3155.693	125.38
3158.85	129.38
3162.005	138.38
3165.157	139.38
3168.306	132.38
3171.453	139.38
3174.597	129.38
3177.739	124.38
3180.878	137.38
3184.014	139.38
3187.149	143.38
3190.28	139.38
3193.409	148.38
3196.536	141.38
3199.659	150.38
3202.781	150.38
3205.9	134.38
3209.016	140.38
3212.13	140.38
3215.241	132.38
3218.35	141.38
3221.456	133.38
3224.56	126.38
3227.661	138.38
3230.76	131.38
3233.856	126.38
3236.95	128.38
3240.041	118.38
3243.13	131.38
3246.216	132.38
3249.3	132.38
3252.382	126.38
3255.46	120.38
3258.537	75.38
3261.611	119.38
3264.682	128.38
3267.751	116.38
3270.818	108.38
3273.882	126.38
3276.943	111.38
3280.002	131.38
3283.059	110.38
3286.113	120.38
3289.165	112.38
3292.214	110.38
3295.261	119.38
3298.306	98.38
3301.348	110.38
3304.387	99.38
3307.425	109.38
3310.459	102.38
3313.492	110.38
3316.521	107.38
3319.549	107.38
3322.574	110.38
3325.597	103.38
3328.617	98.38
3331.635	97.38
3334.65	81.38
3337.663	95.38
3340.674	84.38
3343.682	100.38
3346.688	102.38
3349.691	87.38
3352.692	93.38
3355.691	100.38
3358.687	94.38
3361.681	98.38
3364.673	88.38
3367.662	98.38
3370.649	104.38
3373.633	81.38
3376.615	89.38
3379.595	74.38
3382.572	82.38
3385.547	73.38
3388.52	72.38
3391.49	82.38
3394.458	82.38
3397.424	85.38
3400.387	69.38
3403.348	82.38
3406.307	74.38
3409.263	72.38
3412.217	78.38
3415.168	77.38
3418.118	82.38
3421.065	72.38
3424.009	83.38
3426.951	68.38
3429.891	64.38
3432.829	61.38
3435.764	69.38
3438.697	52.38
3441.628	69.38
3444.557	52.38
3447.483	53.38
3450.407	60.38
3453.328	52.38
3456.247	49.38
3459.164	42.38
3462.079	56.38
3464.991	48.38
3467.902	43.38
3470.809	44.38
3473.715	48.38
3476.618	38.38
3479.519	43.38
3482.418	18.38
3485.315	25.38
3488.209	24.38
3491.101	22.38
3493.99	10.38
3496.878	21.38
3499.763	25.38
3502.646	20.38
3505.527	14.38
3508.405	12.38
3511.281	0.38
3514.155	17.38
3517.027	15.38
3519.897	0.38
3522.764	7.38
3525.629	-11.62
3528.492	6.38
3531.352	5.38
3534.211	8.38
3537.067	3.38
3539.921	1.38
3542.773	2.38
3545.622	-8.62
3548.469	-9.62
3551.315	-17.62
3554.157	-3.62
3556.998	-19.62
3559.837	-8.62
3562.673	-1.62
3565.507	-16.62
3568.339	-15.62
3571.169	-12.62
3573.996	-4.62
3576.822	-29.62
3579.645	-21.62
3582.466	-18.62
3585.285	-8.62
3588.101	-13.62
3590.916	-19.62
3593.728	-10.62
3596.538	-17.62
3599.346	-12.62
3602.152	-18.62
3604.956	-15.62
3607.757	-15.62
3610.556	-29.62
3613.354	-11.62
3616.149	-15.62
3618.942	-23.62
3621.732	-12.62
3624.521	-20.62
3627.307	-32.62
3630.092	-28.62
3632.874	-12.62
3635.654	-19.62
3638.432	-30.62
3641.208	-29.62
3643.982	-26.62
3646.753	-18.62
3649.523	-50.62
3652.29	-32.62
3655.055	-24.62
3657.818	-27.62
3660.579	-29.62
3663.338	-37.62
3666.095	-35.62
3668.849	-57.62
3671.602	-25.62
3674.352	-34.62
3677.101	-24.62
3679.847	-22.62
3682.591	-32.62
3685.333	-37.62
3688.073	-33.62
3690.811	-42.62
3693.547	-45.62
3696.281	-43.62
3699.013	-30.62
3701.742	-35.62
3704.47	-43.62
3707.195	-29.62
3709.919	-31.62
3712.64	-32.62
3715.359	-43.62
3718.076	-17.62
3720.792	-31.62
3723.505	-31.62
3726.216	-21.62
3728.925	-36.62
3731.632	-39.62
3734.336	-28.62
3737.039	-27.62
3739.74	-29.62
3742.439	-54.62
3745.136	-24.62
3747.83	-26.62
3750.523	-24.62
3753.213	-95.62
3755.902	-33.62
3758.589	-45.62
3761.273	-35.62
3763.956	-25.62
3766.636	-43.62
3769.315	-19.62
3771.991	-31.62
3774.665	-34.62
3777.338	-33.62
3780.008	-44.62
3782.677	-33.62
3785.343	-46.62
3788.007	-51.62
3790.67	-27.62
3793.33	-43.62
3795.989	-37.62
3798.645	-33.62
3801.299	-45.62
3803.952	-43.62
3806.602	-34.62
3809.251	-29.62
3811.897	-35.62
3814.542	-41.62
3817.184	-35.62
3819.825	-29.62
3822.463	-50.62
3825.1	-35.62
3827.735	-35.62
3830.367	-45.62
3832.998	-24.62
3835.627	-35.62
3838.253	-29.62
3840.878	-32.62
3843.501	-19.62
3846.122	-30.62
3848.741	-29.62
3851.358	-28.62
3853.973	-44.62
3856.586	-24.62
3859.197	-37.62
3861.806	-36.62
3864.414	-44.62
3867.019	-29.62
3869.622	-28.62
3872.224	-22.62
3874.823	-14.62
3877.421	7.38
3880.016	15.38
3882.61	47.38
3885.202	57.38
3887.792	39.38
3890.38	12.38
3892.966	-17.62
3895.55	-32.62
3898.132	-26.62
3900.713	-21.62
3903.291	-31.62
3905.868	-39.62
3908.442	-31.62
3911.015	-35.62
3913.586	-39.62
3916.155	-32.62
3918.722	-35.62
3921.287	-37.62
3923.85	-45.62
3926.411	-38.62
3928.971	-37.62
3931.528	-28.62
3934.084	-37.62
3936.638	-45.62
3939.19	-27.62
3941.74	-30.62
3944.288	-34.62
3946.834	-34.62
3949.378	-25.62
3951.921	-40.62
3954.462	-33.62
3957	-31.62
3959.537	-21.62
3962.072	-38.62
3964.606	-45.62
3967.137	-33.62
3969.667	-37.62
3972.194	-26.62
3974.72	-38.62
3977.244	-53.62
3979.766	-41.62
3982.286	-40.62
3984.805	-33.62
3987.321	-27.62
3989.836	-28.62
3992.349	-40.62
3994.86	-30.62
3997.369	-41.62
3999.877	-37.62
4002.382	-38.62
4004.886	-30.62
4007.388	-36.62
4009.888	-23.62
4012.386	-27.62
4014.883	-33.62
4017.377	-33.62
4019.87	-35.62
4022.361	-44.62
4024.85	-34.62
4027.338	-33.62
4029.823	-41.62
4032.307	-37.62
4034.789	-35.62
4037.269	-38.62
4039.747	-48.62
4042.224	-27.62
4044.699	-46.62
4047.172	-38.62
4049.643	-32.62
4052.112	-56.62
4054.58	-35.62
4057.046	-46.62
4059.51	-31.62
4061.972	-37.62
4064.432	-48.62
4066.891	-20.62
4069.348	-34.62
4071.803	-29.62
4074.256	-41.62
4076.708	-29.62
4079.158	-33.62
4081.606	-27.62
4084.052	-38.62
4086.497	-31.62
4088.939	-37.62
4091.38	-37.62
4093.819	-33.62
4096.257	0.38
4098.693	-2.62
4101.127	-6.62
4103.559	2.38
4105.989	64.38
4108.418	65.38
4110.845	48.38
4113.27	56.38
4115.694	64.38
4118.115	44.38
4120.535	-35.62
4122.954	-31.62
4125.37	-23.62
4127.785	-31.62
4130.198	-28.62
4132.609	-33.62
4135.019	4.38
4137.427	1.38
4139.833	5.38
4142.237	-4.62
