Data from 2018-3-6_conc=4_n=5_RamanShift_04.txt Node
Date: Tue Mar 06 14:03:49 GMT+02:00 2018
User: LAB3
Spectrometer: QEPB0276
Trigger mode: 0
Integration Time (sec): 3.000000E1
Scans to average: 1
Electric dark correction enabled: true
Nonlinearity correction enabled: false
Boxcar width: 0
XAxis mode: Raman Shifts
Number of Pixels in Spectrum: 1044
>>>>>Begin Spectral Data<<<<<
160.701	77.88
166.742	96.88
172.777	146.88
178.805	303.88
184.826	704.88
190.841	1430.88
196.849	2236.88
202.85	2862.88
208.845	3068.88
214.833	3061.88
220.815	2981.88
226.789	2996.88
232.758	3045.88
238.719	2988.88
244.674	2975.88
250.623	2952.88
256.565	2896.88
262.5	2871.88
268.429	2853.88
274.351	2834.88
280.267	2814.88
286.176	2797.88
292.079	2827.88
297.975	2816.88
303.865	2825.88
309.748	2818.88
315.625	2794.88
321.495	2810.88
327.359	2785.88
333.217	2785.88
339.068	2825.88
344.912	2835.88
350.751	2859.88
356.583	2856.88
362.408	2857.88
368.227	2883.88
374.04	2861.88
379.847	2885.88
385.647	2902.88
391.44	2910.88
397.228	2910.88
403.009	2909.88
408.784	2954.88
414.553	2945.88
420.315	2953.88
426.071	2944.88
431.821	2981.88
437.565	2972.88
443.302	2947.88
449.033	2941.88
454.758	2923.88
460.477	2877.88
466.189	2875.88
471.896	2851.88
477.596	2822.88
483.29	2811.88
488.978	2788.88
494.66	2757.88
500.335	2708.88
506.005	2587.88
511.668	2466.88
517.325	2350.88
522.977	2256.88
528.622	2193.88
534.261	2142.88
539.894	2089.88
545.521	2062.88
551.141	2023.88
556.756	2007.88
562.365	1994.88
567.968	1988.88
573.565	1960.88
579.155	1974.88
584.74	1950.88
590.319	1954.88
595.892	1946.88
601.459	1940.88
607.02	1927.88
612.575	1909.88
618.124	1890.88
623.667	1885.88
629.204	1841.88
634.735	1828.88
640.261	1813.88
645.781	1777.88
651.294	1769.88
656.802	1785.88
662.304	1790.88
667.8	1761.88
673.29	1764.88
678.775	1767.88
684.254	1756.88
689.726	1739.88
695.193	1736.88
700.655	1725.88
706.11	1712.88
711.56	1704.88
717.004	1692.88
722.442	1680.88
727.874	1668.88
733.301	1688.88
738.722	1665.88
744.137	1664.88
749.547	1665.88
754.951	1658.88
760.349	1645.88
765.741	1684.88
771.128	1666.88
776.509	1697.88
781.885	1729.88
787.254	1743.88
792.618	1744.88
797.977	1740.88
803.33	1745.88
808.677	1712.88
814.019	1687.88
819.355	1705.88
824.686	1675.88
830.011	1658.88
835.33	1688.88
840.644	1660.88
845.952	1632.88
851.255	1633.88
856.552	1615.88
861.844	1588.88
867.13	1564.88
872.41	1548.88
877.686	1548.88
882.955	1549.88
888.219	1523.88
893.478	1510.88
898.731	1493.88
903.979	1472.88
909.221	1450.88
914.458	1450.88
919.69	1434.88
924.916	1431.88
930.136	1452.88
935.351	1439.88
940.561	1473.88
945.766	1446.88
950.965	1429.88
956.158	1419.88
961.347	1405.88
966.529	1388.88
971.707	1392.88
976.879	1358.88
982.046	1349.88
987.208	1343.88
992.364	1341.88
997.515	1354.88
1002.66	1347.88
1007.801	1356.88
1012.936	1365.88
1018.066	1370.88
1023.19	1375.88
1028.309	1374.88
1033.423	1389.88
1038.532	1383.88
1043.636	1381.88
1048.734	1371.88
1053.827	1350.88
1058.915	1354.88
1063.998	1341.88
1069.075	1311.88
1074.147	1338.88
1079.214	1317.88
1084.276	1333.88
1089.333	1335.88
1094.385	1345.88
1099.431	1334.88
1104.472	1344.88
1109.509	1312.88
1114.54	1279.88
1119.565	1280.88
1124.586	1257.88
1129.602	1247.88
1134.613	1237.88
1139.618	1226.88
1144.619	1224.88
1149.614	1236.88
1154.604	1241.88
1159.589	1248.88
1164.57	1267.88
1169.545	1255.88
1174.515	1254.88
1179.48	1244.88
1184.44	1228.88
1189.395	1248.88
1194.345	1219.88
1199.29	1225.88
1204.23	1209.88
1209.165	1195.88
1214.095	1221.88
1219.021	1224.88
1223.941	1202.88
1228.856	1222.88
1233.766	1240.88
1238.672	1239.88
1243.572	1226.88
1248.467	1227.88
1253.358	1190.88
1258.244	1167.88
1263.124	1172.88
1268	1174.88
1272.871	1117.88
1277.737	1125.88
1282.599	1095.88
1287.455	1116.88
1292.306	1113.88
1297.153	1104.88
1301.995	1115.88
1306.832	1119.88
1311.664	1119.88
1316.491	1110.88
1321.314	1124.88
1326.132	1098.88
1330.945	1111.88
1335.753	1080.88
1340.556	1055.88
1345.354	1048.88
1350.148	1032.88
1354.937	1032.88
1359.722	1008.88
1364.501	996.88
1369.276	1012.88
1374.046	1004.88
1378.811	989.88
1383.572	993.88
1388.327	994.88
1393.079	988.88
1397.825	962.88
1402.567	969.88
1407.304	959.88
1412.036	966.88
1416.764	950.88
1421.487	942.88
1426.205	954.88
1430.919	952.88
1435.628	972.88
1440.333	944.88
1445.032	977.88
1449.727	981.88
1454.418	989.88
1459.104	973.88
1463.785	956.88
1468.462	948.88
1473.134	934.88
1477.802	924.88
1482.465	875.88
1487.123	900.88
1491.777	854.88
1496.426	856.88
1501.071	892.88
1505.711	871.88
1510.347	888.88
1514.978	887.88
1519.604	891.88
1524.226	887.88
1528.844	876.88
1533.457	898.88
1538.065	887.88
1542.669	871.88
1547.269	871.88
1551.864	862.88
1556.454	841.88
1561.041	861.88
1565.622	857.88
1570.199	866.88
1574.772	875.88
1579.34	883.88
1583.904	894.88
1588.464	900.88
1593.019	900.88
1597.569	887.88
1602.115	894.88
1606.657	881.88
1611.195	895.88
1615.728	896.88
1620.256	889.88
1624.78	856.88
1629.3	856.88
1633.816	872.88
1638.327	862.88
1642.834	880.88
1647.336	883.88
1651.834	907.88
1656.328	896.88
1660.817	890.88
1665.302	872.88
1669.783	854.88
1674.259	839.88
1678.732	815.88
1683.199	799.88
1687.663	780.88
1692.122	772.88
1696.577	752.88
1701.028	750.88
1705.474	726.88
1709.917	714.88
1714.355	711.88
1718.788	697.88
1723.218	674.88
1727.643	679.88
1732.064	672.88
1736.481	653.88
1740.893	668.88
1745.301	634.88
1749.705	605.88
1754.105	614.88
1758.501	600.88
1762.893	603.88
1767.28	580.88
1771.663	573.88
1776.042	569.88
1780.417	563.88
1784.787	556.88
1789.154	578.88
1793.516	577.88
1797.874	574.88
1802.228	552.88
1806.578	551.88
1810.924	548.88
1815.266	440.88
1819.603	559.88
1823.937	548.88
1828.266	528.88
1832.591	532.88
1836.913	526.88
1841.23	523.88
1845.543	512.88
1849.852	532.88
1854.156	528.88
1858.457	525.88
1862.754	515.88
1867.047	522.88
1871.335	530.88
1875.62	513.88
1879.9	522.88
1884.177	522.88
1888.449	511.88
1892.718	508.88
1896.982	524.88
1901.243	492.88
1905.499	499.88
1909.752	483.88
1914	467.88
1918.245	504.88
1922.485	499.88
1926.722	483.88
1930.954	471.88
1935.183	495.88
1939.408	493.88
1943.628	490.88
1947.845	495.88
1952.058	492.88
1956.267	474.88
1960.472	482.88
1964.673	472.88
1968.87	465.88
1973.063	456.88
1977.252	447.88
1981.438	453.88
1985.619	438.88
1989.797	435.88
1993.971	427.88
1998.14	448.88
2002.306	430.88
2006.469	429.88
2010.627	433.88
2014.781	429.88
2018.932	410.88
2023.078	437.88
2027.221	432.88
2031.36	411.88
2035.495	411.88
2039.627	412.88
2043.754	404.88
2047.878	399.88
2051.998	386.88
2056.114	403.88
2060.226	388.88
2064.334	396.88
2068.439	403.88
2072.54	405.88
2076.637	385.88
2080.73	391.88
2084.82	397.88
2088.906	384.88
2092.988	391.88
2097.066	384.88
2101.14	402.88
2105.211	393.88
2109.278	377.88
2113.342	374.88
2117.401	351.88
2121.457	358.88
2125.509	358.88
2129.558	360.88
2133.602	360.88
2137.643	354.88
2141.681	355.88
2145.714	352.88
2149.744	349.88
2153.77	348.88
2157.793	339.88
2161.812	313.88
2165.827	314.88
2169.838	335.88
2173.846	322.88
2177.851	311.88
2181.851	329.88
2185.848	309.88
2189.841	318.88
2193.831	314.88
2197.817	308.88
2201.799	307.88
2205.778	289.88
2209.753	296.88
2213.725	294.88
2217.693	298.88
2221.657	288.88
2225.618	294.88
2229.575	292.88
2233.529	288.88
2237.479	296.88
2241.425	277.88
2245.368	272.88
2249.307	275.88
2253.243	268.88
2257.175	272.88
2261.104	249.88
2265.029	264.88
2268.95	268.88
2272.868	250.88
2276.783	238.88
2280.694	247.88
2284.601	252.88
2288.505	237.88
2292.405	249.88
2296.302	226.88
2300.195	240.88
2304.085	204.88
2307.971	229.88
2311.854	204.88
2315.734	215.88
2319.609	220.88
2323.482	195.88
2327.351	197.88
2331.216	207.88
2335.078	211.88
2338.937	213.88
2342.792	199.88
2346.643	198.88
2350.492	213.88
2354.336	201.88
2358.178	203.88
2362.015	206.88
2365.85	203.88
2369.681	200.88
2373.508	208.88
2377.333	214.88
2381.153	204.88
2384.971	202.88
2388.785	198.88
2392.595	189.88
2396.402	187.88
2400.206	172.88
2404.007	194.88
2407.804	193.88
2411.597	201.88
2415.388	194.88
2419.174	184.88
2422.958	183.88
2426.738	181.88
2430.515	184.88
2434.289	173.88
2438.059	174.88
2441.825	175.88
2445.589	187.88
2449.349	165.88
2453.106	177.88
2456.859	171.88
2460.61	177.88
2464.356	153.88
2468.1	165.88
2471.84	158.88
2475.577	159.88
2479.311	155.88
2483.041	162.88
2486.768	176.88
2490.492	166.88
2494.213	161.88
2497.93	151.88
2501.644	142.88
2505.355	157.88
2509.062	158.88
2512.766	150.88
2516.467	152.88
2520.165	149.88
2523.859	137.88
2527.551	168.88
2531.239	144.88
2534.923	152.88
2538.605	140.88
2542.283	148.88
2545.958	151.88
2549.63	149.88
2553.299	143.88
2556.964	131.88
2560.626	132.88
2564.285	141.88
2567.941	130.88
2571.594	129.88
2575.243	144.88
2578.89	127.88
2582.533	131.88
2586.173	131.88
2589.809	137.88
2593.443	106.88
2597.073	122.88
2600.701	132.88
2604.325	130.88
2607.946	119.88
2611.564	134.88
2615.178	123.88
2618.79	126.88
2622.398	115.88
2626.004	126.88
2629.606	120.88
2633.205	111.88
2636.801	122.88
2640.394	121.88
2643.983	109.88
2647.57	111.88
2651.153	104.88
2654.734	115.88
2658.311	96.88
2661.885	92.88
2665.456	106.88
2669.025	109.88
2672.589	101.88
2676.151	108.88
2679.71	107.88
2683.266	109.88
2686.819	94.88
2690.368	102.88
2693.915	107.88
2697.458	101.88
2700.999	102.88
2704.536	99.88
2708.071	88.88
2711.602	94.88
2715.13	92.88
2718.656	74.88
2722.178	91.88
2725.697	76.88
2729.214	81.88
2732.727	89.88
2736.237	75.88
2739.744	83.88
2743.249	77.88
2746.75	86.88
2750.248	73.88
2753.743	82.88
2757.236	82.88
2760.725	88.88
2764.211	59.88
2767.695	90.88
2771.175	84.88
2774.652	84.88
2778.127	73.88
2781.598	78.88
2785.067	79.88
2788.532	79.88
2791.995	85.88
2795.455	71.88
2798.911	82.88
2802.365	71.88
2805.816	82.88
2809.264	92.88
2812.709	73.88
2816.151	84.88
2819.59	67.88
2823.026	79.88
2826.46	71.88
2829.89	92.88
2833.318	58.88
2836.742	74.88
2840.164	79.88
2843.583	82.88
2846.999	80.88
2850.412	81.88
2853.822	75.88
2857.229	94.88
2860.634	86.88
2864.035	64.88
2867.434	92.88
2870.83	97.88
2874.223	85.88
2877.613	86.88
2881	80.88
2884.385	86.88
2887.766	85.88
2891.145	86.88
2894.521	88.88
2897.894	75.88
2901.264	94.88
2904.631	94.88
2907.996	91.88
2911.358	101.88
2914.717	98.88
2918.073	87.88
2921.426	92.88
2924.777	80.88
2928.124	88.88
2931.469	103.88
2934.811	84.88
2938.15	113.88
2941.487	100.88
2944.821	116.88
2948.152	100.88
2951.48	111.88
2954.805	87.88
2958.128	117.88
2961.447	92.88
2964.765	117.88
2968.079	107.88
2971.39	109.88
2974.699	107.88
2978.005	107.88
2981.308	104.88
2984.609	97.88
2987.907	113.88
2991.202	114.88
2994.494	97.88
2997.784	118.88
3001.07	119.88
3004.355	114.88
3007.636	111.88
3010.915	117.88
3014.191	119.88
3017.464	115.88
3020.734	124.88
3024.002	121.88
3027.267	115.88
3030.53	129.88
3033.789	123.88
3037.046	127.88
3040.301	120.88
3043.552	129.88
3046.801	135.88
3050.048	142.88
3053.291	159.88
3056.532	146.88
3059.771	133.88
3063.006	162.88
3066.239	153.88
3069.469	167.88
3072.697	161.88
3075.922	158.88
3079.144	164.88
3082.364	194.88
3085.581	170.88
3088.795	190.88
3092.007	184.88
3095.216	196.88
3098.423	199.88
3101.627	170.88
3104.828	201.88
3108.026	197.88
3111.222	225.88
3114.416	230.88
3117.607	223.88
3120.795	226.88
3123.98	223.88
3127.163	217.88
3130.344	221.88
3133.521	225.88
3136.696	261.88
3139.869	252.88
3143.039	236.88
3146.206	277.88
3149.371	275.88
3152.533	266.88
3155.693	259.88
3158.85	268.88
3162.005	270.88
3165.157	273.88
3168.306	279.88
3171.453	282.88
3174.597	272.88
3177.739	264.88
3180.878	281.88
3184.014	280.88
3187.149	275.88
3190.28	282.88
3193.409	281.88
3196.536	280.88
3199.659	294.88
3202.781	294.88
3205.9	270.88
3209.016	280.88
3212.13	282.88
3215.241	289.88
3218.35	283.88
3221.456	275.88
3224.56	272.88
3227.661	273.88
3230.76	262.88
3233.856	266.88
3236.95	273.88
3240.041	257.88
3243.13	267.88
3246.216	258.88
3249.3	260.88
3252.382	258.88
3255.46	247.88
3258.537	194.88
3261.611	245.88
3264.682	250.88
3267.751	246.88
3270.818	240.88
3273.882	251.88
3276.943	245.88
3280.002	250.88
3283.059	239.88
3286.113	242.88
3289.165	232.88
3292.214	232.88
3295.261	242.88
3298.306	215.88
3301.348	229.88
3304.387	212.88
3307.425	225.88
3310.459	221.88
3313.492	221.88
3316.521	213.88
3319.549	223.88
3322.574	214.88
3325.597	208.88
3328.617	203.88
3331.635	209.88
3334.65	185.88
3337.663	201.88
3340.674	206.88
3343.682	207.88
3346.688	210.88
3349.691	194.88
3352.692	205.88
3355.691	202.88
3358.687	202.88
3361.681	203.88
3364.673	189.88
3367.662	197.88
3370.649	204.88
3373.633	182.88
3376.615	192.88
3379.595	171.88
3382.572	176.88
3385.547	166.88
3388.52	169.88
3391.49	174.88
3394.458	165.88
3397.424	172.88
3400.387	162.88
3403.348	171.88
3406.307	164.88
3409.263	169.88
3412.217	170.88
3415.168	155.88
3418.118	168.88
3421.065	148.88
3424.009	164.88
3426.951	142.88
3429.891	150.88
3432.829	151.88
3435.764	142.88
3438.697	131.88
3441.628	143.88
3444.557	113.88
3447.483	119.88
3450.407	137.88
3453.328	118.88
3456.247	109.88
3459.164	106.88
3462.079	122.88
3464.991	113.88
3467.902	103.88
3470.809	103.88
3473.715	100.88
3476.618	92.88
3479.519	95.88
3482.418	67.88
3485.315	85.88
3488.209	73.88
3491.101	79.88
3493.99	69.88
3496.878	66.88
3499.763	72.88
3502.646	69.88
3505.527	57.88
3508.405	55.88
3511.281	51.88
3514.155	56.88
3517.027	52.88
3519.897	38.88
3522.764	52.88
3525.629	31.88
3528.492	40.88
3531.352	47.88
3534.211	38.88
3537.067	27.88
3539.921	34.88
3542.773	36.88
3545.622	16.88
3548.469	18.88
3551.315	18.88
3554.157	26.88
3556.998	9.88
3559.837	15.88
3562.673	14.88
3565.507	9.88
3568.339	5.88
3571.169	8.88
3573.996	3.88
3576.822	-8.12
3579.645	-8.12
3582.466	-3.12
3585.285	10.88
3588.101	1.88
3590.916	0.88
3593.728	5.88
3596.538	-3.12
3599.346	2.88
3602.152	-6.12
3604.956	-6.12
3607.757	-1.12
3610.556	-14.12
3613.354	-2.12
3616.149	0.88
3618.942	-5.12
3621.732	-3.12
3624.521	-17.12
3627.307	-18.12
3630.092	-13.12
3632.874	-3.12
3635.654	-9.12
3638.432	-19.12
3641.208	-17.12
3643.982	-14.12
3646.753	-5.12
3649.523	-43.12
3652.29	-21.12
3655.055	-15.12
3657.818	-15.12
3660.579	-20.12
3663.338	-30.12
3666.095	-22.12
3668.849	-45.12
3671.602	-15.12
3674.352	-27.12
3677.101	-12.12
3679.847	-13.12
3682.591	-26.12
3685.333	-35.12
3688.073	-21.12
3690.811	-29.12
3693.547	-35.12
3696.281	-36.12
3699.013	-22.12
3701.742	-21.12
3704.47	-33.12
3707.195	-22.12
3709.919	-24.12
3712.64	-27.12
3715.359	-36.12
3718.076	-15.12
3720.792	-31.12
3723.505	-23.12
3726.216	-16.12
3728.925	-24.12
3731.632	-26.12
3734.336	-28.12
3737.039	-29.12
3739.74	-25.12
3742.439	-50.12
3745.136	-27.12
3747.83	-21.12
3750.523	-25.12
3753.213	-89.12
3755.902	-32.12
3758.589	-47.12
3761.273	-30.12
3763.956	-20.12
3766.636	-44.12
3769.315	-19.12
3771.991	-26.12
3774.665	-35.12
3777.338	-24.12
3780.008	-42.12
3782.677	-34.12
3785.343	-44.12
3788.007	-49.12
3790.67	-24.12
3793.33	-41.12
3795.989	-36.12
3798.645	-31.12
3801.299	-42.12
3803.952	-40.12
3806.602	-34.12
3809.251	-28.12
3811.897	-31.12
3814.542	-33.12
3817.184	-32.12
3819.825	-29.12
3822.463	-45.12
3825.1	-28.12
3827.735	-32.12
3830.367	-41.12
3832.998	-19.12
3835.627	-35.12
3838.253	-24.12
3840.878	-37.12
3843.501	-21.12
3846.122	-27.12
3848.741	-27.12
3851.358	-23.12
3853.973	-43.12
3856.586	-21.12
3859.197	-41.12
3861.806	-29.12
3864.414	-42.12
3867.019	-29.12
3869.622	-23.12
3872.224	-23.12
3874.823	-13.12
3877.421	7.88
3880.016	18.88
3882.61	50.88
3885.202	51.88
3887.792	36.88
3890.38	12.88
3892.966	-19.12
3895.55	-36.12
3898.132	-22.12
3900.713	-28.12
3903.291	-28.12
3905.868	-37.12
3908.442	-29.12
3911.015	-29.12
3913.586	-34.12
3916.155	-34.12
3918.722	-38.12
3921.287	-37.12
3923.85	-49.12
3926.411	-38.12
3928.971	-37.12
3931.528	-34.12
3934.084	-36.12
3936.638	-46.12
3939.19	-31.12
3941.74	-30.12
3944.288	-37.12
3946.834	-33.12
3949.378	-23.12
3951.921	-38.12
3954.462	-32.12
3957	-32.12
3959.537	-22.12
3962.072	-36.12
3964.606	-50.12
3967.137	-39.12
3969.667	-36.12
3972.194	-28.12
3974.72	-40.12
3977.244	-57.12
3979.766	-40.12
3982.286	-40.12
3984.805	-30.12
3987.321	-25.12
3989.836	-30.12
3992.349	-41.12
3994.86	-36.12
3997.369	-35.12
3999.877	-32.12
4002.382	-35.12
4004.886	-30.12
4007.388	-27.12
4009.888	-23.12
4012.386	-28.12
4014.883	-29.12
4017.377	-28.12
4019.87	-30.12
4022.361	-40.12
4024.85	-29.12
4027.338	-31.12
4029.823	-38.12
4032.307	-35.12
4034.789	-30.12
4037.269	-31.12
4039.747	-50.12
4042.224	-25.12
4044.699	-34.12
4047.172	-33.12
4049.643	-30.12
4052.112	-53.12
4054.58	-31.12
4057.046	-44.12
4059.51	-38.12
4061.972	-33.12
4064.432	-44.12
4066.891	-20.12
4069.348	-34.12
4071.803	-28.12
4074.256	-37.12
4076.708	-28.12
4079.158	-37.12
4081.606	-21.12
4084.052	-27.12
4086.497	-25.12
4088.939	-36.12
4091.38	-33.12
4093.819	-26.12
4096.257	-0.12
4098.693	-8.12
4101.127	-5.12
4103.559	-0.12
4105.989	62.88
4108.418	71.88
4110.845	59.88
4113.27	66.88
4115.694	73.88
4118.115	65.88
4120.535	-30.12
4122.954	-22.12
4125.37	-22.12
4127.785	-30.12
4130.198	-28.12
4132.609	-29.12
4135.019	7.88
4137.427	1.88
4139.833	3.88
4142.237	-0.12
