Data from 2018-3-6_conc=5_n=6_RamanShift_02.txt Node
Date: Tue Mar 06 14:38:48 GMT+02:00 2018
User: LAB3
Spectrometer: QEPB0276
Trigger mode: 0
Integration Time (sec): 3.000000E1
Scans to average: 1
Electric dark correction enabled: true
Nonlinearity correction enabled: false
Boxcar width: 0
XAxis mode: Raman Shifts
Number of Pixels in Spectrum: 1044
>>>>>Begin Spectral Data<<<<<
160.701	63.38
166.742	83.38
172.777	117.38
178.805	224.38
184.826	522.38
190.841	1034.38
196.849	1622.38
202.85	2057.38
208.845	2178.38
214.833	2158.38
220.815	2109.38
226.789	2076.38
232.758	2043.38
238.719	2035.38
244.674	1988.38
250.623	1949.38
256.565	1907.38
262.5	1873.38
268.429	1845.38
274.351	1822.38
280.267	1782.38
286.176	1774.38
292.079	1780.38
297.975	1771.38
303.865	1758.38
309.748	1741.38
315.625	1726.38
321.495	1733.38
327.359	1713.38
333.217	1735.38
339.068	1733.38
344.912	1739.38
350.751	1712.38
356.583	1730.38
362.408	1736.38
368.227	1741.38
374.04	1751.38
379.847	1740.38
385.647	1762.38
391.44	1747.38
397.228	1756.38
403.009	1767.38
408.784	1784.38
414.553	1805.38
420.315	1800.38
426.071	1794.38
431.821	1804.38
437.565	1784.38
443.302	1778.38
449.033	1770.38
454.758	1767.38
460.477	1744.38
466.189	1735.38
471.896	1716.38
477.596	1699.38
483.29	1685.38
488.978	1681.38
494.66	1659.38
500.335	1623.38
506.005	1544.38
511.668	1461.38
517.325	1387.38
522.977	1345.38
528.622	1283.38
534.261	1262.38
539.894	1209.38
545.521	1213.38
551.141	1181.38
556.756	1160.38
562.365	1166.38
567.968	1152.38
573.565	1134.38
579.155	1141.38
584.74	1117.38
590.319	1134.38
595.892	1135.38
601.459	1138.38
607.02	1119.38
612.575	1114.38
618.124	1115.38
623.667	1068.38
629.204	1061.38
634.735	1047.38
640.261	1028.38
645.781	1009.38
651.294	1022.38
656.802	1025.38
662.304	1025.38
667.8	1021.38
673.29	1008.38
678.775	1021.38
684.254	1008.38
689.726	1008.38
695.193	993.38
700.655	983.38
706.11	982.38
711.56	973.38
717.004	973.38
722.442	954.38
727.874	956.38
733.301	965.38
738.722	949.38
744.137	945.38
749.547	949.38
754.951	943.38
760.349	949.38
765.741	958.38
771.128	964.38
776.509	968.38
781.885	982.38
787.254	998.38
792.618	988.38
797.977	1008.38
803.33	994.38
808.677	992.38
814.019	994.38
819.355	977.38
824.686	952.38
830.011	961.38
835.33	951.38
840.644	947.38
845.952	934.38
851.255	941.38
856.552	924.38
861.844	906.38
867.13	889.38
872.41	887.38
877.686	871.38
882.955	877.38
888.219	862.38
893.478	845.38
898.731	824.38
903.979	827.38
909.221	824.38
914.458	825.38
919.69	812.38
924.916	818.38
930.136	820.38
935.351	809.38
940.561	828.38
945.766	823.38
950.965	817.38
956.158	798.38
961.347	799.38
966.529	780.38
971.707	789.38
976.879	771.38
982.046	761.38
987.208	742.38
992.364	759.38
997.515	749.38
1002.66	763.38
1007.801	764.38
1012.936	767.38
1018.066	758.38
1023.19	774.38
1028.309	785.38
1033.423	783.38
1038.532	796.38
1043.636	765.38
1048.734	766.38
1053.827	749.38
1058.915	746.38
1063.998	746.38
1069.075	753.38
1074.147	757.38
1079.214	722.38
1084.276	748.38
1089.333	752.38
1094.385	752.38
1099.431	744.38
1104.472	739.38
1109.509	719.38
1114.54	726.38
1119.565	702.38
1124.586	705.38
1129.602	696.38
1134.613	669.38
1139.618	681.38
1144.619	693.38
1149.614	686.38
1154.604	682.38
1159.589	685.38
1164.57	692.38
1169.545	717.38
1174.515	698.38
1179.48	686.38
1184.44	693.38
1189.395	702.38
1194.345	671.38
1199.29	683.38
1204.23	664.38
1209.165	657.38
1214.095	674.38
1219.021	675.38
1223.941	669.38
1228.856	674.38
1233.766	688.38
1238.672	672.38
1243.572	688.38
1248.467	682.38
1253.358	667.38
1258.244	650.38
1263.124	648.38
1268	648.38
1272.871	610.38
1277.737	616.38
1282.599	621.38
1287.455	610.38
1292.306	625.38
1297.153	604.38
1301.995	614.38
1306.832	617.38
1311.664	615.38
1316.491	623.38
1321.314	621.38
1326.132	609.38
1330.945	608.38
1335.753	598.38
1340.556	591.38
1345.354	573.38
1350.148	562.38
1354.937	555.38
1359.722	549.38
1364.501	547.38
1369.276	552.38
1374.046	546.38
1378.811	540.38
1383.572	541.38
1388.327	554.38
1393.079	528.38
1397.825	528.38
1402.567	535.38
1407.304	520.38
1412.036	523.38
1416.764	518.38
1421.487	520.38
1426.205	510.38
1430.919	519.38
1435.628	519.38
1440.333	510.38
1445.032	521.38
1449.727	535.38
1454.418	528.38
1459.104	538.38
1463.785	512.38
1468.462	520.38
1473.134	509.38
1477.802	503.38
1482.465	474.38
1487.123	482.38
1491.777	457.38
1496.426	451.38
1501.071	480.38
1505.711	471.38
1510.347	484.38
1514.978	489.38
1519.604	477.38
1524.226	486.38
1528.844	479.38
1533.457	491.38
1538.065	479.38
1542.669	475.38
1547.269	475.38
1551.864	477.38
1556.454	454.38
1561.041	463.38
1565.622	459.38
1570.199	465.38
1574.772	489.38
1579.34	484.38
1583.904	486.38
1588.464	505.38
1593.019	495.38
1597.569	471.38
1602.115	476.38
1606.657	479.38
1611.195	492.38
1615.728	487.38
1620.256	468.38
1624.78	451.38
1629.3	478.38
1633.816	470.38
1638.327	478.38
1642.834	480.38
1647.336	475.38
1651.834	497.38
1656.328	487.38
1660.817	478.38
1665.302	465.38
1669.783	460.38
1674.259	454.38
1678.732	447.38
1683.199	439.38
1687.663	424.38
1692.122	413.38
1696.577	405.38
1701.028	405.38
1705.474	385.38
1709.917	376.38
1714.355	371.38
1718.788	374.38
1723.218	367.38
1727.643	351.38
1732.064	348.38
1736.481	343.38
1740.893	345.38
1745.301	334.38
1749.705	306.38
1754.105	332.38
1758.501	319.38
1762.893	325.38
1767.28	295.38
1771.663	297.38
1776.042	293.38
1780.417	287.38
1784.787	298.38
1789.154	296.38
1793.516	302.38
1797.874	299.38
1802.228	285.38
1806.578	280.38
1810.924	292.38
1815.266	175.38
1819.603	286.38
1823.937	266.38
1828.266	278.38
1832.591	280.38
1836.913	277.38
1841.23	266.38
1845.543	260.38
1849.852	274.38
1854.156	260.38
1858.457	269.38
1862.754	262.38
1867.047	270.38
1871.335	284.38
1875.62	274.38
1879.9	277.38
1884.177	268.38
1888.449	268.38
1892.718	265.38
1896.982	269.38
1901.243	252.38
1905.499	252.38
1909.752	247.38
1914	225.38
1918.245	256.38
1922.485	254.38
1926.722	253.38
1930.954	242.38
1935.183	258.38
1939.408	265.38
1943.628	257.38
1947.845	248.38
1952.058	247.38
1956.267	241.38
1960.472	252.38
1964.673	244.38
1968.87	243.38
1973.063	230.38
1977.252	236.38
1981.438	223.38
1985.619	224.38
1989.797	212.38
1993.971	229.38
1998.14	236.38
2002.306	224.38
2006.469	233.38
2010.627	213.38
2014.781	226.38
2018.932	203.38
2023.078	239.38
2027.221	221.38
2031.36	213.38
2035.495	216.38
2039.627	210.38
2043.754	218.38
2047.878	199.38
2051.998	205.38
2056.114	197.38
2060.226	201.38
2064.334	206.38
2068.439	209.38
2072.54	212.38
2076.637	191.38
2080.73	202.38
2084.82	203.38
2088.906	200.38
2092.988	199.38
2097.066	210.38
2101.14	212.38
2105.211	213.38
2109.278	188.38
2113.342	192.38
2117.401	187.38
2121.457	177.38
2125.509	172.38
2129.558	196.38
2133.602	181.38
2137.643	185.38
2141.681	179.38
2145.714	194.38
2149.744	183.38
2153.77	189.38
2157.793	165.38
2161.812	141.38
2165.827	148.38
2169.838	178.38
2173.846	159.38
2177.851	162.38
2181.851	160.38
2185.848	158.38
2189.841	159.38
2193.831	153.38
2197.817	153.38
2201.799	151.38
2205.778	146.38
2209.753	145.38
2213.725	139.38
2217.693	150.38
2221.657	143.38
2225.618	146.38
2229.575	139.38
2233.529	149.38
2237.479	151.38
2241.425	136.38
2245.368	127.38
2249.307	137.38
2253.243	131.38
2257.175	136.38
2261.104	123.38
2265.029	135.38
2268.95	134.38
2272.868	129.38
2276.783	117.38
2280.694	129.38
2284.601	132.38
2288.505	127.38
2292.405	125.38
2296.302	107.38
2300.195	115.38
2304.085	83.38
2307.971	117.38
2311.854	91.38
2315.734	105.38
2319.609	113.38
2323.482	86.38
2327.351	95.38
2331.216	95.38
2335.078	101.38
2338.937	107.38
2342.792	93.38
2346.643	97.38
2350.492	106.38
2354.336	100.38
2358.178	102.38
2362.015	106.38
2365.85	95.38
2369.681	98.38
2373.508	96.38
2377.333	100.38
2381.153	102.38
2384.971	92.38
2388.785	99.38
2392.595	84.38
2396.402	88.38
2400.206	63.38
2404.007	80.38
2407.804	91.38
2411.597	93.38
2415.388	83.38
2419.174	79.38
2422.958	83.38
2426.738	82.38
2430.515	96.38
2434.289	76.38
2438.059	76.38
2441.825	79.38
2445.589	86.38
2449.349	65.38
2453.106	78.38
2456.859	74.38
2460.61	82.38
2464.356	69.38
2468.1	71.38
2471.84	69.38
2475.577	69.38
2479.311	66.38
2483.041	75.38
2486.768	83.38
2490.492	84.38
2494.213	76.38
2497.93	63.38
2501.644	56.38
2505.355	71.38
2509.062	66.38
2512.766	67.38
2516.467	67.38
2520.165	63.38
2523.859	47.38
2527.551	86.38
2531.239	62.38
2534.923	71.38
2538.605	68.38
2542.283	70.38
2545.958	61.38
2549.63	70.38
2553.299	76.38
2556.964	49.38
2560.626	57.38
2564.285	66.38
2567.941	45.38
2571.594	49.38
2575.243	64.38
2578.89	60.38
2582.533	55.38
2586.173	53.38
2589.809	59.38
2593.443	32.38
2597.073	49.38
2600.701	55.38
2604.325	53.38
2607.946	45.38
2611.564	60.38
2615.178	56.38
2618.79	54.38
2622.398	46.38
2626.004	52.38
2629.606	52.38
2633.205	42.38
2636.801	56.38
2640.394	48.38
2643.983	42.38
2647.57	42.38
2651.153	36.38
2654.734	54.38
2658.311	19.38
2661.885	40.38
2665.456	43.38
2669.025	37.38
2672.589	35.38
2676.151	51.38
2679.71	53.38
2683.266	40.38
2686.819	32.38
2690.368	45.38
2693.915	44.38
2697.458	41.38
2700.999	47.38
2704.536	43.38
2708.071	35.38
2711.602	34.38
2715.13	36.38
2718.656	19.38
2722.178	32.38
2725.697	22.38
2729.214	29.38
2732.727	32.38
2736.237	15.38
2739.744	21.38
2743.249	20.38
2746.75	23.38
2750.248	20.38
2753.743	21.38
2757.236	32.38
2760.725	33.38
2764.211	1.38
2767.695	30.38
2771.175	24.38
2774.652	29.38
2778.127	22.38
2781.598	24.38
2785.067	30.38
2788.532	17.38
2791.995	26.38
2795.455	14.38
2798.911	35.38
2802.365	20.38
2805.816	31.38
2809.264	32.38
2812.709	21.38
2816.151	29.38
2819.59	18.38
2823.026	23.38
2826.46	23.38
2829.89	33.38
2833.318	7.38
2836.742	24.38
2840.164	28.38
2843.583	29.38
2846.999	25.38
2850.412	33.38
2853.822	17.38
2857.229	37.38
2860.634	30.38
2864.035	9.38
2867.434	32.38
2870.83	37.38
2874.223	24.38
2877.613	31.38
2881	22.38
2884.385	24.38
2887.766	23.38
2891.145	27.38
2894.521	34.38
2897.894	27.38
2901.264	39.38
2904.631	38.38
2907.996	34.38
2911.358	40.38
2914.717	35.38
2918.073	29.38
2921.426	32.38
2924.777	18.38
2928.124	31.38
2931.469	48.38
2934.811	27.38
2938.15	51.38
2941.487	35.38
2944.821	56.38
2948.152	46.38
2951.48	50.38
2954.805	31.38
2958.128	48.38
2961.447	36.38
2964.765	56.38
2968.079	45.38
2971.39	50.38
2974.699	49.38
2978.005	53.38
2981.308	37.38
2984.609	31.38
2987.907	49.38
2991.202	53.38
2994.494	35.38
2997.784	49.38
3001.07	47.38
3004.355	45.38
3007.636	48.38
3010.915	48.38
3014.191	45.38
3017.464	55.38
3020.734	50.38
3024.002	55.38
3027.267	50.38
3030.53	53.38
3033.789	50.38
3037.046	55.38
3040.301	43.38
3043.552	57.38
3046.801	61.38
3050.048	70.38
3053.291	85.38
3056.532	68.38
3059.771	55.38
3063.006	79.38
3066.239	62.38
3069.469	73.38
3072.697	66.38
3075.922	65.38
3079.144	67.38
3082.364	96.38
3085.581	77.38
3088.795	97.38
3092.007	97.38
3095.216	103.38
3098.423	92.38
3101.627	72.38
3104.828	101.38
3108.026	88.38
3111.222	119.38
3114.416	118.38
3117.607	108.38
3120.795	107.38
3123.98	117.38
3127.163	105.38
3130.344	114.38
3133.521	112.38
3136.696	133.38
3139.869	131.38
3143.039	113.38
3146.206	150.38
3149.371	138.38
3152.533	134.38
3155.693	127.38
3158.85	142.38
3162.005	148.38
3165.157	134.38
3168.306	135.38
3171.453	147.38
3174.597	136.38
3177.739	142.38
3180.878	148.38
3184.014	142.38
3187.149	144.38
3190.28	143.38
3193.409	150.38
3196.536	140.38
3199.659	154.38
3202.781	164.38
3205.9	134.38
3209.016	147.38
3212.13	142.38
3215.241	142.38
3218.35	141.38
3221.456	140.38
3224.56	129.38
3227.661	142.38
3230.76	138.38
3233.856	134.38
3236.95	136.38
3240.041	120.38
3243.13	139.38
3246.216	132.38
3249.3	146.38
3252.382	135.38
3255.46	118.38
3258.537	75.38
3261.611	111.38
3264.682	128.38
3267.751	125.38
3270.818	112.38
3273.882	133.38
3276.943	119.38
3280.002	134.38
3283.059	121.38
3286.113	123.38
3289.165	109.38
3292.214	108.38
3295.261	126.38
3298.306	103.38
3301.348	121.38
3304.387	99.38
3307.425	118.38
3310.459	112.38
3313.492	114.38
3316.521	108.38
3319.549	111.38
3322.574	110.38
3325.597	103.38
3328.617	101.38
3331.635	103.38
3334.65	88.38
3337.663	106.38
3340.674	94.38
3343.682	98.38
3346.688	107.38
3349.691	92.38
3352.692	103.38
3355.691	100.38
3358.687	99.38
3361.681	101.38
3364.673	92.38
3367.662	97.38
3370.649	103.38
3373.633	84.38
3376.615	100.38
3379.595	75.38
3382.572	87.38
3385.547	79.38
3388.52	76.38
3391.49	83.38
3394.458	82.38
3397.424	89.38
3400.387	78.38
3403.348	83.38
3406.307	78.38
3409.263	78.38
3412.217	82.38
3415.168	81.38
3418.118	86.38
3421.065	66.38
3424.009	85.38
3426.951	72.38
3429.891	73.38
3432.829	67.38
3435.764	72.38
3438.697	58.38
3441.628	77.38
3444.557	51.38
3447.483	55.38
3450.407	62.38
3453.328	55.38
3456.247	51.38
3459.164	49.38
3462.079	56.38
3464.991	54.38
3467.902	50.38
3470.809	44.38
3473.715	52.38
3476.618	34.38
3479.519	41.38
3482.418	13.38
3485.315	27.38
3488.209	31.38
3491.101	31.38
3493.99	14.38
3496.878	26.38
3499.763	27.38
3502.646	26.38
3505.527	12.38
3508.405	13.38
3511.281	3.38
3514.155	23.38
3517.027	14.38
3519.897	2.38
3522.764	14.38
3525.629	-4.62
3528.492	9.38
3531.352	7.38
3534.211	3.38
3537.067	1.38
3539.921	-5.62
3542.773	6.38
3545.622	-5.62
3548.469	-10.62
3551.315	-10.62
3554.157	-6.62
3556.998	-14.62
3559.837	-12.62
3562.673	-3.62
3565.507	-16.62
3568.339	-18.62
3571.169	-13.62
3573.996	-13.62
3576.822	-30.62
3579.645	-30.62
3582.466	-23.62
3585.285	-15.62
3588.101	-18.62
3590.916	-18.62
3593.728	-13.62
3596.538	-20.62
3599.346	-13.62
3602.152	-28.62
3604.956	-16.62
3607.757	-18.62
3610.556	-31.62
3613.354	-20.62
3616.149	-16.62
3618.942	-17.62
3621.732	-19.62
3624.521	-25.62
3627.307	-33.62
3630.092	-29.62
3632.874	-8.62
3635.654	-24.62
3638.432	-32.62
3641.208	-32.62
3643.982	-28.62
3646.753	-21.62
3649.523	-49.62
3652.29	-32.62
3655.055	-24.62
3657.818	-27.62
3660.579	-31.62
3663.338	-38.62
3666.095	-34.62
3668.849	-54.62
3671.602	-26.62
3674.352	-42.62
3677.101	-21.62
3679.847	-20.62
3682.591	-32.62
3685.333	-44.62
3688.073	-28.62
3690.811	-42.62
3693.547	-45.62
3696.281	-43.62
3699.013	-29.62
3701.742	-36.62
3704.47	-42.62
3707.195	-26.62
3709.919	-30.62
3712.64	-26.62
3715.359	-38.62
3718.076	-20.62
3720.792	-30.62
3723.505	-33.62
3726.216	-22.62
3728.925	-34.62
3731.632	-40.62
3734.336	-32.62
3737.039	-28.62
3739.74	-28.62
3742.439	-58.62
3745.136	-24.62
3747.83	-23.62
3750.523	-25.62
3753.213	-85.62
3755.902	-30.62
3758.589	-50.62
3761.273	-33.62
3763.956	-26.62
3766.636	-48.62
3769.315	-23.62
3771.991	-34.62
3774.665	-36.62
3777.338	-30.62
3780.008	-44.62
3782.677	-37.62
3785.343	-45.62
3788.007	-55.62
3790.67	-26.62
3793.33	-46.62
3795.989	-35.62
3798.645	-30.62
3801.299	-48.62
3803.952	-44.62
3806.602	-38.62
3809.251	-26.62
3811.897	-33.62
3814.542	-36.62
3817.184	-41.62
3819.825	-32.62
3822.463	-45.62
3825.1	-35.62
3827.735	-32.62
3830.367	-46.62
3832.998	-18.62
3835.627	-34.62
3838.253	-19.62
3840.878	-35.62
3843.501	-21.62
3846.122	-28.62
3848.741	-28.62
3851.358	-28.62
3853.973	-43.62
3856.586	-28.62
3859.197	-42.62
3861.806	-31.62
3864.414	-44.62
3867.019	-35.62
3869.622	-26.62
3872.224	-23.62
3874.823	-11.62
3877.421	10.38
3880.016	25.38
3882.61	58.38
3885.202	66.38
3887.792	41.38
3890.38	18.38
3892.966	-20.62
3895.55	-37.62
3898.132	-26.62
3900.713	-31.62
3903.291	-33.62
3905.868	-40.62
3908.442	-36.62
3911.015	-37.62
3913.586	-43.62
3916.155	-41.62
3918.722	-38.62
3921.287	-41.62
3923.85	-51.62
3926.411	-40.62
3928.971	-40.62
3931.528	-32.62
3934.084	-38.62
3936.638	-47.62
3939.19	-33.62
3941.74	-31.62
3944.288	-44.62
3946.834	-36.62
3949.378	-33.62
3951.921	-40.62
3954.462	-34.62
3957	-33.62
3959.537	-24.62
3962.072	-41.62
3964.606	-52.62
3967.137	-40.62
3969.667	-41.62
3972.194	-31.62
3974.72	-45.62
3977.244	-58.62
3979.766	-43.62
3982.286	-39.62
3984.805	-32.62
3987.321	-27.62
3989.836	-28.62
3992.349	-45.62
3994.86	-31.62
3997.369	-42.62
3999.877	-39.62
4002.382	-38.62
4004.886	-31.62
4007.388	-31.62
4009.888	-28.62
4012.386	-23.62
4014.883	-29.62
4017.377	-32.62
4019.87	-31.62
4022.361	-44.62
4024.85	-32.62
4027.338	-30.62
4029.823	-35.62
4032.307	-34.62
4034.789	-27.62
4037.269	-30.62
4039.747	-46.62
4042.224	-26.62
4044.699	-37.62
4047.172	-37.62
4049.643	-24.62
4052.112	-54.62
4054.58	-35.62
4057.046	-45.62
4059.51	-34.62
4061.972	-32.62
4064.432	-51.62
4066.891	-20.62
4069.348	-33.62
4071.803	-33.62
4074.256	-37.62
4076.708	-29.62
4079.158	-31.62
4081.606	-19.62
4084.052	-35.62
4086.497	-28.62
4088.939	-35.62
4091.38	-32.62
4093.819	-33.62
4096.257	1.38
4098.693	-8.62
4101.127	-3.62
4103.559	2.38
4105.989	71.38
4108.418	67.38
4110.845	58.38
4113.27	58.38
4115.694	73.38
4118.115	57.38
4120.535	-30.62
4122.954	-25.62
4125.37	-20.62
4127.785	-34.62
4130.198	-25.62
4132.609	-26.62
4135.019	7.38
4137.427	-0.62
4139.833	6.38
4142.237	-4.62
