Data from 2018-3-6_conc=4_n=9_RamanShift_04.txt Node
Date: Tue Mar 06 14:17:18 GMT+02:00 2018
User: LAB3
Spectrometer: QEPB0276
Trigger mode: 0
Integration Time (sec): 3.000000E1
Scans to average: 1
Electric dark correction enabled: true
Nonlinearity correction enabled: false
Boxcar width: 0
XAxis mode: Raman Shifts
Number of Pixels in Spectrum: 1044
>>>>>Begin Spectral Data<<<<<
160.701	79.12
166.742	100.12
172.777	143.12
178.805	280.12
184.826	625.12
190.841	1278.12
196.849	1983.12
202.85	2516.12
208.845	2684.12
214.833	2650.12
220.815	2588.12
226.789	2580.12
232.758	2579.12
238.719	2533.12
244.674	2518.12
250.623	2497.12
256.565	2441.12
262.5	2416.12
268.429	2401.12
274.351	2370.12
280.267	2347.12
286.176	2341.12
292.079	2351.12
297.975	2335.12
303.865	2324.12
309.748	2357.12
315.625	2323.12
321.495	2320.12
327.359	2316.12
333.217	2319.12
339.068	2338.12
344.912	2325.12
350.751	2346.12
356.583	2348.12
362.408	2337.12
368.227	2344.12
374.04	2356.12
379.847	2353.12
385.647	2392.12
391.44	2371.12
397.228	2384.12
403.009	2390.12
408.784	2395.12
414.553	2426.12
420.315	2429.12
426.071	2426.12
431.821	2431.12
437.565	2442.12
443.302	2409.12
449.033	2396.12
454.758	2375.12
460.477	2354.12
466.189	2306.12
471.896	2308.12
477.596	2295.12
483.29	2281.12
488.978	2274.12
494.66	2256.12
500.335	2187.12
506.005	2097.12
511.668	1972.12
517.325	1894.12
522.977	1812.12
528.622	1735.12
534.261	1705.12
539.894	1681.12
545.521	1648.12
551.141	1600.12
556.756	1608.12
562.365	1589.12
567.968	1588.12
573.565	1566.12
579.155	1567.12
584.74	1555.12
590.319	1546.12
595.892	1549.12
601.459	1549.12
607.02	1547.12
612.575	1527.12
618.124	1514.12
623.667	1476.12
629.204	1459.12
634.735	1452.12
640.261	1422.12
645.781	1392.12
651.294	1403.12
656.802	1392.12
662.304	1399.12
667.8	1392.12
673.29	1396.12
678.775	1391.12
684.254	1385.12
689.726	1351.12
695.193	1373.12
700.655	1364.12
706.11	1351.12
711.56	1350.12
717.004	1340.12
722.442	1311.12
727.874	1328.12
733.301	1337.12
738.722	1297.12
744.137	1316.12
749.547	1318.12
754.951	1306.12
760.349	1304.12
765.741	1321.12
771.128	1330.12
776.509	1334.12
781.885	1369.12
787.254	1396.12
792.618	1378.12
797.977	1376.12
803.33	1365.12
808.677	1364.12
814.019	1344.12
819.355	1335.12
824.686	1333.12
830.011	1323.12
835.33	1308.12
840.644	1318.12
845.952	1288.12
851.255	1281.12
856.552	1260.12
861.844	1252.12
867.13	1233.12
872.41	1226.12
877.686	1230.12
882.955	1209.12
888.219	1192.12
893.478	1170.12
898.731	1177.12
903.979	1145.12
909.221	1138.12
914.458	1136.12
919.69	1131.12
924.916	1138.12
930.136	1140.12
935.351	1128.12
940.561	1122.12
945.766	1134.12
950.965	1139.12
956.158	1103.12
961.347	1096.12
966.529	1097.12
971.707	1092.12
976.879	1083.12
982.046	1056.12
987.208	1039.12
992.364	1062.12
997.515	1047.12
1002.66	1055.12
1007.801	1064.12
1012.936	1067.12
1018.066	1065.12
1023.19	1071.12
1028.309	1093.12
1033.423	1088.12
1038.532	1100.12
1043.636	1069.12
1048.734	1067.12
1053.827	1053.12
1058.915	1051.12
1063.998	1045.12
1069.075	1039.12
1074.147	1049.12
1079.214	1023.12
1084.276	1040.12
1089.333	1052.12
1094.385	1045.12
1099.431	1043.12
1104.472	1046.12
1109.509	1030.12
1114.54	1007.12
1119.565	1002.12
1124.586	978.12
1129.602	965.12
1134.613	954.12
1139.618	952.12
1144.619	956.12
1149.614	957.12
1154.604	959.12
1159.589	962.12
1164.57	985.12
1169.545	979.12
1174.515	982.12
1179.48	962.12
1184.44	967.12
1189.395	970.12
1194.345	954.12
1199.29	953.12
1204.23	934.12
1209.165	924.12
1214.095	947.12
1219.021	944.12
1223.941	931.12
1228.856	961.12
1233.766	955.12
1238.672	966.12
1243.572	957.12
1248.467	947.12
1253.358	932.12
1258.244	917.12
1263.124	917.12
1268	898.12
1272.871	865.12
1277.737	862.12
1282.599	854.12
1287.455	858.12
1292.306	875.12
1297.153	856.12
1301.995	861.12
1306.832	864.12
1311.664	866.12
1316.491	866.12
1321.314	875.12
1326.132	846.12
1330.945	847.12
1335.753	821.12
1340.556	821.12
1345.354	805.12
1350.148	796.12
1354.937	789.12
1359.722	762.12
1364.501	770.12
1369.276	771.12
1374.046	780.12
1378.811	758.12
1383.572	767.12
1388.327	773.12
1393.079	760.12
1397.825	743.12
1402.567	747.12
1407.304	738.12
1412.036	743.12
1416.764	742.12
1421.487	724.12
1426.205	724.12
1430.919	736.12
1435.628	727.12
1440.333	733.12
1445.032	741.12
1449.727	741.12
1454.418	762.12
1459.104	749.12
1463.785	727.12
1468.462	729.12
1473.134	721.12
1477.802	690.12
1482.465	686.12
1487.123	688.12
1491.777	671.12
1496.426	652.12
1501.071	692.12
1505.711	665.12
1510.347	671.12
1514.978	697.12
1519.604	682.12
1524.226	689.12
1528.844	670.12
1533.457	674.12
1538.065	669.12
1542.669	671.12
1547.269	660.12
1551.864	656.12
1556.454	656.12
1561.041	655.12
1565.622	657.12
1570.199	672.12
1574.772	669.12
1579.34	671.12
1583.904	693.12
1588.464	700.12
1593.019	698.12
1597.569	680.12
1602.115	685.12
1606.657	676.12
1611.195	704.12
1615.728	699.12
1620.256	669.12
1624.78	648.12
1629.3	667.12
1633.816	671.12
1638.327	665.12
1642.834	681.12
1647.336	674.12
1651.834	696.12
1656.328	673.12
1660.817	675.12
1665.302	669.12
1669.783	656.12
1674.259	645.12
1678.732	634.12
1683.199	623.12
1687.663	588.12
1692.122	594.12
1696.577	581.12
1701.028	564.12
1705.474	546.12
1709.917	530.12
1714.355	533.12
1718.788	530.12
1723.218	501.12
1727.643	508.12
1732.064	515.12
1736.481	487.12
1740.893	501.12
1745.301	484.12
1749.705	446.12
1754.105	469.12
1758.501	461.12
1762.893	458.12
1767.28	428.12
1771.663	430.12
1776.042	422.12
1780.417	414.12
1784.787	417.12
1789.154	427.12
1793.516	427.12
1797.874	428.12
1802.228	421.12
1806.578	400.12
1810.924	419.12
1815.266	305.12
1819.603	414.12
1823.937	399.12
1828.266	399.12
1832.591	401.12
1836.913	396.12
1841.23	393.12
1845.543	388.12
1849.852	396.12
1854.156	390.12
1858.457	384.12
1862.754	384.12
1867.047	387.12
1871.335	398.12
1875.62	405.12
1879.9	382.12
1884.177	378.12
1888.449	378.12
1892.718	383.12
1896.982	388.12
1901.243	367.12
1905.499	367.12
1909.752	359.12
1914	349.12
1918.245	377.12
1922.485	372.12
1926.722	362.12
1930.954	365.12
1935.183	372.12
1939.408	376.12
1943.628	363.12
1947.845	352.12
1952.058	367.12
1956.267	341.12
1960.472	360.12
1964.673	350.12
1968.87	341.12
1973.063	337.12
1977.252	347.12
1981.438	329.12
1985.619	323.12
1989.797	310.12
1993.971	325.12
1998.14	338.12
2002.306	320.12
2006.469	341.12
2010.627	311.12
2014.781	314.12
2018.932	313.12
2023.078	335.12
2027.221	318.12
2031.36	305.12
2035.495	304.12
2039.627	303.12
2043.754	307.12
2047.878	294.12
2051.998	292.12
2056.114	293.12
2060.226	292.12
2064.334	300.12
2068.439	304.12
2072.54	302.12
2076.637	292.12
2080.73	295.12
2084.82	293.12
2088.906	286.12
2092.988	287.12
2097.066	296.12
2101.14	293.12
2105.211	287.12
2109.278	276.12
2113.342	275.12
2117.401	269.12
2121.457	266.12
2125.509	265.12
2129.558	264.12
2133.602	266.12
2137.643	273.12
2141.681	268.12
2145.714	262.12
2149.744	263.12
2153.77	266.12
2157.793	245.12
2161.812	221.12
2165.827	234.12
2169.838	249.12
2173.846	232.12
2177.851	229.12
2181.851	242.12
2185.848	233.12
2189.841	236.12
2193.831	229.12
2197.817	232.12
2201.799	232.12
2205.778	220.12
2209.753	213.12
2213.725	213.12
2217.693	219.12
2221.657	213.12
2225.618	217.12
2229.575	215.12
2233.529	227.12
2237.479	215.12
2241.425	204.12
2245.368	191.12
2249.307	206.12
2253.243	198.12
2257.175	199.12
2261.104	188.12
2265.029	193.12
2268.95	191.12
2272.868	183.12
2276.783	176.12
2280.694	181.12
2284.601	182.12
2288.505	175.12
2292.405	187.12
2296.302	162.12
2300.195	176.12
2304.085	147.12
2307.971	169.12
2311.854	146.12
2315.734	162.12
2319.609	161.12
2323.482	145.12
2327.351	145.12
2331.216	149.12
2335.078	160.12
2338.937	155.12
2342.792	140.12
2346.643	143.12
2350.492	152.12
2354.336	141.12
2358.178	149.12
2362.015	158.12
2365.85	149.12
2369.681	145.12
2373.508	147.12
2377.333	156.12
2381.153	147.12
2384.971	144.12
2388.785	144.12
2392.595	137.12
2396.402	137.12
2400.206	114.12
2404.007	128.12
2407.804	135.12
2411.597	132.12
2415.388	129.12
2419.174	130.12
2422.958	135.12
2426.738	129.12
2430.515	139.12
2434.289	127.12
2438.059	124.12
2441.825	121.12
2445.589	135.12
2449.349	115.12
2453.106	128.12
2456.859	114.12
2460.61	128.12
2464.356	110.12
2468.1	111.12
2471.84	113.12
2475.577	116.12
2479.311	113.12
2483.041	117.12
2486.768	129.12
2490.492	123.12
2494.213	110.12
2497.93	99.12
2501.644	100.12
2505.355	114.12
2509.062	115.12
2512.766	105.12
2516.467	100.12
2520.165	103.12
2523.859	87.12
2527.551	123.12
2531.239	98.12
2534.923	108.12
2538.605	101.12
2542.283	106.12
2545.958	98.12
2549.63	109.12
2553.299	105.12
2556.964	94.12
2560.626	95.12
2564.285	99.12
2567.941	92.12
2571.594	90.12
2575.243	100.12
2578.89	89.12
2582.533	93.12
2586.173	92.12
2589.809	94.12
2593.443	66.12
2597.073	90.12
2600.701	95.12
2604.325	92.12
2607.946	76.12
2611.564	93.12
2615.178	85.12
2618.79	88.12
2622.398	78.12
2626.004	93.12
2629.606	89.12
2633.205	73.12
2636.801	89.12
2640.394	83.12
2643.983	82.12
2647.57	84.12
2651.153	67.12
2654.734	86.12
2658.311	51.12
2661.885	72.12
2665.456	71.12
2669.025	70.12
2672.589	72.12
2676.151	83.12
2679.71	81.12
2683.266	73.12
2686.819	59.12
2690.368	71.12
2693.915	71.12
2697.458	72.12
2700.999	70.12
2704.536	71.12
2708.071	68.12
2711.602	67.12
2715.13	64.12
2718.656	48.12
2722.178	65.12
2725.697	52.12
2729.214	57.12
2732.727	63.12
2736.237	47.12
2739.744	56.12
2743.249	50.12
2746.75	59.12
2750.248	47.12
2753.743	57.12
2757.236	53.12
2760.725	64.12
2764.211	32.12
2767.695	57.12
2771.175	53.12
2774.652	59.12
2778.127	50.12
2781.598	56.12
2785.067	53.12
2788.532	45.12
2791.995	53.12
2795.455	50.12
2798.911	63.12
2802.365	46.12
2805.816	51.12
2809.264	63.12
2812.709	47.12
2816.151	58.12
2819.59	42.12
2823.026	48.12
2826.46	47.12
2829.89	57.12
2833.318	30.12
2836.742	51.12
2840.164	52.12
2843.583	50.12
2846.999	55.12
2850.412	51.12
2853.822	50.12
2857.229	64.12
2860.634	58.12
2864.035	41.12
2867.434	59.12
2870.83	58.12
2874.223	53.12
2877.613	60.12
2881	55.12
2884.385	52.12
2887.766	54.12
2891.145	62.12
2894.521	57.12
2897.894	46.12
2901.264	66.12
2904.631	64.12
2907.996	61.12
2911.358	75.12
2914.717	65.12
2918.073	61.12
2921.426	59.12
2924.777	43.12
2928.124	61.12
2931.469	75.12
2934.811	61.12
2938.15	77.12
2941.487	68.12
2944.821	82.12
2948.152	73.12
2951.48	78.12
2954.805	68.12
2958.128	91.12
2961.447	71.12
2964.765	86.12
2968.079	73.12
2971.39	74.12
2974.699	75.12
2978.005	81.12
2981.308	75.12
2984.609	67.12
2987.907	80.12
2991.202	86.12
2994.494	66.12
2997.784	78.12
3001.07	80.12
3004.355	78.12
3007.636	88.12
3010.915	76.12
3014.191	81.12
3017.464	80.12
3020.734	83.12
3024.002	89.12
3027.267	88.12
3030.53	93.12
3033.789	90.12
3037.046	93.12
3040.301	83.12
3043.552	96.12
3046.801	103.12
3050.048	109.12
3053.291	123.12
3056.532	108.12
3059.771	93.12
3063.006	118.12
3066.239	115.12
3069.469	123.12
3072.697	116.12
3075.922	116.12
3079.144	131.12
3082.364	145.12
3085.581	126.12
3088.795	148.12
3092.007	140.12
3095.216	157.12
3098.423	139.12
3101.627	119.12
3104.828	149.12
3108.026	143.12
3111.222	165.12
3114.416	172.12
3117.607	168.12
3120.795	170.12
3123.98	172.12
3127.163	161.12
3130.344	168.12
3133.521	166.12
3136.696	192.12
3139.869	189.12
3143.039	182.12
3146.206	204.12
3149.371	212.12
3152.533	198.12
3155.693	197.12
3158.85	210.12
3162.005	203.12
3165.157	208.12
3168.306	205.12
3171.453	211.12
3174.597	200.12
3177.739	196.12
3180.878	216.12
3184.014	214.12
3187.149	206.12
3190.28	221.12
3193.409	216.12
3196.536	217.12
3199.659	227.12
3202.781	224.12
3205.9	211.12
3209.016	213.12
3212.13	211.12
3215.241	215.12
3218.35	208.12
3221.456	202.12
3224.56	192.12
3227.661	206.12
3230.76	205.12
3233.856	195.12
3236.95	203.12
3240.041	191.12
3243.13	195.12
3246.216	193.12
3249.3	202.12
3252.382	203.12
3255.46	190.12
3258.537	134.12
3261.611	181.12
3264.682	191.12
3267.751	180.12
3270.818	177.12
3273.882	190.12
3276.943	182.12
3280.002	205.12
3283.059	173.12
3286.113	182.12
3289.165	175.12
3292.214	165.12
3295.261	184.12
3298.306	155.12
3301.348	168.12
3304.387	150.12
3307.425	167.12
3310.459	158.12
3313.492	168.12
3316.521	158.12
3319.549	167.12
3322.574	162.12
3325.597	161.12
3328.617	150.12
3331.635	159.12
3334.65	137.12
3337.663	151.12
3340.674	145.12
3343.682	149.12
3346.688	153.12
3349.691	147.12
3352.692	147.12
3355.691	155.12
3358.687	145.12
3361.681	145.12
3364.673	141.12
3367.662	152.12
3370.649	154.12
3373.633	137.12
3376.615	141.12
3379.595	123.12
3382.572	126.12
3385.547	122.12
3388.52	118.12
3391.49	122.12
3394.458	127.12
3397.424	132.12
3400.387	113.12
3403.348	119.12
3406.307	123.12
3409.263	119.12
3412.217	127.12
3415.168	116.12
3418.118	127.12
3421.065	117.12
3424.009	120.12
3426.951	112.12
3429.891	104.12
3432.829	110.12
3435.764	107.12
3438.697	104.12
3441.628	111.12
3444.557	87.12
3447.483	83.12
3450.407	98.12
3453.328	86.12
3456.247	80.12
3459.164	75.12
3462.079	92.12
3464.991	79.12
3467.902	68.12
3470.809	71.12
3473.715	77.12
3476.618	63.12
3479.519	71.12
3482.418	49.12
3485.315	52.12
3488.209	53.12
3491.101	49.12
3493.99	37.12
3496.878	47.12
3499.763	48.12
3502.646	44.12
3505.527	38.12
3508.405	31.12
3511.281	24.12
3514.155	39.12
3517.027	29.12
3519.897	19.12
3522.764	25.12
3525.629	18.12
3528.492	25.12
3531.352	20.12
3534.211	21.12
3537.067	16.12
3539.921	17.12
3542.773	22.12
3545.622	5.12
3548.469	0.12
3551.315	5.12
3554.157	11.12
3556.998	1.12
3559.837	2.12
3562.673	5.12
3565.507	-2.88
3568.339	-4.88
3571.169	-5.88
3573.996	1.12
3576.822	-15.88
3579.645	-8.88
3582.466	-0.88
3585.285	2.12
3588.101	-3.88
3590.916	-9.88
3593.728	-2.88
3596.538	-9.88
3599.346	-7.88
3602.152	-9.88
3604.956	-7.88
3607.757	-2.88
3610.556	-23.88
3613.354	-7.88
3616.149	-6.88
3618.942	-4.88
3621.732	-8.88
3624.521	-16.88
3627.307	-19.88
3630.092	-21.88
3632.874	-4.88
3635.654	-15.88
3638.432	-27.88
3641.208	-18.88
3643.982	-22.88
3646.753	-10.88
3649.523	-48.88
3652.29	-23.88
3655.055	-17.88
3657.818	-19.88
3660.579	-23.88
3663.338	-33.88
3666.095	-27.88
3668.849	-52.88
3671.602	-18.88
3674.352	-36.88
3677.101	-13.88
3679.847	-21.88
3682.591	-34.88
3685.333	-38.88
3688.073	-25.88
3690.811	-29.88
3693.547	-38.88
3696.281	-43.88
3699.013	-24.88
3701.742	-28.88
3704.47	-41.88
3707.195	-25.88
3709.919	-30.88
3712.64	-23.88
3715.359	-43.88
3718.076	-17.88
3720.792	-31.88
3723.505	-24.88
3726.216	-16.88
3728.925	-29.88
3731.632	-31.88
3734.336	-26.88
3737.039	-29.88
3739.74	-32.88
3742.439	-55.88
3745.136	-24.88
3747.83	-28.88
3750.523	-22.88
3753.213	-82.88
3755.902	-31.88
3758.589	-47.88
3761.273	-36.88
3763.956	-17.88
3766.636	-43.88
3769.315	-19.88
3771.991	-29.88
3774.665	-37.88
3777.338	-32.88
3780.008	-44.88
3782.677	-37.88
3785.343	-48.88
3788.007	-47.88
3790.67	-26.88
3793.33	-42.88
3795.989	-35.88
3798.645	-31.88
3801.299	-47.88
3803.952	-47.88
3806.602	-34.88
3809.251	-29.88
3811.897	-33.88
3814.542	-34.88
3817.184	-35.88
3819.825	-33.88
3822.463	-46.88
3825.1	-35.88
3827.735	-34.88
3830.367	-43.88
3832.998	-24.88
3835.627	-34.88
3838.253	-26.88
3840.878	-35.88
3843.501	-17.88
3846.122	-30.88
3848.741	-26.88
3851.358	-28.88
3853.973	-39.88
3856.586	-21.88
3859.197	-41.88
3861.806	-33.88
3864.414	-43.88
3867.019	-32.88
3869.622	-23.88
3872.224	-25.88
3874.823	-11.88
3877.421	11.12
3880.016	19.12
3882.61	57.12
3885.202	69.12
3887.792	48.12
3890.38	19.12
3892.966	-14.88
3895.55	-34.88
3898.132	-24.88
3900.713	-20.88
3903.291	-34.88
3905.868	-39.88
3908.442	-28.88
3911.015	-31.88
3913.586	-34.88
3916.155	-33.88
3918.722	-34.88
3921.287	-33.88
3923.85	-45.88
3926.411	-42.88
3928.971	-38.88
3931.528	-33.88
3934.084	-37.88
3936.638	-42.88
3939.19	-25.88
3941.74	-32.88
3944.288	-38.88
3946.834	-35.88
3949.378	-26.88
3951.921	-37.88
3954.462	-34.88
3957	-32.88
3959.537	-23.88
3962.072	-34.88
3964.606	-50.88
3967.137	-37.88
3969.667	-41.88
3972.194	-29.88
3974.72	-38.88
3977.244	-58.88
3979.766	-41.88
3982.286	-40.88
3984.805	-30.88
3987.321	-26.88
3989.836	-30.88
3992.349	-40.88
3994.86	-31.88
3997.369	-42.88
3999.877	-35.88
4002.382	-33.88
4004.886	-31.88
4007.388	-32.88
4009.888	-22.88
4012.386	-25.88
4014.883	-31.88
4017.377	-33.88
4019.87	-28.88
4022.361	-43.88
4024.85	-33.88
4027.338	-33.88
4029.823	-38.88
4032.307	-37.88
4034.789	-33.88
4037.269	-31.88
4039.747	-47.88
4042.224	-30.88
4044.699	-37.88
4047.172	-33.88
4049.643	-25.88
4052.112	-57.88
4054.58	-34.88
4057.046	-43.88
4059.51	-31.88
4061.972	-34.88
4064.432	-48.88
4066.891	-21.88
4069.348	-32.88
4071.803	-32.88
4074.256	-36.88
4076.708	-28.88
4079.158	-30.88
4081.606	-20.88
4084.052	-30.88
4086.497	-27.88
4088.939	-37.88
4091.38	-36.88
4093.819	-28.88
4096.257	0.12
4098.693	-1.88
4101.127	-6.88
4103.559	5.12
4105.989	81.12
4108.418	82.12
4110.845	64.12
4113.27	71.12
4115.694	79.12
4118.115	72.12
4120.535	-32.88
4122.954	-30.88
4125.37	-24.88
4127.785	-30.88
4130.198	-28.88
4132.609	-30.88
4135.019	10.12
4137.427	-4.88
4139.833	3.12
4142.237	-4.88
