Data from 2018-3-6_conc=2_n=6_RamanShift_02.txt Node
Date: Tue Mar 06 12:57:49 GMT+02:00 2018
User: LAB3
Spectrometer: QEPB0276
Trigger mode: 0
Integration Time (sec): 3.000000E1
Scans to average: 1
Electric dark correction enabled: true
Nonlinearity correction enabled: false
Boxcar width: 0
XAxis mode: Raman Shifts
Number of Pixels in Spectrum: 1044
>>>>>Begin Spectral Data<<<<<
160.701	161.75
166.742	208.75
172.777	305.75
178.805	604.75
184.826	1389.75
190.841	2740.75
196.849	4379.75
202.85	5588.75
208.845	6035.75
214.833	6065.75
220.815	6013.75
226.789	5983.75
232.758	6040.75
238.719	6059.75
244.674	6036.75
250.623	5999.75
256.565	5959.75
262.5	5900.75
268.429	5915.75
274.351	5842.75
280.267	5898.75
286.176	5869.75
292.079	5876.75
297.975	5896.75
303.865	5927.75
309.748	5911.75
315.625	5908.75
321.495	5948.75
327.359	5960.75
333.217	6008.75
339.068	6026.75
344.912	6026.75
350.751	6052.75
356.583	6059.75
362.408	6139.75
368.227	6158.75
374.04	6163.75
379.847	6219.75
385.647	6213.75
391.44	6266.75
397.228	6316.75
403.009	6371.75
408.784	6386.75
414.553	6365.75
420.315	6408.75
426.071	6440.75
431.821	6446.75
437.565	6398.75
443.302	6425.75
449.033	6378.75
454.758	6343.75
460.477	6278.75
466.189	6227.75
471.896	6163.75
477.596	6094.75
483.29	6072.75
488.978	6069.75
494.66	5993.75
500.335	5847.75
506.005	5597.75
511.668	5329.75
517.325	5029.75
522.977	4836.75
528.622	4653.75
534.261	4548.75
539.894	4431.75
545.521	4381.75
551.141	4318.75
556.756	4270.75
562.365	4226.75
567.968	4226.75
573.565	4158.75
579.155	4154.75
584.74	4113.75
590.319	4116.75
595.892	4116.75
601.459	4117.75
607.02	4099.75
612.575	4060.75
618.124	4009.75
623.667	3934.75
629.204	3863.75
634.735	3842.75
640.261	3796.75
645.781	3741.75
651.294	3745.75
656.802	3735.75
662.304	3721.75
667.8	3719.75
673.29	3693.75
678.775	3688.75
684.254	3677.75
689.726	3642.75
695.193	3632.75
700.655	3632.75
706.11	3610.75
711.56	3567.75
717.004	3570.75
722.442	3512.75
727.874	3555.75
733.301	3534.75
738.722	3496.75
744.137	3500.75
749.547	3498.75
754.951	3479.75
760.349	3498.75
765.741	3526.75
771.128	3556.75
776.509	3591.75
781.885	3625.75
787.254	3673.75
792.618	3685.75
797.977	3706.75
803.33	3682.75
808.677	3627.75
814.019	3601.75
819.355	3569.75
824.686	3530.75
830.011	3524.75
835.33	3522.75
840.644	3503.75
845.952	3434.75
851.255	3426.75
856.552	3383.75
861.844	3349.75
867.13	3296.75
872.41	3299.75
877.686	3242.75
882.955	3230.75
888.219	3204.75
893.478	3145.75
898.731	3113.75
903.979	3088.75
909.221	3028.75
914.458	3021.75
919.69	3031.75
924.916	3008.75
930.136	3041.75
935.351	3036.75
940.561	3049.75
945.766	3044.75
950.965	3041.75
956.158	2955.75
961.347	2955.75
966.529	2912.75
971.707	2891.75
976.879	2854.75
982.046	2804.75
987.208	2786.75
992.364	2824.75
997.515	2830.75
1002.66	2832.75
1007.801	2859.75
1012.936	2882.75
1018.066	2866.75
1023.19	2891.75
1028.309	2927.75
1033.423	2899.75
1038.532	2906.75
1043.636	2895.75
1048.734	2888.75
1053.827	2840.75
1058.915	2819.75
1063.998	2809.75
1069.075	2807.75
1074.147	2817.75
1079.214	2787.75
1084.276	2840.75
1089.333	2804.75
1094.385	2821.75
1099.431	2801.75
1104.472	2782.75
1109.509	2754.75
1114.54	2725.75
1119.565	2677.75
1124.586	2651.75
1129.602	2616.75
1134.613	2570.75
1139.618	2581.75
1144.619	2570.75
1149.614	2579.75
1154.604	2583.75
1159.589	2598.75
1164.57	2621.75
1169.545	2641.75
1174.515	2620.75
1179.48	2615.75
1184.44	2582.75
1189.395	2585.75
1194.345	2565.75
1199.29	2541.75
1204.23	2536.75
1209.165	2515.75
1214.095	2551.75
1219.021	2535.75
1223.941	2560.75
1228.856	2562.75
1233.766	2581.75
1238.672	2602.75
1243.572	2566.75
1248.467	2553.75
1253.358	2504.75
1258.244	2470.75
1263.124	2453.75
1268	2420.75
1272.871	2340.75
1277.737	2339.75
1282.599	2333.75
1287.455	2312.75
1292.306	2327.75
1297.153	2322.75
1301.995	2350.75
1306.832	2348.75
1311.664	2349.75
1316.491	2358.75
1321.314	2356.75
1326.132	2327.75
1330.945	2294.75
1335.753	2241.75
1340.556	2210.75
1345.354	2180.75
1350.148	2166.75
1354.937	2147.75
1359.722	2117.75
1364.501	2094.75
1369.276	2092.75
1374.046	2103.75
1378.811	2072.75
1383.572	2076.75
1388.327	2086.75
1393.079	2053.75
1397.825	2042.75
1402.567	2016.75
1407.304	2007.75
1412.036	2006.75
1416.764	1992.75
1421.487	1987.75
1426.205	1979.75
1430.919	2003.75
1435.628	1997.75
1440.333	2009.75
1445.032	2043.75
1449.727	2051.75
1454.418	2077.75
1459.104	2062.75
1463.785	2009.75
1468.462	1989.75
1473.134	1960.75
1477.802	1940.75
1482.465	1889.75
1487.123	1884.75
1491.777	1845.75
1496.426	1848.75
1501.071	1875.75
1505.711	1893.75
1510.347	1888.75
1514.978	1892.75
1519.604	1891.75
1524.226	1914.75
1528.844	1889.75
1533.457	1893.75
1538.065	1866.75
1542.669	1862.75
1547.269	1832.75
1551.864	1829.75
1556.454	1819.75
1561.041	1811.75
1565.622	1812.75
1570.199	1812.75
1574.772	1839.75
1579.34	1858.75
1583.904	1865.75
1588.464	1875.75
1593.019	1896.75
1597.569	1889.75
1602.115	1876.75
1606.657	1877.75
1611.195	1884.75
1615.728	1868.75
1620.256	1831.75
1624.78	1833.75
1629.3	1861.75
1633.816	1874.75
1638.327	1869.75
1642.834	1895.75
1647.336	1889.75
1651.834	1905.75
1656.328	1915.75
1660.817	1901.75
1665.302	1870.75
1669.783	1845.75
1674.259	1812.75
1678.732	1795.75
1683.199	1750.75
1687.663	1698.75
1692.122	1667.75
1696.577	1626.75
1701.028	1608.75
1705.474	1559.75
1709.917	1549.75
1714.355	1533.75
1718.788	1519.75
1723.218	1479.75
1727.643	1460.75
1732.064	1445.75
1736.481	1416.75
1740.893	1403.75
1745.301	1364.75
1749.705	1330.75
1754.105	1317.75
1758.501	1273.75
1762.893	1271.75
1767.28	1227.75
1771.663	1236.75
1776.042	1201.75
1780.417	1205.75
1784.787	1217.75
1789.154	1231.75
1793.516	1220.75
1797.874	1219.75
1802.228	1207.75
1806.578	1199.75
1810.924	1199.75
1815.266	1087.75
1819.603	1179.75
1823.937	1130.75
1828.266	1138.75
1832.591	1139.75
1836.913	1129.75
1841.23	1118.75
1845.543	1101.75
1849.852	1117.75
1854.156	1100.75
1858.457	1114.75
1862.754	1108.75
1867.047	1117.75
1871.335	1120.75
1875.62	1140.75
1879.9	1125.75
1884.177	1116.75
1888.449	1107.75
1892.718	1099.75
1896.982	1104.75
1901.243	1083.75
1905.499	1080.75
1909.752	1092.75
1914	1060.75
1918.245	1085.75
1922.485	1105.75
1926.722	1096.75
1930.954	1095.75
1935.183	1096.75
1939.408	1112.75
1943.628	1100.75
1947.845	1097.75
1952.058	1074.75
1956.267	1044.75
1960.472	1044.75
1964.673	1018.75
1968.87	1014.75
1973.063	999.75
1977.252	977.75
1981.438	959.75
1985.619	960.75
1989.797	936.75
1993.971	939.75
1998.14	959.75
2002.306	938.75
2006.469	952.75
2010.627	928.75
2014.781	923.75
2018.932	915.75
2023.078	932.75
2027.221	916.75
2031.36	872.75
2035.495	891.75
2039.627	891.75
2043.754	882.75
2047.878	878.75
2051.998	855.75
2056.114	874.75
2060.226	879.75
2064.334	887.75
2068.439	882.75
2072.54	894.75
2076.637	874.75
2080.73	884.75
2084.82	887.75
2088.906	873.75
2092.988	882.75
2097.066	871.75
2101.14	885.75
2105.211	853.75
2109.278	846.75
2113.342	835.75
2117.401	809.75
2121.457	817.75
2125.509	797.75
2129.558	795.75
2133.602	798.75
2137.643	789.75
2141.681	794.75
2145.714	781.75
2149.744	781.75
2153.77	759.75
2157.793	757.75
2161.812	734.75
2165.827	724.75
2169.838	736.75
2173.846	711.75
2177.851	723.75
2181.851	704.75
2185.848	689.75
2189.841	680.75
2193.831	667.75
2197.817	669.75
2201.799	674.75
2205.778	659.75
2209.753	664.75
2213.725	651.75
2217.693	659.75
2221.657	635.75
2225.618	655.75
2229.575	646.75
2233.529	643.75
2237.479	637.75
2241.425	616.75
2245.368	604.75
2249.307	610.75
2253.243	588.75
2257.175	591.75
2261.104	577.75
2265.029	565.75
2268.95	569.75
2272.868	559.75
2276.783	543.75
2280.694	547.75
2284.601	546.75
2288.505	536.75
2292.405	541.75
2296.302	513.75
2300.195	514.75
2304.085	492.75
2307.971	500.75
2311.854	481.75
2315.734	493.75
2319.609	478.75
2323.482	464.75
2327.351	462.75
2331.216	459.75
2335.078	468.75
2338.937	454.75
2342.792	455.75
2346.643	462.75
2350.492	462.75
2354.336	456.75
2358.178	456.75
2362.015	448.75
2365.85	450.75
2369.681	446.75
2373.508	453.75
2377.333	469.75
2381.153	464.75
2384.971	444.75
2388.785	455.75
2392.595	434.75
2396.402	442.75
2400.206	411.75
2404.007	429.75
2407.804	432.75
2411.597	426.75
2415.388	433.75
2419.174	415.75
2422.958	417.75
2426.738	420.75
2430.515	426.75
2434.289	407.75
2438.059	410.75
2441.825	418.75
2445.589	423.75
2449.349	392.75
2453.106	403.75
2456.859	399.75
2460.61	395.75
2464.356	377.75
2468.1	374.75
2471.84	380.75
2475.577	365.75
2479.311	366.75
2483.041	365.75
2486.768	390.75
2490.492	377.75
2494.213	383.75
2497.93	365.75
2501.644	348.75
2505.355	365.75
2509.062	360.75
2512.766	365.75
2516.467	352.75
2520.165	362.75
2523.859	342.75
2527.551	372.75
2531.239	335.75
2534.923	357.75
2538.605	342.75
2542.283	352.75
2545.958	346.75
2549.63	354.75
2553.299	360.75
2556.964	331.75
2560.626	337.75
2564.285	347.75
2567.941	328.75
2571.594	330.75
2575.243	336.75
2578.89	327.75
2582.533	323.75
2586.173	324.75
2589.809	323.75
2593.443	301.75
2597.073	316.75
2600.701	312.75
2604.325	307.75
2607.946	295.75
2611.564	319.75
2615.178	307.75
2618.79	302.75
2622.398	285.75
2626.004	304.75
2629.606	302.75
2633.205	287.75
2636.801	284.75
2640.394	290.75
2643.983	278.75
2647.57	269.75
2651.153	264.75
2654.734	284.75
2658.311	244.75
2661.885	255.75
2665.456	260.75
2669.025	260.75
2672.589	253.75
2676.151	271.75
2679.71	262.75
2683.266	252.75
2686.819	242.75
2690.368	242.75
2693.915	247.75
2697.458	242.75
2700.999	243.75
2704.536	248.75
2708.071	241.75
2711.602	239.75
2715.13	232.75
2718.656	215.75
2722.178	230.75
2725.697	220.75
2729.214	219.75
2732.727	230.75
2736.237	224.75
2739.744	216.75
2743.249	220.75
2746.75	225.75
2750.248	227.75
2753.743	221.75
2757.236	217.75
2760.725	229.75
2764.211	197.75
2767.695	226.75
2771.175	218.75
2774.652	219.75
2778.127	204.75
2781.598	207.75
2785.067	219.75
2788.532	201.75
2791.995	213.75
2795.455	206.75
2798.911	214.75
2802.365	207.75
2805.816	221.75
2809.264	228.75
2812.709	211.75
2816.151	218.75
2819.59	201.75
2823.026	207.75
2826.46	211.75
2829.89	218.75
2833.318	191.75
2836.742	210.75
2840.164	221.75
2843.583	215.75
2846.999	218.75
2850.412	225.75
2853.822	224.75
2857.229	242.75
2860.634	228.75
2864.035	217.75
2867.434	233.75
2870.83	241.75
2874.223	238.75
2877.613	239.75
2881	239.75
2884.385	242.75
2887.766	241.75
2891.145	243.75
2894.521	236.75
2897.894	235.75
2901.264	250.75
2904.631	245.75
2907.996	260.75
2911.358	256.75
2914.717	253.75
2918.073	248.75
2921.426	250.75
2924.777	242.75
2928.124	265.75
2931.469	274.75
2934.811	257.75
2938.15	289.75
2941.487	281.75
2944.821	294.75
2948.152	279.75
2951.48	286.75
2954.805	267.75
2958.128	292.75
2961.447	281.75
2964.765	296.75
2968.079	284.75
2971.39	282.75
2974.699	293.75
2978.005	301.75
2981.308	297.75
2984.609	294.75
2987.907	305.75
2991.202	316.75
2994.494	295.75
2997.784	306.75
3001.07	306.75
3004.355	312.75
3007.636	316.75
3010.915	316.75
3014.191	311.75
3017.464	317.75
3020.734	322.75
3024.002	323.75
3027.267	328.75
3030.53	317.75
3033.789	327.75
3037.046	332.75
3040.301	323.75
3043.552	344.75
3046.801	353.75
3050.048	365.75
3053.291	380.75
3056.532	371.75
3059.771	370.75
3063.006	397.75
3066.239	403.75
3069.469	427.75
3072.697	414.75
3075.922	423.75
3079.144	429.75
3082.364	470.75
3085.581	453.75
3088.795	486.75
3092.007	477.75
3095.216	490.75
3098.423	486.75
3101.627	486.75
3104.828	510.75
3108.026	521.75
3111.222	547.75
3114.416	565.75
3117.607	554.75
3120.795	580.75
3123.98	582.75
3127.163	582.75
3130.344	600.75
3133.521	607.75
3136.696	635.75
3139.869	647.75
3143.039	638.75
3146.206	668.75
3149.371	681.75
3152.533	665.75
3155.693	662.75
3158.85	682.75
3162.005	687.75
3165.157	678.75
3168.306	684.75
3171.453	700.75
3174.597	677.75
3177.739	683.75
3180.878	699.75
3184.014	699.75
3187.149	704.75
3190.28	690.75
3193.409	707.75
3196.536	702.75
3199.659	714.75
3202.781	714.75
3205.9	699.75
3209.016	715.75
3212.13	712.75
3215.241	703.75
3218.35	707.75
3221.456	688.75
3224.56	684.75
3227.661	690.75
3230.76	683.75
3233.856	661.75
3236.95	667.75
3240.041	664.75
3243.13	662.75
3246.216	657.75
3249.3	671.75
3252.382	663.75
3255.46	644.75
3258.537	610.75
3261.611	645.75
3264.682	649.75
3267.751	644.75
3270.818	627.75
3273.882	645.75
3276.943	645.75
3280.002	643.75
3283.059	618.75
3286.113	621.75
3289.165	604.75
3292.214	597.75
3295.261	601.75
3298.306	580.75
3301.348	588.75
3304.387	566.75
3307.425	577.75
3310.459	556.75
3313.492	564.75
3316.521	545.75
3319.549	562.75
3322.574	546.75
3325.597	542.75
3328.617	535.75
3331.635	515.75
3334.65	510.75
3337.663	521.75
3340.674	520.75
3343.682	518.75
3346.688	520.75
3349.691	515.75
3352.692	512.75
3355.691	518.75
3358.687	516.75
3361.681	505.75
3364.673	501.75
3367.662	506.75
3370.649	498.75
3373.633	485.75
3376.615	482.75
3379.595	472.75
3382.572	471.75
3385.547	458.75
3388.52	437.75
3391.49	454.75
3394.458	445.75
3397.424	451.75
3400.387	430.75
3403.348	439.75
3406.307	438.75
3409.263	436.75
3412.217	432.75
3415.168	421.75
3418.118	442.75
3421.065	419.75
3424.009	423.75
3426.951	400.75
3429.891	399.75
3432.829	396.75
3435.764	392.75
3438.697	375.75
3441.628	380.75
3444.557	359.75
3447.483	343.75
3450.407	357.75
3453.328	331.75
3456.247	331.75
3459.164	314.75
3462.079	330.75
3464.991	304.75
3467.902	292.75
3470.809	300.75
3473.715	287.75
3476.618	270.75
3479.519	279.75
3482.418	246.75
3485.315	255.75
3488.209	251.75
3491.101	243.75
3493.99	223.75
3496.878	232.75
3499.763	232.75
3502.646	224.75
3505.527	205.75
3508.405	196.75
3511.281	187.75
3514.155	193.75
3517.027	184.75
3519.897	172.75
3522.764	175.75
3525.629	149.75
3528.492	157.75
3531.352	148.75
3534.211	147.75
3537.067	143.75
3539.921	130.75
3542.773	135.75
3545.622	119.75
3548.469	109.75
3551.315	103.75
3554.157	110.75
3556.998	89.75
3559.837	94.75
3562.673	97.75
3565.507	85.75
3568.339	78.75
3571.169	87.75
3573.996	83.75
3576.822	59.75
3579.645	69.75
3582.466	69.75
3585.285	72.75
3588.101	67.75
3590.916	60.75
3593.728	65.75
3596.538	55.75
3599.346	53.75
3602.152	44.75
3604.956	44.75
3607.757	45.75
3610.556	27.75
3613.354	43.75
3616.149	41.75
3618.942	39.75
3621.732	37.75
3624.521	28.75
3627.307	15.75
3630.092	19.75
3632.874	40.75
3635.654	26.75
3638.432	19.75
3641.208	18.75
3643.982	16.75
3646.753	22.75
3649.523	-7.25
3652.29	8.75
3655.055	15.75
3657.818	17.75
3660.579	5.75
3663.338	-5.25
3666.095	-0.25
3668.849	-20.25
3671.602	5.75
3674.352	-14.25
3677.101	10.75
3679.847	10.75
3682.591	-9.25
3685.333	-13.25
3688.073	-0.25
3690.811	-14.25
3693.547	-21.25
3696.281	-19.25
3699.013	-11.25
3701.742	-15.25
3704.47	-18.25
3707.195	-4.25
3709.919	-12.25
3712.64	-16.25
3715.359	-24.25
3718.076	-6.25
3720.792	-19.25
3723.505	-13.25
3726.216	-4.25
3728.925	-15.25
3731.632	-22.25
3734.336	-15.25
3737.039	-20.25
3739.74	-13.25
3742.439	-45.25
3745.136	-11.25
3747.83	-17.25
3750.523	-17.25
3753.213	-87.25
3755.902	-23.25
3758.589	-37.25
3761.273	-25.25
3763.956	-14.25
3766.636	-39.25
3769.315	-12.25
3771.991	-21.25
3774.665	-28.25
3777.338	-19.25
3780.008	-31.25
3782.677	-24.25
3785.343	-41.25
3788.007	-43.25
3790.67	-14.25
3793.33	-39.25
3795.989	-30.25
3798.645	-25.25
3801.299	-38.25
3803.952	-32.25
3806.602	-27.25
3809.251	-17.25
3811.897	-26.25
3814.542	-29.25
3817.184	-33.25
3819.825	-26.25
3822.463	-36.25
3825.1	-29.25
3827.735	-25.25
3830.367	-36.25
3832.998	-16.25
3835.627	-32.25
3838.253	-22.25
3840.878	-26.25
3843.501	-10.25
3846.122	-26.25
3848.741	-23.25
3851.358	-16.25
3853.973	-40.25
3856.586	-20.25
3859.197	-33.25
3861.806	-29.25
3864.414	-36.25
3867.019	-27.25
3869.622	-11.25
3872.224	-6.25
3874.823	13.75
3877.421	38.75
3880.016	62.75
3882.61	122.75
3885.202	132.75
3887.792	99.75
3890.38	53.75
3892.966	11.75
3895.55	-19.25
3898.132	-16.25
3900.713	-16.25
3903.291	-24.25
3905.868	-35.25
3908.442	-26.25
3911.015	-23.25
3913.586	-36.25
3916.155	-30.25
3918.722	-33.25
3921.287	-33.25
3923.85	-40.25
3926.411	-29.25
3928.971	-32.25
3931.528	-25.25
3934.084	-30.25
3936.638	-39.25
3939.19	-28.25
3941.74	-31.25
3944.288	-30.25
3946.834	-32.25
3949.378	-20.25
3951.921	-34.25
3954.462	-28.25
3957	-23.25
3959.537	-9.25
3962.072	-28.25
3964.606	-40.25
3967.137	-28.25
3969.667	-34.25
3972.194	-26.25
3974.72	-33.25
3977.244	-52.25
3979.766	-34.25
3982.286	-35.25
3984.805	-26.25
3987.321	-20.25
3989.836	-23.25
3992.349	-38.25
3994.86	-27.25
3997.369	-38.25
3999.877	-31.25
4002.382	-31.25
4004.886	-28.25
4007.388	-28.25
4009.888	-14.25
4012.386	-22.25
4014.883	-22.25
4017.377	-27.25
4019.87	-23.25
4022.361	-33.25
4024.85	-26.25
4027.338	-24.25
4029.823	-31.25
4032.307	-33.25
4034.789	-29.25
4037.269	-26.25
4039.747	-39.25
4042.224	-18.25
4044.699	-33.25
4047.172	-27.25
4049.643	-24.25
4052.112	-50.25
4054.58	-26.25
4057.046	-38.25
4059.51	-26.25
4061.972	-30.25
4064.432	-44.25
4066.891	-18.25
4069.348	-25.25
4071.803	-21.25
4074.256	-30.25
4076.708	-20.25
4079.158	-27.25
4081.606	-19.25
4084.052	-29.25
4086.497	-20.25
4088.939	-29.25
4091.38	-29.25
4093.819	-20.25
4096.257	0.75
4098.693	-5.25
4101.127	-6.25
4103.559	-1.25
4105.989	157.75
4108.418	152.75
4110.845	153.75
4113.27	148.75
4115.694	153.75
4118.115	151.75
4120.535	-22.25
4122.954	-21.25
4125.37	-12.25
4127.785	-22.25
4130.198	-17.25
4132.609	-26.25
4135.019	10.75
4137.427	-1.25
4139.833	5.75
4142.237	-3.25
