Data from 2018-3-6_conc=0_n=10_RamanShift_06.txt Node
Date: Tue Mar 06 12:40:19 GMT+02:00 2018
User: LAB3
Spectrometer: QEPB0276
Trigger mode: 0
Integration Time (sec): 3.000000E1
Scans to average: 1
Electric dark correction enabled: true
Nonlinearity correction enabled: false
Boxcar width: 0
XAxis mode: Raman Shifts
Number of Pixels in Spectrum: 1044
>>>>>Begin Spectral Data<<<<<
160.701	194.25
166.742	251.25
172.777	360.25
178.805	732.25
184.826	1637.25
190.841	3291.25
196.849	5249.25
202.85	6700.25
208.845	7330.25
214.833	7343.25
220.815	7273.25
226.789	7303.25
232.758	7394.25
238.719	7447.25
244.674	7450.25
250.623	7433.25
256.565	7378.25
262.5	7350.25
268.429	7345.25
274.351	7316.25
280.267	7327.25
286.176	7337.25
292.079	7410.25
297.975	7425.25
303.865	7433.25
309.748	7495.25
315.625	7485.25
321.495	7469.25
327.359	7488.25
333.217	7529.25
339.068	7582.25
344.912	7613.25
350.751	7671.25
356.583	7664.25
362.408	7702.25
368.227	7723.25
374.04	7760.25
379.847	7830.25
385.647	7895.25
391.44	7874.25
397.228	7941.25
403.009	8011.25
408.784	7998.25
414.553	8050.25
420.315	8065.25
426.071	8095.25
431.821	8158.25
437.565	8119.25
443.302	8081.25
449.033	8046.25
454.758	7980.25
460.477	7917.25
466.189	7876.25
471.896	7719.25
477.596	7711.25
483.29	7687.25
488.978	7704.25
494.66	7616.25
500.335	7389.25
506.005	7118.25
511.668	6735.25
517.325	6437.25
522.977	6129.25
528.622	5974.25
534.261	5801.25
539.894	5672.25
545.521	5620.25
551.141	5546.25
556.756	5478.25
562.365	5450.25
567.968	5408.25
573.565	5368.25
579.155	5368.25
584.74	5317.25
590.319	5287.25
595.892	5293.25
601.459	5305.25
607.02	5266.25
612.575	5250.25
618.124	5193.25
623.667	5083.25
629.204	5011.25
634.735	4973.25
640.261	4935.25
645.781	4883.25
651.294	4860.25
656.802	4837.25
662.304	4843.25
667.8	4828.25
673.29	4773.25
678.775	4795.25
684.254	4764.25
689.726	4705.25
695.193	4725.25
700.655	4695.25
706.11	4650.25
711.56	4647.25
717.004	4608.25
722.442	4588.25
727.874	4572.25
733.301	4544.25
738.722	4533.25
744.137	4526.25
749.547	4520.25
754.951	4519.25
760.349	4543.25
765.741	4578.25
771.128	4605.25
776.509	4642.25
781.885	4720.25
787.254	4744.25
792.618	4783.25
797.977	4770.25
803.33	4716.25
808.677	4686.25
814.019	4653.25
819.355	4632.25
824.686	4550.25
830.011	4523.25
835.33	4534.25
840.644	4506.25
845.952	4461.25
851.255	4455.25
856.552	4398.25
861.844	4307.25
867.13	4354.25
872.41	4351.25
877.686	4332.25
882.955	4396.25
888.219	4324.25
893.478	4220.25
898.731	4121.25
903.979	4045.25
909.221	3969.25
914.458	3962.25
919.69	3951.25
924.916	3976.25
930.136	3945.25
935.351	3943.25
940.561	3975.25
945.766	3924.25
950.965	3952.25
956.158	3900.25
961.347	3846.25
966.529	3831.25
971.707	3774.25
976.879	3734.25
982.046	3684.25
987.208	3679.25
992.364	3670.25
997.515	3666.25
1002.66	3738.25
1007.801	3751.25
1012.936	3774.25
1018.066	3791.25
1023.19	3831.25
1028.309	3851.25
1033.423	3837.25
1038.532	3862.25
1043.636	3845.25
1048.734	3829.25
1053.827	3791.25
1058.915	3740.25
1063.998	3723.25
1069.075	3692.25
1074.147	3694.25
1079.214	3678.25
1084.276	3765.25
1089.333	3753.25
1094.385	3761.25
1099.431	3731.25
1104.472	3734.25
1109.509	3620.25
1114.54	3591.25
1119.565	3568.25
1124.586	3514.25
1129.602	3486.25
1134.613	3433.25
1139.618	3403.25
1144.619	3418.25
1149.614	3404.25
1154.604	3413.25
1159.589	3415.25
1164.57	3459.25
1169.545	3466.25
1174.515	3478.25
1179.48	3444.25
1184.44	3429.25
1189.395	3407.25
1194.345	3369.25
1199.29	3344.25
1204.23	3343.25
1209.165	3358.25
1214.095	3368.25
1219.021	3382.25
1223.941	3406.25
1228.856	3375.25
1233.766	3433.25
1238.672	3401.25
1243.572	3408.25
1248.467	3365.25
1253.358	3332.25
1258.244	3305.25
1263.124	3239.25
1268	3212.25
1272.871	3163.25
1277.737	3127.25
1282.599	3142.25
1287.455	3128.25
1292.306	3134.25
1297.153	3136.25
1301.995	3150.25
1306.832	3167.25
1311.664	3153.25
1316.491	3155.25
1321.314	3144.25
1326.132	3103.25
1330.945	3078.25
1335.753	3014.25
1340.556	2958.25
1345.354	2914.25
1350.148	2877.25
1354.937	2842.25
1359.722	2811.25
1364.501	2804.25
1369.276	2798.25
1374.046	2807.25
1378.811	2788.25
1383.572	2783.25
1388.327	2775.25
1393.079	2755.25
1397.825	2737.25
1402.567	2724.25
1407.304	2716.25
1412.036	2721.25
1416.764	2703.25
1421.487	2704.25
1426.205	2680.25
1430.919	2710.25
1435.628	2745.25
1440.333	2733.25
1445.032	2743.25
1449.727	2786.25
1454.418	2821.25
1459.104	2825.25
1463.785	2782.25
1468.462	2732.25
1473.134	2656.25
1477.802	2614.25
1482.465	2529.25
1487.123	2537.25
1491.777	2496.25
1496.426	2479.25
1501.071	2506.25
1505.711	2510.25
1510.347	2524.25
1514.978	2511.25
1519.604	2506.25
1524.226	2537.25
1528.844	2500.25
1533.457	2496.25
1538.065	2477.25
1542.669	2456.25
1547.269	2441.25
1551.864	2434.25
1556.454	2387.25
1561.041	2425.25
1565.622	2429.25
1570.199	2444.25
1574.772	2466.25
1579.34	2477.25
1583.904	2485.25
1588.464	2514.25
1593.019	2539.25
1597.569	2493.25
1602.115	2509.25
1606.657	2482.25
1611.195	2480.25
1615.728	2453.25
1620.256	2437.25
1624.78	2420.25
1629.3	2440.25
1633.816	2453.25
1638.327	2435.25
1642.834	2467.25
1647.336	2473.25
1651.834	2479.25
1656.328	2486.25
1660.817	2484.25
1665.302	2436.25
1669.783	2418.25
1674.259	2378.25
1678.732	2315.25
1683.199	2255.25
1687.663	2185.25
1692.122	2145.25
1696.577	2095.25
1701.028	2046.25
1705.474	2005.25
1709.917	1956.25
1714.355	1963.25
1718.788	1953.25
1723.218	1942.25
1727.643	1909.25
1732.064	1922.25
1736.481	1871.25
1740.893	1833.25
1745.301	1787.25
1749.705	1728.25
1754.105	1718.25
1758.501	1677.25
1762.893	1657.25
1767.28	1623.25
1771.663	1620.25
1776.042	1573.25
1780.417	1575.25
1784.787	1555.25
1789.154	1567.25
1793.516	1554.25
1797.874	1537.25
1802.228	1546.25
1806.578	1520.25
1810.924	1536.25
1815.266	1437.25
1819.603	1510.25
1823.937	1502.25
1828.266	1490.25
1832.591	1488.25
1836.913	1471.25
1841.23	1447.25
1845.543	1451.25
1849.852	1463.25
1854.156	1463.25
1858.457	1463.25
1862.754	1469.25
1867.047	1455.25
1871.335	1483.25
1875.62	1473.25
1879.9	1456.25
1884.177	1455.25
1888.449	1445.25
1892.718	1433.25
1896.982	1419.25
1901.243	1390.25
1905.499	1373.25
1909.752	1361.25
1914	1346.25
1918.245	1368.25
1922.485	1356.25
1926.722	1368.25
1930.954	1352.25
1935.183	1370.25
1939.408	1369.25
1943.628	1368.25
1947.845	1363.25
1952.058	1337.25
1956.267	1329.25
1960.472	1320.25
1964.673	1287.25
1968.87	1269.25
1973.063	1251.25
1977.252	1239.25
1981.438	1230.25
1985.619	1201.25
1989.797	1193.25
1993.971	1220.25
1998.14	1193.25
2002.306	1200.25
2006.469	1210.25
2010.627	1195.25
2014.781	1173.25
2018.932	1182.25
2023.078	1185.25
2027.221	1159.25
2031.36	1157.25
2035.495	1116.25
2039.627	1127.25
2043.754	1112.25
2047.878	1094.25
2051.998	1098.25
2056.114	1086.25
2060.226	1078.25
2064.334	1089.25
2068.439	1100.25
2072.54	1093.25
2076.637	1084.25
2080.73	1100.25
2084.82	1084.25
2088.906	1080.25
2092.988	1089.25
2097.066	1070.25
2101.14	1083.25
2105.211	1069.25
2109.278	1041.25
2113.342	1049.25
2117.401	1029.25
2121.457	1014.25
2125.509	1010.25
2129.558	1016.25
2133.602	990.25
2137.643	1004.25
2141.681	975.25
2145.714	987.25
2149.744	981.25
2153.77	980.25
2157.793	951.25
2161.812	943.25
2165.827	925.25
2169.838	948.25
2173.846	918.25
2177.851	906.25
2181.851	901.25
2185.848	869.25
2189.841	877.25
2193.831	854.25
2197.817	860.25
2201.799	856.25
2205.778	852.25
2209.753	845.25
2213.725	836.25
2217.693	833.25
2221.657	837.25
2225.618	845.25
2229.575	812.25
2233.529	826.25
2237.479	821.25
2241.425	805.25
2245.368	773.25
2249.307	775.25
2253.243	763.25
2257.175	765.25
2261.104	738.25
2265.029	740.25
2268.95	738.25
2272.868	721.25
2276.783	701.25
2280.694	700.25
2284.601	691.25
2288.505	690.25
2292.405	693.25
2296.302	671.25
2300.195	668.25
2304.085	629.25
2307.971	657.25
2311.854	618.25
2315.734	627.25
2319.609	634.25
2323.482	609.25
2327.351	599.25
2331.216	613.25
2335.078	619.25
2338.937	605.25
2342.792	590.25
2346.643	590.25
2350.492	615.25
2354.336	593.25
2358.178	606.25
2362.015	610.25
2365.85	601.25
2369.681	603.25
2373.508	621.25
2377.333	613.25
2381.153	602.25
2384.971	589.25
2388.785	596.25
2392.595	581.25
2396.402	571.25
2400.206	565.25
2404.007	577.25
2407.804	580.25
2411.597	583.25
2415.388	575.25
2419.174	577.25
2422.958	572.25
2426.738	556.25
2430.515	570.25
2434.289	558.25
2438.059	548.25
2441.825	547.25
2445.589	551.25
2449.349	535.25
2453.106	548.25
2456.859	538.25
2460.61	544.25
2464.356	518.25
2468.1	506.25
2471.84	508.25
2475.577	512.25
2479.311	503.25
2483.041	499.25
2486.768	509.25
2490.492	517.25
2494.213	499.25
2497.93	500.25
2501.644	489.25
2505.355	490.25
2509.062	482.25
2512.766	498.25
2516.467	475.25
2520.165	475.25
2523.859	458.25
2527.551	496.25
2531.239	463.25
2534.923	481.25
2538.605	468.25
2542.283	468.25
2545.958	465.25
2549.63	469.25
2553.299	461.25
2556.964	456.25
2560.626	457.25
2564.285	460.25
2567.941	439.25
2571.594	437.25
2575.243	446.25
2578.89	436.25
2582.533	437.25
2586.173	432.25
2589.809	425.25
2593.443	407.25
2597.073	428.25
2600.701	415.25
2604.325	403.25
2607.946	396.25
2611.564	415.25
2615.178	405.25
2618.79	397.25
2622.398	391.25
2626.004	402.25
2629.606	402.25
2633.205	384.25
2636.801	387.25
2640.394	387.25
2643.983	380.25
2647.57	375.25
2651.153	362.25
2654.734	378.25
2658.311	345.25
2661.885	351.25
2665.456	350.25
2669.025	352.25
2672.589	344.25
2676.151	357.25
2679.71	357.25
2683.266	342.25
2686.819	333.25
2690.368	345.25
2693.915	345.25
2697.458	332.25
2700.999	329.25
2704.536	327.25
2708.071	323.25
2711.602	314.25
2715.13	315.25
2718.656	295.25
2722.178	312.25
2725.697	290.25
2729.214	298.25
2732.727	302.25
2736.237	285.25
2739.744	296.25
2743.249	287.25
2746.75	289.25
2750.248	287.25
2753.743	292.25
2757.236	292.25
2760.725	286.25
2764.211	263.25
2767.695	288.25
2771.175	281.25
2774.652	286.25
2778.127	273.25
2781.598	277.25
2785.067	280.25
2788.532	273.25
2791.995	291.25
2795.455	277.25
2798.911	291.25
2802.365	277.25
2805.816	292.25
2809.264	300.25
2812.709	273.25
2816.151	294.25
2819.59	277.25
2823.026	297.25
2826.46	290.25
2829.89	300.25
2833.318	273.25
2836.742	293.25
2840.164	294.25
2843.583	299.25
2846.999	301.25
2850.412	308.25
2853.822	304.25
2857.229	331.25
2860.634	327.25
2864.035	297.25
2867.434	340.25
2870.83	341.25
2874.223	341.25
2877.613	343.25
2881	347.25
2884.385	362.25
2887.766	369.25
2891.145	371.25
2894.521	360.25
2897.894	355.25
2901.264	369.25
2904.631	364.25
2907.996	373.25
2911.358	373.25
2914.717	358.25
2918.073	357.25
2921.426	365.25
2924.777	358.25
2928.124	382.25
2931.469	406.25
2934.811	401.25
2938.15	439.25
2941.487	422.25
2944.821	431.25
2948.152	416.25
2951.48	420.25
2954.805	383.25
2958.128	405.25
2961.447	379.25
2964.765	395.25
2968.079	377.25
2971.39	385.25
2974.699	391.25
2978.005	387.25
2981.308	392.25
2984.609	390.25
2987.907	406.25
2991.202	407.25
2994.494	381.25
2997.784	401.25
3001.07	402.25
3004.355	388.25
3007.636	395.25
3010.915	397.25
3014.191	391.25
3017.464	398.25
3020.734	388.25
3024.002	395.25
3027.267	399.25
3030.53	416.25
3033.789	398.25
3037.046	405.25
3040.301	397.25
3043.552	428.25
3046.801	413.25
3050.048	444.25
3053.291	459.25
3056.532	449.25
3059.771	442.25
3063.006	477.25
3066.239	497.25
3069.469	508.25
3072.697	504.25
3075.922	512.25
3079.144	514.25
3082.364	551.25
3085.581	544.25
3088.795	569.25
3092.007	570.25
3095.216	595.25
3098.423	580.25
3101.627	585.25
3104.828	608.25
3108.026	613.25
3111.222	643.25
3114.416	653.25
3117.607	670.25
3120.795	666.25
3123.98	679.25
3127.163	681.25
3130.344	711.25
3133.521	718.25
3136.696	747.25
3139.869	750.25
3143.039	731.25
3146.206	786.25
3149.371	783.25
3152.533	786.25
3155.693	784.25
3158.85	794.25
3162.005	796.25
3165.157	793.25
3168.306	810.25
3171.453	815.25
3174.597	796.25
3177.739	797.25
3180.878	803.25
3184.014	811.25
3187.149	813.25
3190.28	809.25
3193.409	830.25
3196.536	821.25
3199.659	833.25
3202.781	847.25
3205.9	828.25
3209.016	829.25
3212.13	821.25
3215.241	821.25
3218.35	839.25
3221.456	813.25
3224.56	791.25
3227.661	788.25
3230.76	797.25
3233.856	774.25
3236.95	788.25
3240.041	757.25
3243.13	776.25
3246.216	772.25
3249.3	778.25
3252.382	766.25
3255.46	756.25
3258.537	711.25
3261.611	747.25
3264.682	752.25
3267.751	739.25
3270.818	737.25
3273.882	753.25
3276.943	740.25
3280.002	731.25
3283.059	725.25
3286.113	723.25
3289.165	705.25
3292.214	693.25
3295.261	689.25
3298.306	661.25
3301.348	659.25
3304.387	654.25
3307.425	643.25
3310.459	637.25
3313.492	645.25
3316.521	635.25
3319.549	633.25
3322.574	620.25
3325.597	619.25
3328.617	606.25
3331.635	607.25
3334.65	602.25
3337.663	611.25
3340.674	597.25
3343.682	601.25
3346.688	609.25
3349.691	584.25
3352.692	601.25
3355.691	599.25
3358.687	594.25
3361.681	588.25
3364.673	572.25
3367.662	570.25
3370.649	584.25
3373.633	561.25
3376.615	559.25
3379.595	541.25
3382.572	536.25
3385.547	528.25
3388.52	521.25
3391.49	529.25
3394.458	525.25
3397.424	510.25
3400.387	500.25
3403.348	499.25
3406.307	505.25
3409.263	495.25
3412.217	504.25
3415.168	484.25
3418.118	494.25
3421.065	483.25
3424.009	480.25
3426.951	473.25
3429.891	457.25
3432.829	456.25
3435.764	448.25
3438.697	435.25
3441.628	441.25
3444.557	419.25
3447.483	408.25
3450.407	405.25
3453.328	389.25
3456.247	384.25
3459.164	366.25
3462.079	370.25
3464.991	357.25
3467.902	345.25
3470.809	338.25
3473.715	340.25
3476.618	317.25
3479.519	327.25
3482.418	291.25
3485.315	299.25
3488.209	288.25
3491.101	282.25
3493.99	274.25
3496.878	272.25
3499.763	258.25
3502.646	262.25
3505.527	247.25
3508.405	238.25
3511.281	223.25
3514.155	230.25
3517.027	224.25
3519.897	201.25
3522.764	205.25
3525.629	176.25
3528.492	195.25
3531.352	186.25
3534.211	174.25
3537.067	158.25
3539.921	157.25
3542.773	159.25
3545.622	137.25
3548.469	127.25
3551.315	121.25
3554.157	132.25
3556.998	122.25
3559.837	123.25
3562.673	124.25
3565.507	106.25
3568.339	97.25
3571.169	98.25
3573.996	101.25
3576.822	78.25
3579.645	85.25
3582.466	78.25
3585.285	86.25
3588.101	86.25
3590.916	71.25
3593.728	71.25
3596.538	69.25
3599.346	73.25
3602.152	58.25
3604.956	58.25
3607.757	58.25
3610.556	41.25
3613.354	51.25
3616.149	53.25
3618.942	55.25
3621.732	50.25
3624.521	38.25
3627.307	27.25
3630.092	30.25
3632.874	43.25
3635.654	33.25
3638.432	29.25
3641.208	22.25
3643.982	25.25
3646.753	33.25
3649.523	-7.75
3652.29	15.25
3655.055	21.25
3657.818	15.25
3660.579	11.25
3663.338	2.25
3666.095	0.25
3668.849	-16.75
3671.602	12.25
3674.352	-6.75
3677.101	10.25
3679.847	7.25
3682.591	-8.75
3685.333	-12.75
3688.073	-2.75
3690.811	-10.75
3693.547	-16.75
3696.281	-15.75
3699.013	-4.75
3701.742	-11.75
3704.47	-20.75
3707.195	-4.75
3709.919	-8.75
3712.64	-14.75
3715.359	-24.75
3718.076	-2.75
3720.792	-15.75
3723.505	-9.75
3726.216	-1.75
3728.925	-15.75
3731.632	-20.75
3734.336	-14.75
3737.039	-17.75
3739.74	-17.75
3742.439	-46.75
3745.136	-13.75
3747.83	-12.75
3750.523	-13.75
3753.213	-82.75
3755.902	-19.75
3758.589	-31.75
3761.273	-26.75
3763.956	-9.75
3766.636	-32.75
3769.315	-13.75
3771.991	-21.75
3774.665	-25.75
3777.338	-20.75
3780.008	-28.75
3782.677	-22.75
3785.343	-38.75
3788.007	-35.75
3790.67	-21.75
3793.33	-33.75
3795.989	-29.75
3798.645	-21.75
3801.299	-33.75
3803.952	-33.75
3806.602	-25.75
3809.251	-20.75
3811.897	-25.75
3814.542	-28.75
3817.184	-31.75
3819.825	-27.75
3822.463	-40.75
3825.1	-29.75
3827.735	-28.75
3830.367	-30.75
3832.998	-9.75
3835.627	-27.75
3838.253	-19.75
3840.878	-31.75
3843.501	-13.75
3846.122	-25.75
3848.741	-21.75
3851.358	-18.75
3853.973	-35.75
3856.586	-18.75
3859.197	-32.75
3861.806	-27.75
3864.414	-37.75
3867.019	-22.75
3869.622	-12.75
3872.224	-4.75
3874.823	15.25
3877.421	51.25
3880.016	77.25
3882.61	134.25
3885.202	160.25
3887.792	118.25
3890.38	64.25
3892.966	15.25
3895.55	-21.75
3898.132	-9.75
3900.713	-18.75
3903.291	-24.75
3905.868	-32.75
3908.442	-27.75
3911.015	-29.75
3913.586	-34.75
3916.155	-31.75
3918.722	-31.75
3921.287	-32.75
3923.85	-35.75
3926.411	-36.75
3928.971	-33.75
3931.528	-28.75
3934.084	-33.75
3936.638	-37.75
3939.19	-27.75
3941.74	-34.75
3944.288	-33.75
3946.834	-29.75
3949.378	-27.75
3951.921	-36.75
3954.462	-32.75
3957	-26.75
3959.537	-15.75
3962.072	-27.75
3964.606	-44.75
3967.137	-33.75
3969.667	-35.75
3972.194	-26.75
3974.72	-35.75
3977.244	-53.75
3979.766	-30.75
3982.286	-35.75
3984.805	-23.75
3987.321	-20.75
3989.836	-21.75
3992.349	-40.75
3994.86	-28.75
3997.369	-32.75
3999.877	-33.75
4002.382	-31.75
4004.886	-21.75
4007.388	-24.75
4009.888	-17.75
4012.386	-21.75
4014.883	-24.75
4017.377	-24.75
4019.87	-20.75
4022.361	-37.75
4024.85	-27.75
4027.338	-25.75
4029.823	-34.75
4032.307	-28.75
4034.789	-23.75
4037.269	-23.75
4039.747	-40.75
4042.224	-22.75
4044.699	-32.75
4047.172	-29.75
4049.643	-20.75
4052.112	-54.75
4054.58	-25.75
4057.046	-42.75
4059.51	-26.75
4061.972	-30.75
4064.432	-48.75
4066.891	-18.75
4069.348	-33.75
4071.803	-26.75
4074.256	-30.75
4076.708	-21.75
4079.158	-26.75
4081.606	-15.75
4084.052	-32.75
4086.497	-22.75
4088.939	-25.75
4091.38	-29.75
4093.819	-17.75
4096.257	3.25
4098.693	-4.75
4101.127	-4.75
4103.559	0.25
4105.989	182.25
4108.418	182.25
4110.845	169.25
4113.27	179.25
4115.694	188.25
4118.115	179.25
4120.535	-27.75
4122.954	-22.75
4125.37	-15.75
4127.785	-23.75
4130.198	-14.75
4132.609	-21.75
4135.019	5.25
4137.427	0.25
4139.833	5.25
4142.237	-4.75
