Data from 2018-3-6_conc=2_n=2_RamanShift_03.txt Node
Date: Tue Mar 06 12:45:49 GMT+02:00 2018
User: LAB3
Spectrometer: QEPB0276
Trigger mode: 0
Integration Time (sec): 3.000000E1
Scans to average: 1
Electric dark correction enabled: true
Nonlinearity correction enabled: false
Boxcar width: 0
XAxis mode: Raman Shifts
Number of Pixels in Spectrum: 1044
>>>>>Begin Spectral Data<<<<<
160.701	181.75
166.742	217.75
172.777	323.75
178.805	641.75
184.826	1430.75
190.841	2840.75
196.849	4551.75
202.85	5806.75
208.845	6288.75
214.833	6320.75
220.815	6263.75
226.789	6280.75
232.758	6310.75
238.719	6365.75
244.674	6335.75
250.623	6324.75
256.565	6289.75
262.5	6238.75
268.429	6254.75
274.351	6236.75
280.267	6193.75
286.176	6287.75
292.079	6294.75
297.975	6294.75
303.865	6334.75
309.748	6383.75
315.625	6364.75
321.495	6375.75
327.359	6396.75
333.217	6468.75
339.068	6493.75
344.912	6529.75
350.751	6531.75
356.583	6573.75
362.408	6658.75
368.227	6636.75
374.04	6691.75
379.847	6722.75
385.647	6789.75
391.44	6780.75
397.228	6862.75
403.009	6896.75
408.784	6903.75
414.553	6941.75
420.315	6974.75
426.071	6997.75
431.821	7020.75
437.565	6994.75
443.302	7005.75
449.033	6937.75
454.758	6917.75
460.477	6843.75
466.189	6746.75
471.896	6694.75
477.596	6632.75
483.29	6558.75
488.978	6565.75
494.66	6487.75
500.335	6336.75
506.005	6005.75
511.668	5658.75
517.325	5320.75
522.977	5077.75
528.622	4885.75
534.261	4724.75
539.894	4621.75
545.521	4562.75
551.141	4476.75
556.756	4423.75
562.365	4372.75
567.968	4311.75
573.565	4268.75
579.155	4237.75
584.74	4238.75
590.319	4249.75
595.892	4256.75
601.459	4229.75
607.02	4225.75
612.575	4184.75
618.124	4136.75
623.667	4049.75
629.204	3993.75
634.735	3916.75
640.261	3887.75
645.781	3825.75
651.294	3823.75
656.802	3785.75
662.304	3777.75
667.8	3769.75
673.29	3763.75
678.775	3736.75
684.254	3717.75
689.726	3683.75
695.193	3712.75
700.655	3677.75
706.11	3648.75
711.56	3615.75
717.004	3628.75
722.442	3573.75
727.874	3571.75
733.301	3577.75
738.722	3549.75
744.137	3559.75
749.547	3560.75
754.951	3559.75
760.349	3561.75
765.741	3561.75
771.128	3609.75
776.509	3684.75
781.885	3763.75
787.254	3807.75
792.618	3825.75
797.977	3813.75
803.33	3772.75
808.677	3780.75
814.019	3713.75
819.355	3686.75
824.686	3631.75
830.011	3620.75
835.33	3578.75
840.644	3588.75
845.952	3526.75
851.255	3500.75
856.552	3447.75
861.844	3417.75
867.13	3392.75
872.41	3360.75
877.686	3356.75
882.955	3341.75
888.219	3277.75
893.478	3253.75
898.731	3162.75
903.979	3127.75
909.221	3109.75
914.458	3073.75
919.69	3072.75
924.916	3072.75
930.136	3072.75
935.351	3074.75
940.561	3080.75
945.766	3048.75
950.965	3028.75
956.158	3010.75
961.347	2991.75
966.529	2939.75
971.707	2921.75
976.879	2884.75
982.046	2844.75
987.208	2838.75
992.364	2841.75
997.515	2831.75
1002.66	2856.75
1007.801	2888.75
1012.936	2923.75
1018.066	2906.75
1023.19	2933.75
1028.309	2978.75
1033.423	2979.75
1038.532	2980.75
1043.636	2956.75
1048.734	2952.75
1053.827	2915.75
1058.915	2900.75
1063.998	2888.75
1069.075	2856.75
1074.147	2854.75
1079.214	2839.75
1084.276	2880.75
1089.333	2872.75
1094.385	2910.75
1099.431	2859.75
1104.472	2837.75
1109.509	2798.75
1114.54	2750.75
1119.565	2703.75
1124.586	2676.75
1129.602	2643.75
1134.613	2593.75
1139.618	2612.75
1144.619	2600.75
1149.614	2618.75
1154.604	2624.75
1159.589	2622.75
1164.57	2648.75
1169.545	2648.75
1174.515	2641.75
1179.48	2630.75
1184.44	2627.75
1189.395	2601.75
1194.345	2566.75
1199.29	2588.75
1204.23	2542.75
1209.165	2548.75
1214.095	2592.75
1219.021	2585.75
1223.941	2594.75
1228.856	2593.75
1233.766	2608.75
1238.672	2597.75
1243.572	2571.75
1248.467	2592.75
1253.358	2541.75
1258.244	2489.75
1263.124	2482.75
1268	2428.75
1272.871	2393.75
1277.737	2369.75
1282.599	2342.75
1287.455	2351.75
1292.306	2340.75
1297.153	2340.75
1301.995	2357.75
1306.832	2381.75
1311.664	2379.75
1316.491	2378.75
1321.314	2369.75
1326.132	2338.75
1330.945	2309.75
1335.753	2279.75
1340.556	2252.75
1345.354	2210.75
1350.148	2176.75
1354.937	2155.75
1359.722	2131.75
1364.501	2107.75
1369.276	2112.75
1374.046	2137.75
1378.811	2099.75
1383.572	2097.75
1388.327	2093.75
1393.079	2076.75
1397.825	2050.75
1402.567	2031.75
1407.304	2016.75
1412.036	2016.75
1416.764	2020.75
1421.487	2008.75
1426.205	2008.75
1430.919	1993.75
1435.628	2019.75
1440.333	2038.75
1445.032	2053.75
1449.727	2071.75
1454.418	2079.75
1459.104	2091.75
1463.785	2053.75
1468.462	2059.75
1473.134	2006.75
1477.802	1953.75
1482.465	1907.75
1487.123	1942.75
1491.777	1873.75
1496.426	1874.75
1501.071	1930.75
1505.711	1898.75
1510.347	1914.75
1514.978	1945.75
1519.604	1920.75
1524.226	1923.75
1528.844	1924.75
1533.457	1906.75
1538.065	1882.75
1542.669	1876.75
1547.269	1857.75
1551.864	1845.75
1556.454	1818.75
1561.041	1819.75
1565.622	1834.75
1570.199	1836.75
1574.772	1859.75
1579.34	1877.75
1583.904	1880.75
1588.464	1908.75
1593.019	1903.75
1597.569	1891.75
1602.115	1892.75
1606.657	1875.75
1611.195	1860.75
1615.728	1876.75
1620.256	1836.75
1624.78	1838.75
1629.3	1866.75
1633.816	1864.75
1638.327	1862.75
1642.834	1899.75
1647.336	1888.75
1651.834	1916.75
1656.328	1906.75
1660.817	1906.75
1665.302	1880.75
1669.783	1873.75
1674.259	1844.75
1678.732	1798.75
1683.199	1776.75
1687.663	1720.75
1692.122	1703.75
1696.577	1655.75
1701.028	1640.75
1705.474	1587.75
1709.917	1542.75
1714.355	1555.75
1718.788	1527.75
1723.218	1509.75
1727.643	1496.75
1732.064	1485.75
1736.481	1439.75
1740.893	1426.75
1745.301	1383.75
1749.705	1344.75
1754.105	1327.75
1758.501	1302.75
1762.893	1285.75
1767.28	1263.75
1771.663	1248.75
1776.042	1250.75
1780.417	1232.75
1784.787	1252.75
1789.154	1260.75
1793.516	1252.75
1797.874	1252.75
1802.228	1230.75
1806.578	1229.75
1810.924	1224.75
1815.266	1125.75
1819.603	1190.75
1823.937	1179.75
1828.266	1157.75
1832.591	1163.75
1836.913	1149.75
1841.23	1125.75
1845.543	1118.75
1849.852	1138.75
1854.156	1130.75
1858.457	1143.75
1862.754	1123.75
1867.047	1139.75
1871.335	1161.75
1875.62	1140.75
1879.9	1139.75
1884.177	1138.75
1888.449	1128.75
1892.718	1138.75
1896.982	1152.75
1901.243	1112.75
1905.499	1112.75
1909.752	1110.75
1914	1083.75
1918.245	1114.75
1922.485	1135.75
1926.722	1114.75
1930.954	1121.75
1935.183	1129.75
1939.408	1137.75
1943.628	1132.75
1947.845	1114.75
1952.058	1126.75
1956.267	1086.75
1960.472	1089.75
1964.673	1053.75
1968.87	1032.75
1973.063	1010.75
1977.252	994.75
1981.438	975.75
1985.619	981.75
1989.797	959.75
1993.971	959.75
1998.14	954.75
2002.306	956.75
2006.469	955.75
2010.627	950.75
2014.781	949.75
2018.932	932.75
2023.078	944.75
2027.221	935.75
2031.36	911.75
2035.495	903.75
2039.627	900.75
2043.754	903.75
2047.878	868.75
2051.998	880.75
2056.114	888.75
2060.226	886.75
2064.334	888.75
2068.439	894.75
2072.54	905.75
2076.637	896.75
2080.73	905.75
2084.82	896.75
2088.906	908.75
2092.988	895.75
2097.066	902.75
2101.14	897.75
2105.211	886.75
2109.278	863.75
2113.342	859.75
2117.401	836.75
2121.457	835.75
2125.509	815.75
2129.558	825.75
2133.602	818.75
2137.643	800.75
2141.681	805.75
2145.714	800.75
2149.744	796.75
2153.77	797.75
2157.793	765.75
2161.812	731.75
2165.827	740.75
2169.838	758.75
2173.846	733.75
2177.851	712.75
2181.851	726.75
2185.848	692.75
2189.841	687.75
2193.831	692.75
2197.817	690.75
2201.799	694.75
2205.778	668.75
2209.753	668.75
2213.725	661.75
2217.693	666.75
2221.657	665.75
2225.618	663.75
2229.575	647.75
2233.529	656.75
2237.479	660.75
2241.425	622.75
2245.368	623.75
2249.307	624.75
2253.243	611.75
2257.175	598.75
2261.104	584.75
2265.029	582.75
2268.95	576.75
2272.868	570.75
2276.783	551.75
2280.694	562.75
2284.601	551.75
2288.505	549.75
2292.405	549.75
2296.302	517.75
2300.195	522.75
2304.085	499.75
2307.971	516.75
2311.854	476.75
2315.734	495.75
2319.609	486.75
2323.482	465.75
2327.351	473.75
2331.216	477.75
2335.078	480.75
2338.937	480.75
2342.792	451.75
2346.643	453.75
2350.492	472.75
2354.336	463.75
2358.178	467.75
2362.015	463.75
2365.85	460.75
2369.681	455.75
2373.508	455.75
2377.333	465.75
2381.153	464.75
2384.971	446.75
2388.785	458.75
2392.595	446.75
2396.402	440.75
2400.206	419.75
2404.007	438.75
2407.804	432.75
2411.597	438.75
2415.388	429.75
2419.174	431.75
2422.958	434.75
2426.738	424.75
2430.515	424.75
2434.289	416.75
2438.059	418.75
2441.825	416.75
2445.589	420.75
2449.349	401.75
2453.106	410.75
2456.859	401.75
2460.61	408.75
2464.356	383.75
2468.1	379.75
2471.84	373.75
2475.577	374.75
2479.311	375.75
2483.041	376.75
2486.768	395.75
2490.492	379.75
2494.213	374.75
2497.93	367.75
2501.644	362.75
2505.355	380.75
2509.062	367.75
2512.766	376.75
2516.467	361.75
2520.165	363.75
2523.859	350.75
2527.551	385.75
2531.239	350.75
2534.923	363.75
2538.605	343.75
2542.283	357.75
2545.958	349.75
2549.63	365.75
2553.299	366.75
2556.964	334.75
2560.626	340.75
2564.285	349.75
2567.941	333.75
2571.594	328.75
2575.243	333.75
2578.89	325.75
2582.533	330.75
2586.173	325.75
2589.809	335.75
2593.443	299.75
2597.073	318.75
2600.701	327.75
2604.325	315.75
2607.946	301.75
2611.564	317.75
2615.178	311.75
2618.79	314.75
2622.398	295.75
2626.004	300.75
2629.606	293.75
2633.205	285.75
2636.801	297.75
2640.394	288.75
2643.983	277.75
2647.57	279.75
2651.153	267.75
2654.734	280.75
2658.311	251.75
2661.885	263.75
2665.456	261.75
2669.025	252.75
2672.589	251.75
2676.151	273.75
2679.71	265.75
2683.266	247.75
2686.819	247.75
2690.368	245.75
2693.915	252.75
2697.458	235.75
2700.999	241.75
2704.536	238.75
2708.071	238.75
2711.602	239.75
2715.13	234.75
2718.656	215.75
2722.178	227.75
2725.697	224.75
2729.214	219.75
2732.727	229.75
2736.237	216.75
2739.744	225.75
2743.249	233.75
2746.75	226.75
2750.248	222.75
2753.743	232.75
2757.236	228.75
2760.725	238.75
2764.211	206.75
2767.695	232.75
2771.175	218.75
2774.652	228.75
2778.127	215.75
2781.598	214.75
2785.067	223.75
2788.532	207.75
2791.995	222.75
2795.455	214.75
2798.911	223.75
2802.365	213.75
2805.816	221.75
2809.264	233.75
2812.709	216.75
2816.151	224.75
2819.59	214.75
2823.026	225.75
2826.46	217.75
2829.89	233.75
2833.318	201.75
2836.742	230.75
2840.164	222.75
2843.583	227.75
2846.999	227.75
2850.412	233.75
2853.822	226.75
2857.229	245.75
2860.634	242.75
2864.035	231.75
2867.434	250.75
2870.83	247.75
2874.223	247.75
2877.613	256.75
2881	241.75
2884.385	262.75
2887.766	259.75
2891.145	263.75
2894.521	258.75
2897.894	253.75
2901.264	269.75
2904.631	260.75
2907.996	261.75
2911.358	269.75
2914.717	264.75
2918.073	265.75
2921.426	259.75
2924.777	252.75
2928.124	280.75
2931.469	293.75
2934.811	277.75
2938.15	313.75
2941.487	296.75
2944.821	313.75
2948.152	299.75
2951.48	304.75
2954.805	288.75
2958.128	297.75
2961.447	287.75
2964.765	296.75
2968.079	284.75
2971.39	296.75
2974.699	292.75
2978.005	300.75
2981.308	297.75
2984.609	291.75
2987.907	317.75
2991.202	316.75
2994.494	303.75
2997.784	314.75
3001.07	312.75
3004.355	308.75
3007.636	314.75
3010.915	312.75
3014.191	302.75
3017.464	314.75
3020.734	312.75
3024.002	316.75
3027.267	315.75
3030.53	328.75
3033.789	326.75
3037.046	328.75
3040.301	323.75
3043.552	339.75
3046.801	331.75
3050.048	358.75
3053.291	383.75
3056.532	373.75
3059.771	359.75
3063.006	391.75
3066.239	389.75
3069.469	410.75
3072.697	411.75
3075.922	421.75
3079.144	428.75
3082.364	458.75
3085.581	445.75
3088.795	464.75
3092.007	471.75
3095.216	471.75
3098.423	489.75
3101.627	465.75
3104.828	505.75
3108.026	505.75
3111.222	528.75
3114.416	544.75
3117.607	541.75
3120.795	550.75
3123.98	571.75
3127.163	579.75
3130.344	596.75
3133.521	592.75
3136.696	619.75
3139.869	626.75
3143.039	624.75
3146.206	650.75
3149.371	655.75
3152.533	659.75
3155.693	648.75
3158.85	659.75
3162.005	671.75
3165.157	660.75
3168.306	661.75
3171.453	672.75
3174.597	654.75
3177.739	662.75
3180.878	678.75
3184.014	685.75
3187.149	683.75
3190.28	678.75
3193.409	680.75
3196.536	684.75
3199.659	697.75
3202.781	682.75
3205.9	670.75
3209.016	689.75
3212.13	689.75
3215.241	686.75
3218.35	670.75
3221.456	657.75
3224.56	654.75
3227.661	664.75
3230.76	660.75
3233.856	652.75
3236.95	659.75
3240.041	641.75
3243.13	642.75
3246.216	626.75
3249.3	648.75
3252.382	646.75
3255.46	632.75
3258.537	578.75
3261.611	608.75
3264.682	626.75
3267.751	629.75
3270.818	610.75
3273.882	613.75
3276.943	622.75
3280.002	622.75
3283.059	588.75
3286.113	601.75
3289.165	573.75
3292.214	564.75
3295.261	578.75
3298.306	540.75
3301.348	558.75
3304.387	540.75
3307.425	548.75
3310.459	540.75
3313.492	546.75
3316.521	515.75
3319.549	536.75
3322.574	514.75
3325.597	523.75
3328.617	503.75
3331.635	509.75
3334.65	491.75
3337.663	515.75
3340.674	495.75
3343.682	503.75
3346.688	499.75
3349.691	489.75
3352.692	499.75
3355.691	509.75
3358.687	492.75
3361.681	487.75
3364.673	479.75
3367.662	484.75
3370.649	477.75
3373.633	459.75
3376.615	471.75
3379.595	446.75
3382.572	457.75
3385.547	443.75
3388.52	445.75
3391.49	421.75
3394.458	429.75
3397.424	431.75
3400.387	409.75
3403.348	418.75
3406.307	421.75
3409.263	411.75
3412.217	415.75
3415.168	417.75
3418.118	418.75
3421.065	394.75
3424.009	408.75
3426.951	391.75
3429.891	387.75
3432.829	379.75
3435.764	372.75
3438.697	355.75
3441.628	362.75
3444.557	343.75
3447.483	327.75
3450.407	334.75
3453.328	321.75
3456.247	309.75
3459.164	295.75
3462.079	313.75
3464.991	288.75
3467.902	290.75
3470.809	272.75
3473.715	277.75
3476.618	258.75
3479.519	254.75
3482.418	226.75
3485.315	236.75
3488.209	233.75
3491.101	231.75
3493.99	211.75
3496.878	216.75
3499.763	219.75
3502.646	215.75
3505.527	193.75
3508.405	192.75
3511.281	181.75
3514.155	178.75
3517.027	173.75
3519.897	159.75
3522.764	167.75
3525.629	141.75
3528.492	150.75
3531.352	138.75
3534.211	139.75
3537.067	126.75
3539.921	125.75
3542.773	126.75
3545.622	100.75
3548.469	102.75
3551.315	93.75
3554.157	100.75
3556.998	90.75
3559.837	93.75
3562.673	92.75
3565.507	87.75
3568.339	80.75
3571.169	82.75
3573.996	79.75
3576.822	49.75
3579.645	62.75
3582.466	58.75
3585.285	64.75
3588.101	64.75
3590.916	60.75
3593.728	68.75
3596.538	50.75
3599.346	47.75
3602.152	40.75
3604.956	46.75
3607.757	48.75
3610.556	29.75
3613.354	40.75
3616.149	36.75
3618.942	39.75
3621.732	40.75
3624.521	24.75
3627.307	20.75
3630.092	16.75
3632.874	36.75
3635.654	24.75
3638.432	15.75
3641.208	8.75
3643.982	15.75
3646.753	23.75
3649.523	-9.25
3652.29	7.75
3655.055	13.75
3657.818	13.75
3660.579	6.75
3663.338	-2.25
3666.095	2.75
3668.849	-25.25
3671.602	8.75
3674.352	-12.25
3677.101	3.75
3679.847	2.75
3682.591	-7.25
3685.333	-17.25
3688.073	-2.25
3690.811	-14.25
3693.547	-21.25
3696.281	-24.25
3699.013	-4.25
3701.742	-15.25
3704.47	-18.25
3707.195	-10.25
3709.919	-10.25
3712.64	-16.25
3715.359	-25.25
3718.076	-8.25
3720.792	-17.25
3723.505	-13.25
3726.216	-3.25
3728.925	-17.25
3731.632	-23.25
3734.336	-18.25
3737.039	-15.25
3739.74	-19.25
3742.439	-42.25
3745.136	-11.25
3747.83	-17.25
3750.523	-14.25
3753.213	-86.25
3755.902	-22.25
3758.589	-36.25
3761.273	-28.25
3763.956	-12.25
3766.636	-39.25
3769.315	-9.25
3771.991	-21.25
3774.665	-23.25
3777.338	-22.25
3780.008	-34.25
3782.677	-25.25
3785.343	-37.25
3788.007	-44.25
3790.67	-18.25
3793.33	-37.25
3795.989	-28.25
3798.645	-22.25
3801.299	-33.25
3803.952	-33.25
3806.602	-28.25
3809.251	-23.25
3811.897	-28.25
3814.542	-25.25
3817.184	-32.25
3819.825	-29.25
3822.463	-40.25
3825.1	-30.25
3827.735	-29.25
3830.367	-38.25
3832.998	-15.25
3835.627	-31.25
3838.253	-17.25
3840.878	-32.25
3843.501	-11.25
3846.122	-24.25
3848.741	-21.25
3851.358	-17.25
3853.973	-38.25
3856.586	-17.25
3859.197	-38.25
3861.806	-24.25
3864.414	-36.25
3867.019	-24.25
3869.622	-11.25
3872.224	-5.25
3874.823	22.75
3877.421	56.75
3880.016	82.75
3882.61	146.75
3885.202	166.75
3887.792	128.75
3890.38	69.75
3892.966	15.75
3895.55	-18.25
3898.132	-14.25
3900.713	-16.25
3903.291	-24.25
3905.868	-35.25
3908.442	-25.25
3911.015	-28.25
3913.586	-34.25
3916.155	-32.25
3918.722	-36.25
3921.287	-32.25
3923.85	-42.25
3926.411	-35.25
3928.971	-32.25
3931.528	-28.25
3934.084	-35.25
3936.638	-40.25
3939.19	-30.25
3941.74	-23.25
3944.288	-33.25
3946.834	-34.25
3949.378	-23.25
3951.921	-32.25
3954.462	-31.25
3957	-23.25
3959.537	-11.25
3962.072	-26.25
3964.606	-46.25
3967.137	-29.25
3969.667	-32.25
3972.194	-25.25
3974.72	-33.25
3977.244	-52.25
3979.766	-37.25
3982.286	-35.25
3984.805	-24.25
3987.321	-17.25
3989.836	-19.25
3992.349	-29.25
3994.86	-25.25
3997.369	-34.25
3999.877	-22.25
4002.382	-28.25
4004.886	-22.25
4007.388	-24.25
4009.888	-17.25
4012.386	-21.25
4014.883	-27.25
4017.377	-19.25
4019.87	-21.25
4022.361	-35.25
4024.85	-30.25
4027.338	-26.25
4029.823	-28.25
4032.307	-32.25
4034.789	-26.25
4037.269	-26.25
4039.747	-40.25
4042.224	-20.25
4044.699	-36.25
4047.172	-31.25
4049.643	-20.25
4052.112	-56.25
4054.58	-29.25
4057.046	-40.25
4059.51	-28.25
4061.972	-27.25
4064.432	-41.25
4066.891	-14.25
4069.348	-26.25
4071.803	-27.25
4074.256	-30.25
4076.708	-21.25
4079.158	-22.25
4081.606	-17.25
4084.052	-26.25
4086.497	-22.25
4088.939	-28.25
4091.38	-29.25
4093.819	-21.25
4096.257	0.75
4098.693	-3.25
4101.127	-5.25
4103.559	-1.25
4105.989	174.75
4108.418	166.75
4110.845	163.75
4113.27	173.75
4115.694	174.75
4118.115	164.75
4120.535	-24.25
4122.954	-19.25
4125.37	-10.25
4127.785	-22.25
4130.198	-14.25
4132.609	-24.25
4135.019	6.75
4137.427	1.75
4139.833	4.75
4142.237	-4.25
