Data from 2018-3-6_conc=2_n=3_RamanShift_01.txt Node
Date: Tue Mar 06 12:48:19 GMT+02:00 2018
User: LAB3
Spectrometer: QEPB0276
Trigger mode: 0
Integration Time (sec): 3.000000E1
Scans to average: 1
Electric dark correction enabled: true
Nonlinearity correction enabled: false
Boxcar width: 0
XAxis mode: Raman Shifts
Number of Pixels in Spectrum: 1044
>>>>>Begin Spectral Data<<<<<
160.701	148.25
166.742	194.25
172.777	295.25
178.805	587.25
184.826	1349.25
190.841	2703.25
196.849	4329.25
202.85	5593.25
208.845	6025.25
214.833	6040.25
220.815	6025.25
226.789	6035.25
232.758	6070.25
238.719	6076.25
244.674	6085.25
250.623	6026.25
256.565	6023.25
262.5	5930.25
268.429	5934.25
274.351	5857.25
280.267	5898.25
286.176	5937.25
292.079	5923.25
297.975	5945.25
303.865	5938.25
309.748	5951.25
315.625	5969.25
321.495	5965.25
327.359	6008.25
333.217	6055.25
339.068	6063.25
344.912	6075.25
350.751	6096.25
356.583	6126.25
362.408	6164.25
368.227	6180.25
374.04	6205.25
379.847	6253.25
385.647	6255.25
391.44	6335.25
397.228	6332.25
403.009	6378.25
408.784	6397.25
414.553	6431.25
420.315	6493.25
426.071	6468.25
431.821	6496.25
437.565	6465.25
443.302	6437.25
449.033	6429.25
454.758	6382.25
460.477	6339.25
466.189	6282.25
471.896	6212.25
477.596	6158.25
483.29	6135.25
488.978	6122.25
494.66	6073.25
500.335	5882.25
506.005	5659.25
511.668	5367.25
517.325	5082.25
522.977	4856.25
528.622	4717.25
534.261	4598.25
539.894	4492.25
545.521	4458.25
551.141	4357.25
556.756	4293.25
562.365	4302.25
567.968	4264.25
573.565	4208.25
579.155	4192.25
584.74	4155.25
590.319	4171.25
595.892	4164.25
601.459	4173.25
607.02	4156.25
612.575	4117.25
618.124	4091.25
623.667	4028.25
629.204	3944.25
634.735	3893.25
640.261	3843.25
645.781	3802.25
651.294	3814.25
656.802	3799.25
662.304	3809.25
667.8	3774.25
673.29	3738.25
678.775	3735.25
684.254	3737.25
689.726	3677.25
695.193	3709.25
700.655	3659.25
706.11	3641.25
711.56	3619.25
717.004	3606.25
722.442	3593.25
727.874	3583.25
733.301	3571.25
738.722	3547.25
744.137	3577.25
749.547	3556.25
754.951	3563.25
760.349	3555.25
765.741	3584.25
771.128	3614.25
776.509	3642.25
781.885	3712.25
787.254	3723.25
792.618	3772.25
797.977	3727.25
803.33	3746.25
808.677	3685.25
814.019	3651.25
819.355	3632.25
824.686	3587.25
830.011	3548.25
835.33	3556.25
840.644	3536.25
845.952	3502.25
851.255	3493.25
856.552	3454.25
861.844	3399.25
867.13	3376.25
872.41	3367.25
877.686	3348.25
882.955	3333.25
888.219	3291.25
893.478	3230.25
898.731	3188.25
903.979	3166.25
909.221	3119.25
914.458	3081.25
919.69	3093.25
924.916	3093.25
930.136	3107.25
935.351	3100.25
940.561	3114.25
945.766	3087.25
950.965	3087.25
956.158	3035.25
961.347	2993.25
966.529	2974.25
971.707	2950.25
976.879	2919.25
982.046	2892.25
987.208	2863.25
992.364	2896.25
997.515	2878.25
1002.66	2905.25
1007.801	2925.25
1012.936	2955.25
1018.066	2932.25
1023.19	2974.25
1028.309	2976.25
1033.423	2994.25
1038.532	2982.25
1043.636	2966.25
1048.734	2941.25
1053.827	2927.25
1058.915	2895.25
1063.998	2883.25
1069.075	2848.25
1074.147	2877.25
1079.214	2840.25
1084.276	2880.25
1089.333	2902.25
1094.385	2906.25
1099.431	2868.25
1104.472	2851.25
1109.509	2814.25
1114.54	2780.25
1119.565	2737.25
1124.586	2711.25
1129.602	2667.25
1134.613	2637.25
1139.618	2632.25
1144.619	2634.25
1149.614	2640.25
1154.604	2629.25
1159.589	2661.25
1164.57	2694.25
1169.545	2703.25
1174.515	2696.25
1179.48	2649.25
1184.44	2646.25
1189.395	2624.25
1194.345	2607.25
1199.29	2586.25
1204.23	2582.25
1209.165	2590.25
1214.095	2611.25
1219.021	2606.25
1223.941	2628.25
1228.856	2642.25
1233.766	2647.25
1238.672	2640.25
1243.572	2646.25
1248.467	2616.25
1253.358	2593.25
1258.244	2518.25
1263.124	2501.25
1268	2484.25
1272.871	2402.25
1277.737	2394.25
1282.599	2378.25
1287.455	2377.25
1292.306	2388.25
1297.153	2373.25
1301.995	2428.25
1306.832	2425.25
1311.664	2426.25
1316.491	2414.25
1321.314	2431.25
1326.132	2393.25
1330.945	2366.25
1335.753	2324.25
1340.556	2293.25
1345.354	2269.25
1350.148	2229.25
1354.937	2216.25
1359.722	2181.25
1364.501	2173.25
1369.276	2175.25
1374.046	2184.25
1378.811	2163.25
1383.572	2166.25
1388.327	2143.25
1393.079	2128.25
1397.825	2122.25
1402.567	2094.25
1407.304	2084.25
1412.036	2070.25
1416.764	2071.25
1421.487	2050.25
1426.205	2051.25
1430.919	2056.25
1435.628	2073.25
1440.333	2067.25
1445.032	2135.25
1449.727	2127.25
1454.418	2163.25
1459.104	2133.25
1463.785	2119.25
1468.462	2096.25
1473.134	2051.25
1477.802	2020.25
1482.465	1995.25
1487.123	1992.25
1491.777	1942.25
1496.426	1959.25
1501.071	1992.25
1505.711	1989.25
1510.347	2008.25
1514.978	2023.25
1519.604	2022.25
1524.226	2026.25
1528.844	1988.25
1533.457	2004.25
1538.065	1970.25
1542.669	1942.25
1547.269	1916.25
1551.864	1916.25
1556.454	1905.25
1561.041	1887.25
1565.622	1903.25
1570.199	1904.25
1574.772	1910.25
1579.34	1943.25
1583.904	1946.25
1588.464	1975.25
1593.019	1978.25
1597.569	1948.25
1602.115	1945.25
1606.657	1946.25
1611.195	1954.25
1615.728	1938.25
1620.256	1928.25
1624.78	1909.25
1629.3	1922.25
1633.816	1937.25
1638.327	1934.25
1642.834	1956.25
1647.336	1978.25
1651.834	2011.25
1656.328	2016.25
1660.817	1989.25
1665.302	1989.25
1669.783	1957.25
1674.259	1936.25
1678.732	1935.25
1683.199	1856.25
1687.663	1819.25
1692.122	1786.25
1696.577	1740.25
1701.028	1705.25
1705.474	1696.25
1709.917	1674.25
1714.355	1649.25
1718.788	1647.25
1723.218	1600.25
1727.643	1581.25
1732.064	1561.25
1736.481	1523.25
1740.893	1497.25
1745.301	1460.25
1749.705	1414.25
1754.105	1411.25
1758.501	1395.25
1762.893	1392.25
1767.28	1329.25
1771.663	1339.25
1776.042	1325.25
1780.417	1325.25
1784.787	1332.25
1789.154	1349.25
1793.516	1341.25
1797.874	1354.25
1802.228	1332.25
1806.578	1331.25
1810.924	1310.25
1815.266	1215.25
1819.603	1295.25
1823.937	1244.25
1828.266	1246.25
1832.591	1225.25
1836.913	1208.25
1841.23	1191.25
1845.543	1203.25
1849.852	1214.25
1854.156	1196.25
1858.457	1202.25
1862.754	1207.25
1867.047	1208.25
1871.335	1217.25
1875.62	1225.25
1879.9	1213.25
1884.177	1218.25
1888.449	1216.25
1892.718	1220.25
1896.982	1218.25
1901.243	1196.25
1905.499	1211.25
1909.752	1199.25
1914	1192.25
1918.245	1213.25
1922.485	1218.25
1926.722	1215.25
1930.954	1221.25
1935.183	1245.25
1939.408	1240.25
1943.628	1241.25
1947.845	1219.25
1952.058	1216.25
1956.267	1173.25
1960.472	1174.25
1964.673	1149.25
1968.87	1124.25
1973.063	1083.25
1977.252	1091.25
1981.438	1061.25
1985.619	1049.25
1989.797	1028.25
1993.971	1018.25
1998.14	1032.25
2002.306	1020.25
2006.469	1023.25
2010.627	1006.25
2014.781	1003.25
2018.932	1015.25
2023.078	1022.25
2027.221	991.25
2031.36	973.25
2035.495	966.25
2039.627	972.25
2043.754	965.25
2047.878	956.25
2051.998	949.25
2056.114	953.25
2060.226	952.25
2064.334	968.25
2068.439	962.25
2072.54	984.25
2076.637	963.25
2080.73	987.25
2084.82	969.25
2088.906	982.25
2092.988	965.25
2097.066	973.25
2101.14	982.25
2105.211	965.25
2109.278	944.25
2113.342	930.25
2117.401	912.25
2121.457	893.25
2125.509	884.25
2129.558	894.25
2133.602	867.25
2137.643	893.25
2141.681	860.25
2145.714	852.25
2149.744	854.25
2153.77	849.25
2157.793	817.25
2161.812	801.25
2165.827	786.25
2169.838	809.25
2173.846	785.25
2177.851	774.25
2181.851	763.25
2185.848	755.25
2189.841	739.25
2193.831	733.25
2197.817	729.25
2201.799	721.25
2205.778	710.25
2209.753	706.25
2213.725	705.25
2217.693	708.25
2221.657	696.25
2225.618	704.25
2229.575	701.25
2233.529	710.25
2237.479	697.25
2241.425	675.25
2245.368	655.25
2249.307	654.25
2253.243	634.25
2257.175	640.25
2261.104	620.25
2265.029	620.25
2268.95	618.25
2272.868	604.25
2276.783	593.25
2280.694	590.25
2284.601	586.25
2288.505	567.25
2292.405	571.25
2296.302	561.25
2300.195	556.25
2304.085	514.25
2307.971	543.25
2311.854	506.25
2315.734	509.25
2319.609	517.25
2323.482	479.25
2327.351	493.25
2331.216	489.25
2335.078	500.25
2338.937	478.25
2342.792	468.25
2346.643	472.25
2350.492	490.25
2354.336	475.25
2358.178	484.25
2362.015	488.25
2365.85	472.25
2369.681	481.25
2373.508	481.25
2377.333	486.25
2381.153	479.25
2384.971	479.25
2388.785	472.25
2392.595	458.25
2396.402	460.25
2400.206	426.25
2404.007	448.25
2407.804	456.25
2411.597	452.25
2415.388	449.25
2419.174	448.25
2422.958	447.25
2426.738	431.25
2430.515	445.25
2434.289	423.25
2438.059	428.25
2441.825	428.25
2445.589	428.25
2449.349	413.25
2453.106	413.25
2456.859	419.25
2460.61	418.25
2464.356	404.25
2468.1	390.25
2471.84	396.25
2475.577	403.25
2479.311	385.25
2483.041	396.25
2486.768	409.25
2490.492	407.25
2494.213	392.25
2497.93	388.25
2501.644	381.25
2505.355	383.25
2509.062	389.25
2512.766	390.25
2516.467	381.25
2520.165	385.25
2523.859	365.25
2527.551	401.25
2531.239	374.25
2534.923	386.25
2538.605	380.25
2542.283	376.25
2545.958	377.25
2549.63	382.25
2553.299	372.25
2556.964	363.25
2560.626	368.25
2564.285	368.25
2567.941	344.25
2571.594	354.25
2575.243	368.25
2578.89	355.25
2582.533	348.25
2586.173	354.25
2589.809	354.25
2593.443	312.25
2597.073	337.25
2600.701	339.25
2604.325	320.25
2607.946	319.25
2611.564	333.25
2615.178	335.25
2618.79	324.25
2622.398	314.25
2626.004	316.25
2629.606	314.25
2633.205	303.25
2636.801	320.25
2640.394	311.25
2643.983	293.25
2647.57	299.25
2651.153	285.25
2654.734	299.25
2658.311	271.25
2661.885	273.25
2665.456	280.25
2669.025	279.25
2672.589	272.25
2676.151	288.25
2679.71	287.25
2683.266	259.25
2686.819	265.25
2690.368	265.25
2693.915	270.25
2697.458	262.25
2700.999	265.25
2704.536	257.25
2708.071	255.25
2711.602	244.25
2715.13	245.25
2718.656	235.25
2722.178	250.25
2725.697	231.25
2729.214	244.25
2732.727	244.25
2736.237	235.25
2739.744	242.25
2743.249	242.25
2746.75	246.25
2750.248	244.25
2753.743	241.25
2757.236	251.25
2760.725	257.25
2764.211	218.25
2767.695	243.25
2771.175	237.25
2774.652	246.25
2778.127	232.25
2781.598	233.25
2785.067	238.25
2788.532	219.25
2791.995	235.25
2795.455	228.25
2798.911	245.25
2802.365	226.25
2805.816	231.25
2809.264	248.25
2812.709	233.25
2816.151	252.25
2819.59	226.25
2823.026	228.25
2826.46	233.25
2829.89	252.25
2833.318	217.25
2836.742	238.25
2840.164	232.25
2843.583	240.25
2846.999	236.25
2850.412	241.25
2853.822	240.25
2857.229	252.25
2860.634	258.25
2864.035	228.25
2867.434	260.25
2870.83	263.25
2874.223	263.25
2877.613	270.25
2881	260.25
2884.385	261.25
2887.766	260.25
2891.145	270.25
2894.521	272.25
2897.894	261.25
2901.264	278.25
2904.631	271.25
2907.996	283.25
2911.358	286.25
2914.717	276.25
2918.073	268.25
2921.426	268.25
2924.777	262.25
2928.124	282.25
2931.469	291.25
2934.811	285.25
2938.15	306.25
2941.487	306.25
2944.821	318.25
2948.152	312.25
2951.48	312.25
2954.805	288.25
2958.128	318.25
2961.447	287.25
2964.765	318.25
2968.079	302.25
2971.39	309.25
2974.699	314.25
2978.005	315.25
2981.308	312.25
2984.609	310.25
2987.907	329.25
2991.202	332.25
2994.494	324.25
2997.784	341.25
3001.07	327.25
3004.355	334.25
3007.636	330.25
3010.915	337.25
3014.191	325.25
3017.464	333.25
3020.734	336.25
3024.002	339.25
3027.267	336.25
3030.53	343.25
3033.789	341.25
3037.046	344.25
3040.301	343.25
3043.552	361.25
3046.801	361.25
3050.048	375.25
3053.291	396.25
3056.532	385.25
3059.771	382.25
3063.006	411.25
3066.239	416.25
3069.469	439.25
3072.697	425.25
3075.922	433.25
3079.144	450.25
3082.364	481.25
3085.581	471.25
3088.795	492.25
3092.007	502.25
3095.216	512.25
3098.423	513.25
3101.627	504.25
3104.828	538.25
3108.026	531.25
3111.222	560.25
3114.416	572.25
3117.607	580.25
3120.795	586.25
3123.98	604.25
3127.163	608.25
3130.344	618.25
3133.521	614.25
3136.696	666.25
3139.869	652.25
3143.039	655.25
3146.206	686.25
3149.371	686.25
3152.533	690.25
3155.693	684.25
3158.85	709.25
3162.005	704.25
3165.157	702.25
3168.306	707.25
3171.453	713.25
3174.597	706.25
3177.739	715.25
3180.878	721.25
3184.014	715.25
3187.149	716.25
3190.28	714.25
3193.409	729.25
3196.536	726.25
3199.659	737.25
3202.781	737.25
3205.9	719.25
3209.016	728.25
3212.13	727.25
3215.241	729.25
3218.35	729.25
3221.456	719.25
3224.56	709.25
3227.661	710.25
3230.76	708.25
3233.856	706.25
3236.95	692.25
3240.041	682.25
3243.13	687.25
3246.216	674.25
3249.3	687.25
3252.382	694.25
3255.46	679.25
3258.537	617.25
3261.611	663.25
3264.682	674.25
3267.751	670.25
3270.818	669.25
3273.882	676.25
3276.943	666.25
3280.002	662.25
3283.059	639.25
3286.113	642.25
3289.165	626.25
3292.214	618.25
3295.261	623.25
3298.306	577.25
3301.348	598.25
3304.387	577.25
3307.425	583.25
3310.459	574.25
3313.492	560.25
3316.521	566.25
3319.549	554.25
3322.574	558.25
3325.597	542.25
3328.617	530.25
3331.635	529.25
3334.65	520.25
3337.663	537.25
3340.674	525.25
3343.682	529.25
3346.688	535.25
3349.691	524.25
3352.692	524.25
3355.691	528.25
3358.687	507.25
3361.681	521.25
3364.673	517.25
3367.662	513.25
3370.649	514.25
3373.633	487.25
3376.615	495.25
3379.595	474.25
3382.572	480.25
3385.547	469.25
3388.52	462.25
3391.49	466.25
3394.458	468.25
3397.424	454.25
3400.387	435.25
3403.348	441.25
3406.307	436.25
3409.263	440.25
3412.217	435.25
3415.168	434.25
3418.118	434.25
3421.065	419.25
3424.009	430.25
3426.951	415.25
3429.891	407.25
3432.829	409.25
3435.764	402.25
3438.697	385.25
3441.628	377.25
3444.557	364.25
3447.483	356.25
3450.407	366.25
3453.328	345.25
3456.247	338.25
3459.164	320.25
3462.079	332.25
3464.991	320.25
3467.902	304.25
3470.809	299.25
3473.715	310.25
3476.618	286.25
3479.519	277.25
3482.418	260.25
3485.315	263.25
3488.209	256.25
3491.101	255.25
3493.99	236.25
3496.878	236.25
3499.763	240.25
3502.646	227.25
3505.527	206.25
3508.405	206.25
3511.281	193.25
3514.155	202.25
3517.027	193.25
3519.897	181.25
3522.764	181.25
3525.629	161.25
3528.492	167.25
3531.352	160.25
3534.211	154.25
3537.067	139.25
3539.921	139.25
3542.773	141.25
3545.622	117.25
3548.469	113.25
3551.315	111.25
3554.157	115.25
3556.998	104.25
3559.837	100.25
3562.673	107.25
3565.507	89.25
3568.339	82.25
3571.169	83.25
3573.996	88.25
3576.822	65.25
3579.645	67.25
3582.466	69.25
3585.285	74.25
3588.101	68.25
3590.916	56.25
3593.728	62.25
3596.538	60.25
3599.346	62.25
3602.152	46.25
3604.956	53.25
3607.757	51.25
3610.556	27.25
3613.354	43.25
3616.149	41.25
3618.942	43.25
3621.732	37.25
3624.521	32.25
3627.307	18.25
3630.092	19.25
3632.874	34.25
3635.654	25.25
3638.432	14.25
3641.208	21.25
3643.982	16.25
3646.753	25.25
3649.523	-6.75
3652.29	8.25
3655.055	16.25
3657.818	12.25
3660.579	8.25
3663.338	-3.75
3666.095	-0.75
3668.849	-18.75
3671.602	6.25
3674.352	-8.75
3677.101	9.25
3679.847	8.25
3682.591	-10.75
3685.333	-15.75
3688.073	-6.75
3690.811	-17.75
3693.547	-16.75
3696.281	-20.75
3699.013	-1.75
3701.742	-10.75
3704.47	-22.75
3707.195	-7.75
3709.919	-11.75
3712.64	-14.75
3715.359	-29.75
3718.076	-5.75
3720.792	-14.75
3723.505	-16.75
3726.216	-2.75
3728.925	-16.75
3731.632	-25.75
3734.336	-14.75
3737.039	-16.75
3739.74	-19.75
3742.439	-42.75
3745.136	-9.75
3747.83	-15.75
3750.523	-13.75
3753.213	-76.75
3755.902	-22.75
3758.589	-40.75
3761.273	-25.75
3763.956	-13.75
3766.636	-38.75
3769.315	-16.75
3771.991	-23.75
3774.665	-25.75
3777.338	-22.75
3780.008	-33.75
3782.677	-23.75
3785.343	-40.75
3788.007	-47.75
3790.67	-20.75
3793.33	-37.75
3795.989	-27.75
3798.645	-23.75
3801.299	-35.75
3803.952	-32.75
3806.602	-29.75
3809.251	-23.75
3811.897	-28.75
3814.542	-31.75
3817.184	-30.75
3819.825	-27.75
3822.463	-37.75
3825.1	-28.75
3827.735	-22.75
3830.367	-36.75
3832.998	-14.75
3835.627	-35.75
3838.253	-21.75
3840.878	-32.75
3843.501	-9.75
3846.122	-25.75
3848.741	-19.75
3851.358	-18.75
3853.973	-42.75
3856.586	-18.75
3859.197	-33.75
3861.806	-24.75
3864.414	-34.75
3867.019	-27.75
3869.622	-16.75
3872.224	-11.75
3874.823	6.25
3877.421	34.25
3880.016	64.25
3882.61	104.25
3885.202	130.25
3887.792	98.25
3890.38	48.25
3892.966	4.25
3895.55	-27.75
3898.132	-18.75
3900.713	-18.75
3903.291	-28.75
3905.868	-38.75
3908.442	-26.75
3911.015	-30.75
3913.586	-35.75
3916.155	-34.75
3918.722	-36.75
3921.287	-33.75
3923.85	-47.75
3926.411	-37.75
3928.971	-37.75
3931.528	-31.75
3934.084	-34.75
3936.638	-42.75
3939.19	-28.75
3941.74	-29.75
3944.288	-36.75
3946.834	-38.75
3949.378	-23.75
3951.921	-39.75
3954.462	-34.75
3957	-27.75
3959.537	-18.75
3962.072	-30.75
3964.606	-46.75
3967.137	-37.75
3969.667	-35.75
3972.194	-28.75
3974.72	-37.75
3977.244	-56.75
3979.766	-37.75
3982.286	-37.75
3984.805	-29.75
3987.321	-22.75
3989.836	-24.75
3992.349	-36.75
3994.86	-31.75
3997.369	-39.75
3999.877	-34.75
4002.382	-33.75
4004.886	-27.75
4007.388	-28.75
4009.888	-18.75
4012.386	-24.75
4014.883	-23.75
4017.377	-30.75
4019.87	-23.75
4022.361	-38.75
4024.85	-29.75
4027.338	-27.75
4029.823	-34.75
4032.307	-32.75
4034.789	-30.75
4037.269	-27.75
4039.747	-41.75
4042.224	-23.75
4044.699	-35.75
4047.172	-31.75
4049.643	-24.75
4052.112	-48.75
4054.58	-25.75
4057.046	-43.75
4059.51	-27.75
4061.972	-30.75
4064.432	-45.75
4066.891	-19.75
4069.348	-27.75
4071.803	-31.75
4074.256	-29.75
4076.708	-27.75
4079.158	-26.75
4081.606	-16.75
4084.052	-27.75
4086.497	-26.75
4088.939	-24.75
4091.38	-31.75
4093.819	-22.75
4096.257	4.25
4098.693	-4.75
4101.127	-2.75
4103.559	1.25
4105.989	137.25
4108.418	137.25
4110.845	127.25
4113.27	138.25
4115.694	150.25
4118.115	140.25
4120.535	-23.75
4122.954	-22.75
4125.37	-19.75
4127.785	-25.75
4130.198	-18.75
4132.609	-27.75
4135.019	7.25
4137.427	-1.75
4139.833	2.25
4142.237	-5.75
