Data from 2018-3-6_conc=2_n=10_RamanShift_01.txt Node
Date: Tue Mar 06 13:10:19 GMT+02:00 2018
User: LAB3
Spectrometer: QEPB0276
Trigger mode: 0
Integration Time (sec): 3.000000E1
Scans to average: 1
Electric dark correction enabled: true
Nonlinearity correction enabled: false
Boxcar width: 0
XAxis mode: Raman Shifts
Number of Pixels in Spectrum: 1044
>>>>>Begin Spectral Data<<<<<
160.701	161.12
166.742	200.12
172.777	299.12
178.805	597.12
184.826	1335.12
190.841	2664.12
196.849	4190.12
202.85	5434.12
208.845	5854.12
214.833	5836.12
220.815	5827.12
226.789	5783.12
232.758	5829.12
238.719	5836.12
244.674	5826.12
250.623	5787.12
256.565	5752.12
262.5	5694.12
268.429	5683.12
274.351	5643.12
280.267	5635.12
286.176	5653.12
292.079	5657.12
297.975	5668.12
303.865	5703.12
309.748	5677.12
315.625	5704.12
321.495	5692.12
327.359	5714.12
333.217	5764.12
339.068	5770.12
344.912	5793.12
350.751	5840.12
356.583	5865.12
362.408	5872.12
368.227	5922.12
374.04	5913.12
379.847	5951.12
385.647	5981.12
391.44	6018.12
397.228	6025.12
403.009	6084.12
408.784	6087.12
414.553	6170.12
420.315	6142.12
426.071	6138.12
431.821	6171.12
437.565	6174.12
443.302	6144.12
449.033	6099.12
454.758	6112.12
460.477	6037.12
466.189	5985.12
471.896	5907.12
477.596	5876.12
483.29	5838.12
488.978	5862.12
494.66	5775.12
500.335	5636.12
506.005	5373.12
511.668	5125.12
517.325	4843.12
522.977	4630.12
528.622	4480.12
534.261	4367.12
539.894	4236.12
545.521	4197.12
551.141	4143.12
556.756	4115.12
562.365	4052.12
567.968	4038.12
573.565	4007.12
579.155	3993.12
584.74	3951.12
590.319	3960.12
595.892	3952.12
601.459	3960.12
607.02	3927.12
612.575	3889.12
618.124	3828.12
623.667	3771.12
629.204	3714.12
634.735	3683.12
640.261	3648.12
645.781	3563.12
651.294	3590.12
656.802	3592.12
662.304	3581.12
667.8	3587.12
673.29	3552.12
678.775	3515.12
684.254	3525.12
689.726	3494.12
695.193	3483.12
700.655	3481.12
706.11	3449.12
711.56	3456.12
717.004	3413.12
722.442	3396.12
727.874	3404.12
733.301	3367.12
738.722	3333.12
744.137	3377.12
749.547	3330.12
754.951	3361.12
760.349	3352.12
765.741	3392.12
771.128	3385.12
776.509	3438.12
781.885	3508.12
787.254	3544.12
792.618	3555.12
797.977	3526.12
803.33	3552.12
808.677	3501.12
814.019	3471.12
819.355	3421.12
824.686	3411.12
830.011	3391.12
835.33	3355.12
840.644	3334.12
845.952	3305.12
851.255	3322.12
856.552	3290.12
861.844	3226.12
867.13	3170.12
872.41	3129.12
877.686	3126.12
882.955	3128.12
888.219	3068.12
893.478	3000.12
898.731	2981.12
903.979	2955.12
909.221	2916.12
914.458	2890.12
919.69	2901.12
924.916	2912.12
930.136	2906.12
935.351	2897.12
940.561	2929.12
945.766	2901.12
950.965	2886.12
956.158	2832.12
961.347	2830.12
966.529	2807.12
971.707	2782.12
976.879	2764.12
982.046	2702.12
987.208	2679.12
992.364	2713.12
997.515	2703.12
1002.66	2723.12
1007.801	2730.12
1012.936	2761.12
1018.066	2748.12
1023.19	2773.12
1028.309	2801.12
1033.423	2798.12
1038.532	2786.12
1043.636	2774.12
1048.734	2782.12
1053.827	2745.12
1058.915	2712.12
1063.998	2677.12
1069.075	2666.12
1074.147	2695.12
1079.214	2683.12
1084.276	2714.12
1089.333	2704.12
1094.385	2700.12
1099.431	2701.12
1104.472	2673.12
1109.509	2647.12
1114.54	2610.12
1119.565	2574.12
1124.586	2535.12
1129.602	2510.12
1134.613	2449.12
1139.618	2471.12
1144.619	2465.12
1149.614	2490.12
1154.604	2489.12
1159.589	2495.12
1164.57	2506.12
1169.545	2483.12
1174.515	2518.12
1179.48	2493.12
1184.44	2466.12
1189.395	2479.12
1194.345	2441.12
1199.29	2443.12
1204.23	2417.12
1209.165	2425.12
1214.095	2437.12
1219.021	2447.12
1223.941	2442.12
1228.856	2470.12
1233.766	2478.12
1238.672	2458.12
1243.572	2473.12
1248.467	2446.12
1253.358	2404.12
1258.244	2367.12
1263.124	2342.12
1268	2311.12
1272.871	2254.12
1277.737	2249.12
1282.599	2227.12
1287.455	2233.12
1292.306	2225.12
1297.153	2221.12
1301.995	2242.12
1306.832	2257.12
1311.664	2262.12
1316.491	2258.12
1321.314	2241.12
1326.132	2222.12
1330.945	2195.12
1335.753	2140.12
1340.556	2124.12
1345.354	2098.12
1350.148	2066.12
1354.937	2047.12
1359.722	2017.12
1364.501	2015.12
1369.276	2001.12
1374.046	1996.12
1378.811	1978.12
1383.572	1998.12
1388.327	1981.12
1393.079	1959.12
1397.825	1953.12
1402.567	1948.12
1407.304	1915.12
1412.036	1928.12
1416.764	1913.12
1421.487	1895.12
1426.205	1874.12
1430.919	1914.12
1435.628	1917.12
1440.333	1898.12
1445.032	1954.12
1449.727	1948.12
1454.418	1973.12
1459.104	1965.12
1463.785	1913.12
1468.462	1897.12
1473.134	1889.12
1477.802	1853.12
1482.465	1806.12
1487.123	1778.12
1491.777	1757.12
1496.426	1762.12
1501.071	1798.12
1505.711	1763.12
1510.347	1798.12
1514.978	1819.12
1519.604	1800.12
1524.226	1818.12
1528.844	1783.12
1533.457	1804.12
1538.065	1783.12
1542.669	1771.12
1547.269	1750.12
1551.864	1741.12
1556.454	1737.12
1561.041	1726.12
1565.622	1717.12
1570.199	1744.12
1574.772	1754.12
1579.34	1769.12
1583.904	1777.12
1588.464	1805.12
1593.019	1828.12
1597.569	1778.12
1602.115	1774.12
1606.657	1777.12
1611.195	1783.12
1615.728	1788.12
1620.256	1763.12
1624.78	1738.12
1629.3	1750.12
1633.816	1768.12
1638.327	1767.12
1642.834	1788.12
1647.336	1783.12
1651.834	1826.12
1656.328	1807.12
1660.817	1812.12
1665.302	1784.12
1669.783	1778.12
1674.259	1764.12
1678.732	1703.12
1683.199	1658.12
1687.663	1617.12
1692.122	1595.12
1696.577	1552.12
1701.028	1524.12
1705.474	1496.12
1709.917	1465.12
1714.355	1472.12
1718.788	1437.12
1723.218	1409.12
1727.643	1394.12
1732.064	1385.12
1736.481	1340.12
1740.893	1327.12
1745.301	1313.12
1749.705	1259.12
1754.105	1252.12
1758.501	1220.12
1762.893	1220.12
1767.28	1176.12
1771.663	1175.12
1776.042	1163.12
1780.417	1165.12
1784.787	1161.12
1789.154	1179.12
1793.516	1171.12
1797.874	1149.12
1802.228	1144.12
1806.578	1140.12
1810.924	1160.12
1815.266	1049.12
1819.603	1111.12
1823.937	1108.12
1828.266	1080.12
1832.591	1080.12
1836.913	1083.12
1841.23	1063.12
1845.543	1045.12
1849.852	1062.12
1854.156	1066.12
1858.457	1061.12
1862.754	1054.12
1867.047	1071.12
1871.335	1087.12
1875.62	1074.12
1879.9	1068.12
1884.177	1064.12
1888.449	1067.12
1892.718	1056.12
1896.982	1063.12
1901.243	1024.12
1905.499	1029.12
1909.752	1017.12
1914	1017.12
1918.245	1046.12
1922.485	1030.12
1926.722	1043.12
1930.954	1029.12
1935.183	1059.12
1939.408	1061.12
1943.628	1045.12
1947.845	1038.12
1952.058	1029.12
1956.267	992.12
1960.472	1005.12
1964.673	988.12
1968.87	963.12
1973.063	941.12
1977.252	936.12
1981.438	926.12
1985.619	904.12
1989.797	896.12
1993.971	893.12
1998.14	903.12
2002.306	910.12
2006.469	899.12
2010.627	874.12
2014.781	885.12
2018.932	868.12
2023.078	878.12
2027.221	869.12
2031.36	842.12
2035.495	854.12
2039.627	834.12
2043.754	835.12
2047.878	817.12
2051.998	821.12
2056.114	833.12
2060.226	819.12
2064.334	842.12
2068.439	827.12
2072.54	849.12
2076.637	834.12
2080.73	841.12
2084.82	830.12
2088.906	845.12
2092.988	829.12
2097.066	831.12
2101.14	834.12
2105.211	827.12
2109.278	810.12
2113.342	804.12
2117.401	785.12
2121.457	777.12
2125.509	769.12
2129.558	771.12
2133.602	758.12
2137.643	763.12
2141.681	754.12
2145.714	743.12
2149.744	734.12
2153.77	735.12
2157.793	722.12
2161.812	697.12
2165.827	689.12
2169.838	703.12
2173.846	678.12
2177.851	681.12
2181.851	676.12
2185.848	666.12
2189.841	664.12
2193.831	642.12
2197.817	643.12
2201.799	635.12
2205.778	628.12
2209.753	628.12
2213.725	622.12
2217.693	618.12
2221.657	614.12
2225.618	632.12
2229.575	605.12
2233.529	618.12
2237.479	599.12
2241.425	600.12
2245.368	582.12
2249.307	582.12
2253.243	559.12
2257.175	561.12
2261.104	545.12
2265.029	553.12
2268.95	546.12
2272.868	532.12
2276.783	517.12
2280.694	521.12
2284.601	521.12
2288.505	507.12
2292.405	508.12
2296.302	491.12
2300.195	498.12
2304.085	464.12
2307.971	472.12
2311.854	451.12
2315.734	458.12
2319.609	466.12
2323.482	442.12
2327.351	434.12
2331.216	439.12
2335.078	451.12
2338.937	435.12
2342.792	427.12
2346.643	436.12
2350.492	440.12
2354.336	426.12
2358.178	431.12
2362.015	438.12
2365.85	429.12
2369.681	443.12
2373.508	429.12
2377.333	431.12
2381.153	430.12
2384.971	421.12
2388.785	428.12
2392.595	411.12
2396.402	414.12
2400.206	400.12
2404.007	410.12
2407.804	407.12
2411.597	418.12
2415.388	404.12
2419.174	401.12
2422.958	395.12
2426.738	395.12
2430.515	396.12
2434.289	380.12
2438.059	384.12
2441.825	377.12
2445.589	391.12
2449.349	380.12
2453.106	381.12
2456.859	376.12
2460.61	385.12
2464.356	359.12
2468.1	354.12
2471.84	357.12
2475.577	358.12
2479.311	353.12
2483.041	358.12
2486.768	368.12
2490.492	359.12
2494.213	351.12
2497.93	344.12
2501.644	345.12
2505.355	348.12
2509.062	350.12
2512.766	346.12
2516.467	338.12
2520.165	341.12
2523.859	334.12
2527.551	357.12
2531.239	322.12
2534.923	331.12
2538.605	331.12
2542.283	336.12
2545.958	329.12
2549.63	328.12
2553.299	335.12
2556.964	317.12
2560.626	326.12
2564.285	328.12
2567.941	310.12
2571.594	304.12
2575.243	322.12
2578.89	311.12
2582.533	312.12
2586.173	317.12
2589.809	308.12
2593.443	285.12
2597.073	302.12
2600.701	301.12
2604.325	290.12
2607.946	284.12
2611.564	299.12
2615.178	284.12
2618.79	291.12
2622.398	274.12
2626.004	291.12
2629.606	289.12
2633.205	270.12
2636.801	280.12
2640.394	272.12
2643.983	259.12
2647.57	266.12
2651.153	254.12
2654.734	266.12
2658.311	235.12
2661.885	243.12
2665.456	254.12
2669.025	249.12
2672.589	245.12
2676.151	255.12
2679.71	254.12
2683.266	246.12
2686.819	232.12
2690.368	237.12
2693.915	239.12
2697.458	228.12
2700.999	237.12
2704.536	235.12
2708.071	222.12
2711.602	222.12
2715.13	219.12
2718.656	210.12
2722.178	221.12
2725.697	207.12
2729.214	215.12
2732.727	218.12
2736.237	200.12
2739.744	210.12
2743.249	210.12
2746.75	213.12
2750.248	200.12
2753.743	209.12
2757.236	211.12
2760.725	213.12
2764.211	184.12
2767.695	221.12
2771.175	206.12
2774.652	207.12
2778.127	203.12
2781.598	206.12
2785.067	203.12
2788.532	192.12
2791.995	202.12
2795.455	202.12
2798.911	217.12
2802.365	201.12
2805.816	205.12
2809.264	208.12
2812.709	206.12
2816.151	207.12
2819.59	198.12
2823.026	203.12
2826.46	204.12
2829.89	212.12
2833.318	196.12
2836.742	204.12
2840.164	203.12
2843.583	214.12
2846.999	206.12
2850.412	210.12
2853.822	204.12
2857.229	224.12
2860.634	226.12
2864.035	206.12
2867.434	230.12
2870.83	233.12
2874.223	218.12
2877.613	234.12
2881	222.12
2884.385	223.12
2887.766	226.12
2891.145	241.12
2894.521	228.12
2897.894	222.12
2901.264	237.12
2904.631	232.12
2907.996	241.12
2911.358	245.12
2914.717	241.12
2918.073	244.12
2921.426	234.12
2924.777	226.12
2928.124	244.12
2931.469	262.12
2934.811	239.12
2938.15	282.12
2941.487	269.12
2944.821	285.12
2948.152	264.12
2951.48	268.12
2954.805	257.12
2958.128	274.12
2961.447	264.12
2964.765	275.12
2968.079	264.12
2971.39	272.12
2974.699	271.12
2978.005	278.12
2981.308	280.12
2984.609	277.12
2987.907	294.12
2991.202	299.12
2994.494	279.12
2997.784	286.12
3001.07	291.12
3004.355	293.12
3007.636	301.12
3010.915	291.12
3014.191	294.12
3017.464	302.12
3020.734	307.12
3024.002	312.12
3027.267	307.12
3030.53	312.12
3033.789	320.12
3037.046	318.12
3040.301	312.12
3043.552	333.12
3046.801	335.12
3050.048	352.12
3053.291	373.12
3056.532	351.12
3059.771	353.12
3063.006	375.12
3066.239	386.12
3069.469	399.12
3072.697	384.12
3075.922	406.12
3079.144	421.12
3082.364	436.12
3085.581	435.12
3088.795	458.12
3092.007	450.12
3095.216	468.12
3098.423	461.12
3101.627	458.12
3104.828	489.12
3108.026	496.12
3111.222	517.12
3114.416	529.12
3117.607	529.12
3120.795	538.12
3123.98	550.12
3127.163	549.12
3130.344	569.12
3133.521	571.12
3136.696	602.12
3139.869	609.12
3143.039	593.12
3146.206	636.12
3149.371	633.12
3152.533	630.12
3155.693	630.12
3158.85	648.12
3162.005	651.12
3165.157	652.12
3168.306	653.12
3171.453	662.12
3174.597	655.12
3177.739	650.12
3180.878	659.12
3184.014	671.12
3187.149	669.12
3190.28	670.12
3193.409	685.12
3196.536	661.12
3199.659	682.12
3202.781	684.12
3205.9	663.12
3209.016	683.12
3212.13	685.12
3215.241	672.12
3218.35	667.12
3221.456	658.12
3224.56	641.12
3227.661	651.12
3230.76	646.12
3233.856	637.12
3236.95	626.12
3240.041	624.12
3243.13	639.12
3246.216	619.12
3249.3	631.12
3252.382	633.12
3255.46	605.12
3258.537	570.12
3261.611	610.12
3264.682	617.12
3267.751	603.12
3270.818	596.12
3273.882	609.12
3276.943	596.12
3280.002	625.12
3283.059	585.12
3286.113	590.12
3289.165	586.12
3292.214	573.12
3295.261	566.12
3298.306	535.12
3301.348	561.12
3304.387	538.12
3307.425	539.12
3310.459	537.12
3313.492	528.12
3316.521	518.12
3319.549	522.12
3322.574	512.12
3325.597	516.12
3328.617	498.12
3331.635	499.12
3334.65	493.12
3337.663	495.12
3340.674	485.12
3343.682	497.12
3346.688	499.12
3349.691	488.12
3352.692	485.12
3355.691	496.12
3358.687	490.12
3361.681	486.12
3364.673	477.12
3367.662	476.12
3370.649	475.12
3373.633	461.12
3376.615	454.12
3379.595	442.12
3382.572	445.12
3385.547	435.12
3388.52	422.12
3391.49	431.12
3394.458	420.12
3397.424	428.12
3400.387	411.12
3403.348	420.12
3406.307	407.12
3409.263	405.12
3412.217	420.12
3415.168	399.12
3418.118	409.12
3421.065	393.12
3424.009	399.12
3426.951	385.12
3429.891	375.12
3432.829	368.12
3435.764	369.12
3438.697	357.12
3441.628	359.12
3444.557	339.12
3447.483	336.12
3450.407	331.12
3453.328	311.12
3456.247	304.12
3459.164	297.12
3462.079	313.12
3464.991	286.12
3467.902	286.12
3470.809	273.12
3473.715	277.12
3476.618	252.12
3479.519	264.12
3482.418	226.12
3485.315	244.12
3488.209	231.12
3491.101	234.12
3493.99	217.12
3496.878	205.12
3499.763	214.12
3502.646	206.12
3505.527	191.12
3508.405	194.12
3511.281	175.12
3514.155	188.12
3517.027	173.12
3519.897	155.12
3522.764	166.12
3525.629	145.12
3528.492	144.12
3531.352	148.12
3534.211	135.12
3537.067	131.12
3539.921	124.12
3542.773	130.12
3545.622	113.12
3548.469	105.12
3551.315	98.12
3554.157	102.12
3556.998	94.12
3559.837	95.12
3562.673	91.12
3565.507	81.12
3568.339	74.12
3571.169	75.12
3573.996	81.12
3576.822	57.12
3579.645	65.12
3582.466	63.12
3585.285	65.12
3588.101	60.12
3590.916	53.12
3593.728	63.12
3596.538	44.12
3599.346	46.12
3602.152	36.12
3604.956	39.12
3607.757	46.12
3610.556	29.12
3613.354	38.12
3616.149	39.12
3618.942	34.12
3621.732	30.12
3624.521	25.12
3627.307	14.12
3630.092	21.12
3632.874	33.12
3635.654	23.12
3638.432	12.12
3641.208	13.12
3643.982	16.12
3646.753	24.12
3649.523	-10.88
3652.29	13.12
3655.055	17.12
3657.818	11.12
3660.579	5.12
3663.338	-4.88
3666.095	-4.88
3668.849	-26.88
3671.602	10.12
3674.352	-11.88
3677.101	7.12
3679.847	8.12
3682.591	-12.88
3685.333	-15.88
3688.073	-6.88
3690.811	-14.88
3693.547	-23.88
3696.281	-19.88
3699.013	-3.88
3701.742	-15.88
3704.47	-25.88
3707.195	-9.88
3709.919	-14.88
3712.64	-14.88
3715.359	-27.88
3718.076	-0.88
3720.792	-16.88
3723.505	-12.88
3726.216	-6.88
3728.925	-19.88
3731.632	-25.88
3734.336	-16.88
3737.039	-20.88
3739.74	-16.88
3742.439	-41.88
3745.136	-12.88
3747.83	-15.88
3750.523	-15.88
3753.213	-88.88
3755.902	-21.88
3758.589	-35.88
3761.273	-29.88
3763.956	-16.88
3766.636	-33.88
3769.315	-14.88
3771.991	-22.88
3774.665	-24.88
3777.338	-21.88
3780.008	-33.88
3782.677	-25.88
3785.343	-41.88
3788.007	-49.88
3790.67	-18.88
3793.33	-31.88
3795.989	-29.88
3798.645	-22.88
3801.299	-39.88
3803.952	-33.88
3806.602	-30.88
3809.251	-18.88
3811.897	-31.88
3814.542	-29.88
3817.184	-30.88
3819.825	-23.88
3822.463	-38.88
3825.1	-27.88
3827.735	-23.88
3830.367	-33.88
3832.998	-13.88
3835.627	-29.88
3838.253	-23.88
3840.878	-29.88
3843.501	-14.88
3846.122	-25.88
3848.741	-18.88
3851.358	-20.88
3853.973	-33.88
3856.586	-17.88
3859.197	-31.88
3861.806	-26.88
3864.414	-37.88
3867.019	-26.88
3869.622	-18.88
3872.224	-17.88
3874.823	9.12
3877.421	40.12
3880.016	68.12
3882.61	121.12
3885.202	138.12
3887.792	103.12
3890.38	55.12
3892.966	7.12
3895.55	-22.88
3898.132	-21.88
3900.713	-15.88
3903.291	-24.88
3905.868	-31.88
3908.442	-26.88
3911.015	-28.88
3913.586	-35.88
3916.155	-34.88
3918.722	-32.88
3921.287	-32.88
3923.85	-42.88
3926.411	-34.88
3928.971	-35.88
3931.528	-30.88
3934.084	-33.88
3936.638	-40.88
3939.19	-24.88
3941.74	-31.88
3944.288	-34.88
3946.834	-32.88
3949.378	-22.88
3951.921	-39.88
3954.462	-31.88
3957	-26.88
3959.537	-16.88
3962.072	-28.88
3964.606	-44.88
3967.137	-36.88
3969.667	-37.88
3972.194	-23.88
3974.72	-31.88
3977.244	-53.88
3979.766	-37.88
3982.286	-35.88
3984.805	-24.88
3987.321	-21.88
3989.836	-23.88
3992.349	-36.88
3994.86	-26.88
3997.369	-36.88
3999.877	-31.88
4002.382	-32.88
4004.886	-26.88
4007.388	-26.88
4009.888	-16.88
4012.386	-18.88
4014.883	-27.88
4017.377	-29.88
4019.87	-26.88
4022.361	-33.88
4024.85	-28.88
4027.338	-27.88
4029.823	-35.88
4032.307	-29.88
4034.789	-26.88
4037.269	-31.88
4039.747	-39.88
4042.224	-20.88
4044.699	-32.88
4047.172	-29.88
4049.643	-23.88
4052.112	-47.88
4054.58	-27.88
4057.046	-41.88
4059.51	-31.88
4061.972	-25.88
4064.432	-46.88
4066.891	-20.88
4069.348	-30.88
4071.803	-23.88
4074.256	-35.88
4076.708	-21.88
4079.158	-21.88
4081.606	-14.88
4084.052	-29.88
4086.497	-23.88
4088.939	-23.88
4091.38	-30.88
4093.819	-22.88
4096.257	0.12
4098.693	-6.88
4101.127	-1.88
4103.559	3.12
4105.989	148.12
4108.418	159.12
4110.845	137.12
4113.27	158.12
4115.694	154.12
4118.115	153.12
4120.535	-24.88
4122.954	-21.88
4125.37	-13.88
4127.785	-26.88
4130.198	-17.88
4132.609	-25.88
4135.019	6.12
4137.427	-0.88
4139.833	5.12
4142.237	-4.88
