Data from 2018-3-6_conc=6_n=3_RamanShift_05.txt Node
Date: Tue Mar 06 15:01:48 GMT+02:00 2018
User: LAB3
Spectrometer: QEPB0276
Trigger mode: 0
Integration Time (sec): 3.000000E1
Scans to average: 1
Electric dark correction enabled: true
Nonlinearity correction enabled: false
Boxcar width: 0
XAxis mode: Raman Shifts
Number of Pixels in Spectrum: 1044
>>>>>Begin Spectral Data<<<<<
160.701	41.62
166.742	55.62
172.777	76.62
178.805	159.62
184.826	387.62
190.841	784.62
196.849	1226.62
202.85	1571.62
208.845	1685.62
214.833	1687.62
220.815	1650.62
226.789	1620.62
232.758	1638.62
238.719	1624.62
244.674	1607.62
250.623	1569.62
256.565	1563.62
262.5	1541.62
268.429	1523.62
274.351	1502.62
280.267	1512.62
286.176	1497.62
292.079	1504.62
297.975	1492.62
303.865	1498.62
309.748	1479.62
315.625	1500.62
321.495	1482.62
327.359	1484.62
333.217	1484.62
339.068	1468.62
344.912	1504.62
350.751	1471.62
356.583	1499.62
362.408	1518.62
368.227	1516.62
374.04	1491.62
379.847	1508.62
385.647	1509.62
391.44	1518.62
397.228	1521.62
403.009	1535.62
408.784	1525.62
414.553	1551.62
420.315	1562.62
426.071	1539.62
431.821	1541.62
437.565	1545.62
443.302	1534.62
449.033	1542.62
454.758	1542.62
460.477	1517.62
466.189	1502.62
471.896	1504.62
477.596	1498.62
483.29	1456.62
488.978	1465.62
494.66	1445.62
500.335	1422.62
506.005	1345.62
511.668	1298.62
517.325	1222.62
522.977	1165.62
528.622	1142.62
534.261	1105.62
539.894	1083.62
545.521	1075.62
551.141	1045.62
556.756	1032.62
562.365	1041.62
567.968	1024.62
573.565	1015.62
579.155	1006.62
584.74	1001.62
590.319	1029.62
595.892	1011.62
601.459	1006.62
607.02	998.62
612.575	996.62
618.124	994.62
623.667	960.62
629.204	956.62
634.735	945.62
640.261	921.62
645.781	886.62
651.294	906.62
656.802	924.62
662.304	914.62
667.8	932.62
673.29	902.62
678.775	900.62
684.254	892.62
689.726	894.62
695.193	891.62
700.655	884.62
706.11	876.62
711.56	873.62
717.004	874.62
722.442	853.62
727.874	868.62
733.301	870.62
738.722	839.62
744.137	833.62
749.547	837.62
754.951	847.62
760.349	849.62
765.741	876.62
771.128	858.62
776.509	879.62
781.885	898.62
787.254	898.62
792.618	885.62
797.977	891.62
803.33	893.62
808.677	882.62
814.019	880.62
819.355	871.62
824.686	852.62
830.011	848.62
835.33	860.62
840.644	851.62
845.952	822.62
851.255	843.62
856.552	822.62
861.844	815.62
867.13	800.62
872.41	803.62
877.686	803.62
882.955	786.62
888.219	779.62
893.478	754.62
898.731	756.62
903.979	761.62
909.221	752.62
914.458	734.62
919.69	738.62
924.916	728.62
930.136	740.62
935.351	729.62
940.561	763.62
945.766	741.62
950.965	740.62
956.158	725.62
961.347	731.62
966.529	703.62
971.707	717.62
976.879	702.62
982.046	678.62
987.208	670.62
992.364	692.62
997.515	689.62
1002.66	694.62
1007.801	692.62
1012.936	694.62
1018.066	686.62
1023.19	700.62
1028.309	710.62
1033.423	701.62
1038.532	713.62
1043.636	695.62
1048.734	690.62
1053.827	692.62
1058.915	675.62
1063.998	698.62
1069.075	670.62
1074.147	682.62
1079.214	668.62
1084.276	680.62
1089.333	686.62
1094.385	684.62
1099.431	675.62
1104.472	676.62
1109.509	660.62
1114.54	661.62
1119.565	642.62
1124.586	638.62
1129.602	626.62
1134.613	610.62
1139.618	619.62
1144.619	615.62
1149.614	628.62
1154.604	619.62
1159.589	612.62
1164.57	650.62
1169.545	641.62
1174.515	633.62
1179.48	627.62
1184.44	629.62
1189.395	635.62
1194.345	600.62
1199.29	621.62
1204.23	595.62
1209.165	601.62
1214.095	614.62
1219.021	599.62
1223.941	606.62
1228.856	611.62
1233.766	621.62
1238.672	617.62
1243.572	616.62
1248.467	623.62
1253.358	604.62
1258.244	593.62
1263.124	606.62
1268	578.62
1272.871	564.62
1277.737	557.62
1282.599	570.62
1287.455	549.62
1292.306	553.62
1297.153	552.62
1301.995	566.62
1306.832	563.62
1311.664	562.62
1316.491	565.62
1321.314	564.62
1326.132	542.62
1330.945	549.62
1335.753	542.62
1340.556	521.62
1345.354	518.62
1350.148	518.62
1354.937	511.62
1359.722	495.62
1364.501	500.62
1369.276	499.62
1374.046	514.62
1378.811	501.62
1383.572	496.62
1388.327	502.62
1393.079	483.62
1397.825	477.62
1402.567	492.62
1407.304	476.62
1412.036	471.62
1416.764	480.62
1421.487	478.62
1426.205	463.62
1430.919	473.62
1435.628	472.62
1440.333	470.62
1445.032	487.62
1449.727	474.62
1454.418	489.62
1459.104	484.62
1463.785	464.62
1468.462	488.62
1473.134	472.62
1477.802	458.62
1482.465	428.62
1487.123	448.62
1491.777	422.62
1496.426	414.62
1501.071	437.62
1505.711	439.62
1510.347	437.62
1514.978	447.62
1519.604	434.62
1524.226	445.62
1528.844	430.62
1533.457	435.62
1538.065	431.62
1542.669	429.62
1547.269	435.62
1551.864	438.62
1556.454	414.62
1561.041	434.62
1565.622	425.62
1570.199	429.62
1574.772	433.62
1579.34	441.62
1583.904	446.62
1588.464	451.62
1593.019	455.62
1597.569	426.62
1602.115	437.62
1606.657	432.62
1611.195	451.62
1615.728	454.62
1620.256	428.62
1624.78	414.62
1629.3	424.62
1633.816	430.62
1638.327	422.62
1642.834	433.62
1647.336	424.62
1651.834	448.62
1656.328	448.62
1660.817	436.62
1665.302	427.62
1669.783	412.62
1674.259	402.62
1678.732	404.62
1683.199	402.62
1687.663	376.62
1692.122	380.62
1696.577	376.62
1701.028	375.62
1705.474	355.62
1709.917	339.62
1714.355	344.62
1718.788	340.62
1723.218	329.62
1727.643	319.62
1732.064	333.62
1736.481	318.62
1740.893	324.62
1745.301	302.62
1749.705	290.62
1754.105	302.62
1758.501	283.62
1762.893	293.62
1767.28	260.62
1771.663	278.62
1776.042	268.62
1780.417	267.62
1784.787	271.62
1789.154	278.62
1793.516	274.62
1797.874	267.62
1802.228	260.62
1806.578	257.62
1810.924	269.62
1815.266	149.62
1819.603	263.62
1823.937	258.62
1828.266	250.62
1832.591	253.62
1836.913	263.62
1841.23	250.62
1845.543	238.62
1849.852	258.62
1854.156	253.62
1858.457	241.62
1862.754	246.62
1867.047	247.62
1871.335	256.62
1875.62	260.62
1879.9	259.62
1884.177	244.62
1888.449	243.62
1892.718	241.62
1896.982	249.62
1901.243	221.62
1905.499	236.62
1909.752	226.62
1914	209.62
1918.245	234.62
1922.485	241.62
1926.722	225.62
1930.954	223.62
1935.183	228.62
1939.408	235.62
1943.628	226.62
1947.845	227.62
1952.058	229.62
1956.267	210.62
1960.472	228.62
1964.673	221.62
1968.87	224.62
1973.063	216.62
1977.252	214.62
1981.438	204.62
1985.619	209.62
1989.797	201.62
1993.971	201.62
1998.14	214.62
2002.306	213.62
2006.469	212.62
2010.627	195.62
2014.781	197.62
2018.932	191.62
2023.078	217.62
2027.221	209.62
2031.36	189.62
2035.495	195.62
2039.627	194.62
2043.754	191.62
2047.878	178.62
2051.998	181.62
2056.114	184.62
2060.226	185.62
2064.334	191.62
2068.439	194.62
2072.54	197.62
2076.637	177.62
2080.73	181.62
2084.82	192.62
2088.906	181.62
2092.988	184.62
2097.066	183.62
2101.14	194.62
2105.211	189.62
2109.278	173.62
2113.342	178.62
2117.401	170.62
2121.457	168.62
2125.509	155.62
2129.558	164.62
2133.602	164.62
2137.643	168.62
2141.681	163.62
2145.714	160.62
2149.744	168.62
2153.77	165.62
2157.793	148.62
2161.812	128.62
2165.827	135.62
2169.838	155.62
2173.846	143.62
2177.851	139.62
2181.851	154.62
2185.848	142.62
2189.841	148.62
2193.831	133.62
2197.817	144.62
2201.799	138.62
2205.778	130.62
2209.753	132.62
2213.725	131.62
2217.693	136.62
2221.657	129.62
2225.618	133.62
2229.575	136.62
2233.529	139.62
2237.479	140.62
2241.425	127.62
2245.368	120.62
2249.307	126.62
2253.243	116.62
2257.175	128.62
2261.104	110.62
2265.029	121.62
2268.95	120.62
2272.868	108.62
2276.783	106.62
2280.694	112.62
2284.601	113.62
2288.505	106.62
2292.405	113.62
2296.302	92.62
2300.195	101.62
2304.085	84.62
2307.971	111.62
2311.854	82.62
2315.734	94.62
2319.609	104.62
2323.482	81.62
2327.351	91.62
2331.216	91.62
2335.078	97.62
2338.937	89.62
2342.792	89.62
2346.643	80.62
2350.492	95.62
2354.336	90.62
2358.178	93.62
2362.015	87.62
2365.85	91.62
2369.681	91.62
2373.508	94.62
2377.333	99.62
2381.153	90.62
2384.971	86.62
2388.785	83.62
2392.595	75.62
2396.402	75.62
2400.206	57.62
2404.007	79.62
2407.804	75.62
2411.597	84.62
2415.388	74.62
2419.174	77.62
2422.958	80.62
2426.738	72.62
2430.515	76.62
2434.289	65.62
2438.059	67.62
2441.825	71.62
2445.589	89.62
2449.349	63.62
2453.106	77.62
2456.859	69.62
2460.61	83.62
2464.356	61.62
2468.1	60.62
2471.84	59.62
2475.577	59.62
2479.311	59.62
2483.041	65.62
2486.768	69.62
2490.492	74.62
2494.213	67.62
2497.93	47.62
2501.644	48.62
2505.355	60.62
2509.062	53.62
2512.766	54.62
2516.467	50.62
2520.165	52.62
2523.859	42.62
2527.551	75.62
2531.239	51.62
2534.923	52.62
2538.605	54.62
2542.283	59.62
2545.958	54.62
2549.63	66.62
2553.299	71.62
2556.964	47.62
2560.626	49.62
2564.285	51.62
2567.941	34.62
2571.594	44.62
2575.243	55.62
2578.89	40.62
2582.533	47.62
2586.173	44.62
2589.809	51.62
2593.443	25.62
2597.073	44.62
2600.701	46.62
2604.325	44.62
2607.946	38.62
2611.564	54.62
2615.178	52.62
2618.79	44.62
2622.398	37.62
2626.004	47.62
2629.606	45.62
2633.205	30.62
2636.801	45.62
2640.394	41.62
2643.983	36.62
2647.57	32.62
2651.153	35.62
2654.734	44.62
2658.311	21.62
2661.885	25.62
2665.456	31.62
2669.025	37.62
2672.589	32.62
2676.151	47.62
2679.71	44.62
2683.266	38.62
2686.819	23.62
2690.368	31.62
2693.915	36.62
2697.458	30.62
2700.999	36.62
2704.536	40.62
2708.071	32.62
2711.602	34.62
2715.13	27.62
2718.656	14.62
2722.178	30.62
2725.697	14.62
2729.214	19.62
2732.727	29.62
2736.237	11.62
2739.744	26.62
2743.249	16.62
2746.75	24.62
2750.248	14.62
2753.743	23.62
2757.236	21.62
2760.725	32.62
2764.211	-9.38
2767.695	25.62
2771.175	18.62
2774.652	24.62
2778.127	11.62
2781.598	21.62
2785.067	19.62
2788.532	8.62
2791.995	28.62
2795.455	15.62
2798.911	28.62
2802.365	15.62
2805.816	22.62
2809.264	31.62
2812.709	17.62
2816.151	28.62
2819.59	10.62
2823.026	18.62
2826.46	16.62
2829.89	30.62
2833.318	5.62
2836.742	16.62
2840.164	17.62
2843.583	20.62
2846.999	20.62
2850.412	20.62
2853.822	14.62
2857.229	28.62
2860.634	20.62
2864.035	3.62
2867.434	23.62
2870.83	21.62
2874.223	19.62
2877.613	16.62
2881	13.62
2884.385	15.62
2887.766	19.62
2891.145	27.62
2894.521	23.62
2897.894	7.62
2901.264	32.62
2904.631	27.62
2907.996	30.62
2911.358	36.62
2914.717	25.62
2918.073	22.62
2921.426	20.62
2924.777	9.62
2928.124	22.62
2931.469	34.62
2934.811	13.62
2938.15	42.62
2941.487	31.62
2944.821	47.62
2948.152	24.62
2951.48	38.62
2954.805	21.62
2958.128	43.62
2961.447	25.62
2964.765	41.62
2968.079	31.62
2971.39	37.62
2974.699	34.62
2978.005	44.62
2981.308	33.62
2984.609	29.62
2987.907	45.62
2991.202	50.62
2994.494	29.62
2997.784	38.62
3001.07	39.62
3004.355	30.62
3007.636	38.62
3010.915	43.62
3014.191	39.62
3017.464	43.62
3020.734	43.62
3024.002	43.62
3027.267	41.62
3030.53	41.62
3033.789	41.62
3037.046	42.62
3040.301	32.62
3043.552	45.62
3046.801	48.62
3050.048	58.62
3053.291	71.62
3056.532	56.62
3059.771	43.62
3063.006	64.62
3066.239	57.62
3069.469	62.62
3072.697	54.62
3075.922	57.62
3079.144	60.62
3082.364	87.62
3085.581	65.62
3088.795	86.62
3092.007	79.62
3095.216	81.62
3098.423	76.62
3101.627	58.62
3104.828	87.62
3108.026	77.62
3111.222	99.62
3114.416	100.62
3117.607	92.62
3120.795	91.62
3123.98	101.62
3127.163	82.62
3130.344	91.62
3133.521	94.62
3136.696	106.62
3139.869	99.62
3143.039	91.62
3146.206	117.62
3149.371	114.62
3152.533	118.62
3155.693	104.62
3158.85	116.62
3162.005	120.62
3165.157	113.62
3168.306	120.62
3171.453	124.62
3174.597	114.62
3177.739	102.62
3180.878	125.62
3184.014	121.62
3187.149	124.62
3190.28	123.62
3193.409	127.62
3196.536	131.62
3199.659	131.62
3202.781	132.62
3205.9	115.62
3209.016	126.62
3212.13	118.62
3215.241	121.62
3218.35	115.62
3221.456	118.62
3224.56	102.62
3227.661	117.62
3230.76	114.62
3233.856	107.62
3236.95	112.62
3240.041	106.62
3243.13	107.62
3246.216	105.62
3249.3	118.62
3252.382	115.62
3255.46	104.62
3258.537	54.62
3261.611	95.62
3264.682	106.62
3267.751	102.62
3270.818	89.62
3273.882	109.62
3276.943	105.62
3280.002	113.62
3283.059	97.62
3286.113	106.62
3289.165	96.62
3292.214	95.62
3295.261	115.62
3298.306	79.62
3301.348	90.62
3304.387	76.62
3307.425	100.62
3310.459	88.62
3313.492	100.62
3316.521	93.62
3319.549	100.62
3322.574	94.62
3325.597	84.62
3328.617	77.62
3331.635	86.62
3334.65	67.62
3337.663	84.62
3340.674	78.62
3343.682	82.62
3346.688	88.62
3349.691	75.62
3352.692	77.62
3355.691	88.62
3358.687	77.62
3361.681	88.62
3364.673	79.62
3367.662	84.62
3370.649	88.62
3373.633	66.62
3376.615	81.62
3379.595	62.62
3382.572	69.62
3385.547	65.62
3388.52	66.62
3391.49	68.62
3394.458	67.62
3397.424	70.62
3400.387	53.62
3403.348	69.62
3406.307	58.62
3409.263	59.62
3412.217	75.62
3415.168	66.62
3418.118	68.62
3421.065	58.62
3424.009	68.62
3426.951	56.62
3429.891	58.62
3432.829	53.62
3435.764	55.62
3438.697	46.62
3441.628	61.62
3444.557	41.62
3447.483	39.62
3450.407	51.62
3453.328	42.62
3456.247	36.62
3459.164	30.62
3462.079	44.62
3464.991	38.62
3467.902	35.62
3470.809	33.62
3473.715	41.62
3476.618	32.62
3479.519	27.62
3482.418	5.62
3485.315	15.62
3488.209	19.62
3491.101	14.62
3493.99	5.62
3496.878	6.62
3499.763	19.62
3502.646	10.62
3505.527	10.62
3508.405	9.62
3511.281	-4.38
3514.155	6.62
3517.027	5.62
3519.897	-6.38
3522.764	9.62
3525.629	-12.38
3528.492	-1.38
3531.352	-0.38
3534.211	4.62
3537.067	-5.38
3539.921	-0.38
3542.773	5.62
3545.622	-10.38
3548.469	-15.38
3551.315	-13.38
3554.157	-5.38
3556.998	-16.38
3559.837	-11.38
3562.673	-5.38
3565.507	-15.38
3568.339	-23.38
3571.169	-22.38
3573.996	-17.38
3576.822	-29.38
3579.645	-21.38
3582.466	-24.38
3585.285	-13.38
3588.101	-20.38
3590.916	-27.38
3593.728	-18.38
3596.538	-22.38
3599.346	-18.38
3602.152	-25.38
3604.956	-18.38
3607.757	-22.38
3610.556	-31.38
3613.354	-17.38
3616.149	-22.38
3618.942	-16.38
3621.732	-16.38
3624.521	-29.38
3627.307	-37.38
3630.092	-27.38
3632.874	-16.38
3635.654	-26.38
3638.432	-29.38
3641.208	-28.38
3643.982	-28.38
3646.753	-17.38
3649.523	-53.38
3652.29	-30.38
3655.055	-22.38
3657.818	-29.38
3660.579	-31.38
3663.338	-38.38
3666.095	-32.38
3668.849	-54.38
3671.602	-26.38
3674.352	-43.38
3677.101	-22.38
3679.847	-28.38
3682.591	-42.38
3685.333	-45.38
3688.073	-33.38
3690.811	-40.38
3693.547	-40.38
3696.281	-42.38
3699.013	-30.38
3701.742	-35.38
3704.47	-41.38
3707.195	-29.38
3709.919	-31.38
3712.64	-34.38
3715.359	-43.38
3718.076	-22.38
3720.792	-38.38
3723.505	-27.38
3726.216	-21.38
3728.925	-33.38
3731.632	-39.38
3734.336	-28.38
3737.039	-31.38
3739.74	-33.38
3742.439	-59.38
3745.136	-29.38
3747.83	-30.38
3750.523	-29.38
3753.213	-89.38
3755.902	-36.38
3758.589	-46.38
3761.273	-36.38
3763.956	-24.38
3766.636	-47.38
3769.315	-23.38
3771.991	-29.38
3774.665	-38.38
3777.338	-35.38
3780.008	-39.38
3782.677	-32.38
3785.343	-49.38
3788.007	-52.38
3790.67	-28.38
3793.33	-45.38
3795.989	-35.38
3798.645	-31.38
3801.299	-47.38
3803.952	-44.38
3806.602	-39.38
3809.251	-33.38
3811.897	-38.38
3814.542	-36.38
3817.184	-40.38
3819.825	-35.38
3822.463	-47.38
3825.1	-35.38
3827.735	-36.38
3830.367	-41.38
3832.998	-22.38
3835.627	-36.38
3838.253	-29.38
3840.878	-37.38
3843.501	-17.38
3846.122	-29.38
3848.741	-27.38
3851.358	-24.38
3853.973	-45.38
3856.586	-25.38
3859.197	-41.38
3861.806	-32.38
3864.414	-44.38
3867.019	-36.38
3869.622	-28.38
3872.224	-29.38
3874.823	-23.38
3877.421	-7.38
3880.016	-3.38
3882.61	15.62
3885.202	31.62
3887.792	24.62
3890.38	-2.38
3892.966	-24.38
3895.55	-44.38
3898.132	-34.38
3900.713	-29.38
3903.291	-30.38
3905.868	-39.38
3908.442	-33.38
3911.015	-24.38
3913.586	-38.38
3916.155	-30.38
3918.722	-37.38
3921.287	-34.38
3923.85	-47.38
3926.411	-44.38
3928.971	-38.38
3931.528	-30.38
3934.084	-36.38
3936.638	-47.38
3939.19	-31.38
3941.74	-36.38
3944.288	-39.38
3946.834	-36.38
3949.378	-30.38
3951.921	-41.38
3954.462	-38.38
3957	-36.38
3959.537	-25.38
3962.072	-35.38
3964.606	-48.38
3967.137	-35.38
3969.667	-42.38
3972.194	-33.38
3974.72	-38.38
3977.244	-59.38
3979.766	-41.38
3982.286	-42.38
3984.805	-36.38
3987.321	-24.38
3989.836	-26.38
3992.349	-35.38
3994.86	-35.38
3997.369	-44.38
3999.877	-37.38
4002.382	-40.38
4004.886	-30.38
4007.388	-34.38
4009.888	-27.38
4012.386	-31.38
4014.883	-33.38
4017.377	-37.38
4019.87	-31.38
4022.361	-47.38
4024.85	-40.38
4027.338	-36.38
4029.823	-41.38
4032.307	-34.38
4034.789	-33.38
4037.269	-37.38
4039.747	-45.38
4042.224	-30.38
4044.699	-42.38
4047.172	-32.38
4049.643	-32.38
4052.112	-55.38
4054.58	-29.38
4057.046	-45.38
4059.51	-37.38
4061.972	-34.38
4064.432	-52.38
4066.891	-23.38
4069.348	-31.38
4071.803	-31.38
4074.256	-37.38
4076.708	-35.38
4079.158	-40.38
4081.606	-24.38
4084.052	-39.38
4086.497	-30.38
4088.939	-39.38
4091.38	-39.38
4093.819	-35.38
4096.257	-1.38
4098.693	-8.38
4101.127	-6.38
4103.559	0.62
4105.989	40.62
4108.418	46.62
4110.845	35.62
4113.27	41.62
4115.694	49.62
4118.115	32.62
4120.535	-34.38
4122.954	-28.38
4125.37	-25.38
4127.785	-34.38
4130.198	-22.38
4132.609	-30.38
4135.019	11.62
4137.427	0.62
4139.833	7.62
4142.237	-4.38
