Data from 2018-3-6_conc=4_n=1_RamanShift_01.txt Node
Date: Tue Mar 06 13:49:19 GMT+02:00 2018
User: LAB3
Spectrometer: QEPB0276
Trigger mode: 0
Integration Time (sec): 3.000000E1
Scans to average: 1
Electric dark correction enabled: true
Nonlinearity correction enabled: false
Boxcar width: 0
XAxis mode: Raman Shifts
Number of Pixels in Spectrum: 1044
>>>>>Begin Spectral Data<<<<<
160.701	109.38
166.742	142.38
172.777	208.38
178.805	402.38
184.826	898.38
190.841	1773.38
196.849	2797.38
202.85	3537.38
208.845	3799.38
214.833	3827.38
220.815	3797.38
226.789	3805.38
232.758	3847.38
238.719	3858.38
244.674	3828.38
250.623	3797.38
256.565	3767.38
262.5	3737.38
268.429	3723.38
274.351	3698.38
280.267	3714.38
286.176	3719.38
292.079	3721.38
297.975	3720.38
303.865	3725.38
309.748	3750.38
315.625	3776.38
321.495	3770.38
327.359	3760.38
333.217	3774.38
339.068	3797.38
344.912	3823.38
350.751	3812.38
356.583	3827.38
362.408	3847.38
368.227	3883.38
374.04	3894.38
379.847	3881.38
385.647	3950.38
391.44	3947.38
397.228	3965.38
403.009	3998.38
408.784	4030.38
414.553	4078.38
420.315	4037.38
426.071	4056.38
431.821	4034.38
437.565	4064.38
443.302	4057.38
449.033	4008.38
454.758	4003.38
460.477	3972.38
466.189	3925.38
471.896	3902.38
477.596	3876.38
483.29	3883.38
488.978	3850.38
494.66	3812.38
500.335	3727.38
506.005	3579.38
511.668	3418.38
517.325	3243.38
522.977	3091.38
528.622	3017.38
534.261	2939.38
539.894	2887.38
545.521	2850.38
551.141	2825.38
556.756	2802.38
562.365	2767.38
567.968	2726.38
573.565	2699.38
579.155	2681.38
584.74	2691.38
590.319	2682.38
595.892	2653.38
601.459	2676.38
607.02	2650.38
612.575	2642.38
618.124	2606.38
623.667	2557.38
629.204	2530.38
634.735	2488.38
640.261	2470.38
645.781	2456.38
651.294	2437.38
656.802	2427.38
662.304	2420.38
667.8	2442.38
673.29	2413.38
678.775	2410.38
684.254	2411.38
689.726	2349.38
695.193	2377.38
700.655	2369.38
706.11	2337.38
711.56	2330.38
717.004	2322.38
722.442	2300.38
727.874	2321.38
733.301	2318.38
738.722	2277.38
744.137	2299.38
749.547	2267.38
754.951	2275.38
760.349	2308.38
765.741	2309.38
771.128	2311.38
776.509	2343.38
781.885	2384.38
787.254	2405.38
792.618	2399.38
797.977	2397.38
803.33	2386.38
808.677	2373.38
814.019	2342.38
819.355	2338.38
824.686	2304.38
830.011	2280.38
835.33	2291.38
840.644	2305.38
845.952	2274.38
851.255	2263.38
856.552	2247.38
861.844	2215.38
867.13	2212.38
872.41	2171.38
877.686	2171.38
882.955	2160.38
888.219	2142.38
893.478	2102.38
898.731	2082.38
903.979	2071.38
909.221	2033.38
914.458	2037.38
919.69	2040.38
924.916	2031.38
930.136	2059.38
935.351	2036.38
940.561	2060.38
945.766	2032.38
950.965	2030.38
956.158	2015.38
961.347	2001.38
966.529	1956.38
971.707	1950.38
976.879	1915.38
982.046	1886.38
987.208	1888.38
992.364	1882.38
997.515	1889.38
1002.66	1882.38
1007.801	1901.38
1012.936	1909.38
1018.066	1912.38
1023.19	1932.38
1028.309	1921.38
1033.423	1935.38
1038.532	1915.38
1043.636	1896.38
1048.734	1873.38
1053.827	1852.38
1058.915	1827.38
1063.998	1835.38
1069.075	1791.38
1074.147	1823.38
1079.214	1801.38
1084.276	1830.38
1089.333	1839.38
1094.385	1859.38
1099.431	1808.38
1104.472	1832.38
1109.509	1817.38
1114.54	1794.38
1119.565	1756.38
1124.586	1749.38
1129.602	1720.38
1134.613	1679.38
1139.618	1711.38
1144.619	1704.38
1149.614	1726.38
1154.604	1704.38
1159.589	1717.38
1164.57	1735.38
1169.545	1745.38
1174.515	1746.38
1179.48	1723.38
1184.44	1714.38
1189.395	1721.38
1194.345	1700.38
1199.29	1681.38
1204.23	1686.38
1209.165	1667.38
1214.095	1710.38
1219.021	1711.38
1223.941	1690.38
1228.856	1702.38
1233.766	1723.38
1238.672	1727.38
1243.572	1720.38
1248.467	1704.38
1253.358	1684.38
1258.244	1651.38
1263.124	1637.38
1268	1627.38
1272.871	1581.38
1277.737	1582.38
1282.599	1577.38
1287.455	1557.38
1292.306	1580.38
1297.153	1555.38
1301.995	1576.38
1306.832	1576.38
1311.664	1580.38
1316.491	1583.38
1321.314	1579.38
1326.132	1556.38
1330.945	1537.38
1335.753	1537.38
1340.556	1496.38
1345.354	1470.38
1350.148	1444.38
1354.937	1439.38
1359.722	1405.38
1364.501	1392.38
1369.276	1415.38
1374.046	1420.38
1378.811	1397.38
1383.572	1403.38
1388.327	1403.38
1393.079	1369.38
1397.825	1352.38
1402.567	1360.38
1407.304	1351.38
1412.036	1344.38
1416.764	1339.38
1421.487	1319.38
1426.205	1313.38
1430.919	1333.38
1435.628	1340.38
1440.333	1345.38
1445.032	1353.38
1449.727	1380.38
1454.418	1380.38
1459.104	1372.38
1463.785	1349.38
1468.462	1344.38
1473.134	1314.38
1477.802	1301.38
1482.465	1256.38
1487.123	1270.38
1491.777	1243.38
1496.426	1227.38
1501.071	1262.38
1505.711	1238.38
1510.347	1264.38
1514.978	1278.38
1519.604	1279.38
1524.226	1290.38
1528.844	1255.38
1533.457	1258.38
1538.065	1255.38
1542.669	1241.38
1547.269	1235.38
1551.864	1238.38
1556.454	1226.38
1561.041	1238.38
1565.622	1231.38
1570.199	1231.38
1574.772	1248.38
1579.34	1257.38
1583.904	1280.38
1588.464	1294.38
1593.019	1293.38
1597.569	1269.38
1602.115	1280.38
1606.657	1262.38
1611.195	1273.38
1615.728	1264.38
1620.256	1248.38
1624.78	1234.38
1629.3	1252.38
1633.816	1260.38
1638.327	1256.38
1642.834	1260.38
1647.336	1276.38
1651.834	1291.38
1656.328	1275.38
1660.817	1276.38
1665.302	1259.38
1669.783	1237.38
1674.259	1211.38
1678.732	1194.38
1683.199	1152.38
1687.663	1139.38
1692.122	1114.38
1696.577	1083.38
1701.028	1068.38
1705.474	1014.38
1709.917	1005.38
1714.355	1006.38
1718.788	986.38
1723.218	963.38
1727.643	954.38
1732.064	954.38
1736.481	917.38
1740.893	917.38
1745.301	881.38
1749.705	855.38
1754.105	872.38
1758.501	827.38
1762.893	830.38
1767.28	798.38
1771.663	805.38
1776.042	789.38
1780.417	792.38
1784.787	802.38
1789.154	799.38
1793.516	800.38
1797.874	793.38
1802.228	779.38
1806.578	773.38
1810.924	786.38
1815.266	670.38
1819.603	767.38
1823.937	748.38
1828.266	754.38
1832.591	756.38
1836.913	741.38
1841.23	742.38
1845.543	734.38
1849.852	749.38
1854.156	737.38
1858.457	750.38
1862.754	736.38
1867.047	744.38
1871.335	755.38
1875.62	756.38
1879.9	745.38
1884.177	748.38
1888.449	737.38
1892.718	732.38
1896.982	742.38
1901.243	723.38
1905.499	729.38
1909.752	711.38
1914	703.38
1918.245	720.38
1922.485	724.38
1926.722	716.38
1930.954	720.38
1935.183	736.38
1939.408	723.38
1943.628	735.38
1947.845	724.38
1952.058	712.38
1956.267	707.38
1960.472	700.38
1964.673	688.38
1968.87	674.38
1973.063	669.38
1977.252	659.38
1981.438	651.38
1985.619	643.38
1989.797	631.38
1993.971	640.38
1998.14	645.38
2002.306	632.38
2006.469	641.38
2010.627	619.38
2014.781	620.38
2018.932	626.38
2023.078	629.38
2027.221	625.38
2031.36	601.38
2035.495	598.38
2039.627	600.38
2043.754	589.38
2047.878	585.38
2051.998	583.38
2056.114	568.38
2060.226	573.38
2064.334	590.38
2068.439	576.38
2072.54	575.38
2076.637	565.38
2080.73	566.38
2084.82	575.38
2088.906	575.38
2092.988	565.38
2097.066	567.38
2101.14	573.38
2105.211	561.38
2109.278	543.38
2113.342	549.38
2117.401	534.38
2121.457	505.38
2125.509	519.38
2129.558	526.38
2133.602	512.38
2137.643	511.38
2141.681	499.38
2145.714	518.38
2149.744	503.38
2153.77	499.38
2157.793	494.38
2161.812	473.38
2165.827	461.38
2169.838	488.38
2173.846	469.38
2177.851	454.38
2181.851	468.38
2185.848	453.38
2189.841	447.38
2193.831	447.38
2197.817	437.38
2201.799	443.38
2205.778	434.38
2209.753	440.38
2213.725	421.38
2217.693	434.38
2221.657	417.38
2225.618	427.38
2229.575	428.38
2233.529	436.38
2237.479	418.38
2241.425	408.38
2245.368	398.38
2249.307	400.38
2253.243	401.38
2257.175	388.38
2261.104	378.38
2265.029	385.38
2268.95	384.38
2272.868	360.38
2276.783	362.38
2280.694	373.38
2284.601	364.38
2288.505	355.38
2292.405	355.38
2296.302	334.38
2300.195	346.38
2304.085	315.38
2307.971	337.38
2311.854	313.38
2315.734	320.38
2319.609	316.38
2323.482	299.38
2327.351	308.38
2331.216	304.38
2335.078	313.38
2338.937	314.38
2342.792	296.38
2346.643	288.38
2350.492	300.38
2354.336	301.38
2358.178	301.38
2362.015	290.38
2365.85	285.38
2369.681	293.38
2373.508	294.38
2377.333	303.38
2381.153	291.38
2384.971	289.38
2388.785	290.38
2392.595	273.38
2396.402	272.38
2400.206	247.38
2404.007	263.38
2407.804	278.38
2411.597	278.38
2415.388	267.38
2419.174	267.38
2422.958	268.38
2426.738	268.38
2430.515	271.38
2434.289	260.38
2438.059	253.38
2441.825	261.38
2445.589	268.38
2449.349	244.38
2453.106	255.38
2456.859	247.38
2460.61	249.38
2464.356	237.38
2468.1	228.38
2471.84	238.38
2475.577	233.38
2479.311	233.38
2483.041	237.38
2486.768	251.38
2490.492	254.38
2494.213	240.38
2497.93	230.38
2501.644	222.38
2505.355	230.38
2509.062	230.38
2512.766	230.38
2516.467	233.38
2520.165	224.38
2523.859	215.38
2527.551	235.38
2531.239	215.38
2534.923	230.38
2538.605	221.38
2542.283	226.38
2545.958	222.38
2549.63	230.38
2553.299	229.38
2556.964	205.38
2560.626	212.38
2564.285	209.38
2567.941	196.38
2571.594	203.38
2575.243	209.38
2578.89	204.38
2582.533	203.38
2586.173	196.38
2589.809	196.38
2593.443	177.38
2597.073	194.38
2600.701	198.38
2604.325	191.38
2607.946	184.38
2611.564	201.38
2615.178	192.38
2618.79	194.38
2622.398	177.38
2626.004	193.38
2629.606	191.38
2633.205	181.38
2636.801	193.38
2640.394	184.38
2643.983	169.38
2647.57	170.38
2651.153	166.38
2654.734	177.38
2658.311	149.38
2661.885	161.38
2665.456	164.38
2669.025	169.38
2672.589	161.38
2676.151	167.38
2679.71	169.38
2683.266	158.38
2686.819	148.38
2690.368	160.38
2693.915	158.38
2697.458	155.38
2700.999	164.38
2704.536	157.38
2708.071	149.38
2711.602	153.38
2715.13	149.38
2718.656	128.38
2722.178	142.38
2725.697	130.38
2729.214	132.38
2732.727	143.38
2736.237	121.38
2739.744	135.38
2743.249	122.38
2746.75	138.38
2750.248	121.38
2753.743	136.38
2757.236	134.38
2760.725	141.38
2764.211	113.38
2767.695	133.38
2771.175	126.38
2774.652	130.38
2778.127	128.38
2781.598	119.38
2785.067	124.38
2788.532	122.38
2791.995	125.38
2795.455	122.38
2798.911	140.38
2802.365	123.38
2805.816	126.38
2809.264	136.38
2812.709	126.38
2816.151	125.38
2819.59	119.38
2823.026	127.38
2826.46	119.38
2829.89	133.38
2833.318	113.38
2836.742	131.38
2840.164	129.38
2843.583	129.38
2846.999	130.38
2850.412	142.38
2853.822	126.38
2857.229	147.38
2860.634	138.38
2864.035	127.38
2867.434	146.38
2870.83	146.38
2874.223	139.38
2877.613	147.38
2881	139.38
2884.385	133.38
2887.766	149.38
2891.145	151.38
2894.521	150.38
2897.894	137.38
2901.264	154.38
2904.631	156.38
2907.996	152.38
2911.358	164.38
2914.717	149.38
2918.073	151.38
2921.426	145.38
2924.777	140.38
2928.124	152.38
2931.469	171.38
2934.811	152.38
2938.15	179.38
2941.487	175.38
2944.821	188.38
2948.152	170.38
2951.48	177.38
2954.805	160.38
2958.128	181.38
2961.447	170.38
2964.765	189.38
2968.079	183.38
2971.39	181.38
2974.699	176.38
2978.005	179.38
2981.308	184.38
2984.609	176.38
2987.907	193.38
2991.202	192.38
2994.494	177.38
2997.784	199.38
3001.07	201.38
3004.355	189.38
3007.636	194.38
3010.915	197.38
3014.191	190.38
3017.464	201.38
3020.734	202.38
3024.002	203.38
3027.267	204.38
3030.53	213.38
3033.789	203.38
3037.046	210.38
3040.301	204.38
3043.552	211.38
3046.801	223.38
3050.048	231.38
3053.291	254.38
3056.532	244.38
3059.771	222.38
3063.006	259.38
3066.239	243.38
3069.469	264.38
3072.697	255.38
3075.922	263.38
3079.144	272.38
3082.364	295.38
3085.581	285.38
3088.795	305.38
3092.007	301.38
3095.216	315.38
3098.423	308.38
3101.627	287.38
3104.828	330.38
3108.026	318.38
3111.222	342.38
3114.416	359.38
3117.607	340.38
3120.795	352.38
3123.98	359.38
3127.163	349.38
3130.344	377.38
3133.521	372.38
3136.696	403.38
3139.869	390.38
3143.039	392.38
3146.206	422.38
3149.371	422.38
3152.533	417.38
3155.693	417.38
3158.85	427.38
3162.005	430.38
3165.157	428.38
3168.306	432.38
3171.453	446.38
3174.597	419.38
3177.739	418.38
3180.878	436.38
3184.014	438.38
3187.149	450.38
3190.28	438.38
3193.409	442.38
3196.536	442.38
3199.659	454.38
3202.781	459.38
3205.9	446.38
3209.016	462.38
3212.13	452.38
3215.241	445.38
3218.35	443.38
3221.456	447.38
3224.56	435.38
3227.661	431.38
3230.76	432.38
3233.856	419.38
3236.95	432.38
3240.041	410.38
3243.13	426.38
3246.216	424.38
3249.3	418.38
3252.382	414.38
3255.46	406.38
3258.537	354.38
3261.611	403.38
3264.682	410.38
3267.751	411.38
3270.818	397.38
3273.882	410.38
3276.943	398.38
3280.002	413.38
3283.059	387.38
3286.113	387.38
3289.165	387.38
3292.214	371.38
3295.261	391.38
3298.306	368.38
3301.348	370.38
3304.387	359.38
3307.425	359.38
3310.459	352.38
3313.492	359.38
3316.521	342.38
3319.549	352.38
3322.574	344.38
3325.597	342.38
3328.617	330.38
3331.635	328.38
3334.65	316.38
3337.663	343.38
3340.674	328.38
3343.682	334.38
3346.688	340.38
3349.691	322.38
3352.692	320.38
3355.691	330.38
3358.687	334.38
3361.681	325.38
3364.673	314.38
3367.662	321.38
3370.649	320.38
3373.633	302.38
3376.615	295.38
3379.595	289.38
3382.572	288.38
3385.547	288.38
3388.52	279.38
3391.49	288.38
3394.458	285.38
3397.424	284.38
3400.387	271.38
3403.348	272.38
3406.307	272.38
3409.263	267.38
3412.217	273.38
3415.168	271.38
3418.118	273.38
3421.065	254.38
3424.009	262.38
3426.951	247.38
3429.891	246.38
3432.829	243.38
3435.764	247.38
3438.697	222.38
3441.628	237.38
3444.557	221.38
3447.483	211.38
3450.407	220.38
3453.328	202.38
3456.247	198.38
3459.164	194.38
3462.079	214.38
3464.991	192.38
3467.902	180.38
3470.809	175.38
3473.715	185.38
3476.618	164.38
3479.519	175.38
3482.418	144.38
3485.315	151.38
3488.209	147.38
3491.101	147.38
3493.99	131.38
3496.878	135.38
3499.763	131.38
3502.646	136.38
3505.527	119.38
3508.405	125.38
3511.281	103.38
3514.155	115.38
3517.027	109.38
3519.897	94.38
3522.764	102.38
3525.629	77.38
3528.492	91.38
3531.352	86.38
3534.211	94.38
3537.067	73.38
3539.921	83.38
3542.773	80.38
3545.622	61.38
3548.469	62.38
3551.315	56.38
3554.157	56.38
3556.998	51.38
3559.837	53.38
3562.673	55.38
3565.507	42.38
3568.339	38.38
3571.169	40.38
3573.996	37.38
3576.822	25.38
3579.645	31.38
3582.466	27.38
3585.285	35.38
3588.101	29.38
3590.916	25.38
3593.728	27.38
3596.538	24.38
3599.346	29.38
3602.152	16.38
3604.956	21.38
3607.757	22.38
3610.556	5.38
3613.354	20.38
3616.149	13.38
3618.942	16.38
3621.732	23.38
3624.521	3.38
3627.307	0.38
3630.092	3.38
3632.874	20.38
3635.654	-1.62
3638.432	-2.62
3641.208	-3.62
3643.982	-2.62
3646.753	8.38
3649.523	-21.62
3652.29	-2.62
3655.055	1.38
3657.818	2.38
3660.579	-1.62
3663.338	-14.62
3666.095	-10.62
3668.849	-31.62
3671.602	-3.62
3674.352	-18.62
3677.101	-6.62
3679.847	-6.62
3682.591	-23.62
3685.333	-23.62
3688.073	-9.62
3690.811	-25.62
3693.547	-28.62
3696.281	-25.62
3699.013	-17.62
3701.742	-24.62
3704.47	-25.62
3707.195	-11.62
3709.919	-17.62
3712.64	-18.62
3715.359	-28.62
3718.076	-11.62
3720.792	-24.62
3723.505	-16.62
3726.216	-6.62
3728.925	-28.62
3731.632	-29.62
3734.336	-19.62
3737.039	-21.62
3739.74	-22.62
3742.439	-51.62
3745.136	-23.62
3747.83	-15.62
3750.523	-16.62
3753.213	-80.62
3755.902	-27.62
3758.589	-36.62
3761.273	-28.62
3763.956	-16.62
3766.636	-37.62
3769.315	-14.62
3771.991	-26.62
3774.665	-33.62
3777.338	-27.62
3780.008	-36.62
3782.677	-31.62
3785.343	-44.62
3788.007	-47.62
3790.67	-19.62
3793.33	-41.62
3795.989	-30.62
3798.645	-29.62
3801.299	-39.62
3803.952	-37.62
3806.602	-34.62
3809.251	-19.62
3811.897	-24.62
3814.542	-34.62
3817.184	-35.62
3819.825	-30.62
3822.463	-39.62
3825.1	-32.62
3827.735	-28.62
3830.367	-39.62
3832.998	-21.62
3835.627	-33.62
3838.253	-20.62
3840.878	-30.62
3843.501	-12.62
3846.122	-25.62
3848.741	-18.62
3851.358	-22.62
3853.973	-41.62
3856.586	-16.62
3859.197	-33.62
3861.806	-26.62
3864.414	-37.62
3867.019	-29.62
3869.622	-21.62
3872.224	-13.62
3874.823	-3.62
3877.421	22.38
3880.016	48.38
3882.61	84.38
3885.202	99.38
3887.792	71.38
3890.38	29.38
3892.966	-6.62
3895.55	-26.62
3898.132	-15.62
3900.713	-22.62
3903.291	-23.62
3905.868	-34.62
3908.442	-24.62
3911.015	-29.62
3913.586	-31.62
3916.155	-29.62
3918.722	-37.62
3921.287	-35.62
3923.85	-38.62
3926.411	-35.62
3928.971	-34.62
3931.528	-30.62
3934.084	-31.62
3936.638	-41.62
3939.19	-30.62
3941.74	-32.62
3944.288	-34.62
3946.834	-29.62
3949.378	-23.62
3951.921	-34.62
3954.462	-32.62
3957	-26.62
3959.537	-16.62
3962.072	-28.62
3964.606	-39.62
3967.137	-31.62
3969.667	-38.62
3972.194	-26.62
3974.72	-33.62
3977.244	-53.62
3979.766	-32.62
3982.286	-36.62
3984.805	-23.62
3987.321	-23.62
3989.836	-22.62
3992.349	-38.62
3994.86	-24.62
3997.369	-35.62
3999.877	-33.62
4002.382	-28.62
4004.886	-25.62
4007.388	-26.62
4009.888	-20.62
4012.386	-20.62
4014.883	-25.62
4017.377	-27.62
4019.87	-26.62
4022.361	-34.62
4024.85	-27.62
4027.338	-26.62
4029.823	-31.62
4032.307	-31.62
4034.789	-26.62
4037.269	-28.62
4039.747	-36.62
4042.224	-19.62
4044.699	-33.62
4047.172	-31.62
4049.643	-19.62
4052.112	-52.62
4054.58	-30.62
4057.046	-41.62
4059.51	-29.62
4061.972	-30.62
4064.432	-50.62
4066.891	-12.62
4069.348	-27.62
4071.803	-27.62
4074.256	-33.62
4076.708	-22.62
4079.158	-30.62
4081.606	-19.62
4084.052	-29.62
4086.497	-30.62
4088.939	-28.62
4091.38	-29.62
4093.819	-23.62
4096.257	3.38
4098.693	-7.62
4101.127	-6.62
4103.559	0.38
4105.989	113.38
4108.418	111.38
4110.845	95.38
4113.27	107.38
4115.694	110.38
4118.115	97.38
4120.535	-27.62
4122.954	-21.62
4125.37	-22.62
4127.785	-29.62
4130.198	-22.62
4132.609	-24.62
4135.019	8.38
4137.427	2.38
4139.833	5.38
4142.237	-5.62
