Data from 2018-3-6_conc=0_n=7_RamanShift_02.txt Node
Date: Tue Mar 06 12:27:49 GMT+02:00 2018
User: LAB3
Spectrometer: QEPB0276
Trigger mode: 0
Integration Time (sec): 3.000000E1
Scans to average: 1
Electric dark correction enabled: true
Nonlinearity correction enabled: false
Boxcar width: 0
XAxis mode: Raman Shifts
Number of Pixels in Spectrum: 1044
>>>>>Begin Spectral Data<<<<<
160.701	173.25
166.742	221.25
172.777	343.25
178.805	685.25
184.826	1579.25
190.841	3145.25
196.849	5029.25
202.85	6416.25
208.845	7000.25
214.833	6928.25
220.815	6906.25
226.789	6904.25
232.758	6942.25
238.719	6961.25
244.674	6986.25
250.623	6947.25
256.565	6873.25
262.5	6807.25
268.429	6772.25
274.351	6775.25
280.267	6747.25
286.176	6776.25
292.079	6796.25
297.975	6789.25
303.865	6847.25
309.748	6806.25
315.625	6821.25
321.495	6858.25
327.359	6870.25
333.217	6882.25
339.068	6880.25
344.912	6941.25
350.751	6965.25
356.583	6972.25
362.408	7019.25
368.227	7062.25
374.04	7067.25
379.847	7112.25
385.647	7194.25
391.44	7195.25
397.228	7218.25
403.009	7313.25
408.784	7316.25
414.553	7316.25
420.315	7358.25
426.071	7368.25
431.821	7377.25
437.565	7352.25
443.302	7364.25
449.033	7322.25
454.758	7339.25
460.477	7216.25
466.189	7154.25
471.896	7094.25
477.596	7055.25
483.29	6959.25
488.978	6965.25
494.66	6909.25
500.335	6751.25
506.005	6477.25
511.668	6177.25
517.325	5859.25
522.977	5637.25
528.622	5440.25
534.261	5330.25
539.894	5210.25
545.521	5157.25
551.141	5109.25
556.756	5041.25
562.365	4982.25
567.968	4961.25
573.565	4934.25
579.155	4919.25
584.74	4852.25
590.319	4846.25
595.892	4877.25
601.459	4872.25
607.02	4833.25
612.575	4793.25
618.124	4744.25
623.667	4666.25
629.204	4606.25
634.735	4555.25
640.261	4506.25
645.781	4474.25
651.294	4458.25
656.802	4420.25
662.304	4432.25
667.8	4426.25
673.29	4384.25
678.775	4378.25
684.254	4372.25
689.726	4356.25
695.193	4336.25
700.655	4284.25
706.11	4260.25
711.56	4265.25
717.004	4235.25
722.442	4196.25
727.874	4174.25
733.301	4206.25
738.722	4161.25
744.137	4180.25
749.547	4148.25
754.951	4160.25
760.349	4152.25
765.741	4158.25
771.128	4171.25
776.509	4236.25
781.885	4324.25
787.254	4367.25
792.618	4363.25
797.977	4354.25
803.33	4321.25
808.677	4303.25
814.019	4258.25
819.355	4231.25
824.686	4198.25
830.011	4163.25
835.33	4139.25
840.644	4147.25
845.952	4074.25
851.255	4100.25
856.552	4022.25
861.844	3997.25
867.13	3966.25
872.41	3971.25
877.686	4037.25
882.955	4046.25
888.219	3999.25
893.478	3875.25
898.731	3774.25
903.979	3704.25
909.221	3642.25
914.458	3610.25
919.69	3602.25
924.916	3603.25
930.136	3612.25
935.351	3627.25
940.561	3630.25
945.766	3615.25
950.965	3609.25
956.158	3549.25
961.347	3502.25
966.529	3473.25
971.707	3454.25
976.879	3399.25
982.046	3401.25
987.208	3350.25
992.364	3376.25
997.515	3366.25
1002.66	3416.25
1007.801	3427.25
1012.936	3459.25
1018.066	3467.25
1023.19	3506.25
1028.309	3479.25
1033.423	3511.25
1038.532	3489.25
1043.636	3491.25
1048.734	3468.25
1053.827	3481.25
1058.915	3404.25
1063.998	3393.25
1069.075	3348.25
1074.147	3378.25
1079.214	3361.25
1084.276	3404.25
1089.333	3415.25
1094.385	3439.25
1099.431	3380.25
1104.472	3363.25
1109.509	3335.25
1114.54	3245.25
1119.565	3227.25
1124.586	3186.25
1129.602	3125.25
1134.613	3102.25
1139.618	3080.25
1144.619	3087.25
1149.614	3083.25
1154.604	3080.25
1159.589	3097.25
1164.57	3097.25
1169.545	3134.25
1174.515	3111.25
1179.48	3097.25
1184.44	3097.25
1189.395	3044.25
1194.345	3046.25
1199.29	3031.25
1204.23	3016.25
1209.165	3019.25
1214.095	3038.25
1219.021	3070.25
1223.941	3049.25
1228.856	3072.25
1233.766	3060.25
1238.672	3094.25
1243.572	3060.25
1248.467	3046.25
1253.358	2995.25
1258.244	2957.25
1263.124	2928.25
1268	2901.25
1272.871	2836.25
1277.737	2805.25
1282.599	2797.25
1287.455	2788.25
1292.306	2805.25
1297.153	2809.25
1301.995	2827.25
1306.832	2842.25
1311.664	2843.25
1316.491	2803.25
1321.314	2828.25
1326.132	2789.25
1330.945	2768.25
1335.753	2714.25
1340.556	2670.25
1345.354	2629.25
1350.148	2602.25
1354.937	2543.25
1359.722	2530.25
1364.501	2493.25
1369.276	2510.25
1374.046	2504.25
1378.811	2498.25
1383.572	2505.25
1388.327	2499.25
1393.079	2460.25
1397.825	2459.25
1402.567	2441.25
1407.304	2428.25
1412.036	2420.25
1416.764	2409.25
1421.487	2405.25
1426.205	2386.25
1430.919	2422.25
1435.628	2425.25
1440.333	2430.25
1445.032	2463.25
1449.727	2505.25
1454.418	2519.25
1459.104	2548.25
1463.785	2513.25
1468.462	2483.25
1473.134	2408.25
1477.802	2334.25
1482.465	2300.25
1487.123	2311.25
1491.777	2259.25
1496.426	2279.25
1501.071	2272.25
1505.711	2290.25
1510.347	2287.25
1514.978	2294.25
1519.604	2304.25
1524.226	2306.25
1528.844	2263.25
1533.457	2281.25
1538.065	2241.25
1542.669	2216.25
1547.269	2206.25
1551.864	2188.25
1556.454	2183.25
1561.041	2189.25
1565.622	2179.25
1570.199	2194.25
1574.772	2210.25
1579.34	2212.25
1583.904	2222.25
1588.464	2251.25
1593.019	2253.25
1597.569	2211.25
1602.115	2257.25
1606.657	2223.25
1611.195	2219.25
1615.728	2233.25
1620.256	2198.25
1624.78	2194.25
1629.3	2211.25
1633.816	2209.25
1638.327	2218.25
1642.834	2244.25
1647.336	2265.25
1651.834	2267.25
1656.328	2255.25
1660.817	2258.25
1665.302	2244.25
1669.783	2236.25
1674.259	2200.25
1678.732	2147.25
1683.199	2091.25
1687.663	2049.25
1692.122	1986.25
1696.577	1970.25
1701.028	1923.25
1705.474	1892.25
1709.917	1851.25
1714.355	1825.25
1718.788	1835.25
1723.218	1810.25
1727.643	1778.25
1732.064	1756.25
1736.481	1719.25
1740.893	1710.25
1745.301	1651.25
1749.705	1598.25
1754.105	1591.25
1758.501	1562.25
1762.893	1546.25
1767.28	1499.25
1771.663	1506.25
1776.042	1461.25
1780.417	1471.25
1784.787	1474.25
1789.154	1482.25
1793.516	1478.25
1797.874	1479.25
1802.228	1478.25
1806.578	1447.25
1810.924	1469.25
1815.266	1366.25
1819.603	1418.25
1823.937	1401.25
1828.266	1398.25
1832.591	1370.25
1836.913	1365.25
1841.23	1360.25
1845.543	1350.25
1849.852	1342.25
1854.156	1348.25
1858.457	1348.25
1862.754	1354.25
1867.047	1361.25
1871.335	1367.25
1875.62	1366.25
1879.9	1371.25
1884.177	1350.25
1888.449	1355.25
1892.718	1352.25
1896.982	1343.25
1901.243	1325.25
1905.499	1323.25
1909.752	1314.25
1914	1305.25
1918.245	1335.25
1922.485	1330.25
1926.722	1331.25
1930.954	1321.25
1935.183	1349.25
1939.408	1337.25
1943.628	1340.25
1947.845	1322.25
1952.058	1307.25
1956.267	1293.25
1960.472	1286.25
1964.673	1250.25
1968.87	1216.25
1973.063	1200.25
1977.252	1185.25
1981.438	1170.25
1985.619	1153.25
1989.797	1139.25
1993.971	1146.25
1998.14	1120.25
2002.306	1140.25
2006.469	1141.25
2010.627	1129.25
2014.781	1117.25
2018.932	1136.25
2023.078	1131.25
2027.221	1112.25
2031.36	1087.25
2035.495	1079.25
2039.627	1080.25
2043.754	1077.25
2047.878	1052.25
2051.998	1053.25
2056.114	1046.25
2060.226	1052.25
2064.334	1057.25
2068.439	1058.25
2072.54	1067.25
2076.637	1062.25
2080.73	1067.25
2084.82	1061.25
2088.906	1061.25
2092.988	1058.25
2097.066	1071.25
2101.14	1059.25
2105.211	1038.25
2109.278	1032.25
2113.342	1001.25
2117.401	998.25
2121.457	980.25
2125.509	970.25
2129.558	986.25
2133.602	965.25
2137.643	966.25
2141.681	953.25
2145.714	944.25
2149.744	938.25
2153.77	936.25
2157.793	910.25
2161.812	895.25
2165.827	874.25
2169.838	895.25
2173.846	877.25
2177.851	856.25
2181.851	856.25
2185.848	832.25
2189.841	822.25
2193.831	816.25
2197.817	804.25
2201.799	798.25
2205.778	781.25
2209.753	793.25
2213.725	773.25
2217.693	789.25
2221.657	789.25
2225.618	796.25
2229.575	788.25
2233.529	777.25
2237.479	772.25
2241.425	749.25
2245.368	735.25
2249.307	737.25
2253.243	715.25
2257.175	711.25
2261.104	692.25
2265.029	702.25
2268.95	689.25
2272.868	668.25
2276.783	667.25
2280.694	665.25
2284.601	640.25
2288.505	636.25
2292.405	641.25
2296.302	615.25
2300.195	616.25
2304.085	593.25
2307.971	603.25
2311.854	575.25
2315.734	589.25
2319.609	585.25
2323.482	551.25
2327.351	554.25
2331.216	550.25
2335.078	554.25
2338.937	558.25
2342.792	546.25
2346.643	547.25
2350.492	546.25
2354.336	540.25
2358.178	554.25
2362.015	549.25
2365.85	549.25
2369.681	549.25
2373.508	543.25
2377.333	552.25
2381.153	550.25
2384.971	541.25
2388.785	540.25
2392.595	521.25
2396.402	513.25
2400.206	500.25
2404.007	515.25
2407.804	518.25
2411.597	522.25
2415.388	506.25
2419.174	507.25
2422.958	511.25
2426.738	509.25
2430.515	507.25
2434.289	494.25
2438.059	486.25
2441.825	492.25
2445.589	498.25
2449.349	468.25
2453.106	487.25
2456.859	475.25
2460.61	468.25
2464.356	466.25
2468.1	463.25
2471.84	451.25
2475.577	455.25
2479.311	449.25
2483.041	459.25
2486.768	459.25
2490.492	458.25
2494.213	450.25
2497.93	441.25
2501.644	430.25
2505.355	445.25
2509.062	447.25
2512.766	435.25
2516.467	430.25
2520.165	428.25
2523.859	415.25
2527.551	443.25
2531.239	422.25
2534.923	426.25
2538.605	422.25
2542.283	426.25
2545.958	418.25
2549.63	427.25
2553.299	433.25
2556.964	412.25
2560.626	417.25
2564.285	408.25
2567.941	395.25
2571.594	390.25
2575.243	407.25
2578.89	391.25
2582.533	395.25
2586.173	387.25
2589.809	395.25
2593.443	369.25
2597.073	378.25
2600.701	380.25
2604.325	383.25
2607.946	358.25
2611.564	375.25
2615.178	371.25
2618.79	367.25
2622.398	360.25
2626.004	358.25
2629.606	358.25
2633.205	346.25
2636.801	355.25
2640.394	347.25
2643.983	342.25
2647.57	338.25
2651.153	336.25
2654.734	341.25
2658.311	311.25
2661.885	313.25
2665.456	317.25
2669.025	308.25
2672.589	302.25
2676.151	318.25
2679.71	325.25
2683.266	303.25
2686.819	292.25
2690.368	300.25
2693.915	305.25
2697.458	307.25
2700.999	295.25
2704.536	295.25
2708.071	285.25
2711.602	287.25
2715.13	287.25
2718.656	271.25
2722.178	278.25
2725.697	269.25
2729.214	280.25
2732.727	292.25
2736.237	263.25
2739.744	282.25
2743.249	274.25
2746.75	279.25
2750.248	274.25
2753.743	275.25
2757.236	282.25
2760.725	277.25
2764.211	252.25
2767.695	277.25
2771.175	273.25
2774.652	278.25
2778.127	265.25
2781.598	262.25
2785.067	262.25
2788.532	249.25
2791.995	270.25
2795.455	255.25
2798.911	266.25
2802.365	263.25
2805.816	273.25
2809.264	276.25
2812.709	262.25
2816.151	274.25
2819.59	259.25
2823.026	268.25
2826.46	263.25
2829.89	285.25
2833.318	257.25
2836.742	270.25
2840.164	283.25
2843.583	281.25
2846.999	283.25
2850.412	284.25
2853.822	278.25
2857.229	295.25
2860.634	297.25
2864.035	287.25
2867.434	310.25
2870.83	312.25
2874.223	308.25
2877.613	329.25
2881	324.25
2884.385	345.25
2887.766	337.25
2891.145	349.25
2894.521	341.25
2897.894	327.25
2901.264	348.25
2904.631	344.25
2907.996	349.25
2911.358	350.25
2914.717	333.25
2918.073	341.25
2921.426	341.25
2924.777	342.25
2928.124	368.25
2931.469	389.25
2934.811	384.25
2938.15	411.25
2941.487	400.25
2944.821	421.25
2948.152	397.25
2951.48	399.25
2954.805	376.25
2958.128	384.25
2961.447	373.25
2964.765	383.25
2968.079	365.25
2971.39	375.25
2974.699	374.25
2978.005	376.25
2981.308	374.25
2984.609	377.25
2987.907	395.25
2991.202	396.25
2994.494	378.25
2997.784	383.25
3001.07	389.25
3004.355	381.25
3007.636	383.25
3010.915	382.25
3014.191	370.25
3017.464	375.25
3020.734	376.25
3024.002	388.25
3027.267	388.25
3030.53	391.25
3033.789	390.25
3037.046	391.25
3040.301	384.25
3043.552	409.25
3046.801	419.25
3050.048	429.25
3053.291	440.25
3056.532	440.25
3059.771	426.25
3063.006	462.25
3066.239	472.25
3069.469	493.25
3072.697	482.25
3075.922	501.25
3079.144	503.25
3082.364	538.25
3085.581	532.25
3088.795	570.25
3092.007	563.25
3095.216	567.25
3098.423	574.25
3101.627	569.25
3104.828	589.25
3108.026	606.25
3111.222	626.25
3114.416	631.25
3117.607	641.25
3120.795	657.25
3123.98	663.25
3127.163	672.25
3130.344	687.25
3133.521	702.25
3136.696	735.25
3139.869	731.25
3143.039	734.25
3146.206	781.25
3149.371	781.25
3152.533	768.25
3155.693	765.25
3158.85	785.25
3162.005	784.25
3165.157	775.25
3168.306	779.25
3171.453	798.25
3174.597	791.25
3177.739	785.25
3180.878	806.25
3184.014	795.25
3187.149	811.25
3190.28	807.25
3193.409	803.25
3196.536	800.25
3199.659	828.25
3202.781	815.25
3205.9	804.25
3209.016	814.25
3212.13	818.25
3215.241	801.25
3218.35	797.25
3221.456	790.25
3224.56	780.25
3227.661	782.25
3230.76	774.25
3233.856	767.25
3236.95	778.25
3240.041	746.25
3243.13	763.25
3246.216	761.25
3249.3	758.25
3252.382	757.25
3255.46	746.25
3258.537	698.25
3261.611	728.25
3264.682	747.25
3267.751	742.25
3270.818	720.25
3273.882	735.25
3276.943	729.25
3280.002	720.25
3283.059	718.25
3286.113	708.25
3289.165	698.25
3292.214	683.25
3295.261	674.25
3298.306	654.25
3301.348	652.25
3304.387	635.25
3307.425	645.25
3310.459	629.25
3313.492	627.25
3316.521	620.25
3319.549	630.25
3322.574	620.25
3325.597	613.25
3328.617	589.25
3331.635	596.25
3334.65	587.25
3337.663	605.25
3340.674	586.25
3343.682	593.25
3346.688	594.25
3349.691	582.25
3352.692	590.25
3355.691	587.25
3358.687	590.25
3361.681	572.25
3364.673	579.25
3367.662	572.25
3370.649	565.25
3373.633	543.25
3376.615	545.25
3379.595	531.25
3382.572	533.25
3385.547	528.25
3388.52	512.25
3391.49	515.25
3394.458	512.25
3397.424	518.25
3400.387	490.25
3403.348	495.25
3406.307	492.25
3409.263	501.25
3412.217	490.25
3415.168	485.25
3418.118	484.25
3421.065	470.25
3424.009	479.25
3426.951	464.25
3429.891	446.25
3432.829	452.25
3435.764	441.25
3438.697	428.25
3441.628	434.25
3444.557	414.25
3447.483	403.25
3450.407	399.25
3453.328	386.25
3456.247	377.25
3459.164	358.25
3462.079	366.25
3464.991	353.25
3467.902	341.25
3470.809	324.25
3473.715	331.25
3476.618	317.25
3479.519	318.25
3482.418	287.25
3485.315	285.25
3488.209	284.25
3491.101	270.25
3493.99	257.25
3496.878	261.25
3499.763	257.25
3502.646	256.25
3505.527	246.25
3508.405	232.25
3511.281	209.25
3514.155	226.25
3517.027	209.25
3519.897	194.25
3522.764	202.25
3525.629	170.25
3528.492	181.25
3531.352	181.25
3534.211	168.25
3537.067	161.25
3539.921	154.25
3542.773	154.25
3545.622	134.25
3548.469	122.25
3551.315	115.25
3554.157	124.25
3556.998	109.25
3559.837	111.25
3562.673	114.25
3565.507	103.25
3568.339	88.25
3571.169	94.25
3573.996	87.25
3576.822	69.25
3579.645	78.25
3582.466	76.25
3585.285	80.25
3588.101	72.25
3590.916	58.25
3593.728	70.25
3596.538	61.25
3599.346	56.25
3602.152	51.25
3604.956	55.25
3607.757	57.25
3610.556	35.25
3613.354	54.25
3616.149	44.25
3618.942	49.25
3621.732	46.25
3624.521	29.25
3627.307	20.25
3630.092	28.25
3632.874	36.25
3635.654	28.25
3638.432	19.25
3641.208	10.25
3643.982	20.25
3646.753	22.25
3649.523	-6.75
3652.29	18.25
3655.055	20.25
3657.818	13.25
3660.579	7.25
3663.338	4.25
3666.095	2.25
3668.849	-22.75
3671.602	9.25
3674.352	-12.75
3677.101	7.25
3679.847	7.25
3682.591	-10.75
3685.333	-15.75
3688.073	-0.75
3690.811	-9.75
3693.547	-17.75
3696.281	-22.75
3699.013	-6.75
3701.742	-10.75
3704.47	-18.75
3707.195	-5.75
3709.919	-3.75
3712.64	-12.75
3715.359	-20.75
3718.076	1.25
3720.792	-14.75
3723.505	-11.75
3726.216	-4.75
3728.925	-16.75
3731.632	-21.75
3734.336	-17.75
3737.039	-16.75
3739.74	-11.75
3742.439	-38.75
3745.136	-7.75
3747.83	-15.75
3750.523	-15.75
3753.213	-78.75
3755.902	-21.75
3758.589	-34.75
3761.273	-20.75
3763.956	-15.75
3766.636	-30.75
3769.315	-12.75
3771.991	-21.75
3774.665	-22.75
3777.338	-20.75
3780.008	-32.75
3782.677	-27.75
3785.343	-36.75
3788.007	-40.75
3790.67	-12.75
3793.33	-32.75
3795.989	-28.75
3798.645	-22.75
3801.299	-37.75
3803.952	-32.75
3806.602	-26.75
3809.251	-18.75
3811.897	-25.75
3814.542	-23.75
3817.184	-26.75
3819.825	-27.75
3822.463	-42.75
3825.1	-28.75
3827.735	-22.75
3830.367	-35.75
3832.998	-14.75
3835.627	-25.75
3838.253	-17.75
3840.878	-30.75
3843.501	-10.75
3846.122	-22.75
3848.741	-19.75
3851.358	-19.75
3853.973	-32.75
3856.586	-18.75
3859.197	-33.75
3861.806	-25.75
3864.414	-38.75
3867.019	-24.75
3869.622	-10.75
3872.224	-13.75
3874.823	8.25
3877.421	46.25
3880.016	83.25
3882.61	141.25
3885.202	163.25
3887.792	131.25
3890.38	68.25
3892.966	9.25
3895.55	-12.75
3898.132	-12.75
3900.713	-18.75
3903.291	-22.75
3905.868	-29.75
3908.442	-26.75
3911.015	-26.75
3913.586	-35.75
3916.155	-30.75
3918.722	-35.75
3921.287	-34.75
3923.85	-44.75
3926.411	-33.75
3928.971	-31.75
3931.528	-22.75
3934.084	-32.75
3936.638	-42.75
3939.19	-28.75
3941.74	-25.75
3944.288	-31.75
3946.834	-32.75
3949.378	-22.75
3951.921	-36.75
3954.462	-30.75
3957	-23.75
3959.537	-17.75
3962.072	-31.75
3964.606	-44.75
3967.137	-32.75
3969.667	-33.75
3972.194	-20.75
3974.72	-34.75
3977.244	-54.75
3979.766	-30.75
3982.286	-35.75
3984.805	-24.75
3987.321	-18.75
3989.836	-22.75
3992.349	-30.75
3994.86	-29.75
3997.369	-34.75
3999.877	-25.75
4002.382	-27.75
4004.886	-25.75
4007.388	-29.75
4009.888	-18.75
4012.386	-15.75
4014.883	-19.75
4017.377	-29.75
4019.87	-20.75
4022.361	-35.75
4024.85	-24.75
4027.338	-28.75
4029.823	-31.75
4032.307	-25.75
4034.789	-29.75
4037.269	-25.75
4039.747	-40.75
4042.224	-20.75
4044.699	-34.75
4047.172	-31.75
4049.643	-20.75
4052.112	-51.75
4054.58	-22.75
4057.046	-39.75
4059.51	-28.75
4061.972	-27.75
4064.432	-44.75
4066.891	-11.75
4069.348	-25.75
4071.803	-22.75
4074.256	-30.75
4076.708	-19.75
4079.158	-27.75
4081.606	-14.75
4084.052	-28.75
4086.497	-23.75
4088.939	-26.75
4091.38	-27.75
4093.819	-23.75
4096.257	3.25
4098.693	-4.75
4101.127	-4.75
4103.559	3.25
4105.989	153.25
4108.418	147.25
4110.845	140.25
4113.27	143.25
4115.694	156.25
4118.115	151.25
4120.535	-23.75
4122.954	-16.75
4125.37	-9.75
4127.785	-23.75
4130.198	-16.75
4132.609	-21.75
4135.019	7.25
4137.427	-2.75
4139.833	4.25
4142.237	-5.75
