Data from 2018-3-6_conc=6_n=5_RamanShift_04.txt Node
Date: Tue Mar 06 15:07:18 GMT+02:00 2018
User: LAB3
Spectrometer: QEPB0276
Trigger mode: 0
Integration Time (sec): 3.000000E1
Scans to average: 1
Electric dark correction enabled: true
Nonlinearity correction enabled: false
Boxcar width: 0
XAxis mode: Raman Shifts
Number of Pixels in Spectrum: 1044
>>>>>Begin Spectral Data<<<<<
160.701	36.62
166.742	55.62
172.777	80.62
178.805	156.62
184.826	369.62
190.841	754.62
196.849	1187.62
202.85	1512.62
208.845	1610.62
214.833	1584.62
220.815	1541.62
226.789	1540.62
232.758	1529.62
238.719	1525.62
244.674	1483.62
250.623	1468.62
256.565	1455.62
262.5	1417.62
268.429	1398.62
274.351	1386.62
280.267	1386.62
286.176	1403.62
292.079	1382.62
297.975	1383.62
303.865	1360.62
309.748	1382.62
315.625	1376.62
321.495	1371.62
327.359	1348.62
333.217	1351.62
339.068	1337.62
344.912	1360.62
350.751	1360.62
356.583	1355.62
362.408	1373.62
368.227	1370.62
374.04	1379.62
379.847	1397.62
385.647	1387.62
391.44	1386.62
397.228	1383.62
403.009	1396.62
408.784	1384.62
414.553	1414.62
420.315	1416.62
426.071	1404.62
431.821	1425.62
437.565	1437.62
443.302	1416.62
449.033	1392.62
454.758	1404.62
460.477	1390.62
466.189	1369.62
471.896	1358.62
477.596	1354.62
483.29	1324.62
488.978	1331.62
494.66	1305.62
500.335	1280.62
506.005	1229.62
511.668	1180.62
517.325	1103.62
522.977	1045.62
528.622	1003.62
534.261	1004.62
539.894	975.62
545.521	963.62
551.141	943.62
556.756	935.62
562.365	930.62
567.968	909.62
573.565	904.62
579.155	917.62
584.74	903.62
590.319	921.62
595.892	916.62
601.459	913.62
607.02	916.62
612.575	895.62
618.124	902.62
623.667	863.62
629.204	858.62
634.735	840.62
640.261	832.62
645.781	802.62
651.294	816.62
656.802	816.62
662.304	829.62
667.8	827.62
673.29	804.62
678.775	813.62
684.254	816.62
689.726	786.62
695.193	805.62
700.655	792.62
706.11	786.62
711.56	787.62
717.004	781.62
722.442	747.62
727.874	774.62
733.301	778.62
738.722	763.62
744.137	770.62
749.547	755.62
754.951	767.62
760.349	762.62
765.741	775.62
771.128	775.62
776.509	779.62
781.885	813.62
787.254	805.62
792.618	801.62
797.977	810.62
803.33	801.62
808.677	799.62
814.019	789.62
819.355	778.62
824.686	776.62
830.011	763.62
835.33	767.62
840.644	777.62
845.952	743.62
851.255	766.62
856.552	751.62
861.844	743.62
867.13	723.62
872.41	712.62
877.686	710.62
882.955	710.62
888.219	705.62
893.478	689.62
898.731	684.62
903.979	667.62
909.221	672.62
914.458	662.62
919.69	667.62
924.916	660.62
930.136	660.62
935.351	653.62
940.561	666.62
945.766	656.62
950.965	668.62
956.158	651.62
961.347	647.62
966.529	647.62
971.707	637.62
976.879	634.62
982.046	612.62
987.208	609.62
992.364	622.62
997.515	625.62
1002.66	614.62
1007.801	604.62
1012.936	619.62
1018.066	612.62
1023.19	625.62
1028.309	626.62
1033.423	636.62
1038.532	636.62
1043.636	631.62
1048.734	631.62
1053.827	602.62
1058.915	604.62
1063.998	610.62
1069.075	605.62
1074.147	603.62
1079.214	580.62
1084.276	608.62
1089.333	604.62
1094.385	622.62
1099.431	596.62
1104.472	614.62
1109.509	593.62
1114.54	586.62
1119.565	570.62
1124.586	578.62
1129.602	552.62
1134.613	544.62
1139.618	545.62
1144.619	543.62
1149.614	558.62
1154.604	551.62
1159.589	546.62
1164.57	568.62
1169.545	583.62
1174.515	567.62
1179.48	551.62
1184.44	552.62
1189.395	562.62
1194.345	547.62
1199.29	550.62
1204.23	543.62
1209.165	523.62
1214.095	554.62
1219.021	532.62
1223.941	541.62
1228.856	540.62
1233.766	562.62
1238.672	566.62
1243.572	560.62
1248.467	564.62
1253.358	544.62
1258.244	524.62
1263.124	537.62
1268	527.62
1272.871	498.62
1277.737	512.62
1282.599	504.62
1287.455	488.62
1292.306	502.62
1297.153	488.62
1301.995	502.62
1306.832	498.62
1311.664	505.62
1316.491	509.62
1321.314	497.62
1326.132	489.62
1330.945	500.62
1335.753	483.62
1340.556	467.62
1345.354	465.62
1350.148	456.62
1354.937	468.62
1359.722	450.62
1364.501	449.62
1369.276	443.62
1374.046	454.62
1378.811	447.62
1383.572	444.62
1388.327	439.62
1393.079	429.62
1397.825	419.62
1402.567	429.62
1407.304	429.62
1412.036	413.62
1416.764	420.62
1421.487	414.62
1426.205	409.62
1430.919	417.62
1435.628	426.62
1440.333	422.62
1445.032	426.62
1449.727	432.62
1454.418	432.62
1459.104	433.62
1463.785	407.62
1468.462	421.62
1473.134	416.62
1477.802	408.62
1482.465	384.62
1487.123	401.62
1491.777	367.62
1496.426	380.62
1501.071	405.62
1505.711	389.62
1510.347	406.62
1514.978	405.62
1519.604	392.62
1524.226	409.62
1528.844	392.62
1533.457	392.62
1538.065	394.62
1542.669	389.62
1547.269	386.62
1551.864	386.62
1556.454	371.62
1561.041	379.62
1565.622	379.62
1570.199	386.62
1574.772	383.62
1579.34	384.62
1583.904	398.62
1588.464	411.62
1593.019	409.62
1597.569	389.62
1602.115	388.62
1606.657	391.62
1611.195	404.62
1615.728	401.62
1620.256	379.62
1624.78	363.62
1629.3	381.62
1633.816	386.62
1638.327	369.62
1642.834	393.62
1647.336	391.62
1651.834	401.62
1656.328	399.62
1660.817	394.62
1665.302	387.62
1669.783	380.62
1674.259	370.62
1678.732	360.62
1683.199	357.62
1687.663	334.62
1692.122	346.62
1696.577	340.62
1701.028	333.62
1705.474	314.62
1709.917	312.62
1714.355	311.62
1718.788	308.62
1723.218	296.62
1727.643	288.62
1732.064	288.62
1736.481	282.62
1740.893	296.62
1745.301	277.62
1749.705	247.62
1754.105	267.62
1758.501	257.62
1762.893	267.62
1767.28	236.62
1771.663	254.62
1776.042	244.62
1780.417	240.62
1784.787	245.62
1789.154	252.62
1793.516	250.62
1797.874	242.62
1802.228	233.62
1806.578	229.62
1810.924	231.62
1815.266	129.62
1819.603	238.62
1823.937	221.62
1828.266	222.62
1832.591	231.62
1836.913	227.62
1841.23	218.62
1845.543	219.62
1849.852	224.62
1854.156	215.62
1858.457	216.62
1862.754	211.62
1867.047	219.62
1871.335	227.62
1875.62	228.62
1879.9	226.62
1884.177	214.62
1888.449	222.62
1892.718	224.62
1896.982	222.62
1901.243	208.62
1905.499	210.62
1909.752	205.62
1914	187.62
1918.245	222.62
1922.485	222.62
1926.722	209.62
1930.954	191.62
1935.183	215.62
1939.408	216.62
1943.628	217.62
1947.845	207.62
1952.058	209.62
1956.267	195.62
1960.472	207.62
1964.673	197.62
1968.87	200.62
1973.063	195.62
1977.252	195.62
1981.438	188.62
1985.619	180.62
1989.797	172.62
1993.971	185.62
1998.14	193.62
2002.306	184.62
2006.469	196.62
2010.627	178.62
2014.781	184.62
2018.932	162.62
2023.078	190.62
2027.221	177.62
2031.36	173.62
2035.495	172.62
2039.627	175.62
2043.754	177.62
2047.878	164.62
2051.998	159.62
2056.114	162.62
2060.226	165.62
2064.334	169.62
2068.439	183.62
2072.54	171.62
2076.637	158.62
2080.73	164.62
2084.82	161.62
2088.906	161.62
2092.988	163.62
2097.066	171.62
2101.14	174.62
2105.211	179.62
2109.278	159.62
2113.342	162.62
2117.401	151.62
2121.457	145.62
2125.509	145.62
2129.558	152.62
2133.602	147.62
2137.643	149.62
2141.681	150.62
2145.714	143.62
2149.744	153.62
2153.77	145.62
2157.793	126.62
2161.812	111.62
2165.827	117.62
2169.838	140.62
2173.846	126.62
2177.851	128.62
2181.851	140.62
2185.848	124.62
2189.841	133.62
2193.831	122.62
2197.817	121.62
2201.799	129.62
2205.778	117.62
2209.753	107.62
2213.725	116.62
2217.693	124.62
2221.657	107.62
2225.618	121.62
2229.575	123.62
2233.529	126.62
2237.479	124.62
2241.425	112.62
2245.368	103.62
2249.307	108.62
2253.243	110.62
2257.175	113.62
2261.104	106.62
2265.029	108.62
2268.95	100.62
2272.868	98.62
2276.783	91.62
2280.694	103.62
2284.601	99.62
2288.505	94.62
2292.405	103.62
2296.302	79.62
2300.195	94.62
2304.085	71.62
2307.971	87.62
2311.854	65.62
2315.734	89.62
2319.609	92.62
2323.482	67.62
2327.351	77.62
2331.216	85.62
2335.078	89.62
2338.937	81.62
2342.792	76.62
2346.643	74.62
2350.492	79.62
2354.336	70.62
2358.178	83.62
2362.015	79.62
2365.85	75.62
2369.681	74.62
2373.508	75.62
2377.333	83.62
2381.153	76.62
2384.971	70.62
2388.785	78.62
2392.595	67.62
2396.402	64.62
2400.206	46.62
2404.007	65.62
2407.804	73.62
2411.597	72.62
2415.388	65.62
2419.174	65.62
2422.958	67.62
2426.738	66.62
2430.515	74.62
2434.289	59.62
2438.059	61.62
2441.825	59.62
2445.589	69.62
2449.349	46.62
2453.106	67.62
2456.859	63.62
2460.61	65.62
2464.356	54.62
2468.1	53.62
2471.84	54.62
2475.577	54.62
2479.311	55.62
2483.041	50.62
2486.768	63.62
2490.492	69.62
2494.213	52.62
2497.93	39.62
2501.644	42.62
2505.355	55.62
2509.062	54.62
2512.766	47.62
2516.467	44.62
2520.165	43.62
2523.859	38.62
2527.551	69.62
2531.239	35.62
2534.923	48.62
2538.605	41.62
2542.283	49.62
2545.958	53.62
2549.63	54.62
2553.299	52.62
2556.964	38.62
2560.626	47.62
2564.285	48.62
2567.941	30.62
2571.594	39.62
2575.243	44.62
2578.89	39.62
2582.533	42.62
2586.173	37.62
2589.809	42.62
2593.443	19.62
2597.073	41.62
2600.701	40.62
2604.325	41.62
2607.946	31.62
2611.564	41.62
2615.178	34.62
2618.79	34.62
2622.398	31.62
2626.004	35.62
2629.606	37.62
2633.205	24.62
2636.801	40.62
2640.394	39.62
2643.983	37.62
2647.57	30.62
2651.153	26.62
2654.734	42.62
2658.311	10.62
2661.885	22.62
2665.456	22.62
2669.025	26.62
2672.589	23.62
2676.151	38.62
2679.71	40.62
2683.266	30.62
2686.819	24.62
2690.368	31.62
2693.915	35.62
2697.458	30.62
2700.999	34.62
2704.536	28.62
2708.071	27.62
2711.602	24.62
2715.13	21.62
2718.656	4.62
2722.178	23.62
2725.697	5.62
2729.214	15.62
2732.727	20.62
2736.237	4.62
2739.744	18.62
2743.249	12.62
2746.75	20.62
2750.248	10.62
2753.743	26.62
2757.236	21.62
2760.725	25.62
2764.211	-8.38
2767.695	27.62
2771.175	18.62
2774.652	22.62
2778.127	14.62
2781.598	18.62
2785.067	21.62
2788.532	6.62
2791.995	17.62
2795.455	11.62
2798.911	22.62
2802.365	10.62
2805.816	20.62
2809.264	27.62
2812.709	10.62
2816.151	19.62
2819.59	10.62
2823.026	11.62
2826.46	6.62
2829.89	22.62
2833.318	-5.38
2836.742	13.62
2840.164	10.62
2843.583	10.62
2846.999	15.62
2850.412	17.62
2853.822	8.62
2857.229	25.62
2860.634	16.62
2864.035	0.62
2867.434	23.62
2870.83	23.62
2874.223	14.62
2877.613	15.62
2881	7.62
2884.385	15.62
2887.766	19.62
2891.145	15.62
2894.521	23.62
2897.894	7.62
2901.264	22.62
2904.631	16.62
2907.996	23.62
2911.358	28.62
2914.717	20.62
2918.073	14.62
2921.426	18.62
2924.777	1.62
2928.124	19.62
2931.469	33.62
2934.811	8.62
2938.15	34.62
2941.487	19.62
2944.821	35.62
2948.152	28.62
2951.48	37.62
2954.805	13.62
2958.128	40.62
2961.447	26.62
2964.765	41.62
2968.079	32.62
2971.39	29.62
2974.699	31.62
2978.005	30.62
2981.308	28.62
2984.609	18.62
2987.907	32.62
2991.202	40.62
2994.494	16.62
2997.784	35.62
3001.07	32.62
3004.355	28.62
3007.636	27.62
3010.915	31.62
3014.191	29.62
3017.464	35.62
3020.734	36.62
3024.002	37.62
3027.267	34.62
3030.53	34.62
3033.789	36.62
3037.046	39.62
3040.301	31.62
3043.552	45.62
3046.801	43.62
3050.048	47.62
3053.291	62.62
3056.532	51.62
3059.771	36.62
3063.006	56.62
3066.239	50.62
3069.469	62.62
3072.697	46.62
3075.922	46.62
3079.144	49.62
3082.364	77.62
3085.581	54.62
3088.795	75.62
3092.007	73.62
3095.216	76.62
3098.423	64.62
3101.627	48.62
3104.828	73.62
3108.026	65.62
3111.222	89.62
3114.416	93.62
3117.607	82.62
3120.795	77.62
3123.98	86.62
3127.163	75.62
3130.344	88.62
3133.521	81.62
3136.696	102.62
3139.869	94.62
3143.039	79.62
3146.206	115.62
3149.371	111.62
3152.533	107.62
3155.693	92.62
3158.85	105.62
3162.005	113.62
3165.157	106.62
3168.306	104.62
3171.453	117.62
3174.597	96.62
3177.739	98.62
3180.878	108.62
3184.014	117.62
3187.149	109.62
3190.28	107.62
3193.409	117.62
3196.536	109.62
3199.659	117.62
3202.781	111.62
3205.9	101.62
3209.016	115.62
3212.13	107.62
3215.241	103.62
3218.35	108.62
3221.456	104.62
3224.56	99.62
3227.661	104.62
3230.76	109.62
3233.856	94.62
3236.95	99.62
3240.041	89.62
3243.13	110.62
3246.216	104.62
3249.3	101.62
3252.382	102.62
3255.46	91.62
3258.537	51.62
3261.611	88.62
3264.682	94.62
3267.751	97.62
3270.818	81.62
3273.882	99.62
3276.943	95.62
3280.002	104.62
3283.059	85.62
3286.113	86.62
3289.165	79.62
3292.214	83.62
3295.261	92.62
3298.306	69.62
3301.348	89.62
3304.387	72.62
3307.425	81.62
3310.459	84.62
3313.492	92.62
3316.521	84.62
3319.549	88.62
3322.574	81.62
3325.597	83.62
3328.617	74.62
3331.635	73.62
3334.65	53.62
3337.663	71.62
3340.674	71.62
3343.682	76.62
3346.688	77.62
3349.691	65.62
3352.692	72.62
3355.691	77.62
3358.687	71.62
3361.681	75.62
3364.673	66.62
3367.662	78.62
3370.649	77.62
3373.633	63.62
3376.615	75.62
3379.595	52.62
3382.572	62.62
3385.547	53.62
3388.52	53.62
3391.49	59.62
3394.458	58.62
3397.424	68.62
3400.387	44.62
3403.348	56.62
3406.307	58.62
3409.263	58.62
3412.217	59.62
3415.168	53.62
3418.118	60.62
3421.065	52.62
3424.009	60.62
3426.951	47.62
3429.891	49.62
3432.829	47.62
3435.764	49.62
3438.697	35.62
3441.628	50.62
3444.557	34.62
3447.483	37.62
3450.407	45.62
3453.328	36.62
3456.247	35.62
3459.164	28.62
3462.079	41.62
3464.991	33.62
3467.902	32.62
3470.809	31.62
3473.715	32.62
3476.618	26.62
3479.519	23.62
3482.418	4.62
3485.315	14.62
3488.209	15.62
3491.101	12.62
3493.99	1.62
3496.878	9.62
3499.763	12.62
3502.646	15.62
3505.527	-0.38
3508.405	0.62
3511.281	-10.38
3514.155	6.62
3517.027	-1.38
3519.897	-8.38
3522.764	5.62
3525.629	-21.38
3528.492	-2.38
3531.352	4.62
3534.211	-4.38
3537.067	-3.38
3539.921	-6.38
3542.773	0.62
3545.622	-19.38
3548.469	-16.38
3551.315	-14.38
3554.157	-12.38
3556.998	-23.38
3559.837	-15.38
3562.673	-8.38
3565.507	-19.38
3568.339	-20.38
3571.169	-21.38
3573.996	-14.38
3576.822	-33.38
3579.645	-23.38
3582.466	-26.38
3585.285	-19.38
3588.101	-19.38
3590.916	-24.38
3593.728	-20.38
3596.538	-26.38
3599.346	-19.38
3602.152	-32.38
3604.956	-17.38
3607.757	-16.38
3610.556	-32.38
3613.354	-20.38
3616.149	-19.38
3618.942	-17.38
3621.732	-17.38
3624.521	-27.38
3627.307	-35.38
3630.092	-26.38
3632.874	-18.38
3635.654	-19.38
3638.432	-32.38
3641.208	-30.38
3643.982	-28.38
3646.753	-19.38
3649.523	-56.38
3652.29	-31.38
3655.055	-27.38
3657.818	-21.38
3660.579	-31.38
3663.338	-40.38
3666.095	-36.38
3668.849	-53.38
3671.602	-27.38
3674.352	-42.38
3677.101	-20.38
3679.847	-21.38
3682.591	-42.38
3685.333	-45.38
3688.073	-29.38
3690.811	-36.38
3693.547	-40.38
3696.281	-40.38
3699.013	-23.38
3701.742	-35.38
3704.47	-40.38
3707.195	-27.38
3709.919	-29.38
3712.64	-33.38
3715.359	-39.38
3718.076	-20.38
3720.792	-29.38
3723.505	-27.38
3726.216	-19.38
3728.925	-35.38
3731.632	-39.38
3734.336	-29.38
3737.039	-32.38
3739.74	-34.38
3742.439	-57.38
3745.136	-29.38
3747.83	-29.38
3750.523	-27.38
3753.213	-93.38
3755.902	-37.38
3758.589	-46.38
3761.273	-42.38
3763.956	-30.38
3766.636	-51.38
3769.315	-22.38
3771.991	-31.38
3774.665	-36.38
3777.338	-33.38
3780.008	-42.38
3782.677	-34.38
3785.343	-46.38
3788.007	-48.38
3790.67	-30.38
3793.33	-42.38
3795.989	-41.38
3798.645	-32.38
3801.299	-44.38
3803.952	-43.38
3806.602	-34.38
3809.251	-28.38
3811.897	-32.38
3814.542	-37.38
3817.184	-37.38
3819.825	-34.38
3822.463	-50.38
3825.1	-36.38
3827.735	-34.38
3830.367	-40.38
3832.998	-22.38
3835.627	-37.38
3838.253	-25.38
3840.878	-34.38
3843.501	-19.38
3846.122	-33.38
3848.741	-28.38
3851.358	-25.38
3853.973	-44.38
3856.586	-27.38
3859.197	-39.38
3861.806	-38.38
3864.414	-43.38
3867.019	-38.38
3869.622	-26.38
3872.224	-28.38
3874.823	-18.38
3877.421	-6.38
3880.016	1.62
3882.61	22.62
3885.202	29.62
3887.792	18.62
3890.38	-0.38
3892.966	-23.38
3895.55	-37.38
3898.132	-32.38
3900.713	-25.38
3903.291	-33.38
3905.868	-38.38
3908.442	-34.38
3911.015	-36.38
3913.586	-40.38
3916.155	-36.38
3918.722	-39.38
3921.287	-40.38
3923.85	-44.38
3926.411	-43.38
3928.971	-41.38
3931.528	-26.38
3934.084	-37.38
3936.638	-41.38
3939.19	-30.38
3941.74	-29.38
3944.288	-33.38
3946.834	-32.38
3949.378	-24.38
3951.921	-41.38
3954.462	-36.38
3957	-32.38
3959.537	-23.38
3962.072	-36.38
3964.606	-48.38
3967.137	-37.38
3969.667	-39.38
3972.194	-34.38
3974.72	-39.38
3977.244	-55.38
3979.766	-46.38
3982.286	-44.38
3984.805	-32.38
3987.321	-25.38
3989.836	-33.38
3992.349	-48.38
3994.86	-39.38
3997.369	-42.38
3999.877	-36.38
4002.382	-38.38
4004.886	-33.38
4007.388	-35.38
4009.888	-22.38
4012.386	-28.38
4014.883	-30.38
4017.377	-29.38
4019.87	-26.38
4022.361	-40.38
4024.85	-33.38
4027.338	-31.38
4029.823	-32.38
4032.307	-36.38
4034.789	-31.38
4037.269	-32.38
4039.747	-49.38
4042.224	-22.38
4044.699	-41.38
4047.172	-36.38
4049.643	-29.38
4052.112	-57.38
4054.58	-33.38
4057.046	-45.38
4059.51	-34.38
4061.972	-32.38
4064.432	-52.38
4066.891	-24.38
4069.348	-33.38
4071.803	-32.38
4074.256	-37.38
4076.708	-33.38
4079.158	-32.38
4081.606	-24.38
4084.052	-37.38
4086.497	-30.38
4088.939	-35.38
4091.38	-35.38
4093.819	-23.38
4096.257	0.62
4098.693	-7.38
4101.127	-4.38
4103.559	-1.38
4105.989	39.62
4108.418	47.62
4110.845	36.62
4113.27	43.62
4115.694	42.62
4118.115	33.62
4120.535	-28.38
4122.954	-24.38
4125.37	-24.38
4127.785	-28.38
4130.198	-22.38
4132.609	-28.38
4135.019	10.62
4137.427	-0.38
4139.833	2.62
4142.237	-0.38
