Data from 2018-3-6_conc=5_n=4_RamanShift_01.txt Node
Date: Tue Mar 06 14:31:48 GMT+02:00 2018
User: LAB3
Spectrometer: QEPB0276
Trigger mode: 0
Integration Time (sec): 3.000000E1
Scans to average: 1
Electric dark correction enabled: true
Nonlinearity correction enabled: false
Boxcar width: 0
XAxis mode: Raman Shifts
Number of Pixels in Spectrum: 1044
>>>>>Begin Spectral Data<<<<<
160.701	62.88
166.742	78.88
172.777	121.88
178.805	226.88
184.826	527.88
190.841	1044.88
196.849	1633.88
202.85	2041.88
208.845	2163.88
214.833	2138.88
220.815	2084.88
226.789	2081.88
232.758	2056.88
238.719	2038.88
244.674	2007.88
250.623	1991.88
256.565	1943.88
262.5	1921.88
268.429	1876.88
274.351	1861.88
280.267	1841.88
286.176	1842.88
292.079	1833.88
297.975	1826.88
303.865	1819.88
309.748	1815.88
315.625	1824.88
321.495	1807.88
327.359	1772.88
333.217	1781.88
339.068	1801.88
344.912	1810.88
350.751	1796.88
356.583	1797.88
362.408	1797.88
368.227	1829.88
374.04	1819.88
379.847	1802.88
385.647	1848.88
391.44	1841.88
397.228	1853.88
403.009	1865.88
408.784	1877.88
414.553	1880.88
420.315	1883.88
426.071	1860.88
431.821	1870.88
437.565	1889.88
443.302	1864.88
449.033	1848.88
454.758	1858.88
460.477	1841.88
466.189	1798.88
471.896	1786.88
477.596	1793.88
483.29	1776.88
488.978	1778.88
494.66	1740.88
500.335	1708.88
506.005	1624.88
511.668	1555.88
517.325	1455.88
522.977	1391.88
528.622	1354.88
534.261	1322.88
539.894	1302.88
545.521	1282.88
551.141	1251.88
556.756	1234.88
562.365	1233.88
567.968	1229.88
573.565	1187.88
579.155	1217.88
584.74	1202.88
590.319	1206.88
595.892	1190.88
601.459	1201.88
607.02	1192.88
612.575	1191.88
618.124	1188.88
623.667	1142.88
629.204	1131.88
634.735	1122.88
640.261	1099.88
645.781	1088.88
651.294	1070.88
656.802	1083.88
662.304	1094.88
667.8	1098.88
673.29	1076.88
678.775	1076.88
684.254	1050.88
689.726	1054.88
695.193	1065.88
700.655	1054.88
706.11	1031.88
711.56	1035.88
717.004	1028.88
722.442	1011.88
727.874	1019.88
733.301	1013.88
738.722	1004.88
744.137	1002.88
749.547	1008.88
754.951	995.88
760.349	997.88
765.741	1021.88
771.128	1018.88
776.509	1018.88
781.885	1050.88
787.254	1081.88
792.618	1061.88
797.977	1076.88
803.33	1051.88
808.677	1034.88
814.019	1035.88
819.355	1027.88
824.686	1020.88
830.011	1013.88
835.33	1017.88
840.644	1004.88
845.952	984.88
851.255	1000.88
856.552	979.88
861.844	975.88
867.13	945.88
872.41	941.88
877.686	953.88
882.955	934.88
888.219	926.88
893.478	899.88
898.731	900.88
903.979	885.88
909.221	877.88
914.458	859.88
919.69	868.88
924.916	875.88
930.136	875.88
935.351	873.88
940.561	885.88
945.766	883.88
950.965	881.88
956.158	852.88
961.347	861.88
966.529	823.88
971.707	852.88
976.879	828.88
982.046	808.88
987.208	802.88
992.364	795.88
997.515	804.88
1002.66	819.88
1007.801	814.88
1012.936	818.88
1018.066	820.88
1023.19	842.88
1028.309	838.88
1033.423	837.88
1038.532	841.88
1043.636	826.88
1048.734	815.88
1053.827	795.88
1058.915	789.88
1063.998	800.88
1069.075	798.88
1074.147	815.88
1079.214	791.88
1084.276	803.88
1089.333	799.88
1094.385	789.88
1099.431	788.88
1104.472	791.88
1109.509	764.88
1114.54	758.88
1119.565	758.88
1124.586	758.88
1129.602	747.88
1134.613	713.88
1139.618	715.88
1144.619	718.88
1149.614	740.88
1154.604	729.88
1159.589	731.88
1164.57	751.88
1169.545	760.88
1174.515	750.88
1179.48	745.88
1184.44	745.88
1189.395	745.88
1194.345	707.88
1199.29	733.88
1204.23	708.88
1209.165	702.88
1214.095	732.88
1219.021	708.88
1223.941	718.88
1228.856	731.88
1233.766	728.88
1238.672	733.88
1243.572	731.88
1248.467	737.88
1253.358	715.88
1258.244	690.88
1263.124	712.88
1268	701.88
1272.871	655.88
1277.737	673.88
1282.599	648.88
1287.455	659.88
1292.306	667.88
1297.153	654.88
1301.995	652.88
1306.832	655.88
1311.664	651.88
1316.491	661.88
1321.314	665.88
1326.132	656.88
1330.945	655.88
1335.753	634.88
1340.556	633.88
1345.354	621.88
1350.148	611.88
1354.937	609.88
1359.722	584.88
1364.501	579.88
1369.276	594.88
1374.046	612.88
1378.811	585.88
1383.572	585.88
1388.327	591.88
1393.079	561.88
1397.825	578.88
1402.567	576.88
1407.304	553.88
1412.036	568.88
1416.764	556.88
1421.487	542.88
1426.205	553.88
1430.919	560.88
1435.628	569.88
1440.333	546.88
1445.032	569.88
1449.727	565.88
1454.418	586.88
1459.104	574.88
1463.785	556.88
1468.462	566.88
1473.134	545.88
1477.802	549.88
1482.465	522.88
1487.123	521.88
1491.777	505.88
1496.426	495.88
1501.071	528.88
1505.711	499.88
1510.347	524.88
1514.978	521.88
1519.604	520.88
1524.226	533.88
1528.844	504.88
1533.457	526.88
1538.065	520.88
1542.669	513.88
1547.269	520.88
1551.864	513.88
1556.454	499.88
1561.041	496.88
1565.622	503.88
1570.199	514.88
1574.772	522.88
1579.34	529.88
1583.904	531.88
1588.464	539.88
1593.019	535.88
1597.569	523.88
1602.115	524.88
1606.657	524.88
1611.195	541.88
1615.728	537.88
1620.256	503.88
1624.78	494.88
1629.3	515.88
1633.816	523.88
1638.327	508.88
1642.834	512.88
1647.336	526.88
1651.834	537.88
1656.328	532.88
1660.817	524.88
1665.302	516.88
1669.783	505.88
1674.259	488.88
1678.732	483.88
1683.199	472.88
1687.663	453.88
1692.122	452.88
1696.577	441.88
1701.028	447.88
1705.474	422.88
1709.917	409.88
1714.355	407.88
1718.788	388.88
1723.218	384.88
1727.643	377.88
1732.064	390.88
1736.481	371.88
1740.893	384.88
1745.301	374.88
1749.705	342.88
1754.105	351.88
1758.501	337.88
1762.893	345.88
1767.28	303.88
1771.663	327.88
1776.042	313.88
1780.417	312.88
1784.787	321.88
1789.154	317.88
1793.516	319.88
1797.874	318.88
1802.228	308.88
1806.578	310.88
1810.924	311.88
1815.266	192.88
1819.603	307.88
1823.937	295.88
1828.266	299.88
1832.591	297.88
1836.913	295.88
1841.23	295.88
1845.543	286.88
1849.852	297.88
1854.156	286.88
1858.457	299.88
1862.754	286.88
1867.047	286.88
1871.335	304.88
1875.62	298.88
1879.9	293.88
1884.177	277.88
1888.449	286.88
1892.718	289.88
1896.982	289.88
1901.243	267.88
1905.499	276.88
1909.752	273.88
1914	254.88
1918.245	278.88
1922.485	280.88
1926.722	279.88
1930.954	269.88
1935.183	267.88
1939.408	279.88
1943.628	281.88
1947.845	276.88
1952.058	272.88
1956.267	257.88
1960.472	273.88
1964.673	264.88
1968.87	255.88
1973.063	246.88
1977.252	252.88
1981.438	248.88
1985.619	241.88
1989.797	233.88
1993.971	240.88
1998.14	255.88
2002.306	249.88
2006.469	241.88
2010.627	237.88
2014.781	238.88
2018.932	229.88
2023.078	248.88
2027.221	237.88
2031.36	227.88
2035.495	233.88
2039.627	230.88
2043.754	227.88
2047.878	224.88
2051.998	217.88
2056.114	217.88
2060.226	221.88
2064.334	221.88
2068.439	230.88
2072.54	226.88
2076.637	209.88
2080.73	215.88
2084.82	213.88
2088.906	208.88
2092.988	210.88
2097.066	215.88
2101.14	218.88
2105.211	221.88
2109.278	208.88
2113.342	198.88
2117.401	187.88
2121.457	184.88
2125.509	193.88
2129.558	196.88
2133.602	198.88
2137.643	195.88
2141.681	196.88
2145.714	194.88
2149.744	197.88
2153.77	189.88
2157.793	179.88
2161.812	156.88
2165.827	160.88
2169.838	189.88
2173.846	177.88
2177.851	170.88
2181.851	187.88
2185.848	182.88
2189.841	174.88
2193.831	162.88
2197.817	167.88
2201.799	171.88
2205.778	157.88
2209.753	158.88
2213.725	155.88
2217.693	149.88
2221.657	160.88
2225.618	163.88
2229.575	163.88
2233.529	161.88
2237.479	162.88
2241.425	148.88
2245.368	135.88
2249.307	152.88
2253.243	147.88
2257.175	150.88
2261.104	140.88
2265.029	147.88
2268.95	144.88
2272.868	132.88
2276.783	135.88
2280.694	139.88
2284.601	138.88
2288.505	136.88
2292.405	139.88
2296.302	119.88
2300.195	129.88
2304.085	99.88
2307.971	126.88
2311.854	108.88
2315.734	125.88
2319.609	116.88
2323.482	99.88
2327.351	112.88
2331.216	101.88
2335.078	112.88
2338.937	104.88
2342.792	100.88
2346.643	104.88
2350.492	113.88
2354.336	105.88
2358.178	115.88
2362.015	106.88
2365.85	107.88
2369.681	106.88
2373.508	116.88
2377.333	119.88
2381.153	111.88
2384.971	99.88
2388.785	108.88
2392.595	92.88
2396.402	101.88
2400.206	73.88
2404.007	93.88
2407.804	101.88
2411.597	98.88
2415.388	97.88
2419.174	90.88
2422.958	92.88
2426.738	93.88
2430.515	98.88
2434.289	84.88
2438.059	91.88
2441.825	89.88
2445.589	100.88
2449.349	79.88
2453.106	96.88
2456.859	84.88
2460.61	94.88
2464.356	76.88
2468.1	77.88
2471.84	71.88
2475.577	70.88
2479.311	77.88
2483.041	81.88
2486.768	94.88
2490.492	94.88
2494.213	81.88
2497.93	75.88
2501.644	64.88
2505.355	72.88
2509.062	79.88
2512.766	76.88
2516.467	77.88
2520.165	68.88
2523.859	63.88
2527.551	93.88
2531.239	59.88
2534.923	75.88
2538.605	66.88
2542.283	76.88
2545.958	68.88
2549.63	78.88
2553.299	78.88
2556.964	61.88
2560.626	65.88
2564.285	73.88
2567.941	58.88
2571.594	59.88
2575.243	73.88
2578.89	58.88
2582.533	61.88
2586.173	62.88
2589.809	69.88
2593.443	35.88
2597.073	59.88
2600.701	61.88
2604.325	57.88
2607.946	42.88
2611.564	67.88
2615.178	59.88
2618.79	58.88
2622.398	51.88
2626.004	63.88
2629.606	64.88
2633.205	49.88
2636.801	62.88
2640.394	57.88
2643.983	48.88
2647.57	52.88
2651.153	43.88
2654.734	59.88
2658.311	31.88
2661.885	44.88
2665.456	41.88
2669.025	44.88
2672.589	47.88
2676.151	61.88
2679.71	63.88
2683.266	47.88
2686.819	43.88
2690.368	49.88
2693.915	51.88
2697.458	53.88
2700.999	51.88
2704.536	47.88
2708.071	43.88
2711.602	44.88
2715.13	36.88
2718.656	25.88
2722.178	41.88
2725.697	27.88
2729.214	33.88
2732.727	36.88
2736.237	27.88
2739.744	34.88
2743.249	35.88
2746.75	39.88
2750.248	28.88
2753.743	34.88
2757.236	38.88
2760.725	46.88
2764.211	4.88
2767.695	40.88
2771.175	31.88
2774.652	36.88
2778.127	32.88
2781.598	38.88
2785.067	38.88
2788.532	23.88
2791.995	35.88
2795.455	31.88
2798.911	41.88
2802.365	27.88
2805.816	34.88
2809.264	43.88
2812.709	27.88
2816.151	35.88
2819.59	26.88
2823.026	27.88
2826.46	21.88
2829.89	38.88
2833.318	13.88
2836.742	29.88
2840.164	29.88
2843.583	28.88
2846.999	30.88
2850.412	34.88
2853.822	24.88
2857.229	42.88
2860.634	34.88
2864.035	17.88
2867.434	39.88
2870.83	44.88
2874.223	32.88
2877.613	36.88
2881	21.88
2884.385	27.88
2887.766	29.88
2891.145	30.88
2894.521	31.88
2897.894	21.88
2901.264	40.88
2904.631	40.88
2907.996	36.88
2911.358	47.88
2914.717	42.88
2918.073	36.88
2921.426	33.88
2924.777	20.88
2928.124	31.88
2931.469	52.88
2934.811	29.88
2938.15	54.88
2941.487	42.88
2944.821	55.88
2948.152	43.88
2951.48	53.88
2954.805	36.88
2958.128	59.88
2961.447	46.88
2964.765	63.88
2968.079	41.88
2971.39	52.88
2974.699	49.88
2978.005	57.88
2981.308	50.88
2984.609	43.88
2987.907	60.88
2991.202	57.88
2994.494	42.88
2997.784	60.88
3001.07	53.88
3004.355	52.88
3007.636	53.88
3010.915	56.88
3014.191	52.88
3017.464	67.88
3020.734	56.88
3024.002	64.88
3027.267	58.88
3030.53	66.88
3033.789	62.88
3037.046	62.88
3040.301	55.88
3043.552	68.88
3046.801	68.88
3050.048	81.88
3053.291	88.88
3056.532	73.88
3059.771	62.88
3063.006	87.88
3066.239	70.88
3069.469	80.88
3072.697	83.88
3075.922	75.88
3079.144	81.88
3082.364	108.88
3085.581	86.88
3088.795	113.88
3092.007	105.88
3095.216	104.88
3098.423	101.88
3101.627	85.88
3104.828	109.88
3108.026	107.88
3111.222	125.88
3114.416	129.88
3117.607	121.88
3120.795	121.88
3123.98	125.88
3127.163	119.88
3130.344	118.88
3133.521	130.88
3136.696	145.88
3139.869	136.88
3143.039	118.88
3146.206	155.88
3149.371	153.88
3152.533	150.88
3155.693	135.88
3158.85	153.88
3162.005	156.88
3165.157	154.88
3168.306	151.88
3171.453	161.88
3174.597	142.88
3177.739	146.88
3180.878	156.88
3184.014	159.88
3187.149	166.88
3190.28	162.88
3193.409	161.88
3196.536	167.88
3199.659	170.88
3202.781	164.88
3205.9	159.88
3209.016	163.88
3212.13	160.88
3215.241	159.88
3218.35	151.88
3221.456	147.88
3224.56	148.88
3227.661	150.88
3230.76	151.88
3233.856	137.88
3236.95	149.88
3240.041	135.88
3243.13	150.88
3246.216	144.88
3249.3	147.88
3252.382	147.88
3255.46	135.88
3258.537	94.88
3261.611	130.88
3264.682	137.88
3267.751	139.88
3270.818	127.88
3273.882	139.88
3276.943	137.88
3280.002	148.88
3283.059	125.88
3286.113	138.88
3289.165	128.88
3292.214	126.88
3295.261	137.88
3298.306	118.88
3301.348	123.88
3304.387	117.88
3307.425	128.88
3310.459	119.88
3313.492	132.88
3316.521	117.88
3319.549	131.88
3322.574	125.88
3325.597	115.88
3328.617	114.88
3331.635	114.88
3334.65	96.88
3337.663	113.88
3340.674	108.88
3343.682	100.88
3346.688	114.88
3349.691	113.88
3352.692	110.88
3355.691	115.88
3358.687	111.88
3361.681	114.88
3364.673	105.88
3367.662	112.88
3370.649	111.88
3373.633	93.88
3376.615	109.88
3379.595	86.88
3382.572	90.88
3385.547	96.88
3388.52	86.88
3391.49	87.88
3394.458	91.88
3397.424	95.88
3400.387	77.88
3403.348	93.88
3406.307	90.88
3409.263	88.88
3412.217	90.88
3415.168	88.88
3418.118	96.88
3421.065	76.88
3424.009	97.88
3426.951	78.88
3429.891	74.88
3432.829	75.88
3435.764	78.88
3438.697	67.88
3441.628	80.88
3444.557	61.88
3447.483	53.88
3450.407	76.88
3453.328	61.88
3456.247	60.88
3459.164	52.88
3462.079	66.88
3464.991	54.88
3467.902	51.88
3470.809	54.88
3473.715	52.88
3476.618	43.88
3479.519	48.88
3482.418	25.88
3485.315	31.88
3488.209	36.88
3491.101	39.88
3493.99	20.88
3496.878	28.88
3499.763	31.88
3502.646	36.88
3505.527	19.88
3508.405	20.88
3511.281	11.88
3514.155	23.88
3517.027	17.88
3519.897	7.88
3522.764	15.88
3525.629	-2.12
3528.492	16.88
3531.352	10.88
3534.211	12.88
3537.067	3.88
3539.921	2.88
3542.773	11.88
3545.622	-3.12
3548.469	-7.12
3551.315	-9.12
3554.157	2.88
3556.998	-8.12
3559.837	-3.12
3562.673	2.88
3565.507	-13.12
3568.339	-16.12
3571.169	-8.12
3573.996	-12.12
3576.822	-25.12
3579.645	-18.12
3582.466	-15.12
3585.285	-9.12
3588.101	-11.12
3590.916	-16.12
3593.728	-8.12
3596.538	-19.12
3599.346	-10.12
3602.152	-24.12
3604.956	-16.12
3607.757	-9.12
3610.556	-28.12
3613.354	-11.12
3616.149	-13.12
3618.942	-13.12
3621.732	-14.12
3624.521	-27.12
3627.307	-24.12
3630.092	-31.12
3632.874	-7.12
3635.654	-19.12
3638.432	-22.12
3641.208	-23.12
3643.982	-22.12
3646.753	-12.12
3649.523	-45.12
3652.29	-26.12
3655.055	-23.12
3657.818	-21.12
3660.579	-31.12
3663.338	-33.12
3666.095	-29.12
3668.849	-56.12
3671.602	-23.12
3674.352	-36.12
3677.101	-21.12
3679.847	-24.12
3682.591	-36.12
3685.333	-42.12
3688.073	-23.12
3690.811	-37.12
3693.547	-38.12
3696.281	-42.12
3699.013	-32.12
3701.742	-36.12
3704.47	-39.12
3707.195	-30.12
3709.919	-25.12
3712.64	-31.12
3715.359	-43.12
3718.076	-23.12
3720.792	-31.12
3723.505	-26.12
3726.216	-19.12
3728.925	-33.12
3731.632	-40.12
3734.336	-32.12
3737.039	-33.12
3739.74	-33.12
3742.439	-53.12
3745.136	-29.12
3747.83	-28.12
3750.523	-27.12
3753.213	-87.12
3755.902	-39.12
3758.589	-47.12
3761.273	-31.12
3763.956	-26.12
3766.636	-47.12
3769.315	-24.12
3771.991	-34.12
3774.665	-34.12
3777.338	-39.12
3780.008	-43.12
3782.677	-37.12
3785.343	-51.12
3788.007	-48.12
3790.67	-27.12
3793.33	-48.12
3795.989	-36.12
3798.645	-30.12
3801.299	-47.12
3803.952	-44.12
3806.602	-42.12
3809.251	-32.12
3811.897	-33.12
3814.542	-38.12
3817.184	-40.12
3819.825	-38.12
3822.463	-47.12
3825.1	-36.12
3827.735	-35.12
3830.367	-42.12
3832.998	-27.12
3835.627	-38.12
3838.253	-27.12
3840.878	-36.12
3843.501	-24.12
3846.122	-32.12
3848.741	-31.12
3851.358	-27.12
3853.973	-44.12
3856.586	-26.12
3859.197	-38.12
3861.806	-35.12
3864.414	-48.12
3867.019	-34.12
3869.622	-23.12
3872.224	-24.12
3874.823	-17.12
3877.421	2.88
3880.016	19.88
3882.61	53.88
3885.202	64.88
3887.792	39.88
3890.38	15.88
3892.966	-16.12
3895.55	-34.12
3898.132	-28.12
3900.713	-25.12
3903.291	-32.12
3905.868	-45.12
3908.442	-35.12
3911.015	-34.12
3913.586	-39.12
3916.155	-37.12
3918.722	-38.12
3921.287	-40.12
3923.85	-49.12
3926.411	-40.12
3928.971	-39.12
3931.528	-31.12
3934.084	-35.12
3936.638	-45.12
3939.19	-31.12
3941.74	-34.12
3944.288	-38.12
3946.834	-34.12
3949.378	-29.12
3951.921	-39.12
3954.462	-38.12
3957	-33.12
3959.537	-18.12
3962.072	-33.12
3964.606	-48.12
3967.137	-35.12
3969.667	-40.12
3972.194	-31.12
3974.72	-37.12
3977.244	-57.12
3979.766	-41.12
3982.286	-43.12
3984.805	-34.12
3987.321	-25.12
3989.836	-28.12
3992.349	-44.12
3994.86	-29.12
3997.369	-45.12
3999.877	-38.12
4002.382	-33.12
4004.886	-31.12
4007.388	-38.12
4009.888	-23.12
4012.386	-24.12
4014.883	-30.12
4017.377	-33.12
4019.87	-29.12
4022.361	-45.12
4024.85	-35.12
4027.338	-30.12
4029.823	-39.12
4032.307	-33.12
4034.789	-35.12
4037.269	-33.12
4039.747	-47.12
4042.224	-24.12
4044.699	-42.12
4047.172	-36.12
4049.643	-27.12
4052.112	-55.12
4054.58	-34.12
4057.046	-45.12
4059.51	-36.12
4061.972	-37.12
4064.432	-52.12
4066.891	-22.12
4069.348	-34.12
4071.803	-30.12
4074.256	-39.12
4076.708	-31.12
4079.158	-37.12
4081.606	-23.12
4084.052	-38.12
4086.497	-33.12
4088.939	-36.12
4091.38	-37.12
4093.819	-29.12
4096.257	3.88
4098.693	-5.12
4101.127	-4.12
4103.559	-0.12
4105.989	70.88
4108.418	77.88
4110.845	58.88
4113.27	67.88
4115.694	69.88
4118.115	55.88
4120.535	-30.12
4122.954	-29.12
4125.37	-24.12
4127.785	-31.12
4130.198	-26.12
4132.609	-30.12
4135.019	9.88
4137.427	-4.12
4139.833	4.88
4142.237	-5.12
