Data from 2018-3-6_conc=3_n=5_RamanShift_01.txt Node
Date: Tue Mar 06 13:26:19 GMT+02:00 2018
User: LAB3
Spectrometer: QEPB0276
Trigger mode: 0
Integration Time (sec): 3.000000E1
Scans to average: 1
Electric dark correction enabled: true
Nonlinearity correction enabled: false
Boxcar width: 0
XAxis mode: Raman Shifts
Number of Pixels in Spectrum: 1044
>>>>>Begin Spectral Data<<<<<
160.701	144.88
166.742	180.88
172.777	265.88
178.805	510.88
184.826	1164.88
190.841	2313.88
196.849	3652.88
202.85	4690.88
208.845	5087.88
214.833	5083.88
220.815	5051.88
226.789	5056.88
232.758	5061.88
238.719	5095.88
244.674	5034.88
250.623	5028.88
256.565	4984.88
262.5	4932.88
268.429	4907.88
274.351	4886.88
280.267	4900.88
286.176	4935.88
292.079	4900.88
297.975	4916.88
303.865	4901.88
309.748	4945.88
315.625	4941.88
321.495	4944.88
327.359	4953.88
333.217	4939.88
339.068	4987.88
344.912	5025.88
350.751	5024.88
356.583	5063.88
362.408	5087.88
368.227	5117.88
374.04	5122.88
379.847	5148.88
385.647	5178.88
391.44	5178.88
397.228	5195.88
403.009	5247.88
408.784	5299.88
414.553	5319.88
420.315	5331.88
426.071	5302.88
431.821	5316.88
437.565	5332.88
443.302	5297.88
449.033	5257.88
454.758	5268.88
460.477	5198.88
466.189	5200.88
471.896	5096.88
477.596	5064.88
483.29	5051.88
488.978	5022.88
494.66	5005.88
500.335	4863.88
506.005	4654.88
511.668	4436.88
517.325	4211.88
522.977	4065.88
528.622	3919.88
534.261	3834.88
539.894	3742.88
545.521	3705.88
551.141	3643.88
556.756	3586.88
562.365	3578.88
567.968	3541.88
573.565	3510.88
579.155	3495.88
584.74	3460.88
590.319	3477.88
595.892	3472.88
601.459	3477.88
607.02	3450.88
612.575	3433.88
618.124	3380.88
623.667	3323.88
629.204	3287.88
634.735	3228.88
640.261	3216.88
645.781	3153.88
651.294	3177.88
656.802	3168.88
662.304	3173.88
667.8	3163.88
673.29	3130.88
678.775	3135.88
684.254	3117.88
689.726	3071.88
695.193	3063.88
700.655	3075.88
706.11	3037.88
711.56	3015.88
717.004	3026.88
722.442	2983.88
727.874	3006.88
733.301	2984.88
738.722	2943.88
744.137	2946.88
749.547	2953.88
754.951	2953.88
760.349	2952.88
765.741	2967.88
771.128	2990.88
776.509	3003.88
781.885	3079.88
787.254	3087.88
792.618	3117.88
797.977	3109.88
803.33	3088.88
808.677	3069.88
814.019	3046.88
819.355	3015.88
824.686	2983.88
830.011	2979.88
835.33	2963.88
840.644	2932.88
845.952	2913.88
851.255	2924.88
856.552	2885.88
861.844	2850.88
867.13	2786.88
872.41	2773.88
877.686	2759.88
882.955	2727.88
888.219	2706.88
893.478	2668.88
898.731	2643.88
903.979	2616.88
909.221	2564.88
914.458	2561.88
919.69	2562.88
924.916	2580.88
930.136	2582.88
935.351	2544.88
940.561	2570.88
945.766	2571.88
950.965	2565.88
956.158	2542.88
961.347	2481.88
966.529	2480.88
971.707	2457.88
976.879	2410.88
982.046	2389.88
987.208	2375.88
992.364	2377.88
997.515	2383.88
1002.66	2415.88
1007.801	2419.88
1012.936	2450.88
1018.066	2442.88
1023.19	2468.88
1028.309	2473.88
1033.423	2454.88
1038.532	2462.88
1043.636	2433.88
1048.734	2418.88
1053.827	2398.88
1058.915	2382.88
1063.998	2374.88
1069.075	2342.88
1074.147	2376.88
1079.214	2352.88
1084.276	2376.88
1089.333	2380.88
1094.385	2397.88
1099.431	2376.88
1104.472	2377.88
1109.509	2325.88
1114.54	2310.88
1119.565	2260.88
1124.586	2243.88
1129.602	2212.88
1134.613	2168.88
1139.618	2169.88
1144.619	2170.88
1149.614	2178.88
1154.604	2184.88
1159.589	2198.88
1164.57	2224.88
1169.545	2232.88
1174.515	2229.88
1179.48	2216.88
1184.44	2185.88
1189.395	2170.88
1194.345	2132.88
1199.29	2142.88
1204.23	2139.88
1209.165	2122.88
1214.095	2154.88
1219.021	2154.88
1223.941	2155.88
1228.856	2172.88
1233.766	2184.88
1238.672	2178.88
1243.572	2177.88
1248.467	2149.88
1253.358	2124.88
1258.244	2065.88
1263.124	2063.88
1268	2041.88
1272.871	1991.88
1277.737	1965.88
1282.599	1953.88
1287.455	1972.88
1292.306	1974.88
1297.153	1964.88
1301.995	1991.88
1306.832	1983.88
1311.664	1997.88
1316.491	1975.88
1321.314	1991.88
1326.132	1946.88
1330.945	1947.88
1335.753	1913.88
1340.556	1860.88
1345.354	1838.88
1350.148	1816.88
1354.937	1805.88
1359.722	1772.88
1364.501	1770.88
1369.276	1776.88
1374.046	1765.88
1378.811	1756.88
1383.572	1761.88
1388.327	1769.88
1393.079	1741.88
1397.825	1703.88
1402.567	1700.88
1407.304	1706.88
1412.036	1678.88
1416.764	1685.88
1421.487	1692.88
1426.205	1652.88
1430.919	1685.88
1435.628	1689.88
1440.333	1685.88
1445.032	1721.88
1449.727	1714.88
1454.418	1726.88
1459.104	1705.88
1463.785	1695.88
1468.462	1678.88
1473.134	1658.88
1477.802	1633.88
1482.465	1576.88
1487.123	1581.88
1491.777	1552.88
1496.426	1544.88
1501.071	1574.88
1505.711	1575.88
1510.347	1595.88
1514.978	1599.88
1519.604	1591.88
1524.226	1612.88
1528.844	1573.88
1533.457	1566.88
1538.065	1564.88
1542.669	1552.88
1547.269	1542.88
1551.864	1552.88
1556.454	1505.88
1561.041	1525.88
1565.622	1524.88
1570.199	1542.88
1574.772	1551.88
1579.34	1557.88
1583.904	1580.88
1588.464	1585.88
1593.019	1603.88
1597.569	1572.88
1602.115	1572.88
1606.657	1565.88
1611.195	1575.88
1615.728	1566.88
1620.256	1557.88
1624.78	1515.88
1629.3	1564.88
1633.816	1562.88
1638.327	1567.88
1642.834	1582.88
1647.336	1578.88
1651.834	1609.88
1656.328	1581.88
1660.817	1593.88
1665.302	1572.88
1669.783	1529.88
1674.259	1519.88
1678.732	1502.88
1683.199	1457.88
1687.663	1407.88
1692.122	1392.88
1696.577	1338.88
1701.028	1346.88
1705.474	1289.88
1709.917	1280.88
1714.355	1267.88
1718.788	1265.88
1723.218	1224.88
1727.643	1227.88
1732.064	1218.88
1736.481	1172.88
1740.893	1172.88
1745.301	1142.88
1749.705	1088.88
1754.105	1099.88
1758.501	1057.88
1762.893	1068.88
1767.28	1027.88
1771.663	1027.88
1776.042	1016.88
1780.417	993.88
1784.787	1021.88
1789.154	1012.88
1793.516	1002.88
1797.874	1011.88
1802.228	1003.88
1806.578	989.88
1810.924	998.88
1815.266	876.88
1819.603	990.88
1823.937	953.88
1828.266	963.88
1832.591	949.88
1836.913	939.88
1841.23	931.88
1845.543	925.88
1849.852	922.88
1854.156	923.88
1858.457	913.88
1862.754	924.88
1867.047	919.88
1871.335	941.88
1875.62	938.88
1879.9	940.88
1884.177	926.88
1888.449	911.88
1892.718	924.88
1896.982	914.88
1901.243	897.88
1905.499	894.88
1909.752	886.88
1914	873.88
1918.245	898.88
1922.485	889.88
1926.722	900.88
1930.954	895.88
1935.183	908.88
1939.408	915.88
1943.628	895.88
1947.845	902.88
1952.058	881.88
1956.267	864.88
1960.472	869.88
1964.673	845.88
1968.87	834.88
1973.063	818.88
1977.252	815.88
1981.438	796.88
1985.619	791.88
1989.797	780.88
1993.971	776.88
1998.14	790.88
2002.306	780.88
2006.469	788.88
2010.627	768.88
2014.781	756.88
2018.932	760.88
2023.078	776.88
2027.221	768.88
2031.36	743.88
2035.495	749.88
2039.627	737.88
2043.754	741.88
2047.878	710.88
2051.998	714.88
2056.114	712.88
2060.226	701.88
2064.334	722.88
2068.439	730.88
2072.54	744.88
2076.637	706.88
2080.73	715.88
2084.82	719.88
2088.906	710.88
2092.988	720.88
2097.066	718.88
2101.14	720.88
2105.211	703.88
2109.278	688.88
2113.342	688.88
2117.401	673.88
2121.457	677.88
2125.509	656.88
2129.558	668.88
2133.602	650.88
2137.643	654.88
2141.681	645.88
2145.714	649.88
2149.744	649.88
2153.77	640.88
2157.793	611.88
2161.812	604.88
2165.827	593.88
2169.838	615.88
2173.846	596.88
2177.851	576.88
2181.851	597.88
2185.848	573.88
2189.841	564.88
2193.831	561.88
2197.817	546.88
2201.799	547.88
2205.778	544.88
2209.753	532.88
2213.725	526.88
2217.693	538.88
2221.657	535.88
2225.618	543.88
2229.575	539.88
2233.529	522.88
2237.479	530.88
2241.425	507.88
2245.368	503.88
2249.307	502.88
2253.243	496.88
2257.175	494.88
2261.104	472.88
2265.029	475.88
2268.95	461.88
2272.868	471.88
2276.783	450.88
2280.694	449.88
2284.601	441.88
2288.505	432.88
2292.405	445.88
2296.302	417.88
2300.195	427.88
2304.085	389.88
2307.971	415.88
2311.854	395.88
2315.734	402.88
2319.609	399.88
2323.482	372.88
2327.351	378.88
2331.216	378.88
2335.078	386.88
2338.937	386.88
2342.792	373.88
2346.643	361.88
2350.492	380.88
2354.336	370.88
2358.178	380.88
2362.015	376.88
2365.85	369.88
2369.681	376.88
2373.508	373.88
2377.333	386.88
2381.153	374.88
2384.971	375.88
2388.785	373.88
2392.595	359.88
2396.402	352.88
2400.206	328.88
2404.007	348.88
2407.804	352.88
2411.597	358.88
2415.388	349.88
2419.174	344.88
2422.958	341.88
2426.738	346.88
2430.515	339.88
2434.289	333.88
2438.059	334.88
2441.825	343.88
2445.589	339.88
2449.349	318.88
2453.106	332.88
2456.859	326.88
2460.61	327.88
2464.356	307.88
2468.1	298.88
2471.84	305.88
2475.577	309.88
2479.311	303.88
2483.041	298.88
2486.768	321.88
2490.492	308.88
2494.213	310.88
2497.93	291.88
2501.644	281.88
2505.355	300.88
2509.062	303.88
2512.766	300.88
2516.467	286.88
2520.165	290.88
2523.859	277.88
2527.551	305.88
2531.239	279.88
2534.923	286.88
2538.605	275.88
2542.283	287.88
2545.958	282.88
2549.63	291.88
2553.299	288.88
2556.964	276.88
2560.626	271.88
2564.285	273.88
2567.941	259.88
2571.594	267.88
2575.243	269.88
2578.89	254.88
2582.533	261.88
2586.173	259.88
2589.809	261.88
2593.443	235.88
2597.073	252.88
2600.701	254.88
2604.325	248.88
2607.946	245.88
2611.564	253.88
2615.178	246.88
2618.79	246.88
2622.398	231.88
2626.004	251.88
2629.606	241.88
2633.205	227.88
2636.801	238.88
2640.394	237.88
2643.983	229.88
2647.57	221.88
2651.153	218.88
2654.734	225.88
2658.311	205.88
2661.885	211.88
2665.456	218.88
2669.025	218.88
2672.589	208.88
2676.151	225.88
2679.71	219.88
2683.266	201.88
2686.819	196.88
2690.368	202.88
2693.915	199.88
2697.458	205.88
2700.999	198.88
2704.536	205.88
2708.071	184.88
2711.602	193.88
2715.13	194.88
2718.656	167.88
2722.178	180.88
2725.697	174.88
2729.214	180.88
2732.727	189.88
2736.237	161.88
2739.744	174.88
2743.249	173.88
2746.75	175.88
2750.248	174.88
2753.743	178.88
2757.236	176.88
2760.725	184.88
2764.211	155.88
2767.695	177.88
2771.175	181.88
2774.652	178.88
2778.127	171.88
2781.598	168.88
2785.067	175.88
2788.532	168.88
2791.995	170.88
2795.455	160.88
2798.911	178.88
2802.365	169.88
2805.816	172.88
2809.264	175.88
2812.709	172.88
2816.151	173.88
2819.59	156.88
2823.026	167.88
2826.46	165.88
2829.89	176.88
2833.318	156.88
2836.742	166.88
2840.164	170.88
2843.583	174.88
2846.999	180.88
2850.412	175.88
2853.822	170.88
2857.229	180.88
2860.634	183.88
2864.035	166.88
2867.434	190.88
2870.83	185.88
2874.223	188.88
2877.613	187.88
2881	179.88
2884.385	194.88
2887.766	190.88
2891.145	193.88
2894.521	189.88
2897.894	188.88
2901.264	193.88
2904.631	197.88
2907.996	200.88
2911.358	213.88
2914.717	202.88
2918.073	186.88
2921.426	192.88
2924.777	185.88
2928.124	190.88
2931.469	218.88
2934.811	207.88
2938.15	232.88
2941.487	216.88
2944.821	237.88
2948.152	223.88
2951.48	224.88
2954.805	207.88
2958.128	228.88
2961.447	215.88
2964.765	234.88
2968.079	224.88
2971.39	231.88
2974.699	231.88
2978.005	230.88
2981.308	228.88
2984.609	230.88
2987.907	240.88
2991.202	240.88
2994.494	222.88
2997.784	240.88
3001.07	243.88
3004.355	239.88
3007.636	258.88
3010.915	252.88
3014.191	250.88
3017.464	255.88
3020.734	251.88
3024.002	262.88
3027.267	261.88
3030.53	262.88
3033.789	262.88
3037.046	271.88
3040.301	261.88
3043.552	277.88
3046.801	281.88
3050.048	295.88
3053.291	312.88
3056.532	295.88
3059.771	301.88
3063.006	320.88
3066.239	323.88
3069.469	339.88
3072.697	335.88
3075.922	349.88
3079.144	350.88
3082.364	370.88
3085.581	364.88
3088.795	393.88
3092.007	393.88
3095.216	403.88
3098.423	399.88
3101.627	390.88
3104.828	429.88
3108.026	417.88
3111.222	437.88
3114.416	462.88
3117.607	450.88
3120.795	461.88
3123.98	465.88
3127.163	472.88
3130.344	484.88
3133.521	485.88
3136.696	511.88
3139.869	508.88
3143.039	506.88
3146.206	553.88
3149.371	549.88
3152.533	551.88
3155.693	534.88
3158.85	554.88
3162.005	562.88
3165.157	566.88
3168.306	563.88
3171.453	557.88
3174.597	561.88
3177.739	553.88
3180.878	575.88
3184.014	566.88
3187.149	573.88
3190.28	563.88
3193.409	582.88
3196.536	566.88
3199.659	579.88
3202.781	585.88
3205.9	562.88
3209.016	584.88
3212.13	569.88
3215.241	575.88
3218.35	568.88
3221.456	552.88
3224.56	544.88
3227.661	549.88
3230.76	550.88
3233.856	535.88
3236.95	546.88
3240.041	540.88
3243.13	551.88
3246.216	532.88
3249.3	538.88
3252.382	528.88
3255.46	523.88
3258.537	483.88
3261.611	504.88
3264.682	512.88
3267.751	517.88
3270.818	495.88
3273.882	522.88
3276.943	519.88
3280.002	524.88
3283.059	494.88
3286.113	502.88
3289.165	484.88
3292.214	476.88
3295.261	510.88
3298.306	464.88
3301.348	475.88
3304.387	446.88
3307.425	453.88
3310.459	460.88
3313.492	463.88
3316.521	452.88
3319.549	455.88
3322.574	442.88
3325.597	433.88
3328.617	435.88
3331.635	434.88
3334.65	422.88
3337.663	424.88
3340.674	424.88
3343.682	424.88
3346.688	437.88
3349.691	424.88
3352.692	415.88
3355.691	434.88
3358.687	421.88
3361.681	420.88
3364.673	399.88
3367.662	401.88
3370.649	409.88
3373.633	396.88
3376.615	393.88
3379.595	375.88
3382.572	379.88
3385.547	370.88
3388.52	358.88
3391.49	361.88
3394.458	359.88
3397.424	370.88
3400.387	353.88
3403.348	350.88
3406.307	354.88
3409.263	343.88
3412.217	352.88
3415.168	348.88
3418.118	345.88
3421.065	336.88
3424.009	336.88
3426.951	327.88
3429.891	318.88
3432.829	321.88
3435.764	323.88
3438.697	299.88
3441.628	313.88
3444.557	279.88
3447.483	268.88
3450.407	290.88
3453.328	269.88
3456.247	256.88
3459.164	244.88
3462.079	252.88
3464.991	244.88
3467.902	237.88
3470.809	231.88
3473.715	237.88
3476.618	211.88
3479.519	212.88
3482.418	189.88
3485.315	196.88
3488.209	188.88
3491.101	187.88
3493.99	175.88
3496.878	177.88
3499.763	180.88
3502.646	178.88
3505.527	156.88
3508.405	162.88
3511.281	144.88
3514.155	151.88
3517.027	137.88
3519.897	127.88
3522.764	145.88
3525.629	114.88
3528.492	115.88
3531.352	125.88
3534.211	109.88
3537.067	106.88
3539.921	101.88
3542.773	111.88
3545.622	87.88
3548.469	82.88
3551.315	84.88
3554.157	83.88
3556.998	75.88
3559.837	73.88
3562.673	75.88
3565.507	66.88
3568.339	51.88
3571.169	61.88
3573.996	52.88
3576.822	42.88
3579.645	46.88
3582.466	41.88
3585.285	53.88
3588.101	42.88
3590.916	38.88
3593.728	46.88
3596.538	41.88
3599.346	36.88
3602.152	22.88
3604.956	32.88
3607.757	34.88
3610.556	18.88
3613.354	28.88
3616.149	27.88
3618.942	31.88
3621.732	27.88
3624.521	18.88
3627.307	3.88
3630.092	6.88
3632.874	33.88
3635.654	12.88
3638.432	2.88
3641.208	1.88
3643.982	7.88
3646.753	11.88
3649.523	-21.12
3652.29	3.88
3655.055	8.88
3657.818	1.88
3660.579	-1.12
3663.338	-11.12
3666.095	-5.12
3668.849	-33.12
3671.602	4.88
3674.352	-10.12
3677.101	1.88
3679.847	-2.12
3682.591	-19.12
3685.333	-18.12
3688.073	-5.12
3690.811	-20.12
3693.547	-22.12
3696.281	-27.12
3699.013	-7.12
3701.742	-18.12
3704.47	-25.12
3707.195	-13.12
3709.919	-13.12
3712.64	-18.12
3715.359	-22.12
3718.076	-9.12
3720.792	-14.12
3723.505	-15.12
3726.216	-9.12
3728.925	-16.12
3731.632	-27.12
3734.336	-20.12
3737.039	-18.12
3739.74	-20.12
3742.439	-48.12
3745.136	-14.12
3747.83	-20.12
3750.523	-15.12
3753.213	-88.12
3755.902	-25.12
3758.589	-41.12
3761.273	-28.12
3763.956	-13.12
3766.636	-41.12
3769.315	-16.12
3771.991	-22.12
3774.665	-32.12
3777.338	-16.12
3780.008	-36.12
3782.677	-28.12
3785.343	-37.12
3788.007	-39.12
3790.67	-19.12
3793.33	-36.12
3795.989	-28.12
3798.645	-23.12
3801.299	-34.12
3803.952	-34.12
3806.602	-29.12
3809.251	-21.12
3811.897	-30.12
3814.542	-32.12
3817.184	-31.12
3819.825	-26.12
3822.463	-41.12
3825.1	-32.12
3827.735	-30.12
3830.367	-35.12
3832.998	-17.12
3835.627	-27.12
3838.253	-19.12
3840.878	-27.12
3843.501	-8.12
3846.122	-25.12
3848.741	-20.12
3851.358	-24.12
3853.973	-39.12
3856.586	-20.12
3859.197	-37.12
3861.806	-26.12
3864.414	-36.12
3867.019	-25.12
3869.622	-18.12
3872.224	-12.12
3874.823	0.88
3877.421	26.88
3880.016	50.88
3882.61	97.88
3885.202	101.88
3887.792	78.88
3890.38	39.88
3892.966	1.88
3895.55	-28.12
3898.132	-18.12
3900.713	-20.12
3903.291	-28.12
3905.868	-37.12
3908.442	-32.12
3911.015	-31.12
3913.586	-31.12
3916.155	-29.12
3918.722	-35.12
3921.287	-33.12
3923.85	-42.12
3926.411	-32.12
3928.971	-35.12
3931.528	-29.12
3934.084	-31.12
3936.638	-46.12
3939.19	-25.12
3941.74	-25.12
3944.288	-28.12
3946.834	-31.12
3949.378	-19.12
3951.921	-33.12
3954.462	-28.12
3957	-29.12
3959.537	-15.12
3962.072	-29.12
3964.606	-44.12
3967.137	-32.12
3969.667	-36.12
3972.194	-25.12
3974.72	-35.12
3977.244	-51.12
3979.766	-33.12
3982.286	-35.12
3984.805	-26.12
3987.321	-20.12
3989.836	-29.12
3992.349	-40.12
3994.86	-28.12
3997.369	-38.12
3999.877	-33.12
4002.382	-33.12
4004.886	-23.12
4007.388	-28.12
4009.888	-19.12
4012.386	-22.12
4014.883	-26.12
4017.377	-28.12
4019.87	-26.12
4022.361	-39.12
4024.85	-27.12
4027.338	-28.12
4029.823	-37.12
4032.307	-27.12
4034.789	-30.12
4037.269	-27.12
4039.747	-42.12
4042.224	-25.12
4044.699	-36.12
4047.172	-32.12
4049.643	-23.12
4052.112	-57.12
4054.58	-26.12
4057.046	-41.12
4059.51	-30.12
4061.972	-29.12
4064.432	-48.12
4066.891	-17.12
4069.348	-27.12
4071.803	-23.12
4074.256	-32.12
4076.708	-23.12
4079.158	-28.12
4081.606	-19.12
4084.052	-31.12
4086.497	-26.12
4088.939	-31.12
4091.38	-32.12
4093.819	-22.12
4096.257	-1.12
4098.693	-4.12
4101.127	-6.12
4103.559	1.88
4105.989	133.88
4108.418	137.88
4110.845	125.88
4113.27	129.88
4115.694	141.88
4118.115	133.88
4120.535	-26.12
4122.954	-18.12
4125.37	-16.12
4127.785	-24.12
4130.198	-20.12
4132.609	-27.12
4135.019	8.88
4137.427	0.88
4139.833	4.88
4142.237	-5.12
