Data from 2018-3-6_conc=2_n=1_RamanShift_05.txt Node
Date: Tue Mar 06 12:43:49 GMT+02:00 2018
User: LAB3
Spectrometer: QEPB0276
Trigger mode: 0
Integration Time (sec): 3.000000E1
Scans to average: 1
Electric dark correction enabled: true
Nonlinearity correction enabled: false
Boxcar width: 0
XAxis mode: Raman Shifts
Number of Pixels in Spectrum: 1044
>>>>>Begin Spectral Data<<<<<
160.701	171.12
166.742	214.12
172.777	320.12
178.805	650.12
184.826	1475.12
190.841	2953.12
196.849	4637.12
202.85	5977.12
208.845	6442.12
214.833	6474.12
220.815	6419.12
226.789	6437.12
232.758	6524.12
238.719	6511.12
244.674	6520.12
250.623	6523.12
256.565	6444.12
262.5	6399.12
268.429	6378.12
274.351	6330.12
280.267	6365.12
286.176	6399.12
292.079	6415.12
297.975	6409.12
303.865	6424.12
309.748	6455.12
315.625	6456.12
321.495	6481.12
327.359	6476.12
333.217	6534.12
339.068	6543.12
344.912	6604.12
350.751	6627.12
356.583	6643.12
362.408	6704.12
368.227	6701.12
374.04	6722.12
379.847	6771.12
385.647	6817.12
391.44	6814.12
397.228	6890.12
403.009	6929.12
408.784	6971.12
414.553	6990.12
420.315	7055.12
426.071	7018.12
431.821	7061.12
437.565	7030.12
443.302	6992.12
449.033	6957.12
454.758	6925.12
460.477	6861.12
466.189	6808.12
471.896	6732.12
477.596	6657.12
483.29	6649.12
488.978	6643.12
494.66	6580.12
500.335	6404.12
506.005	6092.12
511.668	5779.12
517.325	5464.12
522.977	5192.12
528.622	5047.12
534.261	4904.12
539.894	4768.12
545.521	4720.12
551.141	4646.12
556.756	4611.12
562.365	4541.12
567.968	4480.12
573.565	4489.12
579.155	4437.12
584.74	4404.12
590.319	4439.12
595.892	4418.12
601.459	4417.12
607.02	4398.12
612.575	4369.12
618.124	4304.12
623.667	4210.12
629.204	4162.12
634.735	4126.12
640.261	4058.12
645.781	4000.12
651.294	3977.12
656.802	4008.12
662.304	3983.12
667.8	3969.12
673.29	3934.12
678.775	3952.12
684.254	3923.12
689.726	3869.12
695.193	3879.12
700.655	3849.12
706.11	3867.12
711.56	3829.12
717.004	3789.12
722.442	3751.12
727.874	3773.12
733.301	3773.12
738.722	3725.12
744.137	3721.12
749.547	3726.12
754.951	3729.12
760.349	3743.12
765.741	3786.12
771.128	3807.12
776.509	3808.12
781.885	3905.12
787.254	3959.12
792.618	3955.12
797.977	3944.12
803.33	3913.12
808.677	3909.12
814.019	3860.12
819.355	3825.12
824.686	3819.12
830.011	3754.12
835.33	3748.12
840.644	3751.12
845.952	3681.12
851.255	3664.12
856.552	3616.12
861.844	3578.12
867.13	3524.12
872.41	3496.12
877.686	3478.12
882.955	3433.12
888.219	3400.12
893.478	3331.12
898.731	3321.12
903.979	3290.12
909.221	3249.12
914.458	3204.12
919.69	3210.12
924.916	3249.12
930.136	3222.12
935.351	3222.12
940.561	3233.12
945.766	3189.12
950.965	3195.12
956.158	3154.12
961.347	3119.12
966.529	3089.12
971.707	3076.12
976.879	3048.12
982.046	3003.12
987.208	2995.12
992.364	3002.12
997.515	2985.12
1002.66	3037.12
1007.801	3025.12
1012.936	3054.12
1018.066	3070.12
1023.19	3087.12
1028.309	3111.12
1033.423	3124.12
1038.532	3115.12
1043.636	3070.12
1048.734	3059.12
1053.827	3033.12
1058.915	2981.12
1063.998	3001.12
1069.075	2975.12
1074.147	2977.12
1079.214	2964.12
1084.276	2985.12
1089.333	3005.12
1094.385	2987.12
1099.431	2980.12
1104.472	2990.12
1109.509	2927.12
1114.54	2901.12
1119.565	2843.12
1124.586	2827.12
1129.602	2778.12
1134.613	2739.12
1139.618	2733.12
1144.619	2724.12
1149.614	2754.12
1154.604	2738.12
1159.589	2747.12
1164.57	2788.12
1169.545	2793.12
1174.515	2785.12
1179.48	2740.12
1184.44	2739.12
1189.395	2735.12
1194.345	2692.12
1199.29	2679.12
1204.23	2670.12
1209.165	2678.12
1214.095	2709.12
1219.021	2721.12
1223.941	2690.12
1228.856	2717.12
1233.766	2719.12
1238.672	2731.12
1243.572	2699.12
1248.467	2695.12
1253.358	2671.12
1258.244	2623.12
1263.124	2594.12
1268	2549.12
1272.871	2488.12
1277.737	2486.12
1282.599	2475.12
1287.455	2452.12
1292.306	2460.12
1297.153	2451.12
1301.995	2468.12
1306.832	2483.12
1311.664	2487.12
1316.491	2489.12
1321.314	2492.12
1326.132	2461.12
1330.945	2444.12
1335.753	2380.12
1340.556	2333.12
1345.354	2317.12
1350.148	2275.12
1354.937	2257.12
1359.722	2227.12
1364.501	2214.12
1369.276	2224.12
1374.046	2212.12
1378.811	2188.12
1383.572	2227.12
1388.327	2181.12
1393.079	2167.12
1397.825	2146.12
1402.567	2149.12
1407.304	2140.12
1412.036	2117.12
1416.764	2108.12
1421.487	2085.12
1426.205	2112.12
1430.919	2105.12
1435.628	2106.12
1440.333	2117.12
1445.032	2161.12
1449.727	2149.12
1454.418	2172.12
1459.104	2175.12
1463.785	2142.12
1468.462	2122.12
1473.134	2080.12
1477.802	2055.12
1482.465	2014.12
1487.123	2004.12
1491.777	1971.12
1496.426	1971.12
1501.071	2009.12
1505.711	1978.12
1510.347	2023.12
1514.978	2034.12
1519.604	2019.12
1524.226	2029.12
1528.844	2001.12
1533.457	2009.12
1538.065	1996.12
1542.669	1952.12
1547.269	1946.12
1551.864	1918.12
1556.454	1915.12
1561.041	1925.12
1565.622	1925.12
1570.199	1940.12
1574.772	1932.12
1579.34	1954.12
1583.904	1977.12
1588.464	1991.12
1593.019	1992.12
1597.569	1967.12
1602.115	1978.12
1606.657	1977.12
1611.195	1968.12
1615.728	1969.12
1620.256	1949.12
1624.78	1939.12
1629.3	1956.12
1633.816	1958.12
1638.327	1979.12
1642.834	1983.12
1647.336	1994.12
1651.834	2023.12
1656.328	2016.12
1660.817	1999.12
1665.302	1984.12
1669.783	1960.12
1674.259	1934.12
1678.732	1910.12
1683.199	1856.12
1687.663	1795.12
1692.122	1779.12
1696.577	1738.12
1701.028	1718.12
1705.474	1658.12
1709.917	1662.12
1714.355	1630.12
1718.788	1629.12
1723.218	1591.12
1727.643	1567.12
1732.064	1562.12
1736.481	1529.12
1740.893	1503.12
1745.301	1499.12
1749.705	1416.12
1754.105	1423.12
1758.501	1375.12
1762.893	1351.12
1767.28	1331.12
1771.663	1309.12
1776.042	1297.12
1780.417	1292.12
1784.787	1316.12
1789.154	1322.12
1793.516	1300.12
1797.874	1301.12
1802.228	1287.12
1806.578	1295.12
1810.924	1299.12
1815.266	1185.12
1819.603	1274.12
1823.937	1241.12
1828.266	1227.12
1832.591	1204.12
1836.913	1202.12
1841.23	1191.12
1845.543	1179.12
1849.852	1197.12
1854.156	1185.12
1858.457	1184.12
1862.754	1186.12
1867.047	1180.12
1871.335	1209.12
1875.62	1224.12
1879.9	1202.12
1884.177	1184.12
1888.449	1199.12
1892.718	1179.12
1896.982	1185.12
1901.243	1168.12
1905.499	1164.12
1909.752	1168.12
1914	1147.12
1918.245	1161.12
1922.485	1200.12
1926.722	1173.12
1930.954	1167.12
1935.183	1187.12
1939.408	1197.12
1943.628	1183.12
1947.845	1167.12
1952.058	1163.12
1956.267	1127.12
1960.472	1130.12
1964.673	1107.12
1968.87	1078.12
1973.063	1062.12
1977.252	1051.12
1981.438	1023.12
1985.619	1001.12
1989.797	988.12
1993.971	995.12
1998.14	1023.12
2002.306	1003.12
2006.469	1002.12
2010.627	983.12
2014.781	985.12
2018.932	965.12
2023.078	992.12
2027.221	967.12
2031.36	964.12
2035.495	955.12
2039.627	931.12
2043.754	938.12
2047.878	934.12
2051.998	932.12
2056.114	930.12
2060.226	917.12
2064.334	935.12
2068.439	944.12
2072.54	958.12
2076.637	939.12
2080.73	946.12
2084.82	945.12
2088.906	929.12
2092.988	928.12
2097.066	933.12
2101.14	936.12
2105.211	925.12
2109.278	904.12
2113.342	890.12
2117.401	881.12
2121.457	872.12
2125.509	854.12
2129.558	857.12
2133.602	853.12
2137.643	842.12
2141.681	846.12
2145.714	843.12
2149.744	832.12
2153.77	811.12
2157.793	794.12
2161.812	786.12
2165.827	760.12
2169.838	799.12
2173.846	767.12
2177.851	758.12
2181.851	749.12
2185.848	740.12
2189.841	733.12
2193.831	725.12
2197.817	727.12
2201.799	714.12
2205.778	696.12
2209.753	692.12
2213.725	692.12
2217.693	693.12
2221.657	678.12
2225.618	696.12
2229.575	691.12
2233.529	681.12
2237.479	676.12
2241.425	661.12
2245.368	646.12
2249.307	646.12
2253.243	631.12
2257.175	622.12
2261.104	610.12
2265.029	614.12
2268.95	602.12
2272.868	593.12
2276.783	579.12
2280.694	590.12
2284.601	584.12
2288.505	574.12
2292.405	568.12
2296.302	544.12
2300.195	546.12
2304.085	527.12
2307.971	532.12
2311.854	505.12
2315.734	511.12
2319.609	508.12
2323.482	476.12
2327.351	488.12
2331.216	492.12
2335.078	497.12
2338.937	499.12
2342.792	476.12
2346.643	466.12
2350.492	492.12
2354.336	477.12
2358.178	487.12
2362.015	491.12
2365.85	477.12
2369.681	469.12
2373.508	485.12
2377.333	486.12
2381.153	482.12
2384.971	468.12
2388.785	469.12
2392.595	458.12
2396.402	450.12
2400.206	436.12
2404.007	448.12
2407.804	443.12
2411.597	459.12
2415.388	447.12
2419.174	447.12
2422.958	442.12
2426.738	436.12
2430.515	442.12
2434.289	428.12
2438.059	423.12
2441.825	423.12
2445.589	434.12
2449.349	416.12
2453.106	422.12
2456.859	417.12
2460.61	419.12
2464.356	406.12
2468.1	397.12
2471.84	396.12
2475.577	395.12
2479.311	388.12
2483.041	385.12
2486.768	407.12
2490.492	404.12
2494.213	395.12
2497.93	385.12
2501.644	373.12
2505.355	382.12
2509.062	396.12
2512.766	390.12
2516.467	384.12
2520.165	380.12
2523.859	361.12
2527.551	391.12
2531.239	368.12
2534.923	369.12
2538.605	364.12
2542.283	383.12
2545.958	374.12
2549.63	391.12
2553.299	381.12
2556.964	351.12
2560.626	355.12
2564.285	367.12
2567.941	349.12
2571.594	344.12
2575.243	365.12
2578.89	340.12
2582.533	351.12
2586.173	351.12
2589.809	346.12
2593.443	320.12
2597.073	327.12
2600.701	336.12
2604.325	321.12
2607.946	313.12
2611.564	329.12
2615.178	317.12
2618.79	323.12
2622.398	318.12
2626.004	317.12
2629.606	304.12
2633.205	307.12
2636.801	304.12
2640.394	294.12
2643.983	287.12
2647.57	283.12
2651.153	284.12
2654.734	292.12
2658.311	265.12
2661.885	278.12
2665.456	281.12
2669.025	276.12
2672.589	268.12
2676.151	280.12
2679.71	280.12
2683.266	265.12
2686.819	256.12
2690.368	263.12
2693.915	262.12
2697.458	258.12
2700.999	249.12
2704.536	256.12
2708.071	249.12
2711.602	250.12
2715.13	247.12
2718.656	234.12
2722.178	238.12
2725.697	229.12
2729.214	235.12
2732.727	243.12
2736.237	222.12
2739.744	229.12
2743.249	235.12
2746.75	247.12
2750.248	233.12
2753.743	233.12
2757.236	236.12
2760.725	239.12
2764.211	202.12
2767.695	240.12
2771.175	231.12
2774.652	238.12
2778.127	220.12
2781.598	224.12
2785.067	230.12
2788.532	224.12
2791.995	227.12
2795.455	215.12
2798.911	229.12
2802.365	221.12
2805.816	226.12
2809.264	242.12
2812.709	221.12
2816.151	225.12
2819.59	218.12
2823.026	224.12
2826.46	235.12
2829.89	238.12
2833.318	206.12
2836.742	228.12
2840.164	230.12
2843.583	226.12
2846.999	225.12
2850.412	237.12
2853.822	231.12
2857.229	253.12
2860.634	245.12
2864.035	224.12
2867.434	252.12
2870.83	250.12
2874.223	243.12
2877.613	259.12
2881	252.12
2884.385	254.12
2887.766	252.12
2891.145	257.12
2894.521	253.12
2897.894	247.12
2901.264	255.12
2904.631	262.12
2907.996	263.12
2911.358	275.12
2914.717	268.12
2918.073	263.12
2921.426	262.12
2924.777	259.12
2928.124	266.12
2931.469	292.12
2934.811	275.12
2938.15	297.12
2941.487	280.12
2944.821	308.12
2948.152	292.12
2951.48	287.12
2954.805	279.12
2958.128	304.12
2961.447	275.12
2964.765	308.12
2968.079	280.12
2971.39	290.12
2974.699	303.12
2978.005	301.12
2981.308	298.12
2984.609	292.12
2987.907	308.12
2991.202	323.12
2994.494	308.12
2997.784	316.12
3001.07	321.12
3004.355	308.12
3007.636	316.12
3010.915	327.12
3014.191	319.12
3017.464	325.12
3020.734	326.12
3024.002	324.12
3027.267	331.12
3030.53	330.12
3033.789	334.12
3037.046	337.12
3040.301	340.12
3043.552	347.12
3046.801	356.12
3050.048	370.12
3053.291	389.12
3056.532	377.12
3059.771	376.12
3063.006	406.12
3066.239	405.12
3069.469	424.12
3072.697	436.12
3075.922	440.12
3079.144	441.12
3082.364	473.12
3085.581	467.12
3088.795	491.12
3092.007	498.12
3095.216	521.12
3098.423	506.12
3101.627	495.12
3104.828	539.12
3108.026	520.12
3111.222	565.12
3114.416	565.12
3117.607	585.12
3120.795	585.12
3123.98	604.12
3127.163	600.12
3130.344	629.12
3133.521	622.12
3136.696	652.12
3139.869	673.12
3143.039	648.12
3146.206	696.12
3149.371	708.12
3152.533	692.12
3155.693	693.12
3158.85	703.12
3162.005	696.12
3165.157	705.12
3168.306	710.12
3171.453	714.12
3174.597	703.12
3177.739	695.12
3180.878	713.12
3184.014	718.12
3187.149	716.12
3190.28	722.12
3193.409	731.12
3196.536	721.12
3199.659	734.12
3202.781	736.12
3205.9	710.12
3209.016	731.12
3212.13	727.12
3215.241	723.12
3218.35	725.12
3221.456	712.12
3224.56	696.12
3227.661	707.12
3230.76	693.12
3233.856	687.12
3236.95	684.12
3240.041	668.12
3243.13	691.12
3246.216	677.12
3249.3	663.12
3252.382	680.12
3255.46	660.12
3258.537	617.12
3261.611	659.12
3264.682	654.12
3267.751	663.12
3270.818	642.12
3273.882	659.12
3276.943	655.12
3280.002	670.12
3283.059	634.12
3286.113	633.12
3289.165	616.12
3292.214	608.12
3295.261	613.12
3298.306	592.12
3301.348	584.12
3304.387	573.12
3307.425	572.12
3310.459	574.12
3313.492	570.12
3316.521	551.12
3319.549	562.12
3322.574	554.12
3325.597	532.12
3328.617	536.12
3331.635	535.12
3334.65	515.12
3337.663	534.12
3340.674	523.12
3343.682	531.12
3346.688	539.12
3349.691	514.12
3352.692	533.12
3355.691	528.12
3358.687	519.12
3361.681	526.12
3364.673	510.12
3367.662	509.12
3370.649	507.12
3373.633	481.12
3376.615	508.12
3379.595	479.12
3382.572	469.12
3385.547	475.12
3388.52	455.12
3391.49	463.12
3394.458	452.12
3397.424	464.12
3400.387	430.12
3403.348	442.12
3406.307	451.12
3409.263	443.12
3412.217	433.12
3415.168	426.12
3418.118	436.12
3421.065	418.12
3424.009	426.12
3426.951	416.12
3429.891	400.12
3432.829	403.12
3435.764	399.12
3438.697	381.12
3441.628	387.12
3444.557	364.12
3447.483	349.12
3450.407	365.12
3453.328	346.12
3456.247	331.12
3459.164	317.12
3462.079	334.12
3464.991	317.12
3467.902	304.12
3470.809	298.12
3473.715	296.12
3476.618	274.12
3479.519	274.12
3482.418	248.12
3485.315	254.12
3488.209	248.12
3491.101	250.12
3493.99	229.12
3496.878	227.12
3499.763	234.12
3502.646	221.12
3505.527	212.12
3508.405	203.12
3511.281	197.12
3514.155	196.12
3517.027	189.12
3519.897	173.12
3522.764	176.12
3525.629	154.12
3528.492	162.12
3531.352	160.12
3534.211	147.12
3537.067	137.12
3539.921	137.12
3542.773	139.12
3545.622	121.12
3548.469	112.12
3551.315	110.12
3554.157	110.12
3556.998	97.12
3559.837	103.12
3562.673	104.12
3565.507	83.12
3568.339	82.12
3571.169	79.12
3573.996	78.12
3576.822	57.12
3579.645	65.12
3582.466	62.12
3585.285	67.12
3588.101	64.12
3590.916	53.12
3593.728	62.12
3596.538	53.12
3599.346	50.12
3602.152	46.12
3604.956	41.12
3607.757	45.12
3610.556	30.12
3613.354	40.12
3616.149	40.12
3618.942	39.12
3621.732	39.12
3624.521	25.12
3627.307	22.12
3630.092	20.12
3632.874	34.12
3635.654	22.12
3638.432	10.12
3641.208	14.12
3643.982	14.12
3646.753	22.12
3649.523	-9.88
3652.29	5.12
3655.055	10.12
3657.818	8.12
3660.579	5.12
3663.338	-6.88
3666.095	-0.88
3668.849	-25.88
3671.602	2.12
3674.352	-16.88
3677.101	4.12
3679.847	7.12
3682.591	-10.88
3685.333	-19.88
3688.073	-2.88
3690.811	-15.88
3693.547	-23.88
3696.281	-24.88
3699.013	-9.88
3701.742	-15.88
3704.47	-21.88
3707.195	-13.88
3709.919	-8.88
3712.64	-18.88
3715.359	-21.88
3718.076	-5.88
3720.792	-18.88
3723.505	-12.88
3726.216	0.12
3728.925	-22.88
3731.632	-26.88
3734.336	-22.88
3737.039	-21.88
3739.74	-14.88
3742.439	-40.88
3745.136	-11.88
3747.83	-18.88
3750.523	-20.88
3753.213	-89.88
3755.902	-27.88
3758.589	-37.88
3761.273	-26.88
3763.956	-13.88
3766.636	-37.88
3769.315	-15.88
3771.991	-22.88
3774.665	-25.88
3777.338	-22.88
3780.008	-32.88
3782.677	-25.88
3785.343	-41.88
3788.007	-39.88
3790.67	-19.88
3793.33	-36.88
3795.989	-29.88
3798.645	-22.88
3801.299	-35.88
3803.952	-35.88
3806.602	-34.88
3809.251	-20.88
3811.897	-25.88
3814.542	-28.88
3817.184	-31.88
3819.825	-27.88
3822.463	-39.88
3825.1	-25.88
3827.735	-23.88
3830.367	-37.88
3832.998	-14.88
3835.627	-27.88
3838.253	-20.88
3840.878	-32.88
3843.501	-15.88
3846.122	-19.88
3848.741	-20.88
3851.358	-19.88
3853.973	-35.88
3856.586	-16.88
3859.197	-35.88
3861.806	-27.88
3864.414	-35.88
3867.019	-21.88
3869.622	-12.88
3872.224	-7.88
3874.823	10.12
3877.421	40.12
3880.016	71.12
3882.61	121.12
3885.202	142.12
3887.792	98.12
3890.38	56.12
3892.966	8.12
3895.55	-21.88
3898.132	-13.88
3900.713	-11.88
3903.291	-21.88
3905.868	-31.88
3908.442	-25.88
3911.015	-24.88
3913.586	-29.88
3916.155	-28.88
3918.722	-33.88
3921.287	-34.88
3923.85	-45.88
3926.411	-34.88
3928.971	-30.88
3931.528	-23.88
3934.084	-28.88
3936.638	-37.88
3939.19	-26.88
3941.74	-24.88
3944.288	-30.88
3946.834	-33.88
3949.378	-21.88
3951.921	-32.88
3954.462	-30.88
3957	-25.88
3959.537	-17.88
3962.072	-29.88
3964.606	-41.88
3967.137	-32.88
3969.667	-34.88
3972.194	-21.88
3974.72	-33.88
3977.244	-47.88
3979.766	-34.88
3982.286	-34.88
3984.805	-24.88
3987.321	-16.88
3989.836	-21.88
3992.349	-29.88
3994.86	-25.88
3997.369	-36.88
3999.877	-28.88
4002.382	-31.88
4004.886	-17.88
4007.388	-23.88
4009.888	-16.88
4012.386	-22.88
4014.883	-23.88
4017.377	-23.88
4019.87	-19.88
4022.361	-34.88
4024.85	-25.88
4027.338	-26.88
4029.823	-27.88
4032.307	-26.88
4034.789	-28.88
4037.269	-20.88
4039.747	-42.88
4042.224	-18.88
4044.699	-32.88
4047.172	-29.88
4049.643	-18.88
4052.112	-50.88
4054.58	-23.88
4057.046	-35.88
4059.51	-23.88
4061.972	-28.88
4064.432	-42.88
4066.891	-15.88
4069.348	-29.88
4071.803	-20.88
4074.256	-29.88
4076.708	-17.88
4079.158	-27.88
4081.606	-16.88
4084.052	-27.88
4086.497	-23.88
4088.939	-25.88
4091.38	-30.88
4093.819	-21.88
4096.257	1.12
4098.693	-7.88
4101.127	-3.88
4103.559	3.12
4105.989	152.12
4108.418	157.12
4110.845	148.12
4113.27	154.12
4115.694	162.12
4118.115	151.12
4120.535	-22.88
4122.954	-20.88
4125.37	-20.88
4127.785	-23.88
4130.198	-16.88
4132.609	-24.88
4135.019	5.12
4137.427	2.12
4139.833	4.12
4142.237	-3.88
