Data from 2018-3-6_conc=6_n=2_RamanShift_05.txt Node
Date: Tue Mar 06 14:58:48 GMT+02:00 2018
User: LAB3
Spectrometer: QEPB0276
Trigger mode: 0
Integration Time (sec): 3.000000E1
Scans to average: 1
Electric dark correction enabled: true
Nonlinearity correction enabled: false
Boxcar width: 0
XAxis mode: Raman Shifts
Number of Pixels in Spectrum: 1044
>>>>>Begin Spectral Data<<<<<
160.701	43.88
166.742	62.88
172.777	81.88
178.805	176.88
184.826	406.88
190.841	844.88
196.849	1321.88
202.85	1671.88
208.845	1811.88
214.833	1780.88
220.815	1735.88
226.789	1736.88
232.758	1720.88
238.719	1714.88
244.674	1653.88
250.623	1663.88
256.565	1635.88
262.5	1603.88
268.429	1593.88
274.351	1563.88
280.267	1565.88
286.176	1558.88
292.079	1560.88
297.975	1563.88
303.865	1552.88
309.748	1549.88
315.625	1549.88
321.495	1532.88
327.359	1540.88
333.217	1541.88
339.068	1523.88
344.912	1546.88
350.751	1537.88
356.583	1541.88
362.408	1560.88
368.227	1562.88
374.04	1547.88
379.847	1569.88
385.647	1576.88
391.44	1568.88
397.228	1574.88
403.009	1583.88
408.784	1589.88
414.553	1610.88
420.315	1606.88
426.071	1592.88
431.821	1613.88
437.565	1591.88
443.302	1569.88
449.033	1561.88
454.758	1579.88
460.477	1556.88
466.189	1560.88
471.896	1539.88
477.596	1501.88
483.29	1489.88
488.978	1497.88
494.66	1486.88
500.335	1442.88
506.005	1372.88
511.668	1318.88
517.325	1253.88
522.977	1190.88
528.622	1155.88
534.261	1129.88
539.894	1091.88
545.521	1080.88
551.141	1059.88
556.756	1043.88
562.365	1040.88
567.968	1031.88
573.565	1031.88
579.155	1025.88
584.74	1011.88
590.319	1015.88
595.892	1022.88
601.459	1027.88
607.02	1013.88
612.575	1005.88
618.124	1000.88
623.667	962.88
629.204	964.88
634.735	941.88
640.261	937.88
645.781	903.88
651.294	904.88
656.802	915.88
662.304	924.88
667.8	934.88
673.29	912.88
678.775	901.88
684.254	910.88
689.726	877.88
695.193	899.88
700.655	872.88
706.11	883.88
711.56	884.88
717.004	874.88
722.442	857.88
727.874	866.88
733.301	872.88
738.722	839.88
744.137	860.88
749.547	843.88
754.951	854.88
760.349	859.88
765.741	871.88
771.128	868.88
776.509	869.88
781.885	895.88
787.254	906.88
792.618	911.88
797.977	902.88
803.33	899.88
808.677	891.88
814.019	891.88
819.355	865.88
824.686	847.88
830.011	841.88
835.33	864.88
840.644	871.88
845.952	832.88
851.255	846.88
856.552	832.88
861.844	833.88
867.13	799.88
872.41	800.88
877.686	805.88
882.955	796.88
888.219	776.88
893.478	768.88
898.731	768.88
903.979	767.88
909.221	742.88
914.458	726.88
919.69	732.88
924.916	746.88
930.136	743.88
935.351	740.88
940.561	749.88
945.766	756.88
950.965	738.88
956.158	726.88
961.347	706.88
966.529	710.88
971.707	706.88
976.879	706.88
982.046	686.88
987.208	674.88
992.364	682.88
997.515	681.88
1002.66	692.88
1007.801	681.88
1012.936	694.88
1018.066	679.88
1023.19	704.88
1028.309	702.88
1033.423	708.88
1038.532	729.88
1043.636	703.88
1048.734	696.88
1053.827	693.88
1058.915	670.88
1063.998	694.88
1069.075	666.88
1074.147	686.88
1079.214	665.88
1084.276	692.88
1089.333	685.88
1094.385	700.88
1099.431	677.88
1104.472	677.88
1109.509	677.88
1114.54	657.88
1119.565	647.88
1124.586	646.88
1129.602	634.88
1134.613	605.88
1139.618	619.88
1144.619	617.88
1149.614	631.88
1154.604	620.88
1159.589	618.88
1164.57	636.88
1169.545	652.88
1174.515	653.88
1179.48	625.88
1184.44	635.88
1189.395	636.88
1194.345	610.88
1199.29	633.88
1204.23	595.88
1209.165	598.88
1214.095	624.88
1219.021	621.88
1223.941	602.88
1228.856	614.88
1233.766	623.88
1238.672	633.88
1243.572	628.88
1248.467	626.88
1253.358	597.88
1258.244	595.88
1263.124	607.88
1268	592.88
1272.871	554.88
1277.737	559.88
1282.599	556.88
1287.455	561.88
1292.306	565.88
1297.153	547.88
1301.995	558.88
1306.832	561.88
1311.664	559.88
1316.491	556.88
1321.314	566.88
1326.132	562.88
1330.945	561.88
1335.753	541.88
1340.556	533.88
1345.354	526.88
1350.148	517.88
1354.937	512.88
1359.722	494.88
1364.501	494.88
1369.276	522.88
1374.046	516.88
1378.811	499.88
1383.572	505.88
1388.327	522.88
1393.079	491.88
1397.825	475.88
1402.567	488.88
1407.304	489.88
1412.036	480.88
1416.764	486.88
1421.487	459.88
1426.205	458.88
1430.919	476.88
1435.628	481.88
1440.333	471.88
1445.032	478.88
1449.727	480.88
1454.418	481.88
1459.104	488.88
1463.785	475.88
1468.462	468.88
1473.134	470.88
1477.802	465.88
1482.465	430.88
1487.123	447.88
1491.777	426.88
1496.426	421.88
1501.071	449.88
1505.711	439.88
1510.347	451.88
1514.978	448.88
1519.604	438.88
1524.226	464.88
1528.844	435.88
1533.457	453.88
1538.065	446.88
1542.669	442.88
1547.269	434.88
1551.864	449.88
1556.454	422.88
1561.041	430.88
1565.622	432.88
1570.199	437.88
1574.772	445.88
1579.34	439.88
1583.904	454.88
1588.464	459.88
1593.019	464.88
1597.569	440.88
1602.115	448.88
1606.657	440.88
1611.195	453.88
1615.728	458.88
1620.256	440.88
1624.78	411.88
1629.3	436.88
1633.816	437.88
1638.327	433.88
1642.834	438.88
1647.336	446.88
1651.834	449.88
1656.328	441.88
1660.817	448.88
1665.302	441.88
1669.783	423.88
1674.259	423.88
1678.732	410.88
1683.199	409.88
1687.663	394.88
1692.122	396.88
1696.577	377.88
1701.028	378.88
1705.474	370.88
1709.917	362.88
1714.355	348.88
1718.788	355.88
1723.218	339.88
1727.643	321.88
1732.064	337.88
1736.481	308.88
1740.893	323.88
1745.301	316.88
1749.705	283.88
1754.105	311.88
1758.501	293.88
1762.893	298.88
1767.28	279.88
1771.663	281.88
1776.042	271.88
1780.417	274.88
1784.787	293.88
1789.154	285.88
1793.516	281.88
1797.874	279.88
1802.228	278.88
1806.578	267.88
1810.924	285.88
1815.266	160.88
1819.603	287.88
1823.937	263.88
1828.266	263.88
1832.591	265.88
1836.913	272.88
1841.23	259.88
1845.543	252.88
1849.852	263.88
1854.156	250.88
1858.457	255.88
1862.754	252.88
1867.047	253.88
1871.335	272.88
1875.62	264.88
1879.9	258.88
1884.177	247.88
1888.449	253.88
1892.718	252.88
1896.982	254.88
1901.243	239.88
1905.499	239.88
1909.752	228.88
1914	221.88
1918.245	246.88
1922.485	250.88
1926.722	235.88
1930.954	235.88
1935.183	236.88
1939.408	254.88
1943.628	244.88
1947.845	239.88
1952.058	242.88
1956.267	229.88
1960.472	238.88
1964.673	231.88
1968.87	225.88
1973.063	229.88
1977.252	225.88
1981.438	217.88
1985.619	213.88
1989.797	202.88
1993.971	217.88
1998.14	219.88
2002.306	216.88
2006.469	213.88
2010.627	202.88
2014.781	205.88
2018.932	199.88
2023.078	224.88
2027.221	206.88
2031.36	200.88
2035.495	199.88
2039.627	208.88
2043.754	201.88
2047.878	192.88
2051.998	194.88
2056.114	181.88
2060.226	191.88
2064.334	204.88
2068.439	192.88
2072.54	211.88
2076.637	179.88
2080.73	198.88
2084.82	192.88
2088.906	188.88
2092.988	189.88
2097.066	188.88
2101.14	198.88
2105.211	195.88
2109.278	188.88
2113.342	178.88
2117.401	178.88
2121.457	169.88
2125.509	174.88
2129.558	184.88
2133.602	178.88
2137.643	174.88
2141.681	171.88
2145.714	178.88
2149.744	175.88
2153.77	172.88
2157.793	159.88
2161.812	140.88
2165.827	139.88
2169.838	166.88
2173.846	156.88
2177.851	150.88
2181.851	156.88
2185.848	151.88
2189.841	149.88
2193.831	151.88
2197.817	149.88
2201.799	144.88
2205.778	141.88
2209.753	130.88
2213.725	134.88
2217.693	136.88
2221.657	133.88
2225.618	147.88
2229.575	138.88
2233.529	146.88
2237.479	143.88
2241.425	124.88
2245.368	124.88
2249.307	131.88
2253.243	120.88
2257.175	125.88
2261.104	119.88
2265.029	127.88
2268.95	125.88
2272.868	117.88
2276.783	110.88
2280.694	121.88
2284.601	112.88
2288.505	117.88
2292.405	115.88
2296.302	97.88
2300.195	104.88
2304.085	79.88
2307.971	109.88
2311.854	87.88
2315.734	102.88
2319.609	103.88
2323.482	80.88
2327.351	97.88
2331.216	92.88
2335.078	98.88
2338.937	93.88
2342.792	83.88
2346.643	88.88
2350.492	99.88
2354.336	95.88
2358.178	95.88
2362.015	91.88
2365.85	92.88
2369.681	90.88
2373.508	94.88
2377.333	102.88
2381.153	95.88
2384.971	81.88
2388.785	93.88
2392.595	77.88
2396.402	77.88
2400.206	56.88
2404.007	74.88
2407.804	79.88
2411.597	84.88
2415.388	79.88
2419.174	76.88
2422.958	79.88
2426.738	78.88
2430.515	87.88
2434.289	70.88
2438.059	67.88
2441.825	76.88
2445.589	89.88
2449.349	59.88
2453.106	84.88
2456.859	74.88
2460.61	79.88
2464.356	67.88
2468.1	59.88
2471.84	65.88
2475.577	61.88
2479.311	55.88
2483.041	64.88
2486.768	79.88
2490.492	74.88
2494.213	72.88
2497.93	48.88
2501.644	45.88
2505.355	52.88
2509.062	60.88
2512.766	60.88
2516.467	62.88
2520.165	56.88
2523.859	51.88
2527.551	80.88
2531.239	49.88
2534.923	59.88
2538.605	58.88
2542.283	59.88
2545.958	58.88
2549.63	66.88
2553.299	68.88
2556.964	45.88
2560.626	54.88
2564.285	63.88
2567.941	44.88
2571.594	41.88
2575.243	60.88
2578.89	44.88
2582.533	52.88
2586.173	52.88
2589.809	52.88
2593.443	25.88
2597.073	44.88
2600.701	45.88
2604.325	48.88
2607.946	36.88
2611.564	56.88
2615.178	47.88
2618.79	44.88
2622.398	35.88
2626.004	51.88
2629.606	52.88
2633.205	38.88
2636.801	46.88
2640.394	48.88
2643.983	35.88
2647.57	39.88
2651.153	36.88
2654.734	50.88
2658.311	16.88
2661.885	26.88
2665.456	27.88
2669.025	35.88
2672.589	34.88
2676.151	47.88
2679.71	44.88
2683.266	34.88
2686.819	31.88
2690.368	40.88
2693.915	37.88
2697.458	27.88
2700.999	40.88
2704.536	34.88
2708.071	32.88
2711.602	36.88
2715.13	30.88
2718.656	14.88
2722.178	32.88
2725.697	16.88
2729.214	21.88
2732.727	33.88
2736.237	9.88
2739.744	25.88
2743.249	18.88
2746.75	28.88
2750.248	22.88
2753.743	29.88
2757.236	25.88
2760.725	33.88
2764.211	1.88
2767.695	27.88
2771.175	26.88
2774.652	29.88
2778.127	25.88
2781.598	24.88
2785.067	25.88
2788.532	13.88
2791.995	24.88
2795.455	16.88
2798.911	28.88
2802.365	21.88
2805.816	27.88
2809.264	29.88
2812.709	19.88
2816.151	24.88
2819.59	12.88
2823.026	17.88
2826.46	15.88
2829.89	27.88
2833.318	-0.12
2836.742	18.88
2840.164	26.88
2843.583	21.88
2846.999	19.88
2850.412	26.88
2853.822	15.88
2857.229	33.88
2860.634	22.88
2864.035	9.88
2867.434	31.88
2870.83	33.88
2874.223	25.88
2877.613	28.88
2881	15.88
2884.385	16.88
2887.766	23.88
2891.145	23.88
2894.521	19.88
2897.894	13.88
2901.264	31.88
2904.631	29.88
2907.996	33.88
2911.358	35.88
2914.717	27.88
2918.073	20.88
2921.426	18.88
2924.777	7.88
2928.124	23.88
2931.469	41.88
2934.811	17.88
2938.15	39.88
2941.487	27.88
2944.821	48.88
2948.152	32.88
2951.48	40.88
2954.805	26.88
2958.128	46.88
2961.447	31.88
2964.765	51.88
2968.079	34.88
2971.39	38.88
2974.699	42.88
2978.005	43.88
2981.308	36.88
2984.609	33.88
2987.907	38.88
2991.202	49.88
2994.494	32.88
2997.784	40.88
3001.07	45.88
3004.355	35.88
3007.636	41.88
3010.915	41.88
3014.191	37.88
3017.464	45.88
3020.734	43.88
3024.002	44.88
3027.267	42.88
3030.53	45.88
3033.789	43.88
3037.046	44.88
3040.301	37.88
3043.552	50.88
3046.801	52.88
3050.048	58.88
3053.291	74.88
3056.532	60.88
3059.771	40.88
3063.006	65.88
3066.239	60.88
3069.469	70.88
3072.697	58.88
3075.922	59.88
3079.144	57.88
3082.364	88.88
3085.581	62.88
3088.795	88.88
3092.007	85.88
3095.216	88.88
3098.423	85.88
3101.627	55.88
3104.828	80.88
3108.026	78.88
3111.222	93.88
3114.416	101.88
3117.607	93.88
3120.795	95.88
3123.98	92.88
3127.163	92.88
3130.344	93.88
3133.521	91.88
3136.696	109.88
3139.869	101.88
3143.039	93.88
3146.206	123.88
3149.371	118.88
3152.533	111.88
3155.693	111.88
3158.85	122.88
3162.005	128.88
3165.157	119.88
3168.306	116.88
3171.453	136.88
3174.597	116.88
3177.739	109.88
3180.878	127.88
3184.014	125.88
3187.149	123.88
3190.28	124.88
3193.409	126.88
3196.536	128.88
3199.659	136.88
3202.781	129.88
3205.9	114.88
3209.016	128.88
3212.13	124.88
3215.241	127.88
3218.35	113.88
3221.456	120.88
3224.56	114.88
3227.661	113.88
3230.76	113.88
3233.856	112.88
3236.95	114.88
3240.041	98.88
3243.13	121.88
3246.216	109.88
3249.3	119.88
3252.382	117.88
3255.46	109.88
3258.537	60.88
3261.611	107.88
3264.682	106.88
3267.751	102.88
3270.818	100.88
3273.882	111.88
3276.943	104.88
3280.002	117.88
3283.059	99.88
3286.113	105.88
3289.165	97.88
3292.214	93.88
3295.261	112.88
3298.306	89.88
3301.348	102.88
3304.387	85.88
3307.425	102.88
3310.459	97.88
3313.492	97.88
3316.521	92.88
3319.549	102.88
3322.574	97.88
3325.597	89.88
3328.617	83.88
3331.635	88.88
3334.65	69.88
3337.663	82.88
3340.674	77.88
3343.682	87.88
3346.688	90.88
3349.691	75.88
3352.692	88.88
3355.691	90.88
3358.687	82.88
3361.681	93.88
3364.673	77.88
3367.662	85.88
3370.649	91.88
3373.633	73.88
3376.615	84.88
3379.595	64.88
3382.572	71.88
3385.547	69.88
3388.52	62.88
3391.49	67.88
3394.458	71.88
3397.424	70.88
3400.387	61.88
3403.348	71.88
3406.307	64.88
3409.263	62.88
3412.217	71.88
3415.168	58.88
3418.118	74.88
3421.065	60.88
3424.009	64.88
3426.951	59.88
3429.891	51.88
3432.829	55.88
3435.764	58.88
3438.697	40.88
3441.628	60.88
3444.557	43.88
3447.483	45.88
3450.407	57.88
3453.328	38.88
3456.247	37.88
3459.164	36.88
3462.079	48.88
3464.991	39.88
3467.902	32.88
3470.809	35.88
3473.715	45.88
3476.618	26.88
3479.519	38.88
3482.418	4.88
3485.315	22.88
3488.209	22.88
3491.101	22.88
3493.99	11.88
3496.878	18.88
3499.763	18.88
3502.646	16.88
3505.527	7.88
3508.405	8.88
3511.281	0.88
3514.155	13.88
3517.027	9.88
3519.897	-6.12
3522.764	5.88
3525.629	-10.12
3528.492	5.88
3531.352	6.88
3534.211	2.88
3537.067	-3.12
3539.921	-5.12
3542.773	9.88
3545.622	-10.12
3548.469	-15.12
3551.315	-15.12
3554.157	-3.12
3556.998	-16.12
3559.837	-6.12
3562.673	-8.12
3565.507	-13.12
3568.339	-16.12
3571.169	-15.12
3573.996	-12.12
3576.822	-32.12
3579.645	-21.12
3582.466	-23.12
3585.285	-12.12
3588.101	-20.12
3590.916	-23.12
3593.728	-10.12
3596.538	-24.12
3599.346	-16.12
3602.152	-30.12
3604.956	-19.12
3607.757	-15.12
3610.556	-32.12
3613.354	-14.12
3616.149	-18.12
3618.942	-18.12
3621.732	-14.12
3624.521	-24.12
3627.307	-34.12
3630.092	-31.12
3632.874	-10.12
3635.654	-19.12
3638.432	-30.12
3641.208	-27.12
3643.982	-27.12
3646.753	-18.12
3649.523	-50.12
3652.29	-30.12
3655.055	-27.12
3657.818	-26.12
3660.579	-29.12
3663.338	-37.12
3666.095	-33.12
3668.849	-52.12
3671.602	-24.12
3674.352	-46.12
3677.101	-21.12
3679.847	-23.12
3682.591	-40.12
3685.333	-41.12
3688.073	-29.12
3690.811	-42.12
3693.547	-44.12
3696.281	-40.12
3699.013	-29.12
3701.742	-36.12
3704.47	-44.12
3707.195	-29.12
3709.919	-29.12
3712.64	-31.12
3715.359	-42.12
3718.076	-21.12
3720.792	-31.12
3723.505	-31.12
3726.216	-21.12
3728.925	-33.12
3731.632	-39.12
3734.336	-33.12
3737.039	-31.12
3739.74	-29.12
3742.439	-58.12
3745.136	-28.12
3747.83	-28.12
3750.523	-24.12
3753.213	-84.12
3755.902	-37.12
3758.589	-45.12
3761.273	-43.12
3763.956	-22.12
3766.636	-51.12
3769.315	-26.12
3771.991	-33.12
3774.665	-38.12
3777.338	-37.12
3780.008	-43.12
3782.677	-35.12
3785.343	-47.12
3788.007	-53.12
3790.67	-24.12
3793.33	-43.12
3795.989	-42.12
3798.645	-31.12
3801.299	-46.12
3803.952	-45.12
3806.602	-36.12
3809.251	-27.12
3811.897	-33.12
3814.542	-39.12
3817.184	-41.12
3819.825	-36.12
3822.463	-48.12
3825.1	-39.12
3827.735	-31.12
3830.367	-45.12
3832.998	-26.12
3835.627	-37.12
3838.253	-27.12
3840.878	-36.12
3843.501	-22.12
3846.122	-32.12
3848.741	-30.12
3851.358	-23.12
3853.973	-44.12
3856.586	-29.12
3859.197	-39.12
3861.806	-30.12
3864.414	-39.12
3867.019	-39.12
3869.622	-26.12
3872.224	-27.12
3874.823	-19.12
3877.421	-0.12
3880.016	5.88
3882.61	24.88
3885.202	35.88
3887.792	20.88
3890.38	1.88
3892.966	-27.12
3895.55	-43.12
3898.132	-29.12
3900.713	-31.12
3903.291	-35.12
3905.868	-39.12
3908.442	-34.12
3911.015	-37.12
3913.586	-38.12
3916.155	-35.12
3918.722	-41.12
3921.287	-44.12
3923.85	-44.12
3926.411	-44.12
3928.971	-41.12
3931.528	-33.12
3934.084	-38.12
3936.638	-47.12
3939.19	-30.12
3941.74	-31.12
3944.288	-38.12
3946.834	-37.12
3949.378	-25.12
3951.921	-36.12
3954.462	-29.12
3957	-36.12
3959.537	-25.12
3962.072	-38.12
3964.606	-49.12
3967.137	-35.12
3969.667	-45.12
3972.194	-31.12
3974.72	-41.12
3977.244	-59.12
3979.766	-41.12
3982.286	-40.12
3984.805	-31.12
3987.321	-26.12
3989.836	-32.12
3992.349	-42.12
3994.86	-37.12
3997.369	-42.12
3999.877	-39.12
4002.382	-37.12
4004.886	-25.12
4007.388	-34.12
4009.888	-23.12
4012.386	-30.12
4014.883	-28.12
4017.377	-36.12
4019.87	-28.12
4022.361	-43.12
4024.85	-31.12
4027.338	-32.12
4029.823	-40.12
4032.307	-32.12
4034.789	-33.12
4037.269	-31.12
4039.747	-45.12
4042.224	-22.12
4044.699	-41.12
4047.172	-39.12
4049.643	-30.12
4052.112	-57.12
4054.58	-35.12
4057.046	-46.12
4059.51	-38.12
4061.972	-37.12
4064.432	-55.12
4066.891	-24.12
4069.348	-32.12
4071.803	-31.12
4074.256	-40.12
4076.708	-24.12
4079.158	-33.12
4081.606	-17.12
4084.052	-34.12
4086.497	-29.12
4088.939	-31.12
4091.38	-36.12
4093.819	-27.12
4096.257	-0.12
4098.693	-5.12
4101.127	-6.12
4103.559	2.88
4105.989	44.88
4108.418	48.88
4110.845	36.88
4113.27	41.88
4115.694	48.88
4118.115	32.88
4120.535	-29.12
4122.954	-25.12
4125.37	-23.12
4127.785	-31.12
4130.198	-22.12
4132.609	-32.12
4135.019	6.88
4137.427	-2.12
4139.833	5.88
4142.237	-2.12
