Data from 2018-3-6_conc=3_n=6_RamanShift_01.txt Node
Date: Tue Mar 06 13:29:49 GMT+02:00 2018
User: LAB3
Spectrometer: QEPB0276
Trigger mode: 0
Integration Time (sec): 3.000000E1
Scans to average: 1
Electric dark correction enabled: true
Nonlinearity correction enabled: false
Boxcar width: 0
XAxis mode: Raman Shifts
Number of Pixels in Spectrum: 1044
>>>>>Begin Spectral Data<<<<<
160.701	127.75
166.742	159.75
172.777	241.75
178.805	479.75
184.826	1119.75
190.841	2214.75
196.849	3533.75
202.85	4476.75
208.845	4833.75
214.833	4861.75
220.815	4802.75
226.789	4807.75
232.758	4826.75
238.719	4861.75
244.674	4845.75
250.623	4842.75
256.565	4799.75
262.5	4738.75
268.429	4735.75
274.351	4658.75
280.267	4676.75
286.176	4708.75
292.079	4712.75
297.975	4730.75
303.865	4730.75
309.748	4768.75
315.625	4753.75
321.495	4792.75
327.359	4767.75
333.217	4823.75
339.068	4826.75
344.912	4844.75
350.751	4871.75
356.583	4878.75
362.408	4938.75
368.227	4907.75
374.04	4935.75
379.847	4959.75
385.647	5015.75
391.44	4999.75
397.228	5055.75
403.009	5078.75
408.784	5095.75
414.553	5079.75
420.315	5132.75
426.071	5119.75
431.821	5145.75
437.565	5097.75
443.302	5110.75
449.033	5079.75
454.758	5071.75
460.477	5049.75
466.189	4974.75
471.896	4947.75
477.596	4877.75
483.29	4871.75
488.978	4877.75
494.66	4802.75
500.335	4695.75
506.005	4505.75
511.668	4279.75
517.325	4095.75
522.977	3924.75
528.622	3803.75
534.261	3689.75
539.894	3642.75
545.521	3593.75
551.141	3515.75
556.756	3486.75
562.365	3471.75
567.968	3457.75
573.565	3405.75
579.155	3395.75
584.74	3390.75
590.319	3392.75
595.892	3370.75
601.459	3365.75
607.02	3357.75
612.575	3330.75
618.124	3291.75
623.667	3230.75
629.204	3203.75
634.735	3179.75
640.261	3137.75
645.781	3081.75
651.294	3094.75
656.802	3060.75
662.304	3050.75
667.8	3074.75
673.29	3035.75
678.775	3042.75
684.254	3014.75
689.726	3012.75
695.193	3014.75
700.655	2972.75
706.11	2960.75
711.56	2940.75
717.004	2950.75
722.442	2905.75
727.874	2904.75
733.301	2884.75
738.722	2891.75
744.137	2886.75
749.547	2876.75
754.951	2865.75
760.349	2871.75
765.741	2889.75
771.128	2918.75
776.509	2936.75
781.885	2998.75
787.254	3020.75
792.618	3024.75
797.977	3036.75
803.33	3002.75
808.677	2992.75
814.019	2963.75
819.355	2943.75
824.686	2911.75
830.011	2872.75
835.33	2891.75
840.644	2869.75
845.952	2826.75
851.255	2841.75
856.552	2787.75
861.844	2761.75
867.13	2712.75
872.41	2686.75
877.686	2681.75
882.955	2643.75
888.219	2590.75
893.478	2588.75
898.731	2588.75
903.979	2540.75
909.221	2496.75
914.458	2510.75
919.69	2498.75
924.916	2518.75
930.136	2499.75
935.351	2493.75
940.561	2503.75
945.766	2489.75
950.965	2500.75
956.158	2467.75
961.347	2444.75
966.529	2408.75
971.707	2386.75
976.879	2379.75
982.046	2336.75
987.208	2320.75
992.364	2330.75
997.515	2335.75
1002.66	2343.75
1007.801	2372.75
1012.936	2364.75
1018.066	2384.75
1023.19	2412.75
1028.309	2429.75
1033.423	2397.75
1038.532	2419.75
1043.636	2402.75
1048.734	2375.75
1053.827	2342.75
1058.915	2333.75
1063.998	2320.75
1069.075	2311.75
1074.147	2320.75
1079.214	2281.75
1084.276	2320.75
1089.333	2304.75
1094.385	2327.75
1099.431	2307.75
1104.472	2320.75
1109.509	2275.75
1114.54	2272.75
1119.565	2223.75
1124.586	2171.75
1129.602	2177.75
1134.613	2122.75
1139.618	2143.75
1144.619	2124.75
1149.614	2120.75
1154.604	2132.75
1159.589	2158.75
1164.57	2166.75
1169.545	2161.75
1174.515	2165.75
1179.48	2162.75
1184.44	2137.75
1189.395	2128.75
1194.345	2108.75
1199.29	2094.75
1204.23	2089.75
1209.165	2076.75
1214.095	2092.75
1219.021	2124.75
1223.941	2105.75
1228.856	2109.75
1233.766	2149.75
1238.672	2123.75
1243.572	2126.75
1248.467	2106.75
1253.358	2087.75
1258.244	2064.75
1263.124	2036.75
1268	2005.75
1272.871	1937.75
1277.737	1934.75
1282.599	1931.75
1287.455	1936.75
1292.306	1928.75
1297.153	1920.75
1301.995	1945.75
1306.832	1937.75
1311.664	1943.75
1316.491	1937.75
1321.314	1947.75
1326.132	1926.75
1330.945	1895.75
1335.753	1860.75
1340.556	1858.75
1345.354	1809.75
1350.148	1786.75
1354.937	1776.75
1359.722	1755.75
1364.501	1731.75
1369.276	1738.75
1374.046	1728.75
1378.811	1726.75
1383.572	1729.75
1388.327	1706.75
1393.079	1694.75
1397.825	1697.75
1402.567	1670.75
1407.304	1663.75
1412.036	1661.75
1416.764	1663.75
1421.487	1632.75
1426.205	1626.75
1430.919	1628.75
1435.628	1648.75
1440.333	1654.75
1445.032	1682.75
1449.727	1687.75
1454.418	1706.75
1459.104	1679.75
1463.785	1688.75
1468.462	1643.75
1473.134	1631.75
1477.802	1605.75
1482.465	1553.75
1487.123	1564.75
1491.777	1525.75
1496.426	1517.75
1501.071	1556.75
1505.711	1536.75
1510.347	1562.75
1514.978	1584.75
1519.604	1556.75
1524.226	1570.75
1528.844	1559.75
1533.457	1544.75
1538.065	1544.75
1542.669	1522.75
1547.269	1506.75
1551.864	1512.75
1556.454	1502.75
1561.041	1499.75
1565.622	1501.75
1570.199	1505.75
1574.772	1519.75
1579.34	1524.75
1583.904	1551.75
1588.464	1553.75
1593.019	1567.75
1597.569	1560.75
1602.115	1541.75
1606.657	1530.75
1611.195	1556.75
1615.728	1548.75
1620.256	1534.75
1624.78	1501.75
1629.3	1529.75
1633.816	1529.75
1638.327	1530.75
1642.834	1544.75
1647.336	1556.75
1651.834	1563.75
1656.328	1565.75
1660.817	1558.75
1665.302	1530.75
1669.783	1520.75
1674.259	1487.75
1678.732	1470.75
1683.199	1441.75
1687.663	1381.75
1692.122	1358.75
1696.577	1353.75
1701.028	1322.75
1705.474	1298.75
1709.917	1263.75
1714.355	1251.75
1718.788	1241.75
1723.218	1211.75
1727.643	1196.75
1732.064	1195.75
1736.481	1156.75
1740.893	1151.75
1745.301	1145.75
1749.705	1087.75
1754.105	1087.75
1758.501	1055.75
1762.893	1055.75
1767.28	1010.75
1771.663	1023.75
1776.042	1003.75
1780.417	1003.75
1784.787	1016.75
1789.154	1034.75
1793.516	1022.75
1797.874	1003.75
1802.228	1000.75
1806.578	979.75
1810.924	995.75
1815.266	866.75
1819.603	973.75
1823.937	953.75
1828.266	949.75
1832.591	947.75
1836.913	944.75
1841.23	935.75
1845.543	918.75
1849.852	929.75
1854.156	918.75
1858.457	925.75
1862.754	912.75
1867.047	927.75
1871.335	951.75
1875.62	929.75
1879.9	930.75
1884.177	918.75
1888.449	920.75
1892.718	912.75
1896.982	910.75
1901.243	894.75
1905.499	901.75
1909.752	897.75
1914	868.75
1918.245	908.75
1922.485	888.75
1926.722	893.75
1930.954	897.75
1935.183	921.75
1939.408	919.75
1943.628	904.75
1947.845	892.75
1952.058	880.75
1956.267	865.75
1960.472	874.75
1964.673	850.75
1968.87	841.75
1973.063	828.75
1977.252	815.75
1981.438	800.75
1985.619	795.75
1989.797	777.75
1993.971	780.75
1998.14	787.75
2002.306	781.75
2006.469	781.75
2010.627	770.75
2014.781	774.75
2018.932	766.75
2023.078	772.75
2027.221	761.75
2031.36	735.75
2035.495	734.75
2039.627	740.75
2043.754	735.75
2047.878	723.75
2051.998	711.75
2056.114	717.75
2060.226	719.75
2064.334	715.75
2068.439	721.75
2072.54	728.75
2076.637	721.75
2080.73	725.75
2084.82	724.75
2088.906	729.75
2092.988	730.75
2097.066	719.75
2101.14	721.75
2105.211	714.75
2109.278	701.75
2113.342	690.75
2117.401	676.75
2121.457	680.75
2125.509	652.75
2129.558	667.75
2133.602	661.75
2137.643	656.75
2141.681	655.75
2145.714	643.75
2149.744	649.75
2153.77	640.75
2157.793	623.75
2161.812	596.75
2165.827	590.75
2169.838	613.75
2173.846	591.75
2177.851	585.75
2181.851	585.75
2185.848	570.75
2189.841	569.75
2193.831	562.75
2197.817	557.75
2201.799	556.75
2205.778	538.75
2209.753	539.75
2213.725	538.75
2217.693	539.75
2221.657	530.75
2225.618	537.75
2229.575	524.75
2233.529	533.75
2237.479	524.75
2241.425	509.75
2245.368	508.75
2249.307	493.75
2253.243	485.75
2257.175	492.75
2261.104	466.75
2265.029	477.75
2268.95	472.75
2272.868	462.75
2276.783	453.75
2280.694	454.75
2284.601	452.75
2288.505	441.75
2292.405	443.75
2296.302	423.75
2300.195	428.75
2304.085	395.75
2307.971	420.75
2311.854	393.75
2315.734	397.75
2319.609	396.75
2323.482	373.75
2327.351	383.75
2331.216	380.75
2335.078	380.75
2338.937	378.75
2342.792	368.75
2346.643	371.75
2350.492	379.75
2354.336	369.75
2358.178	381.75
2362.015	368.75
2365.85	369.75
2369.681	371.75
2373.508	368.75
2377.333	370.75
2381.153	381.75
2384.971	359.75
2388.785	366.75
2392.595	350.75
2396.402	350.75
2400.206	327.75
2404.007	349.75
2407.804	354.75
2411.597	347.75
2415.388	346.75
2419.174	343.75
2422.958	341.75
2426.738	342.75
2430.515	346.75
2434.289	329.75
2438.059	333.75
2441.825	332.75
2445.589	335.75
2449.349	319.75
2453.106	324.75
2456.859	322.75
2460.61	329.75
2464.356	308.75
2468.1	305.75
2471.84	307.75
2475.577	310.75
2479.311	299.75
2483.041	300.75
2486.768	320.75
2490.492	316.75
2494.213	308.75
2497.93	288.75
2501.644	283.75
2505.355	302.75
2509.062	299.75
2512.766	287.75
2516.467	296.75
2520.165	286.75
2523.859	265.75
2527.551	308.75
2531.239	286.75
2534.923	286.75
2538.605	277.75
2542.283	285.75
2545.958	277.75
2549.63	288.75
2553.299	287.75
2556.964	277.75
2560.626	278.75
2564.285	269.75
2567.941	256.75
2571.594	263.75
2575.243	274.75
2578.89	264.75
2582.533	261.75
2586.173	253.75
2589.809	263.75
2593.443	235.75
2597.073	252.75
2600.701	252.75
2604.325	244.75
2607.946	238.75
2611.564	253.75
2615.178	243.75
2618.79	243.75
2622.398	235.75
2626.004	249.75
2629.606	235.75
2633.205	228.75
2636.801	241.75
2640.394	234.75
2643.983	223.75
2647.57	217.75
2651.153	219.75
2654.734	229.75
2658.311	198.75
2661.885	208.75
2665.456	210.75
2669.025	206.75
2672.589	202.75
2676.151	211.75
2679.71	211.75
2683.266	200.75
2686.819	198.75
2690.368	192.75
2693.915	195.75
2697.458	200.75
2700.999	190.75
2704.536	185.75
2708.071	192.75
2711.602	187.75
2715.13	185.75
2718.656	165.75
2722.178	185.75
2725.697	162.75
2729.214	172.75
2732.727	185.75
2736.237	167.75
2739.744	179.75
2743.249	167.75
2746.75	175.75
2750.248	172.75
2753.743	177.75
2757.236	176.75
2760.725	180.75
2764.211	148.75
2767.695	182.75
2771.175	169.75
2774.652	179.75
2778.127	165.75
2781.598	172.75
2785.067	169.75
2788.532	158.75
2791.995	171.75
2795.455	165.75
2798.911	175.75
2802.365	173.75
2805.816	166.75
2809.264	183.75
2812.709	168.75
2816.151	173.75
2819.59	162.75
2823.026	162.75
2826.46	165.75
2829.89	176.75
2833.318	142.75
2836.742	164.75
2840.164	170.75
2843.583	178.75
2846.999	168.75
2850.412	173.75
2853.822	167.75
2857.229	184.75
2860.634	179.75
2864.035	155.75
2867.434	186.75
2870.83	186.75
2874.223	179.75
2877.613	187.75
2881	186.75
2884.385	184.75
2887.766	175.75
2891.145	188.75
2894.521	188.75
2897.894	180.75
2901.264	195.75
2904.631	192.75
2907.996	195.75
2911.358	197.75
2914.717	190.75
2918.073	194.75
2921.426	190.75
2924.777	189.75
2928.124	196.75
2931.469	211.75
2934.811	196.75
2938.15	213.75
2941.487	210.75
2944.821	225.75
2948.152	209.75
2951.48	220.75
2954.805	199.75
2958.128	230.75
2961.447	209.75
2964.765	229.75
2968.079	219.75
2971.39	220.75
2974.699	219.75
2978.005	226.75
2981.308	219.75
2984.609	228.75
2987.907	232.75
2991.202	238.75
2994.494	223.75
2997.784	242.75
3001.07	233.75
3004.355	234.75
3007.636	236.75
3010.915	245.75
3014.191	236.75
3017.464	245.75
3020.734	247.75
3024.002	254.75
3027.267	252.75
3030.53	243.75
3033.789	252.75
3037.046	256.75
3040.301	251.75
3043.552	270.75
3046.801	280.75
3050.048	285.75
3053.291	301.75
3056.532	292.75
3059.771	291.75
3063.006	317.75
3066.239	309.75
3069.469	325.75
3072.697	324.75
3075.922	330.75
3079.144	335.75
3082.364	360.75
3085.581	356.75
3088.795	372.75
3092.007	373.75
3095.216	386.75
3098.423	384.75
3101.627	364.75
3104.828	399.75
3108.026	398.75
3111.222	428.75
3114.416	435.75
3117.607	432.75
3120.795	435.75
3123.98	452.75
3127.163	450.75
3130.344	477.75
3133.521	463.75
3136.696	496.75
3139.869	502.75
3143.039	485.75
3146.206	526.75
3149.371	523.75
3152.533	509.75
3155.693	504.75
3158.85	536.75
3162.005	541.75
3165.157	523.75
3168.306	536.75
3171.453	550.75
3174.597	520.75
3177.739	523.75
3180.878	541.75
3184.014	540.75
3187.149	542.75
3190.28	546.75
3193.409	559.75
3196.536	547.75
3199.659	570.75
3202.781	571.75
3205.9	528.75
3209.016	550.75
3212.13	549.75
3215.241	549.75
3218.35	549.75
3221.456	532.75
3224.56	528.75
3227.661	524.75
3230.76	533.75
3233.856	512.75
3236.95	528.75
3240.041	513.75
3243.13	512.75
3246.216	511.75
3249.3	521.75
3252.382	504.75
3255.46	500.75
3258.537	459.75
3261.611	501.75
3264.682	494.75
3267.751	491.75
3270.818	492.75
3273.882	499.75
3276.943	487.75
3280.002	494.75
3283.059	478.75
3286.113	475.75
3289.165	464.75
3292.214	465.75
3295.261	471.75
3298.306	445.75
3301.348	447.75
3304.387	434.75
3307.425	444.75
3310.459	432.75
3313.492	430.75
3316.521	424.75
3319.549	426.75
3322.574	421.75
3325.597	415.75
3328.617	409.75
3331.635	407.75
3334.65	388.75
3337.663	409.75
3340.674	406.75
3343.682	405.75
3346.688	398.75
3349.691	404.75
3352.692	387.75
3355.691	399.75
3358.687	401.75
3361.681	395.75
3364.673	386.75
3367.662	390.75
3370.649	380.75
3373.633	365.75
3376.615	372.75
3379.595	350.75
3382.572	353.75
3385.547	355.75
3388.52	348.75
3391.49	336.75
3394.458	349.75
3397.424	344.75
3400.387	327.75
3403.348	345.75
3406.307	323.75
3409.263	326.75
3412.217	333.75
3415.168	327.75
3418.118	333.75
3421.065	313.75
3424.009	324.75
3426.951	301.75
3429.891	315.75
3432.829	310.75
3435.764	297.75
3438.697	285.75
3441.628	294.75
3444.557	265.75
3447.483	264.75
3450.407	260.75
3453.328	252.75
3456.247	248.75
3459.164	242.75
3462.079	249.75
3464.991	234.75
3467.902	228.75
3470.809	216.75
3473.715	223.75
3476.618	200.75
3479.519	199.75
3482.418	182.75
3485.315	186.75
3488.209	180.75
3491.101	191.75
3493.99	161.75
3496.878	171.75
3499.763	169.75
3502.646	165.75
3505.527	153.75
3508.405	149.75
3511.281	128.75
3514.155	144.75
3517.027	140.75
3519.897	118.75
3522.764	123.75
3525.629	102.75
3528.492	117.75
3531.352	112.75
3534.211	104.75
3537.067	101.75
3539.921	94.75
3542.773	95.75
3545.622	77.75
3548.469	76.75
3551.315	70.75
3554.157	78.75
3556.998	68.75
3559.837	62.75
3562.673	66.75
3565.507	56.75
3568.339	52.75
3571.169	53.75
3573.996	55.75
3576.822	33.75
3579.645	40.75
3582.466	41.75
3585.285	45.75
3588.101	38.75
3590.916	26.75
3593.728	40.75
3596.538	28.75
3599.346	32.75
3602.152	16.75
3604.956	26.75
3607.757	27.75
3610.556	12.75
3613.354	24.75
3616.149	16.75
3618.942	21.75
3621.732	21.75
3624.521	9.75
3627.307	-0.25
3630.092	1.75
3632.874	17.75
3635.654	4.75
3638.432	3.75
3641.208	-1.25
3643.982	1.75
3646.753	7.75
3649.523	-20.25
3652.29	-5.25
3655.055	4.75
3657.818	-1.25
3660.579	-9.25
3663.338	-14.25
3666.095	-10.25
3668.849	-28.25
3671.602	-5.25
3674.352	-22.25
3677.101	-2.25
3679.847	-3.25
3682.591	-19.25
3685.333	-28.25
3688.073	-14.25
3690.811	-23.25
3693.547	-30.25
3696.281	-29.25
3699.013	-17.25
3701.742	-19.25
3704.47	-27.25
3707.195	-18.25
3709.919	-19.25
3712.64	-24.25
3715.359	-32.25
3718.076	-11.25
3720.792	-19.25
3723.505	-17.25
3726.216	-14.25
3728.925	-24.25
3731.632	-26.25
3734.336	-23.25
3737.039	-26.25
3739.74	-17.25
3742.439	-46.25
3745.136	-20.25
3747.83	-18.25
3750.523	-22.25
3753.213	-94.25
3755.902	-27.25
3758.589	-42.25
3761.273	-33.25
3763.956	-20.25
3766.636	-39.25
3769.315	-23.25
3771.991	-29.25
3774.665	-31.25
3777.338	-30.25
3780.008	-37.25
3782.677	-32.25
3785.343	-43.25
3788.007	-43.25
3790.67	-24.25
3793.33	-38.25
3795.989	-34.25
3798.645	-31.25
3801.299	-40.25
3803.952	-38.25
3806.602	-36.25
3809.251	-24.25
3811.897	-29.25
3814.542	-34.25
3817.184	-36.25
3819.825	-26.25
3822.463	-46.25
3825.1	-32.25
3827.735	-25.25
3830.367	-36.25
3832.998	-17.25
3835.627	-32.25
3838.253	-24.25
3840.878	-31.25
3843.501	-17.25
3846.122	-28.25
3848.741	-21.25
3851.358	-24.25
3853.973	-41.25
3856.586	-23.25
3859.197	-33.25
3861.806	-30.25
3864.414	-41.25
3867.019	-26.25
3869.622	-16.25
3872.224	-19.25
3874.823	-2.25
3877.421	27.75
3880.016	46.75
3882.61	77.75
3885.202	96.75
3887.792	66.75
3890.38	36.75
3892.966	-4.25
3895.55	-24.25
3898.132	-19.25
3900.713	-18.25
3903.291	-29.25
3905.868	-37.25
3908.442	-26.25
3911.015	-29.25
3913.586	-33.25
3916.155	-30.25
3918.722	-36.25
3921.287	-33.25
3923.85	-41.25
3926.411	-41.25
3928.971	-35.25
3931.528	-27.25
3934.084	-34.25
3936.638	-44.25
3939.19	-29.25
3941.74	-30.25
3944.288	-33.25
3946.834	-32.25
3949.378	-26.25
3951.921	-37.25
3954.462	-33.25
3957	-28.25
3959.537	-21.25
3962.072	-32.25
3964.606	-48.25
3967.137	-32.25
3969.667	-31.25
3972.194	-27.25
3974.72	-31.25
3977.244	-54.25
3979.766	-38.25
3982.286	-40.25
3984.805	-25.25
3987.321	-20.25
3989.836	-28.25
3992.349	-31.25
3994.86	-34.25
3997.369	-35.25
3999.877	-34.25
4002.382	-30.25
4004.886	-24.25
4007.388	-28.25
4009.888	-20.25
4012.386	-21.25
4014.883	-26.25
4017.377	-27.25
4019.87	-26.25
4022.361	-36.25
4024.85	-27.25
4027.338	-29.25
4029.823	-33.25
4032.307	-29.25
4034.789	-28.25
4037.269	-28.25
4039.747	-44.25
4042.224	-21.25
4044.699	-36.25
4047.172	-36.25
4049.643	-22.25
4052.112	-52.25
4054.58	-26.25
4057.046	-38.25
4059.51	-28.25
4061.972	-30.25
4064.432	-49.25
4066.891	-19.25
4069.348	-30.25
4071.803	-25.25
4074.256	-34.25
4076.708	-24.25
4079.158	-30.25
4081.606	-22.25
4084.052	-29.25
4086.497	-22.25
4088.939	-29.25
4091.38	-35.25
4093.819	-25.25
4096.257	1.75
4098.693	-2.25
4101.127	-4.25
4103.559	-1.25
4105.989	113.75
4108.418	114.75
4110.845	103.75
4113.27	115.75
4115.694	118.75
4118.115	108.75
4120.535	-24.25
4122.954	-24.25
4125.37	-18.25
4127.785	-27.25
4130.198	-16.25
4132.609	-25.25
4135.019	4.75
4137.427	-0.25
4139.833	4.75
4142.237	-3.25
