Data from 2018-3-6_conc=5_n=3_RamanShift_03.txt Node
Date: Tue Mar 06 14:29:18 GMT+02:00 2018
User: LAB3
Spectrometer: QEPB0276
Trigger mode: 0
Integration Time (sec): 3.000000E1
Scans to average: 1
Electric dark correction enabled: true
Nonlinearity correction enabled: false
Boxcar width: 0
XAxis mode: Raman Shifts
Number of Pixels in Spectrum: 1044
>>>>>Begin Spectral Data<<<<<
160.701	49.75
166.742	67.75
172.777	110.75
178.805	213.75
184.826	495.75
190.841	1001.75
196.849	1586.75
202.85	1988.75
208.845	2113.75
214.833	2105.75
220.815	2053.75
226.789	2016.75
232.758	2036.75
238.719	2010.75
244.674	1954.75
250.623	1955.75
256.565	1929.75
262.5	1891.75
268.429	1889.75
274.351	1850.75
280.267	1837.75
286.176	1829.75
292.079	1834.75
297.975	1815.75
303.865	1823.75
309.748	1803.75
315.625	1801.75
321.495	1798.75
327.359	1794.75
333.217	1795.75
339.068	1810.75
344.912	1809.75
350.751	1806.75
356.583	1785.75
362.408	1805.75
368.227	1825.75
374.04	1825.75
379.847	1841.75
385.647	1834.75
391.44	1819.75
397.228	1833.75
403.009	1848.75
408.784	1846.75
414.553	1854.75
420.315	1851.75
426.071	1852.75
431.821	1860.75
437.565	1870.75
443.302	1859.75
449.033	1843.75
454.758	1837.75
460.477	1820.75
466.189	1805.75
471.896	1796.75
477.596	1773.75
483.29	1741.75
488.978	1752.75
494.66	1729.75
500.335	1693.75
506.005	1621.75
511.668	1552.75
517.325	1477.75
522.977	1402.75
528.622	1382.75
534.261	1336.75
539.894	1302.75
545.521	1296.75
551.141	1281.75
556.756	1259.75
562.365	1261.75
567.968	1244.75
573.565	1235.75
579.155	1222.75
584.74	1239.75
590.319	1229.75
595.892	1227.75
601.459	1233.75
607.02	1211.75
612.575	1210.75
618.124	1191.75
623.667	1164.75
629.204	1152.75
634.735	1120.75
640.261	1118.75
645.781	1091.75
651.294	1100.75
656.802	1111.75
662.304	1113.75
667.8	1116.75
673.29	1093.75
678.775	1100.75
684.254	1087.75
689.726	1073.75
695.193	1096.75
700.655	1073.75
706.11	1072.75
711.56	1066.75
717.004	1066.75
722.442	1043.75
727.874	1040.75
733.301	1055.75
738.722	1033.75
744.137	1044.75
749.547	1047.75
754.951	1023.75
760.349	1034.75
765.741	1054.75
771.128	1053.75
776.509	1054.75
781.885	1079.75
787.254	1093.75
792.618	1085.75
797.977	1084.75
803.33	1082.75
808.677	1063.75
814.019	1061.75
819.355	1056.75
824.686	1033.75
830.011	1034.75
835.33	1043.75
840.644	1039.75
845.952	1009.75
851.255	1035.75
856.552	998.75
861.844	993.75
867.13	977.75
872.41	970.75
877.686	964.75
882.955	969.75
888.219	953.75
893.478	924.75
898.731	938.75
903.979	919.75
909.221	910.75
914.458	902.75
919.69	891.75
924.916	908.75
930.136	895.75
935.351	900.75
940.561	903.75
945.766	903.75
950.965	897.75
956.158	899.75
961.347	880.75
966.529	872.75
971.707	870.75
976.879	851.75
982.046	837.75
987.208	820.75
992.364	842.75
997.515	824.75
1002.66	839.75
1007.801	843.75
1012.936	860.75
1018.066	831.75
1023.19	862.75
1028.309	864.75
1033.423	864.75
1038.532	872.75
1043.636	853.75
1048.734	858.75
1053.827	837.75
1058.915	824.75
1063.998	822.75
1069.075	819.75
1074.147	816.75
1079.214	801.75
1084.276	839.75
1089.333	828.75
1094.385	840.75
1099.431	821.75
1104.472	820.75
1109.509	803.75
1114.54	802.75
1119.565	797.75
1124.586	785.75
1129.602	767.75
1134.613	756.75
1139.618	744.75
1144.619	764.75
1149.614	759.75
1154.604	754.75
1159.589	757.75
1164.57	774.75
1169.545	779.75
1174.515	774.75
1179.48	758.75
1184.44	774.75
1189.395	768.75
1194.345	735.75
1199.29	749.75
1204.23	743.75
1209.165	727.75
1214.095	768.75
1219.021	752.75
1223.941	739.75
1228.856	751.75
1233.766	765.75
1238.672	765.75
1243.572	769.75
1248.467	752.75
1253.358	744.75
1258.244	731.75
1263.124	730.75
1268	720.75
1272.871	697.75
1277.737	688.75
1282.599	683.75
1287.455	681.75
1292.306	684.75
1297.153	676.75
1301.995	691.75
1306.832	686.75
1311.664	696.75
1316.491	680.75
1321.314	686.75
1326.132	689.75
1330.945	671.75
1335.753	660.75
1340.556	644.75
1345.354	639.75
1350.148	630.75
1354.937	632.75
1359.722	611.75
1364.501	607.75
1369.276	620.75
1374.046	620.75
1378.811	616.75
1383.572	611.75
1388.327	604.75
1393.079	590.75
1397.825	581.75
1402.567	590.75
1407.304	589.75
1412.036	583.75
1416.764	583.75
1421.487	576.75
1426.205	573.75
1430.919	583.75
1435.628	577.75
1440.333	571.75
1445.032	595.75
1449.727	594.75
1454.418	607.75
1459.104	594.75
1463.785	573.75
1468.462	586.75
1473.134	574.75
1477.802	553.75
1482.465	528.75
1487.123	550.75
1491.777	518.75
1496.426	526.75
1501.071	542.75
1505.711	539.75
1510.347	539.75
1514.978	546.75
1519.604	536.75
1524.226	547.75
1528.844	532.75
1533.457	542.75
1538.065	534.75
1542.669	531.75
1547.269	528.75
1551.864	535.75
1556.454	510.75
1561.041	519.75
1565.622	526.75
1570.199	524.75
1574.772	526.75
1579.34	537.75
1583.904	542.75
1588.464	557.75
1593.019	551.75
1597.569	538.75
1602.115	545.75
1606.657	536.75
1611.195	552.75
1615.728	549.75
1620.256	539.75
1624.78	506.75
1629.3	523.75
1633.816	533.75
1638.327	527.75
1642.834	545.75
1647.336	527.75
1651.834	548.75
1656.328	560.75
1660.817	526.75
1665.302	519.75
1669.783	511.75
1674.259	510.75
1678.732	498.75
1683.199	486.75
1687.663	469.75
1692.122	464.75
1696.577	463.75
1701.028	467.75
1705.474	438.75
1709.917	426.75
1714.355	424.75
1718.788	421.75
1723.218	404.75
1727.643	399.75
1732.064	402.75
1736.481	398.75
1740.893	393.75
1745.301	380.75
1749.705	360.75
1754.105	375.75
1758.501	357.75
1762.893	359.75
1767.28	333.75
1771.663	343.75
1776.042	327.75
1780.417	336.75
1784.787	341.75
1789.154	343.75
1793.516	342.75
1797.874	339.75
1802.228	323.75
1806.578	309.75
1810.924	331.75
1815.266	222.75
1819.603	334.75
1823.937	320.75
1828.266	319.75
1832.591	321.75
1836.913	315.75
1841.23	309.75
1845.543	310.75
1849.852	319.75
1854.156	307.75
1858.457	304.75
1862.754	307.75
1867.047	308.75
1871.335	317.75
1875.62	315.75
1879.9	310.75
1884.177	300.75
1888.449	304.75
1892.718	298.75
1896.982	309.75
1901.243	285.75
1905.499	297.75
1909.752	284.75
1914	280.75
1918.245	294.75
1922.485	287.75
1926.722	295.75
1930.954	280.75
1935.183	287.75
1939.408	301.75
1943.628	292.75
1947.845	289.75
1952.058	292.75
1956.267	283.75
1960.472	287.75
1964.673	276.75
1968.87	276.75
1973.063	272.75
1977.252	272.75
1981.438	269.75
1985.619	257.75
1989.797	247.75
1993.971	256.75
1998.14	263.75
2002.306	256.75
2006.469	261.75
2010.627	248.75
2014.781	244.75
2018.932	235.75
2023.078	261.75
2027.221	256.75
2031.36	244.75
2035.495	243.75
2039.627	247.75
2043.754	245.75
2047.878	228.75
2051.998	230.75
2056.114	228.75
2060.226	224.75
2064.334	240.75
2068.439	237.75
2072.54	239.75
2076.637	226.75
2080.73	224.75
2084.82	230.75
2088.906	227.75
2092.988	219.75
2097.066	238.75
2101.14	242.75
2105.211	232.75
2109.278	220.75
2113.342	217.75
2117.401	220.75
2121.457	201.75
2125.509	207.75
2129.558	220.75
2133.602	210.75
2137.643	211.75
2141.681	202.75
2145.714	207.75
2149.744	204.75
2153.77	218.75
2157.793	196.75
2161.812	172.75
2165.827	173.75
2169.838	206.75
2173.846	189.75
2177.851	182.75
2181.851	193.75
2185.848	184.75
2189.841	185.75
2193.831	178.75
2197.817	178.75
2201.799	175.75
2205.778	165.75
2209.753	164.75
2213.725	165.75
2217.693	179.75
2221.657	156.75
2225.618	168.75
2229.575	170.75
2233.529	170.75
2237.479	171.75
2241.425	164.75
2245.368	153.75
2249.307	165.75
2253.243	145.75
2257.175	155.75
2261.104	143.75
2265.029	154.75
2268.95	147.75
2272.868	145.75
2276.783	139.75
2280.694	147.75
2284.601	143.75
2288.505	137.75
2292.405	151.75
2296.302	124.75
2300.195	138.75
2304.085	100.75
2307.971	124.75
2311.854	114.75
2315.734	122.75
2319.609	132.75
2323.482	103.75
2327.351	114.75
2331.216	114.75
2335.078	123.75
2338.937	112.75
2342.792	108.75
2346.643	113.75
2350.492	119.75
2354.336	115.75
2358.178	117.75
2362.015	117.75
2365.85	111.75
2369.681	110.75
2373.508	125.75
2377.333	127.75
2381.153	118.75
2384.971	104.75
2388.785	116.75
2392.595	109.75
2396.402	101.75
2400.206	83.75
2404.007	98.75
2407.804	105.75
2411.597	103.75
2415.388	101.75
2419.174	101.75
2422.958	101.75
2426.738	98.75
2430.515	106.75
2434.289	93.75
2438.059	95.75
2441.825	96.75
2445.589	104.75
2449.349	78.75
2453.106	96.75
2456.859	93.75
2460.61	96.75
2464.356	84.75
2468.1	78.75
2471.84	79.75
2475.577	84.75
2479.311	82.75
2483.041	83.75
2486.768	97.75
2490.492	98.75
2494.213	88.75
2497.93	77.75
2501.644	70.75
2505.355	85.75
2509.062	81.75
2512.766	76.75
2516.467	68.75
2520.165	78.75
2523.859	65.75
2527.551	100.75
2531.239	65.75
2534.923	78.75
2538.605	79.75
2542.283	79.75
2545.958	76.75
2549.63	89.75
2553.299	81.75
2556.964	64.75
2560.626	69.75
2564.285	79.75
2567.941	60.75
2571.594	61.75
2575.243	75.75
2578.89	68.75
2582.533	66.75
2586.173	66.75
2589.809	72.75
2593.443	54.75
2597.073	67.75
2600.701	68.75
2604.325	65.75
2607.946	55.75
2611.564	77.75
2615.178	64.75
2618.79	66.75
2622.398	56.75
2626.004	65.75
2629.606	67.75
2633.205	52.75
2636.801	69.75
2640.394	61.75
2643.983	54.75
2647.57	59.75
2651.153	59.75
2654.734	64.75
2658.311	29.75
2661.885	47.75
2665.456	51.75
2669.025	49.75
2672.589	48.75
2676.151	61.75
2679.71	63.75
2683.266	51.75
2686.819	46.75
2690.368	47.75
2693.915	55.75
2697.458	50.75
2700.999	57.75
2704.536	50.75
2708.071	49.75
2711.602	46.75
2715.13	48.75
2718.656	28.75
2722.178	45.75
2725.697	35.75
2729.214	39.75
2732.727	41.75
2736.237	25.75
2739.744	35.75
2743.249	34.75
2746.75	38.75
2750.248	32.75
2753.743	38.75
2757.236	35.75
2760.725	42.75
2764.211	13.75
2767.695	40.75
2771.175	35.75
2774.652	43.75
2778.127	32.75
2781.598	35.75
2785.067	36.75
2788.532	20.75
2791.995	32.75
2795.455	28.75
2798.911	40.75
2802.365	27.75
2805.816	37.75
2809.264	49.75
2812.709	39.75
2816.151	40.75
2819.59	23.75
2823.026	27.75
2826.46	31.75
2829.89	39.75
2833.318	15.75
2836.742	37.75
2840.164	38.75
2843.583	31.75
2846.999	37.75
2850.412	41.75
2853.822	36.75
2857.229	45.75
2860.634	33.75
2864.035	17.75
2867.434	42.75
2870.83	42.75
2874.223	32.75
2877.613	38.75
2881	30.75
2884.385	34.75
2887.766	34.75
2891.145	35.75
2894.521	37.75
2897.894	31.75
2901.264	45.75
2904.631	43.75
2907.996	45.75
2911.358	53.75
2914.717	46.75
2918.073	41.75
2921.426	35.75
2924.777	25.75
2928.124	36.75
2931.469	58.75
2934.811	36.75
2938.15	59.75
2941.487	49.75
2944.821	65.75
2948.152	40.75
2951.48	56.75
2954.805	42.75
2958.128	68.75
2961.447	50.75
2964.765	70.75
2968.079	53.75
2971.39	52.75
2974.699	55.75
2978.005	58.75
2981.308	55.75
2984.609	50.75
2987.907	56.75
2991.202	64.75
2994.494	44.75
2997.784	57.75
3001.07	58.75
3004.355	49.75
3007.636	57.75
3010.915	60.75
3014.191	58.75
3017.464	63.75
3020.734	59.75
3024.002	62.75
3027.267	62.75
3030.53	70.75
3033.789	66.75
3037.046	63.75
3040.301	58.75
3043.552	66.75
3046.801	76.75
3050.048	85.75
3053.291	96.75
3056.532	79.75
3059.771	67.75
3063.006	83.75
3066.239	84.75
3069.469	91.75
3072.697	84.75
3075.922	81.75
3079.144	84.75
3082.364	106.75
3085.581	89.75
3088.795	118.75
3092.007	107.75
3095.216	109.75
3098.423	103.75
3101.627	82.75
3104.828	116.75
3108.026	102.75
3111.222	130.75
3114.416	133.75
3117.607	121.75
3120.795	127.75
3123.98	126.75
3127.163	119.75
3130.344	124.75
3133.521	125.75
3136.696	145.75
3139.869	136.75
3143.039	127.75
3146.206	159.75
3149.371	161.75
3152.533	155.75
3155.693	143.75
3158.85	154.75
3162.005	155.75
3165.157	155.75
3168.306	151.75
3171.453	162.75
3174.597	158.75
3177.739	147.75
3180.878	159.75
3184.014	162.75
3187.149	165.75
3190.28	162.75
3193.409	164.75
3196.536	161.75
3199.659	170.75
3202.781	170.75
3205.9	151.75
3209.016	162.75
3212.13	165.75
3215.241	156.75
3218.35	165.75
3221.456	153.75
3224.56	153.75
3227.661	150.75
3230.76	147.75
3233.856	142.75
3236.95	145.75
3240.041	135.75
3243.13	151.75
3246.216	151.75
3249.3	149.75
3252.382	154.75
3255.46	135.75
3258.537	96.75
3261.611	138.75
3264.682	139.75
3267.751	140.75
3270.818	126.75
3273.882	141.75
3276.943	137.75
3280.002	159.75
3283.059	131.75
3286.113	138.75
3289.165	129.75
3292.214	126.75
3295.261	147.75
3298.306	121.75
3301.348	127.75
3304.387	116.75
3307.425	130.75
3310.459	126.75
3313.492	134.75
3316.521	116.75
3319.549	129.75
3322.574	125.75
3325.597	118.75
3328.617	114.75
3331.635	117.75
3334.65	97.75
3337.663	119.75
3340.674	109.75
3343.682	113.75
3346.688	116.75
3349.691	109.75
3352.692	111.75
3355.691	118.75
3358.687	107.75
3361.681	113.75
3364.673	110.75
3367.662	113.75
3370.649	115.75
3373.633	102.75
3376.615	107.75
3379.595	90.75
3382.572	94.75
3385.547	88.75
3388.52	89.75
3391.49	82.75
3394.458	91.75
3397.424	98.75
3400.387	79.75
3403.348	88.75
3406.307	88.75
3409.263	85.75
3412.217	91.75
3415.168	96.75
3418.118	96.75
3421.065	78.75
3424.009	96.75
3426.951	79.75
3429.891	78.75
3432.829	72.75
3435.764	74.75
3438.697	65.75
3441.628	79.75
3444.557	58.75
3447.483	61.75
3450.407	68.75
3453.328	62.75
3456.247	58.75
3459.164	51.75
3462.079	69.75
3464.991	52.75
3467.902	50.75
3470.809	53.75
3473.715	53.75
3476.618	47.75
3479.519	45.75
3482.418	26.75
3485.315	30.75
3488.209	36.75
3491.101	34.75
3493.99	21.75
3496.878	23.75
3499.763	28.75
3502.646	27.75
3505.527	20.75
3508.405	19.75
3511.281	9.75
3514.155	22.75
3517.027	16.75
3519.897	6.75
3522.764	14.75
3525.629	-2.25
3528.492	8.75
3531.352	15.75
3534.211	6.75
3537.067	4.75
3539.921	3.75
3542.773	14.75
3545.622	-3.25
3548.469	-6.25
3551.315	-8.25
3554.157	-3.25
3556.998	-11.25
3559.837	-6.25
3562.673	-2.25
3565.507	-16.25
3568.339	-11.25
3571.169	-13.25
3573.996	-10.25
3576.822	-25.25
3579.645	-16.25
3582.466	-15.25
3585.285	-4.25
3588.101	-11.25
3590.916	-22.25
3593.728	-8.25
3596.538	-14.25
3599.346	-18.25
3602.152	-27.25
3604.956	-18.25
3607.757	-16.25
3610.556	-30.25
3613.354	-16.25
3616.149	-20.25
3618.942	-15.25
3621.732	-14.25
3624.521	-22.25
3627.307	-30.25
3630.092	-21.25
3632.874	-10.25
3635.654	-18.25
3638.432	-28.25
3641.208	-29.25
3643.982	-23.25
3646.753	-16.25
3649.523	-50.25
3652.29	-30.25
3655.055	-18.25
3657.818	-24.25
3660.579	-25.25
3663.338	-38.25
3666.095	-32.25
3668.849	-49.25
3671.602	-21.25
3674.352	-38.25
3677.101	-26.25
3679.847	-18.25
3682.591	-35.25
3685.333	-39.25
3688.073	-31.25
3690.811	-40.25
3693.547	-43.25
3696.281	-40.25
3699.013	-27.25
3701.742	-34.25
3704.47	-43.25
3707.195	-26.25
3709.919	-32.25
3712.64	-32.25
3715.359	-48.25
3718.076	-21.25
3720.792	-31.25
3723.505	-28.25
3726.216	-21.25
3728.925	-32.25
3731.632	-39.25
3734.336	-35.25
3737.039	-28.25
3739.74	-33.25
3742.439	-56.25
3745.136	-27.25
3747.83	-30.25
3750.523	-29.25
3753.213	-92.25
3755.902	-38.25
3758.589	-52.25
3761.273	-37.25
3763.956	-24.25
3766.636	-47.25
3769.315	-24.25
3771.991	-32.25
3774.665	-38.25
3777.338	-32.25
3780.008	-44.25
3782.677	-35.25
3785.343	-52.25
3788.007	-51.25
3790.67	-32.25
3793.33	-44.25
3795.989	-34.25
3798.645	-37.25
3801.299	-47.25
3803.952	-43.25
3806.602	-38.25
3809.251	-29.25
3811.897	-39.25
3814.542	-36.25
3817.184	-36.25
3819.825	-34.25
3822.463	-46.25
3825.1	-35.25
3827.735	-33.25
3830.367	-44.25
3832.998	-24.25
3835.627	-35.25
3838.253	-26.25
3840.878	-39.25
3843.501	-18.25
3846.122	-31.25
3848.741	-27.25
3851.358	-30.25
3853.973	-48.25
3856.586	-23.25
3859.197	-44.25
3861.806	-32.25
3864.414	-44.25
3867.019	-36.25
3869.622	-25.25
3872.224	-28.25
3874.823	-20.25
3877.421	-2.25
3880.016	1.75
3882.61	35.75
3885.202	37.75
3887.792	24.75
3890.38	9.75
3892.966	-20.25
3895.55	-33.25
3898.132	-28.25
3900.713	-25.25
3903.291	-28.25
3905.868	-40.25
3908.442	-29.25
3911.015	-36.25
3913.586	-39.25
3916.155	-40.25
3918.722	-36.25
3921.287	-40.25
3923.85	-46.25
3926.411	-38.25
3928.971	-35.25
3931.528	-30.25
3934.084	-34.25
3936.638	-44.25
3939.19	-26.25
3941.74	-29.25
3944.288	-35.25
3946.834	-35.25
3949.378	-25.25
3951.921	-42.25
3954.462	-37.25
3957	-36.25
3959.537	-24.25
3962.072	-36.25
3964.606	-50.25
3967.137	-36.25
3969.667	-38.25
3972.194	-33.25
3974.72	-41.25
3977.244	-63.25
3979.766	-40.25
3982.286	-43.25
3984.805	-30.25
3987.321	-24.25
3989.836	-26.25
3992.349	-40.25
3994.86	-33.25
3997.369	-42.25
3999.877	-38.25
4002.382	-37.25
4004.886	-29.25
4007.388	-30.25
4009.888	-28.25
4012.386	-29.25
4014.883	-27.25
4017.377	-29.25
4019.87	-33.25
4022.361	-45.25
4024.85	-35.25
4027.338	-35.25
4029.823	-37.25
4032.307	-37.25
4034.789	-32.25
4037.269	-32.25
4039.747	-44.25
4042.224	-26.25
4044.699	-38.25
4047.172	-37.25
4049.643	-27.25
4052.112	-53.25
4054.58	-31.25
4057.046	-42.25
4059.51	-33.25
4061.972	-34.25
4064.432	-48.25
4066.891	-24.25
4069.348	-34.25
4071.803	-32.25
4074.256	-38.25
4076.708	-33.25
4079.158	-31.25
4081.606	-22.25
4084.052	-37.25
4086.497	-31.25
4088.939	-38.25
4091.38	-36.25
4093.819	-28.25
4096.257	0.75
4098.693	-5.25
4101.127	-6.25
4103.559	-2.25
4105.989	53.75
4108.418	55.75
4110.845	38.75
4113.27	50.75
4115.694	52.75
4118.115	41.75
4120.535	-32.25
4122.954	-28.25
4125.37	-23.25
4127.785	-27.25
4130.198	-24.25
4132.609	-29.25
4135.019	6.75
4137.427	3.75
4139.833	6.75
4142.237	-4.25
