Data from 2018-3-6_conc=5_n=8_RamanShift_01.txt Node
Date: Tue Mar 06 14:44:18 GMT+02:00 2018
User: LAB3
Spectrometer: QEPB0276
Trigger mode: 0
Integration Time (sec): 3.000000E1
Scans to average: 1
Electric dark correction enabled: true
Nonlinearity correction enabled: false
Boxcar width: 0
XAxis mode: Raman Shifts
Number of Pixels in Spectrum: 1044
>>>>>Begin Spectral Data<<<<<
160.701	55.38
166.742	70.38
172.777	99.38
178.805	186.38
184.826	435.38
190.841	873.38
196.849	1373.38
202.85	1756.38
208.845	1860.38
214.833	1850.38
220.815	1802.38
226.789	1765.38
232.758	1788.38
238.719	1757.38
244.674	1694.38
250.623	1694.38
256.565	1644.38
262.5	1640.38
268.429	1596.38
274.351	1600.38
280.267	1578.38
286.176	1574.38
292.079	1575.38
297.975	1566.38
303.865	1562.38
309.748	1554.38
315.625	1538.38
321.495	1538.38
327.359	1547.38
333.217	1545.38
339.068	1536.38
344.912	1546.38
350.751	1556.38
356.583	1544.38
362.408	1553.38
368.227	1558.38
374.04	1548.38
379.847	1558.38
385.647	1570.38
391.44	1571.38
397.228	1579.38
403.009	1591.38
408.784	1596.38
414.553	1608.38
420.315	1620.38
426.071	1587.38
431.821	1607.38
437.565	1601.38
443.302	1583.38
449.033	1570.38
454.758	1582.38
460.477	1568.38
466.189	1542.38
471.896	1531.38
477.596	1515.38
483.29	1498.38
488.978	1507.38
494.66	1480.38
500.335	1454.38
506.005	1386.38
511.668	1315.38
517.325	1250.38
522.977	1189.38
528.622	1154.38
534.261	1135.38
539.894	1094.38
545.521	1098.38
551.141	1066.38
556.756	1054.38
562.365	1050.38
567.968	1051.38
573.565	1018.38
579.155	1036.38
584.74	1019.38
590.319	1020.38
595.892	1008.38
601.459	1031.38
607.02	1021.38
612.575	1011.38
618.124	1004.38
623.667	998.38
629.204	977.38
634.735	955.38
640.261	933.38
645.781	917.38
651.294	926.38
656.802	928.38
662.304	945.38
667.8	949.38
673.29	929.38
678.775	936.38
684.254	919.38
689.726	895.38
695.193	918.38
700.655	899.38
706.11	895.38
711.56	898.38
717.004	880.38
722.442	879.38
727.874	859.38
733.301	876.38
738.722	855.38
744.137	873.38
749.547	861.38
754.951	868.38
760.349	848.38
765.741	885.38
771.128	867.38
776.509	874.38
781.885	905.38
787.254	905.38
792.618	911.38
797.977	912.38
803.33	895.38
808.677	900.38
814.019	873.38
819.355	882.38
824.686	877.38
830.011	862.38
835.33	899.38
840.644	866.38
845.952	839.38
851.255	848.38
856.552	852.38
861.844	827.38
867.13	805.38
872.41	808.38
877.686	798.38
882.955	800.38
888.219	784.38
893.478	782.38
898.731	781.38
903.979	770.38
909.221	758.38
914.458	735.38
919.69	742.38
924.916	744.38
930.136	745.38
935.351	744.38
940.561	759.38
945.766	747.38
950.965	754.38
956.158	744.38
961.347	724.38
966.529	714.38
971.707	734.38
976.879	719.38
982.046	705.38
987.208	682.38
992.364	700.38
997.515	702.38
1002.66	691.38
1007.801	689.38
1012.936	705.38
1018.066	694.38
1023.19	712.38
1028.309	715.38
1033.423	732.38
1038.532	723.38
1043.636	714.38
1048.734	707.38
1053.827	691.38
1058.915	682.38
1063.998	693.38
1069.075	683.38
1074.147	696.38
1079.214	665.38
1084.276	695.38
1089.333	692.38
1094.385	697.38
1099.431	694.38
1104.472	691.38
1109.509	671.38
1114.54	673.38
1119.565	660.38
1124.586	653.38
1129.602	629.38
1134.613	621.38
1139.618	623.38
1144.619	637.38
1149.614	645.38
1154.604	640.38
1159.589	630.38
1164.57	656.38
1169.545	651.38
1174.515	648.38
1179.48	636.38
1184.44	630.38
1189.395	636.38
1194.345	621.38
1199.29	626.38
1204.23	618.38
1209.165	604.38
1214.095	622.38
1219.021	620.38
1223.941	609.38
1228.856	620.38
1233.766	639.38
1238.672	636.38
1243.572	621.38
1248.467	623.38
1253.358	618.38
1258.244	607.38
1263.124	610.38
1268	604.38
1272.871	564.38
1277.737	561.38
1282.599	556.38
1287.455	560.38
1292.306	558.38
1297.153	557.38
1301.995	571.38
1306.832	573.38
1311.664	568.38
1316.491	556.38
1321.314	570.38
1326.132	552.38
1330.945	567.38
1335.753	552.38
1340.556	546.38
1345.354	534.38
1350.148	525.38
1354.937	533.38
1359.722	504.38
1364.501	511.38
1369.276	521.38
1374.046	524.38
1378.811	507.38
1383.572	516.38
1388.327	515.38
1393.079	494.38
1397.825	504.38
1402.567	497.38
1407.304	483.38
1412.036	496.38
1416.764	491.38
1421.487	462.38
1426.205	479.38
1430.919	476.38
1435.628	476.38
1440.333	470.38
1445.032	481.38
1449.727	482.38
1454.418	493.38
1459.104	495.38
1463.785	475.38
1468.462	484.38
1473.134	485.38
1477.802	477.38
1482.465	443.38
1487.123	458.38
1491.777	435.38
1496.426	433.38
1501.071	460.38
1505.711	443.38
1510.347	459.38
1514.978	453.38
1519.604	453.38
1524.226	462.38
1528.844	440.38
1533.457	452.38
1538.065	456.38
1542.669	451.38
1547.269	443.38
1551.864	443.38
1556.454	424.38
1561.041	434.38
1565.622	439.38
1570.199	440.38
1574.772	454.38
1579.34	459.38
1583.904	458.38
1588.464	470.38
1593.019	474.38
1597.569	433.38
1602.115	454.38
1606.657	448.38
1611.195	463.38
1615.728	465.38
1620.256	444.38
1624.78	432.38
1629.3	452.38
1633.816	453.38
1638.327	445.38
1642.834	457.38
1647.336	451.38
1651.834	457.38
1656.328	454.38
1660.817	454.38
1665.302	439.38
1669.783	438.38
1674.259	421.38
1678.732	420.38
1683.199	408.38
1687.663	395.38
1692.122	408.38
1696.577	385.38
1701.028	396.38
1705.474	365.38
1709.917	357.38
1714.355	358.38
1718.788	362.38
1723.218	347.38
1727.643	326.38
1732.064	335.38
1736.481	316.38
1740.893	325.38
1745.301	324.38
1749.705	294.38
1754.105	306.38
1758.501	290.38
1762.893	304.38
1767.28	277.38
1771.663	286.38
1776.042	279.38
1780.417	276.38
1784.787	285.38
1789.154	292.38
1793.516	281.38
1797.874	288.38
1802.228	279.38
1806.578	277.38
1810.924	285.38
1815.266	165.38
1819.603	270.38
1823.937	269.38
1828.266	265.38
1832.591	271.38
1836.913	257.38
1841.23	259.38
1845.543	259.38
1849.852	266.38
1854.156	259.38
1858.457	252.38
1862.754	255.38
1867.047	254.38
1871.335	266.38
1875.62	259.38
1879.9	266.38
1884.177	251.38
1888.449	256.38
1892.718	258.38
1896.982	259.38
1901.243	239.38
1905.499	249.38
1909.752	232.38
1914	232.38
1918.245	252.38
1922.485	247.38
1926.722	237.38
1930.954	234.38
1935.183	245.38
1939.408	242.38
1943.628	243.38
1947.845	245.38
1952.058	232.38
1956.267	231.38
1960.472	239.38
1964.673	237.38
1968.87	227.38
1973.063	220.38
1977.252	223.38
1981.438	225.38
1985.619	219.38
1989.797	197.38
1993.971	208.38
1998.14	229.38
2002.306	216.38
2006.469	219.38
2010.627	208.38
2014.781	201.38
2018.932	199.38
2023.078	227.38
2027.221	210.38
2031.36	201.38
2035.495	200.38
2039.627	206.38
2043.754	205.38
2047.878	192.38
2051.998	195.38
2056.114	192.38
2060.226	182.38
2064.334	208.38
2068.439	201.38
2072.54	211.38
2076.637	187.38
2080.73	196.38
2084.82	195.38
2088.906	190.38
2092.988	192.38
2097.066	192.38
2101.14	204.38
2105.211	202.38
2109.278	187.38
2113.342	176.38
2117.401	168.38
2121.457	165.38
2125.509	170.38
2129.558	176.38
2133.602	176.38
2137.643	166.38
2141.681	160.38
2145.714	173.38
2149.744	170.38
2153.77	174.38
2157.793	158.38
2161.812	142.38
2165.827	141.38
2169.838	171.38
2173.846	156.38
2177.851	150.38
2181.851	161.38
2185.848	157.38
2189.841	156.38
2193.831	152.38
2197.817	151.38
2201.799	145.38
2205.778	138.38
2209.753	140.38
2213.725	136.38
2217.693	145.38
2221.657	134.38
2225.618	140.38
2229.575	141.38
2233.529	139.38
2237.479	149.38
2241.425	135.38
2245.368	126.38
2249.307	134.38
2253.243	130.38
2257.175	129.38
2261.104	119.38
2265.029	128.38
2268.95	119.38
2272.868	123.38
2276.783	113.38
2280.694	121.38
2284.601	116.38
2288.505	116.38
2292.405	121.38
2296.302	99.38
2300.195	111.38
2304.085	80.38
2307.971	105.38
2311.854	92.38
2315.734	100.38
2319.609	100.38
2323.482	78.38
2327.351	94.38
2331.216	97.38
2335.078	97.38
2338.937	90.38
2342.792	87.38
2346.643	88.38
2350.492	87.38
2354.336	93.38
2358.178	96.38
2362.015	92.38
2365.85	86.38
2369.681	91.38
2373.508	93.38
2377.333	100.38
2381.153	97.38
2384.971	85.38
2388.785	98.38
2392.595	81.38
2396.402	83.38
2400.206	63.38
2404.007	74.38
2407.804	84.38
2411.597	88.38
2415.388	81.38
2419.174	79.38
2422.958	80.38
2426.738	78.38
2430.515	86.38
2434.289	72.38
2438.059	74.38
2441.825	70.38
2445.589	81.38
2449.349	65.38
2453.106	78.38
2456.859	73.38
2460.61	79.38
2464.356	60.38
2468.1	62.38
2471.84	57.38
2475.577	67.38
2479.311	64.38
2483.041	66.38
2486.768	70.38
2490.492	75.38
2494.213	63.38
2497.93	55.38
2501.644	54.38
2505.355	67.38
2509.062	63.38
2512.766	61.38
2516.467	65.38
2520.165	57.38
2523.859	54.38
2527.551	80.38
2531.239	53.38
2534.923	57.38
2538.605	51.38
2542.283	59.38
2545.958	56.38
2549.63	62.38
2553.299	64.38
2556.964	48.38
2560.626	51.38
2564.285	52.38
2567.941	38.38
2571.594	37.38
2575.243	55.38
2578.89	39.38
2582.533	48.38
2586.173	43.38
2589.809	51.38
2593.443	26.38
2597.073	48.38
2600.701	47.38
2604.325	48.38
2607.946	34.38
2611.564	60.38
2615.178	53.38
2618.79	48.38
2622.398	37.38
2626.004	52.38
2629.606	44.38
2633.205	40.38
2636.801	38.38
2640.394	47.38
2643.983	43.38
2647.57	32.38
2651.153	32.38
2654.734	49.38
2658.311	24.38
2661.885	31.38
2665.456	33.38
2669.025	38.38
2672.589	32.38
2676.151	49.38
2679.71	47.38
2683.266	36.38
2686.819	28.38
2690.368	43.38
2693.915	41.38
2697.458	37.38
2700.999	39.38
2704.536	38.38
2708.071	36.38
2711.602	36.38
2715.13	28.38
2718.656	18.38
2722.178	32.38
2725.697	19.38
2729.214	23.38
2732.727	31.38
2736.237	15.38
2739.744	20.38
2743.249	22.38
2746.75	28.38
2750.248	18.38
2753.743	27.38
2757.236	28.38
2760.725	28.38
2764.211	2.38
2767.695	27.38
2771.175	18.38
2774.652	25.38
2778.127	21.38
2781.598	20.38
2785.067	25.38
2788.532	11.38
2791.995	26.38
2795.455	15.38
2798.911	28.38
2802.365	19.38
2805.816	24.38
2809.264	31.38
2812.709	12.38
2816.151	30.38
2819.59	13.38
2823.026	22.38
2826.46	16.38
2829.89	26.38
2833.318	8.38
2836.742	23.38
2840.164	20.38
2843.583	21.38
2846.999	21.38
2850.412	27.38
2853.822	18.38
2857.229	36.38
2860.634	32.38
2864.035	10.38
2867.434	30.38
2870.83	34.38
2874.223	25.38
2877.613	27.38
2881	20.38
2884.385	18.38
2887.766	25.38
2891.145	28.38
2894.521	23.38
2897.894	16.38
2901.264	29.38
2904.631	31.38
2907.996	32.38
2911.358	38.38
2914.717	33.38
2918.073	23.38
2921.426	20.38
2924.777	7.38
2928.124	20.38
2931.469	43.38
2934.811	21.38
2938.15	40.38
2941.487	35.38
2944.821	50.38
2948.152	33.38
2951.48	42.38
2954.805	25.38
2958.128	43.38
2961.447	30.38
2964.765	53.38
2968.079	40.38
2971.39	42.38
2974.699	41.38
2978.005	45.38
2981.308	38.38
2984.609	30.38
2987.907	43.38
2991.202	47.38
2994.494	37.38
2997.784	45.38
3001.07	42.38
3004.355	31.38
3007.636	46.38
3010.915	42.38
3014.191	36.38
3017.464	44.38
3020.734	48.38
3024.002	46.38
3027.267	48.38
3030.53	52.38
3033.789	49.38
3037.046	44.38
3040.301	40.38
3043.552	52.38
3046.801	51.38
3050.048	57.38
3053.291	79.38
3056.532	63.38
3059.771	45.38
3063.006	66.38
3066.239	71.38
3069.469	72.38
3072.697	64.38
3075.922	64.38
3079.144	69.38
3082.364	97.38
3085.581	73.38
3088.795	94.38
3092.007	93.38
3095.216	88.38
3098.423	89.38
3101.627	61.38
3104.828	90.38
3108.026	82.38
3111.222	102.38
3114.416	118.38
3117.607	99.38
3120.795	101.38
3123.98	102.38
3127.163	91.38
3130.344	105.38
3133.521	98.38
3136.696	122.38
3139.869	118.38
3143.039	97.38
3146.206	134.38
3149.371	128.38
3152.533	126.38
3155.693	113.38
3158.85	132.38
3162.005	138.38
3165.157	124.38
3168.306	136.38
3171.453	138.38
3174.597	121.38
3177.739	117.38
3180.878	132.38
3184.014	134.38
3187.149	135.38
3190.28	131.38
3193.409	140.38
3196.536	138.38
3199.659	147.38
3202.781	142.38
3205.9	120.38
3209.016	139.38
3212.13	138.38
3215.241	137.38
3218.35	133.38
3221.456	127.38
3224.56	126.38
3227.661	126.38
3230.76	118.38
3233.856	119.38
3236.95	129.38
3240.041	120.38
3243.13	129.38
3246.216	131.38
3249.3	131.38
3252.382	126.38
3255.46	114.38
3258.537	74.38
3261.611	109.38
3264.682	117.38
3267.751	114.38
3270.818	111.38
3273.882	121.38
3276.943	117.38
3280.002	127.38
3283.059	105.38
3286.113	118.38
3289.165	105.38
3292.214	100.38
3295.261	120.38
3298.306	91.38
3301.348	108.38
3304.387	89.38
3307.425	103.38
3310.459	95.38
3313.492	112.38
3316.521	99.38
3319.549	109.38
3322.574	103.38
3325.597	95.38
3328.617	93.38
3331.635	91.38
3334.65	82.38
3337.663	96.38
3340.674	95.38
3343.682	91.38
3346.688	100.38
3349.691	86.38
3352.692	95.38
3355.691	95.38
3358.687	91.38
3361.681	92.38
3364.673	88.38
3367.662	94.38
3370.649	97.38
3373.633	76.38
3376.615	96.38
3379.595	67.38
3382.572	84.38
3385.547	66.38
3388.52	71.38
3391.49	81.38
3394.458	74.38
3397.424	78.38
3400.387	63.38
3403.348	76.38
3406.307	73.38
3409.263	70.38
3412.217	82.38
3415.168	79.38
3418.118	76.38
3421.065	64.38
3424.009	78.38
3426.951	60.38
3429.891	64.38
3432.829	64.38
3435.764	67.38
3438.697	51.38
3441.628	67.38
3444.557	43.38
3447.483	45.38
3450.407	56.38
3453.328	45.38
3456.247	43.38
3459.164	39.38
3462.079	52.38
3464.991	45.38
3467.902	41.38
3470.809	40.38
3473.715	46.38
3476.618	36.38
3479.519	36.38
3482.418	14.38
3485.315	23.38
3488.209	19.38
3491.101	26.38
3493.99	14.38
3496.878	15.38
3499.763	25.38
3502.646	26.38
3505.527	15.38
3508.405	16.38
3511.281	-2.62
3514.155	19.38
3517.027	16.38
3519.897	6.38
3522.764	12.38
3525.629	-6.62
3528.492	8.38
3531.352	8.38
3534.211	6.38
3537.067	4.38
3539.921	4.38
3542.773	5.38
3545.622	-8.62
3548.469	-12.62
3551.315	-11.62
3554.157	-3.62
3556.998	-15.62
3559.837	-11.62
3562.673	-5.62
3565.507	-11.62
3568.339	-19.62
3571.169	-9.62
3573.996	-13.62
3576.822	-30.62
3579.645	-24.62
3582.466	-24.62
3585.285	-14.62
3588.101	-20.62
3590.916	-18.62
3593.728	-11.62
3596.538	-18.62
3599.346	-13.62
3602.152	-22.62
3604.956	-21.62
3607.757	-12.62
3610.556	-34.62
3613.354	-12.62
3616.149	-17.62
3618.942	-15.62
3621.732	-15.62
3624.521	-26.62
3627.307	-29.62
3630.092	-27.62
3632.874	-14.62
3635.654	-19.62
3638.432	-28.62
3641.208	-28.62
3643.982	-22.62
3646.753	-11.62
3649.523	-47.62
3652.29	-28.62
3655.055	-20.62
3657.818	-25.62
3660.579	-28.62
3663.338	-34.62
3666.095	-34.62
3668.849	-46.62
3671.602	-22.62
3674.352	-40.62
3677.101	-21.62
3679.847	-16.62
3682.591	-37.62
3685.333	-42.62
3688.073	-26.62
3690.811	-34.62
3693.547	-39.62
3696.281	-40.62
3699.013	-30.62
3701.742	-34.62
3704.47	-40.62
3707.195	-32.62
3709.919	-29.62
3712.64	-35.62
3715.359	-45.62
3718.076	-19.62
3720.792	-35.62
3723.505	-30.62
3726.216	-22.62
3728.925	-36.62
3731.632	-37.62
3734.336	-33.62
3737.039	-33.62
3739.74	-34.62
3742.439	-56.62
3745.136	-27.62
3747.83	-30.62
3750.523	-27.62
3753.213	-96.62
3755.902	-31.62
3758.589	-47.62
3761.273	-37.62
3763.956	-25.62
3766.636	-46.62
3769.315	-23.62
3771.991	-34.62
3774.665	-38.62
3777.338	-29.62
3780.008	-44.62
3782.677	-31.62
3785.343	-47.62
3788.007	-51.62
3790.67	-26.62
3793.33	-39.62
3795.989	-36.62
3798.645	-26.62
3801.299	-41.62
3803.952	-43.62
3806.602	-38.62
3809.251	-29.62
3811.897	-31.62
3814.542	-35.62
3817.184	-38.62
3819.825	-30.62
3822.463	-46.62
3825.1	-33.62
3827.735	-31.62
3830.367	-42.62
3832.998	-17.62
3835.627	-37.62
3838.253	-23.62
3840.878	-33.62
3843.501	-22.62
3846.122	-28.62
3848.741	-24.62
3851.358	-21.62
3853.973	-40.62
3856.586	-25.62
3859.197	-37.62
3861.806	-33.62
3864.414	-43.62
3867.019	-33.62
3869.622	-26.62
3872.224	-20.62
3874.823	-14.62
3877.421	9.38
3880.016	20.38
3882.61	64.38
3885.202	79.38
3887.792	57.38
3890.38	24.38
3892.966	-9.62
3895.55	-31.62
3898.132	-24.62
3900.713	-27.62
3903.291	-33.62
3905.868	-40.62
3908.442	-33.62
3911.015	-34.62
3913.586	-38.62
3916.155	-37.62
3918.722	-38.62
3921.287	-34.62
3923.85	-47.62
3926.411	-41.62
3928.971	-36.62
3931.528	-29.62
3934.084	-41.62
3936.638	-41.62
3939.19	-28.62
3941.74	-29.62
3944.288	-39.62
3946.834	-32.62
3949.378	-22.62
3951.921	-37.62
3954.462	-30.62
3957	-33.62
3959.537	-25.62
3962.072	-34.62
3964.606	-43.62
3967.137	-34.62
3969.667	-37.62
3972.194	-29.62
3974.72	-36.62
3977.244	-56.62
3979.766	-44.62
3982.286	-39.62
3984.805	-33.62
3987.321	-26.62
3989.836	-30.62
3992.349	-44.62
3994.86	-35.62
3997.369	-41.62
3999.877	-34.62
4002.382	-37.62
4004.886	-34.62
4007.388	-37.62
4009.888	-23.62
4012.386	-29.62
4014.883	-32.62
4017.377	-36.62
4019.87	-26.62
4022.361	-43.62
4024.85	-33.62
4027.338	-33.62
4029.823	-38.62
4032.307	-36.62
4034.789	-34.62
4037.269	-34.62
4039.747	-46.62
4042.224	-27.62
4044.699	-43.62
4047.172	-37.62
4049.643	-34.62
4052.112	-61.62
4054.58	-35.62
4057.046	-46.62
4059.51	-37.62
4061.972	-34.62
4064.432	-51.62
4066.891	-22.62
4069.348	-36.62
4071.803	-34.62
4074.256	-37.62
4076.708	-26.62
4079.158	-31.62
4081.606	-24.62
4084.052	-36.62
4086.497	-28.62
4088.939	-33.62
4091.38	-38.62
4093.819	-33.62
4096.257	-2.62
4098.693	-7.62
4101.127	-5.62
4103.559	2.38
4105.989	57.38
4108.418	62.38
4110.845	46.38
4113.27	54.38
4115.694	58.38
4118.115	40.38
4120.535	-30.62
4122.954	-25.62
4125.37	-21.62
4127.785	-29.62
4130.198	-23.62
4132.609	-30.62
4135.019	8.38
4137.427	0.38
4139.833	7.38
4142.237	-2.62
