Data from 2018-3-6_conc=4_n=10_RamanShift_05.txt Node
Date: Tue Mar 06 14:20:48 GMT+02:00 2018
User: LAB3
Spectrometer: QEPB0276
Trigger mode: 0
Integration Time (sec): 3.000000E1
Scans to average: 1
Electric dark correction enabled: true
Nonlinearity correction enabled: false
Boxcar width: 0
XAxis mode: Raman Shifts
Number of Pixels in Spectrum: 1044
>>>>>Begin Spectral Data<<<<<
160.701	67.5
166.742	87.5
172.777	130.5
178.805	248.5
184.826	582.5
190.841	1176.5
196.849	1834.5
202.85	2329.5
208.845	2505.5
214.833	2478.5
220.815	2448.5
226.789	2423.5
232.758	2434.5
238.719	2403.5
244.674	2390.5
250.623	2353.5
256.565	2312.5
262.5	2299.5
268.429	2283.5
274.351	2259.5
280.267	2246.5
286.176	2260.5
292.079	2247.5
297.975	2246.5
303.865	2232.5
309.748	2239.5
315.625	2222.5
321.495	2238.5
327.359	2241.5
333.217	2229.5
339.068	2232.5
344.912	2243.5
350.751	2250.5
356.583	2260.5
362.408	2269.5
368.227	2281.5
374.04	2280.5
379.847	2287.5
385.647	2300.5
391.44	2303.5
397.228	2320.5
403.009	2331.5
408.784	2342.5
414.553	2342.5
420.315	2347.5
426.071	2341.5
431.821	2333.5
437.565	2337.5
443.302	2330.5
449.033	2311.5
454.758	2317.5
460.477	2287.5
466.189	2268.5
471.896	2241.5
477.596	2235.5
483.29	2203.5
488.978	2212.5
494.66	2190.5
500.335	2138.5
506.005	2009.5
511.668	1948.5
517.325	1839.5
522.977	1743.5
528.622	1686.5
534.261	1663.5
539.894	1607.5
545.521	1600.5
551.141	1551.5
556.756	1532.5
562.365	1511.5
567.968	1507.5
573.565	1495.5
579.155	1521.5
584.74	1484.5
590.319	1487.5
595.892	1490.5
601.459	1483.5
607.02	1473.5
612.575	1474.5
618.124	1450.5
623.667	1410.5
629.204	1409.5
634.735	1396.5
640.261	1358.5
645.781	1343.5
651.294	1345.5
656.802	1346.5
662.304	1352.5
667.8	1353.5
673.29	1340.5
678.775	1333.5
684.254	1323.5
689.726	1331.5
695.193	1335.5
700.655	1307.5
706.11	1302.5
711.56	1298.5
717.004	1300.5
722.442	1279.5
727.874	1275.5
733.301	1278.5
738.722	1257.5
744.137	1270.5
749.547	1255.5
754.951	1258.5
760.349	1262.5
765.741	1281.5
771.128	1275.5
776.509	1294.5
781.885	1327.5
787.254	1324.5
792.618	1330.5
797.977	1337.5
803.33	1319.5
808.677	1326.5
814.019	1295.5
819.355	1275.5
824.686	1264.5
830.011	1269.5
835.33	1288.5
840.644	1270.5
845.952	1231.5
851.255	1231.5
856.552	1225.5
861.844	1210.5
867.13	1174.5
872.41	1178.5
877.686	1155.5
882.955	1160.5
888.219	1153.5
893.478	1130.5
898.731	1136.5
903.979	1115.5
909.221	1104.5
914.458	1089.5
919.69	1090.5
924.916	1098.5
930.136	1091.5
935.351	1091.5
940.561	1108.5
945.766	1089.5
950.965	1090.5
956.158	1077.5
961.347	1048.5
966.529	1043.5
971.707	1053.5
976.879	1040.5
982.046	1010.5
987.208	1004.5
992.364	1017.5
997.515	1015.5
1002.66	1023.5
1007.801	1008.5
1012.936	1026.5
1018.066	1023.5
1023.19	1044.5
1028.309	1051.5
1033.423	1047.5
1038.532	1062.5
1043.636	1040.5
1048.734	1030.5
1053.827	1022.5
1058.915	1011.5
1063.998	1017.5
1069.075	999.5
1074.147	1019.5
1079.214	990.5
1084.276	1024.5
1089.333	1004.5
1094.385	1018.5
1099.431	1011.5
1104.472	1001.5
1109.509	991.5
1114.54	970.5
1119.565	958.5
1124.586	962.5
1129.602	934.5
1134.613	915.5
1139.618	930.5
1144.619	929.5
1149.614	936.5
1154.604	928.5
1159.589	924.5
1164.57	937.5
1169.545	954.5
1174.515	941.5
1179.48	949.5
1184.44	932.5
1189.395	936.5
1194.345	917.5
1199.29	917.5
1204.23	901.5
1209.165	897.5
1214.095	921.5
1219.021	918.5
1223.941	918.5
1228.856	910.5
1233.766	935.5
1238.672	925.5
1243.572	929.5
1248.467	927.5
1253.358	904.5
1258.244	879.5
1263.124	898.5
1268	878.5
1272.871	834.5
1277.737	834.5
1282.599	825.5
1287.455	823.5
1292.306	829.5
1297.153	829.5
1301.995	845.5
1306.832	834.5
1311.664	841.5
1316.491	849.5
1321.314	845.5
1326.132	834.5
1330.945	812.5
1335.753	808.5
1340.556	792.5
1345.354	786.5
1350.148	774.5
1354.937	767.5
1359.722	761.5
1364.501	754.5
1369.276	755.5
1374.046	762.5
1378.811	738.5
1383.572	746.5
1388.327	749.5
1393.079	716.5
1397.825	727.5
1402.567	727.5
1407.304	711.5
1412.036	712.5
1416.764	713.5
1421.487	701.5
1426.205	704.5
1430.919	709.5
1435.628	714.5
1440.333	714.5
1445.032	729.5
1449.727	726.5
1454.418	739.5
1459.104	733.5
1463.785	701.5
1468.462	713.5
1473.134	701.5
1477.802	690.5
1482.465	660.5
1487.123	680.5
1491.777	660.5
1496.426	635.5
1501.071	659.5
1505.711	655.5
1510.347	667.5
1514.978	676.5
1519.604	668.5
1524.226	685.5
1528.844	666.5
1533.457	664.5
1538.065	655.5
1542.669	647.5
1547.269	645.5
1551.864	657.5
1556.454	625.5
1561.041	642.5
1565.622	640.5
1570.199	655.5
1574.772	649.5
1579.34	662.5
1583.904	670.5
1588.464	687.5
1593.019	687.5
1597.569	666.5
1602.115	663.5
1606.657	652.5
1611.195	681.5
1615.728	674.5
1620.256	661.5
1624.78	627.5
1629.3	655.5
1633.816	650.5
1638.327	653.5
1642.834	668.5
1647.336	659.5
1651.834	667.5
1656.328	664.5
1660.817	658.5
1665.302	652.5
1669.783	631.5
1674.259	631.5
1678.732	614.5
1683.199	611.5
1687.663	574.5
1692.122	577.5
1696.577	582.5
1701.028	569.5
1705.474	545.5
1709.917	537.5
1714.355	526.5
1718.788	522.5
1723.218	515.5
1727.643	492.5
1732.064	506.5
1736.481	487.5
1740.893	491.5
1745.301	470.5
1749.705	453.5
1754.105	464.5
1758.501	440.5
1762.893	453.5
1767.28	421.5
1771.663	435.5
1776.042	414.5
1780.417	405.5
1784.787	425.5
1789.154	434.5
1793.516	422.5
1797.874	425.5
1802.228	415.5
1806.578	408.5
1810.924	422.5
1815.266	302.5
1819.603	413.5
1823.937	405.5
1828.266	407.5
1832.591	403.5
1836.913	390.5
1841.23	380.5
1845.543	389.5
1849.852	390.5
1854.156	376.5
1858.457	378.5
1862.754	383.5
1867.047	389.5
1871.335	395.5
1875.62	389.5
1879.9	389.5
1884.177	382.5
1888.449	386.5
1892.718	389.5
1896.982	381.5
1901.243	366.5
1905.499	379.5
1909.752	368.5
1914	352.5
1918.245	375.5
1922.485	378.5
1926.722	370.5
1930.954	360.5
1935.183	366.5
1939.408	377.5
1943.628	376.5
1947.845	364.5
1952.058	367.5
1956.267	341.5
1960.472	358.5
1964.673	357.5
1968.87	358.5
1973.063	352.5
1977.252	344.5
1981.438	327.5
1985.619	324.5
1989.797	318.5
1993.971	330.5
1998.14	336.5
2002.306	323.5
2006.469	329.5
2010.627	327.5
2014.781	317.5
2018.932	310.5
2023.078	342.5
2027.221	327.5
2031.36	309.5
2035.495	304.5
2039.627	304.5
2043.754	309.5
2047.878	296.5
2051.998	296.5
2056.114	290.5
2060.226	287.5
2064.334	303.5
2068.439	305.5
2072.54	310.5
2076.637	291.5
2080.73	292.5
2084.82	296.5
2088.906	286.5
2092.988	288.5
2097.066	299.5
2101.14	297.5
2105.211	297.5
2109.278	281.5
2113.342	279.5
2117.401	275.5
2121.457	272.5
2125.509	249.5
2129.558	278.5
2133.602	261.5
2137.643	268.5
2141.681	267.5
2145.714	264.5
2149.744	266.5
2153.77	268.5
2157.793	240.5
2161.812	230.5
2165.827	236.5
2169.838	256.5
2173.846	242.5
2177.851	237.5
2181.851	252.5
2185.848	234.5
2189.841	227.5
2193.831	231.5
2197.817	232.5
2201.799	224.5
2205.778	215.5
2209.753	212.5
2213.725	214.5
2217.693	222.5
2221.657	211.5
2225.618	217.5
2229.575	213.5
2233.529	217.5
2237.479	216.5
2241.425	202.5
2245.368	196.5
2249.307	208.5
2253.243	193.5
2257.175	205.5
2261.104	184.5
2265.029	196.5
2268.95	195.5
2272.868	182.5
2276.783	176.5
2280.694	182.5
2284.601	177.5
2288.505	178.5
2292.405	189.5
2296.302	162.5
2300.195	169.5
2304.085	143.5
2307.971	166.5
2311.854	144.5
2315.734	159.5
2319.609	166.5
2323.482	137.5
2327.351	149.5
2331.216	149.5
2335.078	159.5
2338.937	150.5
2342.792	143.5
2346.643	144.5
2350.492	155.5
2354.336	141.5
2358.178	150.5
2362.015	147.5
2365.85	150.5
2369.681	147.5
2373.508	152.5
2377.333	153.5
2381.153	155.5
2384.971	140.5
2388.785	142.5
2392.595	133.5
2396.402	136.5
2400.206	112.5
2404.007	126.5
2407.804	139.5
2411.597	137.5
2415.388	127.5
2419.174	127.5
2422.958	134.5
2426.738	126.5
2430.515	132.5
2434.289	122.5
2438.059	123.5
2441.825	121.5
2445.589	128.5
2449.349	110.5
2453.106	124.5
2456.859	116.5
2460.61	126.5
2464.356	107.5
2468.1	112.5
2471.84	108.5
2475.577	100.5
2479.311	110.5
2483.041	107.5
2486.768	117.5
2490.492	117.5
2494.213	111.5
2497.93	101.5
2501.644	93.5
2505.355	113.5
2509.062	102.5
2512.766	101.5
2516.467	101.5
2520.165	99.5
2523.859	92.5
2527.551	123.5
2531.239	99.5
2534.923	104.5
2538.605	95.5
2542.283	101.5
2545.958	98.5
2549.63	106.5
2553.299	106.5
2556.964	87.5
2560.626	95.5
2564.285	97.5
2567.941	78.5
2571.594	84.5
2575.243	98.5
2578.89	85.5
2582.533	92.5
2586.173	88.5
2589.809	90.5
2593.443	67.5
2597.073	86.5
2600.701	84.5
2604.325	93.5
2607.946	71.5
2611.564	85.5
2615.178	85.5
2618.79	88.5
2622.398	75.5
2626.004	87.5
2629.606	82.5
2633.205	67.5
2636.801	85.5
2640.394	80.5
2643.983	70.5
2647.57	74.5
2651.153	64.5
2654.734	79.5
2658.311	55.5
2661.885	63.5
2665.456	67.5
2669.025	68.5
2672.589	65.5
2676.151	84.5
2679.71	77.5
2683.266	68.5
2686.819	59.5
2690.368	68.5
2693.915	69.5
2697.458	67.5
2700.999	68.5
2704.536	66.5
2708.071	62.5
2711.602	64.5
2715.13	64.5
2718.656	45.5
2722.178	64.5
2725.697	41.5
2729.214	52.5
2732.727	55.5
2736.237	41.5
2739.744	52.5
2743.249	49.5
2746.75	51.5
2750.248	46.5
2753.743	56.5
2757.236	51.5
2760.725	60.5
2764.211	28.5
2767.695	58.5
2771.175	55.5
2774.652	57.5
2778.127	53.5
2781.598	56.5
2785.067	55.5
2788.532	40.5
2791.995	53.5
2795.455	40.5
2798.911	57.5
2802.365	47.5
2805.816	50.5
2809.264	59.5
2812.709	46.5
2816.151	61.5
2819.59	39.5
2823.026	44.5
2826.46	47.5
2829.89	59.5
2833.318	26.5
2836.742	45.5
2840.164	48.5
2843.583	46.5
2846.999	49.5
2850.412	60.5
2853.822	41.5
2857.229	58.5
2860.634	50.5
2864.035	43.5
2867.434	54.5
2870.83	62.5
2874.223	50.5
2877.613	48.5
2881	47.5
2884.385	53.5
2887.766	51.5
2891.145	62.5
2894.521	46.5
2897.894	47.5
2901.264	58.5
2904.631	52.5
2907.996	59.5
2911.358	66.5
2914.717	56.5
2918.073	54.5
2921.426	46.5
2924.777	44.5
2928.124	62.5
2931.469	65.5
2934.811	58.5
2938.15	80.5
2941.487	66.5
2944.821	78.5
2948.152	61.5
2951.48	74.5
2954.805	51.5
2958.128	76.5
2961.447	62.5
2964.765	82.5
2968.079	66.5
2971.39	70.5
2974.699	69.5
2978.005	73.5
2981.308	68.5
2984.609	61.5
2987.907	75.5
2991.202	82.5
2994.494	57.5
2997.784	72.5
3001.07	74.5
3004.355	71.5
3007.636	79.5
3010.915	76.5
3014.191	73.5
3017.464	77.5
3020.734	76.5
3024.002	79.5
3027.267	77.5
3030.53	79.5
3033.789	80.5
3037.046	81.5
3040.301	74.5
3043.552	91.5
3046.801	94.5
3050.048	100.5
3053.291	110.5
3056.532	99.5
3059.771	80.5
3063.006	103.5
3066.239	99.5
3069.469	110.5
3072.697	98.5
3075.922	100.5
3079.144	104.5
3082.364	127.5
3085.581	113.5
3088.795	128.5
3092.007	126.5
3095.216	131.5
3098.423	128.5
3101.627	107.5
3104.828	140.5
3108.026	133.5
3111.222	154.5
3114.416	159.5
3117.607	148.5
3120.795	151.5
3123.98	154.5
3127.163	142.5
3130.344	155.5
3133.521	156.5
3136.696	180.5
3139.869	174.5
3143.039	166.5
3146.206	187.5
3149.371	183.5
3152.533	183.5
3155.693	173.5
3158.85	186.5
3162.005	189.5
3165.157	180.5
3168.306	179.5
3171.453	194.5
3174.597	176.5
3177.739	176.5
3180.878	188.5
3184.014	190.5
3187.149	189.5
3190.28	194.5
3193.409	195.5
3196.536	196.5
3199.659	199.5
3202.781	203.5
3205.9	185.5
3209.016	192.5
3212.13	195.5
3215.241	193.5
3218.35	192.5
3221.456	181.5
3224.56	175.5
3227.661	188.5
3230.76	183.5
3233.856	178.5
3236.95	176.5
3240.041	173.5
3243.13	179.5
3246.216	181.5
3249.3	184.5
3252.382	180.5
3255.46	167.5
3258.537	122.5
3261.611	164.5
3264.682	172.5
3267.751	167.5
3270.818	154.5
3273.882	171.5
3276.943	164.5
3280.002	181.5
3283.059	155.5
3286.113	163.5
3289.165	152.5
3292.214	150.5
3295.261	172.5
3298.306	150.5
3301.348	156.5
3304.387	145.5
3307.425	153.5
3310.459	140.5
3313.492	152.5
3316.521	145.5
3319.549	157.5
3322.574	154.5
3325.597	141.5
3328.617	137.5
3331.635	142.5
3334.65	123.5
3337.663	142.5
3340.674	140.5
3343.682	140.5
3346.688	146.5
3349.691	142.5
3352.692	134.5
3355.691	133.5
3358.687	132.5
3361.681	132.5
3364.673	128.5
3367.662	129.5
3370.649	137.5
3373.633	125.5
3376.615	129.5
3379.595	113.5
3382.572	110.5
3385.547	112.5
3388.52	111.5
3391.49	114.5
3394.458	109.5
3397.424	120.5
3400.387	103.5
3403.348	105.5
3406.307	103.5
3409.263	111.5
3412.217	113.5
3415.168	109.5
3418.118	119.5
3421.065	99.5
3424.009	111.5
3426.951	92.5
3429.891	92.5
3432.829	99.5
3435.764	101.5
3438.697	88.5
3441.628	103.5
3444.557	78.5
3447.483	77.5
3450.407	86.5
3453.328	79.5
3456.247	69.5
3459.164	63.5
3462.079	84.5
3464.991	74.5
3467.902	66.5
3470.809	67.5
3473.715	71.5
3476.618	57.5
3479.519	62.5
3482.418	44.5
3485.315	42.5
3488.209	47.5
3491.101	51.5
3493.99	34.5
3496.878	36.5
3499.763	42.5
3502.646	39.5
3505.527	31.5
3508.405	29.5
3511.281	19.5
3514.155	34.5
3517.027	20.5
3519.897	17.5
3522.764	29.5
3525.629	8.5
3528.492	17.5
3531.352	16.5
3534.211	16.5
3537.067	11.5
3539.921	13.5
3542.773	19.5
3545.622	3.5
3548.469	-1.5
3551.315	-0.5
3554.157	5.5
3556.998	-6.5
3559.837	3.5
3562.673	3.5
3565.507	-7.5
3568.339	-10.5
3571.169	-8.5
3573.996	-6.5
3576.822	-21.5
3579.645	-13.5
3582.466	-9.5
3585.285	-0.5
3588.101	-14.5
3590.916	-21.5
3593.728	-3.5
3596.538	-15.5
3599.346	-5.5
3602.152	-19.5
3604.956	-12.5
3607.757	-15.5
3610.556	-24.5
3613.354	-11.5
3616.149	-15.5
3618.942	-10.5
3621.732	-12.5
3624.521	-18.5
3627.307	-30.5
3630.092	-28.5
3632.874	-10.5
3635.654	-15.5
3638.432	-28.5
3641.208	-26.5
3643.982	-22.5
3646.753	-16.5
3649.523	-47.5
3652.29	-25.5
3655.055	-21.5
3657.818	-21.5
3660.579	-27.5
3663.338	-35.5
3666.095	-31.5
3668.849	-48.5
3671.602	-21.5
3674.352	-37.5
3677.101	-19.5
3679.847	-22.5
3682.591	-33.5
3685.333	-36.5
3688.073	-27.5
3690.811	-40.5
3693.547	-41.5
3696.281	-42.5
3699.013	-28.5
3701.742	-37.5
3704.47	-40.5
3707.195	-26.5
3709.919	-27.5
3712.64	-37.5
3715.359	-45.5
3718.076	-22.5
3720.792	-27.5
3723.505	-32.5
3726.216	-24.5
3728.925	-35.5
3731.632	-42.5
3734.336	-33.5
3737.039	-31.5
3739.74	-29.5
3742.439	-53.5
3745.136	-29.5
3747.83	-27.5
3750.523	-28.5
3753.213	-83.5
3755.902	-37.5
3758.589	-45.5
3761.273	-37.5
3763.956	-25.5
3766.636	-47.5
3769.315	-25.5
3771.991	-31.5
3774.665	-38.5
3777.338	-34.5
3780.008	-44.5
3782.677	-36.5
3785.343	-50.5
3788.007	-52.5
3790.67	-31.5
3793.33	-45.5
3795.989	-34.5
3798.645	-33.5
3801.299	-47.5
3803.952	-41.5
3806.602	-39.5
3809.251	-28.5
3811.897	-38.5
3814.542	-36.5
3817.184	-36.5
3819.825	-30.5
3822.463	-50.5
3825.1	-37.5
3827.735	-34.5
3830.367	-38.5
3832.998	-24.5
3835.627	-35.5
3838.253	-27.5
3840.878	-32.5
3843.501	-17.5
3846.122	-30.5
3848.741	-27.5
3851.358	-30.5
3853.973	-43.5
3856.586	-29.5
3859.197	-37.5
3861.806	-29.5
3864.414	-45.5
3867.019	-35.5
3869.622	-26.5
3872.224	-22.5
3874.823	-11.5
3877.421	3.5
3880.016	17.5
3882.61	51.5
3885.202	62.5
3887.792	40.5
3890.38	11.5
3892.966	-20.5
3895.55	-34.5
3898.132	-26.5
3900.713	-26.5
3903.291	-32.5
3905.868	-36.5
3908.442	-29.5
3911.015	-37.5
3913.586	-39.5
3916.155	-37.5
3918.722	-38.5
3921.287	-37.5
3923.85	-49.5
3926.411	-40.5
3928.971	-39.5
3931.528	-32.5
3934.084	-35.5
3936.638	-44.5
3939.19	-29.5
3941.74	-28.5
3944.288	-41.5
3946.834	-34.5
3949.378	-29.5
3951.921	-43.5
3954.462	-36.5
3957	-32.5
3959.537	-21.5
3962.072	-35.5
3964.606	-49.5
3967.137	-41.5
3969.667	-38.5
3972.194	-26.5
3974.72	-34.5
3977.244	-61.5
3979.766	-40.5
3982.286	-44.5
3984.805	-30.5
3987.321	-29.5
3989.836	-29.5
3992.349	-42.5
3994.86	-32.5
3997.369	-40.5
3999.877	-40.5
4002.382	-38.5
4004.886	-27.5
4007.388	-34.5
4009.888	-21.5
4012.386	-24.5
4014.883	-32.5
4017.377	-28.5
4019.87	-29.5
4022.361	-40.5
4024.85	-35.5
4027.338	-32.5
4029.823	-34.5
4032.307	-34.5
4034.789	-31.5
4037.269	-30.5
4039.747	-45.5
4042.224	-24.5
4044.699	-34.5
4047.172	-35.5
4049.643	-26.5
4052.112	-59.5
4054.58	-31.5
4057.046	-40.5
4059.51	-34.5
4061.972	-34.5
4064.432	-52.5
4066.891	-22.5
4069.348	-33.5
4071.803	-33.5
4074.256	-38.5
4076.708	-29.5
4079.158	-31.5
4081.606	-19.5
4084.052	-38.5
4086.497	-28.5
4088.939	-31.5
4091.38	-37.5
4093.819	-26.5
4096.257	4.5
4098.693	-5.5
4101.127	-3.5
4103.559	2.5
4105.989	64.5
4108.418	66.5
4110.845	59.5
4113.27	65.5
4115.694	70.5
4118.115	54.5
4120.535	-29.5
4122.954	-28.5
4125.37	-27.5
4127.785	-31.5
4130.198	-24.5
4132.609	-33.5
4135.019	8.5
4137.427	-0.5
4139.833	2.5
4142.237	-8.5
