Data from 2018-3-6_conc=3_n=6_RamanShift_05.txt Node
Date: Tue Mar 06 13:31:49 GMT+02:00 2018
User: LAB3
Spectrometer: QEPB0276
Trigger mode: 0
Integration Time (sec): 3.000000E1
Scans to average: 1
Electric dark correction enabled: true
Nonlinearity correction enabled: false
Boxcar width: 0
XAxis mode: Raman Shifts
Number of Pixels in Spectrum: 1044
>>>>>Begin Spectral Data<<<<<
160.701	122.5
166.742	145.5
172.777	224.5
178.805	453.5
184.826	1042.5
190.841	2073.5
196.849	3270.5
202.85	4246.5
208.845	4538.5
214.833	4547.5
220.815	4490.5
226.789	4509.5
232.758	4578.5
238.719	4547.5
244.674	4497.5
250.623	4513.5
256.565	4453.5
262.5	4415.5
268.429	4409.5
274.351	4382.5
280.267	4403.5
286.176	4378.5
292.079	4423.5
297.975	4402.5
303.865	4429.5
309.748	4416.5
315.625	4425.5
321.495	4429.5
327.359	4428.5
333.217	4451.5
339.068	4461.5
344.912	4500.5
350.751	4515.5
356.583	4517.5
362.408	4538.5
368.227	4578.5
374.04	4596.5
379.847	4642.5
385.647	4659.5
391.44	4666.5
397.228	4696.5
403.009	4743.5
408.784	4740.5
414.553	4798.5
420.315	4762.5
426.071	4755.5
431.821	4756.5
437.565	4777.5
443.302	4753.5
449.033	4746.5
454.758	4710.5
460.477	4665.5
466.189	4648.5
471.896	4580.5
477.596	4560.5
483.29	4533.5
488.978	4519.5
494.66	4486.5
500.335	4397.5
506.005	4186.5
511.668	3984.5
517.325	3757.5
522.977	3633.5
528.622	3504.5
534.261	3431.5
539.894	3371.5
545.521	3317.5
551.141	3270.5
556.756	3235.5
562.365	3210.5
567.968	3180.5
573.565	3152.5
579.155	3129.5
584.74	3106.5
590.319	3115.5
595.892	3113.5
601.459	3132.5
607.02	3096.5
612.575	3074.5
618.124	3035.5
623.667	2971.5
629.204	2933.5
634.735	2913.5
640.261	2870.5
645.781	2855.5
651.294	2832.5
656.802	2828.5
662.304	2826.5
667.8	2815.5
673.29	2805.5
678.775	2800.5
684.254	2807.5
689.726	2759.5
695.193	2774.5
700.655	2759.5
706.11	2736.5
711.56	2732.5
717.004	2712.5
722.442	2682.5
727.874	2664.5
733.301	2682.5
738.722	2652.5
744.137	2644.5
749.547	2632.5
754.951	2647.5
760.349	2641.5
765.741	2658.5
771.128	2684.5
776.509	2710.5
781.885	2752.5
787.254	2786.5
792.618	2791.5
797.977	2785.5
803.33	2766.5
808.677	2748.5
814.019	2734.5
819.355	2709.5
824.686	2666.5
830.011	2660.5
835.33	2643.5
840.644	2637.5
845.952	2620.5
851.255	2586.5
856.552	2561.5
861.844	2558.5
867.13	2509.5
872.41	2478.5
877.686	2454.5
882.955	2432.5
888.219	2435.5
893.478	2384.5
898.731	2353.5
903.979	2343.5
909.221	2304.5
914.458	2304.5
919.69	2303.5
924.916	2293.5
930.136	2298.5
935.351	2298.5
940.561	2312.5
945.766	2292.5
950.965	2295.5
956.158	2263.5
961.347	2250.5
966.529	2212.5
971.707	2205.5
976.879	2168.5
982.046	2155.5
987.208	2134.5
992.364	2133.5
997.515	2147.5
1002.66	2151.5
1007.801	2163.5
1012.936	2170.5
1018.066	2175.5
1023.19	2204.5
1028.309	2210.5
1033.423	2238.5
1038.532	2234.5
1043.636	2194.5
1048.734	2196.5
1053.827	2167.5
1058.915	2141.5
1063.998	2143.5
1069.075	2110.5
1074.147	2111.5
1079.214	2093.5
1084.276	2121.5
1089.333	2133.5
1094.385	2134.5
1099.431	2122.5
1104.472	2127.5
1109.509	2108.5
1114.54	2076.5
1119.565	2034.5
1124.586	2014.5
1129.602	1979.5
1134.613	1960.5
1139.618	1950.5
1144.619	1954.5
1149.614	1955.5
1154.604	1968.5
1159.589	1966.5
1164.57	2001.5
1169.545	2005.5
1174.515	1987.5
1179.48	1984.5
1184.44	1956.5
1189.395	1958.5
1194.345	1909.5
1199.29	1927.5
1204.23	1902.5
1209.165	1898.5
1214.095	1919.5
1219.021	1932.5
1223.941	1932.5
1228.856	1931.5
1233.766	1931.5
1238.672	1959.5
1243.572	1949.5
1248.467	1928.5
1253.358	1916.5
1258.244	1865.5
1263.124	1848.5
1268	1837.5
1272.871	1778.5
1277.737	1776.5
1282.599	1764.5
1287.455	1755.5
1292.306	1775.5
1297.153	1762.5
1301.995	1778.5
1306.832	1771.5
1311.664	1792.5
1316.491	1770.5
1321.314	1786.5
1326.132	1756.5
1330.945	1744.5
1335.753	1707.5
1340.556	1669.5
1345.354	1657.5
1350.148	1631.5
1354.937	1620.5
1359.722	1598.5
1364.501	1578.5
1369.276	1594.5
1374.046	1584.5
1378.811	1583.5
1383.572	1579.5
1388.327	1573.5
1393.079	1554.5
1397.825	1547.5
1402.567	1534.5
1407.304	1515.5
1412.036	1503.5
1416.764	1516.5
1421.487	1509.5
1426.205	1510.5
1430.919	1494.5
1435.628	1503.5
1440.333	1503.5
1445.032	1527.5
1449.727	1544.5
1454.418	1548.5
1459.104	1547.5
1463.785	1520.5
1468.462	1495.5
1473.134	1479.5
1477.802	1449.5
1482.465	1398.5
1487.123	1417.5
1491.777	1390.5
1496.426	1392.5
1501.071	1421.5
1505.711	1396.5
1510.347	1424.5
1514.978	1423.5
1519.604	1435.5
1524.226	1443.5
1528.844	1415.5
1533.457	1407.5
1538.065	1399.5
1542.669	1384.5
1547.269	1382.5
1551.864	1379.5
1556.454	1365.5
1561.041	1376.5
1565.622	1370.5
1570.199	1377.5
1574.772	1399.5
1579.34	1409.5
1583.904	1420.5
1588.464	1426.5
1593.019	1428.5
1597.569	1417.5
1602.115	1409.5
1606.657	1413.5
1611.195	1410.5
1615.728	1410.5
1620.256	1382.5
1624.78	1372.5
1629.3	1394.5
1633.816	1388.5
1638.327	1403.5
1642.834	1397.5
1647.336	1419.5
1651.834	1433.5
1656.328	1423.5
1660.817	1410.5
1665.302	1395.5
1669.783	1386.5
1674.259	1363.5
1678.732	1343.5
1683.199	1304.5
1687.663	1262.5
1692.122	1248.5
1696.577	1228.5
1701.028	1202.5
1705.474	1189.5
1709.917	1166.5
1714.355	1139.5
1718.788	1144.5
1723.218	1105.5
1727.643	1095.5
1732.064	1077.5
1736.481	1049.5
1740.893	1049.5
1745.301	1024.5
1749.705	974.5
1754.105	990.5
1758.501	975.5
1762.893	971.5
1767.28	930.5
1771.663	910.5
1776.042	918.5
1780.417	905.5
1784.787	914.5
1789.154	916.5
1793.516	924.5
1797.874	915.5
1802.228	912.5
1806.578	897.5
1810.924	916.5
1815.266	783.5
1819.603	878.5
1823.937	872.5
1828.266	860.5
1832.591	848.5
1836.913	855.5
1841.23	844.5
1845.543	828.5
1849.852	840.5
1854.156	826.5
1858.457	836.5
1862.754	829.5
1867.047	833.5
1871.335	842.5
1875.62	846.5
1879.9	831.5
1884.177	832.5
1888.449	828.5
1892.718	831.5
1896.982	845.5
1901.243	802.5
1905.499	814.5
1909.752	802.5
1914	785.5
1918.245	815.5
1922.485	827.5
1926.722	808.5
1930.954	798.5
1935.183	826.5
1939.408	815.5
1943.628	807.5
1947.845	816.5
1952.058	807.5
1956.267	784.5
1960.472	786.5
1964.673	775.5
1968.87	753.5
1973.063	744.5
1977.252	746.5
1981.438	716.5
1985.619	722.5
1989.797	709.5
1993.971	705.5
1998.14	712.5
2002.306	695.5
2006.469	707.5
2010.627	685.5
2014.781	688.5
2018.932	673.5
2023.078	701.5
2027.221	677.5
2031.36	662.5
2035.495	674.5
2039.627	675.5
2043.754	656.5
2047.878	646.5
2051.998	648.5
2056.114	653.5
2060.226	643.5
2064.334	653.5
2068.439	657.5
2072.54	650.5
2076.637	648.5
2080.73	648.5
2084.82	655.5
2088.906	642.5
2092.988	646.5
2097.066	657.5
2101.14	642.5
2105.211	644.5
2109.278	635.5
2113.342	627.5
2117.401	606.5
2121.457	600.5
2125.509	596.5
2129.558	603.5
2133.602	593.5
2137.643	598.5
2141.681	601.5
2145.714	594.5
2149.744	586.5
2153.77	577.5
2157.793	563.5
2161.812	529.5
2165.827	535.5
2169.838	566.5
2173.846	538.5
2177.851	535.5
2181.851	524.5
2185.848	512.5
2189.841	522.5
2193.831	500.5
2197.817	498.5
2201.799	501.5
2205.778	477.5
2209.753	483.5
2213.725	496.5
2217.693	484.5
2221.657	473.5
2225.618	487.5
2229.575	474.5
2233.529	487.5
2237.479	482.5
2241.425	465.5
2245.368	454.5
2249.307	452.5
2253.243	442.5
2257.175	450.5
2261.104	429.5
2265.029	428.5
2268.95	424.5
2272.868	416.5
2276.783	406.5
2280.694	409.5
2284.601	404.5
2288.505	403.5
2292.405	401.5
2296.302	378.5
2300.195	382.5
2304.085	348.5
2307.971	382.5
2311.854	352.5
2315.734	360.5
2319.609	357.5
2323.482	343.5
2327.351	337.5
2331.216	350.5
2335.078	347.5
2338.937	341.5
2342.792	323.5
2346.643	331.5
2350.492	339.5
2354.336	333.5
2358.178	337.5
2362.015	327.5
2365.85	334.5
2369.681	339.5
2373.508	345.5
2377.333	334.5
2381.153	339.5
2384.971	330.5
2388.785	336.5
2392.595	324.5
2396.402	322.5
2400.206	294.5
2404.007	320.5
2407.804	311.5
2411.597	313.5
2415.388	305.5
2419.174	321.5
2422.958	306.5
2426.738	308.5
2430.515	315.5
2434.289	297.5
2438.059	296.5
2441.825	296.5
2445.589	310.5
2449.349	283.5
2453.106	287.5
2456.859	281.5
2460.61	289.5
2464.356	273.5
2468.1	269.5
2471.84	271.5
2475.577	271.5
2479.311	266.5
2483.041	272.5
2486.768	283.5
2490.492	279.5
2494.213	275.5
2497.93	261.5
2501.644	249.5
2505.355	268.5
2509.062	267.5
2512.766	261.5
2516.467	257.5
2520.165	254.5
2523.859	244.5
2527.551	269.5
2531.239	236.5
2534.923	256.5
2538.605	246.5
2542.283	250.5
2545.958	254.5
2549.63	253.5
2553.299	257.5
2556.964	234.5
2560.626	244.5
2564.285	249.5
2567.941	236.5
2571.594	222.5
2575.243	238.5
2578.89	228.5
2582.533	234.5
2586.173	235.5
2589.809	230.5
2593.443	200.5
2597.073	220.5
2600.701	224.5
2604.325	220.5
2607.946	209.5
2611.564	221.5
2615.178	219.5
2618.79	221.5
2622.398	203.5
2626.004	209.5
2629.606	214.5
2633.205	192.5
2636.801	209.5
2640.394	199.5
2643.983	195.5
2647.57	199.5
2651.153	194.5
2654.734	203.5
2658.311	174.5
2661.885	181.5
2665.456	189.5
2669.025	182.5
2672.589	177.5
2676.151	194.5
2679.71	184.5
2683.266	176.5
2686.819	169.5
2690.368	179.5
2693.915	181.5
2697.458	172.5
2700.999	172.5
2704.536	176.5
2708.071	166.5
2711.602	167.5
2715.13	161.5
2718.656	152.5
2722.178	156.5
2725.697	150.5
2729.214	147.5
2732.727	162.5
2736.237	140.5
2739.744	147.5
2743.249	146.5
2746.75	149.5
2750.248	147.5
2753.743	155.5
2757.236	153.5
2760.725	168.5
2764.211	132.5
2767.695	160.5
2771.175	148.5
2774.652	154.5
2778.127	146.5
2781.598	151.5
2785.067	153.5
2788.532	134.5
2791.995	156.5
2795.455	143.5
2798.911	156.5
2802.365	137.5
2805.816	153.5
2809.264	158.5
2812.709	146.5
2816.151	151.5
2819.59	136.5
2823.026	149.5
2826.46	146.5
2829.89	158.5
2833.318	133.5
2836.742	148.5
2840.164	156.5
2843.583	145.5
2846.999	151.5
2850.412	157.5
2853.822	148.5
2857.229	167.5
2860.634	169.5
2864.035	142.5
2867.434	164.5
2870.83	175.5
2874.223	155.5
2877.613	160.5
2881	162.5
2884.385	157.5
2887.766	158.5
2891.145	171.5
2894.521	162.5
2897.894	166.5
2901.264	172.5
2904.631	166.5
2907.996	176.5
2911.358	180.5
2914.717	171.5
2918.073	174.5
2921.426	173.5
2924.777	162.5
2928.124	169.5
2931.469	196.5
2934.811	176.5
2938.15	202.5
2941.487	185.5
2944.821	211.5
2948.152	196.5
2951.48	201.5
2954.805	181.5
2958.128	209.5
2961.447	187.5
2964.765	206.5
2968.079	195.5
2971.39	202.5
2974.699	199.5
2978.005	203.5
2981.308	204.5
2984.609	194.5
2987.907	208.5
2991.202	207.5
2994.494	209.5
2997.784	210.5
3001.07	209.5
3004.355	214.5
3007.636	219.5
3010.915	224.5
3014.191	224.5
3017.464	226.5
3020.734	229.5
3024.002	229.5
3027.267	226.5
3030.53	235.5
3033.789	228.5
3037.046	231.5
3040.301	231.5
3043.552	247.5
3046.801	249.5
3050.048	260.5
3053.291	277.5
3056.532	269.5
3059.771	259.5
3063.006	283.5
3066.239	281.5
3069.469	299.5
3072.697	295.5
3075.922	298.5
3079.144	304.5
3082.364	335.5
3085.581	321.5
3088.795	355.5
3092.007	341.5
3095.216	356.5
3098.423	347.5
3101.627	335.5
3104.828	367.5
3108.026	372.5
3111.222	386.5
3114.416	401.5
3117.607	405.5
3120.795	393.5
3123.98	411.5
3127.163	417.5
3130.344	427.5
3133.521	428.5
3136.696	457.5
3139.869	451.5
3143.039	447.5
3146.206	476.5
3149.371	477.5
3152.533	481.5
3155.693	472.5
3158.85	488.5
3162.005	489.5
3165.157	479.5
3168.306	487.5
3171.453	514.5
3174.597	488.5
3177.739	479.5
3180.878	496.5
3184.014	502.5
3187.149	509.5
3190.28	500.5
3193.409	506.5
3196.536	514.5
3199.659	521.5
3202.781	519.5
3205.9	501.5
3209.016	511.5
3212.13	502.5
3215.241	503.5
3218.35	499.5
3221.456	494.5
3224.56	480.5
3227.661	492.5
3230.76	477.5
3233.856	471.5
3236.95	475.5
3240.041	466.5
3243.13	481.5
3246.216	465.5
3249.3	478.5
3252.382	468.5
3255.46	461.5
3258.537	414.5
3261.611	452.5
3264.682	461.5
3267.751	459.5
3270.818	440.5
3273.882	465.5
3276.943	452.5
3280.002	464.5
3283.059	442.5
3286.113	437.5
3289.165	435.5
3292.214	424.5
3295.261	447.5
3298.306	405.5
3301.348	412.5
3304.387	401.5
3307.425	408.5
3310.459	393.5
3313.492	409.5
3316.521	396.5
3319.549	397.5
3322.574	386.5
3325.597	386.5
3328.617	381.5
3331.635	378.5
3334.65	359.5
3337.663	373.5
3340.674	377.5
3343.682	380.5
3346.688	377.5
3349.691	362.5
3352.692	365.5
3355.691	377.5
3358.687	370.5
3361.681	367.5
3364.673	355.5
3367.662	359.5
3370.649	355.5
3373.633	340.5
3376.615	353.5
3379.595	316.5
3382.572	332.5
3385.547	323.5
3388.52	331.5
3391.49	317.5
3394.458	316.5
3397.424	319.5
3400.387	299.5
3403.348	317.5
3406.307	308.5
3409.263	314.5
3412.217	308.5
3415.168	306.5
3418.118	309.5
3421.065	294.5
3424.009	300.5
3426.951	287.5
3429.891	285.5
3432.829	279.5
3435.764	276.5
3438.697	259.5
3441.628	278.5
3444.557	252.5
3447.483	240.5
3450.407	247.5
3453.328	232.5
3456.247	226.5
3459.164	225.5
3462.079	226.5
3464.991	213.5
3467.902	209.5
3470.809	201.5
3473.715	198.5
3476.618	187.5
3479.519	188.5
3482.418	164.5
3485.315	176.5
3488.209	173.5
3491.101	169.5
3493.99	146.5
3496.878	153.5
3499.763	157.5
3502.646	150.5
3505.527	131.5
3508.405	140.5
3511.281	120.5
3514.155	133.5
3517.027	117.5
3519.897	107.5
3522.764	114.5
3525.629	88.5
3528.492	101.5
3531.352	101.5
3534.211	99.5
3537.067	85.5
3539.921	86.5
3542.773	90.5
3545.622	71.5
3548.469	67.5
3551.315	58.5
3554.157	66.5
3556.998	57.5
3559.837	59.5
3562.673	55.5
3565.507	49.5
3568.339	45.5
3571.169	49.5
3573.996	49.5
3576.822	27.5
3579.645	31.5
3582.466	29.5
3585.285	39.5
3588.101	35.5
3590.916	27.5
3593.728	39.5
3596.538	29.5
3599.346	29.5
3602.152	16.5
3604.956	26.5
3607.757	24.5
3610.556	7.5
3613.354	17.5
3616.149	18.5
3618.942	15.5
3621.732	18.5
3624.521	2.5
3627.307	2.5
3630.092	-1.5
3632.874	18.5
3635.654	6.5
3638.432	-4.5
3641.208	-3.5
3643.982	-1.5
3646.753	6.5
3649.523	-26.5
3652.29	-4.5
3655.055	-4.5
3657.818	-3.5
3660.579	-9.5
3663.338	-22.5
3666.095	-14.5
3668.849	-35.5
3671.602	-3.5
3674.352	-27.5
3677.101	-6.5
3679.847	-8.5
3682.591	-21.5
3685.333	-27.5
3688.073	-13.5
3690.811	-27.5
3693.547	-30.5
3696.281	-30.5
3699.013	-19.5
3701.742	-24.5
3704.47	-31.5
3707.195	-15.5
3709.919	-15.5
3712.64	-24.5
3715.359	-35.5
3718.076	-13.5
3720.792	-21.5
3723.505	-23.5
3726.216	-16.5
3728.925	-27.5
3731.632	-32.5
3734.336	-24.5
3737.039	-25.5
3739.74	-26.5
3742.439	-54.5
3745.136	-20.5
3747.83	-24.5
3750.523	-27.5
3753.213	-90.5
3755.902	-31.5
3758.589	-43.5
3761.273	-34.5
3763.956	-16.5
3766.636	-42.5
3769.315	-19.5
3771.991	-28.5
3774.665	-32.5
3777.338	-30.5
3780.008	-40.5
3782.677	-31.5
3785.343	-43.5
3788.007	-48.5
3790.67	-25.5
3793.33	-42.5
3795.989	-34.5
3798.645	-26.5
3801.299	-44.5
3803.952	-45.5
3806.602	-34.5
3809.251	-22.5
3811.897	-28.5
3814.542	-34.5
3817.184	-34.5
3819.825	-35.5
3822.463	-40.5
3825.1	-34.5
3827.735	-30.5
3830.367	-42.5
3832.998	-19.5
3835.627	-31.5
3838.253	-19.5
3840.878	-31.5
3843.501	-18.5
3846.122	-29.5
3848.741	-27.5
3851.358	-26.5
3853.973	-44.5
3856.586	-24.5
3859.197	-30.5
3861.806	-34.5
3864.414	-41.5
3867.019	-31.5
3869.622	-26.5
3872.224	-19.5
3874.823	-10.5
3877.421	14.5
3880.016	26.5
3882.61	64.5
3885.202	77.5
3887.792	51.5
3890.38	24.5
3892.966	-10.5
3895.55	-32.5
3898.132	-23.5
3900.713	-25.5
3903.291	-29.5
3905.868	-36.5
3908.442	-32.5
3911.015	-29.5
3913.586	-37.5
3916.155	-32.5
3918.722	-36.5
3921.287	-33.5
3923.85	-46.5
3926.411	-44.5
3928.971	-35.5
3931.528	-32.5
3934.084	-33.5
3936.638	-36.5
3939.19	-31.5
3941.74	-29.5
3944.288	-35.5
3946.834	-32.5
3949.378	-20.5
3951.921	-38.5
3954.462	-33.5
3957	-31.5
3959.537	-18.5
3962.072	-27.5
3964.606	-44.5
3967.137	-31.5
3969.667	-34.5
3972.194	-28.5
3974.72	-37.5
3977.244	-61.5
3979.766	-42.5
3982.286	-36.5
3984.805	-32.5
3987.321	-18.5
3989.836	-24.5
3992.349	-38.5
3994.86	-30.5
3997.369	-39.5
3999.877	-32.5
4002.382	-35.5
4004.886	-27.5
4007.388	-30.5
4009.888	-18.5
4012.386	-22.5
4014.883	-23.5
4017.377	-27.5
4019.87	-24.5
4022.361	-38.5
4024.85	-27.5
4027.338	-24.5
4029.823	-31.5
4032.307	-33.5
4034.789	-28.5
4037.269	-30.5
4039.747	-41.5
4042.224	-21.5
4044.699	-34.5
4047.172	-33.5
4049.643	-22.5
4052.112	-49.5
4054.58	-30.5
4057.046	-43.5
4059.51	-33.5
4061.972	-28.5
4064.432	-46.5
4066.891	-17.5
4069.348	-28.5
4071.803	-26.5
4074.256	-30.5
4076.708	-23.5
4079.158	-25.5
4081.606	-14.5
4084.052	-29.5
4086.497	-23.5
4088.939	-27.5
4091.38	-28.5
4093.819	-25.5
4096.257	1.5
4098.693	-6.5
4101.127	-7.5
4103.559	0.5
4105.989	104.5
4108.418	111.5
4110.845	96.5
4113.27	98.5
4115.694	113.5
4118.115	100.5
4120.535	-23.5
4122.954	-24.5
4125.37	-19.5
4127.785	-24.5
4130.198	-23.5
4132.609	-29.5
4135.019	8.5
4137.427	-0.5
4139.833	7.5
4142.237	-3.5
