Data from 2018-3-6_conc=2_n=4_RamanShift_04.txt Node
Date: Tue Mar 06 12:52:49 GMT+02:00 2018
User: LAB3
Spectrometer: QEPB0276
Trigger mode: 0
Integration Time (sec): 3.000000E1
Scans to average: 1
Electric dark correction enabled: true
Nonlinearity correction enabled: false
Boxcar width: 0
XAxis mode: Raman Shifts
Number of Pixels in Spectrum: 1044
>>>>>Begin Spectral Data<<<<<
160.701	156.25
166.742	209.25
172.777	317.25
178.805	640.25
184.826	1499.25
190.841	2982.25
196.849	4746.25
202.85	6095.25
208.845	6638.25
214.833	6627.25
220.815	6583.25
226.789	6594.25
232.758	6634.25
238.719	6654.25
244.674	6628.25
250.623	6607.25
256.565	6530.25
262.5	6519.25
268.429	6477.25
274.351	6429.25
280.267	6466.25
286.176	6451.25
292.079	6508.25
297.975	6516.25
303.865	6516.25
309.748	6517.25
315.625	6537.25
321.495	6562.25
327.359	6552.25
333.217	6594.25
339.068	6633.25
344.912	6674.25
350.751	6717.25
356.583	6717.25
362.408	6721.25
368.227	6745.25
374.04	6787.25
379.847	6828.25
385.647	6908.25
391.44	6876.25
397.228	6961.25
403.009	7024.25
408.784	7010.25
414.553	7047.25
420.315	7084.25
426.071	7072.25
431.821	7081.25
437.565	7085.25
443.302	7045.25
449.033	7035.25
454.758	7014.25
460.477	6931.25
466.189	6862.25
471.896	6785.25
477.596	6748.25
483.29	6701.25
488.978	6733.25
494.66	6671.25
500.335	6482.25
506.005	6210.25
511.668	5874.25
517.325	5585.25
522.977	5347.25
528.622	5174.25
534.261	5064.25
539.894	4946.25
545.521	4897.25
551.141	4829.25
556.756	4774.25
562.365	4713.25
567.968	4670.25
573.565	4637.25
579.155	4631.25
584.74	4574.25
590.319	4583.25
595.892	4578.25
601.459	4596.25
607.02	4576.25
612.575	4526.25
618.124	4493.25
623.667	4419.25
629.204	4347.25
634.735	4269.25
640.261	4227.25
645.781	4187.25
651.294	4181.25
656.802	4181.25
662.304	4173.25
667.8	4146.25
673.29	4134.25
678.775	4122.25
684.254	4105.25
689.726	4074.25
695.193	4064.25
700.655	4013.25
706.11	4028.25
711.56	3971.25
717.004	3964.25
722.442	3951.25
727.874	3933.25
733.301	3932.25
738.722	3904.25
744.137	3918.25
749.547	3899.25
754.951	3903.25
760.349	3915.25
765.741	3947.25
771.128	3975.25
776.509	4009.25
781.885	4091.25
787.254	4097.25
792.618	4119.25
797.977	4118.25
803.33	4110.25
808.677	4081.25
814.019	4029.25
819.355	3997.25
824.686	3953.25
830.011	3908.25
835.33	3917.25
840.644	3880.25
845.952	3831.25
851.255	3837.25
856.552	3802.25
861.844	3759.25
867.13	3697.25
872.41	3671.25
877.686	3672.25
882.955	3651.25
888.219	3593.25
893.478	3537.25
898.731	3500.25
903.979	3434.25
909.221	3404.25
914.458	3388.25
919.69	3395.25
924.916	3372.25
930.136	3391.25
935.351	3403.25
940.561	3398.25
945.766	3394.25
950.965	3383.25
956.158	3354.25
961.347	3295.25
966.529	3260.25
971.707	3234.25
976.879	3195.25
982.046	3156.25
987.208	3135.25
992.364	3146.25
997.515	3139.25
1002.66	3206.25
1007.801	3227.25
1012.936	3217.25
1018.066	3240.25
1023.19	3234.25
1028.309	3272.25
1033.423	3276.25
1038.532	3293.25
1043.636	3258.25
1048.734	3236.25
1053.827	3200.25
1058.915	3176.25
1063.998	3152.25
1069.075	3154.25
1074.147	3145.25
1079.214	3127.25
1084.276	3133.25
1089.333	3178.25
1094.385	3174.25
1099.431	3134.25
1104.472	3128.25
1109.509	3096.25
1114.54	3053.25
1119.565	3030.25
1124.586	2980.25
1129.602	2941.25
1134.613	2894.25
1139.618	2892.25
1144.619	2881.25
1149.614	2890.25
1154.604	2909.25
1159.589	2899.25
1164.57	2924.25
1169.545	2952.25
1174.515	2927.25
1179.48	2920.25
1184.44	2901.25
1189.395	2893.25
1194.345	2853.25
1199.29	2852.25
1204.23	2837.25
1209.165	2831.25
1214.095	2872.25
1219.021	2851.25
1223.941	2880.25
1228.856	2859.25
1233.766	2904.25
1238.672	2888.25
1243.572	2882.25
1248.467	2854.25
1253.358	2825.25
1258.244	2769.25
1263.124	2752.25
1268	2681.25
1272.871	2634.25
1277.737	2625.25
1282.599	2601.25
1287.455	2614.25
1292.306	2618.25
1297.153	2608.25
1301.995	2639.25
1306.832	2646.25
1311.664	2634.25
1316.491	2635.25
1321.314	2649.25
1326.132	2617.25
1330.945	2589.25
1335.753	2532.25
1340.556	2495.25
1345.354	2452.25
1350.148	2423.25
1354.937	2426.25
1359.722	2393.25
1364.501	2364.25
1369.276	2348.25
1374.046	2365.25
1378.811	2360.25
1383.572	2349.25
1388.327	2351.25
1393.079	2318.25
1397.825	2296.25
1402.567	2292.25
1407.304	2260.25
1412.036	2250.25
1416.764	2233.25
1421.487	2224.25
1426.205	2239.25
1430.919	2284.25
1435.628	2249.25
1440.333	2270.25
1445.032	2297.25
1449.727	2333.25
1454.418	2336.25
1459.104	2329.25
1463.785	2286.25
1468.462	2258.25
1473.134	2218.25
1477.802	2186.25
1482.465	2137.25
1487.123	2143.25
1491.777	2131.25
1496.426	2111.25
1501.071	2153.25
1505.711	2160.25
1510.347	2185.25
1514.978	2191.25
1519.604	2188.25
1524.226	2192.25
1528.844	2144.25
1533.457	2154.25
1538.065	2121.25
1542.669	2082.25
1547.269	2082.25
1551.864	2078.25
1556.454	2035.25
1561.041	2050.25
1565.622	2058.25
1570.199	2071.25
1574.772	2075.25
1579.34	2112.25
1583.904	2113.25
1588.464	2122.25
1593.019	2132.25
1597.569	2121.25
1602.115	2108.25
1606.657	2102.25
1611.195	2106.25
1615.728	2122.25
1620.256	2086.25
1624.78	2073.25
1629.3	2085.25
1633.816	2089.25
1638.327	2114.25
1642.834	2142.25
1647.336	2129.25
1651.834	2160.25
1656.328	2154.25
1660.817	2158.25
1665.302	2127.25
1669.783	2115.25
1674.259	2067.25
1678.732	2039.25
1683.199	1991.25
1687.663	1914.25
1692.122	1906.25
1696.577	1870.25
1701.028	1854.25
1705.474	1802.25
1709.917	1782.25
1714.355	1771.25
1718.788	1747.25
1723.218	1704.25
1727.643	1687.25
1732.064	1665.25
1736.481	1622.25
1740.893	1616.25
1745.301	1578.25
1749.705	1521.25
1754.105	1522.25
1758.501	1480.25
1762.893	1463.25
1767.28	1428.25
1771.663	1425.25
1776.042	1411.25
1780.417	1405.25
1784.787	1404.25
1789.154	1416.25
1793.516	1415.25
1797.874	1416.25
1802.228	1407.25
1806.578	1393.25
1810.924	1424.25
1815.266	1285.25
1819.603	1370.25
1823.937	1348.25
1828.266	1329.25
1832.591	1314.25
1836.913	1285.25
1841.23	1300.25
1845.543	1274.25
1849.852	1296.25
1854.156	1285.25
1858.457	1284.25
1862.754	1279.25
1867.047	1294.25
1871.335	1311.25
1875.62	1311.25
1879.9	1304.25
1884.177	1289.25
1888.449	1299.25
1892.718	1297.25
1896.982	1281.25
1901.243	1246.25
1905.499	1262.25
1909.752	1250.25
1914	1234.25
1918.245	1268.25
1922.485	1273.25
1926.722	1273.25
1930.954	1281.25
1935.183	1279.25
1939.408	1296.25
1943.628	1284.25
1947.845	1284.25
1952.058	1268.25
1956.267	1238.25
1960.472	1232.25
1964.673	1206.25
1968.87	1171.25
1973.063	1160.25
1977.252	1145.25
1981.438	1123.25
1985.619	1099.25
1989.797	1089.25
1993.971	1097.25
1998.14	1099.25
2002.306	1093.25
2006.469	1074.25
2010.627	1084.25
2014.781	1084.25
2018.932	1085.25
2023.078	1113.25
2027.221	1061.25
2031.36	1027.25
2035.495	1030.25
2039.627	1037.25
2043.754	1021.25
2047.878	994.25
2051.998	994.25
2056.114	988.25
2060.226	986.25
2064.334	1017.25
2068.439	1012.25
2072.54	1027.25
2076.637	1004.25
2080.73	1017.25
2084.82	1017.25
2088.906	1018.25
2092.988	1011.25
2097.066	1027.25
2101.14	1001.25
2105.211	1012.25
2109.278	962.25
2113.342	969.25
2117.401	943.25
2121.457	947.25
2125.509	928.25
2129.558	917.25
2133.602	911.25
2137.643	916.25
2141.681	904.25
2145.714	910.25
2149.744	893.25
2153.77	873.25
2157.793	870.25
2161.812	853.25
2165.827	828.25
2169.838	848.25
2173.846	824.25
2177.851	810.25
2181.851	813.25
2185.848	800.25
2189.841	779.25
2193.831	765.25
2197.817	768.25
2201.799	770.25
2205.778	746.25
2209.753	750.25
2213.725	739.25
2217.693	750.25
2221.657	731.25
2225.618	750.25
2229.575	734.25
2233.529	738.25
2237.479	732.25
2241.425	712.25
2245.368	695.25
2249.307	701.25
2253.243	674.25
2257.175	676.25
2261.104	654.25
2265.029	648.25
2268.95	643.25
2272.868	639.25
2276.783	617.25
2280.694	624.25
2284.601	618.25
2288.505	612.25
2292.405	611.25
2296.302	578.25
2300.195	585.25
2304.085	550.25
2307.971	579.25
2311.854	539.25
2315.734	552.25
2319.609	545.25
2323.482	519.25
2327.351	527.25
2331.216	514.25
2335.078	533.25
2338.937	517.25
2342.792	522.25
2346.643	501.25
2350.492	517.25
2354.336	513.25
2358.178	518.25
2362.015	501.25
2365.85	503.25
2369.681	510.25
2373.508	508.25
2377.333	513.25
2381.153	506.25
2384.971	512.25
2388.785	499.25
2392.595	488.25
2396.402	491.25
2400.206	463.25
2404.007	477.25
2407.804	483.25
2411.597	479.25
2415.388	479.25
2419.174	468.25
2422.958	472.25
2426.738	472.25
2430.515	478.25
2434.289	467.25
2438.059	453.25
2441.825	455.25
2445.589	462.25
2449.349	435.25
2453.106	450.25
2456.859	437.25
2460.61	456.25
2464.356	431.25
2468.1	427.25
2471.84	423.25
2475.577	418.25
2479.311	413.25
2483.041	416.25
2486.768	430.25
2490.492	429.25
2494.213	418.25
2497.93	405.25
2501.644	407.25
2505.355	416.25
2509.062	418.25
2512.766	406.25
2516.467	404.25
2520.165	399.25
2523.859	391.25
2527.551	430.25
2531.239	395.25
2534.923	406.25
2538.605	386.25
2542.283	395.25
2545.958	395.25
2549.63	408.25
2553.299	411.25
2556.964	374.25
2560.626	385.25
2564.285	390.25
2567.941	385.25
2571.594	371.25
2575.243	389.25
2578.89	363.25
2582.533	382.25
2586.173	373.25
2589.809	377.25
2593.443	336.25
2597.073	358.25
2600.701	356.25
2604.325	357.25
2607.946	345.25
2611.564	360.25
2615.178	346.25
2618.79	336.25
2622.398	323.25
2626.004	344.25
2629.606	334.25
2633.205	314.25
2636.801	330.25
2640.394	320.25
2643.983	322.25
2647.57	305.25
2651.153	302.25
2654.734	315.25
2658.311	291.25
2661.885	298.25
2665.456	294.25
2669.025	289.25
2672.589	282.25
2676.151	302.25
2679.71	304.25
2683.266	292.25
2686.819	271.25
2690.368	284.25
2693.915	283.25
2697.458	277.25
2700.999	273.25
2704.536	264.25
2708.071	268.25
2711.602	263.25
2715.13	259.25
2718.656	238.25
2722.178	264.25
2725.697	244.25
2729.214	250.25
2732.727	254.25
2736.237	241.25
2739.744	259.25
2743.249	248.25
2746.75	261.25
2750.248	249.25
2753.743	259.25
2757.236	255.25
2760.725	263.25
2764.211	232.25
2767.695	255.25
2771.175	250.25
2774.652	250.25
2778.127	237.25
2781.598	237.25
2785.067	251.25
2788.532	236.25
2791.995	246.25
2795.455	243.25
2798.911	255.25
2802.365	238.25
2805.816	245.25
2809.264	250.25
2812.709	244.25
2816.151	250.25
2819.59	233.25
2823.026	245.25
2826.46	246.25
2829.89	258.25
2833.318	228.25
2836.742	245.25
2840.164	249.25
2843.583	246.25
2846.999	252.25
2850.412	259.25
2853.822	256.25
2857.229	267.25
2860.634	266.25
2864.035	246.25
2867.434	283.25
2870.83	271.25
2874.223	275.25
2877.613	278.25
2881	276.25
2884.385	281.25
2887.766	279.25
2891.145	277.25
2894.521	281.25
2897.894	266.25
2901.264	289.25
2904.631	280.25
2907.996	287.25
2911.358	298.25
2914.717	280.25
2918.073	285.25
2921.426	288.25
2924.777	279.25
2928.124	296.25
2931.469	311.25
2934.811	306.25
2938.15	335.25
2941.487	320.25
2944.821	340.25
2948.152	317.25
2951.48	333.25
2954.805	309.25
2958.128	324.25
2961.447	321.25
2964.765	333.25
2968.079	310.25
2971.39	323.25
2974.699	318.25
2978.005	331.25
2981.308	327.25
2984.609	328.25
2987.907	352.25
2991.202	342.25
2994.494	339.25
2997.784	348.25
3001.07	344.25
3004.355	334.25
3007.636	354.25
3010.915	356.25
3014.191	346.25
3017.464	359.25
3020.734	353.25
3024.002	367.25
3027.267	355.25
3030.53	358.25
3033.789	358.25
3037.046	369.25
3040.301	364.25
3043.552	379.25
3046.801	386.25
3050.048	411.25
3053.291	438.25
3056.532	413.25
3059.771	409.25
3063.006	441.25
3066.239	444.25
3069.469	464.25
3072.697	464.25
3075.922	462.25
3079.144	485.25
3082.364	516.25
3085.581	493.25
3088.795	533.25
3092.007	540.25
3095.216	547.25
3098.423	541.25
3101.627	538.25
3104.828	570.25
3108.026	571.25
3111.222	607.25
3114.416	613.25
3117.607	623.25
3120.795	630.25
3123.98	641.25
3127.163	644.25
3130.344	663.25
3133.521	674.25
3136.696	705.25
3139.869	710.25
3143.039	702.25
3146.206	735.25
3149.371	755.25
3152.533	740.25
3155.693	744.25
3158.85	759.25
3162.005	764.25
3165.157	758.25
3168.306	765.25
3171.453	773.25
3174.597	767.25
3177.739	761.25
3180.878	789.25
3184.014	776.25
3187.149	778.25
3190.28	765.25
3193.409	784.25
3196.536	782.25
3199.659	786.25
3202.781	793.25
3205.9	775.25
3209.016	796.25
3212.13	777.25
3215.241	783.25
3218.35	773.25
3221.456	770.25
3224.56	757.25
3227.661	752.25
3230.76	744.25
3233.856	732.25
3236.95	742.25
3240.041	726.25
3243.13	738.25
3246.216	729.25
3249.3	734.25
3252.382	726.25
3255.46	708.25
3258.537	669.25
3261.611	711.25
3264.682	709.25
3267.751	714.25
3270.818	694.25
3273.882	712.25
3276.943	693.25
3280.002	705.25
3283.059	700.25
3286.113	677.25
3289.165	669.25
3292.214	658.25
3295.261	673.25
3298.306	634.25
3301.348	643.25
3304.387	618.25
3307.425	628.25
3310.459	617.25
3313.492	620.25
3316.521	597.25
3319.549	602.25
3322.574	605.25
3325.597	588.25
3328.617	582.25
3331.635	592.25
3334.65	573.25
3337.663	566.25
3340.674	569.25
3343.682	564.25
3346.688	578.25
3349.691	565.25
3352.692	573.25
3355.691	571.25
3358.687	569.25
3361.681	574.25
3364.673	561.25
3367.662	555.25
3370.649	549.25
3373.633	537.25
3376.615	534.25
3379.595	512.25
3382.572	522.25
3385.547	513.25
3388.52	502.25
3391.49	502.25
3394.458	496.25
3397.424	493.25
3400.387	474.25
3403.348	491.25
3406.307	477.25
3409.263	474.25
3412.217	473.25
3415.168	468.25
3418.118	474.25
3421.065	455.25
3424.009	476.25
3426.951	448.25
3429.891	444.25
3432.829	436.25
3435.764	437.25
3438.697	417.25
3441.628	420.25
3444.557	388.25
3447.483	391.25
3450.407	390.25
3453.328	367.25
3456.247	369.25
3459.164	362.25
3462.079	357.25
3464.991	344.25
3467.902	335.25
3470.809	321.25
3473.715	323.25
3476.618	304.25
3479.519	309.25
3482.418	276.25
3485.315	285.25
3488.209	276.25
3491.101	266.25
3493.99	250.25
3496.878	258.25
3499.763	251.25
3502.646	249.25
3505.527	233.25
3508.405	226.25
3511.281	215.25
3514.155	216.25
3517.027	204.25
3519.897	193.25
3522.764	201.25
3525.629	169.25
3528.492	183.25
3531.352	175.25
3534.211	165.25
3537.067	158.25
3539.921	153.25
3542.773	149.25
3545.622	126.25
3548.469	127.25
3551.315	118.25
3554.157	127.25
3556.998	111.25
3559.837	110.25
3562.673	112.25
3565.507	97.25
3568.339	90.25
3571.169	95.25
3573.996	94.25
3576.822	73.25
3579.645	74.25
3582.466	75.25
3585.285	83.25
3588.101	73.25
3590.916	65.25
3593.728	67.25
3596.538	67.25
3599.346	64.25
3602.152	48.25
3604.956	54.25
3607.757	60.25
3610.556	29.25
3613.354	55.25
3616.149	47.25
3618.942	46.25
3621.732	45.25
3624.521	34.25
3627.307	20.25
3630.092	26.25
3632.874	42.25
3635.654	26.25
3638.432	23.25
3641.208	20.25
3643.982	19.25
3646.753	24.25
3649.523	-2.75
3652.29	15.25
3655.055	17.25
3657.818	16.25
3660.579	11.25
3663.338	-0.75
3666.095	2.25
3668.849	-18.75
3671.602	13.25
3674.352	-6.75
3677.101	10.25
3679.847	11.25
3682.591	-12.75
3685.333	-12.75
3688.073	-0.75
3690.811	-12.75
3693.547	-12.75
3696.281	-13.75
3699.013	-8.75
3701.742	-15.75
3704.47	-19.75
3707.195	-9.75
3709.919	-4.75
3712.64	-13.75
3715.359	-25.75
3718.076	-0.75
3720.792	-14.75
3723.505	-11.75
3726.216	-1.75
3728.925	-13.75
3731.632	-18.75
3734.336	-12.75
3737.039	-12.75
3739.74	-14.75
3742.439	-36.75
3745.136	-6.75
3747.83	-11.75
3750.523	-14.75
3753.213	-83.75
3755.902	-21.75
3758.589	-33.75
3761.273	-22.75
3763.956	-9.75
3766.636	-34.75
3769.315	-13.75
3771.991	-27.75
3774.665	-25.75
3777.338	-22.75
3780.008	-26.75
3782.677	-22.75
3785.343	-39.75
3788.007	-41.75
3790.67	-19.75
3793.33	-33.75
3795.989	-28.75
3798.645	-21.75
3801.299	-37.75
3803.952	-32.75
3806.602	-29.75
3809.251	-18.75
3811.897	-26.75
3814.542	-30.75
3817.184	-28.75
3819.825	-28.75
3822.463	-40.75
3825.1	-32.75
3827.735	-29.75
3830.367	-32.75
3832.998	-13.75
3835.627	-30.75
3838.253	-19.75
3840.878	-25.75
3843.501	-14.75
3846.122	-26.75
3848.741	-21.75
3851.358	-20.75
3853.973	-34.75
3856.586	-21.75
3859.197	-34.75
3861.806	-29.75
3864.414	-39.75
3867.019	-26.75
3869.622	-17.75
3872.224	-14.75
3874.823	-1.75
3877.421	27.25
3880.016	48.25
3882.61	88.25
3885.202	114.25
3887.792	73.25
3890.38	39.25
3892.966	-2.75
3895.55	-23.75
3898.132	-18.75
3900.713	-16.75
3903.291	-24.75
3905.868	-36.75
3908.442	-26.75
3911.015	-28.75
3913.586	-34.75
3916.155	-27.75
3918.722	-35.75
3921.287	-36.75
3923.85	-40.75
3926.411	-35.75
3928.971	-37.75
3931.528	-28.75
3934.084	-31.75
3936.638	-40.75
3939.19	-24.75
3941.74	-22.75
3944.288	-31.75
3946.834	-33.75
3949.378	-21.75
3951.921	-34.75
3954.462	-31.75
3957	-24.75
3959.537	-14.75
3962.072	-27.75
3964.606	-49.75
3967.137	-33.75
3969.667	-33.75
3972.194	-21.75
3974.72	-32.75
3977.244	-51.75
3979.766	-36.75
3982.286	-34.75
3984.805	-29.75
3987.321	-14.75
3989.836	-21.75
3992.349	-30.75
3994.86	-25.75
3997.369	-33.75
3999.877	-32.75
4002.382	-30.75
4004.886	-25.75
4007.388	-25.75
4009.888	-21.75
4012.386	-24.75
4014.883	-23.75
4017.377	-23.75
4019.87	-20.75
4022.361	-36.75
4024.85	-24.75
4027.338	-27.75
4029.823	-31.75
4032.307	-32.75
4034.789	-27.75
4037.269	-22.75
4039.747	-40.75
4042.224	-21.75
4044.699	-33.75
4047.172	-32.75
4049.643	-22.75
4052.112	-53.75
4054.58	-23.75
4057.046	-41.75
4059.51	-28.75
4061.972	-25.75
4064.432	-49.75
4066.891	-14.75
4069.348	-27.75
4071.803	-27.75
4074.256	-30.75
4076.708	-20.75
4079.158	-21.75
4081.606	-18.75
4084.052	-29.75
4086.497	-24.75
4088.939	-27.75
4091.38	-28.75
4093.819	-19.75
4096.257	-1.75
4098.693	-4.75
4101.127	-3.75
4103.559	-1.75
4105.989	133.25
4108.418	137.25
4110.845	126.25
4113.27	131.25
4115.694	144.25
4118.115	141.25
4120.535	-26.75
4122.954	-23.75
4125.37	-18.75
4127.785	-23.75
4130.198	-17.75
4132.609	-25.75
4135.019	7.25
4137.427	1.25
4139.833	7.25
4142.237	-3.75
