Data from 2018-3-6_conc=2_n=7_RamanShift_05.txt Node
Date: Tue Mar 06 13:02:19 GMT+02:00 2018
User: LAB3
Spectrometer: QEPB0276
Trigger mode: 0
Integration Time (sec): 3.000000E1
Scans to average: 1
Electric dark correction enabled: true
Nonlinearity correction enabled: false
Boxcar width: 0
XAxis mode: Raman Shifts
Number of Pixels in Spectrum: 1044
>>>>>Begin Spectral Data<<<<<
160.701	147.62
166.742	189.62
172.777	289.62
178.805	591.62
184.826	1351.62
190.841	2725.62
196.849	4290.62
202.85	5540.62
208.845	6026.62
214.833	5987.62
220.815	5959.62
226.789	5974.62
232.758	6009.62
238.719	6016.62
244.674	6012.62
250.623	5988.62
256.565	5905.62
262.5	5903.62
268.429	5844.62
274.351	5851.62
280.267	5860.62
286.176	5840.62
292.079	5856.62
297.975	5844.62
303.865	5850.62
309.748	5906.62
315.625	5931.62
321.495	5958.62
327.359	5932.62
333.217	5944.62
339.068	5992.62
344.912	6043.62
350.751	6017.62
356.583	6028.62
362.408	6082.62
368.227	6133.62
374.04	6145.62
379.847	6177.62
385.647	6221.62
391.44	6209.62
397.228	6279.62
403.009	6298.62
408.784	6318.62
414.553	6351.62
420.315	6370.62
426.071	6382.62
431.821	6419.62
437.565	6401.62
443.302	6340.62
449.033	6325.62
454.758	6310.62
460.477	6260.62
466.189	6213.62
471.896	6128.62
477.596	6066.62
483.29	6065.62
488.978	6037.62
494.66	6006.62
500.335	5859.62
506.005	5621.62
511.668	5260.62
517.325	5043.62
522.977	4826.62
528.622	4670.62
534.261	4555.62
539.894	4436.62
545.521	4376.62
551.141	4303.62
556.756	4277.62
562.365	4214.62
567.968	4200.62
573.565	4156.62
579.155	4155.62
584.74	4114.62
590.319	4109.62
595.892	4095.62
601.459	4097.62
607.02	4076.62
612.575	4052.62
618.124	4036.62
623.667	3945.62
629.204	3891.62
634.735	3830.62
640.261	3798.62
645.781	3759.62
651.294	3729.62
656.802	3704.62
662.304	3729.62
667.8	3696.62
673.29	3696.62
678.775	3672.62
684.254	3674.62
689.726	3639.62
695.193	3624.62
700.655	3613.62
706.11	3606.62
711.56	3576.62
717.004	3565.62
722.442	3500.62
727.874	3506.62
733.301	3519.62
738.722	3490.62
744.137	3498.62
749.547	3472.62
754.951	3472.62
760.349	3504.62
765.741	3501.62
771.128	3510.62
776.509	3587.62
781.885	3653.62
787.254	3661.62
792.618	3709.62
797.977	3685.62
803.33	3653.62
808.677	3664.62
814.019	3611.62
819.355	3564.62
824.686	3557.62
830.011	3495.62
835.33	3532.62
840.644	3479.62
845.952	3448.62
851.255	3425.62
856.552	3377.62
861.844	3350.62
867.13	3301.62
872.41	3271.62
877.686	3278.62
882.955	3243.62
888.219	3208.62
893.478	3165.62
898.731	3115.62
903.979	3093.62
909.221	3034.62
914.458	3007.62
919.69	3011.62
924.916	3027.62
930.136	3020.62
935.351	3022.62
940.561	3048.62
945.766	3033.62
950.965	3007.62
956.158	2998.62
961.347	2924.62
966.529	2924.62
971.707	2880.62
976.879	2862.62
982.046	2812.62
987.208	2791.62
992.364	2809.62
997.515	2796.62
1002.66	2835.62
1007.801	2860.62
1012.936	2893.62
1018.066	2855.62
1023.19	2919.62
1028.309	2892.62
1033.423	2913.62
1038.532	2922.62
1043.636	2896.62
1048.734	2885.62
1053.827	2838.62
1058.915	2805.62
1063.998	2804.62
1069.075	2797.62
1074.147	2806.62
1079.214	2785.62
1084.276	2807.62
1089.333	2809.62
1094.385	2821.62
1099.431	2819.62
1104.472	2805.62
1109.509	2767.62
1114.54	2723.62
1119.565	2670.62
1124.586	2650.62
1129.602	2620.62
1134.613	2595.62
1139.618	2578.62
1144.619	2579.62
1149.614	2561.62
1154.604	2603.62
1159.589	2605.62
1164.57	2612.62
1169.545	2626.62
1174.515	2614.62
1179.48	2576.62
1184.44	2583.62
1189.395	2573.62
1194.345	2550.62
1199.29	2538.62
1204.23	2532.62
1209.165	2513.62
1214.095	2553.62
1219.021	2550.62
1223.941	2538.62
1228.856	2554.62
1233.766	2573.62
1238.672	2563.62
1243.572	2573.62
1248.467	2538.62
1253.358	2504.62
1258.244	2463.62
1263.124	2451.62
1268	2407.62
1272.871	2358.62
1277.737	2326.62
1282.599	2310.62
1287.455	2344.62
1292.306	2312.62
1297.153	2312.62
1301.995	2329.62
1306.832	2349.62
1311.664	2361.62
1316.491	2337.62
1321.314	2338.62
1326.132	2319.62
1330.945	2287.62
1335.753	2236.62
1340.556	2217.62
1345.354	2176.62
1350.148	2150.62
1354.937	2145.62
1359.722	2107.62
1364.501	2101.62
1369.276	2114.62
1374.046	2087.62
1378.811	2089.62
1383.572	2077.62
1388.327	2070.62
1393.079	2029.62
1397.825	2047.62
1402.567	2032.62
1407.304	2012.62
1412.036	2010.62
1416.764	1978.62
1421.487	1984.62
1426.205	1974.62
1430.919	2001.62
1435.628	1996.62
1440.333	1993.62
1445.032	2022.62
1449.727	2049.62
1454.418	2057.62
1459.104	2036.62
1463.785	2010.62
1468.462	2005.62
1473.134	1957.62
1477.802	1954.62
1482.465	1882.62
1487.123	1879.62
1491.777	1868.62
1496.426	1866.62
1501.071	1889.62
1505.711	1851.62
1510.347	1895.62
1514.978	1902.62
1519.604	1904.62
1524.226	1924.62
1528.844	1887.62
1533.457	1878.62
1538.065	1874.62
1542.669	1839.62
1547.269	1816.62
1551.864	1843.62
1556.454	1804.62
1561.041	1816.62
1565.622	1818.62
1570.199	1815.62
1574.772	1831.62
1579.34	1854.62
1583.904	1877.62
1588.464	1885.62
1593.019	1902.62
1597.569	1855.62
1602.115	1873.62
1606.657	1855.62
1611.195	1867.62
1615.728	1863.62
1620.256	1843.62
1624.78	1813.62
1629.3	1851.62
1633.816	1862.62
1638.327	1869.62
1642.834	1871.62
1647.336	1891.62
1651.834	1901.62
1656.328	1883.62
1660.817	1888.62
1665.302	1880.62
1669.783	1845.62
1674.259	1828.62
1678.732	1791.62
1683.199	1754.62
1687.663	1704.62
1692.122	1681.62
1696.577	1638.62
1701.028	1627.62
1705.474	1587.62
1709.917	1557.62
1714.355	1526.62
1718.788	1520.62
1723.218	1496.62
1727.643	1466.62
1732.064	1448.62
1736.481	1414.62
1740.893	1420.62
1745.301	1375.62
1749.705	1311.62
1754.105	1318.62
1758.501	1291.62
1762.893	1280.62
1767.28	1244.62
1771.663	1239.62
1776.042	1235.62
1780.417	1222.62
1784.787	1225.62
1789.154	1229.62
1793.516	1236.62
1797.874	1235.62
1802.228	1217.62
1806.578	1209.62
1810.924	1223.62
1815.266	1102.62
1819.603	1182.62
1823.937	1163.62
1828.266	1154.62
1832.591	1157.62
1836.913	1143.62
1841.23	1114.62
1845.543	1105.62
1849.852	1123.62
1854.156	1115.62
1858.457	1134.62
1862.754	1122.62
1867.047	1125.62
1871.335	1126.62
1875.62	1138.62
1879.9	1123.62
1884.177	1114.62
1888.449	1119.62
1892.718	1120.62
1896.982	1117.62
1901.243	1082.62
1905.499	1088.62
1909.752	1079.62
1914	1082.62
1918.245	1113.62
1922.485	1101.62
1926.722	1101.62
1930.954	1101.62
1935.183	1109.62
1939.408	1119.62
1943.628	1101.62
1947.845	1096.62
1952.058	1092.62
1956.267	1066.62
1960.472	1079.62
1964.673	1042.62
1968.87	1025.62
1973.063	1011.62
1977.252	989.62
1981.438	994.62
1985.619	977.62
1989.797	953.62
1993.971	955.62
1998.14	973.62
2002.306	936.62
2006.469	962.62
2010.627	939.62
2014.781	919.62
2018.932	922.62
2023.078	945.62
2027.221	921.62
2031.36	911.62
2035.495	914.62
2039.627	881.62
2043.754	890.62
2047.878	870.62
2051.998	869.62
2056.114	872.62
2060.226	862.62
2064.334	880.62
2068.439	894.62
2072.54	887.62
2076.637	891.62
2080.73	886.62
2084.82	880.62
2088.906	864.62
2092.988	890.62
2097.066	881.62
2101.14	884.62
2105.211	869.62
2109.278	861.62
2113.342	845.62
2117.401	827.62
2121.457	815.62
2125.509	814.62
2129.558	827.62
2133.602	817.62
2137.643	803.62
2141.681	789.62
2145.714	799.62
2149.744	793.62
2153.77	784.62
2157.793	758.62
2161.812	738.62
2165.827	729.62
2169.838	750.62
2173.846	711.62
2177.851	699.62
2181.851	703.62
2185.848	698.62
2189.841	697.62
2193.831	676.62
2197.817	673.62
2201.799	656.62
2205.778	662.62
2209.753	646.62
2213.725	655.62
2217.693	661.62
2221.657	643.62
2225.618	656.62
2229.575	646.62
2233.529	644.62
2237.479	646.62
2241.425	617.62
2245.368	604.62
2249.307	616.62
2253.243	588.62
2257.175	598.62
2261.104	580.62
2265.029	581.62
2268.95	559.62
2272.868	556.62
2276.783	541.62
2280.694	553.62
2284.601	543.62
2288.505	537.62
2292.405	526.62
2296.302	511.62
2300.195	514.62
2304.085	487.62
2307.971	504.62
2311.854	472.62
2315.734	474.62
2319.609	487.62
2323.482	445.62
2327.351	461.62
2331.216	455.62
2335.078	467.62
2338.937	467.62
2342.792	442.62
2346.643	444.62
2350.492	452.62
2354.336	446.62
2358.178	457.62
2362.015	448.62
2365.85	443.62
2369.681	445.62
2373.508	452.62
2377.333	456.62
2381.153	453.62
2384.971	439.62
2388.785	455.62
2392.595	426.62
2396.402	429.62
2400.206	404.62
2404.007	420.62
2407.804	424.62
2411.597	414.62
2415.388	419.62
2419.174	414.62
2422.958	422.62
2426.738	411.62
2430.515	418.62
2434.289	408.62
2438.059	396.62
2441.825	397.62
2445.589	405.62
2449.349	386.62
2453.106	390.62
2456.859	381.62
2460.61	390.62
2464.356	373.62
2468.1	366.62
2471.84	370.62
2475.577	376.62
2479.311	364.62
2483.041	363.62
2486.768	373.62
2490.492	381.62
2494.213	369.62
2497.93	362.62
2501.644	355.62
2505.355	354.62
2509.062	353.62
2512.766	354.62
2516.467	351.62
2520.165	352.62
2523.859	342.62
2527.551	375.62
2531.239	341.62
2534.923	354.62
2538.605	341.62
2542.283	339.62
2545.958	334.62
2549.63	353.62
2553.299	347.62
2556.964	326.62
2560.626	339.62
2564.285	340.62
2567.941	311.62
2571.594	311.62
2575.243	332.62
2578.89	321.62
2582.533	320.62
2586.173	320.62
2589.809	310.62
2593.443	289.62
2597.073	309.62
2600.701	304.62
2604.325	305.62
2607.946	288.62
2611.564	308.62
2615.178	295.62
2618.79	299.62
2622.398	282.62
2626.004	301.62
2629.606	283.62
2633.205	270.62
2636.801	281.62
2640.394	272.62
2643.983	275.62
2647.57	268.62
2651.153	259.62
2654.734	282.62
2658.311	251.62
2661.885	250.62
2665.456	250.62
2669.025	259.62
2672.589	243.62
2676.151	267.62
2679.71	265.62
2683.266	247.62
2686.819	240.62
2690.368	240.62
2693.915	252.62
2697.458	228.62
2700.999	237.62
2704.536	237.62
2708.071	228.62
2711.602	234.62
2715.13	224.62
2718.656	210.62
2722.178	217.62
2725.697	208.62
2729.214	210.62
2732.727	226.62
2736.237	213.62
2739.744	213.62
2743.249	219.62
2746.75	220.62
2750.248	212.62
2753.743	225.62
2757.236	226.62
2760.725	227.62
2764.211	192.62
2767.695	220.62
2771.175	211.62
2774.652	221.62
2778.127	208.62
2781.598	205.62
2785.067	216.62
2788.532	198.62
2791.995	211.62
2795.455	204.62
2798.911	221.62
2802.365	204.62
2805.816	207.62
2809.264	224.62
2812.709	206.62
2816.151	220.62
2819.59	201.62
2823.026	215.62
2826.46	208.62
2829.89	221.62
2833.318	194.62
2836.742	209.62
2840.164	214.62
2843.583	213.62
2846.999	211.62
2850.412	221.62
2853.822	212.62
2857.229	227.62
2860.634	228.62
2864.035	206.62
2867.434	229.62
2870.83	240.62
2874.223	234.62
2877.613	235.62
2881	227.62
2884.385	241.62
2887.766	240.62
2891.145	238.62
2894.521	238.62
2897.894	225.62
2901.264	248.62
2904.631	235.62
2907.996	246.62
2911.358	252.62
2914.717	254.62
2918.073	243.62
2921.426	245.62
2924.777	230.62
2928.124	249.62
2931.469	273.62
2934.811	261.62
2938.15	282.62
2941.487	268.62
2944.821	300.62
2948.152	276.62
2951.48	279.62
2954.805	265.62
2958.128	292.62
2961.447	272.62
2964.765	288.62
2968.079	277.62
2971.39	279.62
2974.699	283.62
2978.005	293.62
2981.308	283.62
2984.609	283.62
2987.907	304.62
2991.202	304.62
2994.494	291.62
2997.784	304.62
3001.07	301.62
3004.355	305.62
3007.636	315.62
3010.915	307.62
3014.191	308.62
3017.464	315.62
3020.734	312.62
3024.002	319.62
3027.267	313.62
3030.53	328.62
3033.789	323.62
3037.046	323.62
3040.301	319.62
3043.552	343.62
3046.801	352.62
3050.048	354.62
3053.291	380.62
3056.532	368.62
3059.771	362.62
3063.006	387.62
3066.239	391.62
3069.469	410.62
3072.697	398.62
3075.922	425.62
3079.144	433.62
3082.364	448.62
3085.581	438.62
3088.795	480.62
3092.007	469.62
3095.216	488.62
3098.423	487.62
3101.627	476.62
3104.828	498.62
3108.026	500.62
3111.222	538.62
3114.416	534.62
3117.607	544.62
3120.795	559.62
3123.98	555.62
3127.163	565.62
3130.344	583.62
3133.521	596.62
3136.696	625.62
3139.869	632.62
3143.039	614.62
3146.206	665.62
3149.371	658.62
3152.533	655.62
3155.693	656.62
3158.85	671.62
3162.005	666.62
3165.157	658.62
3168.306	684.62
3171.453	676.62
3174.597	671.62
3177.739	675.62
3180.878	682.62
3184.014	674.62
3187.149	691.62
3190.28	690.62
3193.409	691.62
3196.536	690.62
3199.659	707.62
3202.781	715.62
3205.9	687.62
3209.016	703.62
3212.13	692.62
3215.241	684.62
3218.35	687.62
3221.456	678.62
3224.56	664.62
3227.661	687.62
3230.76	669.62
3233.856	666.62
3236.95	666.62
3240.041	644.62
3243.13	660.62
3246.216	653.62
3249.3	658.62
3252.382	644.62
3255.46	645.62
3258.537	586.62
3261.611	627.62
3264.682	643.62
3267.751	640.62
3270.818	629.62
3273.882	634.62
3276.943	629.62
3280.002	641.62
3283.059	608.62
3286.113	616.62
3289.165	595.62
3292.214	585.62
3295.261	586.62
3298.306	571.62
3301.348	570.62
3304.387	556.62
3307.425	555.62
3310.459	539.62
3313.492	547.62
3316.521	542.62
3319.549	534.62
3322.574	536.62
3325.597	510.62
3328.617	515.62
3331.635	525.62
3334.65	505.62
3337.663	507.62
3340.674	510.62
3343.682	515.62
3346.688	517.62
3349.691	507.62
3352.692	492.62
3355.691	518.62
3358.687	512.62
3361.681	499.62
3364.673	496.62
3367.662	493.62
3370.649	495.62
3373.633	459.62
3376.615	468.62
3379.595	444.62
3382.572	456.62
3385.547	448.62
3388.52	439.62
3391.49	447.62
3394.458	435.62
3397.424	443.62
3400.387	427.62
3403.348	423.62
3406.307	424.62
3409.263	412.62
3412.217	423.62
3415.168	420.62
3418.118	421.62
3421.065	406.62
3424.009	407.62
3426.951	401.62
3429.891	380.62
3432.829	386.62
3435.764	378.62
3438.697	369.62
3441.628	373.62
3444.557	354.62
3447.483	341.62
3450.407	342.62
3453.328	330.62
3456.247	313.62
3459.164	309.62
3462.079	312.62
3464.991	296.62
3467.902	282.62
3470.809	280.62
3473.715	280.62
3476.618	270.62
3479.519	265.62
3482.418	232.62
3485.315	254.62
3488.209	242.62
3491.101	242.62
3493.99	217.62
3496.878	220.62
3499.763	219.62
3502.646	215.62
3505.527	198.62
3508.405	189.62
3511.281	180.62
3514.155	194.62
3517.027	178.62
3519.897	162.62
3522.764	170.62
3525.629	139.62
3528.492	151.62
3531.352	153.62
3534.211	149.62
3537.067	129.62
3539.921	138.62
3542.773	145.62
3545.622	112.62
3548.469	104.62
3551.315	101.62
3554.157	102.62
3556.998	95.62
3559.837	89.62
3562.673	90.62
3565.507	77.62
3568.339	75.62
3571.169	74.62
3573.996	79.62
3576.822	46.62
3579.645	60.62
3582.466	54.62
3585.285	61.62
3588.101	68.62
3590.916	50.62
3593.728	55.62
3596.538	50.62
3599.346	48.62
3602.152	34.62
3604.956	41.62
3607.757	36.62
3610.556	23.62
3613.354	39.62
3616.149	33.62
3618.942	31.62
3621.732	33.62
3624.521	24.62
3627.307	16.62
3630.092	11.62
3632.874	27.62
3635.654	18.62
3638.432	10.62
3641.208	15.62
3643.982	11.62
3646.753	15.62
3649.523	-12.38
3652.29	1.62
3655.055	8.62
3657.818	1.62
3660.579	-1.38
3663.338	-4.38
3666.095	-5.38
3668.849	-28.38
3671.602	-0.38
3674.352	-15.38
3677.101	1.62
3679.847	-2.38
3682.591	-16.38
3685.333	-21.38
3688.073	-7.38
3690.811	-20.38
3693.547	-25.38
3696.281	-25.38
3699.013	-8.38
3701.742	-16.38
3704.47	-25.38
3707.195	-15.38
3709.919	-16.38
3712.64	-19.38
3715.359	-27.38
3718.076	-10.38
3720.792	-20.38
3723.505	-14.38
3726.216	-10.38
3728.925	-19.38
3731.632	-28.38
3734.336	-20.38
3737.039	-19.38
3739.74	-19.38
3742.439	-46.38
3745.136	-18.38
3747.83	-21.38
3750.523	-19.38
3753.213	-88.38
3755.902	-27.38
3758.589	-38.38
3761.273	-31.38
3763.956	-20.38
3766.636	-40.38
3769.315	-17.38
3771.991	-25.38
3774.665	-29.38
3777.338	-26.38
3780.008	-39.38
3782.677	-30.38
3785.343	-42.38
3788.007	-48.38
3790.67	-21.38
3793.33	-42.38
3795.989	-35.38
3798.645	-24.38
3801.299	-38.38
3803.952	-36.38
3806.602	-36.38
3809.251	-22.38
3811.897	-30.38
3814.542	-33.38
3817.184	-32.38
3819.825	-28.38
3822.463	-43.38
3825.1	-33.38
3827.735	-32.38
3830.367	-43.38
3832.998	-20.38
3835.627	-34.38
3838.253	-25.38
3840.878	-32.38
3843.501	-18.38
3846.122	-30.38
3848.741	-25.38
3851.358	-21.38
3853.973	-42.38
3856.586	-22.38
3859.197	-38.38
3861.806	-33.38
3864.414	-41.38
3867.019	-29.38
3869.622	-20.38
3872.224	-14.38
3874.823	-3.38
3877.421	23.62
3880.016	43.62
3882.61	76.62
3885.202	98.62
3887.792	75.62
3890.38	36.62
3892.966	-5.38
3895.55	-28.38
3898.132	-16.38
3900.713	-25.38
3903.291	-26.38
3905.868	-37.38
3908.442	-28.38
3911.015	-35.38
3913.586	-35.38
3916.155	-34.38
3918.722	-36.38
3921.287	-35.38
3923.85	-46.38
3926.411	-38.38
3928.971	-35.38
3931.528	-32.38
3934.084	-38.38
3936.638	-46.38
3939.19	-29.38
3941.74	-31.38
3944.288	-37.38
3946.834	-36.38
3949.378	-24.38
3951.921	-35.38
3954.462	-31.38
3957	-35.38
3959.537	-18.38
3962.072	-28.38
3964.606	-44.38
3967.137	-33.38
3969.667	-39.38
3972.194	-27.38
3974.72	-33.38
3977.244	-52.38
3979.766	-34.38
3982.286	-37.38
3984.805	-25.38
3987.321	-23.38
3989.836	-25.38
3992.349	-32.38
3994.86	-30.38
3997.369	-33.38
3999.877	-37.38
4002.382	-28.38
4004.886	-25.38
4007.388	-30.38
4009.888	-22.38
4012.386	-21.38
4014.883	-26.38
4017.377	-25.38
4019.87	-25.38
4022.361	-40.38
4024.85	-30.38
4027.338	-24.38
4029.823	-31.38
4032.307	-32.38
4034.789	-25.38
4037.269	-30.38
4039.747	-45.38
4042.224	-21.38
4044.699	-31.38
4047.172	-32.38
4049.643	-23.38
4052.112	-52.38
4054.58	-29.38
4057.046	-39.38
4059.51	-28.38
4061.972	-25.38
4064.432	-46.38
4066.891	-16.38
4069.348	-26.38
4071.803	-24.38
4074.256	-34.38
4076.708	-21.38
4079.158	-27.38
4081.606	-13.38
4084.052	-30.38
4086.497	-25.38
4088.939	-29.38
4091.38	-30.38
4093.819	-25.38
4096.257	0.62
4098.693	-9.38
4101.127	-3.38
4103.559	1.62
4105.989	128.62
4108.418	130.62
4110.845	124.62
4113.27	130.62
4115.694	142.62
4118.115	130.62
4120.535	-29.38
4122.954	-20.38
4125.37	-16.38
4127.785	-24.38
4130.198	-16.38
4132.609	-22.38
4135.019	5.62
4137.427	3.62
4139.833	4.62
4142.237	-3.38
