Data from 2018-3-6_conc=2_n=8_RamanShift_03.txt Node
Date: Tue Mar 06 13:04:19 GMT+02:00 2018
User: LAB3
Spectrometer: QEPB0276
Trigger mode: 0
Integration Time (sec): 3.000000E1
Scans to average: 1
Electric dark correction enabled: true
Nonlinearity correction enabled: false
Boxcar width: 0
XAxis mode: Raman Shifts
Number of Pixels in Spectrum: 1044
>>>>>Begin Spectral Data<<<<<
160.701	165.5
166.742	205.5
172.777	310.5
178.805	618.5
184.826	1402.5
190.841	2845.5
196.849	4522.5
202.85	5758.5
208.845	6243.5
214.833	6292.5
220.815	6193.5
226.789	6216.5
232.758	6233.5
238.719	6245.5
244.674	6260.5
250.623	6214.5
256.565	6167.5
262.5	6077.5
268.429	6080.5
274.351	6070.5
280.267	6078.5
286.176	6063.5
292.079	6100.5
297.975	6153.5
303.865	6127.5
309.748	6112.5
315.625	6121.5
321.495	6168.5
327.359	6170.5
333.217	6159.5
339.068	6198.5
344.912	6208.5
350.751	6249.5
356.583	6294.5
362.408	6316.5
368.227	6330.5
374.04	6367.5
379.847	6412.5
385.647	6432.5
391.44	6432.5
397.228	6493.5
403.009	6508.5
408.784	6545.5
414.553	6623.5
420.315	6629.5
426.071	6629.5
431.821	6635.5
437.565	6600.5
443.302	6547.5
449.033	6550.5
454.758	6527.5
460.477	6504.5
466.189	6418.5
471.896	6380.5
477.596	6307.5
483.29	6268.5
488.978	6280.5
494.66	6205.5
500.335	6038.5
506.005	5790.5
511.668	5452.5
517.325	5198.5
522.977	5020.5
528.622	4839.5
534.261	4717.5
539.894	4603.5
545.521	4578.5
551.141	4492.5
556.756	4424.5
562.365	4395.5
567.968	4366.5
573.565	4293.5
579.155	4282.5
584.74	4261.5
590.319	4260.5
595.892	4256.5
601.459	4271.5
607.02	4256.5
612.575	4239.5
618.124	4179.5
623.667	4070.5
629.204	4044.5
634.735	3974.5
640.261	3940.5
645.781	3899.5
651.294	3882.5
656.802	3878.5
662.304	3869.5
667.8	3873.5
673.29	3820.5
678.775	3827.5
684.254	3793.5
689.726	3773.5
695.193	3773.5
700.655	3753.5
706.11	3738.5
711.56	3730.5
717.004	3701.5
722.442	3652.5
727.874	3637.5
733.301	3671.5
738.722	3638.5
744.137	3646.5
749.547	3623.5
754.951	3616.5
760.349	3660.5
765.741	3654.5
771.128	3672.5
776.509	3728.5
781.885	3783.5
787.254	3830.5
792.618	3804.5
797.977	3835.5
803.33	3807.5
808.677	3746.5
814.019	3748.5
819.355	3727.5
824.686	3652.5
830.011	3659.5
835.33	3616.5
840.644	3635.5
845.952	3561.5
851.255	3559.5
856.552	3534.5
861.844	3498.5
867.13	3408.5
872.41	3409.5
877.686	3365.5
882.955	3353.5
888.219	3312.5
893.478	3280.5
898.731	3222.5
903.979	3175.5
909.221	3136.5
914.458	3148.5
919.69	3140.5
924.916	3150.5
930.136	3157.5
935.351	3131.5
940.561	3155.5
945.766	3115.5
950.965	3130.5
956.158	3078.5
961.347	3082.5
966.529	3024.5
971.707	2970.5
976.879	2944.5
982.046	2915.5
987.208	2911.5
992.364	2918.5
997.515	2919.5
1002.66	2948.5
1007.801	2985.5
1012.936	2998.5
1018.066	2960.5
1023.19	3010.5
1028.309	3035.5
1033.423	3045.5
1038.532	3011.5
1043.636	3011.5
1048.734	2995.5
1053.827	2946.5
1058.915	2923.5
1063.998	2907.5
1069.075	2890.5
1074.147	2891.5
1079.214	2886.5
1084.276	2903.5
1089.333	2905.5
1094.385	2918.5
1099.431	2893.5
1104.472	2905.5
1109.509	2860.5
1114.54	2797.5
1119.565	2779.5
1124.586	2739.5
1129.602	2698.5
1134.613	2672.5
1139.618	2671.5
1144.619	2657.5
1149.614	2681.5
1154.604	2658.5
1159.589	2679.5
1164.57	2707.5
1169.545	2707.5
1174.515	2729.5
1179.48	2713.5
1184.44	2677.5
1189.395	2674.5
1194.345	2616.5
1199.29	2628.5
1204.23	2613.5
1209.165	2588.5
1214.095	2617.5
1219.021	2650.5
1223.941	2635.5
1228.856	2655.5
1233.766	2665.5
1238.672	2671.5
1243.572	2658.5
1248.467	2621.5
1253.358	2590.5
1258.244	2565.5
1263.124	2534.5
1268	2490.5
1272.871	2455.5
1277.737	2414.5
1282.599	2404.5
1287.455	2403.5
1292.306	2394.5
1297.153	2413.5
1301.995	2427.5
1306.832	2430.5
1311.664	2432.5
1316.491	2430.5
1321.314	2424.5
1326.132	2393.5
1330.945	2360.5
1335.753	2323.5
1340.556	2275.5
1345.354	2247.5
1350.148	2207.5
1354.937	2199.5
1359.722	2167.5
1364.501	2162.5
1369.276	2161.5
1374.046	2168.5
1378.811	2125.5
1383.572	2121.5
1388.327	2127.5
1393.079	2084.5
1397.825	2077.5
1402.567	2090.5
1407.304	2071.5
1412.036	2059.5
1416.764	2037.5
1421.487	2019.5
1426.205	2041.5
1430.919	2056.5
1435.628	2052.5
1440.333	2083.5
1445.032	2081.5
1449.727	2117.5
1454.418	2118.5
1459.104	2104.5
1463.785	2069.5
1468.462	2020.5
1473.134	2015.5
1477.802	1972.5
1482.465	1925.5
1487.123	1937.5
1491.777	1886.5
1496.426	1878.5
1501.071	1928.5
1505.711	1909.5
1510.347	1933.5
1514.978	1942.5
1519.604	1927.5
1524.226	1950.5
1528.844	1908.5
1533.457	1919.5
1538.065	1892.5
1542.669	1886.5
1547.269	1857.5
1551.864	1869.5
1556.454	1839.5
1561.041	1852.5
1565.622	1860.5
1570.199	1874.5
1574.772	1877.5
1579.34	1901.5
1583.904	1918.5
1588.464	1939.5
1593.019	1943.5
1597.569	1919.5
1602.115	1916.5
1606.657	1917.5
1611.195	1917.5
1615.728	1907.5
1620.256	1882.5
1624.78	1868.5
1629.3	1885.5
1633.816	1906.5
1638.327	1902.5
1642.834	1899.5
1647.336	1930.5
1651.834	1955.5
1656.328	1927.5
1660.817	1931.5
1665.302	1906.5
1669.783	1871.5
1674.259	1863.5
1678.732	1828.5
1683.199	1780.5
1687.663	1712.5
1692.122	1701.5
1696.577	1627.5
1701.028	1635.5
1705.474	1594.5
1709.917	1554.5
1714.355	1557.5
1718.788	1520.5
1723.218	1515.5
1727.643	1491.5
1732.064	1480.5
1736.481	1438.5
1740.893	1428.5
1745.301	1396.5
1749.705	1340.5
1754.105	1333.5
1758.501	1299.5
1762.893	1300.5
1767.28	1262.5
1771.663	1248.5
1776.042	1239.5
1780.417	1249.5
1784.787	1225.5
1789.154	1248.5
1793.516	1230.5
1797.874	1221.5
1802.228	1230.5
1806.578	1223.5
1810.924	1229.5
1815.266	1081.5
1819.603	1193.5
1823.937	1177.5
1828.266	1167.5
1832.591	1165.5
1836.913	1135.5
1841.23	1121.5
1845.543	1121.5
1849.852	1128.5
1854.156	1124.5
1858.457	1130.5
1862.754	1127.5
1867.047	1145.5
1871.335	1143.5
1875.62	1143.5
1879.9	1148.5
1884.177	1129.5
1888.449	1126.5
1892.718	1121.5
1896.982	1131.5
1901.243	1089.5
1905.499	1102.5
1909.752	1082.5
1914	1090.5
1918.245	1098.5
1922.485	1101.5
1926.722	1108.5
1930.954	1109.5
1935.183	1117.5
1939.408	1107.5
1943.628	1110.5
1947.845	1092.5
1952.058	1101.5
1956.267	1062.5
1960.472	1060.5
1964.673	1042.5
1968.87	1006.5
1973.063	1000.5
1977.252	986.5
1981.438	986.5
1985.619	958.5
1989.797	957.5
1993.971	953.5
1998.14	953.5
2002.306	954.5
2006.469	959.5
2010.627	926.5
2014.781	945.5
2018.932	932.5
2023.078	949.5
2027.221	929.5
2031.36	915.5
2035.495	907.5
2039.627	889.5
2043.754	878.5
2047.878	869.5
2051.998	881.5
2056.114	880.5
2060.226	869.5
2064.334	876.5
2068.439	884.5
2072.54	884.5
2076.637	876.5
2080.73	879.5
2084.82	886.5
2088.906	869.5
2092.988	888.5
2097.066	876.5
2101.14	887.5
2105.211	867.5
2109.278	848.5
2113.342	839.5
2117.401	832.5
2121.457	813.5
2125.509	809.5
2129.558	817.5
2133.602	796.5
2137.643	802.5
2141.681	804.5
2145.714	798.5
2149.744	790.5
2153.77	776.5
2157.793	768.5
2161.812	746.5
2165.827	724.5
2169.838	746.5
2173.846	731.5
2177.851	713.5
2181.851	718.5
2185.848	694.5
2189.841	700.5
2193.831	684.5
2197.817	678.5
2201.799	674.5
2205.778	664.5
2209.753	662.5
2213.725	653.5
2217.693	660.5
2221.657	645.5
2225.618	656.5
2229.575	649.5
2233.529	641.5
2237.479	644.5
2241.425	630.5
2245.368	616.5
2249.307	609.5
2253.243	589.5
2257.175	592.5
2261.104	573.5
2265.029	568.5
2268.95	564.5
2272.868	562.5
2276.783	551.5
2280.694	551.5
2284.601	543.5
2288.505	530.5
2292.405	537.5
2296.302	521.5
2300.195	518.5
2304.085	491.5
2307.971	513.5
2311.854	481.5
2315.734	494.5
2319.609	485.5
2323.482	464.5
2327.351	474.5
2331.216	463.5
2335.078	490.5
2338.937	461.5
2342.792	455.5
2346.643	447.5
2350.492	465.5
2354.336	451.5
2358.178	466.5
2362.015	462.5
2365.85	458.5
2369.681	451.5
2373.508	467.5
2377.333	470.5
2381.153	460.5
2384.971	452.5
2388.785	454.5
2392.595	447.5
2396.402	445.5
2400.206	412.5
2404.007	441.5
2407.804	433.5
2411.597	439.5
2415.388	432.5
2419.174	428.5
2422.958	434.5
2426.738	429.5
2430.515	421.5
2434.289	411.5
2438.059	408.5
2441.825	413.5
2445.589	416.5
2449.349	390.5
2453.106	406.5
2456.859	396.5
2460.61	408.5
2464.356	379.5
2468.1	378.5
2471.84	379.5
2475.577	371.5
2479.311	381.5
2483.041	371.5
2486.768	390.5
2490.492	383.5
2494.213	372.5
2497.93	363.5
2501.644	359.5
2505.355	364.5
2509.062	363.5
2512.766	369.5
2516.467	355.5
2520.165	363.5
2523.859	345.5
2527.551	376.5
2531.239	344.5
2534.923	357.5
2538.605	342.5
2542.283	347.5
2545.958	350.5
2549.63	350.5
2553.299	353.5
2556.964	340.5
2560.626	343.5
2564.285	331.5
2567.941	327.5
2571.594	323.5
2575.243	343.5
2578.89	322.5
2582.533	331.5
2586.173	325.5
2589.809	324.5
2593.443	287.5
2597.073	312.5
2600.701	315.5
2604.325	305.5
2607.946	294.5
2611.564	317.5
2615.178	304.5
2618.79	299.5
2622.398	291.5
2626.004	287.5
2629.606	293.5
2633.205	280.5
2636.801	292.5
2640.394	279.5
2643.983	290.5
2647.57	274.5
2651.153	273.5
2654.734	272.5
2658.311	249.5
2661.885	260.5
2665.456	260.5
2669.025	253.5
2672.589	251.5
2676.151	270.5
2679.71	263.5
2683.266	255.5
2686.819	247.5
2690.368	247.5
2693.915	248.5
2697.458	247.5
2700.999	239.5
2704.536	237.5
2708.071	235.5
2711.602	236.5
2715.13	234.5
2718.656	208.5
2722.178	227.5
2725.697	216.5
2729.214	221.5
2732.727	221.5
2736.237	203.5
2739.744	218.5
2743.249	217.5
2746.75	223.5
2750.248	222.5
2753.743	224.5
2757.236	213.5
2760.725	226.5
2764.211	191.5
2767.695	214.5
2771.175	219.5
2774.652	217.5
2778.127	208.5
2781.598	206.5
2785.067	210.5
2788.532	208.5
2791.995	207.5
2795.455	210.5
2798.911	219.5
2802.365	211.5
2805.816	217.5
2809.264	221.5
2812.709	216.5
2816.151	213.5
2819.59	207.5
2823.026	214.5
2826.46	217.5
2829.89	220.5
2833.318	196.5
2836.742	212.5
2840.164	220.5
2843.583	206.5
2846.999	218.5
2850.412	225.5
2853.822	218.5
2857.229	236.5
2860.634	220.5
2864.035	213.5
2867.434	238.5
2870.83	232.5
2874.223	238.5
2877.613	234.5
2881	225.5
2884.385	244.5
2887.766	244.5
2891.145	244.5
2894.521	229.5
2897.894	236.5
2901.264	252.5
2904.631	248.5
2907.996	245.5
2911.358	254.5
2914.717	255.5
2918.073	250.5
2921.426	245.5
2924.777	240.5
2928.124	256.5
2931.469	267.5
2934.811	260.5
2938.15	281.5
2941.487	276.5
2944.821	297.5
2948.152	279.5
2951.48	285.5
2954.805	277.5
2958.128	283.5
2961.447	271.5
2964.765	287.5
2968.079	274.5
2971.39	280.5
2974.699	288.5
2978.005	289.5
2981.308	291.5
2984.609	282.5
2987.907	311.5
2991.202	303.5
2994.494	289.5
2997.784	307.5
3001.07	300.5
3004.355	294.5
3007.636	313.5
3010.915	325.5
3014.191	307.5
3017.464	313.5
3020.734	310.5
3024.002	312.5
3027.267	313.5
3030.53	327.5
3033.789	327.5
3037.046	323.5
3040.301	315.5
3043.552	339.5
3046.801	347.5
3050.048	361.5
3053.291	385.5
3056.532	370.5
3059.771	364.5
3063.006	403.5
3066.239	404.5
3069.469	412.5
3072.697	420.5
3075.922	428.5
3079.144	437.5
3082.364	458.5
3085.581	453.5
3088.795	478.5
3092.007	473.5
3095.216	495.5
3098.423	487.5
3101.627	481.5
3104.828	515.5
3108.026	514.5
3111.222	549.5
3114.416	556.5
3117.607	556.5
3120.795	558.5
3123.98	581.5
3127.163	580.5
3130.344	594.5
3133.521	603.5
3136.696	624.5
3139.869	631.5
3143.039	635.5
3146.206	664.5
3149.371	667.5
3152.533	668.5
3155.693	666.5
3158.85	672.5
3162.005	681.5
3165.157	681.5
3168.306	690.5
3171.453	701.5
3174.597	680.5
3177.739	687.5
3180.878	688.5
3184.014	692.5
3187.149	695.5
3190.28	705.5
3193.409	699.5
3196.536	708.5
3199.659	703.5
3202.781	715.5
3205.9	700.5
3209.016	709.5
3212.13	704.5
3215.241	700.5
3218.35	693.5
3221.456	691.5
3224.56	680.5
3227.661	686.5
3230.76	675.5
3233.856	660.5
3236.95	661.5
3240.041	647.5
3243.13	677.5
3246.216	660.5
3249.3	659.5
3252.382	648.5
3255.46	650.5
3258.537	598.5
3261.611	632.5
3264.682	641.5
3267.751	638.5
3270.818	625.5
3273.882	635.5
3276.943	627.5
3280.002	638.5
3283.059	616.5
3286.113	620.5
3289.165	597.5
3292.214	598.5
3295.261	608.5
3298.306	574.5
3301.348	586.5
3304.387	562.5
3307.425	565.5
3310.459	541.5
3313.492	564.5
3316.521	550.5
3319.549	553.5
3322.574	540.5
3325.597	530.5
3328.617	526.5
3331.635	537.5
3334.65	510.5
3337.663	522.5
3340.674	525.5
3343.682	527.5
3346.688	526.5
3349.691	513.5
3352.692	524.5
3355.691	523.5
3358.687	510.5
3361.681	516.5
3364.673	503.5
3367.662	501.5
3370.649	504.5
3373.633	489.5
3376.615	494.5
3379.595	469.5
3382.572	468.5
3385.547	454.5
3388.52	455.5
3391.49	450.5
3394.458	459.5
3397.424	448.5
3400.387	423.5
3403.348	426.5
3406.307	428.5
3409.263	423.5
3412.217	430.5
3415.168	419.5
3418.118	427.5
3421.065	422.5
3424.009	421.5
3426.951	405.5
3429.891	393.5
3432.829	397.5
3435.764	394.5
3438.697	372.5
3441.628	384.5
3444.557	351.5
3447.483	346.5
3450.407	345.5
3453.328	335.5
3456.247	328.5
3459.164	316.5
3462.079	323.5
3464.991	297.5
3467.902	303.5
3470.809	288.5
3473.715	287.5
3476.618	277.5
3479.519	263.5
3482.418	242.5
3485.315	241.5
3488.209	241.5
3491.101	237.5
3493.99	216.5
3496.878	214.5
3499.763	223.5
3502.646	216.5
3505.527	201.5
3508.405	207.5
3511.281	179.5
3514.155	193.5
3517.027	183.5
3519.897	167.5
3522.764	172.5
3525.629	148.5
3528.492	158.5
3531.352	154.5
3534.211	148.5
3537.067	134.5
3539.921	134.5
3542.773	129.5
3545.622	120.5
3548.469	110.5
3551.315	99.5
3554.157	104.5
3556.998	93.5
3559.837	93.5
3562.673	98.5
3565.507	86.5
3568.339	77.5
3571.169	82.5
3573.996	84.5
3576.822	54.5
3579.645	63.5
3582.466	65.5
3585.285	71.5
3588.101	60.5
3590.916	61.5
3593.728	60.5
3596.538	52.5
3599.346	49.5
3602.152	38.5
3604.956	45.5
3607.757	46.5
3610.556	26.5
3613.354	38.5
3616.149	40.5
3618.942	40.5
3621.732	38.5
3624.521	26.5
3627.307	16.5
3630.092	16.5
3632.874	36.5
3635.654	22.5
3638.432	9.5
3641.208	13.5
3643.982	20.5
3646.753	20.5
3649.523	-4.5
3652.29	11.5
3655.055	14.5
3657.818	9.5
3660.579	4.5
3663.338	-6.5
3666.095	0.5
3668.849	-21.5
3671.602	9.5
3674.352	-12.5
3677.101	10.5
3679.847	3.5
3682.591	-5.5
3685.333	-16.5
3688.073	-6.5
3690.811	-19.5
3693.547	-24.5
3696.281	-18.5
3699.013	-12.5
3701.742	-13.5
3704.47	-21.5
3707.195	-12.5
3709.919	-12.5
3712.64	-13.5
3715.359	-29.5
3718.076	-6.5
3720.792	-18.5
3723.505	-7.5
3726.216	-1.5
3728.925	-22.5
3731.632	-23.5
3734.336	-17.5
3737.039	-19.5
3739.74	-13.5
3742.439	-43.5
3745.136	-13.5
3747.83	-21.5
3750.523	-13.5
3753.213	-81.5
3755.902	-24.5
3758.589	-34.5
3761.273	-28.5
3763.956	-14.5
3766.636	-33.5
3769.315	-16.5
3771.991	-24.5
3774.665	-26.5
3777.338	-23.5
3780.008	-31.5
3782.677	-25.5
3785.343	-43.5
3788.007	-45.5
3790.67	-20.5
3793.33	-34.5
3795.989	-29.5
3798.645	-22.5
3801.299	-35.5
3803.952	-36.5
3806.602	-31.5
3809.251	-23.5
3811.897	-23.5
3814.542	-26.5
3817.184	-31.5
3819.825	-27.5
3822.463	-42.5
3825.1	-29.5
3827.735	-22.5
3830.367	-34.5
3832.998	-10.5
3835.627	-29.5
3838.253	-15.5
3840.878	-26.5
3843.501	-10.5
3846.122	-26.5
3848.741	-21.5
3851.358	-17.5
3853.973	-38.5
3856.586	-17.5
3859.197	-38.5
3861.806	-23.5
3864.414	-35.5
3867.019	-27.5
3869.622	-15.5
3872.224	-12.5
3874.823	6.5
3877.421	39.5
3880.016	57.5
3882.61	95.5
3885.202	110.5
3887.792	91.5
3890.38	41.5
3892.966	-0.5
3895.55	-22.5
3898.132	-16.5
3900.713	-16.5
3903.291	-25.5
3905.868	-34.5
3908.442	-28.5
3911.015	-29.5
3913.586	-32.5
3916.155	-31.5
3918.722	-33.5
3921.287	-34.5
3923.85	-42.5
3926.411	-37.5
3928.971	-33.5
3931.528	-22.5
3934.084	-34.5
3936.638	-41.5
3939.19	-28.5
3941.74	-33.5
3944.288	-35.5
3946.834	-27.5
3949.378	-21.5
3951.921	-34.5
3954.462	-29.5
3957	-25.5
3959.537	-16.5
3962.072	-29.5
3964.606	-46.5
3967.137	-37.5
3969.667	-36.5
3972.194	-26.5
3974.72	-30.5
3977.244	-55.5
3979.766	-33.5
3982.286	-34.5
3984.805	-26.5
3987.321	-24.5
3989.836	-23.5
3992.349	-34.5
3994.86	-27.5
3997.369	-35.5
3999.877	-31.5
4002.382	-29.5
4004.886	-21.5
4007.388	-28.5
4009.888	-17.5
4012.386	-18.5
4014.883	-21.5
4017.377	-24.5
4019.87	-21.5
4022.361	-31.5
4024.85	-25.5
4027.338	-29.5
4029.823	-29.5
4032.307	-28.5
4034.789	-28.5
4037.269	-27.5
4039.747	-40.5
4042.224	-17.5
4044.699	-29.5
4047.172	-30.5
4049.643	-23.5
4052.112	-49.5
4054.58	-23.5
4057.046	-37.5
4059.51	-21.5
4061.972	-27.5
4064.432	-45.5
4066.891	-14.5
4069.348	-25.5
4071.803	-27.5
4074.256	-31.5
4076.708	-28.5
4079.158	-26.5
4081.606	-13.5
4084.052	-26.5
4086.497	-19.5
4088.939	-26.5
4091.38	-28.5
4093.819	-22.5
4096.257	0.5
4098.693	-4.5
4101.127	-4.5
4103.559	1.5
4105.989	144.5
4108.418	141.5
4110.845	132.5
4113.27	147.5
4115.694	147.5
4118.115	147.5
4120.535	-24.5
4122.954	-22.5
4125.37	-17.5
4127.785	-19.5
4130.198	-17.5
4132.609	-22.5
4135.019	6.5
4137.427	-1.5
4139.833	6.5
4142.237	-4.5
