Data from 2018-3-6_conc=4_n=3_RamanShift_01.txt Node
Date: Tue Mar 06 13:56:19 GMT+02:00 2018
User: LAB3
Spectrometer: QEPB0276
Trigger mode: 0
Integration Time (sec): 3.000000E1
Scans to average: 1
Electric dark correction enabled: true
Nonlinearity correction enabled: false
Boxcar width: 0
XAxis mode: Raman Shifts
Number of Pixels in Spectrum: 1044
>>>>>Begin Spectral Data<<<<<
160.701	97.75
166.742	125.75
172.777	182.75
178.805	358.75
184.826	811.75
190.841	1635.75
196.849	2560.75
202.85	3259.75
208.845	3502.75
214.833	3495.75
220.815	3445.75
226.789	3449.75
232.758	3475.75
238.719	3439.75
244.674	3431.75
250.623	3411.75
256.565	3385.75
262.5	3340.75
268.429	3321.75
274.351	3278.75
280.267	3279.75
286.176	3283.75
292.079	3287.75
297.975	3304.75
303.865	3316.75
309.748	3282.75
315.625	3261.75
321.495	3282.75
327.359	3284.75
333.217	3300.75
339.068	3286.75
344.912	3323.75
350.751	3310.75
356.583	3338.75
362.408	3355.75
368.227	3362.75
374.04	3352.75
379.847	3385.75
385.647	3373.75
391.44	3405.75
397.228	3437.75
403.009	3442.75
408.784	3448.75
414.553	3458.75
420.315	3506.75
426.071	3483.75
431.821	3482.75
437.565	3498.75
443.302	3455.75
449.033	3444.75
454.758	3450.75
460.477	3410.75
466.189	3385.75
471.896	3371.75
477.596	3337.75
483.29	3319.75
488.978	3282.75
494.66	3284.75
500.335	3211.75
506.005	3050.75
511.668	2940.75
517.325	2776.75
522.977	2680.75
528.622	2619.75
534.261	2557.75
539.894	2508.75
545.521	2463.75
551.141	2442.75
556.756	2404.75
562.365	2387.75
567.968	2361.75
573.565	2329.75
579.155	2350.75
584.74	2305.75
590.319	2315.75
595.892	2315.75
601.459	2322.75
607.02	2314.75
612.575	2304.75
618.124	2282.75
623.667	2223.75
629.204	2201.75
634.735	2187.75
640.261	2171.75
645.781	2131.75
651.294	2139.75
656.802	2129.75
662.304	2117.75
667.8	2123.75
673.29	2102.75
678.775	2107.75
684.254	2075.75
689.726	2065.75
695.193	2087.75
700.655	2055.75
706.11	2061.75
711.56	2014.75
717.004	2051.75
722.442	1995.75
727.874	2009.75
733.301	2008.75
738.722	1977.75
744.137	2005.75
749.547	1984.75
754.951	1987.75
760.349	1981.75
765.741	2003.75
771.128	2008.75
776.509	2015.75
781.885	2068.75
787.254	2083.75
792.618	2068.75
797.977	2072.75
803.33	2057.75
808.677	2046.75
814.019	2019.75
819.355	2027.75
824.686	1990.75
830.011	1977.75
835.33	1996.75
840.644	1985.75
845.952	1941.75
851.255	1943.75
856.552	1921.75
861.844	1898.75
867.13	1890.75
872.41	1853.75
877.686	1856.75
882.955	1840.75
888.219	1809.75
893.478	1783.75
898.731	1769.75
903.979	1753.75
909.221	1733.75
914.458	1727.75
919.69	1714.75
924.916	1716.75
930.136	1736.75
935.351	1727.75
940.561	1721.75
945.766	1736.75
950.965	1722.75
956.158	1705.75
961.347	1661.75
966.529	1666.75
971.707	1664.75
976.879	1664.75
982.046	1697.75
987.208	1710.75
992.364	1694.75
997.515	1605.75
1002.66	1605.75
1007.801	1610.75
1012.936	1625.75
1018.066	1625.75
1023.19	1648.75
1028.309	1648.75
1033.423	1656.75
1038.532	1649.75
1043.636	1642.75
1048.734	1637.75
1053.827	1602.75
1058.915	1599.75
1063.998	1587.75
1069.075	1562.75
1074.147	1582.75
1079.214	1574.75
1084.276	1583.75
1089.333	1581.75
1094.385	1586.75
1099.431	1582.75
1104.472	1594.75
1109.509	1558.75
1114.54	1539.75
1119.565	1527.75
1124.586	1516.75
1129.602	1479.75
1134.613	1467.75
1139.618	1468.75
1144.619	1462.75
1149.614	1470.75
1154.604	1466.75
1159.589	1488.75
1164.57	1483.75
1169.545	1470.75
1174.515	1491.75
1179.48	1467.75
1184.44	1467.75
1189.395	1463.75
1194.345	1435.75
1199.29	1430.75
1204.23	1423.75
1209.165	1413.75
1214.095	1445.75
1219.021	1430.75
1223.941	1450.75
1228.856	1458.75
1233.766	1459.75
1238.672	1471.75
1243.572	1466.75
1248.467	1436.75
1253.358	1427.75
1258.244	1398.75
1263.124	1398.75
1268	1380.75
1272.871	1325.75
1277.737	1328.75
1282.599	1317.75
1287.455	1314.75
1292.306	1306.75
1297.153	1311.75
1301.995	1333.75
1306.832	1324.75
1311.664	1336.75
1316.491	1326.75
1321.314	1323.75
1326.132	1311.75
1330.945	1297.75
1335.753	1262.75
1340.556	1275.75
1345.354	1243.75
1350.148	1209.75
1354.937	1203.75
1359.722	1179.75
1364.501	1177.75
1369.276	1180.75
1374.046	1182.75
1378.811	1168.75
1383.572	1196.75
1388.327	1165.75
1393.079	1153.75
1397.825	1153.75
1402.567	1132.75
1407.304	1129.75
1412.036	1124.75
1416.764	1127.75
1421.487	1104.75
1426.205	1119.75
1430.919	1127.75
1435.628	1131.75
1440.333	1121.75
1445.032	1152.75
1449.727	1154.75
1454.418	1157.75
1459.104	1142.75
1463.785	1121.75
1468.462	1129.75
1473.134	1100.75
1477.802	1083.75
1482.465	1042.75
1487.123	1047.75
1491.777	1027.75
1496.426	1009.75
1501.071	1049.75
1505.711	1030.75
1510.347	1055.75
1514.978	1042.75
1519.604	1046.75
1524.226	1057.75
1528.844	1032.75
1533.457	1024.75
1538.065	1030.75
1542.669	1017.75
1547.269	1020.75
1551.864	1014.75
1556.454	1016.75
1561.041	1015.75
1565.622	1016.75
1570.199	1034.75
1574.772	1025.75
1579.34	1043.75
1583.904	1063.75
1588.464	1071.75
1593.019	1071.75
1597.569	1050.75
1602.115	1047.75
1606.657	1060.75
1611.195	1058.75
1615.728	1049.75
1620.256	1039.75
1624.78	1008.75
1629.3	1015.75
1633.816	1034.75
1638.327	1031.75
1642.834	1048.75
1647.336	1055.75
1651.834	1048.75
1656.328	1051.75
1660.817	1043.75
1665.302	1029.75
1669.783	1021.75
1674.259	1001.75
1678.732	967.75
1683.199	948.75
1687.663	914.75
1692.122	919.75
1696.577	895.75
1701.028	872.75
1705.474	850.75
1709.917	840.75
1714.355	829.75
1718.788	817.75
1723.218	797.75
1727.643	792.75
1732.064	792.75
1736.481	775.75
1740.893	757.75
1745.301	746.75
1749.705	702.75
1754.105	723.75
1758.501	706.75
1762.893	709.75
1767.28	662.75
1771.663	661.75
1776.042	662.75
1780.417	648.75
1784.787	667.75
1789.154	668.75
1793.516	659.75
1797.874	659.75
1802.228	640.75
1806.578	626.75
1810.924	651.75
1815.266	535.75
1819.603	639.75
1823.937	631.75
1828.266	630.75
1832.591	611.75
1836.913	607.75
1841.23	601.75
1845.543	598.75
1849.852	620.75
1854.156	596.75
1858.457	613.75
1862.754	604.75
1867.047	597.75
1871.335	616.75
1875.62	616.75
1879.9	612.75
1884.177	595.75
1888.449	599.75
1892.718	599.75
1896.982	606.75
1901.243	569.75
1905.499	569.75
1909.752	555.75
1914	560.75
1918.245	571.75
1922.485	577.75
1926.722	573.75
1930.954	558.75
1935.183	575.75
1939.408	572.75
1943.628	566.75
1947.845	560.75
1952.058	556.75
1956.267	551.75
1960.472	563.75
1964.673	537.75
1968.87	533.75
1973.063	537.75
1977.252	514.75
1981.438	508.75
1985.619	516.75
1989.797	495.75
1993.971	509.75
1998.14	519.75
2002.306	510.75
2006.469	515.75
2010.627	495.75
2014.781	493.75
2018.932	487.75
2023.078	498.75
2027.221	498.75
2031.36	469.75
2035.495	482.75
2039.627	478.75
2043.754	475.75
2047.878	463.75
2051.998	462.75
2056.114	460.75
2060.226	461.75
2064.334	472.75
2068.439	477.75
2072.54	479.75
2076.637	451.75
2080.73	456.75
2084.82	469.75
2088.906	453.75
2092.988	460.75
2097.066	452.75
2101.14	464.75
2105.211	459.75
2109.278	446.75
2113.342	435.75
2117.401	422.75
2121.457	424.75
2125.509	490.75
2129.558	491.75
2133.602	415.75
2137.643	420.75
2141.681	407.75
2145.714	413.75
2149.744	414.75
2153.77	405.75
2157.793	404.75
2161.812	371.75
2165.827	374.75
2169.838	399.75
2173.846	378.75
2177.851	368.75
2181.851	381.75
2185.848	376.75
2189.841	369.75
2193.831	358.75
2197.817	358.75
2201.799	346.75
2205.778	353.75
2209.753	341.75
2213.725	332.75
2217.693	337.75
2221.657	327.75
2225.618	343.75
2229.575	335.75
2233.529	338.75
2237.479	345.75
2241.425	330.75
2245.368	307.75
2249.307	326.75
2253.243	313.75
2257.175	321.75
2261.104	300.75
2265.029	310.75
2268.95	306.75
2272.868	300.75
2276.783	284.75
2280.694	296.75
2284.601	285.75
2288.505	282.75
2292.405	288.75
2296.302	263.75
2300.195	279.75
2304.085	244.75
2307.971	279.75
2311.854	237.75
2315.734	262.75
2319.609	256.75
2323.482	229.75
2327.351	239.75
2331.216	242.75
2335.078	242.75
2338.937	249.75
2342.792	231.75
2346.643	236.75
2350.492	244.75
2354.336	240.75
2358.178	238.75
2362.015	240.75
2365.85	240.75
2369.681	242.75
2373.508	236.75
2377.333	252.75
2381.153	244.75
2384.971	234.75
2388.785	239.75
2392.595	233.75
2396.402	226.75
2400.206	208.75
2404.007	220.75
2407.804	223.75
2411.597	227.75
2415.388	207.75
2419.174	223.75
2422.958	224.75
2426.738	211.75
2430.515	218.75
2434.289	203.75
2438.059	203.75
2441.825	210.75
2445.589	220.75
2449.349	195.75
2453.106	208.75
2456.859	199.75
2460.61	212.75
2464.356	194.75
2468.1	196.75
2471.84	186.75
2475.577	194.75
2479.311	189.75
2483.041	196.75
2486.768	206.75
2490.492	198.75
2494.213	192.75
2497.93	181.75
2501.644	171.75
2505.355	182.75
2509.062	186.75
2512.766	183.75
2516.467	173.75
2520.165	175.75
2523.859	168.75
2527.551	201.75
2531.239	165.75
2534.923	171.75
2538.605	173.75
2542.283	172.75
2545.958	175.75
2549.63	180.75
2553.299	180.75
2556.964	166.75
2560.626	163.75
2564.285	169.75
2567.941	156.75
2571.594	151.75
2575.243	168.75
2578.89	146.75
2582.533	153.75
2586.173	152.75
2589.809	162.75
2593.443	135.75
2597.073	155.75
2600.701	159.75
2604.325	153.75
2607.946	138.75
2611.564	154.75
2615.178	152.75
2618.79	159.75
2622.398	149.75
2626.004	148.75
2629.606	146.75
2633.205	136.75
2636.801	145.75
2640.394	142.75
2643.983	135.75
2647.57	133.75
2651.153	125.75
2654.734	145.75
2658.311	115.75
2661.885	126.75
2665.456	122.75
2669.025	126.75
2672.589	122.75
2676.151	133.75
2679.71	134.75
2683.266	125.75
2686.819	116.75
2690.368	123.75
2693.915	126.75
2697.458	119.75
2700.999	126.75
2704.536	121.75
2708.071	120.75
2711.602	113.75
2715.13	111.75
2718.656	94.75
2722.178	108.75
2725.697	100.75
2729.214	100.75
2732.727	109.75
2736.237	92.75
2739.744	101.75
2743.249	97.75
2746.75	102.75
2750.248	97.75
2753.743	106.75
2757.236	105.75
2760.725	109.75
2764.211	74.75
2767.695	104.75
2771.175	103.75
2774.652	103.75
2778.127	98.75
2781.598	99.75
2785.067	104.75
2788.532	91.75
2791.995	101.75
2795.455	91.75
2798.911	102.75
2802.365	96.75
2805.816	103.75
2809.264	111.75
2812.709	98.75
2816.151	98.75
2819.59	87.75
2823.026	99.75
2826.46	90.75
2829.89	105.75
2833.318	75.75
2836.742	100.75
2840.164	99.75
2843.583	102.75
2846.999	98.75
2850.412	107.75
2853.822	94.75
2857.229	115.75
2860.634	104.75
2864.035	92.75
2867.434	107.75
2870.83	112.75
2874.223	106.75
2877.613	112.75
2881	99.75
2884.385	105.75
2887.766	107.75
2891.145	112.75
2894.521	108.75
2897.894	107.75
2901.264	118.75
2904.631	114.75
2907.996	112.75
2911.358	128.75
2914.717	118.75
2918.073	107.75
2921.426	116.75
2924.777	103.75
2928.124	124.75
2931.469	121.75
2934.811	114.75
2938.15	142.75
2941.487	131.75
2944.821	147.75
2948.152	129.75
2951.48	137.75
2954.805	121.75
2958.128	142.75
2961.447	121.75
2964.765	145.75
2968.079	132.75
2971.39	140.75
2974.699	137.75
2978.005	147.75
2981.308	140.75
2984.609	135.75
2987.907	138.75
2991.202	146.75
2994.494	134.75
2997.784	150.75
3001.07	145.75
3004.355	146.75
3007.636	148.75
3010.915	151.75
3014.191	151.75
3017.464	155.75
3020.734	151.75
3024.002	151.75
3027.267	158.75
3030.53	162.75
3033.789	164.75
3037.046	162.75
3040.301	160.75
3043.552	170.75
3046.801	174.75
3050.048	186.75
3053.291	197.75
3056.532	188.75
3059.771	173.75
3063.006	203.75
3066.239	194.75
3069.469	210.75
3072.697	203.75
3075.922	199.75
3079.144	216.75
3082.364	238.75
3085.581	221.75
3088.795	246.75
3092.007	246.75
3095.216	253.75
3098.423	244.75
3101.627	225.75
3104.828	255.75
3108.026	255.75
3111.222	275.75
3114.416	283.75
3117.607	274.75
3120.795	286.75
3123.98	284.75
3127.163	275.75
3130.344	299.75
3133.521	292.75
3136.696	320.75
3139.869	321.75
3143.039	311.75
3146.206	348.75
3149.371	341.75
3152.533	341.75
3155.693	331.75
3158.85	344.75
3162.005	343.75
3165.157	342.75
3168.306	347.75
3171.453	358.75
3174.597	341.75
3177.739	329.75
3180.878	352.75
3184.014	350.75
3187.149	360.75
3190.28	357.75
3193.409	362.75
3196.536	358.75
3199.659	366.75
3202.781	353.75
3205.9	347.75
3209.016	350.75
3212.13	353.75
3215.241	361.75
3218.35	354.75
3221.456	341.75
3224.56	336.75
3227.661	345.75
3230.76	340.75
3233.856	326.75
3236.95	329.75
3240.041	321.75
3243.13	337.75
3246.216	333.75
3249.3	333.75
3252.382	331.75
3255.46	330.75
3258.537	276.75
3261.611	313.75
3264.682	317.75
3267.751	316.75
3270.818	308.75
3273.882	327.75
3276.943	314.75
3280.002	329.75
3283.059	311.75
3286.113	303.75
3289.165	295.75
3292.214	284.75
3295.261	311.75
3298.306	278.75
3301.348	288.75
3304.387	267.75
3307.425	286.75
3310.459	270.75
3313.492	288.75
3316.521	270.75
3319.549	286.75
3322.574	278.75
3325.597	270.75
3328.617	259.75
3331.635	260.75
3334.65	252.75
3337.663	261.75
3340.674	263.75
3343.682	272.75
3346.688	262.75
3349.691	254.75
3352.692	257.75
3355.691	267.75
3358.687	251.75
3361.681	264.75
3364.673	252.75
3367.662	248.75
3370.649	261.75
3373.633	241.75
3376.615	249.75
3379.595	216.75
3382.572	230.75
3385.547	214.75
3388.52	216.75
3391.49	225.75
3394.458	226.75
3397.424	232.75
3400.387	206.75
3403.348	213.75
3406.307	214.75
3409.263	208.75
3412.217	224.75
3415.168	219.75
3418.118	217.75
3421.065	197.75
3424.009	204.75
3426.951	200.75
3429.891	194.75
3432.829	200.75
3435.764	192.75
3438.697	173.75
3441.628	190.75
3444.557	173.75
3447.483	160.75
3450.407	177.75
3453.328	158.75
3456.247	157.75
3459.164	141.75
3462.079	159.75
3464.991	142.75
3467.902	143.75
3470.809	139.75
3473.715	145.75
3476.618	124.75
3479.519	124.75
3482.418	106.75
3485.315	113.75
3488.209	110.75
3491.101	111.75
3493.99	96.75
3496.878	102.75
3499.763	94.75
3502.646	96.75
3505.527	87.75
3508.405	82.75
3511.281	74.75
3514.155	88.75
3517.027	74.75
3519.897	63.75
3522.764	72.75
3525.629	49.75
3528.492	66.75
3531.352	63.75
3534.211	63.75
3537.067	53.75
3539.921	52.75
3542.773	56.75
3545.622	41.75
3548.469	34.75
3551.315	35.75
3554.157	48.75
3556.998	28.75
3559.837	39.75
3562.673	37.75
3565.507	23.75
3568.339	21.75
3571.169	22.75
3573.996	27.75
3576.822	13.75
3579.645	10.75
3582.466	14.75
3585.285	22.75
3588.101	23.75
3590.916	12.75
3593.728	22.75
3596.538	7.75
3599.346	10.75
3602.152	4.75
3604.956	6.75
3607.757	14.75
3610.556	-3.25
3613.354	14.75
3616.149	0.75
3618.942	7.75
3621.732	0.75
3624.521	0.75
3627.307	-7.25
3630.092	-10.25
3632.874	8.75
3635.654	-3.25
3638.432	-7.25
3641.208	-12.25
3643.982	-6.25
3646.753	0.75
3649.523	-31.25
3652.29	-10.25
3655.055	-5.25
3657.818	-10.25
3660.579	-15.25
3663.338	-21.25
3666.095	-16.25
3668.849	-38.25
3671.602	-10.25
3674.352	-22.25
3677.101	-7.25
3679.847	-4.25
3682.591	-22.25
3685.333	-33.25
3688.073	-16.25
3690.811	-27.25
3693.547	-32.25
3696.281	-26.25
3699.013	-15.25
3701.742	-21.25
3704.47	-25.25
3707.195	-21.25
3709.919	-14.25
3712.64	-24.25
3715.359	-31.25
3718.076	-10.25
3720.792	-23.25
3723.505	-18.25
3726.216	-10.25
3728.925	-25.25
3731.632	-32.25
3734.336	-25.25
3737.039	-24.25
3739.74	-23.25
3742.439	-47.25
3745.136	-21.25
3747.83	-22.25
3750.523	-21.25
3753.213	-78.25
3755.902	-29.25
3758.589	-45.25
3761.273	-34.25
3763.956	-21.25
3766.636	-38.25
3769.315	-19.25
3771.991	-27.25
3774.665	-35.25
3777.338	-25.25
3780.008	-40.25
3782.677	-26.25
3785.343	-48.25
3788.007	-50.25
3790.67	-25.25
3793.33	-43.25
3795.989	-31.25
3798.645	-27.25
3801.299	-44.25
3803.952	-43.25
3806.602	-35.25
3809.251	-27.25
3811.897	-32.25
3814.542	-33.25
3817.184	-34.25
3819.825	-26.25
3822.463	-40.25
3825.1	-35.25
3827.735	-33.25
3830.367	-39.25
3832.998	-22.25
3835.627	-36.25
3838.253	-28.25
3840.878	-35.25
3843.501	-17.25
3846.122	-27.25
3848.741	-27.25
3851.358	-22.25
3853.973	-41.25
3856.586	-21.25
3859.197	-39.25
3861.806	-34.25
3864.414	-43.25
3867.019	-33.25
3869.622	-23.25
3872.224	-13.25
3874.823	-7.25
3877.421	20.75
3880.016	37.75
3882.61	75.75
3885.202	77.75
3887.792	55.75
3890.38	21.75
3892.966	-9.25
3895.55	-34.25
3898.132	-24.25
3900.713	-20.25
3903.291	-32.25
3905.868	-41.25
3908.442	-30.25
3911.015	-32.25
3913.586	-36.25
3916.155	-33.25
3918.722	-35.25
3921.287	-38.25
3923.85	-47.25
3926.411	-40.25
3928.971	-33.25
3931.528	-31.25
3934.084	-38.25
3936.638	-47.25
3939.19	-28.25
3941.74	-27.25
3944.288	-40.25
3946.834	-33.25
3949.378	-26.25
3951.921	-42.25
3954.462	-34.25
3957	-29.25
3959.537	-21.25
3962.072	-34.25
3964.606	-51.25
3967.137	-36.25
3969.667	-37.25
3972.194	-27.25
3974.72	-35.25
3977.244	-57.25
3979.766	-40.25
3982.286	-44.25
3984.805	-30.25
3987.321	-22.25
3989.836	-27.25
3992.349	-41.25
3994.86	-35.25
3997.369	-41.25
3999.877	-29.25
4002.382	-40.25
4004.886	-25.25
4007.388	-33.25
4009.888	-23.25
4012.386	-24.25
4014.883	-33.25
4017.377	-31.25
4019.87	-32.25
4022.361	-44.25
4024.85	-28.25
4027.338	-32.25
4029.823	-39.25
4032.307	-34.25
4034.789	-29.25
4037.269	-32.25
4039.747	-44.25
4042.224	-21.25
4044.699	-37.25
4047.172	-35.25
4049.643	-23.25
4052.112	-58.25
4054.58	-31.25
4057.046	-48.25
4059.51	-31.25
4061.972	-30.25
4064.432	-48.25
4066.891	-19.25
4069.348	-33.25
4071.803	-28.25
4074.256	-32.25
4076.708	-25.25
4079.158	-30.25
4081.606	-19.25
4084.052	-32.25
4086.497	-31.25
4088.939	-31.25
4091.38	-34.25
4093.819	-28.25
4096.257	-0.25
4098.693	-5.25
4101.127	-3.25
4103.559	-0.25
4105.989	100.75
4108.418	102.75
4110.845	82.75
4113.27	93.75
4115.694	94.75
4118.115	87.75
4120.535	-30.25
4122.954	-23.25
4125.37	-24.25
4127.785	-30.25
4130.198	-26.25
4132.609	-31.25
4135.019	6.75
4137.427	-0.25
4139.833	5.75
4142.237	-3.25
