Data from 2018-3-6_conc=4_n=7_RamanShift_01.txt Node
Date: Tue Mar 06 14:09:18 GMT+02:00 2018
User: LAB3
Spectrometer: QEPB0276
Trigger mode: 0
Integration Time (sec): 3.000000E1
Scans to average: 1
Electric dark correction enabled: true
Nonlinearity correction enabled: false
Boxcar width: 0
XAxis mode: Raman Shifts
Number of Pixels in Spectrum: 1044
>>>>>Begin Spectral Data<<<<<
160.701	92.88
166.742	119.88
172.777	173.88
178.805	317.88
184.826	702.88
190.841	1413.88
196.849	2216.88
202.85	2803.88
208.845	2965.88
214.833	2976.88
220.815	2875.88
226.789	2886.88
232.758	2877.88
238.719	2857.88
244.674	2801.88
250.623	2802.88
256.565	2754.88
262.5	2737.88
268.429	2696.88
274.351	2665.88
280.267	2649.88
286.176	2640.88
292.079	2639.88
297.975	2625.88
303.865	2612.88
309.748	2637.88
315.625	2615.88
321.495	2632.88
327.359	2622.88
333.217	2639.88
339.068	2619.88
344.912	2642.88
350.751	2640.88
356.583	2628.88
362.408	2677.88
368.227	2673.88
374.04	2676.88
379.847	2676.88
385.647	2704.88
391.44	2695.88
397.228	2735.88
403.009	2712.88
408.784	2731.88
414.553	2752.88
420.315	2772.88
426.071	2745.88
431.821	2751.88
437.565	2768.88
443.302	2734.88
449.033	2735.88
454.758	2718.88
460.477	2708.88
466.189	2659.88
471.896	2640.88
477.596	2622.88
483.29	2592.88
488.978	2581.88
494.66	2567.88
500.335	2501.88
506.005	2383.88
511.668	2283.88
517.325	2143.88
522.977	2019.88
528.622	1963.88
534.261	1934.88
539.894	1868.88
545.521	1865.88
551.141	1817.88
556.756	1796.88
562.365	1781.88
567.968	1772.88
573.565	1751.88
579.155	1757.88
584.74	1715.88
590.319	1740.88
595.892	1718.88
601.459	1743.88
607.02	1711.88
612.575	1720.88
618.124	1691.88
623.667	1648.88
629.204	1628.88
634.735	1620.88
640.261	1580.88
645.781	1545.88
651.294	1564.88
656.802	1567.88
662.304	1567.88
667.8	1573.88
673.29	1559.88
678.775	1552.88
684.254	1543.88
689.726	1519.88
695.193	1530.88
700.655	1521.88
706.11	1502.88
711.56	1504.88
717.004	1507.88
722.442	1460.88
727.874	1466.88
733.301	1473.88
738.722	1447.88
744.137	1459.88
749.547	1456.88
754.951	1450.88
760.349	1452.88
765.741	1480.88
771.128	1486.88
776.509	1482.88
781.885	1519.88
787.254	1538.88
792.618	1541.88
797.977	1549.88
803.33	1534.88
808.677	1517.88
814.019	1513.88
819.355	1486.88
824.686	1479.88
830.011	1458.88
835.33	1480.88
840.644	1459.88
845.952	1437.88
851.255	1426.88
856.552	1401.88
861.844	1393.88
867.13	1370.88
872.41	1367.88
877.686	1365.88
882.955	1338.88
888.219	1327.88
893.478	1305.88
898.731	1303.88
903.979	1293.88
909.221	1261.88
914.458	1254.88
919.69	1256.88
924.916	1268.88
930.136	1277.88
935.351	1260.88
940.561	1264.88
945.766	1261.88
950.965	1270.88
956.158	1249.88
961.347	1230.88
966.529	1205.88
971.707	1205.88
976.879	1191.88
982.046	1179.88
987.208	1155.88
992.364	1178.88
997.515	1168.88
1002.66	1181.88
1007.801	1184.88
1012.936	1197.88
1018.066	1172.88
1023.19	1193.88
1028.309	1207.88
1033.423	1201.88
1038.532	1209.88
1043.636	1209.88
1048.734	1184.88
1053.827	1173.88
1058.915	1168.88
1063.998	1163.88
1069.075	1156.88
1074.147	1155.88
1079.214	1140.88
1084.276	1158.88
1089.333	1160.88
1094.385	1173.88
1099.431	1150.88
1104.472	1157.88
1109.509	1121.88
1114.54	1103.88
1119.565	1103.88
1124.586	1100.88
1129.602	1082.88
1134.613	1046.88
1139.618	1064.88
1144.619	1066.88
1149.614	1064.88
1154.604	1076.88
1159.589	1060.88
1164.57	1074.88
1169.545	1088.88
1174.515	1080.88
1179.48	1085.88
1184.44	1065.88
1189.395	1074.88
1194.345	1038.88
1199.29	1062.88
1204.23	1030.88
1209.165	1010.88
1214.095	1046.88
1219.021	1050.88
1223.941	1045.88
1228.856	1050.88
1233.766	1059.88
1238.672	1064.88
1243.572	1059.88
1248.467	1051.88
1253.358	1028.88
1258.244	1001.88
1263.124	1023.88
1268	995.88
1272.871	961.88
1277.737	972.88
1282.599	947.88
1287.455	957.88
1292.306	956.88
1297.153	940.88
1301.995	954.88
1306.832	956.88
1311.664	978.88
1316.491	949.88
1321.314	970.88
1326.132	948.88
1330.945	937.88
1335.753	921.88
1340.556	916.88
1345.354	896.88
1350.148	880.88
1354.937	870.88
1359.722	860.88
1364.501	843.88
1369.276	853.88
1374.046	847.88
1378.811	837.88
1383.572	849.88
1388.327	847.88
1393.079	828.88
1397.825	816.88
1402.567	834.88
1407.304	817.88
1412.036	807.88
1416.764	809.88
1421.487	804.88
1426.205	810.88
1430.919	812.88
1435.628	813.88
1440.333	800.88
1445.032	828.88
1449.727	824.88
1454.418	841.88
1459.104	836.88
1463.785	805.88
1468.462	813.88
1473.134	800.88
1477.802	781.88
1482.465	740.88
1487.123	754.88
1491.777	730.88
1496.426	722.88
1501.071	750.88
1505.711	738.88
1510.347	754.88
1514.978	761.88
1519.604	759.88
1524.226	753.88
1528.844	724.88
1533.457	736.88
1538.065	738.88
1542.669	740.88
1547.269	739.88
1551.864	743.88
1556.454	727.88
1561.041	728.88
1565.622	720.88
1570.199	742.88
1574.772	740.88
1579.34	747.88
1583.904	762.88
1588.464	766.88
1593.019	769.88
1597.569	751.88
1602.115	766.88
1606.657	755.88
1611.195	766.88
1615.728	770.88
1620.256	740.88
1624.78	723.88
1629.3	737.88
1633.816	740.88
1638.327	747.88
1642.834	759.88
1647.336	748.88
1651.834	756.88
1656.328	751.88
1660.817	759.88
1665.302	736.88
1669.783	739.88
1674.259	707.88
1678.732	705.88
1683.199	685.88
1687.663	659.88
1692.122	654.88
1696.577	620.88
1701.028	620.88
1705.474	603.88
1709.917	588.88
1714.355	588.88
1718.788	577.88
1723.218	568.88
1727.643	556.88
1732.064	563.88
1736.481	541.88
1740.893	537.88
1745.301	529.88
1749.705	506.88
1754.105	508.88
1758.501	488.88
1762.893	504.88
1767.28	470.88
1771.663	469.88
1776.042	476.88
1780.417	462.88
1784.787	463.88
1789.154	459.88
1793.516	462.88
1797.874	452.88
1802.228	455.88
1806.578	442.88
1810.924	458.88
1815.266	339.88
1819.603	453.88
1823.937	437.88
1828.266	445.88
1832.591	446.88
1836.913	433.88
1841.23	432.88
1845.543	429.88
1849.852	437.88
1854.156	421.88
1858.457	427.88
1862.754	414.88
1867.047	426.88
1871.335	436.88
1875.62	438.88
1879.9	422.88
1884.177	414.88
1888.449	414.88
1892.718	418.88
1896.982	419.88
1901.243	397.88
1905.499	402.88
1909.752	404.88
1914	382.88
1918.245	399.88
1922.485	406.88
1926.722	405.88
1930.954	386.88
1935.183	408.88
1939.408	409.88
1943.628	407.88
1947.845	399.88
1952.058	390.88
1956.267	377.88
1960.472	388.88
1964.673	383.88
1968.87	372.88
1973.063	369.88
1977.252	382.88
1981.438	368.88
1985.619	361.88
1989.797	348.88
1993.971	353.88
1998.14	370.88
2002.306	351.88
2006.469	363.88
2010.627	343.88
2014.781	350.88
2018.932	343.88
2023.078	371.88
2027.221	352.88
2031.36	337.88
2035.495	337.88
2039.627	334.88
2043.754	345.88
2047.878	329.88
2051.998	316.88
2056.114	330.88
2060.226	327.88
2064.334	330.88
2068.439	334.88
2072.54	336.88
2076.637	320.88
2080.73	318.88
2084.82	325.88
2088.906	321.88
2092.988	316.88
2097.066	317.88
2101.14	326.88
2105.211	318.88
2109.278	310.88
2113.342	310.88
2117.401	291.88
2121.457	287.88
2125.509	291.88
2129.558	298.88
2133.602	296.88
2137.643	292.88
2141.681	288.88
2145.714	292.88
2149.744	294.88
2153.77	282.88
2157.793	272.88
2161.812	258.88
2165.827	253.88
2169.838	289.88
2173.846	268.88
2177.851	259.88
2181.851	272.88
2185.848	262.88
2189.841	265.88
2193.831	253.88
2197.817	250.88
2201.799	248.88
2205.778	245.88
2209.753	231.88
2213.725	238.88
2217.693	244.88
2221.657	236.88
2225.618	246.88
2229.575	245.88
2233.529	245.88
2237.479	241.88
2241.425	228.88
2245.368	220.88
2249.307	231.88
2253.243	221.88
2257.175	226.88
2261.104	211.88
2265.029	219.88
2268.95	216.88
2272.868	208.88
2276.783	202.88
2280.694	210.88
2284.601	205.88
2288.505	205.88
2292.405	210.88
2296.302	183.88
2300.195	191.88
2304.085	161.88
2307.971	185.88
2311.854	164.88
2315.734	181.88
2319.609	184.88
2323.482	157.88
2327.351	165.88
2331.216	177.88
2335.078	179.88
2338.937	178.88
2342.792	166.88
2346.643	170.88
2350.492	178.88
2354.336	162.88
2358.178	166.88
2362.015	168.88
2365.85	166.88
2369.681	170.88
2373.508	172.88
2377.333	175.88
2381.153	172.88
2384.971	165.88
2388.785	170.88
2392.595	157.88
2396.402	160.88
2400.206	132.88
2404.007	154.88
2407.804	158.88
2411.597	165.88
2415.388	147.88
2419.174	156.88
2422.958	151.88
2426.738	146.88
2430.515	157.88
2434.289	144.88
2438.059	138.88
2441.825	143.88
2445.589	153.88
2449.349	139.88
2453.106	147.88
2456.859	143.88
2460.61	142.88
2464.356	129.88
2468.1	127.88
2471.84	127.88
2475.577	133.88
2479.311	129.88
2483.041	128.88
2486.768	144.88
2490.492	148.88
2494.213	131.88
2497.93	118.88
2501.644	118.88
2505.355	121.88
2509.062	128.88
2512.766	126.88
2516.467	118.88
2520.165	121.88
2523.859	103.88
2527.551	141.88
2531.239	111.88
2534.923	127.88
2538.605	118.88
2542.283	122.88
2545.958	118.88
2549.63	129.88
2553.299	129.88
2556.964	102.88
2560.626	107.88
2564.285	117.88
2567.941	96.88
2571.594	101.88
2575.243	117.88
2578.89	104.88
2582.533	108.88
2586.173	103.88
2589.809	113.88
2593.443	88.88
2597.073	107.88
2600.701	109.88
2604.325	107.88
2607.946	88.88
2611.564	110.88
2615.178	102.88
2618.79	102.88
2622.398	91.88
2626.004	98.88
2629.606	101.88
2633.205	83.88
2636.801	98.88
2640.394	100.88
2643.983	83.88
2647.57	87.88
2651.153	83.88
2654.734	89.88
2658.311	67.88
2661.885	80.88
2665.456	78.88
2669.025	87.88
2672.589	84.88
2676.151	93.88
2679.71	96.88
2683.266	81.88
2686.819	76.88
2690.368	82.88
2693.915	88.88
2697.458	77.88
2700.999	87.88
2704.536	79.88
2708.071	74.88
2711.602	77.88
2715.13	80.88
2718.656	64.88
2722.178	75.88
2725.697	60.88
2729.214	69.88
2732.727	67.88
2736.237	56.88
2739.744	64.88
2743.249	58.88
2746.75	66.88
2750.248	61.88
2753.743	70.88
2757.236	71.88
2760.725	70.88
2764.211	34.88
2767.695	68.88
2771.175	63.88
2774.652	70.88
2778.127	63.88
2781.598	60.88
2785.067	62.88
2788.532	58.88
2791.995	65.88
2795.455	56.88
2798.911	63.88
2802.365	51.88
2805.816	67.88
2809.264	69.88
2812.709	58.88
2816.151	64.88
2819.59	51.88
2823.026	62.88
2826.46	55.88
2829.89	67.88
2833.318	47.88
2836.742	56.88
2840.164	58.88
2843.583	58.88
2846.999	66.88
2850.412	64.88
2853.822	55.88
2857.229	75.88
2860.634	69.88
2864.035	52.88
2867.434	73.88
2870.83	68.88
2874.223	64.88
2877.613	69.88
2881	65.88
2884.385	69.88
2887.766	67.88
2891.145	72.88
2894.521	65.88
2897.894	53.88
2901.264	75.88
2904.631	75.88
2907.996	75.88
2911.358	83.88
2914.717	76.88
2918.073	69.88
2921.426	65.88
2924.777	58.88
2928.124	70.88
2931.469	86.88
2934.811	72.88
2938.15	95.88
2941.487	87.88
2944.821	100.88
2948.152	83.88
2951.48	88.88
2954.805	76.88
2958.128	102.88
2961.447	85.88
2964.765	100.88
2968.079	85.88
2971.39	90.88
2974.699	88.88
2978.005	98.88
2981.308	88.88
2984.609	78.88
2987.907	93.88
2991.202	104.88
2994.494	81.88
2997.784	95.88
3001.07	93.88
3004.355	97.88
3007.636	98.88
3010.915	99.88
3014.191	97.88
3017.464	98.88
3020.734	96.88
3024.002	107.88
3027.267	99.88
3030.53	107.88
3033.789	103.88
3037.046	104.88
3040.301	103.88
3043.552	115.88
3046.801	117.88
3050.048	127.88
3053.291	144.88
3056.532	128.88
3059.771	116.88
3063.006	141.88
3066.239	127.88
3069.469	141.88
3072.697	136.88
3075.922	138.88
3079.144	142.88
3082.364	168.88
3085.581	146.88
3088.795	165.88
3092.007	165.88
3095.216	174.88
3098.423	166.88
3101.627	145.88
3104.828	175.88
3108.026	166.88
3111.222	197.88
3114.416	194.88
3117.607	192.88
3120.795	197.88
3123.98	204.88
3127.163	193.88
3130.344	208.88
3133.521	198.88
3136.696	217.88
3139.869	223.88
3143.039	202.88
3146.206	238.88
3149.371	235.88
3152.533	224.88
3155.693	227.88
3158.85	235.88
3162.005	244.88
3165.157	242.88
3168.306	246.88
3171.453	249.88
3174.597	229.88
3177.739	233.88
3180.878	242.88
3184.014	249.88
3187.149	241.88
3190.28	239.88
3193.409	246.88
3196.536	255.88
3199.659	259.88
3202.781	260.88
3205.9	235.88
3209.016	245.88
3212.13	245.88
3215.241	252.88
3218.35	247.88
3221.456	239.88
3224.56	234.88
3227.661	238.88
3230.76	229.88
3233.856	228.88
3236.95	237.88
3240.041	222.88
3243.13	229.88
3246.216	230.88
3249.3	226.88
3252.382	220.88
3255.46	219.88
3258.537	169.88
3261.611	213.88
3264.682	219.88
3267.751	222.88
3270.818	204.88
3273.882	225.88
3276.943	208.88
3280.002	217.88
3283.059	210.88
3286.113	214.88
3289.165	206.88
3292.214	203.88
3295.261	207.88
3298.306	185.88
3301.348	205.88
3304.387	190.88
3307.425	200.88
3310.459	196.88
3313.492	199.88
3316.521	197.88
3319.549	195.88
3322.574	191.88
3325.597	185.88
3328.617	176.88
3331.635	178.88
3334.65	163.88
3337.663	182.88
3340.674	178.88
3343.682	189.88
3346.688	187.88
3349.691	174.88
3352.692	176.88
3355.691	177.88
3358.687	170.88
3361.681	180.88
3364.673	169.88
3367.662	170.88
3370.649	178.88
3373.633	160.88
3376.615	166.88
3379.595	146.88
3382.572	159.88
3385.547	154.88
3388.52	147.88
3391.49	146.88
3394.458	151.88
3397.424	150.88
3400.387	133.88
3403.348	144.88
3406.307	143.88
3409.263	141.88
3412.217	149.88
3415.168	140.88
3418.118	151.88
3421.065	137.88
3424.009	144.88
3426.951	134.88
3429.891	129.88
3432.829	128.88
3435.764	130.88
3438.697	112.88
3441.628	138.88
3444.557	106.88
3447.483	103.88
3450.407	118.88
3453.328	104.88
3456.247	103.88
3459.164	87.88
3462.079	105.88
3464.991	98.88
3467.902	93.88
3470.809	89.88
3473.715	95.88
3476.618	80.88
3479.519	79.88
3482.418	61.88
3485.315	66.88
3488.209	67.88
3491.101	71.88
3493.99	55.88
3496.878	59.88
3499.763	60.88
3502.646	62.88
3505.527	50.88
3508.405	48.88
3511.281	37.88
3514.155	51.88
3517.027	43.88
3519.897	33.88
3522.764	46.88
3525.629	20.88
3528.492	37.88
3531.352	38.88
3534.211	29.88
3537.067	30.88
3539.921	27.88
3542.773	30.88
3545.622	17.88
3548.469	9.88
3551.315	13.88
3554.157	16.88
3556.998	8.88
3559.837	15.88
3562.673	18.88
3565.507	8.88
3568.339	1.88
3571.169	7.88
3573.996	8.88
3576.822	-6.12
3579.645	-5.12
3582.466	1.88
3585.285	9.88
3588.101	2.88
3590.916	-0.12
3593.728	7.88
3596.538	-6.12
3599.346	-3.12
3602.152	-11.12
3604.956	-6.12
3607.757	0.88
3610.556	-15.12
3613.354	-3.12
3616.149	-6.12
3618.942	-1.12
3621.732	-4.12
3624.521	-12.12
3627.307	-20.12
3630.092	-13.12
3632.874	-3.12
3635.654	-11.12
3638.432	-17.12
3641.208	-14.12
3643.982	-21.12
3646.753	-9.12
3649.523	-41.12
3652.29	-24.12
3655.055	-10.12
3657.818	-17.12
3660.579	-20.12
3663.338	-23.12
3666.095	-24.12
3668.849	-46.12
3671.602	-14.12
3674.352	-31.12
3677.101	-15.12
3679.847	-11.12
3682.591	-29.12
3685.333	-31.12
3688.073	-24.12
3690.811	-33.12
3693.547	-39.12
3696.281	-36.12
3699.013	-24.12
3701.742	-28.12
3704.47	-40.12
3707.195	-24.12
3709.919	-26.12
3712.64	-28.12
3715.359	-38.12
3718.076	-17.12
3720.792	-28.12
3723.505	-25.12
3726.216	-13.12
3728.925	-30.12
3731.632	-36.12
3734.336	-30.12
3737.039	-28.12
3739.74	-26.12
3742.439	-47.12
3745.136	-19.12
3747.83	-22.12
3750.523	-23.12
3753.213	-91.12
3755.902	-30.12
3758.589	-43.12
3761.273	-37.12
3763.956	-22.12
3766.636	-45.12
3769.315	-21.12
3771.991	-31.12
3774.665	-33.12
3777.338	-26.12
3780.008	-39.12
3782.677	-33.12
3785.343	-49.12
3788.007	-46.12
3790.67	-26.12
3793.33	-39.12
3795.989	-34.12
3798.645	-29.12
3801.299	-39.12
3803.952	-37.12
3806.602	-38.12
3809.251	-25.12
3811.897	-37.12
3814.542	-36.12
3817.184	-36.12
3819.825	-32.12
3822.463	-47.12
3825.1	-38.12
3827.735	-36.12
3830.367	-41.12
3832.998	-20.12
3835.627	-34.12
3838.253	-22.12
3840.878	-34.12
3843.501	-19.12
3846.122	-31.12
3848.741	-28.12
3851.358	-27.12
3853.973	-42.12
3856.586	-25.12
3859.197	-38.12
3861.806	-31.12
3864.414	-45.12
3867.019	-32.12
3869.622	-20.12
3872.224	-19.12
3874.823	-4.12
3877.421	18.88
3880.016	28.88
3882.61	72.88
3885.202	84.88
3887.792	59.88
3890.38	23.88
3892.966	-12.12
3895.55	-31.12
3898.132	-19.12
3900.713	-26.12
3903.291	-32.12
3905.868	-38.12
3908.442	-30.12
3911.015	-33.12
3913.586	-32.12
3916.155	-38.12
3918.722	-41.12
3921.287	-36.12
3923.85	-47.12
3926.411	-40.12
3928.971	-42.12
3931.528	-30.12
3934.084	-38.12
3936.638	-48.12
3939.19	-30.12
3941.74	-29.12
3944.288	-35.12
3946.834	-37.12
3949.378	-26.12
3951.921	-44.12
3954.462	-33.12
3957	-33.12
3959.537	-26.12
3962.072	-34.12
3964.606	-49.12
3967.137	-34.12
3969.667	-40.12
3972.194	-31.12
3974.72	-38.12
3977.244	-59.12
3979.766	-44.12
3982.286	-46.12
3984.805	-33.12
3987.321	-25.12
3989.836	-28.12
3992.349	-42.12
3994.86	-37.12
3997.369	-39.12
3999.877	-38.12
4002.382	-37.12
4004.886	-33.12
4007.388	-32.12
4009.888	-23.12
4012.386	-29.12
4014.883	-29.12
4017.377	-30.12
4019.87	-32.12
4022.361	-42.12
4024.85	-36.12
4027.338	-30.12
4029.823	-37.12
4032.307	-36.12
4034.789	-32.12
4037.269	-34.12
4039.747	-46.12
4042.224	-29.12
4044.699	-40.12
4047.172	-35.12
4049.643	-28.12
4052.112	-57.12
4054.58	-31.12
4057.046	-49.12
4059.51	-35.12
4061.972	-34.12
4064.432	-48.12
4066.891	-23.12
4069.348	-37.12
4071.803	-31.12
4074.256	-37.12
4076.708	-27.12
4079.158	-32.12
4081.606	-21.12
4084.052	-37.12
4086.497	-31.12
4088.939	-34.12
4091.38	-36.12
4093.819	-26.12
4096.257	-0.12
4098.693	-7.12
4101.127	-5.12
4103.559	4.88
4105.989	100.88
4108.418	103.88
4110.845	90.88
4113.27	93.88
4115.694	102.88
4118.115	90.88
4120.535	-29.12
4122.954	-30.12
4125.37	-22.12
4127.785	-26.12
4130.198	-28.12
4132.609	-29.12
4135.019	8.88
4137.427	0.88
4139.833	3.88
4142.237	-6.12
