Data from 2018-3-6_conc=2_n=1_RamanShift_02.txt Node
Date: Tue Mar 06 12:42:19 GMT+02:00 2018
User: LAB3
Spectrometer: QEPB0276
Trigger mode: 0
Integration Time (sec): 3.000000E1
Scans to average: 1
Electric dark correction enabled: true
Nonlinearity correction enabled: false
Boxcar width: 0
XAxis mode: Raman Shifts
Number of Pixels in Spectrum: 1044
>>>>>Begin Spectral Data<<<<<
160.701	183.75
166.742	216.75
172.777	325.75
178.805	630.75
184.826	1448.75
190.841	2875.75
196.849	4598.75
202.85	5895.75
208.845	6387.75
214.833	6421.75
220.815	6387.75
226.789	6383.75
232.758	6466.75
238.719	6464.75
244.674	6457.75
250.623	6423.75
256.565	6414.75
262.5	6317.75
268.429	6292.75
274.351	6301.75
280.267	6333.75
286.176	6311.75
292.079	6357.75
297.975	6377.75
303.865	6389.75
309.748	6397.75
315.625	6433.75
321.495	6454.75
327.359	6449.75
333.217	6488.75
339.068	6531.75
344.912	6543.75
350.751	6563.75
356.583	6614.75
362.408	6628.75
368.227	6688.75
374.04	6656.75
379.847	6745.75
385.647	6765.75
391.44	6820.75
397.228	6826.75
403.009	6905.75
408.784	6922.75
414.553	6941.75
420.315	6989.75
426.071	6952.75
431.821	7012.75
437.565	6994.75
443.302	6916.75
449.033	6893.75
454.758	6901.75
460.477	6827.75
466.189	6734.75
471.896	6665.75
477.596	6648.75
483.29	6597.75
488.978	6631.75
494.66	6522.75
500.335	6346.75
506.005	6047.75
511.668	5743.75
517.325	5418.75
522.977	5171.75
528.622	5018.75
534.261	4875.75
539.894	4773.75
545.521	4694.75
551.141	4632.75
556.756	4588.75
562.365	4540.75
567.968	4497.75
573.565	4439.75
579.155	4413.75
584.74	4399.75
590.319	4379.75
595.892	4394.75
601.459	4396.75
607.02	4366.75
612.575	4344.75
618.124	4322.75
623.667	4198.75
629.204	4165.75
634.735	4086.75
640.261	4064.75
645.781	3992.75
651.294	4002.75
656.802	3966.75
662.304	3946.75
667.8	3967.75
673.29	3950.75
678.775	3940.75
684.254	3900.75
689.726	3879.75
695.193	3878.75
700.655	3848.75
706.11	3842.75
711.56	3806.75
717.004	3788.75
722.442	3745.75
727.874	3750.75
733.301	3753.75
738.722	3712.75
744.137	3708.75
749.547	3720.75
754.951	3678.75
760.349	3707.75
765.741	3731.75
771.128	3763.75
776.509	3815.75
781.885	3883.75
787.254	3914.75
792.618	3953.75
797.977	3946.75
803.33	3919.75
808.677	3874.75
814.019	3847.75
819.355	3789.75
824.686	3770.75
830.011	3737.75
835.33	3737.75
840.644	3708.75
845.952	3652.75
851.255	3624.75
856.552	3591.75
861.844	3550.75
867.13	3515.75
872.41	3463.75
877.686	3461.75
882.955	3437.75
888.219	3394.75
893.478	3320.75
898.731	3296.75
903.979	3267.75
909.221	3225.75
914.458	3198.75
919.69	3188.75
924.916	3185.75
930.136	3188.75
935.351	3202.75
940.561	3193.75
945.766	3191.75
950.965	3196.75
956.158	3158.75
961.347	3097.75
966.529	3078.75
971.707	3067.75
976.879	3015.75
982.046	2964.75
987.208	2945.75
992.364	2953.75
997.515	2970.75
1002.66	3011.75
1007.801	3016.75
1012.936	3047.75
1018.066	3048.75
1023.19	3096.75
1028.309	3103.75
1033.423	3102.75
1038.532	3110.75
1043.636	3046.75
1048.734	3046.75
1053.827	3021.75
1058.915	2977.75
1063.998	2989.75
1069.075	2962.75
1074.147	2965.75
1079.214	2947.75
1084.276	2965.75
1089.333	2968.75
1094.385	2959.75
1099.431	2953.75
1104.472	2953.75
1109.509	2903.75
1114.54	2896.75
1119.565	2825.75
1124.586	2804.75
1129.602	2749.75
1134.613	2731.75
1139.618	2717.75
1144.619	2728.75
1149.614	2735.75
1154.604	2746.75
1159.589	2738.75
1164.57	2764.75
1169.545	2775.75
1174.515	2775.75
1179.48	2741.75
1184.44	2739.75
1189.395	2718.75
1194.345	2689.75
1199.29	2700.75
1204.23	2664.75
1209.165	2645.75
1214.095	2695.75
1219.021	2687.75
1223.941	2699.75
1228.856	2712.75
1233.766	2710.75
1238.672	2719.75
1243.572	2698.75
1248.467	2687.75
1253.358	2646.75
1258.244	2583.75
1263.124	2570.75
1268	2527.75
1272.871	2464.75
1277.737	2455.75
1282.599	2450.75
1287.455	2428.75
1292.306	2454.75
1297.153	2449.75
1301.995	2474.75
1306.832	2485.75
1311.664	2482.75
1316.491	2495.75
1321.314	2483.75
1326.132	2471.75
1330.945	2445.75
1335.753	2375.75
1340.556	2353.75
1345.354	2305.75
1350.148	2303.75
1354.937	2271.75
1359.722	2247.75
1364.501	2208.75
1369.276	2233.75
1374.046	2225.75
1378.811	2191.75
1383.572	2197.75
1388.327	2198.75
1393.079	2197.75
1397.825	2153.75
1402.567	2144.75
1407.304	2135.75
1412.036	2119.75
1416.764	2109.75
1421.487	2098.75
1426.205	2103.75
1430.919	2114.75
1435.628	2146.75
1440.333	2117.75
1445.032	2154.75
1449.727	2162.75
1454.418	2190.75
1459.104	2200.75
1463.785	2127.75
1468.462	2140.75
1473.134	2091.75
1477.802	2067.75
1482.465	2015.75
1487.123	2031.75
1491.777	1988.75
1496.426	1998.75
1501.071	2031.75
1505.711	2024.75
1510.347	2031.75
1514.978	2037.75
1519.604	2037.75
1524.226	2045.75
1528.844	2024.75
1533.457	2030.75
1538.065	2011.75
1542.669	1993.75
1547.269	1952.75
1551.864	1947.75
1556.454	1918.75
1561.041	1927.75
1565.622	1933.75
1570.199	1939.75
1574.772	1954.75
1579.34	1961.75
1583.904	1974.75
1588.464	2013.75
1593.019	2004.75
1597.569	1994.75
1602.115	1979.75
1606.657	1970.75
1611.195	1976.75
1615.728	1978.75
1620.256	1951.75
1624.78	1924.75
1629.3	1967.75
1633.816	1971.75
1638.327	1998.75
1642.834	2009.75
1647.336	2005.75
1651.834	2050.75
1656.328	2031.75
1660.817	2031.75
1665.302	2013.75
1669.783	2006.75
1674.259	1981.75
1678.732	1943.75
1683.199	1889.75
1687.663	1838.75
1692.122	1814.75
1696.577	1780.75
1701.028	1751.75
1705.474	1710.75
1709.917	1661.75
1714.355	1663.75
1718.788	1664.75
1723.218	1625.75
1727.643	1600.75
1732.064	1592.75
1736.481	1540.75
1740.893	1532.75
1745.301	1503.75
1749.705	1452.75
1754.105	1432.75
1758.501	1398.75
1762.893	1396.75
1767.28	1351.75
1771.663	1362.75
1776.042	1329.75
1780.417	1334.75
1784.787	1334.75
1789.154	1333.75
1793.516	1342.75
1797.874	1339.75
1802.228	1323.75
1806.578	1325.75
1810.924	1319.75
1815.266	1221.75
1819.603	1282.75
1823.937	1261.75
1828.266	1228.75
1832.591	1226.75
1836.913	1222.75
1841.23	1204.75
1845.543	1203.75
1849.852	1214.75
1854.156	1207.75
1858.457	1212.75
1862.754	1204.75
1867.047	1219.75
1871.335	1222.75
1875.62	1246.75
1879.9	1223.75
1884.177	1224.75
1888.449	1219.75
1892.718	1210.75
1896.982	1213.75
1901.243	1194.75
1905.499	1204.75
1909.752	1186.75
1914	1189.75
1918.245	1219.75
1922.485	1217.75
1926.722	1213.75
1930.954	1219.75
1935.183	1223.75
1939.408	1238.75
1943.628	1225.75
1947.845	1213.75
1952.058	1207.75
1956.267	1168.75
1960.472	1167.75
1964.673	1143.75
1968.87	1107.75
1973.063	1077.75
1977.252	1067.75
1981.438	1051.75
1985.619	1041.75
1989.797	1027.75
1993.971	1034.75
1998.14	1037.75
2002.306	1007.75
2006.469	1036.75
2010.627	1007.75
2014.781	1015.75
2018.932	1001.75
2023.078	1007.75
2027.221	992.75
2031.36	967.75
2035.495	966.75
2039.627	960.75
2043.754	965.75
2047.878	945.75
2051.998	956.75
2056.114	944.75
2060.226	960.75
2064.334	954.75
2068.439	956.75
2072.54	973.75
2076.637	956.75
2080.73	953.75
2084.82	966.75
2088.906	956.75
2092.988	962.75
2097.066	982.75
2101.14	953.75
2105.211	950.75
2109.278	933.75
2113.342	929.75
2117.401	895.75
2121.457	891.75
2125.509	881.75
2129.558	895.75
2133.602	864.75
2137.643	869.75
2141.681	851.75
2145.714	871.75
2149.744	843.75
2153.77	824.75
2157.793	814.75
2161.812	798.75
2165.827	781.75
2169.838	807.75
2173.846	772.75
2177.851	771.75
2181.851	750.75
2185.848	751.75
2189.841	750.75
2193.831	730.75
2197.817	726.75
2201.799	722.75
2205.778	711.75
2209.753	706.75
2213.725	694.75
2217.693	710.75
2221.657	698.75
2225.618	699.75
2229.575	700.75
2233.529	688.75
2237.479	681.75
2241.425	662.75
2245.368	657.75
2249.307	653.75
2253.243	643.75
2257.175	637.75
2261.104	617.75
2265.029	619.75
2268.95	608.75
2272.868	604.75
2276.783	576.75
2280.694	576.75
2284.601	573.75
2288.505	566.75
2292.405	574.75
2296.302	545.75
2300.195	546.75
2304.085	518.75
2307.971	530.75
2311.854	513.75
2315.734	511.75
2319.609	510.75
2323.482	479.75
2327.351	482.75
2331.216	488.75
2335.078	488.75
2338.937	491.75
2342.792	481.75
2346.643	474.75
2350.492	483.75
2354.336	477.75
2358.178	481.75
2362.015	482.75
2365.85	473.75
2369.681	489.75
2373.508	490.75
2377.333	491.75
2381.153	478.75
2384.971	466.75
2388.785	469.75
2392.595	456.75
2396.402	450.75
2400.206	432.75
2404.007	448.75
2407.804	454.75
2411.597	459.75
2415.388	445.75
2419.174	441.75
2422.958	441.75
2426.738	444.75
2430.515	447.75
2434.289	442.75
2438.059	421.75
2441.825	418.75
2445.589	437.75
2449.349	417.75
2453.106	422.75
2456.859	413.75
2460.61	421.75
2464.356	400.75
2468.1	407.75
2471.84	391.75
2475.577	400.75
2479.311	390.75
2483.041	400.75
2486.768	405.75
2490.492	408.75
2494.213	400.75
2497.93	381.75
2501.644	385.75
2505.355	382.75
2509.062	391.75
2512.766	391.75
2516.467	376.75
2520.165	385.75
2523.859	367.75
2527.551	396.75
2531.239	366.75
2534.923	382.75
2538.605	374.75
2542.283	375.75
2545.958	374.75
2549.63	386.75
2553.299	377.75
2556.964	360.75
2560.626	364.75
2564.285	380.75
2567.941	348.75
2571.594	354.75
2575.243	360.75
2578.89	349.75
2582.533	349.75
2586.173	349.75
2589.809	349.75
2593.443	322.75
2597.073	344.75
2600.701	335.75
2604.325	330.75
2607.946	318.75
2611.564	337.75
2615.178	334.75
2618.79	322.75
2622.398	316.75
2626.004	318.75
2629.606	309.75
2633.205	299.75
2636.801	306.75
2640.394	298.75
2643.983	291.75
2647.57	291.75
2651.153	284.75
2654.734	298.75
2658.311	268.75
2661.885	263.75
2665.456	284.75
2669.025	287.75
2672.589	274.75
2676.151	291.75
2679.71	280.75
2683.266	264.75
2686.819	258.75
2690.368	261.75
2693.915	267.75
2697.458	252.75
2700.999	262.75
2704.536	260.75
2708.071	244.75
2711.602	248.75
2715.13	243.75
2718.656	226.75
2722.178	245.75
2725.697	232.75
2729.214	236.75
2732.727	247.75
2736.237	230.75
2739.744	237.75
2743.249	236.75
2746.75	244.75
2750.248	230.75
2753.743	238.75
2757.236	242.75
2760.725	249.75
2764.211	210.75
2767.695	241.75
2771.175	230.75
2774.652	241.75
2778.127	237.75
2781.598	225.75
2785.067	224.75
2788.532	231.75
2791.995	234.75
2795.455	229.75
2798.911	234.75
2802.365	225.75
2805.816	237.75
2809.264	243.75
2812.709	228.75
2816.151	230.75
2819.59	220.75
2823.026	234.75
2826.46	227.75
2829.89	245.75
2833.318	214.75
2836.742	230.75
2840.164	239.75
2843.583	234.75
2846.999	233.75
2850.412	239.75
2853.822	240.75
2857.229	256.75
2860.634	250.75
2864.035	223.75
2867.434	260.75
2870.83	259.75
2874.223	252.75
2877.613	260.75
2881	248.75
2884.385	257.75
2887.766	263.75
2891.145	262.75
2894.521	264.75
2897.894	238.75
2901.264	266.75
2904.631	264.75
2907.996	268.75
2911.358	267.75
2914.717	257.75
2918.073	261.75
2921.426	257.75
2924.777	248.75
2928.124	264.75
2931.469	281.75
2934.811	275.75
2938.15	298.75
2941.487	296.75
2944.821	308.75
2948.152	294.75
2951.48	293.75
2954.805	281.75
2958.128	307.75
2961.447	293.75
2964.765	306.75
2968.079	288.75
2971.39	303.75
2974.699	304.75
2978.005	303.75
2981.308	305.75
2984.609	300.75
2987.907	319.75
2991.202	327.75
2994.494	311.75
2997.784	333.75
3001.07	334.75
3004.355	328.75
3007.636	323.75
3010.915	325.75
3014.191	325.75
3017.464	333.75
3020.734	333.75
3024.002	337.75
3027.267	342.75
3030.53	337.75
3033.789	345.75
3037.046	350.75
3040.301	349.75
3043.552	367.75
3046.801	369.75
3050.048	385.75
3053.291	399.75
3056.532	394.75
3059.771	378.75
3063.006	408.75
3066.239	421.75
3069.469	435.75
3072.697	443.75
3075.922	445.75
3079.144	463.75
3082.364	493.75
3085.581	471.75
3088.795	508.75
3092.007	516.75
3095.216	518.75
3098.423	519.75
3101.627	510.75
3104.828	547.75
3108.026	553.75
3111.222	580.75
3114.416	591.75
3117.607	589.75
3120.795	611.75
3123.98	624.75
3127.163	622.75
3130.344	633.75
3133.521	644.75
3136.696	671.75
3139.869	678.75
3143.039	664.75
3146.206	714.75
3149.371	718.75
3152.533	708.75
3155.693	716.75
3158.85	716.75
3162.005	720.75
3165.157	718.75
3168.306	725.75
3171.453	731.75
3174.597	714.75
3177.739	727.75
3180.878	734.75
3184.014	731.75
3187.149	737.75
3190.28	739.75
3193.409	744.75
3196.536	744.75
3199.659	756.75
3202.781	753.75
3205.9	739.75
3209.016	749.75
3212.13	736.75
3215.241	734.75
3218.35	734.75
3221.456	729.75
3224.56	714.75
3227.661	721.75
3230.76	715.75
3233.856	707.75
3236.95	706.75
3240.041	696.75
3243.13	688.75
3246.216	690.75
3249.3	714.75
3252.382	680.75
3255.46	682.75
3258.537	639.75
3261.611	678.75
3264.682	679.75
3267.751	675.75
3270.818	652.75
3273.882	677.75
3276.943	666.75
3280.002	674.75
3283.059	656.75
3286.113	652.75
3289.165	629.75
3292.214	620.75
3295.261	628.75
3298.306	593.75
3301.348	605.75
3304.387	590.75
3307.425	587.75
3310.459	579.75
3313.492	573.75
3316.521	575.75
3319.549	567.75
3322.574	562.75
3325.597	563.75
3328.617	535.75
3331.635	541.75
3334.65	539.75
3337.663	549.75
3340.674	538.75
3343.682	538.75
3346.688	548.75
3349.691	533.75
3352.692	532.75
3355.691	533.75
3358.687	525.75
3361.681	528.75
3364.673	519.75
3367.662	525.75
3370.649	521.75
3373.633	493.75
3376.615	497.75
3379.595	487.75
3382.572	489.75
3385.547	474.75
3388.52	471.75
3391.49	473.75
3394.458	469.75
3397.424	476.75
3400.387	446.75
3403.348	453.75
3406.307	450.75
3409.263	453.75
3412.217	448.75
3415.168	447.75
3418.118	454.75
3421.065	433.75
3424.009	438.75
3426.951	416.75
3429.891	416.75
3432.829	411.75
3435.764	402.75
3438.697	392.75
3441.628	397.75
3444.557	371.75
3447.483	358.75
3450.407	364.75
3453.328	347.75
3456.247	341.75
3459.164	326.75
3462.079	335.75
3464.991	318.75
3467.902	323.75
3470.809	309.75
3473.715	309.75
3476.618	290.75
3479.519	285.75
3482.418	266.75
3485.315	263.75
3488.209	258.75
3491.101	267.75
3493.99	238.75
3496.878	242.75
3499.763	235.75
3502.646	238.75
3505.527	225.75
3508.405	211.75
3511.281	189.75
3514.155	198.75
3517.027	186.75
3519.897	181.75
3522.764	190.75
3525.629	161.75
3528.492	165.75
3531.352	165.75
3534.211	160.75
3537.067	141.75
3539.921	143.75
3542.773	147.75
3545.622	121.75
3548.469	115.75
3551.315	106.75
3554.157	113.75
3556.998	98.75
3559.837	106.75
3562.673	102.75
3565.507	92.75
3568.339	78.75
3571.169	87.75
3573.996	85.75
3576.822	65.75
3579.645	74.75
3582.466	64.75
3585.285	76.75
3588.101	68.75
3590.916	65.75
3593.728	65.75
3596.538	60.75
3599.346	50.75
3602.152	43.75
3604.956	47.75
3607.757	49.75
3610.556	35.75
3613.354	45.75
3616.149	38.75
3618.942	35.75
3621.732	45.75
3624.521	28.75
3627.307	20.75
3630.092	21.75
3632.874	34.75
3635.654	22.75
3638.432	15.75
3641.208	16.75
3643.982	14.75
3646.753	26.75
3649.523	-12.25
3652.29	13.75
3655.055	13.75
3657.818	11.75
3660.579	4.75
3663.338	-6.25
3666.095	-5.25
3668.849	-19.25
3671.602	2.75
3674.352	-8.25
3677.101	9.75
3679.847	1.75
3682.591	-12.25
3685.333	-20.25
3688.073	-3.25
3690.811	-19.25
3693.547	-23.25
3696.281	-21.25
3699.013	-12.25
3701.742	-14.25
3704.47	-25.25
3707.195	-12.25
3709.919	-12.25
3712.64	-11.25
3715.359	-25.25
3718.076	-2.25
3720.792	-17.25
3723.505	-18.25
3726.216	-5.25
3728.925	-18.25
3731.632	-25.25
3734.336	-19.25
3737.039	-20.25
3739.74	-15.25
3742.439	-40.25
3745.136	-15.25
3747.83	-17.25
3750.523	-12.25
3753.213	-82.25
3755.902	-23.25
3758.589	-33.25
3761.273	-31.25
3763.956	-14.25
3766.636	-35.25
3769.315	-12.25
3771.991	-22.25
3774.665	-25.25
3777.338	-22.25
3780.008	-31.25
3782.677	-26.25
3785.343	-36.25
3788.007	-44.25
3790.67	-20.25
3793.33	-36.25
3795.989	-31.25
3798.645	-24.25
3801.299	-35.25
3803.952	-35.25
3806.602	-30.25
3809.251	-20.25
3811.897	-26.25
3814.542	-28.25
3817.184	-30.25
3819.825	-29.25
3822.463	-40.25
3825.1	-30.25
3827.735	-24.25
3830.367	-32.25
3832.998	-16.25
3835.627	-28.25
3838.253	-19.25
3840.878	-29.25
3843.501	-14.25
3846.122	-20.25
3848.741	-17.25
3851.358	-24.25
3853.973	-35.25
3856.586	-15.25
3859.197	-32.25
3861.806	-25.25
3864.414	-32.25
3867.019	-23.25
3869.622	-16.25
3872.224	-3.25
3874.823	20.75
3877.421	56.75
3880.016	83.75
3882.61	144.75
3885.202	161.75
3887.792	115.75
3890.38	63.75
3892.966	12.75
3895.55	-17.25
3898.132	-14.25
3900.713	-16.25
3903.291	-24.25
3905.868	-35.25
3908.442	-26.25
3911.015	-30.25
3913.586	-31.25
3916.155	-33.25
3918.722	-33.25
3921.287	-35.25
3923.85	-47.25
3926.411	-35.25
3928.971	-33.25
3931.528	-27.25
3934.084	-33.25
3936.638	-35.25
3939.19	-27.25
3941.74	-28.25
3944.288	-33.25
3946.834	-34.25
3949.378	-21.25
3951.921	-37.25
3954.462	-29.25
3957	-22.25
3959.537	-19.25
3962.072	-26.25
3964.606	-40.25
3967.137	-26.25
3969.667	-32.25
3972.194	-26.25
3974.72	-31.25
3977.244	-54.25
3979.766	-38.25
3982.286	-37.25
3984.805	-28.25
3987.321	-16.25
3989.836	-22.25
3992.349	-34.25
3994.86	-29.25
3997.369	-33.25
3999.877	-28.25
4002.382	-30.25
4004.886	-25.25
4007.388	-24.25
4009.888	-18.25
4012.386	-19.25
4014.883	-21.25
4017.377	-26.25
4019.87	-22.25
4022.361	-30.25
4024.85	-28.25
4027.338	-25.25
4029.823	-31.25
4032.307	-29.25
4034.789	-24.25
4037.269	-27.25
4039.747	-38.25
4042.224	-17.25
4044.699	-31.25
4047.172	-29.25
4049.643	-21.25
4052.112	-52.25
4054.58	-20.25
4057.046	-37.25
4059.51	-28.25
4061.972	-30.25
4064.432	-42.25
4066.891	-18.25
4069.348	-26.25
4071.803	-21.25
4074.256	-30.25
4076.708	-24.25
4079.158	-21.25
4081.606	-17.25
4084.052	-25.25
4086.497	-19.25
4088.939	-29.25
4091.38	-25.25
4093.819	-17.25
4096.257	3.75
4098.693	-9.25
4101.127	-6.25
4103.559	-0.25
4105.989	162.75
4108.418	170.75
4110.845	147.75
4113.27	160.75
4115.694	160.75
4118.115	162.75
4120.535	-23.25
4122.954	-22.25
4125.37	-15.25
4127.785	-23.25
4130.198	-18.25
4132.609	-19.25
4135.019	7.75
4137.427	2.75
4139.833	6.75
4142.237	-5.25
