Data from 2018-3-6_conc=6_n=8_RamanShift_03.txt Node
Date: Tue Mar 06 15:16:48 GMT+02:00 2018
User: LAB3
Spectrometer: QEPB0276
Trigger mode: 0
Integration Time (sec): 3.000000E1
Scans to average: 1
Electric dark correction enabled: true
Nonlinearity correction enabled: false
Boxcar width: 0
XAxis mode: Raman Shifts
Number of Pixels in Spectrum: 1044
>>>>>Begin Spectral Data<<<<<
160.701	42.62
166.742	56.62
172.777	80.62
178.805	155.62
184.826	378.62
190.841	770.62
196.849	1178.62
202.85	1468.62
208.845	1544.62
214.833	1540.62
220.815	1484.62
226.789	1471.62
232.758	1461.62
238.719	1429.62
244.674	1419.62
250.623	1387.62
256.565	1361.62
262.5	1338.62
268.429	1328.62
274.351	1300.62
280.267	1312.62
286.176	1298.62
292.079	1288.62
297.975	1291.62
303.865	1277.62
309.748	1272.62
315.625	1276.62
321.495	1270.62
327.359	1250.62
333.217	1260.62
339.068	1255.62
344.912	1269.62
350.751	1255.62
356.583	1267.62
362.408	1278.62
368.227	1287.62
374.04	1284.62
379.847	1285.62
385.647	1295.62
391.44	1264.62
397.228	1302.62
403.009	1294.62
408.784	1312.62
414.553	1320.62
420.315	1300.62
426.071	1296.62
431.821	1322.62
437.565	1324.62
443.302	1300.62
449.033	1282.62
454.758	1296.62
460.477	1277.62
466.189	1269.62
471.896	1241.62
477.596	1254.62
483.29	1236.62
488.978	1216.62
494.66	1205.62
500.335	1185.62
506.005	1112.62
511.668	1072.62
517.325	998.62
522.977	965.62
528.622	916.62
534.261	913.62
539.894	891.62
545.521	873.62
551.141	861.62
556.756	843.62
562.365	846.62
567.968	837.62
573.565	818.62
579.155	834.62
584.74	808.62
590.319	831.62
595.892	802.62
601.459	822.62
607.02	820.62
612.575	811.62
618.124	812.62
623.667	782.62
629.204	771.62
634.735	754.62
640.261	757.62
645.781	728.62
651.294	738.62
656.802	728.62
662.304	737.62
667.8	750.62
673.29	720.62
678.775	732.62
684.254	727.62
689.726	706.62
695.193	716.62
700.655	713.62
706.11	714.62
711.56	705.62
717.004	712.62
722.442	689.62
727.874	698.62
733.301	698.62
738.722	691.62
744.137	697.62
749.547	683.62
754.951	687.62
760.349	676.62
765.741	696.62
771.128	694.62
776.509	699.62
781.885	720.62
787.254	727.62
792.618	727.62
797.977	726.62
803.33	725.62
808.677	709.62
814.019	707.62
819.355	704.62
824.686	701.62
830.011	681.62
835.33	694.62
840.644	694.62
845.952	675.62
851.255	687.62
856.552	655.62
861.844	651.62
867.13	643.62
872.41	636.62
877.686	639.62
882.955	633.62
888.219	620.62
893.478	604.62
898.731	613.62
903.979	601.62
909.221	590.62
914.458	583.62
919.69	605.62
924.916	594.62
930.136	590.62
935.351	589.62
940.561	592.62
945.766	587.62
950.965	594.62
956.158	582.62
961.347	573.62
966.529	568.62
971.707	576.62
976.879	567.62
982.046	551.62
987.208	538.62
992.364	553.62
997.515	534.62
1002.66	553.62
1007.801	549.62
1012.936	556.62
1018.066	535.62
1023.19	560.62
1028.309	571.62
1033.423	559.62
1038.532	572.62
1043.636	557.62
1048.734	562.62
1053.827	541.62
1058.915	537.62
1063.998	554.62
1069.075	535.62
1074.147	545.62
1079.214	524.62
1084.276	553.62
1089.333	541.62
1094.385	548.62
1099.431	532.62
1104.472	546.62
1109.509	524.62
1114.54	519.62
1119.565	497.62
1124.586	506.62
1129.602	496.62
1134.613	484.62
1139.618	487.62
1144.619	493.62
1149.614	495.62
1154.604	493.62
1159.589	483.62
1164.57	512.62
1169.545	522.62
1174.515	508.62
1179.48	500.62
1184.44	497.62
1189.395	501.62
1194.345	487.62
1199.29	503.62
1204.23	480.62
1209.165	473.62
1214.095	491.62
1219.021	494.62
1223.941	477.62
1228.856	484.62
1233.766	503.62
1238.672	498.62
1243.572	500.62
1248.467	496.62
1253.358	496.62
1258.244	458.62
1263.124	479.62
1268	475.62
1272.871	439.62
1277.737	452.62
1282.599	434.62
1287.455	440.62
1292.306	445.62
1297.153	435.62
1301.995	441.62
1306.832	449.62
1311.664	441.62
1316.491	443.62
1321.314	449.62
1326.132	439.62
1330.945	442.62
1335.753	432.62
1340.556	423.62
1345.354	421.62
1350.148	409.62
1354.937	418.62
1359.722	390.62
1364.501	404.62
1369.276	402.62
1374.046	410.62
1378.811	396.62
1383.572	397.62
1388.327	403.62
1393.079	382.62
1397.825	385.62
1402.567	393.62
1407.304	378.62
1412.036	378.62
1416.764	378.62
1421.487	358.62
1426.205	368.62
1430.919	372.62
1435.628	374.62
1440.333	373.62
1445.032	375.62
1449.727	388.62
1454.418	384.62
1459.104	390.62
1463.785	377.62
1468.462	378.62
1473.134	372.62
1477.802	362.62
1482.465	350.62
1487.123	355.62
1491.777	343.62
1496.426	338.62
1501.071	356.62
1505.711	354.62
1510.347	358.62
1514.978	360.62
1519.604	359.62
1524.226	355.62
1528.844	334.62
1533.457	364.62
1538.065	359.62
1542.669	349.62
1547.269	354.62
1551.864	348.62
1556.454	326.62
1561.041	331.62
1565.622	334.62
1570.199	354.62
1574.772	352.62
1579.34	353.62
1583.904	361.62
1588.464	371.62
1593.019	363.62
1597.569	346.62
1602.115	355.62
1606.657	347.62
1611.195	369.62
1615.728	358.62
1620.256	343.62
1624.78	322.62
1629.3	337.62
1633.816	344.62
1638.327	332.62
1642.834	355.62
1647.336	355.62
1651.834	353.62
1656.328	350.62
1660.817	348.62
1665.302	338.62
1669.783	333.62
1674.259	335.62
1678.732	331.62
1683.199	332.62
1687.663	310.62
1692.122	326.62
1696.577	307.62
1701.028	308.62
1705.474	291.62
1709.917	282.62
1714.355	279.62
1718.788	277.62
1723.218	266.62
1727.643	251.62
1732.064	270.62
1736.481	257.62
1740.893	255.62
1745.301	254.62
1749.705	220.62
1754.105	242.62
1758.501	221.62
1762.893	238.62
1767.28	202.62
1771.663	221.62
1776.042	213.62
1780.417	223.62
1784.787	213.62
1789.154	224.62
1793.516	220.62
1797.874	214.62
1802.228	208.62
1806.578	197.62
1810.924	215.62
1815.266	97.62
1819.603	209.62
1823.937	201.62
1828.266	211.62
1832.591	203.62
1836.913	199.62
1841.23	197.62
1845.543	195.62
1849.852	204.62
1854.156	193.62
1858.457	203.62
1862.754	189.62
1867.047	190.62
1871.335	211.62
1875.62	212.62
1879.9	206.62
1884.177	200.62
1888.449	197.62
1892.718	204.62
1896.982	199.62
1901.243	186.62
1905.499	182.62
1909.752	179.62
1914	165.62
1918.245	197.62
1922.485	189.62
1926.722	188.62
1930.954	175.62
1935.183	190.62
1939.408	192.62
1943.628	191.62
1947.845	188.62
1952.058	181.62
1956.267	178.62
1960.472	185.62
1964.673	179.62
1968.87	172.62
1973.063	170.62
1977.252	175.62
1981.438	167.62
1985.619	163.62
1989.797	154.62
1993.971	164.62
1998.14	179.62
2002.306	166.62
2006.469	163.62
2010.627	156.62
2014.781	158.62
2018.932	150.62
2023.078	170.62
2027.221	165.62
2031.36	154.62
2035.495	148.62
2039.627	163.62
2043.754	156.62
2047.878	142.62
2051.998	149.62
2056.114	152.62
2060.226	146.62
2064.334	153.62
2068.439	152.62
2072.54	159.62
2076.637	138.62
2080.73	146.62
2084.82	143.62
2088.906	143.62
2092.988	134.62
2097.066	143.62
2101.14	150.62
2105.211	152.62
2109.278	140.62
2113.342	135.62
2117.401	135.62
2121.457	127.62
2125.509	127.62
2129.558	140.62
2133.602	133.62
2137.643	139.62
2141.681	131.62
2145.714	126.62
2149.744	129.62
2153.77	132.62
2157.793	122.62
2161.812	99.62
2165.827	101.62
2169.838	136.62
2173.846	119.62
2177.851	109.62
2181.851	127.62
2185.848	118.62
2189.841	111.62
2193.831	108.62
2197.817	107.62
2201.799	108.62
2205.778	93.62
2209.753	95.62
2213.725	101.62
2217.693	108.62
2221.657	91.62
2225.618	104.62
2229.575	99.62
2233.529	101.62
2237.479	106.62
2241.425	94.62
2245.368	87.62
2249.307	97.62
2253.243	92.62
2257.175	99.62
2261.104	83.62
2265.029	94.62
2268.95	89.62
2272.868	89.62
2276.783	80.62
2280.694	90.62
2284.601	94.62
2288.505	78.62
2292.405	95.62
2296.302	73.62
2300.195	78.62
2304.085	52.62
2307.971	82.62
2311.854	59.62
2315.734	75.62
2319.609	80.62
2323.482	54.62
2327.351	64.62
2331.216	66.62
2335.078	77.62
2338.937	67.62
2342.792	66.62
2346.643	64.62
2350.492	68.62
2354.336	61.62
2358.178	69.62
2362.015	66.62
2365.85	63.62
2369.681	70.62
2373.508	69.62
2377.333	63.62
2381.153	70.62
2384.971	61.62
2388.785	67.62
2392.595	52.62
2396.402	58.62
2400.206	30.62
2404.007	51.62
2407.804	51.62
2411.597	54.62
2415.388	58.62
2419.174	45.62
2422.958	56.62
2426.738	54.62
2430.515	57.62
2434.289	45.62
2438.059	45.62
2441.825	50.62
2445.589	56.62
2449.349	36.62
2453.106	49.62
2456.859	52.62
2460.61	48.62
2464.356	35.62
2468.1	37.62
2471.84	42.62
2475.577	37.62
2479.311	38.62
2483.041	41.62
2486.768	58.62
2490.492	55.62
2494.213	46.62
2497.93	31.62
2501.644	30.62
2505.355	41.62
2509.062	43.62
2512.766	39.62
2516.467	33.62
2520.165	38.62
2523.859	26.62
2527.551	60.62
2531.239	32.62
2534.923	35.62
2538.605	33.62
2542.283	38.62
2545.958	36.62
2549.63	47.62
2553.299	50.62
2556.964	29.62
2560.626	32.62
2564.285	35.62
2567.941	23.62
2571.594	18.62
2575.243	34.62
2578.89	27.62
2582.533	32.62
2586.173	29.62
2589.809	33.62
2593.443	10.62
2597.073	27.62
2600.701	37.62
2604.325	30.62
2607.946	21.62
2611.564	39.62
2615.178	33.62
2618.79	29.62
2622.398	24.62
2626.004	31.62
2629.606	33.62
2633.205	16.62
2636.801	26.62
2640.394	30.62
2643.983	27.62
2647.57	26.62
2651.153	23.62
2654.734	32.62
2658.311	0.62
2661.885	13.62
2665.456	11.62
2669.025	24.62
2672.589	14.62
2676.151	34.62
2679.71	32.62
2683.266	20.62
2686.819	17.62
2690.368	24.62
2693.915	25.62
2697.458	23.62
2700.999	22.62
2704.536	20.62
2708.071	19.62
2711.602	17.62
2715.13	17.62
2718.656	3.62
2722.178	10.62
2725.697	5.62
2729.214	17.62
2732.727	11.62
2736.237	0.62
2739.744	7.62
2743.249	3.62
2746.75	14.62
2750.248	4.62
2753.743	14.62
2757.236	12.62
2760.725	18.62
2764.211	-11.38
2767.695	16.62
2771.175	8.62
2774.652	15.62
2778.127	8.62
2781.598	9.62
2785.067	8.62
2788.532	0.62
2791.995	12.62
2795.455	7.62
2798.911	17.62
2802.365	10.62
2805.816	10.62
2809.264	20.62
2812.709	10.62
2816.151	12.62
2819.59	-0.38
2823.026	5.62
2826.46	4.62
2829.89	15.62
2833.318	-12.38
2836.742	6.62
2840.164	1.62
2843.583	7.62
2846.999	2.62
2850.412	14.62
2853.822	6.62
2857.229	20.62
2860.634	10.62
2864.035	-2.38
2867.434	9.62
2870.83	16.62
2874.223	3.62
2877.613	9.62
2881	2.62
2884.385	7.62
2887.766	6.62
2891.145	14.62
2894.521	6.62
2897.894	0.62
2901.264	12.62
2904.631	10.62
2907.996	13.62
2911.358	21.62
2914.717	14.62
2918.073	8.62
2921.426	11.62
2924.777	-1.38
2928.124	9.62
2931.469	25.62
2934.811	1.62
2938.15	28.62
2941.487	14.62
2944.821	31.62
2948.152	11.62
2951.48	22.62
2954.805	7.62
2958.128	31.62
2961.447	14.62
2964.765	28.62
2968.079	20.62
2971.39	23.62
2974.699	21.62
2978.005	23.62
2981.308	18.62
2984.609	7.62
2987.907	26.62
2991.202	32.62
2994.494	15.62
2997.784	27.62
3001.07	26.62
3004.355	23.62
3007.636	27.62
3010.915	22.62
3014.191	24.62
3017.464	29.62
3020.734	29.62
3024.002	33.62
3027.267	29.62
3030.53	31.62
3033.789	29.62
3037.046	32.62
3040.301	28.62
3043.552	37.62
3046.801	35.62
3050.048	46.62
3053.291	54.62
3056.532	43.62
3059.771	24.62
3063.006	47.62
3066.239	48.62
3069.469	53.62
3072.697	43.62
3075.922	33.62
3079.144	42.62
3082.364	65.62
3085.581	44.62
3088.795	68.62
3092.007	59.62
3095.216	64.62
3098.423	61.62
3101.627	42.62
3104.828	62.62
3108.026	56.62
3111.222	79.62
3114.416	80.62
3117.607	74.62
3120.795	79.62
3123.98	77.62
3127.163	67.62
3130.344	76.62
3133.521	73.62
3136.696	93.62
3139.869	85.62
3143.039	71.62
3146.206	104.62
3149.371	99.62
3152.533	94.62
3155.693	82.62
3158.85	92.62
3162.005	98.62
3165.157	92.62
3168.306	93.62
3171.453	105.62
3174.597	90.62
3177.739	82.62
3180.878	100.62
3184.014	94.62
3187.149	102.62
3190.28	99.62
3193.409	100.62
3196.536	102.62
3199.659	104.62
3202.781	101.62
3205.9	87.62
3209.016	97.62
3212.13	94.62
3215.241	90.62
3218.35	91.62
3221.456	89.62
3224.56	85.62
3227.661	95.62
3230.76	95.62
3233.856	91.62
3236.95	91.62
3240.041	80.62
3243.13	96.62
3246.216	92.62
3249.3	97.62
3252.382	93.62
3255.46	77.62
3258.537	37.62
3261.611	77.62
3264.682	86.62
3267.751	79.62
3270.818	75.62
3273.882	83.62
3276.943	80.62
3280.002	89.62
3283.059	75.62
3286.113	72.62
3289.165	78.62
3292.214	70.62
3295.261	92.62
3298.306	61.62
3301.348	74.62
3304.387	67.62
3307.425	78.62
3310.459	70.62
3313.492	78.62
3316.521	68.62
3319.549	78.62
3322.574	74.62
3325.597	71.62
3328.617	63.62
3331.635	65.62
3334.65	49.62
3337.663	64.62
3340.674	61.62
3343.682	73.62
3346.688	68.62
3349.691	56.62
3352.692	67.62
3355.691	70.62
3358.687	63.62
3361.681	67.62
3364.673	58.62
3367.662	68.62
3370.649	71.62
3373.633	53.62
3376.615	66.62
3379.595	50.62
3382.572	53.62
3385.547	48.62
3388.52	44.62
3391.49	48.62
3394.458	44.62
3397.424	54.62
3400.387	39.62
3403.348	51.62
3406.307	45.62
3409.263	47.62
3412.217	55.62
3415.168	47.62
3418.118	56.62
3421.065	37.62
3424.009	46.62
3426.951	43.62
3429.891	40.62
3432.829	41.62
3435.764	45.62
3438.697	36.62
3441.628	43.62
3444.557	27.62
3447.483	27.62
3450.407	38.62
3453.328	31.62
3456.247	26.62
3459.164	23.62
3462.079	40.62
3464.991	32.62
3467.902	28.62
3470.809	20.62
3473.715	30.62
3476.618	19.62
3479.519	20.62
3482.418	-4.38
3485.315	8.62
3488.209	12.62
3491.101	10.62
3493.99	-9.38
3496.878	-0.38
3499.763	6.62
3502.646	9.62
3505.527	-3.38
3508.405	-5.38
3511.281	-16.38
3514.155	0.62
3517.027	-4.38
3519.897	-13.38
3522.764	0.62
3525.629	-25.38
3528.492	-11.38
3531.352	0.62
3534.211	-9.38
3537.067	-13.38
3539.921	-10.38
3542.773	3.62
3545.622	-18.38
3548.469	-18.38
3551.315	-19.38
3554.157	-11.38
3556.998	-23.38
3559.837	-17.38
3562.673	-7.38
3565.507	-24.38
3568.339	-25.38
3571.169	-21.38
3573.996	-19.38
3576.822	-31.38
3579.645	-23.38
3582.466	-30.38
3585.285	-20.38
3588.101	-21.38
3590.916	-26.38
3593.728	-15.38
3596.538	-27.38
3599.346	-25.38
3602.152	-27.38
3604.956	-23.38
3607.757	-23.38
3610.556	-39.38
3613.354	-20.38
3616.149	-24.38
3618.942	-22.38
3621.732	-22.38
3624.521	-31.38
3627.307	-36.38
3630.092	-36.38
3632.874	-24.38
3635.654	-28.38
3638.432	-36.38
3641.208	-35.38
3643.982	-32.38
3646.753	-27.38
3649.523	-52.38
3652.29	-27.38
3655.055	-26.38
3657.818	-28.38
3660.579	-37.38
3663.338	-40.38
3666.095	-32.38
3668.849	-59.38
3671.602	-19.38
3674.352	-43.38
3677.101	-24.38
3679.847	-22.38
3682.591	-35.38
3685.333	-42.38
3688.073	-30.38
3690.811	-40.38
3693.547	-42.38
3696.281	-44.38
3699.013	-28.38
3701.742	-36.38
3704.47	-48.38
3707.195	-33.38
3709.919	-29.38
3712.64	-33.38
3715.359	-45.38
3718.076	-26.38
3720.792	-34.38
3723.505	-32.38
3726.216	-23.38
3728.925	-36.38
3731.632	-40.38
3734.336	-34.38
3737.039	-40.38
3739.74	-36.38
3742.439	-58.38
3745.136	-29.38
3747.83	-35.38
3750.523	-29.38
3753.213	-98.38
3755.902	-34.38
3758.589	-52.38
3761.273	-37.38
3763.956	-25.38
3766.636	-45.38
3769.315	-26.38
3771.991	-35.38
3774.665	-38.38
3777.338	-37.38
3780.008	-41.38
3782.677	-33.38
3785.343	-49.38
3788.007	-52.38
3790.67	-25.38
3793.33	-48.38
3795.989	-38.38
3798.645	-33.38
3801.299	-45.38
3803.952	-41.38
3806.602	-39.38
3809.251	-32.38
3811.897	-35.38
3814.542	-37.38
3817.184	-43.38
3819.825	-33.38
3822.463	-51.38
3825.1	-42.38
3827.735	-38.38
3830.367	-47.38
3832.998	-27.38
3835.627	-40.38
3838.253	-31.38
3840.878	-40.38
3843.501	-24.38
3846.122	-34.38
3848.741	-30.38
3851.358	-31.38
3853.973	-48.38
3856.586	-30.38
3859.197	-47.38
3861.806	-40.38
3864.414	-50.38
3867.019	-35.38
3869.622	-23.38
3872.224	-27.38
3874.823	-24.38
3877.421	-0.38
3880.016	8.62
3882.61	36.62
3885.202	49.62
3887.792	35.62
3890.38	7.62
3892.966	-22.38
3895.55	-37.38
3898.132	-28.38
3900.713	-25.38
3903.291	-32.38
3905.868	-40.38
3908.442	-31.38
3911.015	-35.38
3913.586	-39.38
3916.155	-40.38
3918.722	-39.38
3921.287	-35.38
3923.85	-49.38
3926.411	-41.38
3928.971	-40.38
3931.528	-31.38
3934.084	-40.38
3936.638	-45.38
3939.19	-30.38
3941.74	-33.38
3944.288	-41.38
3946.834	-34.38
3949.378	-28.38
3951.921	-41.38
3954.462	-40.38
3957	-38.38
3959.537	-26.38
3962.072	-42.38
3964.606	-57.38
3967.137	-38.38
3969.667	-40.38
3972.194	-36.38
3974.72	-47.38
3977.244	-65.38
3979.766	-40.38
3982.286	-46.38
3984.805	-34.38
3987.321	-26.38
3989.836	-30.38
3992.349	-43.38
3994.86	-37.38
3997.369	-39.38
3999.877	-41.38
4002.382	-40.38
4004.886	-33.38
4007.388	-31.38
4009.888	-22.38
4012.386	-29.38
4014.883	-32.38
4017.377	-33.38
4019.87	-32.38
4022.361	-42.38
4024.85	-40.38
4027.338	-36.38
4029.823	-44.38
4032.307	-38.38
4034.789	-38.38
4037.269	-34.38
4039.747	-47.38
4042.224	-29.38
4044.699	-47.38
4047.172	-36.38
4049.643	-32.38
4052.112	-59.38
4054.58	-39.38
4057.046	-53.38
4059.51	-37.38
4061.972	-37.38
4064.432	-58.38
4066.891	-28.38
4069.348	-36.38
4071.803	-33.38
4074.256	-35.38
4076.708	-32.38
4079.158	-35.38
4081.606	-20.38
4084.052	-37.38
4086.497	-30.38
4088.939	-36.38
4091.38	-37.38
4093.819	-29.38
4096.257	1.62
4098.693	-8.38
4101.127	-4.38
4103.559	-0.38
4105.989	49.62
4108.418	47.62
4110.845	36.62
4113.27	43.62
4115.694	44.62
4118.115	34.62
4120.535	-30.38
4122.954	-31.38
4125.37	-23.38
4127.785	-32.38
4130.198	-24.38
4132.609	-28.38
4135.019	9.62
4137.427	0.62
4139.833	5.62
4142.237	-4.38
