Data from 2018-3-6_conc=2_n=3_RamanShift_04.txt Node
Date: Tue Mar 06 12:49:49 GMT+02:00 2018
User: LAB3
Spectrometer: QEPB0276
Trigger mode: 0
Integration Time (sec): 3.000000E1
Scans to average: 1
Electric dark correction enabled: true
Nonlinearity correction enabled: false
Boxcar width: 0
XAxis mode: Raman Shifts
Number of Pixels in Spectrum: 1044
>>>>>Begin Spectral Data<<<<<
160.701	163.62
166.742	201.62
172.777	314.62
178.805	635.62
184.826	1475.62
190.841	2971.62
196.849	4738.62
202.85	6096.62
208.845	6597.62
214.833	6607.62
220.815	6526.62
226.789	6545.62
232.758	6589.62
238.719	6604.62
244.674	6556.62
250.623	6587.62
256.565	6504.62
262.5	6462.62
268.429	6427.62
274.351	6395.62
280.267	6407.62
286.176	6438.62
292.079	6462.62
297.975	6438.62
303.865	6451.62
309.748	6446.62
315.625	6459.62
321.495	6506.62
327.359	6496.62
333.217	6544.62
339.068	6555.62
344.912	6567.62
350.751	6587.62
356.583	6648.62
362.408	6665.62
368.227	6701.62
374.04	6714.62
379.847	6771.62
385.647	6787.62
391.44	6806.62
397.228	6847.62
403.009	6923.62
408.784	6935.62
414.553	6966.62
420.315	7003.62
426.071	6989.62
431.821	6989.62
437.565	6970.62
443.302	6967.62
449.033	6913.62
454.758	6908.62
460.477	6846.62
466.189	6808.62
471.896	6760.62
477.596	6676.62
483.29	6650.62
488.978	6634.62
494.66	6566.62
500.335	6404.62
506.005	6118.62
511.668	5866.62
517.325	5548.62
522.977	5308.62
528.622	5160.62
534.261	5047.62
539.894	4934.62
545.521	4837.62
551.141	4812.62
556.756	4737.62
562.365	4717.62
567.968	4684.62
573.565	4625.62
579.155	4615.62
584.74	4588.62
590.319	4583.62
595.892	4563.62
601.459	4573.62
607.02	4550.62
612.575	4522.62
618.124	4462.62
623.667	4384.62
629.204	4342.62
634.735	4297.62
640.261	4242.62
645.781	4186.62
651.294	4185.62
656.802	4198.62
662.304	4157.62
667.8	4147.62
673.29	4116.62
678.775	4114.62
684.254	4100.62
689.726	4068.62
695.193	4069.62
700.655	4041.62
706.11	3991.62
711.56	4003.62
717.004	3959.62
722.442	3933.62
727.874	3915.62
733.301	3922.62
738.722	3914.62
744.137	3885.62
749.547	3880.62
754.951	3894.62
760.349	3889.62
765.741	3903.62
771.128	3953.62
776.509	4001.62
781.885	4047.62
787.254	4099.62
792.618	4135.62
797.977	4109.62
803.33	4070.62
808.677	4049.62
814.019	4017.62
819.355	3970.62
824.686	3921.62
830.011	3900.62
835.33	3880.62
840.644	3856.62
845.952	3842.62
851.255	3811.62
856.552	3813.62
861.844	3772.62
867.13	3701.62
872.41	3656.62
877.686	3680.62
882.955	3649.62
888.219	3582.62
893.478	3538.62
898.731	3487.62
903.979	3436.62
909.221	3429.62
914.458	3400.62
919.69	3371.62
924.916	3396.62
930.136	3384.62
935.351	3406.62
940.561	3412.62
945.766	3387.62
950.965	3381.62
956.158	3335.62
961.347	3298.62
966.529	3272.62
971.707	3214.62
976.879	3198.62
982.046	3155.62
987.208	3121.62
992.364	3147.62
997.515	3158.62
1002.66	3169.62
1007.801	3199.62
1012.936	3228.62
1018.066	3213.62
1023.19	3254.62
1028.309	3267.62
1033.423	3287.62
1038.532	3267.62
1043.636	3262.62
1048.734	3221.62
1053.827	3189.62
1058.915	3152.62
1063.998	3167.62
1069.075	3114.62
1074.147	3124.62
1079.214	3104.62
1084.276	3145.62
1089.333	3134.62
1094.385	3138.62
1099.431	3132.62
1104.472	3134.62
1109.509	3085.62
1114.54	3052.62
1119.565	3009.62
1124.586	2972.62
1129.602	2936.62
1134.613	2905.62
1139.618	2892.62
1144.619	2896.62
1149.614	2895.62
1154.604	2899.62
1159.589	2891.62
1164.57	2941.62
1169.545	2930.62
1174.515	2921.62
1179.48	2912.62
1184.44	2878.62
1189.395	2875.62
1194.345	2834.62
1199.29	2827.62
1204.23	2839.62
1209.165	2824.62
1214.095	2851.62
1219.021	2847.62
1223.941	2847.62
1228.856	2851.62
1233.766	2895.62
1238.672	2879.62
1243.572	2894.62
1248.467	2878.62
1253.358	2801.62
1258.244	2759.62
1263.124	2721.62
1268	2679.62
1272.871	2616.62
1277.737	2617.62
1282.599	2601.62
1287.455	2591.62
1292.306	2611.62
1297.153	2620.62
1301.995	2647.62
1306.832	2650.62
1311.664	2617.62
1316.491	2647.62
1321.314	2639.62
1326.132	2605.62
1330.945	2573.62
1335.753	2534.62
1340.556	2481.62
1345.354	2449.62
1350.148	2407.62
1354.937	2403.62
1359.722	2363.62
1364.501	2355.62
1369.276	2355.62
1374.046	2333.62
1378.811	2331.62
1383.572	2342.62
1388.327	2314.62
1393.079	2311.62
1397.825	2280.62
1402.567	2287.62
1407.304	2230.62
1412.036	2255.62
1416.764	2238.62
1421.487	2212.62
1426.205	2236.62
1430.919	2224.62
1435.628	2250.62
1440.333	2261.62
1445.032	2280.62
1449.727	2298.62
1454.418	2322.62
1459.104	2306.62
1463.785	2277.62
1468.462	2251.62
1473.134	2212.62
1477.802	2162.62
1482.465	2132.62
1487.123	2113.62
1491.777	2098.62
1496.426	2103.62
1501.071	2114.62
1505.711	2106.62
1510.347	2123.62
1514.978	2139.62
1519.604	2141.62
1524.226	2129.62
1528.844	2135.62
1533.457	2124.62
1538.065	2081.62
1542.669	2060.62
1547.269	2053.62
1551.864	2044.62
1556.454	2029.62
1561.041	2032.62
1565.622	2027.62
1570.199	2023.62
1574.772	2043.62
1579.34	2085.62
1583.904	2094.62
1588.464	2104.62
1593.019	2111.62
1597.569	2088.62
1602.115	2084.62
1606.657	2082.62
1611.195	2091.62
1615.728	2092.62
1620.256	2057.62
1624.78	2019.62
1629.3	2061.62
1633.816	2069.62
1638.327	2083.62
1642.834	2100.62
1647.336	2097.62
1651.834	2124.62
1656.328	2120.62
1660.817	2116.62
1665.302	2098.62
1669.783	2087.62
1674.259	2042.62
1678.732	2006.62
1683.199	1940.62
1687.663	1903.62
1692.122	1854.62
1696.577	1816.62
1701.028	1806.62
1705.474	1758.62
1709.917	1742.62
1714.355	1710.62
1718.788	1709.62
1723.218	1664.62
1727.643	1654.62
1732.064	1632.62
1736.481	1591.62
1740.893	1581.62
1745.301	1545.62
1749.705	1516.62
1754.105	1479.62
1758.501	1448.62
1762.893	1434.62
1767.28	1387.62
1771.663	1381.62
1776.042	1363.62
1780.417	1364.62
1784.787	1390.62
1789.154	1391.62
1793.516	1404.62
1797.874	1370.62
1802.228	1372.62
1806.578	1354.62
1810.924	1370.62
1815.266	1249.62
1819.603	1325.62
1823.937	1292.62
1828.266	1294.62
1832.591	1289.62
1836.913	1253.62
1841.23	1263.62
1845.543	1256.62
1849.852	1265.62
1854.156	1232.62
1858.457	1271.62
1862.754	1254.62
1867.047	1253.62
1871.335	1263.62
1875.62	1284.62
1879.9	1278.62
1884.177	1266.62
1888.449	1270.62
1892.718	1255.62
1896.982	1266.62
1901.243	1234.62
1905.499	1244.62
1909.752	1214.62
1914	1199.62
1918.245	1226.62
1922.485	1252.62
1926.722	1239.62
1930.954	1244.62
1935.183	1272.62
1939.408	1249.62
1943.628	1245.62
1947.845	1241.62
1952.058	1217.62
1956.267	1190.62
1960.472	1189.62
1964.673	1165.62
1968.87	1143.62
1973.063	1131.62
1977.252	1113.62
1981.438	1095.62
1985.619	1077.62
1989.797	1070.62
1993.971	1064.62
1998.14	1070.62
2002.306	1073.62
2006.469	1064.62
2010.627	1063.62
2014.781	1047.62
2018.932	1032.62
2023.078	1039.62
2027.221	1030.62
2031.36	1001.62
2035.495	991.62
2039.627	988.62
2043.754	1009.62
2047.878	976.62
2051.998	967.62
2056.114	974.62
2060.226	976.62
2064.334	996.62
2068.439	1002.62
2072.54	1009.62
2076.637	992.62
2080.73	994.62
2084.82	980.62
2088.906	998.62
2092.988	992.62
2097.066	998.62
2101.14	980.62
2105.211	978.62
2109.278	956.62
2113.342	942.62
2117.401	925.62
2121.457	914.62
2125.509	903.62
2129.558	915.62
2133.602	900.62
2137.643	895.62
2141.681	888.62
2145.714	880.62
2149.744	871.62
2153.77	867.62
2157.793	843.62
2161.812	819.62
2165.827	805.62
2169.838	829.62
2173.846	799.62
2177.851	776.62
2181.851	793.62
2185.848	776.62
2189.841	767.62
2193.831	771.62
2197.817	759.62
2201.799	755.62
2205.778	731.62
2209.753	731.62
2213.725	728.62
2217.693	722.62
2221.657	716.62
2225.618	728.62
2229.575	735.62
2233.529	716.62
2237.479	713.62
2241.425	699.62
2245.368	673.62
2249.307	679.62
2253.243	659.62
2257.175	652.62
2261.104	638.62
2265.029	641.62
2268.95	628.62
2272.868	619.62
2276.783	615.62
2280.694	612.62
2284.601	600.62
2288.505	607.62
2292.405	597.62
2296.302	568.62
2300.195	578.62
2304.085	539.62
2307.971	565.62
2311.854	529.62
2315.734	534.62
2319.609	532.62
2323.482	514.62
2327.351	521.62
2331.216	520.62
2335.078	519.62
2338.937	503.62
2342.792	506.62
2346.643	507.62
2350.492	512.62
2354.336	499.62
2358.178	508.62
2362.015	502.62
2365.85	507.62
2369.681	503.62
2373.508	516.62
2377.333	514.62
2381.153	507.62
2384.971	501.62
2388.785	500.62
2392.595	489.62
2396.402	481.62
2400.206	461.62
2404.007	480.62
2407.804	476.62
2411.597	479.62
2415.388	472.62
2419.174	467.62
2422.958	459.62
2426.738	471.62
2430.515	467.62
2434.289	463.62
2438.059	455.62
2441.825	462.62
2445.589	455.62
2449.349	438.62
2453.106	446.62
2456.859	442.62
2460.61	443.62
2464.356	419.62
2468.1	423.62
2471.84	419.62
2475.577	421.62
2479.311	416.62
2483.041	416.62
2486.768	431.62
2490.492	427.62
2494.213	417.62
2497.93	404.62
2501.644	400.62
2505.355	398.62
2509.062	407.62
2512.766	413.62
2516.467	389.62
2520.165	399.62
2523.859	389.62
2527.551	416.62
2531.239	379.62
2534.923	397.62
2538.605	392.62
2542.283	387.62
2545.958	386.62
2549.63	387.62
2553.299	391.62
2556.964	371.62
2560.626	380.62
2564.285	379.62
2567.941	364.62
2571.594	365.62
2575.243	378.62
2578.89	357.62
2582.533	369.62
2586.173	365.62
2589.809	363.62
2593.443	325.62
2597.073	345.62
2600.701	342.62
2604.325	350.62
2607.946	334.62
2611.564	347.62
2615.178	340.62
2618.79	339.62
2622.398	318.62
2626.004	338.62
2629.606	331.62
2633.205	311.62
2636.801	327.62
2640.394	320.62
2643.983	314.62
2647.57	310.62
2651.153	290.62
2654.734	308.62
2658.311	279.62
2661.885	286.62
2665.456	293.62
2669.025	289.62
2672.589	281.62
2676.151	297.62
2679.71	292.62
2683.266	282.62
2686.819	273.62
2690.368	272.62
2693.915	276.62
2697.458	271.62
2700.999	277.62
2704.536	276.62
2708.071	267.62
2711.602	263.62
2715.13	260.62
2718.656	240.62
2722.178	260.62
2725.697	237.62
2729.214	246.62
2732.727	256.62
2736.237	242.62
2739.744	253.62
2743.249	244.62
2746.75	251.62
2750.248	246.62
2753.743	249.62
2757.236	249.62
2760.725	252.62
2764.211	207.62
2767.695	254.62
2771.175	237.62
2774.652	242.62
2778.127	234.62
2781.598	244.62
2785.067	234.62
2788.532	229.62
2791.995	236.62
2795.455	241.62
2798.911	243.62
2802.365	238.62
2805.816	238.62
2809.264	246.62
2812.709	239.62
2816.151	251.62
2819.59	229.62
2823.026	235.62
2826.46	242.62
2829.89	250.62
2833.318	232.62
2836.742	234.62
2840.164	243.62
2843.583	253.62
2846.999	247.62
2850.412	252.62
2853.822	238.62
2857.229	258.62
2860.634	265.62
2864.035	244.62
2867.434	274.62
2870.83	275.62
2874.223	265.62
2877.613	268.62
2881	272.62
2884.385	282.62
2887.766	285.62
2891.145	284.62
2894.521	283.62
2897.894	271.62
2901.264	282.62
2904.631	278.62
2907.996	285.62
2911.358	289.62
2914.717	284.62
2918.073	278.62
2921.426	286.62
2924.777	278.62
2928.124	297.62
2931.469	312.62
2934.811	296.62
2938.15	329.62
2941.487	318.62
2944.821	343.62
2948.152	317.62
2951.48	334.62
2954.805	306.62
2958.128	329.62
2961.447	314.62
2964.765	321.62
2968.079	310.62
2971.39	323.62
2974.699	321.62
2978.005	327.62
2981.308	330.62
2984.609	329.62
2987.907	347.62
2991.202	345.62
2994.494	333.62
2997.784	337.62
3001.07	354.62
3004.355	343.62
3007.636	346.62
3010.915	343.62
3014.191	346.62
3017.464	344.62
3020.734	353.62
3024.002	354.62
3027.267	355.62
3030.53	369.62
3033.789	359.62
3037.046	364.62
3040.301	365.62
3043.552	385.62
3046.801	381.62
3050.048	402.62
3053.291	414.62
3056.532	408.62
3059.771	395.62
3063.006	432.62
3066.239	438.62
3069.469	457.62
3072.697	442.62
3075.922	464.62
3079.144	482.62
3082.364	512.62
3085.581	496.62
3088.795	526.62
3092.007	520.62
3095.216	532.62
3098.423	542.62
3101.627	516.62
3104.828	569.62
3108.026	565.62
3111.222	591.62
3114.416	597.62
3117.607	615.62
3120.795	619.62
3123.98	626.62
3127.163	625.62
3130.344	655.62
3133.521	655.62
3136.696	681.62
3139.869	699.62
3143.039	678.62
3146.206	732.62
3149.371	741.62
3152.533	730.62
3155.693	708.62
3158.85	755.62
3162.005	747.62
3165.157	745.62
3168.306	756.62
3171.453	747.62
3174.597	743.62
3177.739	738.62
3180.878	758.62
3184.014	756.62
3187.149	762.62
3190.28	751.62
3193.409	761.62
3196.536	781.62
3199.659	773.62
3202.781	775.62
3205.9	770.62
3209.016	763.62
3212.13	764.62
3215.241	770.62
3218.35	768.62
3221.456	746.62
3224.56	741.62
3227.661	740.62
3230.76	740.62
3233.856	722.62
3236.95	732.62
3240.041	719.62
3243.13	723.62
3246.216	709.62
3249.3	718.62
3252.382	718.62
3255.46	702.62
3258.537	665.62
3261.611	695.62
3264.682	701.62
3267.751	702.62
3270.818	688.62
3273.882	687.62
3276.943	677.62
3280.002	698.62
3283.059	662.62
3286.113	672.62
3289.165	655.62
3292.214	647.62
3295.261	657.62
3298.306	610.62
3301.348	625.62
3304.387	604.62
3307.425	619.62
3310.459	604.62
3313.492	591.62
3316.521	584.62
3319.549	594.62
3322.574	591.62
3325.597	580.62
3328.617	581.62
3331.635	578.62
3334.65	551.62
3337.663	561.62
3340.674	548.62
3343.682	557.62
3346.688	573.62
3349.691	558.62
3352.692	554.62
3355.691	554.62
3358.687	547.62
3361.681	551.62
3364.673	534.62
3367.662	551.62
3370.649	539.62
3373.633	519.62
3376.615	530.62
3379.595	499.62
3382.572	507.62
3385.547	488.62
3388.52	488.62
3391.49	488.62
3394.458	485.62
3397.424	487.62
3400.387	457.62
3403.348	469.62
3406.307	460.62
3409.263	457.62
3412.217	461.62
3415.168	457.62
3418.118	455.62
3421.065	438.62
3424.009	453.62
3426.951	430.62
3429.891	428.62
3432.829	412.62
3435.764	419.62
3438.697	402.62
3441.628	407.62
3444.557	382.62
3447.483	368.62
3450.407	386.62
3453.328	354.62
3456.247	355.62
3459.164	347.62
3462.079	343.62
3464.991	333.62
3467.902	321.62
3470.809	309.62
3473.715	310.62
3476.618	289.62
3479.519	288.62
3482.418	262.62
3485.315	263.62
3488.209	268.62
3491.101	263.62
3493.99	244.62
3496.878	242.62
3499.763	246.62
3502.646	235.62
3505.527	224.62
3508.405	209.62
3511.281	206.62
3514.155	199.62
3517.027	204.62
3519.897	186.62
3522.764	191.62
3525.629	159.62
3528.492	169.62
3531.352	166.62
3534.211	152.62
3537.067	150.62
3539.921	138.62
3542.773	151.62
3545.622	125.62
3548.469	112.62
3551.315	111.62
3554.157	115.62
3556.998	105.62
3559.837	108.62
3562.673	109.62
3565.507	93.62
3568.339	89.62
3571.169	92.62
3573.996	80.62
3576.822	63.62
3579.645	73.62
3582.466	78.62
3585.285	76.62
3588.101	67.62
3590.916	64.62
3593.728	69.62
3596.538	63.62
3599.346	58.62
3602.152	47.62
3604.956	51.62
3607.757	53.62
3610.556	32.62
3613.354	46.62
3616.149	41.62
3618.942	43.62
3621.732	45.62
3624.521	29.62
3627.307	23.62
3630.092	23.62
3632.874	38.62
3635.654	25.62
3638.432	19.62
3641.208	16.62
3643.982	21.62
3646.753	24.62
3649.523	-4.38
3652.29	14.62
3655.055	21.62
3657.818	11.62
3660.579	9.62
3663.338	2.62
3666.095	-0.38
3668.849	-19.38
3671.602	12.62
3674.352	-9.38
3677.101	8.62
3679.847	10.62
3682.591	-7.38
3685.333	-13.38
3688.073	-2.38
3690.811	-13.38
3693.547	-16.38
3696.281	-25.38
3699.013	-4.38
3701.742	-15.38
3704.47	-19.38
3707.195	-7.38
3709.919	-6.38
3712.64	-12.38
3715.359	-22.38
3718.076	-2.38
3720.792	-19.38
3723.505	-11.38
3726.216	-7.38
3728.925	-16.38
3731.632	-23.38
3734.336	-14.38
3737.039	-18.38
3739.74	-18.38
3742.439	-45.38
3745.136	-12.38
3747.83	-19.38
3750.523	-19.38
3753.213	-77.38
3755.902	-25.38
3758.589	-35.38
3761.273	-24.38
3763.956	-13.38
3766.636	-37.38
3769.315	-15.38
3771.991	-27.38
3774.665	-24.38
3777.338	-25.38
3780.008	-32.38
3782.677	-22.38
3785.343	-43.38
3788.007	-46.38
3790.67	-26.38
3793.33	-37.38
3795.989	-30.38
3798.645	-22.38
3801.299	-37.38
3803.952	-35.38
3806.602	-30.38
3809.251	-20.38
3811.897	-28.38
3814.542	-29.38
3817.184	-34.38
3819.825	-28.38
3822.463	-39.38
3825.1	-32.38
3827.735	-24.38
3830.367	-31.38
3832.998	-19.38
3835.627	-31.38
3838.253	-18.38
3840.878	-29.38
3843.501	-14.38
3846.122	-24.38
3848.741	-22.38
3851.358	-20.38
3853.973	-39.38
3856.586	-19.38
3859.197	-35.38
3861.806	-24.38
3864.414	-37.38
3867.019	-25.38
3869.622	-19.38
3872.224	-12.38
3874.823	3.62
3877.421	32.62
3880.016	56.62
3882.61	97.62
3885.202	112.62
3887.792	85.62
3890.38	42.62
3892.966	2.62
3895.55	-25.38
3898.132	-16.38
3900.713	-22.38
3903.291	-26.38
3905.868	-34.38
3908.442	-28.38
3911.015	-25.38
3913.586	-35.38
3916.155	-34.38
3918.722	-32.38
3921.287	-36.38
3923.85	-37.38
3926.411	-34.38
3928.971	-35.38
3931.528	-30.38
3934.084	-35.38
3936.638	-41.38
3939.19	-26.38
3941.74	-30.38
3944.288	-34.38
3946.834	-33.38
3949.378	-25.38
3951.921	-33.38
3954.462	-30.38
3957	-26.38
3959.537	-19.38
3962.072	-30.38
3964.606	-46.38
3967.137	-34.38
3969.667	-34.38
3972.194	-25.38
3974.72	-28.38
3977.244	-56.38
3979.766	-35.38
3982.286	-38.38
3984.805	-25.38
3987.321	-21.38
3989.836	-22.38
3992.349	-36.38
3994.86	-31.38
3997.369	-31.38
3999.877	-30.38
4002.382	-27.38
4004.886	-25.38
4007.388	-26.38
4009.888	-17.38
4012.386	-18.38
4014.883	-20.38
4017.377	-30.38
4019.87	-30.38
4022.361	-36.38
4024.85	-29.38
4027.338	-31.38
4029.823	-31.38
4032.307	-31.38
4034.789	-29.38
4037.269	-27.38
4039.747	-41.38
4042.224	-17.38
4044.699	-35.38
4047.172	-28.38
4049.643	-22.38
4052.112	-49.38
4054.58	-24.38
4057.046	-42.38
4059.51	-30.38
4061.972	-30.38
4064.432	-47.38
4066.891	-16.38
4069.348	-29.38
4071.803	-26.38
4074.256	-34.38
4076.708	-21.38
4079.158	-26.38
4081.606	-12.38
4084.052	-29.38
4086.497	-25.38
4088.939	-29.38
4091.38	-28.38
4093.819	-25.38
4096.257	0.62
4098.693	-6.38
4101.127	-4.38
4103.559	-1.38
4105.989	136.62
4108.418	132.62
4110.845	121.62
4113.27	133.62
4115.694	147.62
4118.115	142.62
4120.535	-23.38
4122.954	-23.38
4125.37	-16.38
4127.785	-22.38
4130.198	-16.38
4132.609	-25.38
4135.019	8.62
4137.427	-0.38
4139.833	5.62
4142.237	-2.38
