Data from 2018-3-6_conc=4_n=2_RamanShift_03.txt Node
Date: Tue Mar 06 13:54:19 GMT+02:00 2018
User: LAB3
Spectrometer: QEPB0276
Trigger mode: 0
Integration Time (sec): 3.000000E1
Scans to average: 1
Electric dark correction enabled: true
Nonlinearity correction enabled: false
Boxcar width: 0
XAxis mode: Raman Shifts
Number of Pixels in Spectrum: 1044
>>>>>Begin Spectral Data<<<<<
160.701	106.88
166.742	138.88
172.777	213.88
178.805	412.88
184.826	926.88
190.841	1851.88
196.849	2918.88
202.85	3729.88
208.845	4028.88
214.833	4045.88
220.815	3958.88
226.789	3981.88
232.758	3991.88
238.719	4004.88
244.674	3977.88
250.623	3962.88
256.565	3913.88
262.5	3865.88
268.429	3872.88
274.351	3850.88
280.267	3843.88
286.176	3856.88
292.079	3877.88
297.975	3860.88
303.865	3889.88
309.748	3856.88
315.625	3850.88
321.495	3885.88
327.359	3887.88
333.217	3890.88
339.068	3925.88
344.912	3935.88
350.751	3940.88
356.583	3959.88
362.408	3982.88
368.227	3981.88
374.04	4020.88
379.847	4034.88
385.647	4061.88
391.44	4057.88
397.228	4056.88
403.009	4131.88
408.784	4119.88
414.553	4144.88
420.315	4157.88
426.071	4167.88
431.821	4159.88
437.565	4164.88
443.302	4138.88
449.033	4112.88
454.758	4119.88
460.477	4080.88
466.189	4060.88
471.896	3993.88
477.596	3972.88
483.29	3931.88
488.978	3918.88
494.66	3891.88
500.335	3808.88
506.005	3631.88
511.668	3464.88
517.325	3279.88
522.977	3138.88
528.622	3051.88
534.261	2967.88
539.894	2910.88
545.521	2869.88
551.141	2829.88
556.756	2801.88
562.365	2787.88
567.968	2751.88
573.565	2704.88
579.155	2726.88
584.74	2698.88
590.319	2702.88
595.892	2713.88
601.459	2710.88
607.02	2674.88
612.575	2661.88
618.124	2640.88
623.667	2583.88
629.204	2564.88
634.735	2508.88
640.261	2483.88
645.781	2445.88
651.294	2446.88
656.802	2464.88
662.304	2459.88
667.8	2465.88
673.29	2419.88
678.775	2426.88
684.254	2387.88
689.726	2399.88
695.193	2396.88
700.655	2384.88
706.11	2366.88
711.56	2356.88
717.004	2342.88
722.442	2319.88
727.874	2317.88
733.301	2315.88
738.722	2282.88
744.137	2301.88
749.547	2290.88
754.951	2304.88
760.349	2296.88
765.741	2314.88
771.128	2343.88
776.509	2345.88
781.885	2400.88
787.254	2430.88
792.618	2414.88
797.977	2416.88
803.33	2402.88
808.677	2386.88
814.019	2357.88
819.355	2331.88
824.686	2322.88
830.011	2305.88
835.33	2313.88
840.644	2287.88
845.952	2242.88
851.255	2262.88
856.552	2255.88
861.844	2203.88
867.13	2166.88
872.41	2152.88
877.686	2146.88
882.955	2129.88
888.219	2092.88
893.478	2058.88
898.731	2055.88
903.979	2030.88
909.221	2019.88
914.458	2006.88
919.69	1973.88
924.916	2001.88
930.136	2000.88
935.351	1980.88
940.561	2013.88
945.766	1995.88
950.965	1993.88
956.158	1952.88
961.347	1940.88
966.529	1925.88
971.707	1878.88
976.879	1874.88
982.046	1884.88
987.208	1844.88
992.364	1838.88
997.515	1834.88
1002.66	1864.88
1007.801	1881.88
1012.936	1894.88
1018.066	1881.88
1023.19	1897.88
1028.309	1914.88
1033.423	1919.88
1038.532	1933.88
1043.636	1911.88
1048.734	1892.88
1053.827	1871.88
1058.915	1847.88
1063.998	1846.88
1069.075	1829.88
1074.147	1850.88
1079.214	1824.88
1084.276	1841.88
1089.333	1866.88
1094.385	1872.88
1099.431	1829.88
1104.472	1841.88
1109.509	1814.88
1114.54	1790.88
1119.565	1767.88
1124.586	1734.88
1129.602	1703.88
1134.613	1685.88
1139.618	1698.88
1144.619	1692.88
1149.614	1707.88
1154.604	1699.88
1159.589	1696.88
1164.57	1722.88
1169.545	1730.88
1174.515	1727.88
1179.48	1712.88
1184.44	1702.88
1189.395	1691.88
1194.345	1671.88
1199.29	1660.88
1204.23	1669.88
1209.165	1655.88
1214.095	1674.88
1219.021	1669.88
1223.941	1680.88
1228.856	1683.88
1233.766	1693.88
1238.672	1684.88
1243.572	1688.88
1248.467	1687.88
1253.358	1637.88
1258.244	1612.88
1263.124	1625.88
1268	1583.88
1272.871	1534.88
1277.737	1538.88
1282.599	1526.88
1287.455	1523.88
1292.306	1539.88
1297.153	1532.88
1301.995	1538.88
1306.832	1537.88
1311.664	1549.88
1316.491	1527.88
1321.314	1522.88
1326.132	1529.88
1330.945	1521.88
1335.753	1472.88
1340.556	1461.88
1345.354	1450.88
1350.148	1428.88
1354.937	1417.88
1359.722	1374.88
1364.501	1357.88
1369.276	1384.88
1374.046	1373.88
1378.811	1361.88
1383.572	1358.88
1388.327	1375.88
1393.079	1355.88
1397.825	1326.88
1402.567	1325.88
1407.304	1320.88
1412.036	1305.88
1416.764	1316.88
1421.487	1287.88
1426.205	1303.88
1430.919	1296.88
1435.628	1314.88
1440.333	1328.88
1445.032	1323.88
1449.727	1343.88
1454.418	1351.88
1459.104	1334.88
1463.785	1312.88
1468.462	1316.88
1473.134	1293.88
1477.802	1257.88
1482.465	1211.88
1487.123	1239.88
1491.777	1193.88
1496.426	1189.88
1501.071	1230.88
1505.711	1216.88
1510.347	1222.88
1514.978	1238.88
1519.604	1228.88
1524.226	1232.88
1528.844	1215.88
1533.457	1245.88
1538.065	1220.88
1542.669	1196.88
1547.269	1196.88
1551.864	1202.88
1556.454	1174.88
1561.041	1177.88
1565.622	1183.88
1570.199	1190.88
1574.772	1205.88
1579.34	1237.88
1583.904	1221.88
1588.464	1235.88
1593.019	1253.88
1597.569	1226.88
1602.115	1225.88
1606.657	1214.88
1611.195	1231.88
1615.728	1225.88
1620.256	1195.88
1624.78	1173.88
1629.3	1215.88
1633.816	1213.88
1638.327	1207.88
1642.834	1219.88
1647.336	1225.88
1651.834	1255.88
1656.328	1235.88
1660.817	1235.88
1665.302	1199.88
1669.783	1183.88
1674.259	1163.88
1678.732	1146.88
1683.199	1118.88
1687.663	1083.88
1692.122	1085.88
1696.577	1053.88
1701.028	1039.88
1705.474	1009.88
1709.917	998.88
1714.355	971.88
1718.788	956.88
1723.218	950.88
1727.643	943.88
1732.064	935.88
1736.481	908.88
1740.893	901.88
1745.301	894.88
1749.705	860.88
1754.105	866.88
1758.501	832.88
1762.893	833.88
1767.28	797.88
1771.663	800.88
1776.042	786.88
1780.417	785.88
1784.787	802.88
1789.154	790.88
1793.516	797.88
1797.874	796.88
1802.228	772.88
1806.578	765.88
1810.924	782.88
1815.266	656.88
1819.603	757.88
1823.937	746.88
1828.266	743.88
1832.591	739.88
1836.913	735.88
1841.23	714.88
1845.543	717.88
1849.852	731.88
1854.156	721.88
1858.457	715.88
1862.754	712.88
1867.047	720.88
1871.335	737.88
1875.62	735.88
1879.9	720.88
1884.177	710.88
1888.449	722.88
1892.718	726.88
1896.982	724.88
1901.243	694.88
1905.499	700.88
1909.752	692.88
1914	668.88
1918.245	704.88
1922.485	700.88
1926.722	703.88
1930.954	690.88
1935.183	708.88
1939.408	706.88
1943.628	700.88
1947.845	694.88
1952.058	688.88
1956.267	670.88
1960.472	686.88
1964.673	665.88
1968.87	657.88
1973.063	641.88
1977.252	634.88
1981.438	624.88
1985.619	619.88
1989.797	602.88
1993.971	611.88
1998.14	619.88
2002.306	605.88
2006.469	617.88
2010.627	599.88
2014.781	593.88
2018.932	592.88
2023.078	613.88
2027.221	597.88
2031.36	576.88
2035.495	573.88
2039.627	570.88
2043.754	580.88
2047.878	555.88
2051.998	561.88
2056.114	548.88
2060.226	553.88
2064.334	570.88
2068.439	576.88
2072.54	566.88
2076.637	542.88
2080.73	565.88
2084.82	555.88
2088.906	554.88
2092.988	570.88
2097.066	562.88
2101.14	564.88
2105.211	543.88
2109.278	541.88
2113.342	531.88
2117.401	525.88
2121.457	505.88
2125.509	507.88
2129.558	517.88
2133.602	508.88
2137.643	508.88
2141.681	501.88
2145.714	501.88
2149.744	496.88
2153.77	493.88
2157.793	482.88
2161.812	451.88
2165.827	448.88
2169.838	473.88
2173.846	462.88
2177.851	447.88
2181.851	456.88
2185.848	447.88
2189.841	436.88
2193.831	438.88
2197.817	437.88
2201.799	425.88
2205.778	410.88
2209.753	414.88
2213.725	422.88
2217.693	419.88
2221.657	415.88
2225.618	415.88
2229.575	415.88
2233.529	414.88
2237.479	406.88
2241.425	393.88
2245.368	375.88
2249.307	399.88
2253.243	371.88
2257.175	384.88
2261.104	370.88
2265.029	362.88
2268.95	365.88
2272.868	352.88
2276.783	349.88
2280.694	349.88
2284.601	349.88
2288.505	342.88
2292.405	344.88
2296.302	315.88
2300.195	328.88
2304.085	299.88
2307.971	322.88
2311.854	295.88
2315.734	307.88
2319.609	309.88
2323.482	285.88
2327.351	293.88
2331.216	294.88
2335.078	302.88
2338.937	296.88
2342.792	286.88
2346.643	284.88
2350.492	300.88
2354.336	288.88
2358.178	292.88
2362.015	290.88
2365.85	283.88
2369.681	284.88
2373.508	291.88
2377.333	296.88
2381.153	292.88
2384.971	282.88
2388.785	280.88
2392.595	268.88
2396.402	273.88
2400.206	250.88
2404.007	260.88
2407.804	263.88
2411.597	268.88
2415.388	262.88
2419.174	262.88
2422.958	267.88
2426.738	265.88
2430.515	272.88
2434.289	263.88
2438.059	253.88
2441.825	258.88
2445.589	253.88
2449.349	238.88
2453.106	246.88
2456.859	237.88
2460.61	250.88
2464.356	230.88
2468.1	229.88
2471.84	225.88
2475.577	225.88
2479.311	227.88
2483.041	226.88
2486.768	239.88
2490.492	242.88
2494.213	220.88
2497.93	219.88
2501.644	213.88
2505.355	228.88
2509.062	229.88
2512.766	219.88
2516.467	218.88
2520.165	215.88
2523.859	207.88
2527.551	237.88
2531.239	206.88
2534.923	214.88
2538.605	204.88
2542.283	223.88
2545.958	210.88
2549.63	224.88
2553.299	223.88
2556.964	205.88
2560.626	205.88
2564.285	209.88
2567.941	187.88
2571.594	190.88
2575.243	206.88
2578.89	191.88
2582.533	206.88
2586.173	201.88
2589.809	191.88
2593.443	167.88
2597.073	185.88
2600.701	190.88
2604.325	189.88
2607.946	176.88
2611.564	195.88
2615.178	194.88
2618.79	191.88
2622.398	178.88
2626.004	181.88
2629.606	178.88
2633.205	165.88
2636.801	174.88
2640.394	178.88
2643.983	169.88
2647.57	163.88
2651.153	163.88
2654.734	174.88
2658.311	148.88
2661.885	152.88
2665.456	152.88
2669.025	154.88
2672.589	148.88
2676.151	163.88
2679.71	165.88
2683.266	157.88
2686.819	153.88
2690.368	156.88
2693.915	156.88
2697.458	154.88
2700.999	155.88
2704.536	151.88
2708.071	142.88
2711.602	137.88
2715.13	137.88
2718.656	124.88
2722.178	140.88
2725.697	125.88
2729.214	124.88
2732.727	132.88
2736.237	118.88
2739.744	128.88
2743.249	128.88
2746.75	127.88
2750.248	132.88
2753.743	135.88
2757.236	129.88
2760.725	132.88
2764.211	107.88
2767.695	132.88
2771.175	129.88
2774.652	136.88
2778.127	129.88
2781.598	120.88
2785.067	123.88
2788.532	116.88
2791.995	130.88
2795.455	114.88
2798.911	135.88
2802.365	121.88
2805.816	132.88
2809.264	140.88
2812.709	120.88
2816.151	129.88
2819.59	120.88
2823.026	118.88
2826.46	122.88
2829.89	133.88
2833.318	105.88
2836.742	117.88
2840.164	124.88
2843.583	124.88
2846.999	123.88
2850.412	133.88
2853.822	126.88
2857.229	144.88
2860.634	133.88
2864.035	115.88
2867.434	138.88
2870.83	140.88
2874.223	136.88
2877.613	133.88
2881	133.88
2884.385	129.88
2887.766	138.88
2891.145	138.88
2894.521	140.88
2897.894	129.88
2901.264	148.88
2904.631	148.88
2907.996	146.88
2911.358	154.88
2914.717	149.88
2918.073	142.88
2921.426	141.88
2924.777	135.88
2928.124	144.88
2931.469	159.88
2934.811	146.88
2938.15	173.88
2941.487	160.88
2944.821	171.88
2948.152	166.88
2951.48	162.88
2954.805	156.88
2958.128	173.88
2961.447	153.88
2964.765	176.88
2968.079	158.88
2971.39	178.88
2974.699	169.88
2978.005	165.88
2981.308	169.88
2984.609	162.88
2987.907	180.88
2991.202	183.88
2994.494	167.88
2997.784	176.88
3001.07	182.88
3004.355	180.88
3007.636	177.88
3010.915	187.88
3014.191	181.88
3017.464	185.88
3020.734	179.88
3024.002	191.88
3027.267	195.88
3030.53	188.88
3033.789	188.88
3037.046	195.88
3040.301	187.88
3043.552	196.88
3046.801	206.88
3050.048	219.88
3053.291	238.88
3056.532	229.88
3059.771	211.88
3063.006	239.88
3066.239	237.88
3069.469	245.88
3072.697	248.88
3075.922	249.88
3079.144	250.88
3082.364	282.88
3085.581	269.88
3088.795	288.88
3092.007	282.88
3095.216	298.88
3098.423	295.88
3101.627	278.88
3104.828	302.88
3108.026	297.88
3111.222	324.88
3114.416	338.88
3117.607	326.88
3120.795	340.88
3123.98	347.88
3127.163	343.88
3130.344	350.88
3133.521	356.88
3136.696	388.88
3139.869	378.88
3143.039	375.88
3146.206	401.88
3149.371	400.88
3152.533	397.88
3155.693	388.88
3158.85	401.88
3162.005	410.88
3165.157	397.88
3168.306	400.88
3171.453	418.88
3174.597	396.88
3177.739	394.88
3180.878	418.88
3184.014	418.88
3187.149	420.88
3190.28	417.88
3193.409	423.88
3196.536	417.88
3199.659	427.88
3202.781	422.88
3205.9	409.88
3209.016	424.88
3212.13	421.88
3215.241	419.88
3218.35	410.88
3221.456	410.88
3224.56	397.88
3227.661	408.88
3230.76	395.88
3233.856	400.88
3236.95	397.88
3240.041	382.88
3243.13	395.88
3246.216	395.88
3249.3	393.88
3252.382	389.88
3255.46	382.88
3258.537	328.88
3261.611	369.88
3264.682	375.88
3267.751	374.88
3270.818	363.88
3273.882	375.88
3276.943	368.88
3280.002	382.88
3283.059	358.88
3286.113	364.88
3289.165	357.88
3292.214	345.88
3295.261	362.88
3298.306	331.88
3301.348	347.88
3304.387	329.88
3307.425	342.88
3310.459	326.88
3313.492	332.88
3316.521	317.88
3319.549	327.88
3322.574	316.88
3325.597	315.88
3328.617	323.88
3331.635	311.88
3334.65	295.88
3337.663	307.88
3340.674	308.88
3343.682	310.88
3346.688	322.88
3349.691	297.88
3352.692	306.88
3355.691	305.88
3358.687	306.88
3361.681	302.88
3364.673	298.88
3367.662	299.88
3370.649	299.88
3373.633	274.88
3376.615	286.88
3379.595	263.88
3382.572	272.88
3385.547	260.88
3388.52	261.88
3391.49	260.88
3394.458	265.88
3397.424	264.88
3400.387	254.88
3403.348	254.88
3406.307	255.88
3409.263	240.88
3412.217	254.88
3415.168	251.88
3418.118	253.88
3421.065	242.88
3424.009	243.88
3426.951	235.88
3429.891	228.88
3432.829	231.88
3435.764	229.88
3438.697	211.88
3441.628	222.88
3444.557	197.88
3447.483	196.88
3450.407	208.88
3453.328	190.88
3456.247	184.88
3459.164	170.88
3462.079	189.88
3464.991	178.88
3467.902	168.88
3470.809	173.88
3473.715	171.88
3476.618	150.88
3479.519	152.88
3482.418	134.88
3485.315	136.88
3488.209	135.88
3491.101	138.88
3493.99	121.88
3496.878	119.88
3499.763	116.88
3502.646	125.88
3505.527	111.88
3508.405	108.88
3511.281	97.88
3514.155	99.88
3517.027	96.88
3519.897	83.88
3522.764	88.88
3525.629	71.88
3528.492	80.88
3531.352	77.88
3534.211	79.88
3537.067	69.88
3539.921	65.88
3542.773	69.88
3545.622	56.88
3548.469	51.88
3551.315	46.88
3554.157	53.88
3556.998	41.88
3559.837	43.88
3562.673	50.88
3565.507	33.88
3568.339	33.88
3571.169	39.88
3573.996	32.88
3576.822	19.88
3579.645	23.88
3582.466	26.88
3585.285	32.88
3588.101	27.88
3590.916	19.88
3593.728	24.88
3596.538	20.88
3599.346	21.88
3602.152	13.88
3604.956	10.88
3607.757	19.88
3610.556	3.88
3613.354	10.88
3616.149	15.88
3618.942	11.88
3621.732	13.88
3624.521	2.88
3627.307	-3.12
3630.092	-1.12
3632.874	15.88
3635.654	0.88
3638.432	-1.12
3641.208	-5.12
3643.982	-3.12
3646.753	9.88
3649.523	-30.12
3652.29	-6.12
3655.055	-4.12
3657.818	-6.12
3660.579	-12.12
3663.338	-15.12
3666.095	-15.12
3668.849	-35.12
3671.602	-4.12
3674.352	-21.12
3677.101	-6.12
3679.847	-8.12
3682.591	-21.12
3685.333	-29.12
3688.073	-20.12
3690.811	-25.12
3693.547	-28.12
3696.281	-34.12
3699.013	-21.12
3701.742	-21.12
3704.47	-31.12
3707.195	-21.12
3709.919	-18.12
3712.64	-21.12
3715.359	-34.12
3718.076	-11.12
3720.792	-24.12
3723.505	-26.12
3726.216	-11.12
3728.925	-26.12
3731.632	-33.12
3734.336	-25.12
3737.039	-18.12
3739.74	-26.12
3742.439	-45.12
3745.136	-16.12
3747.83	-20.12
3750.523	-20.12
3753.213	-80.12
3755.902	-28.12
3758.589	-40.12
3761.273	-30.12
3763.956	-19.12
3766.636	-40.12
3769.315	-20.12
3771.991	-31.12
3774.665	-30.12
3777.338	-20.12
3780.008	-40.12
3782.677	-28.12
3785.343	-45.12
3788.007	-43.12
3790.67	-21.12
3793.33	-41.12
3795.989	-34.12
3798.645	-24.12
3801.299	-44.12
3803.952	-36.12
3806.602	-30.12
3809.251	-22.12
3811.897	-31.12
3814.542	-32.12
3817.184	-37.12
3819.825	-29.12
3822.463	-45.12
3825.1	-35.12
3827.735	-30.12
3830.367	-38.12
3832.998	-18.12
3835.627	-34.12
3838.253	-24.12
3840.878	-36.12
3843.501	-9.12
3846.122	-26.12
3848.741	-24.12
3851.358	-23.12
3853.973	-38.12
3856.586	-26.12
3859.197	-35.12
3861.806	-29.12
3864.414	-42.12
3867.019	-25.12
3869.622	-19.12
3872.224	-17.12
3874.823	-3.12
3877.421	24.88
3880.016	38.88
3882.61	73.88
3885.202	82.88
3887.792	63.88
3890.38	30.88
3892.966	-4.12
3895.55	-32.12
3898.132	-24.12
3900.713	-23.12
3903.291	-28.12
3905.868	-40.12
3908.442	-28.12
3911.015	-33.12
3913.586	-32.12
3916.155	-41.12
3918.722	-39.12
3921.287	-40.12
3923.85	-44.12
3926.411	-43.12
3928.971	-37.12
3931.528	-25.12
3934.084	-37.12
3936.638	-47.12
3939.19	-27.12
3941.74	-30.12
3944.288	-37.12
3946.834	-35.12
3949.378	-26.12
3951.921	-39.12
3954.462	-35.12
3957	-30.12
3959.537	-24.12
3962.072	-37.12
3964.606	-49.12
3967.137	-35.12
3969.667	-35.12
3972.194	-28.12
3974.72	-36.12
3977.244	-57.12
3979.766	-42.12
3982.286	-36.12
3984.805	-35.12
3987.321	-26.12
3989.836	-27.12
3992.349	-35.12
3994.86	-34.12
3997.369	-38.12
3999.877	-36.12
4002.382	-34.12
4004.886	-28.12
4007.388	-31.12
4009.888	-17.12
4012.386	-24.12
4014.883	-27.12
4017.377	-31.12
4019.87	-31.12
4022.361	-40.12
4024.85	-28.12
4027.338	-28.12
4029.823	-34.12
4032.307	-38.12
4034.789	-32.12
4037.269	-33.12
4039.747	-45.12
4042.224	-21.12
4044.699	-45.12
4047.172	-35.12
4049.643	-26.12
4052.112	-55.12
4054.58	-30.12
4057.046	-42.12
4059.51	-31.12
4061.972	-35.12
4064.432	-48.12
4066.891	-19.12
4069.348	-34.12
4071.803	-32.12
4074.256	-42.12
4076.708	-30.12
4079.158	-32.12
4081.606	-24.12
4084.052	-33.12
4086.497	-29.12
4088.939	-30.12
4091.38	-32.12
4093.819	-27.12
4096.257	4.88
4098.693	-5.12
4101.127	-5.12
4103.559	2.88
4105.989	111.88
4108.418	109.88
4110.845	97.88
4113.27	108.88
4115.694	118.88
4118.115	99.88
4120.535	-32.12
4122.954	-27.12
4125.37	-23.12
4127.785	-28.12
4130.198	-24.12
4132.609	-27.12
4135.019	4.88
4137.427	-0.12
4139.833	5.88
4142.237	-8.12
