Data from 2018-3-6_conc=2_n=8_RamanShift_02.txt Node
Date: Tue Mar 06 13:03:49 GMT+02:00 2018
User: LAB3
Spectrometer: QEPB0276
Trigger mode: 0
Integration Time (sec): 3.000000E1
Scans to average: 1
Electric dark correction enabled: true
Nonlinearity correction enabled: false
Boxcar width: 0
XAxis mode: Raman Shifts
Number of Pixels in Spectrum: 1044
>>>>>Begin Spectral Data<<<<<
160.701	166.25
166.742	213.25
172.777	318.25
178.805	605.25
184.826	1393.25
190.841	2746.25
196.849	4362.25
202.85	5637.25
208.845	6087.25
214.833	6070.25
220.815	6024.25
226.789	6031.25
232.758	6076.25
238.719	6093.25
244.674	6085.25
250.623	6030.25
256.565	5979.25
262.5	5923.25
268.429	5912.25
274.351	5878.25
280.267	5873.25
286.176	5903.25
292.079	5917.25
297.975	5917.25
303.865	5928.25
309.748	5955.25
315.625	5952.25
321.495	5955.25
327.359	5997.25
333.217	6002.25
339.068	6052.25
344.912	6065.25
350.751	6064.25
356.583	6112.25
362.408	6130.25
368.227	6188.25
374.04	6206.25
379.847	6193.25
385.647	6264.25
391.44	6278.25
397.228	6307.25
403.009	6353.25
408.784	6388.25
414.553	6409.25
420.315	6459.25
426.071	6423.25
431.821	6472.25
437.565	6455.25
443.302	6448.25
449.033	6399.25
454.758	6360.25
460.477	6301.25
466.189	6260.25
471.896	6215.25
477.596	6156.25
483.29	6112.25
488.978	6104.25
494.66	6014.25
500.335	5876.25
506.005	5639.25
511.668	5338.25
517.325	5080.25
522.977	4828.25
528.622	4669.25
534.261	4587.25
539.894	4490.25
545.521	4424.25
551.141	4344.25
556.756	4289.25
562.365	4284.25
567.968	4257.25
573.565	4203.25
579.155	4196.25
584.74	4145.25
590.319	4159.25
595.892	4160.25
601.459	4139.25
607.02	4106.25
612.575	4119.25
618.124	4059.25
623.667	3981.25
629.204	3923.25
634.735	3880.25
640.261	3844.25
645.781	3790.25
651.294	3764.25
656.802	3789.25
662.304	3748.25
667.8	3736.25
673.29	3718.25
678.775	3723.25
684.254	3692.25
689.726	3678.25
695.193	3666.25
700.655	3640.25
706.11	3627.25
711.56	3595.25
717.004	3609.25
722.442	3562.25
727.874	3557.25
733.301	3529.25
738.722	3523.25
744.137	3513.25
749.547	3506.25
754.951	3529.25
760.349	3531.25
765.741	3543.25
771.128	3590.25
776.509	3599.25
781.885	3694.25
787.254	3702.25
792.618	3740.25
797.977	3734.25
803.33	3666.25
808.677	3656.25
814.019	3610.25
819.355	3599.25
824.686	3554.25
830.011	3519.25
835.33	3519.25
840.644	3486.25
845.952	3457.25
851.255	3463.25
856.552	3425.25
861.844	3348.25
867.13	3306.25
872.41	3298.25
877.686	3294.25
882.955	3255.25
888.219	3216.25
893.478	3165.25
898.731	3116.25
903.979	3112.25
909.221	3076.25
914.458	3041.25
919.69	3052.25
924.916	3042.25
930.136	3031.25
935.351	3036.25
940.561	3062.25
945.766	3053.25
950.965	3028.25
956.158	3009.25
961.347	2957.25
966.529	2928.25
971.707	2922.25
976.879	2875.25
982.046	2843.25
987.208	2822.25
992.364	2826.25
997.515	2820.25
1002.66	2866.25
1007.801	2889.25
1012.936	2880.25
1018.066	2890.25
1023.19	2929.25
1028.309	2934.25
1033.423	2943.25
1038.532	2963.25
1043.636	2936.25
1048.734	2899.25
1053.827	2844.25
1058.915	2826.25
1063.998	2832.25
1069.075	2807.25
1074.147	2804.25
1079.214	2801.25
1084.276	2829.25
1089.333	2818.25
1094.385	2855.25
1099.431	2800.25
1104.472	2791.25
1109.509	2767.25
1114.54	2733.25
1119.565	2704.25
1124.586	2635.25
1129.602	2634.25
1134.613	2594.25
1139.618	2561.25
1144.619	2575.25
1149.614	2579.25
1154.604	2602.25
1159.589	2604.25
1164.57	2613.25
1169.545	2613.25
1174.515	2613.25
1179.48	2583.25
1184.44	2608.25
1189.395	2595.25
1194.345	2561.25
1199.29	2543.25
1204.23	2526.25
1209.165	2520.25
1214.095	2527.25
1219.021	2553.25
1223.941	2581.25
1228.856	2587.25
1233.766	2585.25
1238.672	2581.25
1243.572	2553.25
1248.467	2534.25
1253.358	2527.25
1258.244	2487.25
1263.124	2449.25
1268	2412.25
1272.871	2338.25
1277.737	2356.25
1282.599	2324.25
1287.455	2313.25
1292.306	2309.25
1297.153	2324.25
1301.995	2340.25
1306.832	2369.25
1311.664	2347.25
1316.491	2374.25
1321.314	2354.25
1326.132	2326.25
1330.945	2312.25
1335.753	2264.25
1340.556	2202.25
1345.354	2166.25
1350.148	2165.25
1354.937	2129.25
1359.722	2097.25
1364.501	2092.25
1369.276	2077.25
1374.046	2089.25
1378.811	2074.25
1383.572	2086.25
1388.327	2073.25
1393.079	2055.25
1397.825	2029.25
1402.567	2013.25
1407.304	2005.25
1412.036	1995.25
1416.764	1996.25
1421.487	1991.25
1426.205	1984.25
1430.919	1959.25
1435.628	1993.25
1440.333	2010.25
1445.032	2021.25
1449.727	2029.25
1454.418	2039.25
1459.104	2053.25
1463.785	2022.25
1468.462	2001.25
1473.134	1952.25
1477.802	1915.25
1482.465	1884.25
1487.123	1875.25
1491.777	1852.25
1496.426	1836.25
1501.071	1877.25
1505.711	1869.25
1510.347	1896.25
1514.978	1874.25
1519.604	1898.25
1524.226	1892.25
1528.844	1875.25
1533.457	1876.25
1538.065	1844.25
1542.669	1842.25
1547.269	1811.25
1551.864	1817.25
1556.454	1811.25
1561.041	1804.25
1565.622	1796.25
1570.199	1811.25
1574.772	1824.25
1579.34	1860.25
1583.904	1857.25
1588.464	1878.25
1593.019	1887.25
1597.569	1865.25
1602.115	1853.25
1606.657	1852.25
1611.195	1856.25
1615.728	1856.25
1620.256	1834.25
1624.78	1832.25
1629.3	1844.25
1633.816	1849.25
1638.327	1853.25
1642.834	1859.25
1647.336	1871.25
1651.834	1892.25
1656.328	1897.25
1660.817	1884.25
1665.302	1848.25
1669.783	1827.25
1674.259	1823.25
1678.732	1775.25
1683.199	1737.25
1687.663	1682.25
1692.122	1650.25
1696.577	1627.25
1701.028	1588.25
1705.474	1555.25
1709.917	1530.25
1714.355	1515.25
1718.788	1486.25
1723.218	1456.25
1727.643	1455.25
1732.064	1439.25
1736.481	1410.25
1740.893	1397.25
1745.301	1354.25
1749.705	1318.25
1754.105	1296.25
1758.501	1272.25
1762.893	1257.25
1767.28	1221.25
1771.663	1224.25
1776.042	1206.25
1780.417	1205.25
1784.787	1214.25
1789.154	1221.25
1793.516	1207.25
1797.874	1194.25
1802.228	1199.25
1806.578	1198.25
1810.924	1201.25
1815.266	1063.25
1819.603	1178.25
1823.937	1151.25
1828.266	1127.25
1832.591	1129.25
1836.913	1130.25
1841.23	1100.25
1845.543	1104.25
1849.852	1103.25
1854.156	1110.25
1858.457	1105.25
1862.754	1093.25
1867.047	1112.25
1871.335	1125.25
1875.62	1103.25
1879.9	1114.25
1884.177	1110.25
1888.449	1108.25
1892.718	1091.25
1896.982	1093.25
1901.243	1078.25
1905.499	1079.25
1909.752	1067.25
1914	1058.25
1918.245	1087.25
1922.485	1079.25
1926.722	1075.25
1930.954	1067.25
1935.183	1090.25
1939.408	1083.25
1943.628	1068.25
1947.845	1067.25
1952.058	1067.25
1956.267	1052.25
1960.472	1041.25
1964.673	1012.25
1968.87	987.25
1973.063	968.25
1977.252	958.25
1981.438	937.25
1985.619	942.25
1989.797	924.25
1993.971	933.25
1998.14	944.25
2002.306	917.25
2006.469	929.25
2010.627	901.25
2014.781	910.25
2018.932	908.25
2023.078	934.25
2027.221	899.25
2031.36	874.25
2035.495	873.25
2039.627	882.25
2043.754	867.25
2047.878	859.25
2051.998	852.25
2056.114	851.25
2060.226	852.25
2064.334	859.25
2068.439	862.25
2072.54	871.25
2076.637	855.25
2080.73	873.25
2084.82	875.25
2088.906	850.25
2092.988	855.25
2097.066	870.25
2101.14	863.25
2105.211	843.25
2109.278	836.25
2113.342	823.25
2117.401	816.25
2121.457	801.25
2125.509	781.25
2129.558	792.25
2133.602	785.25
2137.643	777.25
2141.681	783.25
2145.714	766.25
2149.744	758.25
2153.77	757.25
2157.793	740.25
2161.812	722.25
2165.827	713.25
2169.838	736.25
2173.846	706.25
2177.851	686.25
2181.851	691.25
2185.848	690.25
2189.841	686.25
2193.831	670.25
2197.817	658.25
2201.799	663.25
2205.778	648.25
2209.753	647.25
2213.725	630.25
2217.693	634.25
2221.657	640.25
2225.618	645.25
2229.575	632.25
2233.529	628.25
2237.479	629.25
2241.425	616.25
2245.368	604.25
2249.307	588.25
2253.243	587.25
2257.175	575.25
2261.104	558.25
2265.029	574.25
2268.95	558.25
2272.868	540.25
2276.783	528.25
2280.694	531.25
2284.601	538.25
2288.505	526.25
2292.405	521.25
2296.302	496.25
2300.195	499.25
2304.085	481.25
2307.971	488.25
2311.854	466.25
2315.734	474.25
2319.609	464.25
2323.482	452.25
2327.351	457.25
2331.216	460.25
2335.078	465.25
2338.937	456.25
2342.792	439.25
2346.643	433.25
2350.492	455.25
2354.336	447.25
2358.178	444.25
2362.015	439.25
2365.85	439.25
2369.681	445.25
2373.508	447.25
2377.333	458.25
2381.153	440.25
2384.971	446.25
2388.785	441.25
2392.595	420.25
2396.402	426.25
2400.206	403.25
2404.007	414.25
2407.804	422.25
2411.597	424.25
2415.388	417.25
2419.174	415.25
2422.958	409.25
2426.738	409.25
2430.515	411.25
2434.289	399.25
2438.059	398.25
2441.825	394.25
2445.589	403.25
2449.349	384.25
2453.106	391.25
2456.859	392.25
2460.61	384.25
2464.356	366.25
2468.1	368.25
2471.84	365.25
2475.577	363.25
2479.311	360.25
2483.041	358.25
2486.768	370.25
2490.492	378.25
2494.213	369.25
2497.93	358.25
2501.644	350.25
2505.355	357.25
2509.062	365.25
2512.766	356.25
2516.467	354.25
2520.165	345.25
2523.859	340.25
2527.551	374.25
2531.239	334.25
2534.923	349.25
2538.605	335.25
2542.283	346.25
2545.958	346.25
2549.63	345.25
2553.299	351.25
2556.964	323.25
2560.626	328.25
2564.285	334.25
2567.941	322.25
2571.594	320.25
2575.243	333.25
2578.89	325.25
2582.533	315.25
2586.173	315.25
2589.809	311.25
2593.443	283.25
2597.073	303.25
2600.701	307.25
2604.325	303.25
2607.946	283.25
2611.564	295.25
2615.178	292.25
2618.79	291.25
2622.398	280.25
2626.004	289.25
2629.606	284.25
2633.205	265.25
2636.801	282.25
2640.394	286.25
2643.983	273.25
2647.57	274.25
2651.153	258.25
2654.734	278.25
2658.311	238.25
2661.885	246.25
2665.456	254.25
2669.025	248.25
2672.589	246.25
2676.151	263.25
2679.71	257.25
2683.266	235.25
2686.819	236.25
2690.368	242.25
2693.915	247.25
2697.458	232.25
2700.999	239.25
2704.536	230.25
2708.071	229.25
2711.602	225.25
2715.13	222.25
2718.656	206.25
2722.178	216.25
2725.697	213.25
2729.214	203.25
2732.727	219.25
2736.237	203.25
2739.744	216.25
2743.249	210.25
2746.75	216.25
2750.248	214.25
2753.743	222.25
2757.236	211.25
2760.725	220.25
2764.211	181.25
2767.695	214.25
2771.175	211.25
2774.652	212.25
2778.127	206.25
2781.598	202.25
2785.067	204.25
2788.532	195.25
2791.995	205.25
2795.455	209.25
2798.911	208.25
2802.365	196.25
2805.816	213.25
2809.264	216.25
2812.709	204.25
2816.151	211.25
2819.59	195.25
2823.026	209.25
2826.46	201.25
2829.89	209.25
2833.318	185.25
2836.742	206.25
2840.164	210.25
2843.583	206.25
2846.999	211.25
2850.412	217.25
2853.822	207.25
2857.229	236.25
2860.634	229.25
2864.035	208.25
2867.434	227.25
2870.83	234.25
2874.223	230.25
2877.613	231.25
2881	230.25
2884.385	231.25
2887.766	234.25
2891.145	237.25
2894.521	230.25
2897.894	231.25
2901.264	247.25
2904.631	242.25
2907.996	237.25
2911.358	251.25
2914.717	245.25
2918.073	240.25
2921.426	239.25
2924.777	235.25
2928.124	246.25
2931.469	267.25
2934.811	249.25
2938.15	281.25
2941.487	273.25
2944.821	284.25
2948.152	276.25
2951.48	271.25
2954.805	258.25
2958.128	277.25
2961.447	268.25
2964.765	287.25
2968.079	268.25
2971.39	276.25
2974.699	271.25
2978.005	278.25
2981.308	286.25
2984.609	283.25
2987.907	290.25
2991.202	297.25
2994.494	287.25
2997.784	298.25
3001.07	305.25
3004.355	297.25
3007.636	304.25
3010.915	302.25
3014.191	307.25
3017.464	307.25
3020.734	309.25
3024.002	311.25
3027.267	314.25
3030.53	317.25
3033.789	316.25
3037.046	321.25
3040.301	325.25
3043.552	331.25
3046.801	340.25
3050.048	351.25
3053.291	375.25
3056.532	365.25
3059.771	354.25
3063.006	393.25
3066.239	390.25
3069.469	400.25
3072.697	411.25
3075.922	415.25
3079.144	425.25
3082.364	451.25
3085.581	432.25
3088.795	471.25
3092.007	470.25
3095.216	477.25
3098.423	475.25
3101.627	473.25
3104.828	502.25
3108.026	494.25
3111.222	529.25
3114.416	558.25
3117.607	545.25
3120.795	559.25
3123.98	569.25
3127.163	559.25
3130.344	578.25
3133.521	581.25
3136.696	612.25
3139.869	627.25
3143.039	613.25
3146.206	653.25
3149.371	656.25
3152.533	647.25
3155.693	644.25
3158.85	663.25
3162.005	665.25
3165.157	662.25
3168.306	659.25
3171.453	677.25
3174.597	664.25
3177.739	668.25
3180.878	673.25
3184.014	675.25
3187.149	663.25
3190.28	684.25
3193.409	693.25
3196.536	682.25
3199.659	701.25
3202.781	693.25
3205.9	676.25
3209.016	689.25
3212.13	690.25
3215.241	683.25
3218.35	678.25
3221.456	674.25
3224.56	668.25
3227.661	676.25
3230.76	655.25
3233.856	656.25
3236.95	662.25
3240.041	646.25
3243.13	654.25
3246.216	651.25
3249.3	656.25
3252.382	635.25
3255.46	626.25
3258.537	584.25
3261.611	627.25
3264.682	625.25
3267.751	626.25
3270.818	616.25
3273.882	634.25
3276.943	622.25
3280.002	632.25
3283.059	610.25
3286.113	609.25
3289.165	593.25
3292.214	582.25
3295.261	593.25
3298.306	563.25
3301.348	571.25
3304.387	546.25
3307.425	562.25
3310.459	534.25
3313.492	547.25
3316.521	533.25
3319.549	543.25
3322.574	538.25
3325.597	527.25
3328.617	513.25
3331.635	519.25
3334.65	504.25
3337.663	513.25
3340.674	501.25
3343.682	510.25
3346.688	502.25
3349.691	502.25
3352.692	497.25
3355.691	509.25
3358.687	497.25
3361.681	505.25
3364.673	495.25
3367.662	487.25
3370.649	479.25
3373.633	469.25
3376.615	469.25
3379.595	453.25
3382.572	457.25
3385.547	438.25
3388.52	437.25
3391.49	437.25
3394.458	441.25
3397.424	437.25
3400.387	421.25
3403.348	429.25
3406.307	416.25
3409.263	417.25
3412.217	419.25
3415.168	420.25
3418.118	421.25
3421.065	402.25
3424.009	405.25
3426.951	394.25
3429.891	388.25
3432.829	383.25
3435.764	382.25
3438.697	364.25
3441.628	377.25
3444.557	338.25
3447.483	335.25
3450.407	339.25
3453.328	322.25
3456.247	318.25
3459.164	313.25
3462.079	319.25
3464.991	302.25
3467.902	276.25
3470.809	272.25
3473.715	278.25
3476.618	272.25
3479.519	264.25
3482.418	236.25
3485.315	243.25
3488.209	233.25
3491.101	235.25
3493.99	209.25
3496.878	216.25
3499.763	215.25
3502.646	208.25
3505.527	196.25
3508.405	193.25
3511.281	180.25
3514.155	187.25
3517.027	178.25
3519.897	161.25
3522.764	167.25
3525.629	143.25
3528.492	157.25
3531.352	147.25
3534.211	139.25
3537.067	122.25
3539.921	133.25
3542.773	129.25
3545.622	108.25
3548.469	105.25
3551.315	100.25
3554.157	104.25
3556.998	92.25
3559.837	87.25
3562.673	96.25
3565.507	87.25
3568.339	69.25
3571.169	76.25
3573.996	74.25
3576.822	47.25
3579.645	61.25
3582.466	60.25
3585.285	63.25
3588.101	54.25
3590.916	48.25
3593.728	64.25
3596.538	53.25
3599.346	50.25
3602.152	36.25
3604.956	44.25
3607.757	48.25
3610.556	29.25
3613.354	37.25
3616.149	33.25
3618.942	31.25
3621.732	35.25
3624.521	17.25
3627.307	12.25
3630.092	17.25
3632.874	34.25
3635.654	21.25
3638.432	11.25
3641.208	12.25
3643.982	11.25
3646.753	18.25
3649.523	-12.75
3652.29	4.25
3655.055	8.25
3657.818	5.25
3660.579	0.25
3663.338	-6.75
3666.095	-6.75
3668.849	-23.75
3671.602	2.25
3674.352	-15.75
3677.101	3.25
3679.847	0.25
3682.591	-14.75
3685.333	-18.75
3688.073	-6.75
3690.811	-16.75
3693.547	-26.75
3696.281	-20.75
3699.013	-9.75
3701.742	-15.75
3704.47	-20.75
3707.195	-12.75
3709.919	-13.75
3712.64	-11.75
3715.359	-26.75
3718.076	-6.75
3720.792	-21.75
3723.505	-14.75
3726.216	-7.75
3728.925	-16.75
3731.632	-25.75
3734.336	-18.75
3737.039	-22.75
3739.74	-20.75
3742.439	-50.75
3745.136	-16.75
3747.83	-22.75
3750.523	-18.75
3753.213	-82.75
3755.902	-24.75
3758.589	-42.75
3761.273	-25.75
3763.956	-16.75
3766.636	-35.75
3769.315	-14.75
3771.991	-22.75
3774.665	-28.75
3777.338	-24.75
3780.008	-36.75
3782.677	-23.75
3785.343	-44.75
3788.007	-44.75
3790.67	-16.75
3793.33	-39.75
3795.989	-30.75
3798.645	-25.75
3801.299	-40.75
3803.952	-36.75
3806.602	-29.75
3809.251	-21.75
3811.897	-26.75
3814.542	-33.75
3817.184	-33.75
3819.825	-27.75
3822.463	-42.75
3825.1	-34.75
3827.735	-24.75
3830.367	-37.75
3832.998	-16.75
3835.627	-36.75
3838.253	-20.75
3840.878	-31.75
3843.501	-17.75
3846.122	-27.75
3848.741	-22.75
3851.358	-17.75
3853.973	-34.75
3856.586	-22.75
3859.197	-33.75
3861.806	-26.75
3864.414	-37.75
3867.019	-23.75
3869.622	-17.75
3872.224	-11.75
3874.823	7.25
3877.421	37.25
3880.016	57.25
3882.61	116.25
3885.202	131.25
3887.792	99.25
3890.38	50.25
3892.966	5.25
3895.55	-20.75
3898.132	-20.75
3900.713	-19.75
3903.291	-27.75
3905.868	-32.75
3908.442	-27.75
3911.015	-28.75
3913.586	-29.75
3916.155	-31.75
3918.722	-40.75
3921.287	-35.75
3923.85	-45.75
3926.411	-34.75
3928.971	-36.75
3931.528	-25.75
3934.084	-35.75
3936.638	-43.75
3939.19	-29.75
3941.74	-27.75
3944.288	-36.75
3946.834	-30.75
3949.378	-26.75
3951.921	-39.75
3954.462	-37.75
3957	-25.75
3959.537	-16.75
3962.072	-31.75
3964.606	-47.75
3967.137	-34.75
3969.667	-38.75
3972.194	-25.75
3974.72	-35.75
3977.244	-53.75
3979.766	-38.75
3982.286	-33.75
3984.805	-26.75
3987.321	-16.75
3989.836	-22.75
3992.349	-35.75
3994.86	-30.75
3997.369	-36.75
3999.877	-35.75
4002.382	-32.75
4004.886	-27.75
4007.388	-32.75
4009.888	-16.75
4012.386	-24.75
4014.883	-28.75
4017.377	-24.75
4019.87	-26.75
4022.361	-36.75
4024.85	-28.75
4027.338	-28.75
4029.823	-30.75
4032.307	-28.75
4034.789	-25.75
4037.269	-27.75
4039.747	-42.75
4042.224	-21.75
4044.699	-33.75
4047.172	-30.75
4049.643	-21.75
4052.112	-55.75
4054.58	-26.75
4057.046	-40.75
4059.51	-28.75
4061.972	-28.75
4064.432	-50.75
4066.891	-13.75
4069.348	-28.75
4071.803	-24.75
4074.256	-33.75
4076.708	-23.75
4079.158	-31.75
4081.606	-18.75
4084.052	-29.75
4086.497	-23.75
4088.939	-27.75
4091.38	-29.75
4093.819	-20.75
4096.257	-0.75
4098.693	-1.75
4101.127	-4.75
4103.559	1.25
4105.989	155.25
4108.418	164.25
4110.845	144.25
4113.27	150.25
4115.694	164.25
4118.115	156.25
4120.535	-23.75
4122.954	-21.75
4125.37	-16.75
4127.785	-24.75
4130.198	-18.75
4132.609	-25.75
4135.019	6.25
4137.427	2.25
4139.833	7.25
4142.237	-9.75
