Data from 2018-3-6_conc=0_n=1_RamanShift_07.txt Node
Date: Tue Mar 06 12:07:19 GMT+02:00 2018
User: LAB3
Spectrometer: QEPB0276
Trigger mode: 0
Integration Time (sec): 3.000000E1
Scans to average: 1
Electric dark correction enabled: true
Nonlinearity correction enabled: false
Boxcar width: 0
XAxis mode: Raman Shifts
Number of Pixels in Spectrum: 1044
>>>>>Begin Spectral Data<<<<<
160.701	54.5
166.742	93.5
172.777	153.5
178.805	361.5
184.826	885.5
190.841	1787.5
196.849	2863.5
202.85	3673.5
208.845	3972.5
214.833	3967.5
220.815	3952.5
226.789	3947.5
232.758	3990.5
238.719	3981.5
244.674	3982.5
250.623	3979.5
256.565	3927.5
262.5	3866.5
268.429	3884.5
274.351	3847.5
280.267	3862.5
286.176	3878.5
292.079	3878.5
297.975	3858.5
303.865	3862.5
309.748	3859.5
315.625	3863.5
321.495	3884.5
327.359	3862.5
333.217	3874.5
339.068	3887.5
344.912	3918.5
350.751	3936.5
356.583	3946.5
362.408	3936.5
368.227	3982.5
374.04	3985.5
379.847	4027.5
385.647	4017.5
391.44	4051.5
397.228	4083.5
403.009	4122.5
408.784	4137.5
414.553	4163.5
420.315	4176.5
426.071	4184.5
431.821	4283.5
437.565	4298.5
443.302	4256.5
449.033	4219.5
454.758	4217.5
460.477	4095.5
466.189	4070.5
471.896	4024.5
477.596	3978.5
483.29	3953.5
488.978	3959.5
494.66	3918.5
500.335	3843.5
506.005	3713.5
511.668	3557.5
517.325	3417.5
522.977	3296.5
528.622	3210.5
534.261	3186.5
539.894	3106.5
545.521	3080.5
551.141	3044.5
556.756	3002.5
562.365	2986.5
567.968	2976.5
573.565	2964.5
579.155	2942.5
584.74	2925.5
590.319	2918.5
595.892	2934.5
601.459	2923.5
607.02	2897.5
612.575	2872.5
618.124	2883.5
623.667	2828.5
629.204	2796.5
634.735	2773.5
640.261	2703.5
645.781	2677.5
651.294	2708.5
656.802	2708.5
662.304	2690.5
667.8	2668.5
673.29	2655.5
678.775	2670.5
684.254	2660.5
689.726	2632.5
695.193	2641.5
700.655	2607.5
706.11	2588.5
711.56	2602.5
717.004	2568.5
722.442	2543.5
727.874	2552.5
733.301	2550.5
738.722	2527.5
744.137	2554.5
749.547	2513.5
754.951	2540.5
760.349	2525.5
765.741	2545.5
771.128	2539.5
776.509	2572.5
781.885	2615.5
787.254	2638.5
792.618	2631.5
797.977	2634.5
803.33	2622.5
808.677	2610.5
814.019	2589.5
819.355	2560.5
824.686	2554.5
830.011	2535.5
835.33	2552.5
840.644	2544.5
845.952	2528.5
851.255	2529.5
856.552	2581.5
861.844	2593.5
867.13	2693.5
872.41	2924.5
877.686	3315.5
882.955	3650.5
888.219	3595.5
893.478	3161.5
898.731	2709.5
903.979	2492.5
909.221	2367.5
914.458	2310.5
919.69	2294.5
924.916	2286.5
930.136	2282.5
935.351	2249.5
940.561	2249.5
945.766	2259.5
950.965	2247.5
956.158	2205.5
961.347	2193.5
966.529	2188.5
971.707	2154.5
976.879	2129.5
982.046	2118.5
987.208	2081.5
992.364	2109.5
997.515	2114.5
1002.66	2154.5
1007.801	2179.5
1012.936	2211.5
1018.066	2256.5
1023.19	2313.5
1028.309	2316.5
1033.423	2345.5
1038.532	2414.5
1043.636	2469.5
1048.734	2554.5
1053.827	2559.5
1058.915	2475.5
1063.998	2372.5
1069.075	2323.5
1074.147	2334.5
1079.214	2354.5
1084.276	2458.5
1089.333	2525.5
1094.385	2518.5
1099.431	2425.5
1104.472	2358.5
1109.509	2250.5
1114.54	2182.5
1119.565	2115.5
1124.586	2084.5
1129.602	2073.5
1134.613	2017.5
1139.618	1998.5
1144.619	1989.5
1149.614	1972.5
1154.604	1973.5
1159.589	1984.5
1164.57	1974.5
1169.545	2017.5
1174.515	1978.5
1179.48	1952.5
1184.44	1923.5
1189.395	1929.5
1194.345	1910.5
1199.29	1904.5
1204.23	1888.5
1209.165	1903.5
1214.095	1910.5
1219.021	1898.5
1223.941	1924.5
1228.856	1945.5
1233.766	1968.5
1238.672	1977.5
1243.572	1961.5
1248.467	1941.5
1253.358	1950.5
1258.244	1910.5
1263.124	1909.5
1268	1903.5
1272.871	1889.5
1277.737	1936.5
1282.599	1933.5
1287.455	1936.5
1292.306	1917.5
1297.153	1884.5
1301.995	1861.5
1306.832	1840.5
1311.664	1853.5
1316.491	1819.5
1321.314	1823.5
1326.132	1814.5
1330.945	1786.5
1335.753	1766.5
1340.556	1740.5
1345.354	1722.5
1350.148	1698.5
1354.937	1692.5
1359.722	1667.5
1364.501	1657.5
1369.276	1670.5
1374.046	1686.5
1378.811	1678.5
1383.572	1717.5
1388.327	1716.5
1393.079	1681.5
1397.825	1691.5
1402.567	1662.5
1407.304	1654.5
1412.036	1669.5
1416.764	1664.5
1421.487	1667.5
1426.205	1688.5
1430.919	1718.5
1435.628	1739.5
1440.333	1763.5
1445.032	1862.5
1449.727	1953.5
1454.418	2129.5
1459.104	2211.5
1463.785	2155.5
1468.462	2013.5
1473.134	1866.5
1477.802	1763.5
1482.465	1707.5
1487.123	1716.5
1491.777	1682.5
1496.426	1640.5
1501.071	1636.5
1505.711	1595.5
1510.347	1611.5
1514.978	1601.5
1519.604	1577.5
1524.226	1580.5
1528.844	1569.5
1533.457	1545.5
1538.065	1519.5
1542.669	1497.5
1547.269	1484.5
1551.864	1470.5
1556.454	1448.5
1561.041	1432.5
1565.622	1435.5
1570.199	1412.5
1574.772	1441.5
1579.34	1445.5
1583.904	1461.5
1588.464	1469.5
1593.019	1469.5
1597.569	1444.5
1602.115	1415.5
1606.657	1424.5
1611.195	1430.5
1615.728	1421.5
1620.256	1407.5
1624.78	1391.5
1629.3	1400.5
1633.816	1415.5
1638.327	1423.5
1642.834	1434.5
1647.336	1444.5
1651.834	1477.5
1656.328	1454.5
1660.817	1448.5
1665.302	1449.5
1669.783	1433.5
1674.259	1417.5
1678.732	1396.5
1683.199	1370.5
1687.663	1347.5
1692.122	1310.5
1696.577	1308.5
1701.028	1302.5
1705.474	1281.5
1709.917	1265.5
1714.355	1246.5
1718.788	1223.5
1723.218	1214.5
1727.643	1181.5
1732.064	1175.5
1736.481	1138.5
1740.893	1142.5
1745.301	1108.5
1749.705	1061.5
1754.105	1059.5
1758.501	1047.5
1762.893	1031.5
1767.28	981.5
1771.663	1003.5
1776.042	988.5
1780.417	987.5
1784.787	999.5
1789.154	1021.5
1793.516	1030.5
1797.874	1022.5
1802.228	995.5
1806.578	997.5
1810.924	1015.5
1815.266	908.5
1819.603	986.5
1823.937	937.5
1828.266	940.5
1832.591	929.5
1836.913	906.5
1841.23	896.5
1845.543	908.5
1849.852	920.5
1854.156	900.5
1858.457	892.5
1862.754	906.5
1867.047	903.5
1871.335	918.5
1875.62	932.5
1879.9	929.5
1884.177	909.5
1888.449	912.5
1892.718	909.5
1896.982	917.5
1901.243	899.5
1905.499	904.5
1909.752	919.5
1914	904.5
1918.245	928.5
1922.485	924.5
1926.722	938.5
1930.954	929.5
1935.183	930.5
1939.408	943.5
1943.628	946.5
1947.845	931.5
1952.058	918.5
1956.267	897.5
1960.472	895.5
1964.673	883.5
1968.87	852.5
1973.063	838.5
1977.252	822.5
1981.438	805.5
1985.619	789.5
1989.797	787.5
1993.971	773.5
1998.14	786.5
2002.306	777.5
2006.469	780.5
2010.627	751.5
2014.781	762.5
2018.932	741.5
2023.078	767.5
2027.221	760.5
2031.36	733.5
2035.495	732.5
2039.627	732.5
2043.754	729.5
2047.878	718.5
2051.998	731.5
2056.114	715.5
2060.226	733.5
2064.334	728.5
2068.439	741.5
2072.54	746.5
2076.637	733.5
2080.73	739.5
2084.82	739.5
2088.906	749.5
2092.988	742.5
2097.066	746.5
2101.14	762.5
2105.211	738.5
2109.278	715.5
2113.342	709.5
2117.401	703.5
2121.457	679.5
2125.509	682.5
2129.558	689.5
2133.602	670.5
2137.643	681.5
2141.681	663.5
2145.714	661.5
2149.744	666.5
2153.77	650.5
2157.793	630.5
2161.812	604.5
2165.827	603.5
2169.838	626.5
2173.846	594.5
2177.851	587.5
2181.851	599.5
2185.848	578.5
2189.841	578.5
2193.831	565.5
2197.817	567.5
2201.799	563.5
2205.778	550.5
2209.753	547.5
2213.725	540.5
2217.693	548.5
2221.657	543.5
2225.618	558.5
2229.575	543.5
2233.529	541.5
2237.479	543.5
2241.425	532.5
2245.368	507.5
2249.307	512.5
2253.243	504.5
2257.175	514.5
2261.104	495.5
2265.029	491.5
2268.95	479.5
2272.868	478.5
2276.783	467.5
2280.694	477.5
2284.601	477.5
2288.505	462.5
2292.405	457.5
2296.302	436.5
2300.195	434.5
2304.085	405.5
2307.971	434.5
2311.854	409.5
2315.734	413.5
2319.609	420.5
2323.482	388.5
2327.351	391.5
2331.216	405.5
2335.078	403.5
2338.937	392.5
2342.792	386.5
2346.643	377.5
2350.492	389.5
2354.336	375.5
2358.178	390.5
2362.015	388.5
2365.85	389.5
2369.681	394.5
2373.508	387.5
2377.333	381.5
2381.153	387.5
2384.971	372.5
2388.785	381.5
2392.595	368.5
2396.402	373.5
2400.206	350.5
2404.007	354.5
2407.804	369.5
2411.597	364.5
2415.388	353.5
2419.174	350.5
2422.958	354.5
2426.738	350.5
2430.515	355.5
2434.289	349.5
2438.059	338.5
2441.825	343.5
2445.589	354.5
2449.349	322.5
2453.106	344.5
2456.859	327.5
2460.61	338.5
2464.356	322.5
2468.1	321.5
2471.84	327.5
2475.577	316.5
2479.311	320.5
2483.041	318.5
2486.768	337.5
2490.492	321.5
2494.213	319.5
2497.93	305.5
2501.644	296.5
2505.355	308.5
2509.062	305.5
2512.766	311.5
2516.467	303.5
2520.165	311.5
2523.859	291.5
2527.551	332.5
2531.239	297.5
2534.923	315.5
2538.605	300.5
2542.283	304.5
2545.958	300.5
2549.63	314.5
2553.299	312.5
2556.964	291.5
2560.626	305.5
2564.285	297.5
2567.941	283.5
2571.594	291.5
2575.243	306.5
2578.89	288.5
2582.533	287.5
2586.173	285.5
2589.809	287.5
2593.443	259.5
2597.073	266.5
2600.701	270.5
2604.325	280.5
2607.946	255.5
2611.564	271.5
2615.178	265.5
2618.79	260.5
2622.398	249.5
2626.004	255.5
2629.606	256.5
2633.205	240.5
2636.801	257.5
2640.394	253.5
2643.983	247.5
2647.57	236.5
2651.153	233.5
2654.734	245.5
2658.311	216.5
2661.885	220.5
2665.456	231.5
2669.025	223.5
2672.589	218.5
2676.151	229.5
2679.71	241.5
2683.266	229.5
2686.819	220.5
2690.368	226.5
2693.915	222.5
2697.458	216.5
2700.999	230.5
2704.536	233.5
2708.071	227.5
2711.602	229.5
2715.13	232.5
2718.656	214.5
2722.178	233.5
2725.697	226.5
2729.214	231.5
2732.727	237.5
2736.237	229.5
2739.744	244.5
2743.249	235.5
2746.75	235.5
2750.248	236.5
2753.743	245.5
2757.236	236.5
2760.725	245.5
2764.211	216.5
2767.695	234.5
2771.175	228.5
2774.652	227.5
2778.127	229.5
2781.598	214.5
2785.067	217.5
2788.532	208.5
2791.995	224.5
2795.455	224.5
2798.911	223.5
2802.365	223.5
2805.816	229.5
2809.264	242.5
2812.709	223.5
2816.151	247.5
2819.59	230.5
2823.026	250.5
2826.46	250.5
2829.89	270.5
2833.318	247.5
2836.742	280.5
2840.164	291.5
2843.583	294.5
2846.999	308.5
2850.412	320.5
2853.822	319.5
2857.229	342.5
2860.634	352.5
2864.035	339.5
2867.434	385.5
2870.83	407.5
2874.223	428.5
2877.613	450.5
2881	507.5
2884.385	545.5
2887.766	563.5
2891.145	564.5
2894.521	534.5
2897.894	524.5
2901.264	538.5
2904.631	539.5
2907.996	529.5
2911.358	524.5
2914.717	527.5
2918.073	517.5
2921.426	519.5
2924.777	530.5
2928.124	594.5
2931.469	652.5
2934.811	710.5
2938.15	759.5
2941.487	746.5
2944.821	719.5
2948.152	661.5
2951.48	625.5
2954.805	562.5
2958.128	553.5
2961.447	508.5
2964.765	500.5
2968.079	478.5
2971.39	475.5
2974.699	495.5
2978.005	496.5
2981.308	495.5
2984.609	491.5
2987.907	503.5
2991.202	475.5
2994.494	445.5
2997.784	435.5
3001.07	403.5
3004.355	374.5
3007.636	365.5
3010.915	354.5
3014.191	330.5
3017.464	326.5
3020.734	322.5
3024.002	308.5
3027.267	305.5
3030.53	303.5
3033.789	286.5
3037.046	279.5
3040.301	268.5
3043.552	296.5
3046.801	285.5
3050.048	302.5
3053.291	309.5
3056.532	298.5
3059.771	278.5
3063.006	304.5
3066.239	308.5
3069.469	314.5
3072.697	305.5
3075.922	323.5
3079.144	312.5
3082.364	344.5
3085.581	329.5
3088.795	357.5
3092.007	354.5
3095.216	349.5
3098.423	356.5
3101.627	340.5
3104.828	370.5
3108.026	364.5
3111.222	388.5
3114.416	400.5
3117.607	397.5
3120.795	399.5
3123.98	417.5
3127.163	403.5
3130.344	422.5
3133.521	424.5
3136.696	456.5
3139.869	452.5
3143.039	438.5
3146.206	481.5
3149.371	474.5
3152.533	468.5
3155.693	468.5
3158.85	468.5
3162.005	488.5
3165.157	480.5
3168.306	479.5
3171.453	487.5
3174.597	472.5
3177.739	472.5
3180.878	486.5
3184.014	485.5
3187.149	490.5
3190.28	491.5
3193.409	493.5
3196.536	504.5
3199.659	498.5
3202.781	498.5
3205.9	495.5
3209.016	497.5
3212.13	493.5
3215.241	493.5
3218.35	491.5
3221.456	468.5
3224.56	470.5
3227.661	468.5
3230.76	480.5
3233.856	463.5
3236.95	483.5
3240.041	455.5
3243.13	466.5
3246.216	466.5
3249.3	474.5
3252.382	459.5
3255.46	454.5
3258.537	407.5
3261.611	449.5
3264.682	465.5
3267.751	459.5
3270.818	441.5
3273.882	447.5
3276.943	443.5
3280.002	453.5
3283.059	430.5
3286.113	430.5
3289.165	423.5
3292.214	401.5
3295.261	412.5
3298.306	389.5
3301.348	396.5
3304.387	379.5
3307.425	392.5
3310.459	379.5
3313.492	387.5
3316.521	376.5
3319.549	378.5
3322.574	372.5
3325.597	360.5
3328.617	355.5
3331.635	351.5
3334.65	337.5
3337.663	353.5
3340.674	346.5
3343.682	351.5
3346.688	357.5
3349.691	342.5
3352.692	343.5
3355.691	340.5
3358.687	338.5
3361.681	337.5
3364.673	328.5
3367.662	336.5
3370.649	330.5
3373.633	311.5
3376.615	322.5
3379.595	299.5
3382.572	308.5
3385.547	295.5
3388.52	299.5
3391.49	286.5
3394.458	304.5
3397.424	298.5
3400.387	286.5
3403.348	286.5
3406.307	285.5
3409.263	290.5
3412.217	288.5
3415.168	277.5
3418.118	289.5
3421.065	269.5
3424.009	273.5
3426.951	262.5
3429.891	265.5
3432.829	263.5
3435.764	256.5
3438.697	245.5
3441.628	255.5
3444.557	233.5
3447.483	230.5
3450.407	227.5
3453.328	226.5
3456.247	215.5
3459.164	208.5
3462.079	213.5
3464.991	198.5
3467.902	195.5
3470.809	196.5
3473.715	198.5
3476.618	176.5
3479.519	189.5
3482.418	153.5
3485.315	157.5
3488.209	160.5
3491.101	150.5
3493.99	141.5
3496.878	146.5
3499.763	147.5
3502.646	143.5
3505.527	135.5
3508.405	132.5
3511.281	119.5
3514.155	122.5
3517.027	118.5
3519.897	108.5
3522.764	111.5
3525.629	96.5
3528.492	98.5
3531.352	100.5
3534.211	86.5
3537.067	80.5
3539.921	88.5
3542.773	84.5
3545.622	69.5
3548.469	59.5
3551.315	60.5
3554.157	67.5
3556.998	50.5
3559.837	52.5
3562.673	57.5
3565.507	47.5
3568.339	47.5
3571.169	41.5
3573.996	43.5
3576.822	26.5
3579.645	21.5
3582.466	27.5
3585.285	40.5
3588.101	29.5
3590.916	28.5
3593.728	32.5
3596.538	20.5
3599.346	24.5
3602.152	17.5
3604.956	21.5
3607.757	27.5
3610.556	4.5
3613.354	20.5
3616.149	11.5
3618.942	11.5
3621.732	10.5
3624.521	2.5
3627.307	-6.5
3630.092	-1.5
3632.874	16.5
3635.654	3.5
3638.432	-13.5
3641.208	-7.5
3643.982	-3.5
3646.753	5.5
3649.523	-21.5
3652.29	-12.5
3655.055	-5.5
3657.818	-3.5
3660.579	-6.5
3663.338	-22.5
3666.095	-17.5
3668.849	-38.5
3671.602	-6.5
3674.352	-24.5
3677.101	-6.5
3679.847	-7.5
3682.591	-27.5
3685.333	-29.5
3688.073	-12.5
3690.811	-30.5
3693.547	-33.5
3696.281	-28.5
3699.013	-22.5
3701.742	-23.5
3704.47	-34.5
3707.195	-16.5
3709.919	-19.5
3712.64	-17.5
3715.359	-30.5
3718.076	-11.5
3720.792	-28.5
3723.505	-16.5
3726.216	-10.5
3728.925	-25.5
3731.632	-30.5
3734.336	-22.5
3737.039	-24.5
3739.74	-18.5
3742.439	-44.5
3745.136	-20.5
3747.83	-22.5
3750.523	-20.5
3753.213	-88.5
3755.902	-26.5
3758.589	-42.5
3761.273	-29.5
3763.956	-17.5
3766.636	-40.5
3769.315	-16.5
3771.991	-29.5
3774.665	-28.5
3777.338	-30.5
3780.008	-34.5
3782.677	-31.5
3785.343	-38.5
3788.007	-39.5
3790.67	-19.5
3793.33	-37.5
3795.989	-30.5
3798.645	-29.5
3801.299	-45.5
3803.952	-38.5
3806.602	-28.5
3809.251	-24.5
3811.897	-27.5
3814.542	-30.5
3817.184	-32.5
3819.825	-33.5
3822.463	-43.5
3825.1	-32.5
3827.735	-27.5
3830.367	-37.5
3832.998	-16.5
3835.627	-34.5
3838.253	-23.5
3840.878	-30.5
3843.501	-17.5
3846.122	-26.5
3848.741	-25.5
3851.358	-20.5
3853.973	-42.5
3856.586	-20.5
3859.197	-33.5
3861.806	-31.5
3864.414	-45.5
3867.019	-34.5
3869.622	-21.5
3872.224	-29.5
3874.823	-28.5
3877.421	-15.5
3880.016	-20.5
3882.61	3.5
3885.202	13.5
3887.792	4.5
3890.38	-8.5
3892.966	-23.5
3895.55	-40.5
3898.132	-24.5
3900.713	-24.5
3903.291	-32.5
3905.868	-41.5
3908.442	-27.5
3911.015	-36.5
3913.586	-38.5
3916.155	-37.5
3918.722	-39.5
3921.287	-36.5
3923.85	-46.5
3926.411	-39.5
3928.971	-38.5
3931.528	-27.5
3934.084	-41.5
3936.638	-41.5
3939.19	-28.5
3941.74	-30.5
3944.288	-34.5
3946.834	-34.5
3949.378	-27.5
3951.921	-37.5
3954.462	-38.5
3957	-32.5
3959.537	-26.5
3962.072	-39.5
3964.606	-50.5
3967.137	-34.5
3969.667	-34.5
3972.194	-23.5
3974.72	-35.5
3977.244	-55.5
3979.766	-38.5
3982.286	-40.5
3984.805	-27.5
3987.321	-24.5
3989.836	-23.5
3992.349	-38.5
3994.86	-31.5
3997.369	-36.5
3999.877	-36.5
4002.382	-37.5
4004.886	-30.5
4007.388	-29.5
4009.888	-26.5
4012.386	-25.5
4014.883	-30.5
4017.377	-32.5
4019.87	-27.5
4022.361	-38.5
4024.85	-30.5
4027.338	-31.5
4029.823	-40.5
4032.307	-32.5
4034.789	-34.5
4037.269	-33.5
4039.747	-47.5
4042.224	-22.5
4044.699	-40.5
4047.172	-34.5
4049.643	-27.5
4052.112	-52.5
4054.58	-30.5
4057.046	-45.5
4059.51	-31.5
4061.972	-33.5
4064.432	-53.5
4066.891	-17.5
4069.348	-33.5
4071.803	-26.5
4074.256	-34.5
4076.708	-24.5
4079.158	-27.5
4081.606	-21.5
4084.052	-32.5
4086.497	-25.5
4088.939	-30.5
4091.38	-30.5
4093.819	-25.5
4096.257	-0.5
4098.693	-4.5
4101.127	-4.5
4103.559	1.5
4105.989	24.5
4108.418	29.5
4110.845	18.5
4113.27	36.5
4115.694	51.5
4118.115	38.5
4120.535	-28.5
4122.954	-23.5
4125.37	-16.5
4127.785	-25.5
4130.198	-23.5
4132.609	-24.5
4135.019	8.5
4137.427	0.5
4139.833	4.5
4142.237	-5.5
