Data from 2018-3-6_conc=4_n=4_RamanShift_02.txt Node
Date: Tue Mar 06 13:59:49 GMT+02:00 2018
User: LAB3
Spectrometer: QEPB0276
Trigger mode: 0
Integration Time (sec): 3.000000E1
Scans to average: 1
Electric dark correction enabled: true
Nonlinearity correction enabled: false
Boxcar width: 0
XAxis mode: Raman Shifts
Number of Pixels in Spectrum: 1044
>>>>>Begin Spectral Data<<<<<
160.701	96.75
166.742	129.75
172.777	182.75
178.805	365.75
184.826	835.75
190.841	1649.75
196.849	2563.75
202.85	3261.75
208.845	3504.75
214.833	3495.75
220.815	3418.75
226.789	3416.75
232.758	3425.75
238.719	3395.75
244.674	3383.75
250.623	3318.75
256.565	3319.75
262.5	3263.75
268.429	3227.75
274.351	3184.75
280.267	3188.75
286.176	3190.75
292.079	3180.75
297.975	3180.75
303.865	3189.75
309.748	3156.75
315.625	3180.75
321.495	3178.75
327.359	3160.75
333.217	3166.75
339.068	3182.75
344.912	3170.75
350.751	3192.75
356.583	3199.75
362.408	3212.75
368.227	3235.75
374.04	3239.75
379.847	3241.75
385.647	3276.75
391.44	3268.75
397.228	3282.75
403.009	3306.75
408.784	3320.75
414.553	3349.75
420.315	3345.75
426.071	3315.75
431.821	3325.75
437.565	3333.75
443.302	3339.75
449.033	3291.75
454.758	3286.75
460.477	3262.75
466.189	3227.75
471.896	3219.75
477.596	3170.75
483.29	3169.75
488.978	3142.75
494.66	3131.75
500.335	3039.75
506.005	2943.75
511.668	2790.75
517.325	2660.75
522.977	2560.75
528.622	2480.75
534.261	2428.75
539.894	2389.75
545.521	2348.75
551.141	2313.75
556.756	2299.75
562.365	2290.75
567.968	2258.75
573.565	2240.75
579.155	2242.75
584.74	2228.75
590.319	2226.75
595.892	2232.75
601.459	2220.75
607.02	2228.75
612.575	2196.75
618.124	2170.75
623.667	2133.75
629.204	2088.75
634.735	2087.75
640.261	2046.75
645.781	2023.75
651.294	2026.75
656.802	2012.75
662.304	2020.75
667.8	2022.75
673.29	2004.75
678.775	1997.75
684.254	1986.75
689.726	1973.75
695.193	1966.75
700.655	1970.75
706.11	1944.75
711.56	1935.75
717.004	1929.75
722.442	1887.75
727.874	1920.75
733.301	1923.75
738.722	1869.75
744.137	1897.75
749.547	1885.75
754.951	1902.75
760.349	1878.75
765.741	1911.75
771.128	1922.75
776.509	1910.75
781.885	1959.75
787.254	1985.75
792.618	1980.75
797.977	1983.75
803.33	1958.75
808.677	1953.75
814.019	1926.75
819.355	1913.75
824.686	1900.75
830.011	1891.75
835.33	1886.75
840.644	1890.75
845.952	1847.75
851.255	1848.75
856.552	1827.75
861.844	1804.75
867.13	1784.75
872.41	1780.75
877.686	1772.75
882.955	1744.75
888.219	1720.75
893.478	1699.75
898.731	1680.75
903.979	1676.75
909.221	1654.75
914.458	1639.75
919.69	1647.75
924.916	1646.75
930.136	1640.75
935.351	1631.75
940.561	1648.75
945.766	1647.75
950.965	1638.75
956.158	1629.75
961.347	1610.75
966.529	1581.75
971.707	1575.75
976.879	1556.75
982.046	1533.75
987.208	1522.75
992.364	1545.75
997.515	1530.75
1002.66	1548.75
1007.801	1539.75
1012.936	1567.75
1018.066	1548.75
1023.19	1573.75
1028.309	1589.75
1033.423	1569.75
1038.532	1577.75
1043.636	1550.75
1048.734	1542.75
1053.827	1531.75
1058.915	1523.75
1063.998	1506.75
1069.075	1491.75
1074.147	1509.75
1079.214	1499.75
1084.276	1508.75
1089.333	1498.75
1094.385	1513.75
1099.431	1504.75
1104.472	1503.75
1109.509	1497.75
1114.54	1455.75
1119.565	1453.75
1124.586	1442.75
1129.602	1405.75
1134.613	1394.75
1139.618	1392.75
1144.619	1395.75
1149.614	1394.75
1154.604	1381.75
1159.589	1407.75
1164.57	1410.75
1169.545	1417.75
1174.515	1406.75
1179.48	1408.75
1184.44	1381.75
1189.395	1394.75
1194.345	1368.75
1199.29	1380.75
1204.23	1349.75
1209.165	1347.75
1214.095	1364.75
1219.021	1361.75
1223.941	1379.75
1228.856	1374.75
1233.766	1387.75
1238.672	1397.75
1243.572	1387.75
1248.467	1382.75
1253.358	1361.75
1258.244	1320.75
1263.124	1325.75
1268	1303.75
1272.871	1260.75
1277.737	1245.75
1282.599	1264.75
1287.455	1240.75
1292.306	1262.75
1297.153	1245.75
1301.995	1263.75
1306.832	1266.75
1311.664	1266.75
1316.491	1260.75
1321.314	1257.75
1326.132	1240.75
1330.945	1237.75
1335.753	1212.75
1340.556	1178.75
1345.354	1172.75
1350.148	1149.75
1354.937	1145.75
1359.722	1128.75
1364.501	1127.75
1369.276	1121.75
1374.046	1123.75
1378.811	1105.75
1383.572	1118.75
1388.327	1117.75
1393.079	1099.75
1397.825	1088.75
1402.567	1089.75
1407.304	1084.75
1412.036	1068.75
1416.764	1081.75
1421.487	1059.75
1426.205	1056.75
1430.919	1073.75
1435.628	1060.75
1440.333	1057.75
1445.032	1089.75
1449.727	1090.75
1454.418	1083.75
1459.104	1084.75
1463.785	1072.75
1468.462	1075.75
1473.134	1036.75
1477.802	1030.75
1482.465	1006.75
1487.123	1001.75
1491.777	981.75
1496.426	970.75
1501.071	999.75
1505.711	977.75
1510.347	1010.75
1514.978	996.75
1519.604	987.75
1524.226	999.75
1528.844	986.75
1533.457	985.75
1538.065	1000.75
1542.669	966.75
1547.269	969.75
1551.864	969.75
1556.454	945.75
1561.041	968.75
1565.622	956.75
1570.199	981.75
1574.772	971.75
1579.34	991.75
1583.904	1010.75
1588.464	1010.75
1593.019	1021.75
1597.569	991.75
1602.115	994.75
1606.657	989.75
1611.195	1004.75
1615.728	998.75
1620.256	983.75
1624.78	958.75
1629.3	975.75
1633.816	990.75
1638.327	971.75
1642.834	989.75
1647.336	994.75
1651.834	1003.75
1656.328	1016.75
1660.817	987.75
1665.302	971.75
1669.783	954.75
1674.259	938.75
1678.732	927.75
1683.199	905.75
1687.663	866.75
1692.122	863.75
1696.577	841.75
1701.028	819.75
1705.474	799.75
1709.917	781.75
1714.355	775.75
1718.788	773.75
1723.218	767.75
1727.643	751.75
1732.064	749.75
1736.481	726.75
1740.893	726.75
1745.301	698.75
1749.705	675.75
1754.105	676.75
1758.501	664.75
1762.893	664.75
1767.28	636.75
1771.663	638.75
1776.042	628.75
1780.417	616.75
1784.787	623.75
1789.154	628.75
1793.516	605.75
1797.874	622.75
1802.228	610.75
1806.578	599.75
1810.924	625.75
1815.266	488.75
1819.603	605.75
1823.937	592.75
1828.266	587.75
1832.591	589.75
1836.913	588.75
1841.23	570.75
1845.543	566.75
1849.852	578.75
1854.156	557.75
1858.457	566.75
1862.754	563.75
1867.047	584.75
1871.335	569.75
1875.62	572.75
1879.9	564.75
1884.177	569.75
1888.449	569.75
1892.718	562.75
1896.982	573.75
1901.243	549.75
1905.499	543.75
1909.752	538.75
1914	511.75
1918.245	537.75
1922.485	546.75
1926.722	536.75
1930.954	533.75
1935.183	552.75
1939.408	550.75
1943.628	538.75
1947.845	534.75
1952.058	534.75
1956.267	524.75
1960.472	524.75
1964.673	510.75
1968.87	505.75
1973.063	499.75
1977.252	491.75
1981.438	490.75
1985.619	478.75
1989.797	474.75
1993.971	476.75
1998.14	484.75
2002.306	481.75
2006.469	480.75
2010.627	471.75
2014.781	470.75
2018.932	469.75
2023.078	480.75
2027.221	459.75
2031.36	456.75
2035.495	460.75
2039.627	445.75
2043.754	448.75
2047.878	437.75
2051.998	429.75
2056.114	433.75
2060.226	434.75
2064.334	441.75
2068.439	445.75
2072.54	430.75
2076.637	420.75
2080.73	438.75
2084.82	430.75
2088.906	440.75
2092.988	430.75
2097.066	437.75
2101.14	430.75
2105.211	428.75
2109.278	415.75
2113.342	415.75
2117.401	400.75
2121.457	402.75
2125.509	383.75
2129.558	402.75
2133.602	389.75
2137.643	395.75
2141.681	387.75
2145.714	403.75
2149.744	393.75
2153.77	383.75
2157.793	373.75
2161.812	341.75
2165.827	351.75
2169.838	370.75
2173.846	353.75
2177.851	346.75
2181.851	351.75
2185.848	344.75
2189.841	343.75
2193.831	339.75
2197.817	351.75
2201.799	338.75
2205.778	318.75
2209.753	330.75
2213.725	319.75
2217.693	330.75
2221.657	315.75
2225.618	335.75
2229.575	320.75
2233.529	319.75
2237.479	315.75
2241.425	302.75
2245.368	294.75
2249.307	302.75
2253.243	298.75
2257.175	299.75
2261.104	286.75
2265.029	294.75
2268.95	285.75
2272.868	273.75
2276.783	271.75
2280.694	273.75
2284.601	271.75
2288.505	266.75
2292.405	278.75
2296.302	247.75
2300.195	264.75
2304.085	224.75
2307.971	253.75
2311.854	235.75
2315.734	243.75
2319.609	238.75
2323.482	217.75
2327.351	223.75
2331.216	231.75
2335.078	233.75
2338.937	222.75
2342.792	225.75
2346.643	220.75
2350.492	228.75
2354.336	224.75
2358.178	234.75
2362.015	222.75
2365.85	225.75
2369.681	224.75
2373.508	229.75
2377.333	231.75
2381.153	229.75
2384.971	222.75
2388.785	227.75
2392.595	213.75
2396.402	217.75
2400.206	194.75
2404.007	202.75
2407.804	210.75
2411.597	216.75
2415.388	208.75
2419.174	212.75
2422.958	208.75
2426.738	204.75
2430.515	200.75
2434.289	199.75
2438.059	192.75
2441.825	199.75
2445.589	205.75
2449.349	189.75
2453.106	188.75
2456.859	190.75
2460.61	191.75
2464.356	178.75
2468.1	180.75
2471.84	179.75
2475.577	169.75
2479.311	177.75
2483.041	180.75
2486.768	191.75
2490.492	187.75
2494.213	175.75
2497.93	165.75
2501.644	166.75
2505.355	174.75
2509.062	178.75
2512.766	177.75
2516.467	175.75
2520.165	177.75
2523.859	154.75
2527.551	186.75
2531.239	158.75
2534.923	166.75
2538.605	165.75
2542.283	167.75
2545.958	160.75
2549.63	172.75
2553.299	166.75
2556.964	153.75
2560.626	157.75
2564.285	165.75
2567.941	145.75
2571.594	147.75
2575.243	159.75
2578.89	151.75
2582.533	159.75
2586.173	147.75
2589.809	145.75
2593.443	119.75
2597.073	145.75
2600.701	148.75
2604.325	141.75
2607.946	132.75
2611.564	147.75
2615.178	147.75
2618.79	136.75
2622.398	133.75
2626.004	141.75
2629.606	136.75
2633.205	129.75
2636.801	133.75
2640.394	131.75
2643.983	129.75
2647.57	126.75
2651.153	121.75
2654.734	134.75
2658.311	103.75
2661.885	120.75
2665.456	114.75
2669.025	120.75
2672.589	103.75
2676.151	131.75
2679.71	128.75
2683.266	117.75
2686.819	104.75
2690.368	120.75
2693.915	117.75
2697.458	108.75
2700.999	118.75
2704.536	113.75
2708.071	105.75
2711.602	108.75
2715.13	103.75
2718.656	88.75
2722.178	109.75
2725.697	87.75
2729.214	94.75
2732.727	101.75
2736.237	84.75
2739.744	93.75
2743.249	93.75
2746.75	98.75
2750.248	91.75
2753.743	100.75
2757.236	92.75
2760.725	98.75
2764.211	67.75
2767.695	102.75
2771.175	92.75
2774.652	99.75
2778.127	88.75
2781.598	90.75
2785.067	98.75
2788.532	88.75
2791.995	91.75
2795.455	87.75
2798.911	94.75
2802.365	82.75
2805.816	93.75
2809.264	104.75
2812.709	89.75
2816.151	94.75
2819.59	78.75
2823.026	88.75
2826.46	91.75
2829.89	96.75
2833.318	71.75
2836.742	87.75
2840.164	90.75
2843.583	88.75
2846.999	95.75
2850.412	93.75
2853.822	87.75
2857.229	101.75
2860.634	102.75
2864.035	85.75
2867.434	94.75
2870.83	108.75
2874.223	89.75
2877.613	105.75
2881	99.75
2884.385	100.75
2887.766	110.75
2891.145	113.75
2894.521	110.75
2897.894	95.75
2901.264	108.75
2904.631	101.75
2907.996	118.75
2911.358	117.75
2914.717	114.75
2918.073	103.75
2921.426	104.75
2924.777	94.75
2928.124	104.75
2931.469	122.75
2934.811	105.75
2938.15	132.75
2941.487	125.75
2944.821	135.75
2948.152	118.75
2951.48	123.75
2954.805	108.75
2958.128	133.75
2961.447	118.75
2964.765	139.75
2968.079	119.75
2971.39	129.75
2974.699	130.75
2978.005	125.75
2981.308	126.75
2984.609	123.75
2987.907	133.75
2991.202	137.75
2994.494	124.75
2997.784	137.75
3001.07	126.75
3004.355	119.75
3007.636	134.75
3010.915	129.75
3014.191	141.75
3017.464	140.75
3020.734	137.75
3024.002	143.75
3027.267	144.75
3030.53	149.75
3033.789	149.75
3037.046	152.75
3040.301	140.75
3043.552	158.75
3046.801	159.75
3050.048	168.75
3053.291	188.75
3056.532	174.75
3059.771	165.75
3063.006	181.75
3066.239	177.75
3069.469	192.75
3072.697	187.75
3075.922	194.75
3079.144	200.75
3082.364	217.75
3085.581	209.75
3088.795	226.75
3092.007	227.75
3095.216	234.75
3098.423	225.75
3101.627	213.75
3104.828	239.75
3108.026	237.75
3111.222	260.75
3114.416	261.75
3117.607	257.75
3120.795	272.75
3123.98	271.75
3127.163	264.75
3130.344	278.75
3133.521	273.75
3136.696	291.75
3139.869	301.75
3143.039	283.75
3146.206	320.75
3149.371	310.75
3152.533	308.75
3155.693	311.75
3158.85	326.75
3162.005	321.75
3165.157	319.75
3168.306	325.75
3171.453	330.75
3174.597	314.75
3177.739	309.75
3180.878	335.75
3184.014	334.75
3187.149	328.75
3190.28	338.75
3193.409	340.75
3196.536	339.75
3199.659	342.75
3202.781	342.75
3205.9	327.75
3209.016	335.75
3212.13	331.75
3215.241	334.75
3218.35	326.75
3221.456	321.75
3224.56	310.75
3227.661	321.75
3230.76	318.75
3233.856	301.75
3236.95	309.75
3240.041	307.75
3243.13	316.75
3246.216	310.75
3249.3	310.75
3252.382	305.75
3255.46	302.75
3258.537	251.75
3261.611	283.75
3264.682	304.75
3267.751	288.75
3270.818	278.75
3273.882	298.75
3276.943	288.75
3280.002	300.75
3283.059	277.75
3286.113	286.75
3289.165	272.75
3292.214	270.75
3295.261	287.75
3298.306	261.75
3301.348	269.75
3304.387	259.75
3307.425	267.75
3310.459	268.75
3313.492	275.75
3316.521	261.75
3319.549	268.75
3322.574	259.75
3325.597	255.75
3328.617	242.75
3331.635	245.75
3334.65	220.75
3337.663	249.75
3340.674	243.75
3343.682	243.75
3346.688	254.75
3349.691	233.75
3352.692	241.75
3355.691	247.75
3358.687	245.75
3361.681	235.75
3364.673	233.75
3367.662	239.75
3370.649	235.75
3373.633	221.75
3376.615	237.75
3379.595	204.75
3382.572	216.75
3385.547	206.75
3388.52	210.75
3391.49	209.75
3394.458	206.75
3397.424	210.75
3400.387	194.75
3403.348	204.75
3406.307	204.75
3409.263	194.75
3412.217	204.75
3415.168	191.75
3418.118	201.75
3421.065	186.75
3424.009	196.75
3426.951	188.75
3429.891	178.75
3432.829	185.75
3435.764	174.75
3438.697	163.75
3441.628	183.75
3444.557	158.75
3447.483	149.75
3450.407	159.75
3453.328	148.75
3456.247	144.75
3459.164	133.75
3462.079	147.75
3464.991	132.75
3467.902	126.75
3470.809	128.75
3473.715	131.75
3476.618	115.75
3479.519	119.75
3482.418	97.75
3485.315	111.75
3488.209	99.75
3491.101	100.75
3493.99	87.75
3496.878	87.75
3499.763	90.75
3502.646	90.75
3505.527	80.75
3508.405	81.75
3511.281	60.75
3514.155	76.75
3517.027	68.75
3519.897	58.75
3522.764	66.75
3525.629	43.75
3528.492	59.75
3531.352	58.75
3534.211	47.75
3537.067	46.75
3539.921	46.75
3542.773	46.75
3545.622	33.75
3548.469	24.75
3551.315	29.75
3554.157	31.75
3556.998	20.75
3559.837	27.75
3562.673	32.75
3565.507	21.75
3568.339	12.75
3571.169	26.75
3573.996	21.75
3576.822	6.75
3579.645	7.75
3582.466	5.75
3585.285	15.75
3588.101	15.75
3590.916	7.75
3593.728	17.75
3596.538	10.75
3599.346	9.75
3602.152	-0.25
3604.956	6.75
3607.757	2.75
3610.556	-10.25
3613.354	10.75
3616.149	-0.25
3618.942	1.75
3621.732	5.75
3624.521	-2.25
3627.307	-10.25
3630.092	-13.25
3632.874	7.75
3635.654	-7.25
3638.432	-10.25
3641.208	-8.25
3643.982	-9.25
3646.753	-3.25
3649.523	-37.25
3652.29	-13.25
3655.055	-10.25
3657.818	-6.25
3660.579	-17.25
3663.338	-24.25
3666.095	-12.25
3668.849	-42.25
3671.602	-8.25
3674.352	-30.25
3677.101	-7.25
3679.847	-10.25
3682.591	-29.25
3685.333	-27.25
3688.073	-22.25
3690.811	-30.25
3693.547	-31.25
3696.281	-33.25
3699.013	-17.25
3701.742	-26.25
3704.47	-36.25
3707.195	-21.25
3709.919	-25.25
3712.64	-24.25
3715.359	-36.25
3718.076	-13.25
3720.792	-30.25
3723.505	-24.25
3726.216	-18.25
3728.925	-30.25
3731.632	-34.25
3734.336	-26.25
3737.039	-23.25
3739.74	-25.25
3742.439	-45.25
3745.136	-18.25
3747.83	-23.25
3750.523	-21.25
3753.213	-86.25
3755.902	-31.25
3758.589	-40.25
3761.273	-34.25
3763.956	-23.25
3766.636	-40.25
3769.315	-18.25
3771.991	-31.25
3774.665	-33.25
3777.338	-29.25
3780.008	-42.25
3782.677	-29.25
3785.343	-40.25
3788.007	-48.25
3790.67	-26.25
3793.33	-39.25
3795.989	-35.25
3798.645	-25.25
3801.299	-38.25
3803.952	-42.25
3806.602	-35.25
3809.251	-26.25
3811.897	-27.25
3814.542	-31.25
3817.184	-37.25
3819.825	-30.25
3822.463	-43.25
3825.1	-32.25
3827.735	-30.25
3830.367	-41.25
3832.998	-22.25
3835.627	-33.25
3838.253	-22.25
3840.878	-34.25
3843.501	-14.25
3846.122	-29.25
3848.741	-28.25
3851.358	-28.25
3853.973	-43.25
3856.586	-23.25
3859.197	-34.25
3861.806	-33.25
3864.414	-39.25
3867.019	-32.25
3869.622	-21.25
3872.224	-18.25
3874.823	-7.25
3877.421	20.75
3880.016	33.75
3882.61	77.75
3885.202	88.75
3887.792	61.75
3890.38	33.75
3892.966	-12.25
3895.55	-30.25
3898.132	-22.25
3900.713	-22.25
3903.291	-26.25
3905.868	-40.25
3908.442	-32.25
3911.015	-28.25
3913.586	-36.25
3916.155	-35.25
3918.722	-39.25
3921.287	-34.25
3923.85	-44.25
3926.411	-42.25
3928.971	-38.25
3931.528	-28.25
3934.084	-35.25
3936.638	-41.25
3939.19	-30.25
3941.74	-31.25
3944.288	-36.25
3946.834	-35.25
3949.378	-25.25
3951.921	-36.25
3954.462	-32.25
3957	-29.25
3959.537	-15.25
3962.072	-37.25
3964.606	-45.25
3967.137	-34.25
3969.667	-38.25
3972.194	-27.25
3974.72	-39.25
3977.244	-54.25
3979.766	-43.25
3982.286	-48.25
3984.805	-32.25
3987.321	-21.25
3989.836	-29.25
3992.349	-34.25
3994.86	-33.25
3997.369	-39.25
3999.877	-33.25
4002.382	-31.25
4004.886	-30.25
4007.388	-33.25
4009.888	-25.25
4012.386	-25.25
4014.883	-30.25
4017.377	-30.25
4019.87	-29.25
4022.361	-37.25
4024.85	-28.25
4027.338	-29.25
4029.823	-39.25
4032.307	-34.25
4034.789	-32.25
4037.269	-30.25
4039.747	-48.25
4042.224	-24.25
4044.699	-41.25
4047.172	-36.25
4049.643	-26.25
4052.112	-54.25
4054.58	-35.25
4057.046	-44.25
4059.51	-30.25
4061.972	-32.25
4064.432	-49.25
4066.891	-17.25
4069.348	-36.25
4071.803	-26.25
4074.256	-32.25
4076.708	-27.25
4079.158	-29.25
4081.606	-21.25
4084.052	-32.25
4086.497	-25.25
4088.939	-31.25
4091.38	-31.25
4093.819	-27.25
4096.257	1.75
4098.693	-6.25
4101.127	-5.25
4103.559	0.75
4105.989	93.75
4108.418	104.75
4110.845	83.75
4113.27	90.75
4115.694	101.75
4118.115	89.75
4120.535	-29.25
4122.954	-25.25
4125.37	-18.25
4127.785	-29.25
4130.198	-22.25
4132.609	-27.25
4135.019	9.75
4137.427	0.75
4139.833	4.75
4142.237	-6.25
