Data from 2018-3-6_conc=2_n=10_RamanShift_02.txt Node
Date: Tue Mar 06 13:10:49 GMT+02:00 2018
User: LAB3
Spectrometer: QEPB0276
Trigger mode: 0
Integration Time (sec): 3.000000E1
Scans to average: 1
Electric dark correction enabled: true
Nonlinearity correction enabled: false
Boxcar width: 0
XAxis mode: Raman Shifts
Number of Pixels in Spectrum: 1044
>>>>>Begin Spectral Data<<<<<
160.701	161.88
166.742	202.88
172.777	299.88
178.805	589.88
184.826	1349.88
190.841	2665.88
196.849	4252.88
202.85	5460.88
208.845	5889.88
214.833	5898.88
220.815	5807.88
226.789	5838.88
232.758	5877.88
238.719	5882.88
244.674	5863.88
250.623	5818.88
256.565	5749.88
262.5	5727.88
268.429	5712.88
274.351	5686.88
280.267	5646.88
286.176	5674.88
292.079	5700.88
297.975	5712.88
303.865	5705.88
309.748	5749.88
315.625	5743.88
321.495	5738.88
327.359	5748.88
333.217	5778.88
339.068	5790.88
344.912	5823.88
350.751	5834.88
356.583	5817.88
362.408	5917.88
368.227	5942.88
374.04	5926.88
379.847	6000.88
385.647	6010.88
391.44	6042.88
397.228	6047.88
403.009	6119.88
408.784	6119.88
414.553	6163.88
420.315	6164.88
426.071	6168.88
431.821	6161.88
437.565	6193.88
443.302	6162.88
449.033	6137.88
454.758	6118.88
460.477	6057.88
466.189	5991.88
471.896	5934.88
477.596	5921.88
483.29	5864.88
488.978	5869.88
494.66	5793.88
500.335	5649.88
506.005	5400.88
511.668	5126.88
517.325	4882.88
522.977	4666.88
528.622	4533.88
534.261	4422.88
539.894	4327.88
545.521	4250.88
551.141	4189.88
556.756	4145.88
562.365	4120.88
567.968	4081.88
573.565	4057.88
579.155	4035.88
584.74	4006.88
590.319	3991.88
595.892	3981.88
601.459	3994.88
607.02	3962.88
612.575	3966.88
618.124	3891.88
623.667	3822.88
629.204	3798.88
634.735	3724.88
640.261	3698.88
645.781	3663.88
651.294	3631.88
656.802	3636.88
662.304	3618.88
667.8	3635.88
673.29	3599.88
678.775	3590.88
684.254	3573.88
689.726	3558.88
695.193	3559.88
700.655	3538.88
706.11	3510.88
711.56	3489.88
717.004	3471.88
722.442	3452.88
727.874	3434.88
733.301	3430.88
738.722	3388.88
744.137	3427.88
749.547	3377.88
754.951	3401.88
760.349	3390.88
765.741	3428.88
771.128	3460.88
776.509	3495.88
781.885	3562.88
787.254	3590.88
792.618	3558.88
797.977	3554.88
803.33	3558.88
808.677	3537.88
814.019	3498.88
819.355	3464.88
824.686	3439.88
830.011	3408.88
835.33	3406.88
840.644	3382.88
845.952	3345.88
851.255	3335.88
856.552	3296.88
861.844	3260.88
867.13	3210.88
872.41	3193.88
877.686	3151.88
882.955	3153.88
888.219	3107.88
893.478	3068.88
898.731	3015.88
903.979	3002.88
909.221	2954.88
914.458	2936.88
919.69	2931.88
924.916	2942.88
930.136	2946.88
935.351	2964.88
940.561	2964.88
945.766	2941.88
950.965	2919.88
956.158	2899.88
961.347	2873.88
966.529	2835.88
971.707	2813.88
976.879	2759.88
982.046	2736.88
987.208	2706.88
992.364	2705.88
997.515	2737.88
1002.66	2773.88
1007.801	2777.88
1012.936	2791.88
1018.066	2770.88
1023.19	2821.88
1028.309	2835.88
1033.423	2814.88
1038.532	2825.88
1043.636	2804.88
1048.734	2793.88
1053.827	2769.88
1058.915	2731.88
1063.998	2720.88
1069.075	2708.88
1074.147	2712.88
1079.214	2698.88
1084.276	2725.88
1089.333	2743.88
1094.385	2718.88
1099.431	2727.88
1104.472	2717.88
1109.509	2677.88
1114.54	2650.88
1119.565	2598.88
1124.586	2579.88
1129.602	2536.88
1134.613	2512.88
1139.618	2495.88
1144.619	2493.88
1149.614	2510.88
1154.604	2507.88
1159.589	2506.88
1164.57	2529.88
1169.545	2565.88
1174.515	2537.88
1179.48	2496.88
1184.44	2513.88
1189.395	2491.88
1194.345	2464.88
1199.29	2449.88
1204.23	2439.88
1209.165	2435.88
1214.095	2471.88
1219.021	2442.88
1223.941	2460.88
1228.856	2475.88
1233.766	2487.88
1238.672	2481.88
1243.572	2495.88
1248.467	2448.88
1253.358	2417.88
1258.244	2386.88
1263.124	2379.88
1268	2335.88
1272.871	2256.88
1277.737	2256.88
1282.599	2258.88
1287.455	2236.88
1292.306	2248.88
1297.153	2244.88
1301.995	2266.88
1306.832	2275.88
1311.664	2282.88
1316.491	2245.88
1321.314	2286.88
1326.132	2222.88
1330.945	2205.88
1335.753	2179.88
1340.556	2145.88
1345.354	2104.88
1350.148	2055.88
1354.937	2051.88
1359.722	2018.88
1364.501	2002.88
1369.276	1994.88
1374.046	2030.88
1378.811	2005.88
1383.572	2012.88
1388.327	1999.88
1393.079	1974.88
1397.825	1962.88
1402.567	1949.88
1407.304	1931.88
1412.036	1929.88
1416.764	1915.88
1421.487	1895.88
1426.205	1930.88
1430.919	1919.88
1435.628	1928.88
1440.333	1939.88
1445.032	1953.88
1449.727	1957.88
1454.418	1965.88
1459.104	1962.88
1463.785	1945.88
1468.462	1925.88
1473.134	1861.88
1477.802	1870.88
1482.465	1801.88
1487.123	1804.88
1491.777	1771.88
1496.426	1764.88
1501.071	1813.88
1505.711	1785.88
1510.347	1829.88
1514.978	1804.88
1519.604	1822.88
1524.226	1838.88
1528.844	1786.88
1533.457	1803.88
1538.065	1789.88
1542.669	1760.88
1547.269	1765.88
1551.864	1740.88
1556.454	1718.88
1561.041	1737.88
1565.622	1742.88
1570.199	1743.88
1574.772	1755.88
1579.34	1790.88
1583.904	1797.88
1588.464	1802.88
1593.019	1803.88
1597.569	1791.88
1602.115	1794.88
1606.657	1777.88
1611.195	1819.88
1615.728	1772.88
1620.256	1769.88
1624.78	1755.88
1629.3	1764.88
1633.816	1783.88
1638.327	1771.88
1642.834	1793.88
1647.336	1808.88
1651.834	1817.88
1656.328	1839.88
1660.817	1803.88
1665.302	1775.88
1669.783	1775.88
1674.259	1733.88
1678.732	1693.88
1683.199	1665.88
1687.663	1607.88
1692.122	1580.88
1696.577	1544.88
1701.028	1530.88
1705.474	1484.88
1709.917	1465.88
1714.355	1462.88
1718.788	1421.88
1723.218	1415.88
1727.643	1392.88
1732.064	1380.88
1736.481	1354.88
1740.893	1348.88
1745.301	1280.88
1749.705	1273.88
1754.105	1246.88
1758.501	1230.88
1762.893	1225.88
1767.28	1150.88
1771.663	1163.88
1776.042	1164.88
1780.417	1154.88
1784.787	1150.88
1789.154	1146.88
1793.516	1149.88
1797.874	1147.88
1802.228	1137.88
1806.578	1144.88
1810.924	1146.88
1815.266	1052.88
1819.603	1106.88
1823.937	1096.88
1828.266	1083.88
1832.591	1094.88
1836.913	1077.88
1841.23	1054.88
1845.543	1054.88
1849.852	1071.88
1854.156	1062.88
1858.457	1068.88
1862.754	1042.88
1867.047	1047.88
1871.335	1072.88
1875.62	1078.88
1879.9	1062.88
1884.177	1066.88
1888.449	1060.88
1892.718	1053.88
1896.982	1053.88
1901.243	1024.88
1905.499	1025.88
1909.752	1026.88
1914	996.88
1918.245	1036.88
1922.485	1036.88
1926.722	1029.88
1930.954	1012.88
1935.183	1044.88
1939.408	1047.88
1943.628	1051.88
1947.845	1021.88
1952.058	1008.88
1956.267	990.88
1960.472	995.88
1964.673	976.88
1968.87	967.88
1973.063	939.88
1977.252	934.88
1981.438	917.88
1985.619	903.88
1989.797	899.88
1993.971	895.88
1998.14	894.88
2002.306	892.88
2006.469	909.88
2010.627	875.88
2014.781	872.88
2018.932	867.88
2023.078	896.88
2027.221	867.88
2031.36	849.88
2035.495	837.88
2039.627	854.88
2043.754	844.88
2047.878	818.88
2051.998	803.88
2056.114	809.88
2060.226	808.88
2064.334	831.88
2068.439	827.88
2072.54	829.88
2076.637	814.88
2080.73	826.88
2084.82	838.88
2088.906	826.88
2092.988	825.88
2097.066	817.88
2101.14	834.88
2105.211	813.88
2109.278	787.88
2113.342	784.88
2117.401	758.88
2121.457	756.88
2125.509	751.88
2129.558	766.88
2133.602	748.88
2137.643	746.88
2141.681	739.88
2145.714	739.88
2149.744	740.88
2153.77	712.88
2157.793	710.88
2161.812	692.88
2165.827	685.88
2169.838	711.88
2173.846	670.88
2177.851	666.88
2181.851	681.88
2185.848	651.88
2189.841	641.88
2193.831	637.88
2197.817	638.88
2201.799	638.88
2205.778	624.88
2209.753	624.88
2213.725	613.88
2217.693	637.88
2221.657	600.88
2225.618	611.88
2229.575	614.88
2233.529	595.88
2237.479	606.88
2241.425	583.88
2245.368	568.88
2249.307	569.88
2253.243	561.88
2257.175	555.88
2261.104	547.88
2265.029	554.88
2268.95	536.88
2272.868	523.88
2276.783	509.88
2280.694	522.88
2284.601	519.88
2288.505	510.88
2292.405	500.88
2296.302	485.88
2300.195	486.88
2304.085	466.88
2307.971	486.88
2311.854	451.88
2315.734	460.88
2319.609	456.88
2323.482	433.88
2327.351	440.88
2331.216	435.88
2335.078	444.88
2338.937	434.88
2342.792	427.88
2346.643	432.88
2350.492	437.88
2354.336	424.88
2358.178	433.88
2362.015	434.88
2365.85	433.88
2369.681	424.88
2373.508	429.88
2377.333	443.88
2381.153	432.88
2384.971	423.88
2388.785	429.88
2392.595	413.88
2396.402	413.88
2400.206	386.88
2404.007	413.88
2407.804	399.88
2411.597	410.88
2415.388	397.88
2419.174	405.88
2422.958	405.88
2426.738	397.88
2430.515	410.88
2434.289	383.88
2438.059	387.88
2441.825	394.88
2445.589	387.88
2449.349	355.88
2453.106	385.88
2456.859	365.88
2460.61	372.88
2464.356	353.88
2468.1	350.88
2471.84	353.88
2475.577	347.88
2479.311	349.88
2483.041	348.88
2486.768	368.88
2490.492	372.88
2494.213	355.88
2497.93	333.88
2501.644	332.88
2505.355	338.88
2509.062	335.88
2512.766	348.88
2516.467	337.88
2520.165	334.88
2523.859	322.88
2527.551	353.88
2531.239	321.88
2534.923	333.88
2538.605	318.88
2542.283	324.88
2545.958	336.88
2549.63	332.88
2553.299	325.88
2556.964	313.88
2560.626	324.88
2564.285	322.88
2567.941	308.88
2571.594	299.88
2575.243	303.88
2578.89	301.88
2582.533	304.88
2586.173	303.88
2589.809	305.88
2593.443	271.88
2597.073	289.88
2600.701	291.88
2604.325	296.88
2607.946	275.88
2611.564	293.88
2615.178	284.88
2618.79	280.88
2622.398	266.88
2626.004	279.88
2629.606	272.88
2633.205	265.88
2636.801	275.88
2640.394	267.88
2643.983	260.88
2647.57	255.88
2651.153	254.88
2654.734	259.88
2658.311	237.88
2661.885	244.88
2665.456	236.88
2669.025	239.88
2672.589	240.88
2676.151	248.88
2679.71	243.88
2683.266	236.88
2686.819	230.88
2690.368	232.88
2693.915	235.88
2697.458	228.88
2700.999	231.88
2704.536	224.88
2708.071	219.88
2711.602	215.88
2715.13	212.88
2718.656	189.88
2722.178	207.88
2725.697	198.88
2729.214	200.88
2732.727	214.88
2736.237	190.88
2739.744	204.88
2743.249	193.88
2746.75	207.88
2750.248	197.88
2753.743	211.88
2757.236	207.88
2760.725	212.88
2764.211	174.88
2767.695	205.88
2771.175	205.88
2774.652	206.88
2778.127	201.88
2781.598	196.88
2785.067	197.88
2788.532	197.88
2791.995	197.88
2795.455	193.88
2798.911	211.88
2802.365	188.88
2805.816	203.88
2809.264	208.88
2812.709	196.88
2816.151	203.88
2819.59	187.88
2823.026	199.88
2826.46	194.88
2829.89	207.88
2833.318	186.88
2836.742	197.88
2840.164	201.88
2843.583	202.88
2846.999	197.88
2850.412	212.88
2853.822	196.88
2857.229	217.88
2860.634	213.88
2864.035	193.88
2867.434	210.88
2870.83	222.88
2874.223	213.88
2877.613	226.88
2881	219.88
2884.385	223.88
2887.766	226.88
2891.145	234.88
2894.521	221.88
2897.894	220.88
2901.264	229.88
2904.631	229.88
2907.996	235.88
2911.358	235.88
2914.717	235.88
2918.073	226.88
2921.426	233.88
2924.777	222.88
2928.124	242.88
2931.469	255.88
2934.811	245.88
2938.15	272.88
2941.487	256.88
2944.821	273.88
2948.152	264.88
2951.48	268.88
2954.805	246.88
2958.128	271.88
2961.447	253.88
2964.765	264.88
2968.079	261.88
2971.39	266.88
2974.699	273.88
2978.005	268.88
2981.308	277.88
2984.609	270.88
2987.907	281.88
2991.202	283.88
2994.494	276.88
2997.784	288.88
3001.07	282.88
3004.355	279.88
3007.636	287.88
3010.915	291.88
3014.191	293.88
3017.464	291.88
3020.734	298.88
3024.002	296.88
3027.267	296.88
3030.53	312.88
3033.789	299.88
3037.046	316.88
3040.301	305.88
3043.552	320.88
3046.801	333.88
3050.048	347.88
3053.291	366.88
3056.532	348.88
3059.771	344.88
3063.006	378.88
3066.239	374.88
3069.469	392.88
3072.697	389.88
3075.922	393.88
3079.144	402.88
3082.364	431.88
3085.581	430.88
3088.795	455.88
3092.007	458.88
3095.216	461.88
3098.423	467.88
3101.627	450.88
3104.828	488.88
3108.026	481.88
3111.222	512.88
3114.416	528.88
3117.607	523.88
3120.795	525.88
3123.98	541.88
3127.163	548.88
3130.344	557.88
3133.521	558.88
3136.696	597.88
3139.869	597.88
3143.039	581.88
3146.206	625.88
3149.371	626.88
3152.533	629.88
3155.693	624.88
3158.85	637.88
3162.005	643.88
3165.157	641.88
3168.306	640.88
3171.453	649.88
3174.597	624.88
3177.739	639.88
3180.878	647.88
3184.014	655.88
3187.149	654.88
3190.28	656.88
3193.409	671.88
3196.536	672.88
3199.659	671.88
3202.781	668.88
3205.9	657.88
3209.016	660.88
3212.13	656.88
3215.241	659.88
3218.35	657.88
3221.456	641.88
3224.56	640.88
3227.661	648.88
3230.76	632.88
3233.856	621.88
3236.95	638.88
3240.041	610.88
3243.13	605.88
3246.216	613.88
3249.3	623.88
3252.382	614.88
3255.46	595.88
3258.537	560.88
3261.611	586.88
3264.682	591.88
3267.751	590.88
3270.818	591.88
3273.882	596.88
3276.943	591.88
3280.002	605.88
3283.059	569.88
3286.113	571.88
3289.165	564.88
3292.214	560.88
3295.261	569.88
3298.306	532.88
3301.348	538.88
3304.387	520.88
3307.425	535.88
3310.459	525.88
3313.492	525.88
3316.521	516.88
3319.549	515.88
3322.574	505.88
3325.597	508.88
3328.617	486.88
3331.635	490.88
3334.65	476.88
3337.663	492.88
3340.674	486.88
3343.682	486.88
3346.688	491.88
3349.691	473.88
3352.692	485.88
3355.691	481.88
3358.687	470.88
3361.681	476.88
3364.673	466.88
3367.662	488.88
3370.649	472.88
3373.633	443.88
3376.615	449.88
3379.595	435.88
3382.572	436.88
3385.547	417.88
3388.52	428.88
3391.49	417.88
3394.458	413.88
3397.424	421.88
3400.387	402.88
3403.348	409.88
3406.307	409.88
3409.263	402.88
3412.217	399.88
3415.168	397.88
3418.118	401.88
3421.065	388.88
3424.009	391.88
3426.951	373.88
3429.891	375.88
3432.829	371.88
3435.764	370.88
3438.697	344.88
3441.628	358.88
3444.557	329.88
3447.483	322.88
3450.407	325.88
3453.328	311.88
3456.247	300.88
3459.164	289.88
3462.079	303.88
3464.991	287.88
3467.902	282.88
3470.809	268.88
3473.715	274.88
3476.618	255.88
3479.519	250.88
3482.418	229.88
3485.315	223.88
3488.209	219.88
3491.101	227.88
3493.99	210.88
3496.878	202.88
3499.763	208.88
3502.646	207.88
3505.527	182.88
3508.405	186.88
3511.281	174.88
3514.155	175.88
3517.027	170.88
3519.897	152.88
3522.764	157.88
3525.629	130.88
3528.492	144.88
3531.352	133.88
3534.211	126.88
3537.067	124.88
3539.921	130.88
3542.773	124.88
3545.622	102.88
3548.469	96.88
3551.315	93.88
3554.157	100.88
3556.998	87.88
3559.837	84.88
3562.673	90.88
3565.507	73.88
3568.339	68.88
3571.169	72.88
3573.996	74.88
3576.822	50.88
3579.645	52.88
3582.466	48.88
3585.285	66.88
3588.101	57.88
3590.916	44.88
3593.728	54.88
3596.538	44.88
3599.346	48.88
3602.152	37.88
3604.956	34.88
3607.757	38.88
3610.556	19.88
3613.354	36.88
3616.149	37.88
3618.942	29.88
3621.732	37.88
3624.521	23.88
3627.307	14.88
3630.092	11.88
3632.874	26.88
3635.654	17.88
3638.432	11.88
3641.208	12.88
3643.982	9.88
3646.753	14.88
3649.523	-15.12
3652.29	6.88
3655.055	6.88
3657.818	7.88
3660.579	1.88
3663.338	-7.12
3666.095	-7.12
3668.849	-30.12
3671.602	-1.12
3674.352	-12.12
3677.101	2.88
3679.847	1.88
3682.591	-15.12
3685.333	-18.12
3688.073	-7.12
3690.811	-19.12
3693.547	-25.12
3696.281	-24.12
3699.013	-11.12
3701.742	-13.12
3704.47	-22.12
3707.195	-11.12
3709.919	-12.12
3712.64	-11.12
3715.359	-24.12
3718.076	-5.12
3720.792	-20.12
3723.505	-13.12
3726.216	-6.12
3728.925	-22.12
3731.632	-24.12
3734.336	-21.12
3737.039	-21.12
3739.74	-16.12
3742.439	-41.12
3745.136	-13.12
3747.83	-15.12
3750.523	-19.12
3753.213	-84.12
3755.902	-25.12
3758.589	-35.12
3761.273	-30.12
3763.956	-16.12
3766.636	-39.12
3769.315	-15.12
3771.991	-30.12
3774.665	-31.12
3777.338	-26.12
3780.008	-37.12
3782.677	-25.12
3785.343	-43.12
3788.007	-46.12
3790.67	-23.12
3793.33	-42.12
3795.989	-33.12
3798.645	-25.12
3801.299	-39.12
3803.952	-39.12
3806.602	-34.12
3809.251	-22.12
3811.897	-27.12
3814.542	-33.12
3817.184	-30.12
3819.825	-26.12
3822.463	-44.12
3825.1	-34.12
3827.735	-27.12
3830.367	-39.12
3832.998	-20.12
3835.627	-35.12
3838.253	-21.12
3840.878	-33.12
3843.501	-16.12
3846.122	-23.12
3848.741	-26.12
3851.358	-20.12
3853.973	-41.12
3856.586	-20.12
3859.197	-35.12
3861.806	-33.12
3864.414	-42.12
3867.019	-28.12
3869.622	-15.12
3872.224	-17.12
3874.823	3.88
3877.421	36.88
3880.016	61.88
3882.61	101.88
3885.202	130.88
3887.792	85.88
3890.38	50.88
3892.966	-0.12
3895.55	-24.12
3898.132	-17.12
3900.713	-25.12
3903.291	-27.12
3905.868	-37.12
3908.442	-27.12
3911.015	-31.12
3913.586	-38.12
3916.155	-32.12
3918.722	-39.12
3921.287	-39.12
3923.85	-46.12
3926.411	-39.12
3928.971	-41.12
3931.528	-31.12
3934.084	-36.12
3936.638	-46.12
3939.19	-28.12
3941.74	-31.12
3944.288	-32.12
3946.834	-33.12
3949.378	-27.12
3951.921	-40.12
3954.462	-37.12
3957	-32.12
3959.537	-20.12
3962.072	-33.12
3964.606	-49.12
3967.137	-41.12
3969.667	-36.12
3972.194	-26.12
3974.72	-33.12
3977.244	-55.12
3979.766	-38.12
3982.286	-38.12
3984.805	-25.12
3987.321	-25.12
3989.836	-27.12
3992.349	-33.12
3994.86	-33.12
3997.369	-41.12
3999.877	-35.12
4002.382	-35.12
4004.886	-28.12
4007.388	-32.12
4009.888	-21.12
4012.386	-23.12
4014.883	-24.12
4017.377	-31.12
4019.87	-28.12
4022.361	-36.12
4024.85	-28.12
4027.338	-30.12
4029.823	-37.12
4032.307	-33.12
4034.789	-27.12
4037.269	-31.12
4039.747	-43.12
4042.224	-23.12
4044.699	-35.12
4047.172	-33.12
4049.643	-25.12
4052.112	-51.12
4054.58	-24.12
4057.046	-41.12
4059.51	-31.12
4061.972	-28.12
4064.432	-43.12
4066.891	-18.12
4069.348	-32.12
4071.803	-26.12
4074.256	-33.12
4076.708	-25.12
4079.158	-31.12
4081.606	-18.12
4084.052	-30.12
4086.497	-25.12
4088.939	-29.12
4091.38	-32.12
4093.819	-26.12
4096.257	1.88
4098.693	-3.12
4101.127	-2.12
4103.559	0.88
4105.989	138.88
4108.418	150.88
4110.845	140.88
4113.27	142.88
4115.694	156.88
4118.115	144.88
4120.535	-28.12
4122.954	-25.12
4125.37	-16.12
4127.785	-25.12
4130.198	-23.12
4132.609	-31.12
4135.019	6.88
4137.427	-1.12
4139.833	4.88
4142.237	-8.12
