Data from 2018-3-6_conc=0_n=2_RamanShift_01.txt Node
Date: Tue Mar 06 12:10:19 GMT+02:00 2018
User: LAB3
Spectrometer: QEPB0276
Trigger mode: 0
Integration Time (sec): 3.000000E1
Scans to average: 1
Electric dark correction enabled: true
Nonlinearity correction enabled: false
Boxcar width: 0
XAxis mode: Raman Shifts
Number of Pixels in Spectrum: 1044
>>>>>Begin Spectral Data<<<<<
160.701	94.5
166.742	129.5
172.777	207.5
178.805	463.5
184.826	1149.5
190.841	2322.5
196.849	3711.5
202.85	4785.5
208.845	5214.5
214.833	5299.5
220.815	5258.5
226.789	5319.5
232.758	5426.5
238.719	5481.5
244.674	5510.5
250.623	5533.5
256.565	5542.5
262.5	5501.5
268.429	5502.5
274.351	5539.5
280.267	5545.5
286.176	5586.5
292.079	5616.5
297.975	5662.5
303.865	5664.5
309.748	5699.5
315.625	5680.5
321.495	5735.5
327.359	5733.5
333.217	5752.5
339.068	5800.5
344.912	5801.5
350.751	5815.5
356.583	5850.5
362.408	5853.5
368.227	5885.5
374.04	5913.5
379.847	5933.5
385.647	5957.5
391.44	5950.5
397.228	5989.5
403.009	6022.5
408.784	6069.5
414.553	6061.5
420.315	6109.5
426.071	6083.5
431.821	6130.5
437.565	6104.5
443.302	6092.5
449.033	6054.5
454.758	6058.5
460.477	6023.5
466.189	5953.5
471.896	5932.5
477.596	5901.5
483.29	5854.5
488.978	5869.5
494.66	5814.5
500.335	5701.5
506.005	5527.5
511.668	5341.5
517.325	5151.5
522.977	5005.5
528.622	4920.5
534.261	4805.5
539.894	4778.5
545.521	4718.5
551.141	4672.5
556.756	4631.5
562.365	4613.5
567.968	4585.5
573.565	4558.5
579.155	4544.5
584.74	4531.5
590.319	4509.5
595.892	4500.5
601.459	4535.5
607.02	4496.5
612.575	4457.5
618.124	4426.5
623.667	4347.5
629.204	4347.5
634.735	4282.5
640.261	4280.5
645.781	4228.5
651.294	4206.5
656.802	4203.5
662.304	4203.5
667.8	4216.5
673.29	4211.5
678.775	4190.5
684.254	4180.5
689.726	4144.5
695.193	4130.5
700.655	4074.5
706.11	4098.5
711.56	4102.5
717.004	4081.5
722.442	4049.5
727.874	4036.5
733.301	4040.5
738.722	4006.5
744.137	4016.5
749.547	3979.5
754.951	3970.5
760.349	3993.5
765.741	4015.5
771.128	4041.5
776.509	4048.5
781.885	4101.5
787.254	4114.5
792.618	4121.5
797.977	4131.5
803.33	4110.5
808.677	4081.5
814.019	4045.5
819.355	4018.5
824.686	3971.5
830.011	3967.5
835.33	3984.5
840.644	3956.5
845.952	3896.5
851.255	3913.5
856.552	3937.5
861.844	3892.5
867.13	3890.5
872.41	3901.5
877.686	3918.5
882.955	3935.5
888.219	3919.5
893.478	3792.5
898.731	3733.5
903.979	3649.5
909.221	3608.5
914.458	3568.5
919.69	3573.5
924.916	3582.5
930.136	3606.5
935.351	3595.5
940.561	3591.5
945.766	3595.5
950.965	3581.5
956.158	3532.5
961.347	3519.5
966.529	3475.5
971.707	3453.5
976.879	3419.5
982.046	3363.5
987.208	3349.5
992.364	3358.5
997.515	3355.5
1002.66	3390.5
1007.801	3407.5
1012.936	3452.5
1018.066	3438.5
1023.19	3481.5
1028.309	3496.5
1033.423	3487.5
1038.532	3524.5
1043.636	3501.5
1048.734	3484.5
1053.827	3444.5
1058.915	3416.5
1063.998	3359.5
1069.075	3350.5
1074.147	3344.5
1079.214	3359.5
1084.276	3397.5
1089.333	3417.5
1094.385	3435.5
1099.431	3427.5
1104.472	3403.5
1109.509	3337.5
1114.54	3308.5
1119.565	3278.5
1124.586	3207.5
1129.602	3176.5
1134.613	3146.5
1139.618	3131.5
1144.619	3140.5
1149.614	3141.5
1154.604	3154.5
1159.589	3168.5
1164.57	3176.5
1169.545	3181.5
1174.515	3154.5
1179.48	3140.5
1184.44	3138.5
1189.395	3129.5
1194.345	3100.5
1199.29	3084.5
1204.23	3054.5
1209.165	3062.5
1214.095	3101.5
1219.021	3106.5
1223.941	3132.5
1228.856	3121.5
1233.766	3137.5
1238.672	3152.5
1243.572	3143.5
1248.467	3123.5
1253.358	3074.5
1258.244	3020.5
1263.124	2993.5
1268	2954.5
1272.871	2912.5
1277.737	2901.5
1282.599	2897.5
1287.455	2910.5
1292.306	2876.5
1297.153	2904.5
1301.995	2920.5
1306.832	2914.5
1311.664	2930.5
1316.491	2905.5
1321.314	2919.5
1326.132	2892.5
1330.945	2836.5
1335.753	2785.5
1340.556	2748.5
1345.354	2675.5
1350.148	2679.5
1354.937	2600.5
1359.722	2562.5
1364.501	2566.5
1369.276	2588.5
1374.046	2578.5
1378.811	2557.5
1383.572	2576.5
1388.327	2551.5
1393.079	2557.5
1397.825	2529.5
1402.567	2534.5
1407.304	2472.5
1412.036	2478.5
1416.764	2505.5
1421.487	2486.5
1426.205	2497.5
1430.919	2512.5
1435.628	2537.5
1440.333	2545.5
1445.032	2596.5
1449.727	2594.5
1454.418	2620.5
1459.104	2621.5
1463.785	2575.5
1468.462	2530.5
1473.134	2484.5
1477.802	2449.5
1482.465	2379.5
1487.123	2370.5
1491.777	2331.5
1496.426	2323.5
1501.071	2345.5
1505.711	2338.5
1510.347	2346.5
1514.978	2339.5
1519.604	2348.5
1524.226	2358.5
1528.844	2323.5
1533.457	2318.5
1538.065	2302.5
1542.669	2297.5
1547.269	2256.5
1551.864	2244.5
1556.454	2238.5
1561.041	2232.5
1565.622	2226.5
1570.199	2257.5
1574.772	2245.5
1579.34	2280.5
1583.904	2280.5
1588.464	2281.5
1593.019	2313.5
1597.569	2256.5
1602.115	2253.5
1606.657	2243.5
1611.195	2228.5
1615.728	2220.5
1620.256	2188.5
1624.78	2160.5
1629.3	2185.5
1633.816	2182.5
1638.327	2177.5
1642.834	2205.5
1647.336	2204.5
1651.834	2227.5
1656.328	2233.5
1660.817	2214.5
1665.302	2206.5
1669.783	2174.5
1674.259	2153.5
1678.732	2122.5
1683.199	2051.5
1687.663	2006.5
1692.122	1965.5
1696.577	1927.5
1701.028	1896.5
1705.474	1885.5
1709.917	1866.5
1714.355	1850.5
1718.788	1836.5
1723.218	1826.5
1727.643	1816.5
1732.064	1786.5
1736.481	1771.5
1740.893	1776.5
1745.301	1733.5
1749.705	1679.5
1754.105	1668.5
1758.501	1619.5
1762.893	1612.5
1767.28	1560.5
1771.663	1577.5
1776.042	1553.5
1780.417	1542.5
1784.787	1544.5
1789.154	1551.5
1793.516	1544.5
1797.874	1538.5
1802.228	1521.5
1806.578	1507.5
1810.924	1518.5
1815.266	1422.5
1819.603	1479.5
1823.937	1467.5
1828.266	1468.5
1832.591	1441.5
1836.913	1448.5
1841.23	1437.5
1845.543	1429.5
1849.852	1431.5
1854.156	1429.5
1858.457	1444.5
1862.754	1429.5
1867.047	1444.5
1871.335	1455.5
1875.62	1447.5
1879.9	1439.5
1884.177	1433.5
1888.449	1424.5
1892.718	1408.5
1896.982	1413.5
1901.243	1388.5
1905.499	1395.5
1909.752	1369.5
1914	1360.5
1918.245	1371.5
1922.485	1382.5
1926.722	1368.5
1930.954	1359.5
1935.183	1369.5
1939.408	1367.5
1943.628	1369.5
1947.845	1363.5
1952.058	1332.5
1956.267	1307.5
1960.472	1314.5
1964.673	1273.5
1968.87	1263.5
1973.063	1243.5
1977.252	1219.5
1981.438	1201.5
1985.619	1189.5
1989.797	1170.5
1993.971	1171.5
1998.14	1198.5
2002.306	1167.5
2006.469	1183.5
2010.627	1152.5
2014.781	1175.5
2018.932	1170.5
2023.078	1166.5
2027.221	1143.5
2031.36	1124.5
2035.495	1114.5
2039.627	1108.5
2043.754	1092.5
2047.878	1078.5
2051.998	1073.5
2056.114	1064.5
2060.226	1077.5
2064.334	1081.5
2068.439	1085.5
2072.54	1094.5
2076.637	1081.5
2080.73	1082.5
2084.82	1090.5
2088.906	1076.5
2092.988	1065.5
2097.066	1077.5
2101.14	1075.5
2105.211	1062.5
2109.278	1034.5
2113.342	1031.5
2117.401	1013.5
2121.457	1008.5
2125.509	981.5
2129.558	1029.5
2133.602	991.5
2137.643	979.5
2141.681	966.5
2145.714	972.5
2149.744	961.5
2153.77	963.5
2157.793	939.5
2161.812	922.5
2165.827	916.5
2169.838	910.5
2173.846	899.5
2177.851	876.5
2181.851	884.5
2185.848	870.5
2189.841	862.5
2193.831	855.5
2197.817	854.5
2201.799	835.5
2205.778	826.5
2209.753	823.5
2213.725	822.5
2217.693	831.5
2221.657	821.5
2225.618	832.5
2229.575	818.5
2233.529	817.5
2237.479	819.5
2241.425	788.5
2245.368	769.5
2249.307	778.5
2253.243	756.5
2257.175	759.5
2261.104	744.5
2265.029	734.5
2268.95	732.5
2272.868	712.5
2276.783	718.5
2280.694	721.5
2284.601	708.5
2288.505	694.5
2292.405	704.5
2296.302	663.5
2300.195	674.5
2304.085	654.5
2307.971	658.5
2311.854	632.5
2315.734	632.5
2319.609	639.5
2323.482	607.5
2327.351	610.5
2331.216	620.5
2335.078	620.5
2338.937	610.5
2342.792	611.5
2346.643	608.5
2350.492	615.5
2354.336	607.5
2358.178	614.5
2362.015	611.5
2365.85	616.5
2369.681	618.5
2373.508	613.5
2377.333	617.5
2381.153	622.5
2384.971	620.5
2388.785	613.5
2392.595	591.5
2396.402	601.5
2400.206	570.5
2404.007	589.5
2407.804	596.5
2411.597	598.5
2415.388	585.5
2419.174	568.5
2422.958	579.5
2426.738	574.5
2430.515	573.5
2434.289	563.5
2438.059	559.5
2441.825	558.5
2445.589	566.5
2449.349	540.5
2453.106	550.5
2456.859	547.5
2460.61	549.5
2464.356	522.5
2468.1	523.5
2471.84	521.5
2475.577	521.5
2479.311	514.5
2483.041	521.5
2486.768	530.5
2490.492	525.5
2494.213	516.5
2497.93	500.5
2501.644	502.5
2505.355	501.5
2509.062	499.5
2512.766	499.5
2516.467	494.5
2520.165	487.5
2523.859	473.5
2527.551	511.5
2531.239	476.5
2534.923	473.5
2538.605	470.5
2542.283	471.5
2545.958	469.5
2549.63	483.5
2553.299	478.5
2556.964	451.5
2560.626	451.5
2564.285	457.5
2567.941	442.5
2571.594	441.5
2575.243	453.5
2578.89	441.5
2582.533	443.5
2586.173	435.5
2589.809	428.5
2593.443	403.5
2597.073	421.5
2600.701	425.5
2604.325	412.5
2607.946	405.5
2611.564	417.5
2615.178	413.5
2618.79	406.5
2622.398	398.5
2626.004	399.5
2629.606	393.5
2633.205	386.5
2636.801	388.5
2640.394	391.5
2643.983	371.5
2647.57	380.5
2651.153	364.5
2654.734	377.5
2658.311	341.5
2661.885	359.5
2665.456	366.5
2669.025	351.5
2672.589	342.5
2676.151	357.5
2679.71	358.5
2683.266	339.5
2686.819	338.5
2690.368	344.5
2693.915	337.5
2697.458	327.5
2700.999	327.5
2704.536	328.5
2708.071	320.5
2711.602	319.5
2715.13	314.5
2718.656	301.5
2722.178	312.5
2725.697	286.5
2729.214	297.5
2732.727	306.5
2736.237	289.5
2739.744	297.5
2743.249	287.5
2746.75	294.5
2750.248	292.5
2753.743	293.5
2757.236	285.5
2760.725	294.5
2764.211	256.5
2767.695	275.5
2771.175	269.5
2774.652	281.5
2778.127	264.5
2781.598	267.5
2785.067	273.5
2788.532	259.5
2791.995	270.5
2795.455	266.5
2798.911	275.5
2802.365	254.5
2805.816	267.5
2809.264	279.5
2812.709	263.5
2816.151	269.5
2819.59	264.5
2823.026	268.5
2826.46	275.5
2829.89	280.5
2833.318	256.5
2836.742	268.5
2840.164	270.5
2843.583	274.5
2846.999	274.5
2850.412	282.5
2853.822	270.5
2857.229	290.5
2860.634	287.5
2864.035	261.5
2867.434	301.5
2870.83	297.5
2874.223	285.5
2877.613	304.5
2881	305.5
2884.385	306.5
2887.766	314.5
2891.145	304.5
2894.521	308.5
2897.894	294.5
2901.264	304.5
2904.631	298.5
2907.996	305.5
2911.358	304.5
2914.717	295.5
2918.073	289.5
2921.426	293.5
2924.777	285.5
2928.124	303.5
2931.469	327.5
2934.811	322.5
2938.15	347.5
2941.487	337.5
2944.821	339.5
2948.152	311.5
2951.48	319.5
2954.805	297.5
2958.128	305.5
2961.447	290.5
2964.765	309.5
2968.079	289.5
2971.39	293.5
2974.699	295.5
2978.005	298.5
2981.308	297.5
2984.609	292.5
2987.907	300.5
2991.202	305.5
2994.494	286.5
2997.784	297.5
3001.07	291.5
3004.355	282.5
3007.636	279.5
3010.915	287.5
3014.191	273.5
3017.464	277.5
3020.734	286.5
3024.002	276.5
3027.267	272.5
3030.53	274.5
3033.789	278.5
3037.046	268.5
3040.301	265.5
3043.552	278.5
3046.801	283.5
3050.048	294.5
3053.291	307.5
3056.532	301.5
3059.771	290.5
3063.006	307.5
3066.239	312.5
3069.469	319.5
3072.697	310.5
3075.922	310.5
3079.144	321.5
3082.364	348.5
3085.581	337.5
3088.795	354.5
3092.007	363.5
3095.216	365.5
3098.423	357.5
3101.627	346.5
3104.828	377.5
3108.026	370.5
3111.222	393.5
3114.416	397.5
3117.607	398.5
3120.795	409.5
3123.98	409.5
3127.163	412.5
3130.344	416.5
3133.521	420.5
3136.696	447.5
3139.869	442.5
3143.039	433.5
3146.206	467.5
3149.371	466.5
3152.533	459.5
3155.693	450.5
3158.85	460.5
3162.005	459.5
3165.157	448.5
3168.306	460.5
3171.453	466.5
3174.597	456.5
3177.739	451.5
3180.878	464.5
3184.014	473.5
3187.149	466.5
3190.28	469.5
3193.409	473.5
3196.536	475.5
3199.659	478.5
3202.781	464.5
3205.9	463.5
3209.016	467.5
3212.13	467.5
3215.241	464.5
3218.35	471.5
3221.456	464.5
3224.56	443.5
3227.661	461.5
3230.76	446.5
3233.856	432.5
3236.95	456.5
3240.041	427.5
3243.13	445.5
3246.216	426.5
3249.3	440.5
3252.382	437.5
3255.46	421.5
3258.537	385.5
3261.611	410.5
3264.682	426.5
3267.751	416.5
3270.818	412.5
3273.882	427.5
3276.943	420.5
3280.002	425.5
3283.059	407.5
3286.113	405.5
3289.165	400.5
3292.214	387.5
3295.261	395.5
3298.306	373.5
3301.348	368.5
3304.387	368.5
3307.425	369.5
3310.459	357.5
3313.492	363.5
3316.521	349.5
3319.549	362.5
3322.574	358.5
3325.597	340.5
3328.617	324.5
3331.635	341.5
3334.65	325.5
3337.663	344.5
3340.674	333.5
3343.682	329.5
3346.688	341.5
3349.691	332.5
3352.692	325.5
3355.691	328.5
3358.687	325.5
3361.681	325.5
3364.673	310.5
3367.662	309.5
3370.649	321.5
3373.633	304.5
3376.615	304.5
3379.595	289.5
3382.572	297.5
3385.547	287.5
3388.52	280.5
3391.49	273.5
3394.458	281.5
3397.424	287.5
3400.387	263.5
3403.348	281.5
3406.307	271.5
3409.263	263.5
3412.217	272.5
3415.168	268.5
3418.118	271.5
3421.065	257.5
3424.009	268.5
3426.951	247.5
3429.891	241.5
3432.829	243.5
3435.764	245.5
3438.697	227.5
3441.628	239.5
3444.557	218.5
3447.483	216.5
3450.407	224.5
3453.328	201.5
3456.247	199.5
3459.164	188.5
3462.079	201.5
3464.991	187.5
3467.902	176.5
3470.809	173.5
3473.715	179.5
3476.618	165.5
3479.519	170.5
3482.418	149.5
3485.315	151.5
3488.209	145.5
3491.101	150.5
3493.99	128.5
3496.878	133.5
3499.763	135.5
3502.646	136.5
3505.527	121.5
3508.405	119.5
3511.281	111.5
3514.155	117.5
3517.027	111.5
3519.897	92.5
3522.764	105.5
3525.629	80.5
3528.492	99.5
3531.352	86.5
3534.211	85.5
3537.067	79.5
3539.921	80.5
3542.773	78.5
3545.622	62.5
3548.469	57.5
3551.315	52.5
3554.157	63.5
3556.998	50.5
3559.837	52.5
3562.673	55.5
3565.507	44.5
3568.339	41.5
3571.169	46.5
3573.996	46.5
3576.822	23.5
3579.645	25.5
3582.466	28.5
3585.285	36.5
3588.101	29.5
3590.916	24.5
3593.728	34.5
3596.538	24.5
3599.346	31.5
3602.152	17.5
3604.956	20.5
3607.757	22.5
3610.556	5.5
3613.354	15.5
3616.149	12.5
3618.942	16.5
3621.732	17.5
3624.521	3.5
3627.307	-1.5
3630.092	-5.5
3632.874	13.5
3635.654	4.5
3638.432	-2.5
3641.208	-1.5
3643.982	2.5
3646.753	7.5
3649.523	-18.5
3652.29	-4.5
3655.055	1.5
3657.818	-1.5
3660.579	-8.5
3663.338	-15.5
3666.095	-11.5
3668.849	-37.5
3671.602	-4.5
3674.352	-19.5
3677.101	-6.5
3679.847	-1.5
3682.591	-20.5
3685.333	-21.5
3688.073	-12.5
3690.811	-22.5
3693.547	-30.5
3696.281	-27.5
3699.013	-13.5
3701.742	-23.5
3704.47	-32.5
3707.195	-10.5
3709.919	-14.5
3712.64	-18.5
3715.359	-31.5
3718.076	-10.5
3720.792	-21.5
3723.505	-21.5
3726.216	-9.5
3728.925	-26.5
3731.632	-26.5
3734.336	-24.5
3737.039	-21.5
3739.74	-19.5
3742.439	-48.5
3745.136	-19.5
3747.83	-25.5
3750.523	-21.5
3753.213	-75.5
3755.902	-25.5
3758.589	-36.5
3761.273	-27.5
3763.956	-16.5
3766.636	-41.5
3769.315	-18.5
3771.991	-26.5
3774.665	-31.5
3777.338	-25.5
3780.008	-38.5
3782.677	-26.5
3785.343	-42.5
3788.007	-44.5
3790.67	-23.5
3793.33	-42.5
3795.989	-32.5
3798.645	-27.5
3801.299	-44.5
3803.952	-37.5
3806.602	-32.5
3809.251	-22.5
3811.897	-24.5
3814.542	-32.5
3817.184	-28.5
3819.825	-30.5
3822.463	-41.5
3825.1	-32.5
3827.735	-26.5
3830.367	-40.5
3832.998	-20.5
3835.627	-34.5
3838.253	-21.5
3840.878	-29.5
3843.501	-12.5
3846.122	-23.5
3848.741	-20.5
3851.358	-21.5
3853.973	-39.5
3856.586	-24.5
3859.197	-36.5
3861.806	-32.5
3864.414	-41.5
3867.019	-32.5
3869.622	-26.5
3872.224	-21.5
3874.823	-21.5
3877.421	-3.5
3880.016	1.5
3882.61	33.5
3885.202	34.5
3887.792	24.5
3890.38	1.5
3892.966	-20.5
3895.55	-41.5
3898.132	-28.5
3900.713	-22.5
3903.291	-31.5
3905.868	-39.5
3908.442	-31.5
3911.015	-33.5
3913.586	-36.5
3916.155	-38.5
3918.722	-37.5
3921.287	-35.5
3923.85	-46.5
3926.411	-36.5
3928.971	-33.5
3931.528	-29.5
3934.084	-34.5
3936.638	-38.5
3939.19	-29.5
3941.74	-32.5
3944.288	-34.5
3946.834	-34.5
3949.378	-24.5
3951.921	-34.5
3954.462	-29.5
3957	-35.5
3959.537	-25.5
3962.072	-32.5
3964.606	-47.5
3967.137	-34.5
3969.667	-35.5
3972.194	-25.5
3974.72	-35.5
3977.244	-56.5
3979.766	-39.5
3982.286	-35.5
3984.805	-25.5
3987.321	-18.5
3989.836	-22.5
3992.349	-35.5
3994.86	-26.5
3997.369	-36.5
3999.877	-33.5
4002.382	-36.5
4004.886	-22.5
4007.388	-25.5
4009.888	-14.5
4012.386	-21.5
4014.883	-22.5
4017.377	-25.5
4019.87	-25.5
4022.361	-35.5
4024.85	-25.5
4027.338	-26.5
4029.823	-35.5
4032.307	-30.5
4034.789	-21.5
4037.269	-23.5
4039.747	-37.5
4042.224	-20.5
4044.699	-37.5
4047.172	-30.5
4049.643	-19.5
4052.112	-49.5
4054.58	-25.5
4057.046	-38.5
4059.51	-27.5
4061.972	-28.5
4064.432	-41.5
4066.891	-15.5
4069.348	-26.5
4071.803	-24.5
4074.256	-32.5
4076.708	-24.5
4079.158	-21.5
4081.606	-13.5
4084.052	-29.5
4086.497	-22.5
4088.939	-25.5
4091.38	-26.5
4093.819	-15.5
4096.257	1.5
4098.693	-7.5
4101.127	-6.5
4103.559	1.5
4105.989	50.5
4108.418	62.5
4110.845	52.5
4113.27	65.5
4115.694	83.5
4118.115	72.5
4120.535	-23.5
4122.954	-17.5
4125.37	-18.5
4127.785	-23.5
4130.198	-15.5
4132.609	-21.5
4135.019	8.5
4137.427	0.5
4139.833	6.5
4142.237	-4.5
