Data from 2018-3-6_conc=5_n=7_RamanShift_04.txt Node
Date: Tue Mar 06 14:42:48 GMT+02:00 2018
User: LAB3
Spectrometer: QEPB0276
Trigger mode: 0
Integration Time (sec): 3.000000E1
Scans to average: 1
Electric dark correction enabled: true
Nonlinearity correction enabled: false
Boxcar width: 0
XAxis mode: Raman Shifts
Number of Pixels in Spectrum: 1044
>>>>>Begin Spectral Data<<<<<
160.701	53.75
166.742	71.75
172.777	103.75
178.805	207.75
184.826	450.75
190.841	941.75
196.849	1477.75
202.85	1881.75
208.845	2012.75
214.833	1956.75
220.815	1912.75
226.789	1903.75
232.758	1911.75
238.719	1882.75
244.674	1845.75
250.623	1830.75
256.565	1790.75
262.5	1754.75
268.429	1741.75
274.351	1697.75
280.267	1695.75
286.176	1676.75
292.079	1696.75
297.975	1689.75
303.865	1670.75
309.748	1686.75
315.625	1652.75
321.495	1653.75
327.359	1644.75
333.217	1660.75
339.068	1650.75
344.912	1668.75
350.751	1663.75
356.583	1649.75
362.408	1655.75
368.227	1679.75
374.04	1694.75
379.847	1680.75
385.647	1688.75
391.44	1666.75
397.228	1698.75
403.009	1719.75
408.784	1710.75
414.553	1723.75
420.315	1739.75
426.071	1714.75
431.821	1727.75
437.565	1724.75
443.302	1718.75
449.033	1688.75
454.758	1691.75
460.477	1684.75
466.189	1650.75
471.896	1651.75
477.596	1622.75
483.29	1623.75
488.978	1618.75
494.66	1595.75
500.335	1547.75
506.005	1479.75
511.668	1422.75
517.325	1347.75
522.977	1279.75
528.622	1238.75
534.261	1222.75
539.894	1192.75
545.521	1177.75
551.141	1157.75
556.756	1138.75
562.365	1130.75
567.968	1129.75
573.565	1126.75
579.155	1118.75
584.74	1105.75
590.319	1106.75
595.892	1101.75
601.459	1109.75
607.02	1099.75
612.575	1086.75
618.124	1073.75
623.667	1048.75
629.204	1048.75
634.735	1027.75
640.261	998.75
645.781	987.75
651.294	986.75
656.802	995.75
662.304	1002.75
667.8	998.75
673.29	984.75
678.775	992.75
684.254	980.75
689.726	957.75
695.193	990.75
700.655	967.75
706.11	962.75
711.56	962.75
717.004	955.75
722.442	935.75
727.874	932.75
733.301	945.75
738.722	915.75
744.137	931.75
749.547	918.75
754.951	929.75
760.349	924.75
765.741	946.75
771.128	952.75
776.509	930.75
781.885	970.75
787.254	977.75
792.618	969.75
797.977	984.75
803.33	972.75
808.677	962.75
814.019	959.75
819.355	949.75
824.686	937.75
830.011	934.75
835.33	944.75
840.644	941.75
845.952	900.75
851.255	909.75
856.552	904.75
861.844	899.75
867.13	873.75
872.41	875.75
877.686	869.75
882.955	861.75
888.219	854.75
893.478	832.75
898.731	852.75
903.979	822.75
909.221	810.75
914.458	792.75
919.69	800.75
924.916	797.75
930.136	811.75
935.351	802.75
940.561	797.75
945.766	792.75
950.965	796.75
956.158	794.75
961.347	773.75
966.529	771.75
971.707	770.75
976.879	767.75
982.046	743.75
987.208	723.75
992.364	757.75
997.515	754.75
1002.66	750.75
1007.801	749.75
1012.936	759.75
1018.066	735.75
1023.19	766.75
1028.309	763.75
1033.423	768.75
1038.532	768.75
1043.636	745.75
1048.734	755.75
1053.827	750.75
1058.915	737.75
1063.998	741.75
1069.075	728.75
1074.147	739.75
1079.214	717.75
1084.276	744.75
1089.333	732.75
1094.385	742.75
1099.431	719.75
1104.472	734.75
1109.509	715.75
1114.54	715.75
1119.565	707.75
1124.586	693.75
1129.602	682.75
1134.613	664.75
1139.618	671.75
1144.619	680.75
1149.614	676.75
1154.604	672.75
1159.589	682.75
1164.57	695.75
1169.545	705.75
1174.515	700.75
1179.48	681.75
1184.44	676.75
1189.395	687.75
1194.345	656.75
1199.29	654.75
1204.23	661.75
1209.165	651.75
1214.095	674.75
1219.021	669.75
1223.941	650.75
1228.856	658.75
1233.766	675.75
1238.672	674.75
1243.572	678.75
1248.467	680.75
1253.358	666.75
1258.244	643.75
1263.124	650.75
1268	626.75
1272.871	610.75
1277.737	612.75
1282.599	614.75
1287.455	615.75
1292.306	596.75
1297.153	605.75
1301.995	598.75
1306.832	606.75
1311.664	604.75
1316.491	607.75
1321.314	619.75
1326.132	611.75
1330.945	585.75
1335.753	603.75
1340.556	578.75
1345.354	571.75
1350.148	571.75
1354.937	555.75
1359.722	538.75
1364.501	542.75
1369.276	547.75
1374.046	554.75
1378.811	538.75
1383.572	559.75
1388.327	545.75
1393.079	529.75
1397.825	521.75
1402.567	530.75
1407.304	512.75
1412.036	531.75
1416.764	522.75
1421.487	504.75
1426.205	512.75
1430.919	520.75
1435.628	527.75
1440.333	514.75
1445.032	525.75
1449.727	527.75
1454.418	534.75
1459.104	525.75
1463.785	513.75
1468.462	510.75
1473.134	509.75
1477.802	506.75
1482.465	465.75
1487.123	483.75
1491.777	456.75
1496.426	458.75
1501.071	476.75
1505.711	471.75
1510.347	481.75
1514.978	483.75
1519.604	479.75
1524.226	488.75
1528.844	458.75
1533.457	473.75
1538.065	477.75
1542.669	471.75
1547.269	468.75
1551.864	469.75
1556.454	458.75
1561.041	465.75
1565.622	466.75
1570.199	472.75
1574.772	470.75
1579.34	475.75
1583.904	481.75
1588.464	494.75
1593.019	498.75
1597.569	481.75
1602.115	476.75
1606.657	482.75
1611.195	484.75
1615.728	485.75
1620.256	473.75
1624.78	454.75
1629.3	460.75
1633.816	463.75
1638.327	469.75
1642.834	487.75
1647.336	480.75
1651.834	497.75
1656.328	481.75
1660.817	494.75
1665.302	465.75
1669.783	463.75
1674.259	455.75
1678.732	444.75
1683.199	439.75
1687.663	425.75
1692.122	423.75
1696.577	407.75
1701.028	411.75
1705.474	391.75
1709.917	381.75
1714.355	380.75
1718.788	377.75
1723.218	364.75
1727.643	354.75
1732.064	349.75
1736.481	336.75
1740.893	352.75
1745.301	346.75
1749.705	316.75
1754.105	325.75
1758.501	312.75
1762.893	327.75
1767.28	294.75
1771.663	301.75
1776.042	294.75
1780.417	288.75
1784.787	299.75
1789.154	305.75
1793.516	303.75
1797.874	294.75
1802.228	282.75
1806.578	279.75
1810.924	295.75
1815.266	179.75
1819.603	298.75
1823.937	275.75
1828.266	276.75
1832.591	271.75
1836.913	278.75
1841.23	267.75
1845.543	268.75
1849.852	273.75
1854.156	265.75
1858.457	262.75
1862.754	263.75
1867.047	269.75
1871.335	276.75
1875.62	279.75
1879.9	278.75
1884.177	265.75
1888.449	265.75
1892.718	267.75
1896.982	265.75
1901.243	250.75
1905.499	262.75
1909.752	255.75
1914	236.75
1918.245	261.75
1922.485	263.75
1926.722	257.75
1930.954	243.75
1935.183	249.75
1939.408	258.75
1943.628	254.75
1947.845	257.75
1952.058	246.75
1956.267	246.75
1960.472	251.75
1964.673	245.75
1968.87	239.75
1973.063	241.75
1977.252	235.75
1981.438	229.75
1985.619	229.75
1989.797	219.75
1993.971	224.75
1998.14	231.75
2002.306	223.75
2006.469	228.75
2010.627	219.75
2014.781	230.75
2018.932	211.75
2023.078	237.75
2027.221	227.75
2031.36	211.75
2035.495	218.75
2039.627	216.75
2043.754	211.75
2047.878	207.75
2051.998	196.75
2056.114	202.75
2060.226	206.75
2064.334	211.75
2068.439	215.75
2072.54	217.75
2076.637	195.75
2080.73	201.75
2084.82	202.75
2088.906	199.75
2092.988	203.75
2097.066	199.75
2101.14	213.75
2105.211	210.75
2109.278	196.75
2113.342	191.75
2117.401	184.75
2121.457	186.75
2125.509	177.75
2129.558	186.75
2133.602	183.75
2137.643	179.75
2141.681	178.75
2145.714	183.75
2149.744	192.75
2153.77	184.75
2157.793	160.75
2161.812	148.75
2165.827	158.75
2169.838	178.75
2173.846	164.75
2177.851	156.75
2181.851	166.75
2185.848	162.75
2189.841	162.75
2193.831	150.75
2197.817	157.75
2201.799	157.75
2205.778	144.75
2209.753	139.75
2213.725	127.75
2217.693	147.75
2221.657	142.75
2225.618	148.75
2229.575	153.75
2233.529	149.75
2237.479	151.75
2241.425	142.75
2245.368	132.75
2249.307	142.75
2253.243	129.75
2257.175	142.75
2261.104	130.75
2265.029	126.75
2268.95	128.75
2272.868	128.75
2276.783	124.75
2280.694	128.75
2284.601	130.75
2288.505	130.75
2292.405	126.75
2296.302	108.75
2300.195	110.75
2304.085	83.75
2307.971	111.75
2311.854	96.75
2315.734	111.75
2319.609	115.75
2323.482	89.75
2327.351	97.75
2331.216	101.75
2335.078	102.75
2338.937	101.75
2342.792	95.75
2346.643	94.75
2350.492	102.75
2354.336	100.75
2358.178	106.75
2362.015	95.75
2365.85	95.75
2369.681	94.75
2373.508	98.75
2377.333	102.75
2381.153	101.75
2384.971	94.75
2388.785	99.75
2392.595	80.75
2396.402	83.75
2400.206	65.75
2404.007	72.75
2407.804	89.75
2411.597	94.75
2415.388	81.75
2419.174	80.75
2422.958	88.75
2426.738	85.75
2430.515	86.75
2434.289	81.75
2438.059	77.75
2441.825	79.75
2445.589	94.75
2449.349	66.75
2453.106	88.75
2456.859	78.75
2460.61	83.75
2464.356	68.75
2468.1	69.75
2471.84	71.75
2475.577	73.75
2479.311	67.75
2483.041	72.75
2486.768	82.75
2490.492	82.75
2494.213	74.75
2497.93	67.75
2501.644	59.75
2505.355	73.75
2509.062	68.75
2512.766	68.75
2516.467	66.75
2520.165	67.75
2523.859	50.75
2527.551	84.75
2531.239	52.75
2534.923	62.75
2538.605	63.75
2542.283	66.75
2545.958	59.75
2549.63	73.75
2553.299	73.75
2556.964	55.75
2560.626	63.75
2564.285	57.75
2567.941	45.75
2571.594	53.75
2575.243	64.75
2578.89	51.75
2582.533	52.75
2586.173	52.75
2589.809	60.75
2593.443	33.75
2597.073	49.75
2600.701	51.75
2604.325	49.75
2607.946	46.75
2611.564	59.75
2615.178	52.75
2618.79	50.75
2622.398	44.75
2626.004	51.75
2629.606	50.75
2633.205	32.75
2636.801	53.75
2640.394	47.75
2643.983	47.75
2647.57	40.75
2651.153	34.75
2654.734	53.75
2658.311	21.75
2661.885	36.75
2665.456	35.75
2669.025	39.75
2672.589	41.75
2676.151	51.75
2679.71	53.75
2683.266	42.75
2686.819	35.75
2690.368	40.75
2693.915	46.75
2697.458	40.75
2700.999	48.75
2704.536	47.75
2708.071	39.75
2711.602	38.75
2715.13	34.75
2718.656	21.75
2722.178	38.75
2725.697	21.75
2729.214	25.75
2732.727	32.75
2736.237	13.75
2739.744	26.75
2743.249	24.75
2746.75	27.75
2750.248	19.75
2753.743	28.75
2757.236	32.75
2760.725	33.75
2764.211	0.75
2767.695	29.75
2771.175	25.75
2774.652	29.75
2778.127	21.75
2781.598	21.75
2785.067	24.75
2788.532	19.75
2791.995	27.75
2795.455	16.75
2798.911	29.75
2802.365	20.75
2805.816	28.75
2809.264	29.75
2812.709	20.75
2816.151	26.75
2819.59	13.75
2823.026	20.75
2826.46	22.75
2829.89	33.75
2833.318	7.75
2836.742	23.75
2840.164	22.75
2843.583	23.75
2846.999	21.75
2850.412	31.75
2853.822	22.75
2857.229	40.75
2860.634	24.75
2864.035	10.75
2867.434	40.75
2870.83	34.75
2874.223	27.75
2877.613	31.75
2881	21.75
2884.385	22.75
2887.766	25.75
2891.145	36.75
2894.521	26.75
2897.894	19.75
2901.264	38.75
2904.631	37.75
2907.996	37.75
2911.358	39.75
2914.717	40.75
2918.073	29.75
2921.426	27.75
2924.777	23.75
2928.124	30.75
2931.469	46.75
2934.811	25.75
2938.15	50.75
2941.487	36.75
2944.821	54.75
2948.152	35.75
2951.48	44.75
2954.805	31.75
2958.128	54.75
2961.447	40.75
2964.765	50.75
2968.079	39.75
2971.39	38.75
2974.699	43.75
2978.005	53.75
2981.308	44.75
2984.609	32.75
2987.907	51.75
2991.202	50.75
2994.494	36.75
2997.784	48.75
3001.07	50.75
3004.355	42.75
3007.636	46.75
3010.915	48.75
3014.191	43.75
3017.464	49.75
3020.734	47.75
3024.002	53.75
3027.267	51.75
3030.53	52.75
3033.789	50.75
3037.046	56.75
3040.301	47.75
3043.552	55.75
3046.801	65.75
3050.048	73.75
3053.291	82.75
3056.532	68.75
3059.771	54.75
3063.006	76.75
3066.239	68.75
3069.469	74.75
3072.697	70.75
3075.922	71.75
3079.144	77.75
3082.364	100.75
3085.581	80.75
3088.795	101.75
3092.007	92.75
3095.216	100.75
3098.423	95.75
3101.627	74.75
3104.828	99.75
3108.026	92.75
3111.222	114.75
3114.416	121.75
3117.607	113.75
3120.795	108.75
3123.98	110.75
3127.163	100.75
3130.344	116.75
3133.521	108.75
3136.696	130.75
3139.869	132.75
3143.039	113.75
3146.206	145.75
3149.371	136.75
3152.533	125.75
3155.693	126.75
3158.85	132.75
3162.005	138.75
3165.157	135.75
3168.306	137.75
3171.453	149.75
3174.597	131.75
3177.739	130.75
3180.878	140.75
3184.014	144.75
3187.149	142.75
3190.28	139.75
3193.409	145.75
3196.536	151.75
3199.659	149.75
3202.781	154.75
3205.9	136.75
3209.016	151.75
3212.13	140.75
3215.241	137.75
3218.35	140.75
3221.456	139.75
3224.56	125.75
3227.661	139.75
3230.76	136.75
3233.856	126.75
3236.95	135.75
3240.041	122.75
3243.13	135.75
3246.216	133.75
3249.3	136.75
3252.382	129.75
3255.46	126.75
3258.537	78.75
3261.611	116.75
3264.682	129.75
3267.751	120.75
3270.818	122.75
3273.882	128.75
3276.943	119.75
3280.002	144.75
3283.059	117.75
3286.113	119.75
3289.165	111.75
3292.214	107.75
3295.261	133.75
3298.306	99.75
3301.348	117.75
3304.387	106.75
3307.425	120.75
3310.459	113.75
3313.492	114.75
3316.521	113.75
3319.549	119.75
3322.574	113.75
3325.597	110.75
3328.617	100.75
3331.635	106.75
3334.65	88.75
3337.663	99.75
3340.674	103.75
3343.682	100.75
3346.688	106.75
3349.691	93.75
3352.692	101.75
3355.691	103.75
3358.687	93.75
3361.681	102.75
3364.673	95.75
3367.662	100.75
3370.649	104.75
3373.633	85.75
3376.615	97.75
3379.595	75.75
3382.572	81.75
3385.547	76.75
3388.52	73.75
3391.49	78.75
3394.458	82.75
3397.424	87.75
3400.387	66.75
3403.348	76.75
3406.307	75.75
3409.263	79.75
3412.217	77.75
3415.168	78.75
3418.118	82.75
3421.065	67.75
3424.009	79.75
3426.951	66.75
3429.891	62.75
3432.829	71.75
3435.764	70.75
3438.697	56.75
3441.628	69.75
3444.557	52.75
3447.483	48.75
3450.407	66.75
3453.328	54.75
3456.247	51.75
3459.164	41.75
3462.079	55.75
3464.991	43.75
3467.902	42.75
3470.809	42.75
3473.715	50.75
3476.618	33.75
3479.519	41.75
3482.418	22.75
3485.315	28.75
3488.209	21.75
3491.101	30.75
3493.99	16.75
3496.878	20.75
3499.763	23.75
3502.646	28.75
3505.527	15.75
3508.405	16.75
3511.281	2.75
3514.155	17.75
3517.027	13.75
3519.897	4.75
3522.764	14.75
3525.629	-4.25
3528.492	11.75
3531.352	9.75
3534.211	7.75
3537.067	1.75
3539.921	6.75
3542.773	11.75
3545.622	-5.25
3548.469	-9.25
3551.315	-11.25
3554.157	-1.25
3556.998	-14.25
3559.837	-6.25
3562.673	-7.25
3565.507	-15.25
3568.339	-15.25
3571.169	-12.25
3573.996	-11.25
3576.822	-29.25
3579.645	-17.25
3582.466	-17.25
3585.285	-11.25
3588.101	-15.25
3590.916	-18.25
3593.728	-10.25
3596.538	-16.25
3599.346	-19.25
3602.152	-30.25
3604.956	-19.25
3607.757	-16.25
3610.556	-32.25
3613.354	-15.25
3616.149	-21.25
3618.942	-19.25
3621.732	-17.25
3624.521	-29.25
3627.307	-33.25
3630.092	-29.25
3632.874	-13.25
3635.654	-27.25
3638.432	-33.25
3641.208	-30.25
3643.982	-27.25
3646.753	-15.25
3649.523	-47.25
3652.29	-33.25
3655.055	-18.25
3657.818	-22.25
3660.579	-30.25
3663.338	-36.25
3666.095	-30.25
3668.849	-50.25
3671.602	-19.25
3674.352	-35.25
3677.101	-22.25
3679.847	-19.25
3682.591	-33.25
3685.333	-45.25
3688.073	-25.25
3690.811	-40.25
3693.547	-41.25
3696.281	-43.25
3699.013	-24.25
3701.742	-32.25
3704.47	-44.25
3707.195	-26.25
3709.919	-28.25
3712.64	-27.25
3715.359	-47.25
3718.076	-21.25
3720.792	-31.25
3723.505	-29.25
3726.216	-22.25
3728.925	-31.25
3731.632	-40.25
3734.336	-38.25
3737.039	-32.25
3739.74	-26.25
3742.439	-57.25
3745.136	-24.25
3747.83	-28.25
3750.523	-27.25
3753.213	-88.25
3755.902	-38.25
3758.589	-47.25
3761.273	-41.25
3763.956	-27.25
3766.636	-48.25
3769.315	-28.25
3771.991	-36.25
3774.665	-40.25
3777.338	-32.25
3780.008	-47.25
3782.677	-32.25
3785.343	-55.25
3788.007	-57.25
3790.67	-29.25
3793.33	-51.25
3795.989	-40.25
3798.645	-34.25
3801.299	-44.25
3803.952	-44.25
3806.602	-39.25
3809.251	-28.25
3811.897	-35.25
3814.542	-34.25
3817.184	-36.25
3819.825	-31.25
3822.463	-49.25
3825.1	-33.25
3827.735	-35.25
3830.367	-44.25
3832.998	-21.25
3835.627	-32.25
3838.253	-27.25
3840.878	-37.25
3843.501	-22.25
3846.122	-32.25
3848.741	-26.25
3851.358	-25.25
3853.973	-45.25
3856.586	-25.25
3859.197	-41.25
3861.806	-34.25
3864.414	-44.25
3867.019	-30.25
3869.622	-23.25
3872.224	-25.25
3874.823	-13.25
3877.421	7.75
3880.016	21.75
3882.61	53.75
3885.202	69.75
3887.792	42.75
3890.38	21.75
3892.966	-18.25
3895.55	-37.25
3898.132	-26.25
3900.713	-27.25
3903.291	-36.25
3905.868	-38.25
3908.442	-30.25
3911.015	-34.25
3913.586	-43.25
3916.155	-39.25
3918.722	-41.25
3921.287	-41.25
3923.85	-51.25
3926.411	-41.25
3928.971	-44.25
3931.528	-31.25
3934.084	-38.25
3936.638	-48.25
3939.19	-28.25
3941.74	-32.25
3944.288	-42.25
3946.834	-37.25
3949.378	-29.25
3951.921	-40.25
3954.462	-36.25
3957	-33.25
3959.537	-20.25
3962.072	-34.25
3964.606	-49.25
3967.137	-39.25
3969.667	-38.25
3972.194	-27.25
3974.72	-34.25
3977.244	-59.25
3979.766	-43.25
3982.286	-45.25
3984.805	-28.25
3987.321	-24.25
3989.836	-29.25
3992.349	-42.25
3994.86	-36.25
3997.369	-42.25
3999.877	-36.25
4002.382	-36.25
4004.886	-25.25
4007.388	-32.25
4009.888	-27.25
4012.386	-31.25
4014.883	-37.25
4017.377	-33.25
4019.87	-33.25
4022.361	-44.25
4024.85	-32.25
4027.338	-34.25
4029.823	-39.25
4032.307	-38.25
4034.789	-39.25
4037.269	-37.25
4039.747	-48.25
4042.224	-28.25
4044.699	-45.25
4047.172	-37.25
4049.643	-29.25
4052.112	-59.25
4054.58	-34.25
4057.046	-47.25
4059.51	-37.25
4061.972	-35.25
4064.432	-49.25
4066.891	-24.25
4069.348	-32.25
4071.803	-31.25
4074.256	-42.25
4076.708	-29.25
4079.158	-32.25
4081.606	-22.25
4084.052	-28.25
4086.497	-26.25
4088.939	-36.25
4091.38	-35.25
4093.819	-25.25
4096.257	-0.25
4098.693	-7.25
4101.127	-6.25
4103.559	0.75
4105.989	56.75
4108.418	58.75
4110.845	44.75
4113.27	53.75
4115.694	57.75
4118.115	45.75
4120.535	-34.25
4122.954	-27.25
4125.37	-24.25
4127.785	-32.25
4130.198	-25.25
4132.609	-26.25
4135.019	9.75
4137.427	1.75
4139.833	5.75
4142.237	-4.25
