Data from 2018-3-6_conc=5_n=4_RamanShift_05.txt Node
Date: Tue Mar 06 14:33:48 GMT+02:00 2018
User: LAB3
Spectrometer: QEPB0276
Trigger mode: 0
Integration Time (sec): 3.000000E1
Scans to average: 1
Electric dark correction enabled: true
Nonlinearity correction enabled: false
Boxcar width: 0
XAxis mode: Raman Shifts
Number of Pixels in Spectrum: 1044
>>>>>Begin Spectral Data<<<<<
160.701	60.88
166.742	84.88
172.777	116.88
178.805	233.88
184.826	547.88
190.841	1084.88
196.849	1702.88
202.85	2153.88
208.845	2279.88
214.833	2247.88
220.815	2191.88
226.789	2169.88
232.758	2160.88
238.719	2129.88
244.674	2099.88
250.623	2051.88
256.565	2037.88
262.5	2000.88
268.429	1974.88
274.351	1942.88
280.267	1937.88
286.176	1928.88
292.079	1915.88
297.975	1906.88
303.865	1889.88
309.748	1903.88
315.625	1896.88
321.495	1882.88
327.359	1885.88
333.217	1893.88
339.068	1879.88
344.912	1898.88
350.751	1891.88
356.583	1891.88
362.408	1898.88
368.227	1914.88
374.04	1910.88
379.847	1906.88
385.647	1943.88
391.44	1918.88
397.228	1925.88
403.009	1970.88
408.784	1964.88
414.553	1948.88
420.315	1979.88
426.071	1938.88
431.821	1961.88
437.565	1963.88
443.302	1958.88
449.033	1938.88
454.758	1944.88
460.477	1911.88
466.189	1886.88
471.896	1878.88
477.596	1865.88
483.29	1848.88
488.978	1854.88
494.66	1821.88
500.335	1766.88
506.005	1703.88
511.668	1620.88
517.325	1521.88
522.977	1461.88
528.622	1417.88
534.261	1391.88
539.894	1351.88
545.521	1342.88
551.141	1299.88
556.756	1305.88
562.365	1298.88
567.968	1275.88
573.565	1272.88
579.155	1267.88
584.74	1251.88
590.319	1249.88
595.892	1264.88
601.459	1263.88
607.02	1252.88
612.575	1230.88
618.124	1229.88
623.667	1184.88
629.204	1185.88
634.735	1166.88
640.261	1142.88
645.781	1109.88
651.294	1131.88
656.802	1126.88
662.304	1138.88
667.8	1142.88
673.29	1108.88
678.775	1121.88
684.254	1115.88
689.726	1101.88
695.193	1120.88
700.655	1090.88
706.11	1078.88
711.56	1088.88
717.004	1078.88
722.442	1061.88
727.874	1074.88
733.301	1069.88
738.722	1052.88
744.137	1050.88
749.547	1045.88
754.951	1053.88
760.349	1063.88
765.741	1071.88
771.128	1072.88
776.509	1059.88
781.885	1114.88
787.254	1115.88
792.618	1098.88
797.977	1112.88
803.33	1096.88
808.677	1094.88
814.019	1085.88
819.355	1068.88
824.686	1053.88
830.011	1048.88
835.33	1068.88
840.644	1058.88
845.952	1024.88
851.255	1041.88
856.552	1020.88
861.844	1002.88
867.13	993.88
872.41	982.88
877.686	974.88
882.955	974.88
888.219	958.88
893.478	937.88
898.731	939.88
903.979	929.88
909.221	908.88
914.458	907.88
919.69	907.88
924.916	904.88
930.136	908.88
935.351	904.88
940.561	910.88
945.766	886.88
950.965	912.88
956.158	892.88
961.347	883.88
966.529	869.88
971.707	869.88
976.879	861.88
982.046	853.88
987.208	835.88
992.364	847.88
997.515	844.88
1002.66	847.88
1007.801	852.88
1012.936	845.88
1018.066	827.88
1023.19	868.88
1028.309	884.88
1033.423	869.88
1038.532	879.88
1043.636	860.88
1048.734	852.88
1053.827	818.88
1058.915	824.88
1063.998	840.88
1069.075	826.88
1074.147	827.88
1079.214	796.88
1084.276	840.88
1089.333	822.88
1094.385	839.88
1099.431	828.88
1104.472	818.88
1109.509	807.88
1114.54	803.88
1119.565	789.88
1124.586	782.88
1129.602	762.88
1134.613	747.88
1139.618	757.88
1144.619	749.88
1149.614	774.88
1154.604	768.88
1159.589	761.88
1164.57	790.88
1169.545	781.88
1174.515	782.88
1179.48	769.88
1184.44	771.88
1189.395	774.88
1194.345	759.88
1199.29	750.88
1204.23	741.88
1209.165	731.88
1214.095	754.88
1219.021	733.88
1223.941	744.88
1228.856	748.88
1233.766	777.88
1238.672	760.88
1243.572	763.88
1248.467	754.88
1253.358	739.88
1258.244	710.88
1263.124	730.88
1268	721.88
1272.871	688.88
1277.737	698.88
1282.599	691.88
1287.455	671.88
1292.306	697.88
1297.153	676.88
1301.995	681.88
1306.832	690.88
1311.664	687.88
1316.491	694.88
1321.314	691.88
1326.132	689.88
1330.945	682.88
1335.753	650.88
1340.556	645.88
1345.354	642.88
1350.148	637.88
1354.937	633.88
1359.722	598.88
1364.501	597.88
1369.276	610.88
1374.046	624.88
1378.811	604.88
1383.572	617.88
1388.327	612.88
1393.079	604.88
1397.825	594.88
1402.567	596.88
1407.304	585.88
1412.036	582.88
1416.764	581.88
1421.487	570.88
1426.205	580.88
1430.919	574.88
1435.628	592.88
1440.333	576.88
1445.032	587.88
1449.727	595.88
1454.418	598.88
1459.104	603.88
1463.785	577.88
1468.462	589.88
1473.134	564.88
1477.802	566.88
1482.465	523.88
1487.123	551.88
1491.777	521.88
1496.426	524.88
1501.071	537.88
1505.711	527.88
1510.347	531.88
1514.978	536.88
1519.604	529.88
1524.226	547.88
1528.844	531.88
1533.457	549.88
1538.065	529.88
1542.669	537.88
1547.269	519.88
1551.864	517.88
1556.454	514.88
1561.041	522.88
1565.622	518.88
1570.199	515.88
1574.772	532.88
1579.34	536.88
1583.904	543.88
1588.464	551.88
1593.019	552.88
1597.569	534.88
1602.115	552.88
1606.657	524.88
1611.195	550.88
1615.728	547.88
1620.256	518.88
1624.78	505.88
1629.3	519.88
1633.816	528.88
1638.327	534.88
1642.834	542.88
1647.336	534.88
1651.834	544.88
1656.328	541.88
1660.817	532.88
1665.302	523.88
1669.783	511.88
1674.259	497.88
1678.732	507.88
1683.199	483.88
1687.663	460.88
1692.122	470.88
1696.577	460.88
1701.028	450.88
1705.474	431.88
1709.917	419.88
1714.355	421.88
1718.788	401.88
1723.218	401.88
1727.643	394.88
1732.064	386.88
1736.481	379.88
1740.893	382.88
1745.301	385.88
1749.705	349.88
1754.105	366.88
1758.501	351.88
1762.893	360.88
1767.28	334.88
1771.663	335.88
1776.042	335.88
1780.417	324.88
1784.787	340.88
1789.154	329.88
1793.516	328.88
1797.874	326.88
1802.228	319.88
1806.578	310.88
1810.924	337.88
1815.266	216.88
1819.603	329.88
1823.937	313.88
1828.266	313.88
1832.591	305.88
1836.913	306.88
1841.23	296.88
1845.543	293.88
1849.852	309.88
1854.156	305.88
1858.457	302.88
1862.754	296.88
1867.047	300.88
1871.335	312.88
1875.62	316.88
1879.9	299.88
1884.177	303.88
1888.449	303.88
1892.718	296.88
1896.982	311.88
1901.243	283.88
1905.499	289.88
1909.752	280.88
1914	264.88
1918.245	296.88
1922.485	286.88
1926.722	285.88
1930.954	273.88
1935.183	291.88
1939.408	290.88
1943.628	281.88
1947.845	294.88
1952.058	274.88
1956.267	272.88
1960.472	277.88
1964.673	275.88
1968.87	261.88
1973.063	270.88
1977.252	264.88
1981.438	263.88
1985.619	250.88
1989.797	242.88
1993.971	252.88
1998.14	258.88
2002.306	253.88
2006.469	265.88
2010.627	243.88
2014.781	247.88
2018.932	239.88
2023.078	258.88
2027.221	245.88
2031.36	236.88
2035.495	238.88
2039.627	242.88
2043.754	230.88
2047.878	225.88
2051.998	232.88
2056.114	228.88
2060.226	235.88
2064.334	227.88
2068.439	235.88
2072.54	247.88
2076.637	218.88
2080.73	225.88
2084.82	227.88
2088.906	214.88
2092.988	220.88
2097.066	238.88
2101.14	236.88
2105.211	226.88
2109.278	218.88
2113.342	206.88
2117.401	202.88
2121.457	198.88
2125.509	193.88
2129.558	207.88
2133.602	209.88
2137.643	207.88
2141.681	198.88
2145.714	206.88
2149.744	206.88
2153.77	202.88
2157.793	180.88
2161.812	171.88
2165.827	171.88
2169.838	195.88
2173.846	180.88
2177.851	176.88
2181.851	190.88
2185.848	177.88
2189.841	178.88
2193.831	168.88
2197.817	183.88
2201.799	177.88
2205.778	158.88
2209.753	159.88
2213.725	158.88
2217.693	175.88
2221.657	158.88
2225.618	173.88
2229.575	167.88
2233.529	175.88
2237.479	169.88
2241.425	154.88
2245.368	156.88
2249.307	163.88
2253.243	148.88
2257.175	158.88
2261.104	142.88
2265.029	151.88
2268.95	147.88
2272.868	129.88
2276.783	133.88
2280.694	144.88
2284.601	138.88
2288.505	135.88
2292.405	143.88
2296.302	115.88
2300.195	133.88
2304.085	104.88
2307.971	136.88
2311.854	105.88
2315.734	119.88
2319.609	125.88
2323.482	104.88
2327.351	106.88
2331.216	112.88
2335.078	123.88
2338.937	114.88
2342.792	111.88
2346.643	114.88
2350.492	118.88
2354.336	109.88
2358.178	118.88
2362.015	116.88
2365.85	106.88
2369.681	119.88
2373.508	108.88
2377.333	116.88
2381.153	112.88
2384.971	108.88
2388.785	116.88
2392.595	97.88
2396.402	103.88
2400.206	75.88
2404.007	93.88
2407.804	99.88
2411.597	105.88
2415.388	97.88
2419.174	100.88
2422.958	95.88
2426.738	96.88
2430.515	101.88
2434.289	89.88
2438.059	94.88
2441.825	95.88
2445.589	98.88
2449.349	85.88
2453.106	95.88
2456.859	90.88
2460.61	92.88
2464.356	81.88
2468.1	77.88
2471.84	81.88
2475.577	81.88
2479.311	81.88
2483.041	79.88
2486.768	103.88
2490.492	92.88
2494.213	78.88
2497.93	71.88
2501.644	63.88
2505.355	77.88
2509.062	75.88
2512.766	74.88
2516.467	71.88
2520.165	80.88
2523.859	60.88
2527.551	95.88
2531.239	64.88
2534.923	75.88
2538.605	67.88
2542.283	75.88
2545.958	81.88
2549.63	80.88
2553.299	85.88
2556.964	62.88
2560.626	64.88
2564.285	74.88
2567.941	60.88
2571.594	60.88
2575.243	75.88
2578.89	62.88
2582.533	66.88
2586.173	66.88
2589.809	72.88
2593.443	43.88
2597.073	65.88
2600.701	71.88
2604.325	69.88
2607.946	52.88
2611.564	69.88
2615.178	66.88
2618.79	65.88
2622.398	52.88
2626.004	67.88
2629.606	63.88
2633.205	50.88
2636.801	65.88
2640.394	54.88
2643.983	56.88
2647.57	60.88
2651.153	42.88
2654.734	59.88
2658.311	36.88
2661.885	47.88
2665.456	46.88
2669.025	54.88
2672.589	47.88
2676.151	61.88
2679.71	63.88
2683.266	49.88
2686.819	38.88
2690.368	48.88
2693.915	57.88
2697.458	56.88
2700.999	55.88
2704.536	57.88
2708.071	47.88
2711.602	48.88
2715.13	45.88
2718.656	25.88
2722.178	47.88
2725.697	29.88
2729.214	36.88
2732.727	42.88
2736.237	29.88
2739.744	34.88
2743.249	32.88
2746.75	38.88
2750.248	35.88
2753.743	39.88
2757.236	41.88
2760.725	41.88
2764.211	14.88
2767.695	43.88
2771.175	38.88
2774.652	39.88
2778.127	31.88
2781.598	33.88
2785.067	42.88
2788.532	20.88
2791.995	37.88
2795.455	32.88
2798.911	44.88
2802.365	36.88
2805.816	41.88
2809.264	43.88
2812.709	26.88
2816.151	39.88
2819.59	25.88
2823.026	32.88
2826.46	32.88
2829.89	41.88
2833.318	20.88
2836.742	32.88
2840.164	39.88
2843.583	34.88
2846.999	36.88
2850.412	37.88
2853.822	31.88
2857.229	46.88
2860.634	41.88
2864.035	18.88
2867.434	43.88
2870.83	47.88
2874.223	36.88
2877.613	31.88
2881	29.88
2884.385	37.88
2887.766	26.88
2891.145	42.88
2894.521	33.88
2897.894	30.88
2901.264	45.88
2904.631	45.88
2907.996	46.88
2911.358	57.88
2914.717	42.88
2918.073	42.88
2921.426	36.88
2924.777	29.88
2928.124	41.88
2931.469	58.88
2934.811	30.88
2938.15	60.88
2941.487	51.88
2944.821	64.88
2948.152	46.88
2951.48	58.88
2954.805	46.88
2958.128	68.88
2961.447	54.88
2964.765	66.88
2968.079	53.88
2971.39	61.88
2974.699	52.88
2978.005	60.88
2981.308	52.88
2984.609	50.88
2987.907	61.88
2991.202	69.88
2994.494	50.88
2997.784	64.88
3001.07	60.88
3004.355	54.88
3007.636	58.88
3010.915	62.88
3014.191	56.88
3017.464	69.88
3020.734	55.88
3024.002	73.88
3027.267	67.88
3030.53	67.88
3033.789	69.88
3037.046	68.88
3040.301	67.88
3043.552	73.88
3046.801	74.88
3050.048	84.88
3053.291	94.88
3056.532	86.88
3059.771	65.88
3063.006	85.88
3066.239	84.88
3069.469	93.88
3072.697	86.88
3075.922	87.88
3079.144	92.88
3082.364	111.88
3085.581	99.88
3088.795	112.88
3092.007	112.88
3095.216	127.88
3098.423	109.88
3101.627	90.88
3104.828	112.88
3108.026	116.88
3111.222	129.88
3114.416	138.88
3117.607	127.88
3120.795	132.88
3123.98	137.88
3127.163	128.88
3130.344	132.88
3133.521	131.88
3136.696	149.88
3139.869	152.88
3143.039	139.88
3146.206	168.88
3149.371	161.88
3152.533	162.88
3155.693	156.88
3158.85	168.88
3162.005	174.88
3165.157	162.88
3168.306	158.88
3171.453	175.88
3174.597	158.88
3177.739	152.88
3180.878	166.88
3184.014	179.88
3187.149	173.88
3190.28	168.88
3193.409	180.88
3196.536	172.88
3199.659	180.88
3202.781	182.88
3205.9	161.88
3209.016	173.88
3212.13	170.88
3215.241	162.88
3218.35	170.88
3221.456	168.88
3224.56	155.88
3227.661	159.88
3230.76	158.88
3233.856	152.88
3236.95	165.88
3240.041	142.88
3243.13	161.88
3246.216	158.88
3249.3	158.88
3252.382	157.88
3255.46	143.88
3258.537	104.88
3261.611	142.88
3264.682	155.88
3267.751	143.88
3270.818	137.88
3273.882	151.88
3276.943	149.88
3280.002	152.88
3283.059	135.88
3286.113	142.88
3289.165	141.88
3292.214	136.88
3295.261	153.88
3298.306	124.88
3301.348	139.88
3304.387	133.88
3307.425	139.88
3310.459	126.88
3313.492	142.88
3316.521	126.88
3319.549	134.88
3322.574	130.88
3325.597	125.88
3328.617	122.88
3331.635	131.88
3334.65	103.88
3337.663	128.88
3340.674	113.88
3343.682	121.88
3346.688	126.88
3349.691	114.88
3352.692	110.88
3355.691	129.88
3358.687	118.88
3361.681	116.88
3364.673	109.88
3367.662	114.88
3370.649	120.88
3373.633	97.88
3376.615	109.88
3379.595	96.88
3382.572	105.88
3385.547	97.88
3388.52	90.88
3391.49	101.88
3394.458	93.88
3397.424	108.88
3400.387	90.88
3403.348	104.88
3406.307	103.88
3409.263	90.88
3412.217	96.88
3415.168	97.88
3418.118	98.88
3421.065	87.88
3424.009	101.88
3426.951	80.88
3429.891	78.88
3432.829	88.88
3435.764	86.88
3438.697	75.88
3441.628	89.88
3444.557	65.88
3447.483	65.88
3450.407	79.88
3453.328	66.88
3456.247	64.88
3459.164	59.88
3462.079	74.88
3464.991	62.88
3467.902	55.88
3470.809	57.88
3473.715	58.88
3476.618	48.88
3479.519	53.88
3482.418	33.88
3485.315	37.88
3488.209	40.88
3491.101	43.88
3493.99	26.88
3496.878	32.88
3499.763	31.88
3502.646	32.88
3505.527	23.88
3508.405	24.88
3511.281	17.88
3514.155	26.88
3517.027	23.88
3519.897	11.88
3522.764	19.88
3525.629	0.88
3528.492	16.88
3531.352	19.88
3534.211	13.88
3537.067	7.88
3539.921	13.88
3542.773	18.88
3545.622	2.88
3548.469	-1.12
3551.315	-8.12
3554.157	3.88
3556.998	-6.12
3559.837	0.88
3562.673	0.88
3565.507	-8.12
3568.339	-12.12
3571.169	-8.12
3573.996	-6.12
3576.822	-26.12
3579.645	-13.12
3582.466	-8.12
3585.285	-6.12
3588.101	-7.12
3590.916	-15.12
3593.728	-1.12
3596.538	-15.12
3599.346	-10.12
3602.152	-16.12
3604.956	-17.12
3607.757	-9.12
3610.556	-26.12
3613.354	-12.12
3616.149	-10.12
3618.942	-9.12
3621.732	-13.12
3624.521	-18.12
3627.307	-31.12
3630.092	-27.12
3632.874	-9.12
3635.654	-16.12
3638.432	-27.12
3641.208	-23.12
3643.982	-26.12
3646.753	-12.12
3649.523	-48.12
3652.29	-29.12
3655.055	-19.12
3657.818	-22.12
3660.579	-28.12
3663.338	-34.12
3666.095	-26.12
3668.849	-47.12
3671.602	-19.12
3674.352	-35.12
3677.101	-19.12
3679.847	-21.12
3682.591	-36.12
3685.333	-33.12
3688.073	-25.12
3690.811	-38.12
3693.547	-43.12
3696.281	-43.12
3699.013	-24.12
3701.742	-32.12
3704.47	-39.12
3707.195	-27.12
3709.919	-32.12
3712.64	-29.12
3715.359	-38.12
3718.076	-16.12
3720.792	-31.12
3723.505	-28.12
3726.216	-20.12
3728.925	-36.12
3731.632	-33.12
3734.336	-33.12
3737.039	-32.12
3739.74	-31.12
3742.439	-55.12
3745.136	-24.12
3747.83	-29.12
3750.523	-23.12
3753.213	-95.12
3755.902	-35.12
3758.589	-48.12
3761.273	-33.12
3763.956	-25.12
3766.636	-45.12
3769.315	-25.12
3771.991	-31.12
3774.665	-37.12
3777.338	-27.12
3780.008	-43.12
3782.677	-34.12
3785.343	-51.12
3788.007	-49.12
3790.67	-30.12
3793.33	-46.12
3795.989	-35.12
3798.645	-31.12
3801.299	-43.12
3803.952	-41.12
3806.602	-39.12
3809.251	-33.12
3811.897	-35.12
3814.542	-36.12
3817.184	-36.12
3819.825	-36.12
3822.463	-48.12
3825.1	-36.12
3827.735	-34.12
3830.367	-45.12
3832.998	-22.12
3835.627	-38.12
3838.253	-26.12
3840.878	-38.12
3843.501	-19.12
3846.122	-31.12
3848.741	-26.12
3851.358	-33.12
3853.973	-40.12
3856.586	-25.12
3859.197	-47.12
3861.806	-35.12
3864.414	-49.12
3867.019	-32.12
3869.622	-29.12
3872.224	-25.12
3874.823	-13.12
3877.421	4.88
3880.016	18.88
3882.61	53.88
3885.202	62.88
3887.792	36.88
3890.38	14.88
3892.966	-14.12
3895.55	-37.12
3898.132	-26.12
3900.713	-22.12
3903.291	-33.12
3905.868	-42.12
3908.442	-36.12
3911.015	-34.12
3913.586	-41.12
3916.155	-37.12
3918.722	-37.12
3921.287	-36.12
3923.85	-49.12
3926.411	-38.12
3928.971	-37.12
3931.528	-35.12
3934.084	-36.12
3936.638	-44.12
3939.19	-30.12
3941.74	-34.12
3944.288	-32.12
3946.834	-36.12
3949.378	-24.12
3951.921	-40.12
3954.462	-38.12
3957	-31.12
3959.537	-24.12
3962.072	-38.12
3964.606	-55.12
3967.137	-34.12
3969.667	-40.12
3972.194	-30.12
3974.72	-33.12
3977.244	-59.12
3979.766	-41.12
3982.286	-39.12
3984.805	-33.12
3987.321	-24.12
3989.836	-27.12
3992.349	-39.12
3994.86	-29.12
3997.369	-40.12
3999.877	-36.12
4002.382	-33.12
4004.886	-28.12
4007.388	-36.12
4009.888	-21.12
4012.386	-22.12
4014.883	-32.12
4017.377	-31.12
4019.87	-29.12
4022.361	-38.12
4024.85	-32.12
4027.338	-34.12
4029.823	-35.12
4032.307	-36.12
4034.789	-33.12
4037.269	-33.12
4039.747	-45.12
4042.224	-23.12
4044.699	-36.12
4047.172	-35.12
4049.643	-25.12
4052.112	-55.12
4054.58	-36.12
4057.046	-41.12
4059.51	-33.12
4061.972	-29.12
4064.432	-48.12
4066.891	-21.12
4069.348	-37.12
4071.803	-27.12
4074.256	-38.12
4076.708	-28.12
4079.158	-28.12
4081.606	-23.12
4084.052	-32.12
4086.497	-28.12
4088.939	-31.12
4091.38	-30.12
4093.819	-26.12
4096.257	3.88
4098.693	-9.12
4101.127	-5.12
4103.559	0.88
4105.989	70.88
4108.418	72.88
4110.845	56.88
4113.27	58.88
4115.694	66.88
4118.115	56.88
4120.535	-27.12
4122.954	-26.12
4125.37	-21.12
4127.785	-33.12
4130.198	-24.12
4132.609	-31.12
4135.019	8.88
4137.427	0.88
4139.833	3.88
4142.237	-4.12
