Data from 2018-3-6_conc=2_n=3_RamanShift_02.txt Node
Date: Tue Mar 06 12:48:49 GMT+02:00 2018
User: LAB3
Spectrometer: QEPB0276
Trigger mode: 0
Integration Time (sec): 3.000000E1
Scans to average: 1
Electric dark correction enabled: true
Nonlinearity correction enabled: false
Boxcar width: 0
XAxis mode: Raman Shifts
Number of Pixels in Spectrum: 1044
>>>>>Begin Spectral Data<<<<<
160.701	158.12
166.742	206.12
172.777	297.12
178.805	596.12
184.826	1385.12
190.841	2753.12
196.849	4392.12
202.85	5670.12
208.845	6123.12
214.833	6117.12
220.815	6054.12
226.789	6064.12
232.758	6133.12
238.719	6155.12
244.674	6129.12
250.623	6085.12
256.565	6062.12
262.5	6034.12
268.429	5966.12
274.351	5947.12
280.267	5970.12
286.176	5957.12
292.079	5961.12
297.975	5993.12
303.865	6005.12
309.748	6032.12
315.625	6019.12
321.495	6059.12
327.359	6076.12
333.217	6094.12
339.068	6089.12
344.912	6164.12
350.751	6171.12
356.583	6190.12
362.408	6172.12
368.227	6232.12
374.04	6269.12
379.847	6311.12
385.647	6353.12
391.44	6388.12
397.228	6397.12
403.009	6438.12
408.784	6450.12
414.553	6520.12
420.315	6523.12
426.071	6493.12
431.821	6567.12
437.565	6536.12
443.302	6507.12
449.033	6469.12
454.758	6457.12
460.477	6395.12
466.189	6287.12
471.896	6277.12
477.596	6215.12
483.29	6164.12
488.978	6165.12
494.66	6126.12
500.335	5944.12
506.005	5687.12
511.668	5407.12
517.325	5110.12
522.977	4920.12
528.622	4772.12
534.261	4623.12
539.894	4529.12
545.521	4456.12
551.141	4379.12
556.756	4361.12
562.365	4310.12
567.968	4285.12
573.565	4230.12
579.155	4214.12
584.74	4207.12
590.319	4179.12
595.892	4192.12
601.459	4170.12
607.02	4166.12
612.575	4138.12
618.124	4081.12
623.667	3986.12
629.204	3987.12
634.735	3939.12
640.261	3862.12
645.781	3804.12
651.294	3809.12
656.802	3827.12
662.304	3786.12
667.8	3791.12
673.29	3791.12
678.775	3756.12
684.254	3746.12
689.726	3719.12
695.193	3705.12
700.655	3690.12
706.11	3656.12
711.56	3620.12
717.004	3623.12
722.442	3606.12
727.874	3576.12
733.301	3589.12
738.722	3571.12
744.137	3536.12
749.547	3548.12
754.951	3578.12
760.349	3572.12
765.741	3613.12
771.128	3623.12
776.509	3648.12
781.885	3704.12
787.254	3759.12
792.618	3753.12
797.977	3766.12
803.33	3724.12
808.677	3740.12
814.019	3675.12
819.355	3636.12
824.686	3605.12
830.011	3579.12
835.33	3584.12
840.644	3575.12
845.952	3482.12
851.255	3505.12
856.552	3462.12
861.844	3416.12
867.13	3407.12
872.41	3361.12
877.686	3359.12
882.955	3329.12
888.219	3326.12
893.478	3256.12
898.731	3189.12
903.979	3128.12
909.221	3116.12
914.458	3096.12
919.69	3100.12
924.916	3096.12
930.136	3099.12
935.351	3092.12
940.561	3096.12
945.766	3073.12
950.965	3115.12
956.158	3080.12
961.347	3009.12
966.529	2981.12
971.707	2958.12
976.879	2914.12
982.046	2896.12
987.208	2867.12
992.364	2881.12
997.515	2887.12
1002.66	2928.12
1007.801	2942.12
1012.936	2938.12
1018.066	2945.12
1023.19	2973.12
1028.309	3004.12
1033.423	2989.12
1038.532	3009.12
1043.636	2978.12
1048.734	2971.12
1053.827	2917.12
1058.915	2922.12
1063.998	2899.12
1069.075	2879.12
1074.147	2871.12
1079.214	2857.12
1084.276	2913.12
1089.333	2862.12
1094.385	2904.12
1099.431	2859.12
1104.472	2872.12
1109.509	2836.12
1114.54	2800.12
1119.565	2762.12
1124.586	2709.12
1129.602	2697.12
1134.613	2641.12
1139.618	2645.12
1144.619	2647.12
1149.614	2669.12
1154.604	2650.12
1159.589	2663.12
1164.57	2692.12
1169.545	2701.12
1174.515	2691.12
1179.48	2666.12
1184.44	2669.12
1189.395	2673.12
1194.345	2605.12
1199.29	2615.12
1204.23	2626.12
1209.165	2612.12
1214.095	2610.12
1219.021	2615.12
1223.941	2634.12
1228.856	2616.12
1233.766	2663.12
1238.672	2646.12
1243.572	2652.12
1248.467	2622.12
1253.358	2611.12
1258.244	2531.12
1263.124	2527.12
1268	2477.12
1272.871	2433.12
1277.737	2420.12
1282.599	2402.12
1287.455	2402.12
1292.306	2404.12
1297.153	2408.12
1301.995	2426.12
1306.832	2427.12
1311.664	2450.12
1316.491	2433.12
1321.314	2431.12
1326.132	2399.12
1330.945	2372.12
1335.753	2338.12
1340.556	2297.12
1345.354	2276.12
1350.148	2256.12
1354.937	2220.12
1359.722	2192.12
1364.501	2178.12
1369.276	2184.12
1374.046	2178.12
1378.811	2153.12
1383.572	2188.12
1388.327	2162.12
1393.079	2138.12
1397.825	2120.12
1402.567	2096.12
1407.304	2084.12
1412.036	2090.12
1416.764	2082.12
1421.487	2067.12
1426.205	2070.12
1430.919	2075.12
1435.628	2061.12
1440.333	2082.12
1445.032	2129.12
1449.727	2115.12
1454.418	2157.12
1459.104	2140.12
1463.785	2113.12
1468.462	2099.12
1473.134	2070.12
1477.802	2027.12
1482.465	2001.12
1487.123	1997.12
1491.777	1968.12
1496.426	1953.12
1501.071	1995.12
1505.711	1975.12
1510.347	2009.12
1514.978	2035.12
1519.604	2004.12
1524.226	2009.12
1528.844	1988.12
1533.457	1982.12
1538.065	1972.12
1542.669	1958.12
1547.269	1931.12
1551.864	1932.12
1556.454	1898.12
1561.041	1900.12
1565.622	1901.12
1570.199	1902.12
1574.772	1923.12
1579.34	1930.12
1583.904	1950.12
1588.464	1957.12
1593.019	1956.12
1597.569	1949.12
1602.115	1943.12
1606.657	1949.12
1611.195	1935.12
1615.728	1953.12
1620.256	1909.12
1624.78	1901.12
1629.3	1914.12
1633.816	1947.12
1638.327	1928.12
1642.834	1972.12
1647.336	1978.12
1651.834	2011.12
1656.328	2005.12
1660.817	1994.12
1665.302	1977.12
1669.783	1967.12
1674.259	1929.12
1678.732	1886.12
1683.199	1864.12
1687.663	1812.12
1692.122	1765.12
1696.577	1754.12
1701.028	1729.12
1705.474	1698.12
1709.917	1658.12
1714.355	1643.12
1718.788	1628.12
1723.218	1584.12
1727.643	1563.12
1732.064	1567.12
1736.481	1514.12
1740.893	1512.12
1745.301	1469.12
1749.705	1419.12
1754.105	1398.12
1758.501	1391.12
1762.893	1366.12
1767.28	1326.12
1771.663	1335.12
1776.042	1316.12
1780.417	1311.12
1784.787	1313.12
1789.154	1326.12
1793.516	1334.12
1797.874	1333.12
1802.228	1317.12
1806.578	1299.12
1810.924	1316.12
1815.266	1189.12
1819.603	1281.12
1823.937	1245.12
1828.266	1242.12
1832.591	1214.12
1836.913	1216.12
1841.23	1190.12
1845.543	1190.12
1849.852	1213.12
1854.156	1187.12
1858.457	1196.12
1862.754	1200.12
1867.047	1185.12
1871.335	1218.12
1875.62	1228.12
1879.9	1220.12
1884.177	1200.12
1888.449	1220.12
1892.718	1205.12
1896.982	1206.12
1901.243	1188.12
1905.499	1197.12
1909.752	1179.12
1914	1180.12
1918.245	1194.12
1922.485	1214.12
1926.722	1210.12
1930.954	1191.12
1935.183	1213.12
1939.408	1228.12
1943.628	1220.12
1947.845	1197.12
1952.058	1187.12
1956.267	1164.12
1960.472	1146.12
1964.673	1124.12
1968.87	1113.12
1973.063	1080.12
1977.252	1064.12
1981.438	1060.12
1985.619	1043.12
1989.797	1014.12
1993.971	1022.12
1998.14	1019.12
2002.306	1001.12
2006.469	1019.12
2010.627	998.12
2014.781	1001.12
2018.932	996.12
2023.078	1020.12
2027.221	978.12
2031.36	981.12
2035.495	968.12
2039.627	965.12
2043.754	952.12
2047.878	946.12
2051.998	950.12
2056.114	943.12
2060.226	938.12
2064.334	953.12
2068.439	957.12
2072.54	972.12
2076.637	968.12
2080.73	965.12
2084.82	967.12
2088.906	962.12
2092.988	964.12
2097.066	971.12
2101.14	963.12
2105.211	943.12
2109.278	932.12
2113.342	917.12
2117.401	906.12
2121.457	895.12
2125.509	878.12
2129.558	886.12
2133.602	872.12
2137.643	858.12
2141.681	855.12
2145.714	853.12
2149.744	841.12
2153.77	838.12
2157.793	815.12
2161.812	790.12
2165.827	779.12
2169.838	800.12
2173.846	770.12
2177.851	757.12
2181.851	762.12
2185.848	731.12
2189.841	737.12
2193.831	734.12
2197.817	731.12
2201.799	728.12
2205.778	704.12
2209.753	705.12
2213.725	705.12
2217.693	695.12
2221.657	697.12
2225.618	701.12
2229.575	700.12
2233.529	696.12
2237.479	680.12
2241.425	667.12
2245.368	645.12
2249.307	662.12
2253.243	645.12
2257.175	640.12
2261.104	627.12
2265.029	624.12
2268.95	613.12
2272.868	601.12
2276.783	596.12
2280.694	596.12
2284.601	591.12
2288.505	575.12
2292.405	572.12
2296.302	554.12
2300.195	554.12
2304.085	519.12
2307.971	535.12
2311.854	501.12
2315.734	509.12
2319.609	514.12
2323.482	489.12
2327.351	493.12
2331.216	502.12
2335.078	502.12
2338.937	502.12
2342.792	478.12
2346.643	474.12
2350.492	478.12
2354.336	479.12
2358.178	489.12
2362.015	478.12
2365.85	487.12
2369.681	479.12
2373.508	479.12
2377.333	501.12
2381.153	483.12
2384.971	471.12
2388.785	473.12
2392.595	458.12
2396.402	467.12
2400.206	438.12
2404.007	452.12
2407.804	448.12
2411.597	461.12
2415.388	453.12
2419.174	462.12
2422.958	443.12
2426.738	448.12
2430.515	447.12
2434.289	428.12
2438.059	432.12
2441.825	441.12
2445.589	442.12
2449.349	419.12
2453.106	428.12
2456.859	419.12
2460.61	422.12
2464.356	402.12
2468.1	401.12
2471.84	388.12
2475.577	390.12
2479.311	396.12
2483.041	400.12
2486.768	399.12
2490.492	412.12
2494.213	405.12
2497.93	389.12
2501.644	375.12
2505.355	397.12
2509.062	392.12
2512.766	388.12
2516.467	386.12
2520.165	388.12
2523.859	371.12
2527.551	392.12
2531.239	375.12
2534.923	389.12
2538.605	377.12
2542.283	370.12
2545.958	370.12
2549.63	383.12
2553.299	383.12
2556.964	369.12
2560.626	367.12
2564.285	371.12
2567.941	361.12
2571.594	353.12
2575.243	370.12
2578.89	357.12
2582.533	356.12
2586.173	347.12
2589.809	346.12
2593.443	324.12
2597.073	337.12
2600.701	340.12
2604.325	328.12
2607.946	318.12
2611.564	336.12
2615.178	330.12
2618.79	334.12
2622.398	321.12
2626.004	324.12
2629.606	323.12
2633.205	300.12
2636.801	307.12
2640.394	299.12
2643.983	292.12
2647.57	298.12
2651.153	290.12
2654.734	305.12
2658.311	272.12
2661.885	274.12
2665.456	276.12
2669.025	283.12
2672.589	268.12
2676.151	294.12
2679.71	272.12
2683.266	269.12
2686.819	269.12
2690.368	271.12
2693.915	276.12
2697.458	264.12
2700.999	269.12
2704.536	262.12
2708.071	253.12
2711.602	255.12
2715.13	247.12
2718.656	236.12
2722.178	255.12
2725.697	237.12
2729.214	239.12
2732.727	246.12
2736.237	235.12
2739.744	244.12
2743.249	236.12
2746.75	246.12
2750.248	240.12
2753.743	255.12
2757.236	251.12
2760.725	249.12
2764.211	225.12
2767.695	251.12
2771.175	242.12
2774.652	243.12
2778.127	228.12
2781.598	233.12
2785.067	235.12
2788.532	222.12
2791.995	240.12
2795.455	218.12
2798.911	238.12
2802.365	224.12
2805.816	231.12
2809.264	238.12
2812.709	234.12
2816.151	239.12
2819.59	227.12
2823.026	235.12
2826.46	232.12
2829.89	244.12
2833.318	216.12
2836.742	233.12
2840.164	239.12
2843.583	241.12
2846.999	237.12
2850.412	240.12
2853.822	250.12
2857.229	256.12
2860.634	251.12
2864.035	241.12
2867.434	258.12
2870.83	274.12
2874.223	254.12
2877.613	262.12
2881	266.12
2884.385	259.12
2887.766	270.12
2891.145	262.12
2894.521	264.12
2897.894	265.12
2901.264	276.12
2904.631	267.12
2907.996	275.12
2911.358	278.12
2914.717	274.12
2918.073	268.12
2921.426	271.12
2924.777	265.12
2928.124	276.12
2931.469	305.12
2934.811	284.12
2938.15	316.12
2941.487	306.12
2944.821	322.12
2948.152	298.12
2951.48	310.12
2954.805	302.12
2958.128	313.12
2961.447	297.12
2964.765	312.12
2968.079	302.12
2971.39	314.12
2974.699	309.12
2978.005	312.12
2981.308	319.12
2984.609	313.12
2987.907	322.12
2991.202	340.12
2994.494	319.12
2997.784	334.12
3001.07	328.12
3004.355	331.12
3007.636	324.12
3010.915	339.12
3014.191	336.12
3017.464	341.12
3020.734	337.12
3024.002	342.12
3027.267	339.12
3030.53	350.12
3033.789	345.12
3037.046	348.12
3040.301	348.12
3043.552	354.12
3046.801	375.12
3050.048	374.12
3053.291	408.12
3056.532	387.12
3059.771	385.12
3063.006	413.12
3066.239	418.12
3069.469	430.12
3072.697	422.12
3075.922	441.12
3079.144	449.12
3082.364	473.12
3085.581	470.12
3088.795	499.12
3092.007	503.12
3095.216	515.12
3098.423	512.12
3101.627	492.12
3104.828	535.12
3108.026	539.12
3111.222	571.12
3114.416	580.12
3117.607	578.12
3120.795	592.12
3123.98	601.12
3127.163	595.12
3130.344	637.12
3133.521	614.12
3136.696	662.12
3139.869	661.12
3143.039	659.12
3146.206	693.12
3149.371	697.12
3152.533	695.12
3155.693	684.12
3158.85	699.12
3162.005	711.12
3165.157	705.12
3168.306	709.12
3171.453	724.12
3174.597	700.12
3177.739	703.12
3180.878	710.12
3184.014	721.12
3187.149	723.12
3190.28	718.12
3193.409	732.12
3196.536	726.12
3199.659	747.12
3202.781	739.12
3205.9	717.12
3209.016	724.12
3212.13	732.12
3215.241	720.12
3218.35	725.12
3221.456	720.12
3224.56	707.12
3227.661	721.12
3230.76	699.12
3233.856	694.12
3236.95	710.12
3240.041	691.12
3243.13	693.12
3246.216	693.12
3249.3	688.12
3252.382	674.12
3255.46	676.12
3258.537	620.12
3261.611	668.12
3264.682	680.12
3267.751	666.12
3270.818	655.12
3273.882	662.12
3276.943	669.12
3280.002	665.12
3283.059	645.12
3286.113	637.12
3289.165	631.12
3292.214	616.12
3295.261	620.12
3298.306	580.12
3301.348	604.12
3304.387	586.12
3307.425	573.12
3310.459	557.12
3313.492	575.12
3316.521	560.12
3319.549	560.12
3322.574	573.12
3325.597	540.12
3328.617	535.12
3331.635	551.12
3334.65	530.12
3337.663	536.12
3340.674	535.12
3343.682	532.12
3346.688	548.12
3349.691	521.12
3352.692	537.12
3355.691	533.12
3358.687	519.12
3361.681	519.12
3364.673	511.12
3367.662	506.12
3370.649	521.12
3373.633	492.12
3376.615	500.12
3379.595	482.12
3382.572	478.12
3385.547	474.12
3388.52	465.12
3391.49	458.12
3394.458	455.12
3397.424	468.12
3400.387	442.12
3403.348	444.12
3406.307	445.12
3409.263	441.12
3412.217	436.12
3415.168	440.12
3418.118	438.12
3421.065	428.12
3424.009	430.12
3426.951	420.12
3429.891	405.12
3432.829	406.12
3435.764	410.12
3438.697	388.12
3441.628	395.12
3444.557	369.12
3447.483	359.12
3450.407	368.12
3453.328	348.12
3456.247	334.12
3459.164	328.12
3462.079	339.12
3464.991	324.12
3467.902	303.12
3470.809	299.12
3473.715	306.12
3476.618	280.12
3479.519	286.12
3482.418	265.12
3485.315	258.12
3488.209	264.12
3491.101	254.12
3493.99	238.12
3496.878	235.12
3499.763	240.12
3502.646	234.12
3505.527	211.12
3508.405	219.12
3511.281	196.12
3514.155	201.12
3517.027	190.12
3519.897	182.12
3522.764	190.12
3525.629	161.12
3528.492	166.12
3531.352	167.12
3534.211	151.12
3537.067	142.12
3539.921	143.12
3542.773	143.12
3545.622	115.12
3548.469	119.12
3551.315	114.12
3554.157	116.12
3556.998	92.12
3559.837	108.12
3562.673	100.12
3565.507	92.12
3568.339	82.12
3571.169	92.12
3573.996	83.12
3576.822	73.12
3579.645	73.12
3582.466	65.12
3585.285	72.12
3588.101	69.12
3590.916	58.12
3593.728	70.12
3596.538	56.12
3599.346	52.12
3602.152	48.12
3604.956	50.12
3607.757	50.12
3610.556	26.12
3613.354	43.12
3616.149	40.12
3618.942	40.12
3621.732	36.12
3624.521	28.12
3627.307	21.12
3630.092	21.12
3632.874	38.12
3635.654	25.12
3638.432	16.12
3641.208	14.12
3643.982	14.12
3646.753	26.12
3649.523	-9.88
3652.29	11.12
3655.055	15.12
3657.818	10.12
3660.579	5.12
3663.338	-0.88
3666.095	-1.88
3668.849	-22.88
3671.602	5.12
3674.352	-16.88
3677.101	4.12
3679.847	8.12
3682.591	-7.88
3685.333	-17.88
3688.073	-1.88
3690.811	-20.88
3693.547	-17.88
3696.281	-20.88
3699.013	-5.88
3701.742	-10.88
3704.47	-17.88
3707.195	-4.88
3709.919	-9.88
3712.64	-14.88
3715.359	-26.88
3718.076	-5.88
3720.792	-15.88
3723.505	-11.88
3726.216	-5.88
3728.925	-19.88
3731.632	-20.88
3734.336	-21.88
3737.039	-16.88
3739.74	-14.88
3742.439	-40.88
3745.136	-11.88
3747.83	-13.88
3750.523	-13.88
3753.213	-69.88
3755.902	-23.88
3758.589	-38.88
3761.273	-27.88
3763.956	-12.88
3766.636	-32.88
3769.315	-10.88
3771.991	-22.88
3774.665	-25.88
3777.338	-22.88
3780.008	-34.88
3782.677	-25.88
3785.343	-42.88
3788.007	-42.88
3790.67	-19.88
3793.33	-35.88
3795.989	-29.88
3798.645	-25.88
3801.299	-37.88
3803.952	-34.88
3806.602	-31.88
3809.251	-25.88
3811.897	-23.88
3814.542	-24.88
3817.184	-32.88
3819.825	-25.88
3822.463	-37.88
3825.1	-28.88
3827.735	-25.88
3830.367	-35.88
3832.998	-16.88
3835.627	-33.88
3838.253	-18.88
3840.878	-33.88
3843.501	-8.88
3846.122	-19.88
3848.741	-22.88
3851.358	-18.88
3853.973	-38.88
3856.586	-22.88
3859.197	-32.88
3861.806	-28.88
3864.414	-39.88
3867.019	-25.88
3869.622	-18.88
3872.224	-10.88
3874.823	2.12
3877.421	40.12
3880.016	63.12
3882.61	116.12
3885.202	130.12
3887.792	93.12
3890.38	55.12
3892.966	3.12
3895.55	-24.88
3898.132	-19.88
3900.713	-17.88
3903.291	-25.88
3905.868	-30.88
3908.442	-30.88
3911.015	-28.88
3913.586	-34.88
3916.155	-33.88
3918.722	-36.88
3921.287	-39.88
3923.85	-44.88
3926.411	-38.88
3928.971	-37.88
3931.528	-28.88
3934.084	-37.88
3936.638	-41.88
3939.19	-26.88
3941.74	-27.88
3944.288	-35.88
3946.834	-35.88
3949.378	-22.88
3951.921	-32.88
3954.462	-36.88
3957	-23.88
3959.537	-14.88
3962.072	-32.88
3964.606	-40.88
3967.137	-33.88
3969.667	-36.88
3972.194	-25.88
3974.72	-37.88
3977.244	-54.88
3979.766	-37.88
3982.286	-37.88
3984.805	-22.88
3987.321	-18.88
3989.836	-23.88
3992.349	-33.88
3994.86	-26.88
3997.369	-35.88
3999.877	-32.88
4002.382	-31.88
4004.886	-24.88
4007.388	-26.88
4009.888	-14.88
4012.386	-22.88
4014.883	-23.88
4017.377	-27.88
4019.87	-21.88
4022.361	-35.88
4024.85	-27.88
4027.338	-24.88
4029.823	-32.88
4032.307	-29.88
4034.789	-28.88
4037.269	-26.88
4039.747	-38.88
4042.224	-18.88
4044.699	-30.88
4047.172	-30.88
4049.643	-19.88
4052.112	-48.88
4054.58	-26.88
4057.046	-38.88
4059.51	-26.88
4061.972	-24.88
4064.432	-42.88
4066.891	-20.88
4069.348	-25.88
4071.803	-23.88
4074.256	-29.88
4076.708	-19.88
4079.158	-23.88
4081.606	-14.88
4084.052	-30.88
4086.497	-21.88
4088.939	-24.88
4091.38	-26.88
4093.819	-17.88
4096.257	0.12
4098.693	-6.88
4101.127	-2.88
4103.559	0.12
4105.989	146.12
4108.418	150.12
4110.845	130.12
4113.27	144.12
4115.694	152.12
4118.115	142.12
4120.535	-24.88
4122.954	-21.88
4125.37	-12.88
4127.785	-18.88
4130.198	-20.88
4132.609	-21.88
4135.019	8.12
4137.427	1.12
4139.833	6.12
4142.237	-5.88
