Data from 2018-3-6_conc=4_n=10_RamanShift_02.txt Node
Date: Tue Mar 06 14:19:18 GMT+02:00 2018
User: LAB3
Spectrometer: QEPB0276
Trigger mode: 0
Integration Time (sec): 3.000000E1
Scans to average: 1
Electric dark correction enabled: true
Nonlinearity correction enabled: false
Boxcar width: 0
XAxis mode: Raman Shifts
Number of Pixels in Spectrum: 1044
>>>>>Begin Spectral Data<<<<<
160.701	67.25
166.742	87.25
172.777	127.25
178.805	255.25
184.826	591.25
190.841	1213.25
196.849	1882.25
202.85	2366.25
208.845	2530.25
214.833	2493.25
220.815	2437.25
226.789	2419.25
232.758	2403.25
238.719	2373.25
244.674	2358.25
250.623	2311.25
256.565	2271.25
262.5	2247.25
268.429	2220.25
274.351	2204.25
280.267	2203.25
286.176	2172.25
292.079	2179.25
297.975	2167.25
303.865	2159.25
309.748	2149.25
315.625	2149.25
321.495	2131.25
327.359	2129.25
333.217	2131.25
339.068	2118.25
344.912	2133.25
350.751	2150.25
356.583	2128.25
362.408	2138.25
368.227	2160.25
374.04	2156.25
379.847	2163.25
385.647	2168.25
391.44	2167.25
397.228	2178.25
403.009	2190.25
408.784	2197.25
414.553	2211.25
420.315	2200.25
426.071	2189.25
431.821	2226.25
437.565	2214.25
443.302	2185.25
449.033	2170.25
454.758	2191.25
460.477	2165.25
466.189	2150.25
471.896	2122.25
477.596	2125.25
483.29	2094.25
488.978	2075.25
494.66	2058.25
500.335	2005.25
506.005	1912.25
511.668	1877.25
517.325	1745.25
522.977	1675.25
528.622	1619.25
534.261	1591.25
539.894	1570.25
545.521	1537.25
551.141	1498.25
556.756	1490.25
562.365	1492.25
567.968	1478.25
573.565	1449.25
579.155	1455.25
584.74	1460.25
590.319	1461.25
595.892	1451.25
601.459	1440.25
607.02	1467.25
612.575	1435.25
618.124	1420.25
623.667	1377.25
629.204	1384.25
634.735	1355.25
640.261	1338.25
645.781	1299.25
651.294	1312.25
656.802	1312.25
662.304	1335.25
667.8	1325.25
673.29	1307.25
678.775	1314.25
684.254	1310.25
689.726	1286.25
695.193	1293.25
700.655	1284.25
706.11	1248.25
711.56	1273.25
717.004	1264.25
722.442	1245.25
727.874	1262.25
733.301	1245.25
738.722	1212.25
744.137	1230.25
749.547	1222.25
754.951	1222.25
760.349	1228.25
765.741	1225.25
771.128	1253.25
776.509	1251.25
781.885	1273.25
787.254	1301.25
792.618	1296.25
797.977	1302.25
803.33	1283.25
808.677	1252.25
814.019	1265.25
819.355	1250.25
824.686	1227.25
830.011	1210.25
835.33	1229.25
840.644	1232.25
845.952	1201.25
851.255	1211.25
856.552	1186.25
861.844	1174.25
867.13	1159.25
872.41	1152.25
877.686	1149.25
882.955	1145.25
888.219	1138.25
893.478	1114.25
898.731	1087.25
903.979	1100.25
909.221	1075.25
914.458	1066.25
919.69	1066.25
924.916	1068.25
930.136	1066.25
935.351	1051.25
940.561	1084.25
945.766	1060.25
950.965	1062.25
956.158	1043.25
961.347	1040.25
966.529	1025.25
971.707	1016.25
976.879	1003.25
982.046	991.25
987.208	974.25
992.364	977.25
997.515	1002.25
1002.66	1000.25
1007.801	1001.25
1012.936	1014.25
1018.066	983.25
1023.19	1015.25
1028.309	1026.25
1033.423	1023.25
1038.532	1027.25
1043.636	1011.25
1048.734	997.25
1053.827	985.25
1058.915	976.25
1063.998	973.25
1069.075	984.25
1074.147	975.25
1079.214	957.25
1084.276	987.25
1089.333	990.25
1094.385	986.25
1099.431	975.25
1104.472	977.25
1109.509	967.25
1114.54	939.25
1119.565	931.25
1124.586	924.25
1129.602	913.25
1134.613	899.25
1139.618	895.25
1144.619	896.25
1149.614	908.25
1154.604	896.25
1159.589	903.25
1164.57	918.25
1169.545	917.25
1174.515	914.25
1179.48	910.25
1184.44	906.25
1189.395	904.25
1194.345	876.25
1199.29	888.25
1204.23	883.25
1209.165	871.25
1214.095	889.25
1219.021	873.25
1223.941	887.25
1228.856	886.25
1233.766	897.25
1238.672	908.25
1243.572	901.25
1248.467	892.25
1253.358	881.25
1258.244	850.25
1263.124	854.25
1268	845.25
1272.871	817.25
1277.737	813.25
1282.599	813.25
1287.455	811.25
1292.306	806.25
1297.153	798.25
1301.995	802.25
1306.832	809.25
1311.664	807.25
1316.491	813.25
1321.314	815.25
1326.132	790.25
1330.945	804.25
1335.753	791.25
1340.556	775.25
1345.354	758.25
1350.148	748.25
1354.937	744.25
1359.722	714.25
1364.501	710.25
1369.276	730.25
1374.046	733.25
1378.811	713.25
1383.572	721.25
1388.327	714.25
1393.079	698.25
1397.825	716.25
1402.567	695.25
1407.304	701.25
1412.036	678.25
1416.764	690.25
1421.487	678.25
1426.205	680.25
1430.919	684.25
1435.628	682.25
1440.333	681.25
1445.032	694.25
1449.727	692.25
1454.418	714.25
1459.104	701.25
1463.785	685.25
1468.462	666.25
1473.134	672.25
1477.802	664.25
1482.465	641.25
1487.123	641.25
1491.777	622.25
1496.426	612.25
1501.071	648.25
1505.711	623.25
1510.347	637.25
1514.978	638.25
1519.604	636.25
1524.226	653.25
1528.844	624.25
1533.457	633.25
1538.065	626.25
1542.669	620.25
1547.269	628.25
1551.864	623.25
1556.454	614.25
1561.041	616.25
1565.622	618.25
1570.199	625.25
1574.772	632.25
1579.34	631.25
1583.904	638.25
1588.464	654.25
1593.019	655.25
1597.569	640.25
1602.115	637.25
1606.657	633.25
1611.195	649.25
1615.728	646.25
1620.256	629.25
1624.78	615.25
1629.3	615.25
1633.816	635.25
1638.327	618.25
1642.834	636.25
1647.336	637.25
1651.834	646.25
1656.328	632.25
1660.817	632.25
1665.302	625.25
1669.783	616.25
1674.259	602.25
1678.732	573.25
1683.199	581.25
1687.663	547.25
1692.122	560.25
1696.577	545.25
1701.028	533.25
1705.474	522.25
1709.917	499.25
1714.355	490.25
1718.788	487.25
1723.218	490.25
1727.643	474.25
1732.064	489.25
1736.481	459.25
1740.893	458.25
1745.301	446.25
1749.705	413.25
1754.105	439.25
1758.501	409.25
1762.893	430.25
1767.28	390.25
1771.663	414.25
1776.042	398.25
1780.417	399.25
1784.787	400.25
1789.154	401.25
1793.516	393.25
1797.874	397.25
1802.228	395.25
1806.578	373.25
1810.924	395.25
1815.266	271.25
1819.603	384.25
1823.937	375.25
1828.266	381.25
1832.591	375.25
1836.913	372.25
1841.23	357.25
1845.543	355.25
1849.852	367.25
1854.156	356.25
1858.457	365.25
1862.754	356.25
1867.047	364.25
1871.335	370.25
1875.62	368.25
1879.9	374.25
1884.177	346.25
1888.449	351.25
1892.718	362.25
1896.982	359.25
1901.243	337.25
1905.499	351.25
1909.752	336.25
1914	320.25
1918.245	347.25
1922.485	345.25
1926.722	335.25
1930.954	323.25
1935.183	341.25
1939.408	354.25
1943.628	341.25
1947.845	337.25
1952.058	342.25
1956.267	323.25
1960.472	330.25
1964.673	327.25
1968.87	316.25
1973.063	313.25
1977.252	316.25
1981.438	314.25
1985.619	311.25
1989.797	295.25
1993.971	311.25
1998.14	314.25
2002.306	305.25
2006.469	308.25
2010.627	290.25
2014.781	299.25
2018.932	288.25
2023.078	315.25
2027.221	298.25
2031.36	283.25
2035.495	283.25
2039.627	285.25
2043.754	284.25
2047.878	269.25
2051.998	264.25
2056.114	272.25
2060.226	282.25
2064.334	275.25
2068.439	281.25
2072.54	282.25
2076.637	267.25
2080.73	271.25
2084.82	276.25
2088.906	274.25
2092.988	269.25
2097.066	269.25
2101.14	280.25
2105.211	277.25
2109.278	259.25
2113.342	257.25
2117.401	243.25
2121.457	242.25
2125.509	241.25
2129.558	251.25
2133.602	248.25
2137.643	248.25
2141.681	246.25
2145.714	239.25
2149.744	252.25
2153.77	238.25
2157.793	229.25
2161.812	220.25
2165.827	211.25
2169.838	232.25
2173.846	213.25
2177.851	224.25
2181.851	232.25
2185.848	219.25
2189.841	213.25
2193.831	208.25
2197.817	206.25
2201.799	208.25
2205.778	199.25
2209.753	194.25
2213.725	191.25
2217.693	208.25
2221.657	199.25
2225.618	211.25
2229.575	193.25
2233.529	201.25
2237.479	204.25
2241.425	191.25
2245.368	184.25
2249.307	187.25
2253.243	191.25
2257.175	174.25
2261.104	172.25
2265.029	191.25
2268.95	173.25
2272.868	168.25
2276.783	166.25
2280.694	174.25
2284.601	171.25
2288.505	159.25
2292.405	170.25
2296.302	150.25
2300.195	169.25
2304.085	132.25
2307.971	155.25
2311.854	133.25
2315.734	145.25
2319.609	155.25
2323.482	127.25
2327.351	139.25
2331.216	144.25
2335.078	146.25
2338.937	150.25
2342.792	129.25
2346.643	134.25
2350.492	138.25
2354.336	133.25
2358.178	139.25
2362.015	139.25
2365.85	133.25
2369.681	135.25
2373.508	138.25
2377.333	140.25
2381.153	141.25
2384.971	133.25
2388.785	137.25
2392.595	123.25
2396.402	123.25
2400.206	100.25
2404.007	123.25
2407.804	129.25
2411.597	131.25
2415.388	129.25
2419.174	120.25
2422.958	124.25
2426.738	113.25
2430.515	130.25
2434.289	116.25
2438.059	113.25
2441.825	122.25
2445.589	127.25
2449.349	96.25
2453.106	115.25
2456.859	109.25
2460.61	118.25
2464.356	98.25
2468.1	105.25
2471.84	106.25
2475.577	100.25
2479.311	94.25
2483.041	108.25
2486.768	115.25
2490.492	117.25
2494.213	103.25
2497.93	88.25
2501.644	95.25
2505.355	101.25
2509.062	100.25
2512.766	99.25
2516.467	95.25
2520.165	96.25
2523.859	76.25
2527.551	119.25
2531.239	90.25
2534.923	97.25
2538.605	91.25
2542.283	96.25
2545.958	96.25
2549.63	101.25
2553.299	99.25
2556.964	84.25
2560.626	86.25
2564.285	92.25
2567.941	75.25
2571.594	80.25
2575.243	93.25
2578.89	86.25
2582.533	81.25
2586.173	84.25
2589.809	92.25
2593.443	53.25
2597.073	78.25
2600.701	86.25
2604.325	84.25
2607.946	70.25
2611.564	89.25
2615.178	85.25
2618.79	82.25
2622.398	72.25
2626.004	79.25
2629.606	84.25
2633.205	65.25
2636.801	78.25
2640.394	79.25
2643.983	70.25
2647.57	67.25
2651.153	68.25
2654.734	77.25
2658.311	49.25
2661.885	66.25
2665.456	65.25
2669.025	61.25
2672.589	61.25
2676.151	78.25
2679.71	75.25
2683.266	63.25
2686.819	61.25
2690.368	69.25
2693.915	68.25
2697.458	65.25
2700.999	70.25
2704.536	71.25
2708.071	57.25
2711.602	63.25
2715.13	65.25
2718.656	36.25
2722.178	55.25
2725.697	48.25
2729.214	49.25
2732.727	60.25
2736.237	42.25
2739.744	46.25
2743.249	53.25
2746.75	48.25
2750.248	43.25
2753.743	53.25
2757.236	52.25
2760.725	55.25
2764.211	19.25
2767.695	55.25
2771.175	46.25
2774.652	57.25
2778.127	48.25
2781.598	39.25
2785.067	54.25
2788.532	40.25
2791.995	49.25
2795.455	42.25
2798.911	58.25
2802.365	42.25
2805.816	52.25
2809.264	59.25
2812.709	43.25
2816.151	51.25
2819.59	40.25
2823.026	42.25
2826.46	46.25
2829.89	59.25
2833.318	27.25
2836.742	44.25
2840.164	51.25
2843.583	47.25
2846.999	45.25
2850.412	54.25
2853.822	43.25
2857.229	58.25
2860.634	54.25
2864.035	39.25
2867.434	56.25
2870.83	55.25
2874.223	49.25
2877.613	55.25
2881	49.25
2884.385	48.25
2887.766	46.25
2891.145	51.25
2894.521	49.25
2897.894	42.25
2901.264	56.25
2904.631	55.25
2907.996	56.25
2911.358	61.25
2914.717	61.25
2918.073	51.25
2921.426	52.25
2924.777	40.25
2928.124	56.25
2931.469	71.25
2934.811	46.25
2938.15	75.25
2941.487	60.25
2944.821	79.25
2948.152	64.25
2951.48	70.25
2954.805	59.25
2958.128	77.25
2961.447	63.25
2964.765	79.25
2968.079	64.25
2971.39	70.25
2974.699	74.25
2978.005	74.25
2981.308	70.25
2984.609	56.25
2987.907	74.25
2991.202	72.25
2994.494	59.25
2997.784	71.25
3001.07	76.25
3004.355	73.25
3007.636	76.25
3010.915	80.25
3014.191	80.25
3017.464	77.25
3020.734	81.25
3024.002	75.25
3027.267	83.25
3030.53	81.25
3033.789	76.25
3037.046	83.25
3040.301	72.25
3043.552	96.25
3046.801	95.25
3050.048	99.25
3053.291	112.25
3056.532	98.25
3059.771	87.25
3063.006	105.25
3066.239	109.25
3069.469	113.25
3072.697	111.25
3075.922	97.25
3079.144	103.25
3082.364	135.25
3085.581	121.25
3088.795	141.25
3092.007	135.25
3095.216	139.25
3098.423	132.25
3101.627	115.25
3104.828	140.25
3108.026	131.25
3111.222	155.25
3114.416	164.25
3117.607	156.25
3120.795	156.25
3123.98	160.25
3127.163	151.25
3130.344	147.25
3133.521	154.25
3136.696	177.25
3139.869	174.25
3143.039	159.25
3146.206	197.25
3149.371	190.25
3152.533	189.25
3155.693	168.25
3158.85	200.25
3162.005	186.25
3165.157	190.25
3168.306	189.25
3171.453	197.25
3174.597	190.25
3177.739	183.25
3180.878	195.25
3184.014	201.25
3187.149	194.25
3190.28	196.25
3193.409	201.25
3196.536	207.25
3199.659	206.25
3202.781	205.25
3205.9	188.25
3209.016	195.25
3212.13	195.25
3215.241	208.25
3218.35	205.25
3221.456	186.25
3224.56	178.25
3227.661	193.25
3230.76	187.25
3233.856	181.25
3236.95	189.25
3240.041	176.25
3243.13	191.25
3246.216	174.25
3249.3	180.25
3252.382	179.25
3255.46	166.25
3258.537	128.25
3261.611	168.25
3264.682	179.25
3267.751	170.25
3270.818	164.25
3273.882	174.25
3276.943	172.25
3280.002	179.25
3283.059	167.25
3286.113	169.25
3289.165	164.25
3292.214	160.25
3295.261	177.25
3298.306	148.25
3301.348	154.25
3304.387	150.25
3307.425	159.25
3310.459	150.25
3313.492	162.25
3316.521	157.25
3319.549	162.25
3322.574	153.25
3325.597	145.25
3328.617	138.25
3331.635	139.25
3334.65	128.25
3337.663	142.25
3340.674	137.25
3343.682	141.25
3346.688	149.25
3349.691	130.25
3352.692	140.25
3355.691	137.25
3358.687	135.25
3361.681	137.25
3364.673	136.25
3367.662	142.25
3370.649	141.25
3373.633	128.25
3376.615	133.25
3379.595	110.25
3382.572	125.25
3385.547	117.25
3388.52	113.25
3391.49	115.25
3394.458	115.25
3397.424	118.25
3400.387	107.25
3403.348	111.25
3406.307	110.25
3409.263	114.25
3412.217	117.25
3415.168	109.25
3418.118	125.25
3421.065	110.25
3424.009	114.25
3426.951	100.25
3429.891	104.25
3432.829	99.25
3435.764	97.25
3438.697	91.25
3441.628	106.25
3444.557	73.25
3447.483	78.25
3450.407	93.25
3453.328	81.25
3456.247	73.25
3459.164	64.25
3462.079	86.25
3464.991	69.25
3467.902	65.25
3470.809	68.25
3473.715	70.25
3476.618	61.25
3479.519	61.25
3482.418	42.25
3485.315	49.25
3488.209	49.25
3491.101	57.25
3493.99	41.25
3496.878	35.25
3499.763	41.25
3502.646	45.25
3505.527	32.25
3508.405	36.25
3511.281	23.25
3514.155	34.25
3517.027	33.25
3519.897	17.25
3522.764	30.25
3525.629	13.25
3528.492	22.25
3531.352	25.25
3534.211	16.25
3537.067	13.25
3539.921	17.25
3542.773	24.25
3545.622	8.25
3548.469	6.25
3551.315	-0.75
3554.157	9.25
3556.998	-2.75
3559.837	5.25
3562.673	8.25
3565.507	-3.75
3568.339	-4.75
3571.169	-4.75
3573.996	-3.75
3576.822	-15.75
3579.645	-7.75
3582.466	-7.75
3585.285	-1.75
3588.101	-7.75
3590.916	-12.75
3593.728	-1.75
3596.538	-6.75
3599.346	-10.75
3602.152	-17.75
3604.956	-9.75
3607.757	-8.75
3610.556	-18.75
3613.354	-8.75
3616.149	-11.75
3618.942	-10.75
3621.732	-10.75
3624.521	-14.75
3627.307	-28.75
3630.092	-24.75
3632.874	-5.75
3635.654	-19.75
3638.432	-27.75
3641.208	-27.75
3643.982	-23.75
3646.753	-14.75
3649.523	-47.75
3652.29	-26.75
3655.055	-18.75
3657.818	-17.75
3660.579	-26.75
3663.338	-34.75
3666.095	-26.75
3668.849	-47.75
3671.602	-18.75
3674.352	-34.75
3677.101	-19.75
3679.847	-22.75
3682.591	-34.75
3685.333	-36.75
3688.073	-29.75
3690.811	-38.75
3693.547	-38.75
3696.281	-38.75
3699.013	-27.75
3701.742	-33.75
3704.47	-39.75
3707.195	-25.75
3709.919	-27.75
3712.64	-33.75
3715.359	-45.75
3718.076	-14.75
3720.792	-28.75
3723.505	-29.75
3726.216	-21.75
3728.925	-31.75
3731.632	-37.75
3734.336	-34.75
3737.039	-31.75
3739.74	-29.75
3742.439	-52.75
3745.136	-20.75
3747.83	-26.75
3750.523	-25.75
3753.213	-91.75
3755.902	-35.75
3758.589	-48.75
3761.273	-33.75
3763.956	-25.75
3766.636	-49.75
3769.315	-25.75
3771.991	-37.75
3774.665	-36.75
3777.338	-34.75
3780.008	-42.75
3782.677	-35.75
3785.343	-46.75
3788.007	-55.75
3790.67	-24.75
3793.33	-45.75
3795.989	-40.75
3798.645	-25.75
3801.299	-48.75
3803.952	-37.75
3806.602	-37.75
3809.251	-28.75
3811.897	-37.75
3814.542	-38.75
3817.184	-34.75
3819.825	-29.75
3822.463	-47.75
3825.1	-35.75
3827.735	-34.75
3830.367	-43.75
3832.998	-20.75
3835.627	-37.75
3838.253	-25.75
3840.878	-33.75
3843.501	-16.75
3846.122	-30.75
3848.741	-26.75
3851.358	-22.75
3853.973	-44.75
3856.586	-24.75
3859.197	-44.75
3861.806	-34.75
3864.414	-42.75
3867.019	-31.75
3869.622	-24.75
3872.224	-25.75
3874.823	-15.75
3877.421	12.25
3880.016	15.25
3882.61	56.25
3885.202	64.25
3887.792	42.25
3890.38	16.25
3892.966	-9.75
3895.55	-37.75
3898.132	-22.75
3900.713	-27.75
3903.291	-30.75
3905.868	-45.75
3908.442	-33.75
3911.015	-33.75
3913.586	-38.75
3916.155	-36.75
3918.722	-42.75
3921.287	-45.75
3923.85	-47.75
3926.411	-41.75
3928.971	-41.75
3931.528	-35.75
3934.084	-38.75
3936.638	-46.75
3939.19	-29.75
3941.74	-31.75
3944.288	-40.75
3946.834	-37.75
3949.378	-27.75
3951.921	-43.75
3954.462	-34.75
3957	-35.75
3959.537	-25.75
3962.072	-32.75
3964.606	-52.75
3967.137	-35.75
3969.667	-41.75
3972.194	-28.75
3974.72	-39.75
3977.244	-58.75
3979.766	-40.75
3982.286	-38.75
3984.805	-31.75
3987.321	-25.75
3989.836	-32.75
3992.349	-39.75
3994.86	-36.75
3997.369	-44.75
3999.877	-37.75
4002.382	-39.75
4004.886	-29.75
4007.388	-31.75
4009.888	-20.75
4012.386	-23.75
4014.883	-31.75
4017.377	-30.75
4019.87	-32.75
4022.361	-43.75
4024.85	-37.75
4027.338	-35.75
4029.823	-34.75
4032.307	-36.75
4034.789	-31.75
4037.269	-33.75
4039.747	-44.75
4042.224	-26.75
4044.699	-39.75
4047.172	-41.75
4049.643	-27.75
4052.112	-53.75
4054.58	-32.75
4057.046	-44.75
4059.51	-36.75
4061.972	-35.75
4064.432	-51.75
4066.891	-22.75
4069.348	-33.75
4071.803	-33.75
4074.256	-37.75
4076.708	-30.75
4079.158	-34.75
4081.606	-22.75
4084.052	-36.75
4086.497	-31.75
4088.939	-33.75
4091.38	-35.75
4093.819	-30.75
4096.257	0.25
4098.693	-4.75
4101.127	-2.75
4103.559	3.25
4105.989	75.25
4108.418	76.25
4110.845	54.25
4113.27	69.25
4115.694	68.25
4118.115	58.25
4120.535	-30.75
4122.954	-26.75
4125.37	-23.75
4127.785	-33.75
4130.198	-23.75
4132.609	-31.75
4135.019	8.25
4137.427	-0.75
4139.833	5.25
4142.237	-8.75
