Data from 2018-3-6_conc=2_n=2_RamanShift_02.txt Node
Date: Tue Mar 06 12:45:19 GMT+02:00 2018
User: LAB3
Spectrometer: QEPB0276
Trigger mode: 0
Integration Time (sec): 3.000000E1
Scans to average: 1
Electric dark correction enabled: true
Nonlinearity correction enabled: false
Boxcar width: 0
XAxis mode: Raman Shifts
Number of Pixels in Spectrum: 1044
>>>>>Begin Spectral Data<<<<<
160.701	170.75
166.742	224.75
172.777	329.75
178.805	636.75
184.826	1482.75
190.841	2944.75
196.849	4698.75
202.85	6069.75
208.845	6553.75
214.833	6525.75
220.815	6520.75
226.789	6543.75
232.758	6590.75
238.719	6636.75
244.674	6597.75
250.623	6567.75
256.565	6516.75
262.5	6450.75
268.429	6413.75
274.351	6409.75
280.267	6418.75
286.176	6437.75
292.079	6471.75
297.975	6497.75
303.865	6485.75
309.748	6524.75
315.625	6518.75
321.495	6550.75
327.359	6537.75
333.217	6587.75
339.068	6603.75
344.912	6631.75
350.751	6675.75
356.583	6690.75
362.408	6732.75
368.227	6736.75
374.04	6798.75
379.847	6807.75
385.647	6859.75
391.44	6878.75
397.228	6949.75
403.009	6997.75
408.784	7069.75
414.553	7025.75
420.315	7080.75
426.071	7054.75
431.821	7081.75
437.565	7106.75
443.302	7040.75
449.033	6985.75
454.758	6984.75
460.477	6953.75
466.189	6839.75
471.896	6770.75
477.596	6758.75
483.29	6716.75
488.978	6687.75
494.66	6614.75
500.335	6458.75
506.005	6188.75
511.668	5857.75
517.325	5548.75
522.977	5324.75
528.622	5165.75
534.261	5044.75
539.894	4936.75
545.521	4845.75
551.141	4751.75
556.756	4739.75
562.365	4682.75
567.968	4635.75
573.565	4581.75
579.155	4547.75
584.74	4545.75
590.319	4551.75
595.892	4528.75
601.459	4541.75
607.02	4503.75
612.575	4511.75
618.124	4430.75
623.667	4336.75
629.204	4287.75
634.735	4238.75
640.261	4192.75
645.781	4161.75
651.294	4151.75
656.802	4127.75
662.304	4117.75
667.8	4100.75
673.29	4089.75
678.775	4066.75
684.254	4054.75
689.726	4049.75
695.193	4000.75
700.655	3990.75
706.11	3970.75
711.56	3939.75
717.004	3934.75
722.442	3904.75
727.874	3900.75
733.301	3900.75
738.722	3865.75
744.137	3876.75
749.547	3863.75
754.951	3868.75
760.349	3848.75
765.741	3904.75
771.128	3894.75
776.509	3985.75
781.885	4045.75
787.254	4068.75
792.618	4047.75
797.977	4076.75
803.33	4079.75
808.677	4029.75
814.019	3994.75
819.355	3955.75
824.686	3905.75
830.011	3911.75
835.33	3881.75
840.644	3832.75
845.952	3811.75
851.255	3775.75
856.552	3753.75
861.844	3718.75
867.13	3683.75
872.41	3647.75
877.686	3656.75
882.955	3659.75
888.219	3598.75
893.478	3538.75
898.731	3470.75
903.979	3440.75
909.221	3384.75
914.458	3344.75
919.69	3324.75
924.916	3354.75
930.136	3351.75
935.351	3333.75
940.561	3385.75
945.766	3363.75
950.965	3339.75
956.158	3295.75
961.347	3245.75
966.529	3236.75
971.707	3200.75
976.879	3149.75
982.046	3130.75
987.208	3109.75
992.364	3104.75
997.515	3101.75
1002.66	3141.75
1007.801	3183.75
1012.936	3206.75
1018.066	3217.75
1023.19	3194.75
1028.309	3224.75
1033.423	3259.75
1038.532	3225.75
1043.636	3231.75
1048.734	3218.75
1053.827	3167.75
1058.915	3145.75
1063.998	3098.75
1069.075	3107.75
1074.147	3112.75
1079.214	3086.75
1084.276	3125.75
1089.333	3128.75
1094.385	3131.75
1099.431	3120.75
1104.472	3126.75
1109.509	3059.75
1114.54	3022.75
1119.565	2954.75
1124.586	2958.75
1129.602	2886.75
1134.613	2870.75
1139.618	2872.75
1144.619	2840.75
1149.614	2862.75
1154.604	2848.75
1159.589	2865.75
1164.57	2896.75
1169.545	2897.75
1174.515	2903.75
1179.48	2853.75
1184.44	2860.75
1189.395	2855.75
1194.345	2823.75
1199.29	2808.75
1204.23	2795.75
1209.165	2772.75
1214.095	2809.75
1219.021	2818.75
1223.941	2825.75
1228.856	2842.75
1233.766	2836.75
1238.672	2865.75
1243.572	2856.75
1248.467	2824.75
1253.358	2787.75
1258.244	2719.75
1263.124	2703.75
1268	2671.75
1272.871	2611.75
1277.737	2589.75
1282.599	2600.75
1287.455	2572.75
1292.306	2603.75
1297.153	2597.75
1301.995	2607.75
1306.832	2594.75
1311.664	2620.75
1316.491	2616.75
1321.314	2624.75
1326.132	2584.75
1330.945	2530.75
1335.753	2521.75
1340.556	2474.75
1345.354	2411.75
1350.148	2397.75
1354.937	2392.75
1359.722	2360.75
1364.501	2322.75
1369.276	2351.75
1374.046	2354.75
1378.811	2326.75
1383.572	2332.75
1388.327	2308.75
1393.079	2297.75
1397.825	2278.75
1402.567	2256.75
1407.304	2239.75
1412.036	2241.75
1416.764	2227.75
1421.487	2216.75
1426.205	2234.75
1430.919	2225.75
1435.628	2257.75
1440.333	2259.75
1445.032	2276.75
1449.727	2298.75
1454.418	2315.75
1459.104	2328.75
1463.785	2291.75
1468.462	2253.75
1473.134	2210.75
1477.802	2164.75
1482.465	2109.75
1487.123	2131.75
1491.777	2100.75
1496.426	2097.75
1501.071	2118.75
1505.711	2102.75
1510.347	2136.75
1514.978	2140.75
1519.604	2149.75
1524.226	2150.75
1528.844	2108.75
1533.457	2107.75
1538.065	2114.75
1542.669	2081.75
1547.269	2057.75
1551.864	2054.75
1556.454	2039.75
1561.041	2042.75
1565.622	2026.75
1570.199	2033.75
1574.772	2055.75
1579.34	2067.75
1583.904	2100.75
1588.464	2106.75
1593.019	2108.75
1597.569	2090.75
1602.115	2088.75
1606.657	2077.75
1611.195	2104.75
1615.728	2074.75
1620.256	2041.75
1624.78	2045.75
1629.3	2053.75
1633.816	2056.75
1638.327	2054.75
1642.834	2088.75
1647.336	2097.75
1651.834	2126.75
1656.328	2131.75
1660.817	2112.75
1665.302	2107.75
1669.783	2077.75
1674.259	2042.75
1678.732	2015.75
1683.199	1968.75
1687.663	1916.75
1692.122	1902.75
1696.577	1833.75
1701.028	1820.75
1705.474	1780.75
1709.917	1748.75
1714.355	1734.75
1718.788	1723.75
1723.218	1693.75
1727.643	1676.75
1732.064	1655.75
1736.481	1611.75
1740.893	1602.75
1745.301	1542.75
1749.705	1506.75
1754.105	1481.75
1758.501	1453.75
1762.893	1449.75
1767.28	1395.75
1771.663	1391.75
1776.042	1390.75
1780.417	1396.75
1784.787	1392.75
1789.154	1413.75
1793.516	1407.75
1797.874	1410.75
1802.228	1408.75
1806.578	1380.75
1810.924	1389.75
1815.266	1284.75
1819.603	1363.75
1823.937	1318.75
1828.266	1307.75
1832.591	1294.75
1836.913	1262.75
1841.23	1265.75
1845.543	1255.75
1849.852	1288.75
1854.156	1290.75
1858.457	1274.75
1862.754	1259.75
1867.047	1281.75
1871.335	1283.75
1875.62	1288.75
1879.9	1290.75
1884.177	1289.75
1888.449	1280.75
1892.718	1260.75
1896.982	1266.75
1901.243	1237.75
1905.499	1254.75
1909.752	1256.75
1914	1228.75
1918.245	1267.75
1922.485	1270.75
1926.722	1271.75
1930.954	1261.75
1935.183	1278.75
1939.408	1287.75
1943.628	1266.75
1947.845	1259.75
1952.058	1254.75
1956.267	1206.75
1960.472	1201.75
1964.673	1194.75
1968.87	1164.75
1973.063	1145.75
1977.252	1125.75
1981.438	1109.75
1985.619	1103.75
1989.797	1082.75
1993.971	1088.75
1998.14	1078.75
2002.306	1081.75
2006.469	1088.75
2010.627	1070.75
2014.781	1060.75
2018.932	1042.75
2023.078	1076.75
2027.221	1047.75
2031.36	1025.75
2035.495	1023.75
2039.627	1008.75
2043.754	1006.75
2047.878	1002.75
2051.998	994.75
2056.114	985.75
2060.226	991.75
2064.334	1000.75
2068.439	1007.75
2072.54	1014.75
2076.637	1012.75
2080.73	1010.75
2084.82	1014.75
2088.906	1009.75
2092.988	1027.75
2097.066	1012.75
2101.14	1002.75
2105.211	1007.75
2109.278	974.75
2113.342	974.75
2117.401	947.75
2121.457	929.75
2125.509	925.75
2129.558	931.75
2133.602	913.75
2137.643	910.75
2141.681	898.75
2145.714	888.75
2149.744	892.75
2153.77	878.75
2157.793	864.75
2161.812	840.75
2165.827	821.75
2169.838	842.75
2173.846	827.75
2177.851	816.75
2181.851	800.75
2185.848	783.75
2189.841	793.75
2193.831	770.75
2197.817	765.75
2201.799	757.75
2205.778	754.75
2209.753	733.75
2213.725	738.75
2217.693	745.75
2221.657	728.75
2225.618	742.75
2229.575	732.75
2233.529	731.75
2237.479	723.75
2241.425	704.75
2245.368	694.75
2249.307	696.75
2253.243	670.75
2257.175	678.75
2261.104	656.75
2265.029	669.75
2268.95	655.75
2272.868	638.75
2276.783	619.75
2280.694	621.75
2284.601	622.75
2288.505	605.75
2292.405	613.75
2296.302	586.75
2300.195	584.75
2304.085	552.75
2307.971	567.75
2311.854	537.75
2315.734	547.75
2319.609	553.75
2323.482	527.75
2327.351	523.75
2331.216	523.75
2335.078	535.75
2338.937	519.75
2342.792	507.75
2346.643	506.75
2350.492	515.75
2354.336	514.75
2358.178	508.75
2362.015	510.75
2365.85	505.75
2369.681	518.75
2373.508	515.75
2377.333	517.75
2381.153	504.75
2384.971	511.75
2388.785	512.75
2392.595	489.75
2396.402	489.75
2400.206	469.75
2404.007	477.75
2407.804	482.75
2411.597	484.75
2415.388	480.75
2419.174	471.75
2422.958	477.75
2426.738	462.75
2430.515	474.75
2434.289	460.75
2438.059	451.75
2441.825	451.75
2445.589	460.75
2449.349	435.75
2453.106	460.75
2456.859	443.75
2460.61	445.75
2464.356	425.75
2468.1	420.75
2471.84	419.75
2475.577	415.75
2479.311	421.75
2483.041	427.75
2486.768	435.75
2490.492	435.75
2494.213	421.75
2497.93	408.75
2501.644	401.75
2505.355	417.75
2509.062	413.75
2512.766	415.75
2516.467	408.75
2520.165	402.75
2523.859	391.75
2527.551	426.75
2531.239	387.75
2534.923	404.75
2538.605	394.75
2542.283	389.75
2545.958	403.75
2549.63	403.75
2553.299	404.75
2556.964	375.75
2560.626	379.75
2564.285	402.75
2567.941	379.75
2571.594	367.75
2575.243	385.75
2578.89	375.75
2582.533	370.75
2586.173	360.75
2589.809	371.75
2593.443	341.75
2597.073	363.75
2600.701	353.75
2604.325	359.75
2607.946	336.75
2611.564	353.75
2615.178	351.75
2618.79	346.75
2622.398	324.75
2626.004	343.75
2629.606	336.75
2633.205	326.75
2636.801	324.75
2640.394	320.75
2643.983	314.75
2647.57	312.75
2651.153	300.75
2654.734	304.75
2658.311	287.75
2661.885	297.75
2665.456	290.75
2669.025	289.75
2672.589	288.75
2676.151	301.75
2679.71	289.75
2683.266	287.75
2686.819	283.75
2690.368	293.75
2693.915	281.75
2697.458	281.75
2700.999	271.75
2704.536	275.75
2708.071	262.75
2711.602	269.75
2715.13	255.75
2718.656	247.75
2722.178	265.75
2725.697	246.75
2729.214	250.75
2732.727	258.75
2736.237	245.75
2739.744	254.75
2743.249	242.75
2746.75	266.75
2750.248	252.75
2753.743	261.75
2757.236	259.75
2760.725	261.75
2764.211	222.75
2767.695	256.75
2771.175	253.75
2774.652	253.75
2778.127	248.75
2781.598	250.75
2785.067	249.75
2788.532	243.75
2791.995	239.75
2795.455	233.75
2798.911	257.75
2802.365	241.75
2805.816	254.75
2809.264	259.75
2812.709	246.75
2816.151	245.75
2819.59	234.75
2823.026	250.75
2826.46	251.75
2829.89	257.75
2833.318	233.75
2836.742	245.75
2840.164	251.75
2843.583	256.75
2846.999	260.75
2850.412	261.75
2853.822	260.75
2857.229	266.75
2860.634	272.75
2864.035	261.75
2867.434	276.75
2870.83	284.75
2874.223	282.75
2877.613	293.75
2881	287.75
2884.385	289.75
2887.766	293.75
2891.145	297.75
2894.521	284.75
2897.894	279.75
2901.264	302.75
2904.631	297.75
2907.996	296.75
2911.358	303.75
2914.717	291.75
2918.073	292.75
2921.426	296.75
2924.777	282.75
2928.124	313.75
2931.469	329.75
2934.811	307.75
2938.15	348.75
2941.487	332.75
2944.821	356.75
2948.152	336.75
2951.48	337.75
2954.805	315.75
2958.128	339.75
2961.447	322.75
2964.765	336.75
2968.079	319.75
2971.39	324.75
2974.699	335.75
2978.005	333.75
2981.308	328.75
2984.609	337.75
2987.907	339.75
2991.202	342.75
2994.494	338.75
2997.784	354.75
3001.07	359.75
3004.355	346.75
3007.636	352.75
3010.915	351.75
3014.191	342.75
3017.464	357.75
3020.734	353.75
3024.002	350.75
3027.267	353.75
3030.53	358.75
3033.789	362.75
3037.046	360.75
3040.301	367.75
3043.552	376.75
3046.801	380.75
3050.048	394.75
3053.291	414.75
3056.532	420.75
3059.771	407.75
3063.006	440.75
3066.239	428.75
3069.469	451.75
3072.697	459.75
3075.922	459.75
3079.144	461.75
3082.364	514.75
3085.581	494.75
3088.795	516.75
3092.007	522.75
3095.216	532.75
3098.423	537.75
3101.627	525.75
3104.828	564.75
3108.026	557.75
3111.222	585.75
3114.416	607.75
3117.607	596.75
3120.795	609.75
3123.98	634.75
3127.163	623.75
3130.344	655.75
3133.521	648.75
3136.696	680.75
3139.869	694.75
3143.039	668.75
3146.206	727.75
3149.371	731.75
3152.533	729.75
3155.693	710.75
3158.85	734.75
3162.005	736.75
3165.157	730.75
3168.306	738.75
3171.453	754.75
3174.597	726.75
3177.739	719.75
3180.878	749.75
3184.014	755.75
3187.149	749.75
3190.28	759.75
3193.409	761.75
3196.536	763.75
3199.659	762.75
3202.781	774.75
3205.9	761.75
3209.016	756.75
3212.13	756.75
3215.241	758.75
3218.35	746.75
3221.456	741.75
3224.56	729.75
3227.661	733.75
3230.76	728.75
3233.856	713.75
3236.95	719.75
3240.041	699.75
3243.13	706.75
3246.216	709.75
3249.3	713.75
3252.382	720.75
3255.46	685.75
3258.537	645.75
3261.611	686.75
3264.682	703.75
3267.751	688.75
3270.818	678.75
3273.882	688.75
3276.943	681.75
3280.002	692.75
3283.059	668.75
3286.113	647.75
3289.165	643.75
3292.214	640.75
3295.261	638.75
3298.306	616.75
3301.348	619.75
3304.387	599.75
3307.425	593.75
3310.459	603.75
3313.492	599.75
3316.521	576.75
3319.549	578.75
3322.574	577.75
3325.597	560.75
3328.617	564.75
3331.635	565.75
3334.65	547.75
3337.663	549.75
3340.674	548.75
3343.682	551.75
3346.688	560.75
3349.691	540.75
3352.692	554.75
3355.691	547.75
3358.687	540.75
3361.681	548.75
3364.673	526.75
3367.662	531.75
3370.649	530.75
3373.633	504.75
3376.615	510.75
3379.595	489.75
3382.572	499.75
3385.547	490.75
3388.52	477.75
3391.49	475.75
3394.458	485.75
3397.424	469.75
3400.387	463.75
3403.348	463.75
3406.307	465.75
3409.263	448.75
3412.217	459.75
3415.168	447.75
3418.118	454.75
3421.065	438.75
3424.009	436.75
3426.951	428.75
3429.891	421.75
3432.829	409.75
3435.764	409.75
3438.697	398.75
3441.628	403.75
3444.557	381.75
3447.483	375.75
3450.407	375.75
3453.328	351.75
3456.247	342.75
3459.164	329.75
3462.079	346.75
3464.991	328.75
3467.902	311.75
3470.809	301.75
3473.715	309.75
3476.618	293.75
3479.519	291.75
3482.418	269.75
3485.315	278.75
3488.209	268.75
3491.101	263.75
3493.99	238.75
3496.878	239.75
3499.763	247.75
3502.646	239.75
3505.527	218.75
3508.405	226.75
3511.281	205.75
3514.155	215.75
3517.027	198.75
3519.897	182.75
3522.764	188.75
3525.629	160.75
3528.492	174.75
3531.352	164.75
3534.211	163.75
3537.067	146.75
3539.921	143.75
3542.773	150.75
3545.622	123.75
3548.469	124.75
3551.315	116.75
3554.157	117.75
3556.998	107.75
3559.837	102.75
3562.673	111.75
3565.507	92.75
3568.339	89.75
3571.169	87.75
3573.996	86.75
3576.822	74.75
3579.645	74.75
3582.466	69.75
3585.285	82.75
3588.101	72.75
3590.916	63.75
3593.728	70.75
3596.538	63.75
3599.346	56.75
3602.152	48.75
3604.956	49.75
3607.757	54.75
3610.556	33.75
3613.354	46.75
3616.149	42.75
3618.942	44.75
3621.732	42.75
3624.521	33.75
3627.307	19.75
3630.092	27.75
3632.874	41.75
3635.654	35.75
3638.432	20.75
3641.208	21.75
3643.982	20.75
3646.753	27.75
3649.523	-5.25
3652.29	14.75
3655.055	20.75
3657.818	14.75
3660.579	12.75
3663.338	-2.25
3666.095	0.75
3668.849	-17.25
3671.602	8.75
3674.352	-6.25
3677.101	14.75
3679.847	6.75
3682.591	-11.25
3685.333	-16.25
3688.073	-4.25
3690.811	-13.25
3693.547	-20.25
3696.281	-15.25
3699.013	-7.25
3701.742	-12.25
3704.47	-20.25
3707.195	-5.25
3709.919	-6.25
3712.64	-13.25
3715.359	-21.25
3718.076	-2.25
3720.792	-16.25
3723.505	-11.25
3726.216	-5.25
3728.925	-16.25
3731.632	-22.25
3734.336	-18.25
3737.039	-17.25
3739.74	-16.25
3742.439	-44.25
3745.136	-13.25
3747.83	-14.25
3750.523	-13.25
3753.213	-80.25
3755.902	-22.25
3758.589	-32.25
3761.273	-26.25
3763.956	-16.25
3766.636	-34.25
3769.315	-13.25
3771.991	-23.25
3774.665	-25.25
3777.338	-19.25
3780.008	-33.25
3782.677	-25.25
3785.343	-44.25
3788.007	-45.25
3790.67	-20.25
3793.33	-38.25
3795.989	-29.25
3798.645	-20.25
3801.299	-35.25
3803.952	-36.25
3806.602	-32.25
3809.251	-24.25
3811.897	-26.25
3814.542	-25.25
3817.184	-30.25
3819.825	-25.25
3822.463	-39.25
3825.1	-27.25
3827.735	-29.25
3830.367	-38.25
3832.998	-14.25
3835.627	-28.25
3838.253	-21.25
3840.878	-27.25
3843.501	-8.25
3846.122	-23.25
3848.741	-22.25
3851.358	-15.25
3853.973	-37.25
3856.586	-20.25
3859.197	-29.25
3861.806	-24.25
3864.414	-40.25
3867.019	-18.25
3869.622	11.75
3872.224	14.75
3874.823	11.75
3877.421	48.75
3880.016	77.75
3882.61	131.75
3885.202	150.75
3887.792	104.75
3890.38	56.75
3892.966	10.75
3895.55	-20.25
3898.132	-14.25
3900.713	-18.25
3903.291	-23.25
3905.868	-35.25
3908.442	-27.25
3911.015	-29.25
3913.586	-31.25
3916.155	-24.25
3918.722	-33.25
3921.287	-30.25
3923.85	-47.25
3926.411	-35.25
3928.971	-36.25
3931.528	-28.25
3934.084	-32.25
3936.638	-44.25
3939.19	-30.25
3941.74	-24.25
3944.288	-33.25
3946.834	-31.25
3949.378	-22.25
3951.921	-35.25
3954.462	-31.25
3957	-26.25
3959.537	-16.25
3962.072	-29.25
3964.606	-43.25
3967.137	-30.25
3969.667	-36.25
3972.194	-26.25
3974.72	-29.25
3977.244	-53.25
3979.766	-31.25
3982.286	-35.25
3984.805	-27.25
3987.321	-20.25
3989.836	-23.25
3992.349	-34.25
3994.86	-24.25
3997.369	-34.25
3999.877	-25.25
4002.382	-34.25
4004.886	-23.25
4007.388	-23.25
4009.888	-15.25
4012.386	-24.25
4014.883	-21.25
4017.377	-25.25
4019.87	-22.25
4022.361	-32.25
4024.85	-28.25
4027.338	-20.25
4029.823	-30.25
4032.307	-33.25
4034.789	-23.25
4037.269	-19.25
4039.747	-41.25
4042.224	-14.25
4044.699	-35.25
4047.172	-32.25
4049.643	-21.25
4052.112	-51.25
4054.58	-24.25
4057.046	-34.25
4059.51	-26.25
4061.972	-23.25
4064.432	-50.25
4066.891	-16.25
4069.348	-24.25
4071.803	-24.25
4074.256	-26.25
4076.708	-23.25
4079.158	-23.25
4081.606	-17.25
4084.052	-26.25
4086.497	-20.25
4088.939	-23.25
4091.38	-28.25
4093.819	-20.25
4096.257	-1.25
4098.693	-7.25
4101.127	-7.25
4103.559	1.75
4105.989	150.75
4108.418	157.75
4110.845	138.75
4113.27	145.75
4115.694	165.75
4118.115	155.75
4120.535	-21.25
4122.954	-22.25
4125.37	-17.25
4127.785	-22.25
4130.198	-15.25
4132.609	-20.25
4135.019	9.75
4137.427	0.75
4139.833	6.75
4142.237	-3.25
