Data from 2018-3-6_conc=5_n=8_RamanShift_05.txt Node
Date: Tue Mar 06 14:46:18 GMT+02:00 2018
User: LAB3
Spectrometer: QEPB0276
Trigger mode: 0
Integration Time (sec): 3.000000E1
Scans to average: 1
Electric dark correction enabled: true
Nonlinearity correction enabled: false
Boxcar width: 0
XAxis mode: Raman Shifts
Number of Pixels in Spectrum: 1044
>>>>>Begin Spectral Data<<<<<
160.701	43.75
166.742	62.75
172.777	88.75
178.805	184.75
184.826	442.75
190.841	897.75
196.849	1403.75
202.85	1810.75
208.845	1938.75
214.833	1922.75
220.815	1889.75
226.789	1862.75
232.758	1858.75
238.719	1855.75
244.674	1817.75
250.623	1803.75
256.565	1777.75
262.5	1754.75
268.429	1733.75
274.351	1695.75
280.267	1701.75
286.176	1708.75
292.079	1704.75
297.975	1714.75
303.865	1692.75
309.748	1681.75
315.625	1664.75
321.495	1684.75
327.359	1668.75
333.217	1688.75
339.068	1681.75
344.912	1691.75
350.751	1687.75
356.583	1686.75
362.408	1702.75
368.227	1713.75
374.04	1692.75
379.847	1722.75
385.647	1733.75
391.44	1721.75
397.228	1734.75
403.009	1741.75
408.784	1747.75
414.553	1754.75
420.315	1761.75
426.071	1751.75
431.821	1754.75
437.565	1770.75
443.302	1726.75
449.033	1727.75
454.758	1741.75
460.477	1690.75
466.189	1679.75
471.896	1692.75
477.596	1659.75
483.29	1652.75
488.978	1631.75
494.66	1616.75
500.335	1592.75
506.005	1519.75
511.668	1433.75
517.325	1360.75
522.977	1288.75
528.622	1247.75
534.261	1225.75
539.894	1182.75
545.521	1183.75
551.141	1140.75
556.756	1136.75
562.365	1134.75
567.968	1123.75
573.565	1097.75
579.155	1104.75
584.74	1094.75
590.319	1101.75
595.892	1095.75
601.459	1103.75
607.02	1101.75
612.575	1092.75
618.124	1084.75
623.667	1054.75
629.204	1039.75
634.735	1028.75
640.261	1015.75
645.781	978.75
651.294	988.75
656.802	995.75
662.304	1001.75
667.8	1001.75
673.29	996.75
678.775	977.75
684.254	989.75
689.726	962.75
695.193	960.75
700.655	966.75
706.11	953.75
711.56	953.75
717.004	943.75
722.442	919.75
727.874	944.75
733.301	948.75
738.722	912.75
744.137	922.75
749.547	915.75
754.951	912.75
760.349	925.75
765.741	932.75
771.128	936.75
776.509	944.75
781.885	964.75
787.254	984.75
792.618	994.75
797.977	989.75
803.33	978.75
808.677	970.75
814.019	965.75
819.355	950.75
824.686	936.75
830.011	926.75
835.33	940.75
840.644	934.75
845.952	898.75
851.255	927.75
856.552	905.75
861.844	888.75
867.13	866.75
872.41	873.75
877.686	860.75
882.955	869.75
888.219	847.75
893.478	829.75
898.731	825.75
903.979	819.75
909.221	796.75
914.458	797.75
919.69	795.75
924.916	796.75
930.136	793.75
935.351	788.75
940.561	814.75
945.766	798.75
950.965	799.75
956.158	766.75
961.347	769.75
966.529	764.75
971.707	788.75
976.879	755.75
982.046	740.75
987.208	738.75
992.364	747.75
997.515	747.75
1002.66	752.75
1007.801	745.75
1012.936	763.75
1018.066	737.75
1023.19	763.75
1028.309	778.75
1033.423	772.75
1038.532	771.75
1043.636	767.75
1048.734	761.75
1053.827	748.75
1058.915	732.75
1063.998	744.75
1069.075	735.75
1074.147	742.75
1079.214	727.75
1084.276	736.75
1089.333	731.75
1094.385	743.75
1099.431	726.75
1104.472	727.75
1109.509	720.75
1114.54	713.75
1119.565	703.75
1124.586	693.75
1129.602	677.75
1134.613	653.75
1139.618	675.75
1144.619	672.75
1149.614	675.75
1154.604	675.75
1159.589	667.75
1164.57	688.75
1169.545	699.75
1174.515	686.75
1179.48	679.75
1184.44	672.75
1189.395	688.75
1194.345	662.75
1199.29	664.75
1204.23	657.75
1209.165	638.75
1214.095	666.75
1219.021	649.75
1223.941	656.75
1228.856	682.75
1233.766	671.75
1238.672	672.75
1243.572	675.75
1248.467	672.75
1253.358	663.75
1258.244	641.75
1263.124	657.75
1268	638.75
1272.871	602.75
1277.737	605.75
1282.599	607.75
1287.455	596.75
1292.306	609.75
1297.153	597.75
1301.995	620.75
1306.832	626.75
1311.664	614.75
1316.491	614.75
1321.314	601.75
1326.132	605.75
1330.945	596.75
1335.753	596.75
1340.556	586.75
1345.354	558.75
1350.148	574.75
1354.937	560.75
1359.722	545.75
1364.501	541.75
1369.276	557.75
1374.046	558.75
1378.811	539.75
1383.572	544.75
1388.327	549.75
1393.079	534.75
1397.825	526.75
1402.567	531.75
1407.304	523.75
1412.036	515.75
1416.764	524.75
1421.487	507.75
1426.205	508.75
1430.919	511.75
1435.628	511.75
1440.333	506.75
1445.032	524.75
1449.727	523.75
1454.418	537.75
1459.104	538.75
1463.785	517.75
1468.462	526.75
1473.134	523.75
1477.802	506.75
1482.465	491.75
1487.123	488.75
1491.777	476.75
1496.426	455.75
1501.071	485.75
1505.711	475.75
1510.347	493.75
1514.978	490.75
1519.604	487.75
1524.226	492.75
1528.844	480.75
1533.457	480.75
1538.065	480.75
1542.669	483.75
1547.269	483.75
1551.864	494.75
1556.454	461.75
1561.041	471.75
1565.622	469.75
1570.199	480.75
1574.772	475.75
1579.34	490.75
1583.904	490.75
1588.464	502.75
1593.019	498.75
1597.569	474.75
1602.115	487.75
1606.657	482.75
1611.195	500.75
1615.728	497.75
1620.256	472.75
1624.78	458.75
1629.3	467.75
1633.816	483.75
1638.327	468.75
1642.834	484.75
1647.336	471.75
1651.834	482.75
1656.328	483.75
1660.817	484.75
1665.302	475.75
1669.783	461.75
1674.259	452.75
1678.732	456.75
1683.199	435.75
1687.663	427.75
1692.122	422.75
1696.577	423.75
1701.028	424.75
1705.474	395.75
1709.917	393.75
1714.355	388.75
1718.788	380.75
1723.218	380.75
1727.643	355.75
1732.064	366.75
1736.481	348.75
1740.893	357.75
1745.301	346.75
1749.705	318.75
1754.105	338.75
1758.501	325.75
1762.893	335.75
1767.28	305.75
1771.663	319.75
1776.042	300.75
1780.417	306.75
1784.787	315.75
1789.154	315.75
1793.516	308.75
1797.874	308.75
1802.228	301.75
1806.578	290.75
1810.924	312.75
1815.266	191.75
1819.603	309.75
1823.937	286.75
1828.266	285.75
1832.591	289.75
1836.913	289.75
1841.23	272.75
1845.543	283.75
1849.852	281.75
1854.156	274.75
1858.457	280.75
1862.754	274.75
1867.047	274.75
1871.335	288.75
1875.62	288.75
1879.9	287.75
1884.177	271.75
1888.449	283.75
1892.718	276.75
1896.982	278.75
1901.243	262.75
1905.499	271.75
1909.752	260.75
1914	243.75
1918.245	274.75
1922.485	274.75
1926.722	268.75
1930.954	262.75
1935.183	274.75
1939.408	285.75
1943.628	274.75
1947.845	270.75
1952.058	269.75
1956.267	250.75
1960.472	264.75
1964.673	260.75
1968.87	251.75
1973.063	247.75
1977.252	249.75
1981.438	243.75
1985.619	232.75
1989.797	223.75
1993.971	225.75
1998.14	238.75
2002.306	231.75
2006.469	234.75
2010.627	227.75
2014.781	228.75
2018.932	209.75
2023.078	241.75
2027.221	236.75
2031.36	223.75
2035.495	218.75
2039.627	218.75
2043.754	219.75
2047.878	210.75
2051.998	210.75
2056.114	214.75
2060.226	214.75
2064.334	220.75
2068.439	227.75
2072.54	218.75
2076.637	214.75
2080.73	210.75
2084.82	216.75
2088.906	205.75
2092.988	206.75
2097.066	217.75
2101.14	225.75
2105.211	210.75
2109.278	212.75
2113.342	200.75
2117.401	195.75
2121.457	197.75
2125.509	198.75
2129.558	198.75
2133.602	199.75
2137.643	194.75
2141.681	192.75
2145.714	191.75
2149.744	195.75
2153.77	188.75
2157.793	185.75
2161.812	155.75
2165.827	168.75
2169.838	183.75
2173.846	165.75
2177.851	165.75
2181.851	178.75
2185.848	165.75
2189.841	168.75
2193.831	157.75
2197.817	163.75
2201.799	156.75
2205.778	144.75
2209.753	155.75
2213.725	152.75
2217.693	153.75
2221.657	146.75
2225.618	163.75
2229.575	148.75
2233.529	157.75
2237.479	156.75
2241.425	142.75
2245.368	135.75
2249.307	147.75
2253.243	141.75
2257.175	144.75
2261.104	130.75
2265.029	140.75
2268.95	139.75
2272.868	135.75
2276.783	127.75
2280.694	133.75
2284.601	130.75
2288.505	124.75
2292.405	134.75
2296.302	106.75
2300.195	120.75
2304.085	89.75
2307.971	124.75
2311.854	99.75
2315.734	110.75
2319.609	123.75
2323.482	92.75
2327.351	106.75
2331.216	99.75
2335.078	106.75
2338.937	105.75
2342.792	97.75
2346.643	98.75
2350.492	102.75
2354.336	98.75
2358.178	106.75
2362.015	100.75
2365.85	96.75
2369.681	97.75
2373.508	100.75
2377.333	105.75
2381.153	97.75
2384.971	93.75
2388.785	99.75
2392.595	91.75
2396.402	87.75
2400.206	71.75
2404.007	85.75
2407.804	95.75
2411.597	98.75
2415.388	86.75
2419.174	85.75
2422.958	82.75
2426.738	82.75
2430.515	90.75
2434.289	83.75
2438.059	81.75
2441.825	80.75
2445.589	101.75
2449.349	75.75
2453.106	83.75
2456.859	81.75
2460.61	87.75
2464.356	69.75
2468.1	72.75
2471.84	73.75
2475.577	70.75
2479.311	72.75
2483.041	79.75
2486.768	90.75
2490.492	86.75
2494.213	72.75
2497.93	65.75
2501.644	57.75
2505.355	72.75
2509.062	73.75
2512.766	67.75
2516.467	62.75
2520.165	62.75
2523.859	55.75
2527.551	86.75
2531.239	52.75
2534.923	65.75
2538.605	63.75
2542.283	72.75
2545.958	69.75
2549.63	72.75
2553.299	76.75
2556.964	55.75
2560.626	55.75
2564.285	62.75
2567.941	41.75
2571.594	47.75
2575.243	63.75
2578.89	57.75
2582.533	57.75
2586.173	57.75
2589.809	61.75
2593.443	33.75
2597.073	55.75
2600.701	55.75
2604.325	60.75
2607.946	48.75
2611.564	60.75
2615.178	59.75
2618.79	55.75
2622.398	49.75
2626.004	52.75
2629.606	60.75
2633.205	37.75
2636.801	56.75
2640.394	50.75
2643.983	45.75
2647.57	45.75
2651.153	43.75
2654.734	49.75
2658.311	24.75
2661.885	37.75
2665.456	41.75
2669.025	46.75
2672.589	39.75
2676.151	59.75
2679.71	55.75
2683.266	48.75
2686.819	33.75
2690.368	49.75
2693.915	50.75
2697.458	43.75
2700.999	46.75
2704.536	43.75
2708.071	45.75
2711.602	38.75
2715.13	41.75
2718.656	27.75
2722.178	39.75
2725.697	23.75
2729.214	32.75
2732.727	31.75
2736.237	22.75
2739.744	33.75
2743.249	25.75
2746.75	32.75
2750.248	19.75
2753.743	32.75
2757.236	33.75
2760.725	38.75
2764.211	6.75
2767.695	35.75
2771.175	30.75
2774.652	24.75
2778.127	24.75
2781.598	31.75
2785.067	27.75
2788.532	21.75
2791.995	32.75
2795.455	22.75
2798.911	38.75
2802.365	22.75
2805.816	30.75
2809.264	38.75
2812.709	28.75
2816.151	29.75
2819.59	15.75
2823.026	24.75
2826.46	22.75
2829.89	34.75
2833.318	8.75
2836.742	22.75
2840.164	25.75
2843.583	23.75
2846.999	25.75
2850.412	31.75
2853.822	19.75
2857.229	39.75
2860.634	33.75
2864.035	11.75
2867.434	39.75
2870.83	33.75
2874.223	24.75
2877.613	27.75
2881	20.75
2884.385	25.75
2887.766	27.75
2891.145	29.75
2894.521	27.75
2897.894	19.75
2901.264	36.75
2904.631	20.75
2907.996	29.75
2911.358	41.75
2914.717	33.75
2918.073	28.75
2921.426	30.75
2924.777	13.75
2928.124	28.75
2931.469	41.75
2934.811	19.75
2938.15	47.75
2941.487	29.75
2944.821	52.75
2948.152	34.75
2951.48	50.75
2954.805	27.75
2958.128	53.75
2961.447	30.75
2964.765	49.75
2968.079	36.75
2971.39	42.75
2974.699	47.75
2978.005	45.75
2981.308	39.75
2984.609	31.75
2987.907	48.75
2991.202	51.75
2994.494	35.75
2997.784	52.75
3001.07	49.75
3004.355	43.75
3007.636	54.75
3010.915	51.75
3014.191	46.75
3017.464	53.75
3020.734	49.75
3024.002	58.75
3027.267	53.75
3030.53	52.75
3033.789	54.75
3037.046	52.75
3040.301	42.75
3043.552	58.75
3046.801	65.75
3050.048	70.75
3053.291	84.75
3056.532	68.75
3059.771	53.75
3063.006	77.75
3066.239	64.75
3069.469	69.75
3072.697	68.75
3075.922	67.75
3079.144	68.75
3082.364	95.75
3085.581	72.75
3088.795	96.75
3092.007	91.75
3095.216	99.75
3098.423	91.75
3101.627	62.75
3104.828	93.75
3108.026	87.75
3111.222	103.75
3114.416	116.75
3117.607	106.75
3120.795	101.75
3123.98	107.75
3127.163	99.75
3130.344	111.75
3133.521	109.75
3136.696	125.75
3139.869	113.75
3143.039	104.75
3146.206	137.75
3149.371	136.75
3152.533	134.75
3155.693	123.75
3158.85	137.75
3162.005	144.75
3165.157	134.75
3168.306	133.75
3171.453	140.75
3174.597	131.75
3177.739	131.75
3180.878	139.75
3184.014	146.75
3187.149	144.75
3190.28	136.75
3193.409	145.75
3196.536	147.75
3199.659	148.75
3202.781	148.75
3205.9	131.75
3209.016	147.75
3212.13	139.75
3215.241	145.75
3218.35	129.75
3221.456	129.75
3224.56	122.75
3227.661	133.75
3230.76	131.75
3233.856	122.75
3236.95	131.75
3240.041	115.75
3243.13	133.75
3246.216	129.75
3249.3	134.75
3252.382	126.75
3255.46	114.75
3258.537	75.75
3261.611	117.75
3264.682	127.75
3267.751	114.75
3270.818	103.75
3273.882	125.75
3276.943	121.75
3280.002	129.75
3283.059	114.75
3286.113	122.75
3289.165	106.75
3292.214	113.75
3295.261	126.75
3298.306	103.75
3301.348	114.75
3304.387	103.75
3307.425	114.75
3310.459	105.75
3313.492	112.75
3316.521	108.75
3319.549	118.75
3322.574	105.75
3325.597	102.75
3328.617	103.75
3331.635	96.75
3334.65	81.75
3337.663	98.75
3340.674	101.75
3343.682	89.75
3346.688	109.75
3349.691	91.75
3352.692	96.75
3355.691	106.75
3358.687	96.75
3361.681	100.75
3364.673	88.75
3367.662	92.75
3370.649	98.75
3373.633	83.75
3376.615	91.75
3379.595	77.75
3382.572	80.75
3385.547	70.75
3388.52	66.75
3391.49	75.75
3394.458	76.75
3397.424	76.75
3400.387	64.75
3403.348	78.75
3406.307	76.75
3409.263	74.75
3412.217	78.75
3415.168	78.75
3418.118	85.75
3421.065	67.75
3424.009	81.75
3426.951	65.75
3429.891	68.75
3432.829	72.75
3435.764	75.75
3438.697	61.75
3441.628	70.75
3444.557	54.75
3447.483	51.75
3450.407	62.75
3453.328	54.75
3456.247	46.75
3459.164	39.75
3462.079	56.75
3464.991	48.75
3467.902	42.75
3470.809	39.75
3473.715	48.75
3476.618	33.75
3479.519	42.75
3482.418	16.75
3485.315	24.75
3488.209	29.75
3491.101	24.75
3493.99	16.75
3496.878	15.75
3499.763	20.75
3502.646	22.75
3505.527	12.75
3508.405	14.75
3511.281	4.75
3514.155	9.75
3517.027	12.75
3519.897	-3.25
3522.764	12.75
3525.629	-8.25
3528.492	9.75
3531.352	9.75
3534.211	7.75
3537.067	-2.25
3539.921	2.75
3542.773	5.75
3545.622	-7.25
3548.469	-8.25
3551.315	-5.25
3554.157	1.75
3556.998	-11.25
3559.837	-8.25
3562.673	-0.25
3565.507	-16.25
3568.339	-22.25
3571.169	-12.25
3573.996	-11.25
3576.822	-29.25
3579.645	-20.25
3582.466	-14.25
3585.285	-11.25
3588.101	-20.25
3590.916	-19.25
3593.728	-9.25
3596.538	-20.25
3599.346	-15.25
3602.152	-25.25
3604.956	-14.25
3607.757	-21.25
3610.556	-32.25
3613.354	-17.25
3616.149	-20.25
3618.942	-18.25
3621.732	-21.25
3624.521	-25.25
3627.307	-32.25
3630.092	-33.25
3632.874	-13.25
3635.654	-23.25
3638.432	-29.25
3641.208	-31.25
3643.982	-28.25
3646.753	-18.25
3649.523	-48.25
3652.29	-25.25
3655.055	-18.25
3657.818	-19.25
3660.579	-33.25
3663.338	-36.25
3666.095	-27.25
3668.849	-56.25
3671.602	-20.25
3674.352	-35.25
3677.101	-21.25
3679.847	-16.25
3682.591	-33.25
3685.333	-42.25
3688.073	-25.25
3690.811	-37.25
3693.547	-43.25
3696.281	-42.25
3699.013	-24.25
3701.742	-34.25
3704.47	-41.25
3707.195	-25.25
3709.919	-29.25
3712.64	-33.25
3715.359	-47.25
3718.076	-19.25
3720.792	-33.25
3723.505	-26.25
3726.216	-20.25
3728.925	-27.25
3731.632	-43.25
3734.336	-33.25
3737.039	-35.25
3739.74	-30.25
3742.439	-60.25
3745.136	-36.25
3747.83	-31.25
3750.523	-28.25
3753.213	-99.25
3755.902	-35.25
3758.589	-47.25
3761.273	-41.25
3763.956	-25.25
3766.636	-46.25
3769.315	-27.25
3771.991	-31.25
3774.665	-38.25
3777.338	-33.25
3780.008	-41.25
3782.677	-30.25
3785.343	-50.25
3788.007	-51.25
3790.67	-30.25
3793.33	-44.25
3795.989	-38.25
3798.645	-33.25
3801.299	-44.25
3803.952	-40.25
3806.602	-35.25
3809.251	-26.25
3811.897	-30.25
3814.542	-34.25
3817.184	-35.25
3819.825	-30.25
3822.463	-42.25
3825.1	-38.25
3827.735	-34.25
3830.367	-41.25
3832.998	-23.25
3835.627	-37.25
3838.253	-27.25
3840.878	-37.25
3843.501	-14.25
3846.122	-28.25
3848.741	-28.25
3851.358	-25.25
3853.973	-44.25
3856.586	-24.25
3859.197	-39.25
3861.806	-36.25
3864.414	-47.25
3867.019	-35.25
3869.622	-27.25
3872.224	-19.25
3874.823	-13.25
3877.421	8.75
3880.016	12.75
3882.61	51.75
3885.202	60.75
3887.792	38.75
3890.38	6.75
3892.966	-26.25
3895.55	-41.25
3898.132	-25.25
3900.713	-26.25
3903.291	-29.25
3905.868	-42.25
3908.442	-32.25
3911.015	-37.25
3913.586	-38.25
3916.155	-38.25
3918.722	-40.25
3921.287	-39.25
3923.85	-47.25
3926.411	-39.25
3928.971	-37.25
3931.528	-32.25
3934.084	-37.25
3936.638	-43.25
3939.19	-33.25
3941.74	-31.25
3944.288	-39.25
3946.834	-36.25
3949.378	-22.25
3951.921	-36.25
3954.462	-38.25
3957	-34.25
3959.537	-19.25
3962.072	-35.25
3964.606	-48.25
3967.137	-39.25
3969.667	-38.25
3972.194	-31.25
3974.72	-39.25
3977.244	-64.25
3979.766	-39.25
3982.286	-45.25
3984.805	-35.25
3987.321	-25.25
3989.836	-28.25
3992.349	-44.25
3994.86	-32.25
3997.369	-43.25
3999.877	-37.25
4002.382	-41.25
4004.886	-33.25
4007.388	-32.25
4009.888	-23.25
4012.386	-33.25
4014.883	-32.25
4017.377	-33.25
4019.87	-29.25
4022.361	-45.25
4024.85	-34.25
4027.338	-38.25
4029.823	-40.25
4032.307	-35.25
4034.789	-34.25
4037.269	-32.25
4039.747	-50.25
4042.224	-29.25
4044.699	-43.25
4047.172	-39.25
4049.643	-27.25
4052.112	-57.25
4054.58	-29.25
4057.046	-47.25
4059.51	-36.25
4061.972	-35.25
4064.432	-52.25
4066.891	-20.25
4069.348	-33.25
4071.803	-31.25
4074.256	-37.25
4076.708	-27.25
4079.158	-31.25
4081.606	-23.25
4084.052	-34.25
4086.497	-27.25
4088.939	-31.25
4091.38	-36.25
4093.819	-24.25
4096.257	-2.25
4098.693	-7.25
4101.127	-5.25
4103.559	1.75
4105.989	50.75
4108.418	55.75
4110.845	47.75
4113.27	44.75
4115.694	46.75
4118.115	38.75
4120.535	-37.25
4122.954	-29.25
4125.37	-19.25
4127.785	-25.25
4130.198	-21.25
4132.609	-29.25
4135.019	8.75
4137.427	0.75
4139.833	6.75
4142.237	-3.25
