Data from 2018-3-6_conc=0_n=2_RamanShift_05.txt Node
Date: Tue Mar 06 12:12:19 GMT+02:00 2018
User: LAB3
Spectrometer: QEPB0276
Trigger mode: 0
Integration Time (sec): 3.000000E1
Scans to average: 1
Electric dark correction enabled: true
Nonlinearity correction enabled: false
Boxcar width: 0
XAxis mode: Raman Shifts
Number of Pixels in Spectrum: 1044
>>>>>Begin Spectral Data<<<<<
160.701	87.5
166.742	128.5
172.777	213.5
178.805	449.5
184.826	1085.5
190.841	2221.5
196.849	3550.5
202.85	4581.5
208.845	4989.5
214.833	5041.5
220.815	5056.5
226.789	5096.5
232.758	5172.5
238.719	5194.5
244.674	5230.5
250.623	5226.5
256.565	5235.5
262.5	5210.5
268.429	5234.5
274.351	5209.5
280.267	5239.5
286.176	5245.5
292.079	5280.5
297.975	5311.5
303.865	5327.5
309.748	5355.5
315.625	5383.5
321.495	5373.5
327.359	5389.5
333.217	5395.5
339.068	5460.5
344.912	5443.5
350.751	5439.5
356.583	5481.5
362.408	5512.5
368.227	5548.5
374.04	5553.5
379.847	5638.5
385.647	5621.5
391.44	5640.5
397.228	5678.5
403.009	5702.5
408.784	5688.5
414.553	5755.5
420.315	5743.5
426.071	5743.5
431.821	5792.5
437.565	5781.5
443.302	5768.5
449.033	5713.5
454.758	5724.5
460.477	5659.5
466.189	5619.5
471.896	5575.5
477.596	5548.5
483.29	5507.5
488.978	5528.5
494.66	5496.5
500.335	5403.5
506.005	5201.5
511.668	5020.5
517.325	4835.5
522.977	4683.5
528.622	4568.5
534.261	4488.5
539.894	4403.5
545.521	4399.5
551.141	4354.5
556.756	4294.5
562.365	4274.5
567.968	4264.5
573.565	4235.5
579.155	4233.5
584.74	4203.5
590.319	4222.5
595.892	4183.5
601.459	4193.5
607.02	4151.5
612.575	4157.5
618.124	4113.5
623.667	4053.5
629.204	3990.5
634.735	3996.5
640.261	3948.5
645.781	3903.5
651.294	3884.5
656.802	3898.5
662.304	3907.5
667.8	3876.5
673.29	3858.5
678.775	3879.5
684.254	3845.5
689.726	3829.5
695.193	3832.5
700.655	3823.5
706.11	3780.5
711.56	3754.5
717.004	3782.5
722.442	3728.5
727.874	3752.5
733.301	3713.5
738.722	3675.5
744.137	3701.5
749.547	3694.5
754.951	3710.5
760.349	3699.5
765.741	3717.5
771.128	3742.5
776.509	3745.5
781.885	3801.5
787.254	3852.5
792.618	3831.5
797.977	3850.5
803.33	3837.5
808.677	3762.5
814.019	3763.5
819.355	3711.5
824.686	3700.5
830.011	3697.5
835.33	3690.5
840.644	3702.5
845.952	3631.5
851.255	3645.5
856.552	3629.5
861.844	3603.5
867.13	3605.5
872.41	3621.5
877.686	3658.5
882.955	3677.5
888.219	3640.5
893.478	3569.5
898.731	3448.5
903.979	3390.5
909.221	3336.5
914.458	3344.5
919.69	3310.5
924.916	3338.5
930.136	3327.5
935.351	3362.5
940.561	3342.5
945.766	3333.5
950.965	3316.5
956.158	3270.5
961.347	3273.5
966.529	3224.5
971.707	3197.5
976.879	3170.5
982.046	3129.5
987.208	3115.5
992.364	3130.5
997.515	3142.5
1002.66	3171.5
1007.801	3177.5
1012.936	3223.5
1018.066	3217.5
1023.19	3275.5
1028.309	3287.5
1033.423	3283.5
1038.532	3284.5
1043.636	3238.5
1048.734	3266.5
1053.827	3215.5
1058.915	3165.5
1063.998	3163.5
1069.075	3152.5
1074.147	3147.5
1079.214	3114.5
1084.276	3200.5
1089.333	3215.5
1094.385	3212.5
1099.431	3202.5
1104.472	3187.5
1109.509	3146.5
1114.54	3086.5
1119.565	3040.5
1124.586	3010.5
1129.602	2969.5
1134.613	2926.5
1139.618	2932.5
1144.619	2923.5
1149.614	2921.5
1154.604	2951.5
1159.589	2966.5
1164.57	2950.5
1169.545	2973.5
1174.515	2990.5
1179.48	2964.5
1184.44	2919.5
1189.395	2913.5
1194.345	2916.5
1199.29	2898.5
1204.23	2859.5
1209.165	2871.5
1214.095	2901.5
1219.021	2909.5
1223.941	2917.5
1228.856	2943.5
1233.766	2947.5
1238.672	2957.5
1243.572	2933.5
1248.467	2931.5
1253.358	2892.5
1258.244	2831.5
1263.124	2841.5
1268	2776.5
1272.871	2732.5
1277.737	2748.5
1282.599	2704.5
1287.455	2728.5
1292.306	2734.5
1297.153	2729.5
1301.995	2743.5
1306.832	2745.5
1311.664	2749.5
1316.491	2773.5
1321.314	2753.5
1326.132	2704.5
1330.945	2680.5
1335.753	2635.5
1340.556	2599.5
1345.354	2538.5
1350.148	2508.5
1354.937	2489.5
1359.722	2439.5
1364.501	2433.5
1369.276	2436.5
1374.046	2440.5
1378.811	2426.5
1383.572	2431.5
1388.327	2420.5
1393.079	2411.5
1397.825	2405.5
1402.567	2384.5
1407.304	2360.5
1412.036	2366.5
1416.764	2376.5
1421.487	2371.5
1426.205	2379.5
1430.919	2373.5
1435.628	2397.5
1440.333	2417.5
1445.032	2429.5
1449.727	2449.5
1454.418	2498.5
1459.104	2504.5
1463.785	2442.5
1468.462	2401.5
1473.134	2350.5
1477.802	2321.5
1482.465	2259.5
1487.123	2255.5
1491.777	2215.5
1496.426	2180.5
1501.071	2226.5
1505.711	2201.5
1510.347	2219.5
1514.978	2203.5
1519.604	2196.5
1524.226	2228.5
1528.844	2198.5
1533.457	2190.5
1538.065	2170.5
1542.669	2152.5
1547.269	2146.5
1551.864	2134.5
1556.454	2125.5
1561.041	2116.5
1565.622	2103.5
1570.199	2111.5
1574.772	2129.5
1579.34	2146.5
1583.904	2175.5
1588.464	2180.5
1593.019	2182.5
1597.569	2150.5
1602.115	2145.5
1606.657	2151.5
1611.195	2121.5
1615.728	2117.5
1620.256	2070.5
1624.78	2056.5
1629.3	2075.5
1633.816	2078.5
1638.327	2075.5
1642.834	2103.5
1647.336	2102.5
1651.834	2128.5
1656.328	2116.5
1660.817	2098.5
1665.302	2087.5
1669.783	2077.5
1674.259	2045.5
1678.732	1993.5
1683.199	1955.5
1687.663	1913.5
1692.122	1881.5
1696.577	1844.5
1701.028	1800.5
1705.474	1769.5
1709.917	1767.5
1714.355	1722.5
1718.788	1728.5
1723.218	1733.5
1727.643	1715.5
1732.064	1712.5
1736.481	1658.5
1740.893	1658.5
1745.301	1631.5
1749.705	1588.5
1754.105	1574.5
1758.501	1544.5
1762.893	1522.5
1767.28	1485.5
1771.663	1472.5
1776.042	1440.5
1780.417	1434.5
1784.787	1460.5
1789.154	1460.5
1793.516	1454.5
1797.874	1432.5
1802.228	1432.5
1806.578	1422.5
1810.924	1427.5
1815.266	1308.5
1819.603	1402.5
1823.937	1368.5
1828.266	1368.5
1832.591	1370.5
1836.913	1360.5
1841.23	1331.5
1845.543	1345.5
1849.852	1348.5
1854.156	1345.5
1858.457	1350.5
1862.754	1338.5
1867.047	1352.5
1871.335	1362.5
1875.62	1371.5
1879.9	1345.5
1884.177	1339.5
1888.449	1345.5
1892.718	1324.5
1896.982	1316.5
1901.243	1318.5
1905.499	1299.5
1909.752	1290.5
1914	1268.5
1918.245	1280.5
1922.485	1297.5
1926.722	1287.5
1930.954	1280.5
1935.183	1282.5
1939.408	1291.5
1943.628	1278.5
1947.845	1281.5
1952.058	1255.5
1956.267	1226.5
1960.472	1230.5
1964.673	1201.5
1968.87	1174.5
1973.063	1147.5
1977.252	1149.5
1981.438	1126.5
1985.619	1112.5
1989.797	1129.5
1993.971	1132.5
1998.14	1109.5
2002.306	1108.5
2006.469	1117.5
2010.627	1106.5
2014.781	1088.5
2018.932	1091.5
2023.078	1095.5
2027.221	1097.5
2031.36	1068.5
2035.495	1053.5
2039.627	1051.5
2043.754	1045.5
2047.878	1026.5
2051.998	1023.5
2056.114	1017.5
2060.226	1014.5
2064.334	1023.5
2068.439	1040.5
2072.54	1020.5
2076.637	1023.5
2080.73	1034.5
2084.82	1018.5
2088.906	1033.5
2092.988	1010.5
2097.066	1010.5
2101.14	1006.5
2105.211	994.5
2109.278	968.5
2113.342	973.5
2117.401	946.5
2121.457	942.5
2125.509	925.5
2129.558	931.5
2133.602	926.5
2137.643	927.5
2141.681	914.5
2145.714	914.5
2149.744	914.5
2153.77	915.5
2157.793	888.5
2161.812	867.5
2165.827	843.5
2169.838	878.5
2173.846	850.5
2177.851	836.5
2181.851	833.5
2185.848	826.5
2189.841	818.5
2193.831	817.5
2197.817	807.5
2201.799	792.5
2205.778	785.5
2209.753	780.5
2213.725	792.5
2217.693	796.5
2221.657	781.5
2225.618	783.5
2229.575	772.5
2233.529	768.5
2237.479	771.5
2241.425	761.5
2245.368	749.5
2249.307	743.5
2253.243	738.5
2257.175	713.5
2261.104	707.5
2265.029	699.5
2268.95	703.5
2272.868	686.5
2276.783	670.5
2280.694	675.5
2284.601	669.5
2288.505	660.5
2292.405	658.5
2296.302	627.5
2300.195	641.5
2304.085	616.5
2307.971	619.5
2311.854	601.5
2315.734	611.5
2319.609	607.5
2323.482	571.5
2327.351	586.5
2331.216	588.5
2335.078	598.5
2338.937	575.5
2342.792	580.5
2346.643	573.5
2350.492	586.5
2354.336	583.5
2358.178	573.5
2362.015	586.5
2365.85	587.5
2369.681	572.5
2373.508	591.5
2377.333	598.5
2381.153	577.5
2384.971	585.5
2388.785	586.5
2392.595	560.5
2396.402	564.5
2400.206	531.5
2404.007	552.5
2407.804	567.5
2411.597	551.5
2415.388	546.5
2419.174	548.5
2422.958	553.5
2426.738	542.5
2430.515	559.5
2434.289	532.5
2438.059	524.5
2441.825	538.5
2445.589	536.5
2449.349	510.5
2453.106	534.5
2456.859	509.5
2460.61	519.5
2464.356	498.5
2468.1	495.5
2471.84	480.5
2475.577	481.5
2479.311	497.5
2483.041	485.5
2486.768	500.5
2490.492	494.5
2494.213	484.5
2497.93	464.5
2501.644	470.5
2505.355	485.5
2509.062	476.5
2512.766	468.5
2516.467	472.5
2520.165	473.5
2523.859	462.5
2527.551	478.5
2531.239	453.5
2534.923	453.5
2538.605	452.5
2542.283	463.5
2545.958	463.5
2549.63	461.5
2553.299	466.5
2556.964	432.5
2560.626	438.5
2564.285	449.5
2567.941	425.5
2571.594	422.5
2575.243	433.5
2578.89	412.5
2582.533	421.5
2586.173	418.5
2589.809	419.5
2593.443	393.5
2597.073	401.5
2600.701	407.5
2604.325	402.5
2607.946	396.5
2611.564	398.5
2615.178	396.5
2618.79	392.5
2622.398	388.5
2626.004	385.5
2629.606	384.5
2633.205	361.5
2636.801	376.5
2640.394	369.5
2643.983	363.5
2647.57	360.5
2651.153	350.5
2654.734	371.5
2658.311	329.5
2661.885	340.5
2665.456	336.5
2669.025	347.5
2672.589	335.5
2676.151	356.5
2679.71	349.5
2683.266	333.5
2686.819	323.5
2690.368	323.5
2693.915	333.5
2697.458	310.5
2700.999	320.5
2704.536	309.5
2708.071	317.5
2711.602	303.5
2715.13	302.5
2718.656	282.5
2722.178	300.5
2725.697	278.5
2729.214	291.5
2732.727	282.5
2736.237	270.5
2739.744	290.5
2743.249	274.5
2746.75	285.5
2750.248	275.5
2753.743	284.5
2757.236	277.5
2760.725	281.5
2764.211	243.5
2767.695	276.5
2771.175	265.5
2774.652	263.5
2778.127	263.5
2781.598	248.5
2785.067	266.5
2788.532	252.5
2791.995	260.5
2795.455	253.5
2798.911	272.5
2802.365	260.5
2805.816	260.5
2809.264	267.5
2812.709	263.5
2816.151	262.5
2819.59	253.5
2823.026	257.5
2826.46	257.5
2829.89	264.5
2833.318	242.5
2836.742	267.5
2840.164	263.5
2843.583	253.5
2846.999	269.5
2850.412	270.5
2853.822	262.5
2857.229	274.5
2860.634	277.5
2864.035	253.5
2867.434	282.5
2870.83	295.5
2874.223	280.5
2877.613	292.5
2881	298.5
2884.385	304.5
2887.766	300.5
2891.145	305.5
2894.521	295.5
2897.894	294.5
2901.264	305.5
2904.631	301.5
2907.996	293.5
2911.358	302.5
2914.717	298.5
2918.073	297.5
2921.426	291.5
2924.777	277.5
2928.124	300.5
2931.469	333.5
2934.811	320.5
2938.15	354.5
2941.487	337.5
2944.821	347.5
2948.152	325.5
2951.48	322.5
2954.805	299.5
2958.128	313.5
2961.447	288.5
2964.765	308.5
2968.079	291.5
2971.39	290.5
2974.699	290.5
2978.005	301.5
2981.308	299.5
2984.609	289.5
2987.907	305.5
2991.202	306.5
2994.494	282.5
2997.784	292.5
3001.07	297.5
3004.355	278.5
3007.636	278.5
3010.915	278.5
3014.191	277.5
3017.464	273.5
3020.734	274.5
3024.002	265.5
3027.267	279.5
3030.53	271.5
3033.789	275.5
3037.046	270.5
3040.301	265.5
3043.552	278.5
3046.801	279.5
3050.048	297.5
3053.291	309.5
3056.532	294.5
3059.771	284.5
3063.006	309.5
3066.239	306.5
3069.469	318.5
3072.697	314.5
3075.922	327.5
3079.144	320.5
3082.364	355.5
3085.581	341.5
3088.795	360.5
3092.007	360.5
3095.216	377.5
3098.423	365.5
3101.627	354.5
3104.828	387.5
3108.026	372.5
3111.222	392.5
3114.416	408.5
3117.607	405.5
3120.795	413.5
3123.98	419.5
3127.163	408.5
3130.344	422.5
3133.521	410.5
3136.696	445.5
3139.869	452.5
3143.039	444.5
3146.206	480.5
3149.371	469.5
3152.533	469.5
3155.693	465.5
3158.85	477.5
3162.005	485.5
3165.157	471.5
3168.306	462.5
3171.453	481.5
3174.597	472.5
3177.739	455.5
3180.878	466.5
3184.014	482.5
3187.149	470.5
3190.28	474.5
3193.409	485.5
3196.536	473.5
3199.659	491.5
3202.781	481.5
3205.9	478.5
3209.016	483.5
3212.13	482.5
3215.241	473.5
3218.35	478.5
3221.456	471.5
3224.56	451.5
3227.661	465.5
3230.76	463.5
3233.856	458.5
3236.95	455.5
3240.041	439.5
3243.13	451.5
3246.216	435.5
3249.3	453.5
3252.382	443.5
3255.46	426.5
3258.537	389.5
3261.611	429.5
3264.682	432.5
3267.751	422.5
3270.818	423.5
3273.882	444.5
3276.943	423.5
3280.002	434.5
3283.059	408.5
3286.113	403.5
3289.165	413.5
3292.214	397.5
3295.261	406.5
3298.306	381.5
3301.348	380.5
3304.387	377.5
3307.425	379.5
3310.459	364.5
3313.492	371.5
3316.521	365.5
3319.549	371.5
3322.574	353.5
3325.597	350.5
3328.617	340.5
3331.635	338.5
3334.65	330.5
3337.663	346.5
3340.674	334.5
3343.682	332.5
3346.688	340.5
3349.691	336.5
3352.692	333.5
3355.691	331.5
3358.687	329.5
3361.681	320.5
3364.673	324.5
3367.662	326.5
3370.649	319.5
3373.633	309.5
3376.615	317.5
3379.595	291.5
3382.572	301.5
3385.547	289.5
3388.52	288.5
3391.49	292.5
3394.458	294.5
3397.424	283.5
3400.387	273.5
3403.348	281.5
3406.307	277.5
3409.263	275.5
3412.217	277.5
3415.168	272.5
3418.118	281.5
3421.065	260.5
3424.009	264.5
3426.951	255.5
3429.891	246.5
3432.829	249.5
3435.764	252.5
3438.697	239.5
3441.628	245.5
3444.557	218.5
3447.483	218.5
3450.407	214.5
3453.328	206.5
3456.247	211.5
3459.164	193.5
3462.079	206.5
3464.991	194.5
3467.902	187.5
3470.809	177.5
3473.715	192.5
3476.618	170.5
3479.519	174.5
3482.418	155.5
3485.315	150.5
3488.209	152.5
3491.101	156.5
3493.99	143.5
3496.878	142.5
3499.763	139.5
3502.646	137.5
3505.527	127.5
3508.405	126.5
3511.281	115.5
3514.155	119.5
3517.027	113.5
3519.897	100.5
3522.764	106.5
3525.629	87.5
3528.492	93.5
3531.352	91.5
3534.211	88.5
3537.067	78.5
3539.921	82.5
3542.773	86.5
3545.622	67.5
3548.469	64.5
3551.315	63.5
3554.157	61.5
3556.998	59.5
3559.837	55.5
3562.673	61.5
3565.507	48.5
3568.339	40.5
3571.169	45.5
3573.996	41.5
3576.822	19.5
3579.645	36.5
3582.466	33.5
3585.285	42.5
3588.101	38.5
3590.916	23.5
3593.728	32.5
3596.538	29.5
3599.346	28.5
3602.152	16.5
3604.956	23.5
3607.757	20.5
3610.556	10.5
3613.354	22.5
3616.149	12.5
3618.942	18.5
3621.732	19.5
3624.521	1.5
3627.307	0.5
3630.092	-1.5
3632.874	16.5
3635.654	8.5
3638.432	-3.5
3641.208	-4.5
3643.982	5.5
3646.753	9.5
3649.523	-22.5
3652.29	-1.5
3655.055	-2.5
3657.818	0.5
3660.579	-4.5
3663.338	-14.5
3666.095	-14.5
3668.849	-32.5
3671.602	-3.5
3674.352	-23.5
3677.101	-1.5
3679.847	-8.5
3682.591	-19.5
3685.333	-27.5
3688.073	-13.5
3690.811	-24.5
3693.547	-33.5
3696.281	-32.5
3699.013	-17.5
3701.742	-18.5
3704.47	-30.5
3707.195	-17.5
3709.919	-16.5
3712.64	-16.5
3715.359	-31.5
3718.076	-12.5
3720.792	-21.5
3723.505	-20.5
3726.216	-7.5
3728.925	-27.5
3731.632	-28.5
3734.336	-25.5
3737.039	-22.5
3739.74	-23.5
3742.439	-45.5
3745.136	-14.5
3747.83	-20.5
3750.523	-22.5
3753.213	-76.5
3755.902	-24.5
3758.589	-36.5
3761.273	-26.5
3763.956	-15.5
3766.636	-38.5
3769.315	-19.5
3771.991	-29.5
3774.665	-29.5
3777.338	-22.5
3780.008	-35.5
3782.677	-26.5
3785.343	-39.5
3788.007	-43.5
3790.67	-16.5
3793.33	-32.5
3795.989	-27.5
3798.645	-25.5
3801.299	-41.5
3803.952	-33.5
3806.602	-28.5
3809.251	-20.5
3811.897	-31.5
3814.542	-33.5
3817.184	-30.5
3819.825	-26.5
3822.463	-36.5
3825.1	-29.5
3827.735	-23.5
3830.367	-34.5
3832.998	-13.5
3835.627	-24.5
3838.253	-20.5
3840.878	-28.5
3843.501	-12.5
3846.122	-24.5
3848.741	-19.5
3851.358	-21.5
3853.973	-33.5
3856.586	-18.5
3859.197	-34.5
3861.806	-26.5
3864.414	-39.5
3867.019	-34.5
3869.622	-24.5
3872.224	-23.5
3874.823	-22.5
3877.421	-7.5
3880.016	4.5
3882.61	25.5
3885.202	41.5
3887.792	19.5
3890.38	9.5
3892.966	-22.5
3895.55	-40.5
3898.132	-30.5
3900.713	-22.5
3903.291	-28.5
3905.868	-36.5
3908.442	-27.5
3911.015	-30.5
3913.586	-36.5
3916.155	-34.5
3918.722	-39.5
3921.287	-32.5
3923.85	-44.5
3926.411	-39.5
3928.971	-39.5
3931.528	-32.5
3934.084	-31.5
3936.638	-43.5
3939.19	-30.5
3941.74	-30.5
3944.288	-40.5
3946.834	-37.5
3949.378	-29.5
3951.921	-38.5
3954.462	-36.5
3957	-34.5
3959.537	-20.5
3962.072	-36.5
3964.606	-50.5
3967.137	-36.5
3969.667	-42.5
3972.194	-23.5
3974.72	-35.5
3977.244	-56.5
3979.766	-38.5
3982.286	-34.5
3984.805	-27.5
3987.321	-20.5
3989.836	-24.5
3992.349	-38.5
3994.86	-25.5
3997.369	-34.5
3999.877	-29.5
4002.382	-32.5
4004.886	-20.5
4007.388	-28.5
4009.888	-18.5
4012.386	-21.5
4014.883	-27.5
4017.377	-26.5
4019.87	-23.5
4022.361	-41.5
4024.85	-27.5
4027.338	-26.5
4029.823	-28.5
4032.307	-29.5
4034.789	-26.5
4037.269	-26.5
4039.747	-41.5
4042.224	-17.5
4044.699	-33.5
4047.172	-28.5
4049.643	-23.5
4052.112	-47.5
4054.58	-26.5
4057.046	-35.5
4059.51	-27.5
4061.972	-27.5
4064.432	-41.5
4066.891	-14.5
4069.348	-26.5
4071.803	-23.5
4074.256	-27.5
4076.708	-23.5
4079.158	-24.5
4081.606	-17.5
4084.052	-23.5
4086.497	-22.5
4088.939	-28.5
4091.38	-29.5
4093.819	-16.5
4096.257	-3.5
4098.693	-7.5
4101.127	-7.5
4103.559	0.5
4105.989	48.5
4108.418	58.5
4110.845	46.5
4113.27	58.5
4115.694	75.5
4118.115	68.5
4120.535	-24.5
4122.954	-21.5
4125.37	-17.5
4127.785	-22.5
4130.198	-14.5
4132.609	-18.5
4135.019	11.5
4137.427	1.5
4139.833	7.5
4142.237	-2.5
