Data from 2018-3-6_conc=5_n=8_RamanShift_02.txt Node
Date: Tue Mar 06 14:44:48 GMT+02:00 2018
User: LAB3
Spectrometer: QEPB0276
Trigger mode: 0
Integration Time (sec): 3.000000E1
Scans to average: 1
Electric dark correction enabled: true
Nonlinearity correction enabled: false
Boxcar width: 0
XAxis mode: Raman Shifts
Number of Pixels in Spectrum: 1044
>>>>>Begin Spectral Data<<<<<
160.701	55.75
166.742	74.75
172.777	95.75
178.805	197.75
184.826	465.75
190.841	930.75
196.849	1458.75
202.85	1844.75
208.845	1968.75
214.833	1945.75
220.815	1899.75
226.789	1878.75
232.758	1862.75
238.719	1821.75
244.674	1803.75
250.623	1766.75
256.565	1726.75
262.5	1686.75
268.429	1666.75
274.351	1650.75
280.267	1660.75
286.176	1624.75
292.079	1629.75
297.975	1625.75
303.865	1611.75
309.748	1614.75
315.625	1606.75
321.495	1594.75
327.359	1599.75
333.217	1572.75
339.068	1575.75
344.912	1583.75
350.751	1597.75
356.583	1596.75
362.408	1616.75
368.227	1618.75
374.04	1604.75
379.847	1605.75
385.647	1631.75
391.44	1614.75
397.228	1615.75
403.009	1633.75
408.784	1655.75
414.553	1652.75
420.315	1652.75
426.071	1622.75
431.821	1652.75
437.565	1648.75
443.302	1641.75
449.033	1620.75
454.758	1622.75
460.477	1603.75
466.189	1594.75
471.896	1587.75
477.596	1584.75
483.29	1569.75
488.978	1543.75
494.66	1529.75
500.335	1494.75
506.005	1422.75
511.668	1375.75
517.325	1296.75
522.977	1239.75
528.622	1191.75
534.261	1176.75
539.894	1147.75
545.521	1136.75
551.141	1118.75
556.756	1100.75
562.365	1093.75
567.968	1087.75
573.565	1065.75
579.155	1067.75
584.74	1050.75
590.319	1061.75
595.892	1053.75
601.459	1065.75
607.02	1045.75
612.575	1043.75
618.124	1062.75
623.667	1002.75
629.204	1007.75
634.735	988.75
640.261	985.75
645.781	953.75
651.294	956.75
656.802	959.75
662.304	982.75
667.8	966.75
673.29	950.75
678.775	955.75
684.254	958.75
689.726	935.75
695.193	950.75
700.655	935.75
706.11	912.75
711.56	922.75
717.004	917.75
722.442	898.75
727.874	903.75
733.301	909.75
738.722	883.75
744.137	898.75
749.547	894.75
754.951	887.75
760.349	895.75
765.741	907.75
771.128	911.75
776.509	908.75
781.885	935.75
787.254	937.75
792.618	945.75
797.977	954.75
803.33	932.75
808.677	925.75
814.019	924.75
819.355	913.75
824.686	892.75
830.011	885.75
835.33	920.75
840.644	899.75
845.952	881.75
851.255	887.75
856.552	867.75
861.844	870.75
867.13	843.75
872.41	841.75
877.686	839.75
882.955	816.75
888.219	820.75
893.478	785.75
898.731	794.75
903.979	787.75
909.221	777.75
914.458	769.75
919.69	778.75
924.916	769.75
930.136	778.75
935.351	762.75
940.561	790.75
945.766	767.75
950.965	789.75
956.158	753.75
961.347	752.75
966.529	747.75
971.707	749.75
976.879	741.75
982.046	717.75
987.208	715.75
992.364	722.75
997.515	712.75
1002.66	723.75
1007.801	715.75
1012.936	716.75
1018.066	717.75
1023.19	729.75
1028.309	742.75
1033.423	742.75
1038.532	742.75
1043.636	736.75
1048.734	746.75
1053.827	708.75
1058.915	714.75
1063.998	706.75
1069.075	711.75
1074.147	720.75
1079.214	696.75
1084.276	712.75
1089.333	711.75
1094.385	717.75
1099.431	709.75
1104.472	707.75
1109.509	686.75
1114.54	684.75
1119.565	667.75
1124.586	678.75
1129.602	658.75
1134.613	638.75
1139.618	645.75
1144.619	648.75
1149.614	655.75
1154.604	642.75
1159.589	647.75
1164.57	659.75
1169.545	668.75
1174.515	665.75
1179.48	667.75
1184.44	652.75
1189.395	668.75
1194.345	641.75
1199.29	632.75
1204.23	628.75
1209.165	621.75
1214.095	651.75
1219.021	634.75
1223.941	628.75
1228.856	645.75
1233.766	659.75
1238.672	652.75
1243.572	634.75
1248.467	642.75
1253.358	641.75
1258.244	621.75
1263.124	636.75
1268	617.75
1272.871	596.75
1277.737	585.75
1282.599	588.75
1287.455	585.75
1292.306	586.75
1297.153	575.75
1301.995	589.75
1306.832	577.75
1311.664	593.75
1316.491	585.75
1321.314	586.75
1326.132	583.75
1330.945	579.75
1335.753	571.75
1340.556	567.75
1345.354	547.75
1350.148	551.75
1354.937	543.75
1359.722	526.75
1364.501	526.75
1369.276	529.75
1374.046	538.75
1378.811	527.75
1383.572	542.75
1388.327	524.75
1393.079	513.75
1397.825	506.75
1402.567	513.75
1407.304	503.75
1412.036	507.75
1416.764	491.75
1421.487	487.75
1426.205	494.75
1430.919	487.75
1435.628	491.75
1440.333	495.75
1445.032	504.75
1449.727	501.75
1454.418	511.75
1459.104	526.75
1463.785	486.75
1468.462	503.75
1473.134	497.75
1477.802	476.75
1482.465	461.75
1487.123	477.75
1491.777	445.75
1496.426	448.75
1501.071	474.75
1505.711	465.75
1510.347	475.75
1514.978	472.75
1519.604	473.75
1524.226	482.75
1528.844	462.75
1533.457	477.75
1538.065	476.75
1542.669	460.75
1547.269	451.75
1551.864	468.75
1556.454	445.75
1561.041	446.75
1565.622	441.75
1570.199	458.75
1574.772	452.75
1579.34	461.75
1583.904	460.75
1588.464	469.75
1593.019	475.75
1597.569	457.75
1602.115	475.75
1606.657	462.75
1611.195	476.75
1615.728	477.75
1620.256	456.75
1624.78	441.75
1629.3	457.75
1633.816	450.75
1638.327	448.75
1642.834	465.75
1647.336	458.75
1651.834	478.75
1656.328	472.75
1660.817	456.75
1665.302	449.75
1669.783	453.75
1674.259	448.75
1678.732	438.75
1683.199	420.75
1687.663	403.75
1692.122	413.75
1696.577	404.75
1701.028	404.75
1705.474	392.75
1709.917	369.75
1714.355	372.75
1718.788	369.75
1723.218	353.75
1727.643	349.75
1732.064	356.75
1736.481	334.75
1740.893	348.75
1745.301	336.75
1749.705	312.75
1754.105	324.75
1758.501	302.75
1762.893	325.75
1767.28	284.75
1771.663	296.75
1776.042	285.75
1780.417	291.75
1784.787	294.75
1789.154	298.75
1793.516	286.75
1797.874	287.75
1802.228	284.75
1806.578	266.75
1810.924	290.75
1815.266	176.75
1819.603	285.75
1823.937	273.75
1828.266	267.75
1832.591	276.75
1836.913	271.75
1841.23	262.75
1845.543	260.75
1849.852	269.75
1854.156	259.75
1858.457	260.75
1862.754	257.75
1867.047	266.75
1871.335	276.75
1875.62	271.75
1879.9	271.75
1884.177	260.75
1888.449	265.75
1892.718	266.75
1896.982	270.75
1901.243	241.75
1905.499	253.75
1909.752	245.75
1914	234.75
1918.245	268.75
1922.485	257.75
1926.722	248.75
1930.954	243.75
1935.183	256.75
1939.408	256.75
1943.628	256.75
1947.845	253.75
1952.058	251.75
1956.267	235.75
1960.472	251.75
1964.673	243.75
1968.87	238.75
1973.063	231.75
1977.252	233.75
1981.438	235.75
1985.619	225.75
1989.797	209.75
1993.971	222.75
1998.14	225.75
2002.306	223.75
2006.469	224.75
2010.627	206.75
2014.781	213.75
2018.932	205.75
2023.078	224.75
2027.221	221.75
2031.36	204.75
2035.495	211.75
2039.627	203.75
2043.754	204.75
2047.878	199.75
2051.998	193.75
2056.114	201.75
2060.226	196.75
2064.334	203.75
2068.439	214.75
2072.54	207.75
2076.637	189.75
2080.73	199.75
2084.82	193.75
2088.906	195.75
2092.988	188.75
2097.066	195.75
2101.14	206.75
2105.211	198.75
2109.278	192.75
2113.342	182.75
2117.401	183.75
2121.457	171.75
2125.509	180.75
2129.558	187.75
2133.602	180.75
2137.643	179.75
2141.681	185.75
2145.714	182.75
2149.744	184.75
2153.77	179.75
2157.793	167.75
2161.812	144.75
2165.827	152.75
2169.838	172.75
2173.846	162.75
2177.851	155.75
2181.851	167.75
2185.848	153.75
2189.841	153.75
2193.831	155.75
2197.817	160.75
2201.799	155.75
2205.778	142.75
2209.753	140.75
2213.725	134.75
2217.693	150.75
2221.657	140.75
2225.618	152.75
2229.575	145.75
2233.529	149.75
2237.479	147.75
2241.425	136.75
2245.368	130.75
2249.307	139.75
2253.243	140.75
2257.175	131.75
2261.104	118.75
2265.029	123.75
2268.95	132.75
2272.868	120.75
2276.783	115.75
2280.694	121.75
2284.601	120.75
2288.505	114.75
2292.405	125.75
2296.302	101.75
2300.195	109.75
2304.085	84.75
2307.971	110.75
2311.854	91.75
2315.734	110.75
2319.609	109.75
2323.482	85.75
2327.351	96.75
2331.216	95.75
2335.078	100.75
2338.937	96.75
2342.792	89.75
2346.643	92.75
2350.492	100.75
2354.336	92.75
2358.178	98.75
2362.015	89.75
2365.85	87.75
2369.681	93.75
2373.508	93.75
2377.333	96.75
2381.153	102.75
2384.971	93.75
2388.785	93.75
2392.595	75.75
2396.402	82.75
2400.206	55.75
2404.007	78.75
2407.804	88.75
2411.597	88.75
2415.388	83.75
2419.174	76.75
2422.958	84.75
2426.738	82.75
2430.515	91.75
2434.289	76.75
2438.059	78.75
2441.825	75.75
2445.589	88.75
2449.349	65.75
2453.106	80.75
2456.859	78.75
2460.61	83.75
2464.356	70.75
2468.1	68.75
2471.84	61.75
2475.577	60.75
2479.311	67.75
2483.041	68.75
2486.768	83.75
2490.492	84.75
2494.213	68.75
2497.93	53.75
2501.644	51.75
2505.355	66.75
2509.062	59.75
2512.766	63.75
2516.467	61.75
2520.165	65.75
2523.859	44.75
2527.551	81.75
2531.239	56.75
2534.923	62.75
2538.605	58.75
2542.283	64.75
2545.958	59.75
2549.63	65.75
2553.299	65.75
2556.964	46.75
2560.626	50.75
2564.285	53.75
2567.941	42.75
2571.594	44.75
2575.243	59.75
2578.89	44.75
2582.533	48.75
2586.173	45.75
2589.809	57.75
2593.443	28.75
2597.073	54.75
2600.701	50.75
2604.325	51.75
2607.946	39.75
2611.564	58.75
2615.178	49.75
2618.79	56.75
2622.398	44.75
2626.004	54.75
2629.606	51.75
2633.205	41.75
2636.801	57.75
2640.394	50.75
2643.983	41.75
2647.57	40.75
2651.153	33.75
2654.734	50.75
2658.311	29.75
2661.885	31.75
2665.456	40.75
2669.025	41.75
2672.589	26.75
2676.151	51.75
2679.71	47.75
2683.266	38.75
2686.819	27.75
2690.368	41.75
2693.915	43.75
2697.458	32.75
2700.999	41.75
2704.536	43.75
2708.071	33.75
2711.602	32.75
2715.13	34.75
2718.656	14.75
2722.178	31.75
2725.697	18.75
2729.214	23.75
2732.727	34.75
2736.237	19.75
2739.744	24.75
2743.249	12.75
2746.75	25.75
2750.248	23.75
2753.743	26.75
2757.236	23.75
2760.725	27.75
2764.211	1.75
2767.695	30.75
2771.175	27.75
2774.652	24.75
2778.127	19.75
2781.598	17.75
2785.067	28.75
2788.532	19.75
2791.995	28.75
2795.455	20.75
2798.911	33.75
2802.365	20.75
2805.816	26.75
2809.264	33.75
2812.709	25.75
2816.151	26.75
2819.59	14.75
2823.026	21.75
2826.46	23.75
2829.89	34.75
2833.318	6.75
2836.742	24.75
2840.164	23.75
2843.583	27.75
2846.999	28.75
2850.412	28.75
2853.822	19.75
2857.229	35.75
2860.634	33.75
2864.035	11.75
2867.434	36.75
2870.83	33.75
2874.223	22.75
2877.613	27.75
2881	13.75
2884.385	26.75
2887.766	21.75
2891.145	31.75
2894.521	26.75
2897.894	20.75
2901.264	35.75
2904.631	30.75
2907.996	27.75
2911.358	40.75
2914.717	29.75
2918.073	26.75
2921.426	21.75
2924.777	17.75
2928.124	22.75
2931.469	37.75
2934.811	16.75
2938.15	46.75
2941.487	26.75
2944.821	56.75
2948.152	39.75
2951.48	42.75
2954.805	26.75
2958.128	45.75
2961.447	38.75
2964.765	51.75
2968.079	33.75
2971.39	41.75
2974.699	44.75
2978.005	51.75
2981.308	41.75
2984.609	35.75
2987.907	46.75
2991.202	59.75
2994.494	31.75
2997.784	47.75
3001.07	52.75
3004.355	44.75
3007.636	49.75
3010.915	53.75
3014.191	46.75
3017.464	50.75
3020.734	43.75
3024.002	55.75
3027.267	49.75
3030.53	55.75
3033.789	52.75
3037.046	55.75
3040.301	51.75
3043.552	58.75
3046.801	56.75
3050.048	64.75
3053.291	77.75
3056.532	66.75
3059.771	52.75
3063.006	73.75
3066.239	63.75
3069.469	75.75
3072.697	64.75
3075.922	68.75
3079.144	69.75
3082.364	84.75
3085.581	65.75
3088.795	96.75
3092.007	89.75
3095.216	92.75
3098.423	86.75
3101.627	63.75
3104.828	94.75
3108.026	89.75
3111.222	107.75
3114.416	111.75
3117.607	100.75
3120.795	107.75
3123.98	114.75
3127.163	96.75
3130.344	113.75
3133.521	102.75
3136.696	132.75
3139.869	123.75
3143.039	108.75
3146.206	143.75
3149.371	133.75
3152.533	143.75
3155.693	122.75
3158.85	135.75
3162.005	144.75
3165.157	125.75
3168.306	128.75
3171.453	142.75
3174.597	132.75
3177.739	122.75
3180.878	135.75
3184.014	147.75
3187.149	134.75
3190.28	140.75
3193.409	149.75
3196.536	142.75
3199.659	152.75
3202.781	156.75
3205.9	135.75
3209.016	142.75
3212.13	139.75
3215.241	139.75
3218.35	143.75
3221.456	133.75
3224.56	125.75
3227.661	137.75
3230.76	132.75
3233.856	117.75
3236.95	127.75
3240.041	123.75
3243.13	131.75
3246.216	128.75
3249.3	129.75
3252.382	130.75
3255.46	111.75
3258.537	75.75
3261.611	110.75
3264.682	123.75
3267.751	113.75
3270.818	109.75
3273.882	121.75
3276.943	121.75
3280.002	130.75
3283.059	113.75
3286.113	121.75
3289.165	113.75
3292.214	114.75
3295.261	130.75
3298.306	95.75
3301.348	120.75
3304.387	101.75
3307.425	113.75
3310.459	100.75
3313.492	115.75
3316.521	99.75
3319.549	110.75
3322.574	113.75
3325.597	103.75
3328.617	97.75
3331.635	92.75
3334.65	90.75
3337.663	105.75
3340.674	91.75
3343.682	102.75
3346.688	104.75
3349.691	93.75
3352.692	94.75
3355.691	103.75
3358.687	89.75
3361.681	93.75
3364.673	92.75
3367.662	100.75
3370.649	93.75
3373.633	80.75
3376.615	89.75
3379.595	67.75
3382.572	86.75
3385.547	66.75
3388.52	73.75
3391.49	78.75
3394.458	74.75
3397.424	78.75
3400.387	63.75
3403.348	78.75
3406.307	72.75
3409.263	76.75
3412.217	79.75
3415.168	72.75
3418.118	83.75
3421.065	72.75
3424.009	76.75
3426.951	71.75
3429.891	64.75
3432.829	71.75
3435.764	72.75
3438.697	58.75
3441.628	72.75
3444.557	52.75
3447.483	43.75
3450.407	62.75
3453.328	53.75
3456.247	45.75
3459.164	41.75
3462.079	61.75
3464.991	50.75
3467.902	42.75
3470.809	39.75
3473.715	49.75
3476.618	40.75
3479.519	40.75
3482.418	16.75
3485.315	23.75
3488.209	26.75
3491.101	24.75
3493.99	12.75
3496.878	18.75
3499.763	25.75
3502.646	21.75
3505.527	20.75
3508.405	15.75
3511.281	4.75
3514.155	16.75
3517.027	13.75
3519.897	6.75
3522.764	11.75
3525.629	-10.25
3528.492	8.75
3531.352	11.75
3534.211	0.75
3537.067	-2.25
3539.921	-0.25
3542.773	8.75
3545.622	-8.25
3548.469	-8.25
3551.315	-15.25
3554.157	-5.25
3556.998	-11.25
3559.837	-10.25
3562.673	-8.25
3565.507	-13.25
3568.339	-20.25
3571.169	-18.25
3573.996	-15.25
3576.822	-27.25
3579.645	-19.25
3582.466	-17.25
3585.285	-13.25
3588.101	-15.25
3590.916	-21.25
3593.728	-11.25
3596.538	-21.25
3599.346	-14.25
3602.152	-26.25
3604.956	-22.25
3607.757	-14.25
3610.556	-30.25
3613.354	-18.25
3616.149	-22.25
3618.942	-18.25
3621.732	-15.25
3624.521	-28.25
3627.307	-32.25
3630.092	-29.25
3632.874	-12.25
3635.654	-18.25
3638.432	-30.25
3641.208	-22.25
3643.982	-28.25
3646.753	-22.25
3649.523	-52.25
3652.29	-32.25
3655.055	-23.25
3657.818	-23.25
3660.579	-30.25
3663.338	-36.25
3666.095	-33.25
3668.849	-50.25
3671.602	-23.25
3674.352	-41.25
3677.101	-16.25
3679.847	-21.25
3682.591	-37.25
3685.333	-44.25
3688.073	-31.25
3690.811	-38.25
3693.547	-46.25
3696.281	-46.25
3699.013	-31.25
3701.742	-34.25
3704.47	-42.25
3707.195	-30.25
3709.919	-32.25
3712.64	-34.25
3715.359	-46.25
3718.076	-19.25
3720.792	-39.25
3723.505	-32.25
3726.216	-22.25
3728.925	-34.25
3731.632	-40.25
3734.336	-31.25
3737.039	-30.25
3739.74	-33.25
3742.439	-55.25
3745.136	-28.25
3747.83	-32.25
3750.523	-30.25
3753.213	-95.25
3755.902	-37.25
3758.589	-45.25
3761.273	-38.25
3763.956	-28.25
3766.636	-44.25
3769.315	-22.25
3771.991	-32.25
3774.665	-32.25
3777.338	-31.25
3780.008	-47.25
3782.677	-36.25
3785.343	-51.25
3788.007	-47.25
3790.67	-27.25
3793.33	-45.25
3795.989	-35.25
3798.645	-32.25
3801.299	-45.25
3803.952	-40.25
3806.602	-42.25
3809.251	-26.25
3811.897	-32.25
3814.542	-38.25
3817.184	-43.25
3819.825	-34.25
3822.463	-43.25
3825.1	-38.25
3827.735	-31.25
3830.367	-40.25
3832.998	-21.25
3835.627	-35.25
3838.253	-28.25
3840.878	-34.25
3843.501	-17.25
3846.122	-32.25
3848.741	-28.25
3851.358	-29.25
3853.973	-46.25
3856.586	-25.25
3859.197	-38.25
3861.806	-31.25
3864.414	-48.25
3867.019	-35.25
3869.622	-27.25
3872.224	-22.25
3874.823	-18.25
3877.421	8.75
3880.016	20.75
3882.61	67.75
3885.202	79.75
3887.792	62.75
3890.38	21.75
3892.966	-20.25
3895.55	-35.25
3898.132	-30.25
3900.713	-28.25
3903.291	-32.25
3905.868	-45.25
3908.442	-30.25
3911.015	-33.25
3913.586	-41.25
3916.155	-37.25
3918.722	-44.25
3921.287	-46.25
3923.85	-47.25
3926.411	-41.25
3928.971	-41.25
3931.528	-30.25
3934.084	-35.25
3936.638	-33.25
3939.19	-26.25
3941.74	-28.25
3944.288	-41.25
3946.834	-32.25
3949.378	-24.25
3951.921	-43.25
3954.462	-32.25
3957	-31.25
3959.537	-21.25
3962.072	-38.25
3964.606	-52.25
3967.137	-35.25
3969.667	-39.25
3972.194	-32.25
3974.72	-36.25
3977.244	-58.25
3979.766	-42.25
3982.286	-41.25
3984.805	-27.25
3987.321	-26.25
3989.836	-34.25
3992.349	-43.25
3994.86	-36.25
3997.369	-42.25
3999.877	-37.25
4002.382	-37.25
4004.886	-34.25
4007.388	-39.25
4009.888	-24.25
4012.386	-28.25
4014.883	-30.25
4017.377	-36.25
4019.87	-32.25
4022.361	-41.25
4024.85	-37.25
4027.338	-34.25
4029.823	-42.25
4032.307	-36.25
4034.789	-34.25
4037.269	-33.25
4039.747	-55.25
4042.224	-26.25
4044.699	-40.25
4047.172	-41.25
4049.643	-30.25
4052.112	-58.25
4054.58	-33.25
4057.046	-48.25
4059.51	-31.25
4061.972	-33.25
4064.432	-50.25
4066.891	-24.25
4069.348	-31.25
4071.803	-33.25
4074.256	-41.25
4076.708	-28.25
4079.158	-34.25
4081.606	-25.25
4084.052	-39.25
4086.497	-27.25
4088.939	-34.25
4091.38	-40.25
4093.819	-30.25
4096.257	2.75
4098.693	-2.25
4101.127	-3.25
4103.559	0.75
4105.989	61.75
4108.418	65.75
4110.845	52.75
4113.27	60.75
4115.694	65.75
4118.115	45.75
4120.535	-31.25
4122.954	-31.25
4125.37	-21.25
4127.785	-29.25
4130.198	-25.25
4132.609	-30.25
4135.019	6.75
4137.427	-4.25
4139.833	3.75
4142.237	-4.25
