Data from 2018-3-6_conc=5_n=2_RamanShift_03.txt Node
Date: Tue Mar 06 14:26:18 GMT+02:00 2018
User: LAB3
Spectrometer: QEPB0276
Trigger mode: 0
Integration Time (sec): 3.000000E1
Scans to average: 1
Electric dark correction enabled: true
Nonlinearity correction enabled: false
Boxcar width: 0
XAxis mode: Raman Shifts
Number of Pixels in Spectrum: 1044
>>>>>Begin Spectral Data<<<<<
160.701	51.38
166.742	69.38
172.777	103.38
178.805	222.38
184.826	515.38
190.841	1051.38
196.849	1641.38
202.85	2109.38
208.845	2211.38
214.833	2207.38
220.815	2152.38
226.789	2143.38
232.758	2155.38
238.719	2138.38
244.674	2087.38
250.623	2061.38
256.565	2041.38
262.5	2035.38
268.429	1971.38
274.351	1967.38
280.267	1961.38
286.176	1952.38
292.079	1936.38
297.975	1952.38
303.865	1962.38
309.748	1930.38
315.625	1925.38
321.495	1926.38
327.359	1903.38
333.217	1932.38
339.068	1918.38
344.912	1929.38
350.751	1937.38
356.583	1929.38
362.408	1950.38
368.227	1956.38
374.04	1984.38
379.847	1967.38
385.647	1982.38
391.44	1950.38
397.228	1982.38
403.009	2002.38
408.784	1991.38
414.553	2003.38
420.315	1995.38
426.071	1993.38
431.821	2001.38
437.565	1980.38
443.302	1970.38
449.033	1982.38
454.758	1975.38
460.477	1940.38
466.189	1942.38
471.896	1912.38
477.596	1904.38
483.29	1892.38
488.978	1905.38
494.66	1862.38
500.335	1815.38
506.005	1743.38
511.668	1658.38
517.325	1576.38
522.977	1508.38
528.622	1477.38
534.261	1459.38
539.894	1409.38
545.521	1393.38
551.141	1358.38
556.756	1348.38
562.365	1341.38
567.968	1341.38
573.565	1311.38
579.155	1300.38
584.74	1310.38
590.319	1312.38
595.892	1309.38
601.459	1315.38
607.02	1298.38
612.575	1293.38
618.124	1286.38
623.667	1255.38
629.204	1235.38
634.735	1223.38
640.261	1207.38
645.781	1187.38
651.294	1184.38
656.802	1168.38
662.304	1201.38
667.8	1204.38
673.29	1167.38
678.775	1189.38
684.254	1178.38
689.726	1154.38
695.193	1163.38
700.655	1159.38
706.11	1153.38
711.56	1136.38
717.004	1130.38
722.442	1132.38
727.874	1130.38
733.301	1126.38
738.722	1115.38
744.137	1108.38
749.547	1104.38
754.951	1115.38
760.349	1108.38
765.741	1116.38
771.128	1126.38
776.509	1137.38
781.885	1152.38
787.254	1159.38
792.618	1166.38
797.977	1165.38
803.33	1156.38
808.677	1138.38
814.019	1134.38
819.355	1129.38
824.686	1104.38
830.011	1101.38
835.33	1121.38
840.644	1116.38
845.952	1084.38
851.255	1093.38
856.552	1077.38
861.844	1073.38
867.13	1048.38
872.41	1045.38
877.686	1030.38
882.955	1034.38
888.219	1015.38
893.478	992.38
898.731	982.38
903.979	979.38
909.221	963.38
914.458	965.38
919.69	965.38
924.916	959.38
930.136	958.38
935.351	954.38
940.561	971.38
945.766	967.38
950.965	969.38
956.158	954.38
961.347	939.38
966.529	936.38
971.707	927.38
976.879	903.38
982.046	911.38
987.208	889.38
992.364	903.38
997.515	885.38
1002.66	892.38
1007.801	889.38
1012.936	900.38
1018.066	891.38
1023.19	922.38
1028.309	916.38
1033.423	931.38
1038.532	931.38
1043.636	918.38
1048.734	914.38
1053.827	905.38
1058.915	882.38
1063.998	881.38
1069.075	883.38
1074.147	890.38
1079.214	856.38
1084.276	893.38
1089.333	888.38
1094.385	899.38
1099.431	877.38
1104.472	896.38
1109.509	867.38
1114.54	864.38
1119.565	847.38
1124.586	846.38
1129.602	843.38
1134.613	789.38
1139.618	813.38
1144.619	802.38
1149.614	821.38
1154.604	813.38
1159.589	801.38
1164.57	830.38
1169.545	833.38
1174.515	822.38
1179.48	834.38
1184.44	830.38
1189.395	815.38
1194.345	797.38
1199.29	802.38
1204.23	796.38
1209.165	778.38
1214.095	809.38
1219.021	794.38
1223.941	800.38
1228.856	812.38
1233.766	815.38
1238.672	823.38
1243.572	816.38
1248.467	817.38
1253.358	798.38
1258.244	778.38
1263.124	775.38
1268	769.38
1272.871	749.38
1277.737	745.38
1282.599	741.38
1287.455	731.38
1292.306	739.38
1297.153	731.38
1301.995	727.38
1306.832	735.38
1311.664	736.38
1316.491	736.38
1321.314	750.38
1326.132	734.38
1330.945	722.38
1335.753	705.38
1340.556	697.38
1345.354	686.38
1350.148	679.38
1354.937	675.38
1359.722	657.38
1364.501	652.38
1369.276	659.38
1374.046	655.38
1378.811	638.38
1383.572	653.38
1388.327	652.38
1393.079	642.38
1397.825	634.38
1402.567	646.38
1407.304	626.38
1412.036	616.38
1416.764	634.38
1421.487	608.38
1426.205	610.38
1430.919	621.38
1435.628	626.38
1440.333	622.38
1445.032	638.38
1449.727	633.38
1454.418	657.38
1459.104	639.38
1463.785	615.38
1468.462	632.38
1473.134	627.38
1477.802	604.38
1482.465	572.38
1487.123	580.38
1491.777	564.38
1496.426	561.38
1501.071	590.38
1505.711	565.38
1510.347	587.38
1514.978	578.38
1519.604	584.38
1524.226	597.38
1528.844	578.38
1533.457	584.38
1538.065	585.38
1542.669	579.38
1547.269	571.38
1551.864	571.38
1556.454	554.38
1561.041	555.38
1565.622	563.38
1570.199	574.38
1574.772	573.38
1579.34	576.38
1583.904	588.38
1588.464	606.38
1593.019	594.38
1597.569	581.38
1602.115	580.38
1606.657	584.38
1611.195	587.38
1615.728	578.38
1620.256	570.38
1624.78	549.38
1629.3	570.38
1633.816	577.38
1638.327	568.38
1642.834	575.38
1647.336	569.38
1651.834	593.38
1656.328	578.38
1660.817	583.38
1665.302	564.38
1669.783	559.38
1674.259	543.38
1678.732	542.38
1683.199	536.38
1687.663	507.38
1692.122	506.38
1696.577	494.38
1701.028	486.38
1705.474	482.38
1709.917	462.38
1714.355	459.38
1718.788	454.38
1723.218	444.38
1727.643	425.38
1732.064	441.38
1736.481	423.38
1740.893	428.38
1745.301	419.38
1749.705	388.38
1754.105	403.38
1758.501	385.38
1762.893	399.38
1767.28	369.38
1771.663	379.38
1776.042	359.38
1780.417	360.38
1784.787	365.38
1789.154	368.38
1793.516	371.38
1797.874	368.38
1802.228	352.38
1806.578	341.38
1810.924	366.38
1815.266	232.38
1819.603	370.38
1823.937	346.38
1828.266	342.38
1832.591	341.38
1836.913	345.38
1841.23	343.38
1845.543	337.38
1849.852	352.38
1854.156	330.38
1858.457	339.38
1862.754	322.38
1867.047	335.38
1871.335	341.38
1875.62	345.38
1879.9	340.38
1884.177	340.38
1888.449	331.38
1892.718	335.38
1896.982	338.38
1901.243	318.38
1905.499	318.38
1909.752	309.38
1914	291.38
1918.245	323.38
1922.485	322.38
1926.722	311.38
1930.954	306.38
1935.183	317.38
1939.408	323.38
1943.628	325.38
1947.845	314.38
1952.058	313.38
1956.267	301.38
1960.472	310.38
1964.673	300.38
1968.87	296.38
1973.063	291.38
1977.252	292.38
1981.438	281.38
1985.619	287.38
1989.797	271.38
1993.971	283.38
1998.14	279.38
2002.306	281.38
2006.469	287.38
2010.627	272.38
2014.781	270.38
2018.932	258.38
2023.078	290.38
2027.221	281.38
2031.36	265.38
2035.495	262.38
2039.627	269.38
2043.754	261.38
2047.878	248.38
2051.998	255.38
2056.114	251.38
2060.226	253.38
2064.334	260.38
2068.439	264.38
2072.54	269.38
2076.637	251.38
2080.73	251.38
2084.82	248.38
2088.906	254.38
2092.988	240.38
2097.066	255.38
2101.14	254.38
2105.211	248.38
2109.278	246.38
2113.342	238.38
2117.401	226.38
2121.457	234.38
2125.509	224.38
2129.558	237.38
2133.602	231.38
2137.643	226.38
2141.681	228.38
2145.714	231.38
2149.744	230.38
2153.77	221.38
2157.793	206.38
2161.812	188.38
2165.827	192.38
2169.838	219.38
2173.846	193.38
2177.851	199.38
2181.851	211.38
2185.848	203.38
2189.841	202.38
2193.831	194.38
2197.817	203.38
2201.799	193.38
2205.778	188.38
2209.753	177.38
2213.725	177.38
2217.693	183.38
2221.657	182.38
2225.618	191.38
2229.575	182.38
2233.529	184.38
2237.479	189.38
2241.425	176.38
2245.368	168.38
2249.307	175.38
2253.243	173.38
2257.175	174.38
2261.104	160.38
2265.029	166.38
2268.95	168.38
2272.868	153.38
2276.783	152.38
2280.694	151.38
2284.601	150.38
2288.505	153.38
2292.405	160.38
2296.302	134.38
2300.195	148.38
2304.085	124.38
2307.971	141.38
2311.854	119.38
2315.734	140.38
2319.609	135.38
2323.482	115.38
2327.351	124.38
2331.216	127.38
2335.078	132.38
2338.937	127.38
2342.792	125.38
2346.643	119.38
2350.492	136.38
2354.336	125.38
2358.178	121.38
2362.015	123.38
2365.85	119.38
2369.681	127.38
2373.508	125.38
2377.333	136.38
2381.153	131.38
2384.971	116.38
2388.785	121.38
2392.595	115.38
2396.402	115.38
2400.206	92.38
2404.007	107.38
2407.804	116.38
2411.597	120.38
2415.388	111.38
2419.174	107.38
2422.958	119.38
2426.738	104.38
2430.515	110.38
2434.289	100.38
2438.059	98.38
2441.825	102.38
2445.589	111.38
2449.349	90.38
2453.106	106.38
2456.859	110.38
2460.61	111.38
2464.356	91.38
2468.1	89.38
2471.84	96.38
2475.577	87.38
2479.311	92.38
2483.041	91.38
2486.768	102.38
2490.492	95.38
2494.213	96.38
2497.93	88.38
2501.644	78.38
2505.355	91.38
2509.062	86.38
2512.766	88.38
2516.467	86.38
2520.165	83.38
2523.859	70.38
2527.551	103.38
2531.239	75.38
2534.923	90.38
2538.605	77.38
2542.283	76.38
2545.958	84.38
2549.63	99.38
2553.299	90.38
2556.964	72.38
2560.626	76.38
2564.285	72.38
2567.941	68.38
2571.594	69.38
2575.243	80.38
2578.89	76.38
2582.533	72.38
2586.173	75.38
2589.809	81.38
2593.443	47.38
2597.073	72.38
2600.701	69.38
2604.325	66.38
2607.946	62.38
2611.564	79.38
2615.178	73.38
2618.79	68.38
2622.398	58.38
2626.004	77.38
2629.606	67.38
2633.205	52.38
2636.801	68.38
2640.394	63.38
2643.983	65.38
2647.57	63.38
2651.153	53.38
2654.734	63.38
2658.311	34.38
2661.885	52.38
2665.456	50.38
2669.025	52.38
2672.589	49.38
2676.151	70.38
2679.71	72.38
2683.266	53.38
2686.819	49.38
2690.368	57.38
2693.915	59.38
2697.458	52.38
2700.999	59.38
2704.536	54.38
2708.071	53.38
2711.602	55.38
2715.13	53.38
2718.656	34.38
2722.178	47.38
2725.697	32.38
2729.214	46.38
2732.727	48.38
2736.237	34.38
2739.744	35.38
2743.249	39.38
2746.75	50.38
2750.248	37.38
2753.743	43.38
2757.236	44.38
2760.725	48.38
2764.211	14.38
2767.695	42.38
2771.175	41.38
2774.652	44.38
2778.127	36.38
2781.598	38.38
2785.067	40.38
2788.532	32.38
2791.995	43.38
2795.455	33.38
2798.911	50.38
2802.365	34.38
2805.816	42.38
2809.264	49.38
2812.709	37.38
2816.151	43.38
2819.59	29.38
2823.026	39.38
2826.46	32.38
2829.89	50.38
2833.318	25.38
2836.742	36.38
2840.164	35.38
2843.583	37.38
2846.999	38.38
2850.412	41.38
2853.822	38.38
2857.229	47.38
2860.634	43.38
2864.035	28.38
2867.434	53.38
2870.83	45.38
2874.223	39.38
2877.613	41.38
2881	40.38
2884.385	40.38
2887.766	39.38
2891.145	39.38
2894.521	44.38
2897.894	37.38
2901.264	46.38
2904.631	44.38
2907.996	52.38
2911.358	57.38
2914.717	47.38
2918.073	42.38
2921.426	44.38
2924.777	30.38
2928.124	45.38
2931.469	59.38
2934.811	42.38
2938.15	64.38
2941.487	54.38
2944.821	70.38
2948.152	52.38
2951.48	59.38
2954.805	48.38
2958.128	68.38
2961.447	58.38
2964.765	71.38
2968.079	53.38
2971.39	58.38
2974.699	56.38
2978.005	62.38
2981.308	57.38
2984.609	53.38
2987.907	68.38
2991.202	72.38
2994.494	52.38
2997.784	58.38
3001.07	62.38
3004.355	59.38
3007.636	62.38
3010.915	60.38
3014.191	68.38
3017.464	73.38
3020.734	64.38
3024.002	76.38
3027.267	72.38
3030.53	71.38
3033.789	69.38
3037.046	66.38
3040.301	63.38
3043.552	74.38
3046.801	80.38
3050.048	84.38
3053.291	100.38
3056.532	84.38
3059.771	74.38
3063.006	95.38
3066.239	88.38
3069.469	96.38
3072.697	86.38
3075.922	86.38
3079.144	92.38
3082.364	118.38
3085.581	100.38
3088.795	123.38
3092.007	113.38
3095.216	132.38
3098.423	114.38
3101.627	93.38
3104.828	124.38
3108.026	114.38
3111.222	136.38
3114.416	142.38
3117.607	130.38
3120.795	141.38
3123.98	137.38
3127.163	134.38
3130.344	137.38
3133.521	139.38
3136.696	156.38
3139.869	152.38
3143.039	146.38
3146.206	165.38
3149.371	163.38
3152.533	159.38
3155.693	149.38
3158.85	168.38
3162.005	171.38
3165.157	163.38
3168.306	167.38
3171.453	186.38
3174.597	160.38
3177.739	155.38
3180.878	173.38
3184.014	173.38
3187.149	175.38
3190.28	176.38
3193.409	182.38
3196.536	175.38
3199.659	178.38
3202.781	183.38
3205.9	162.38
3209.016	178.38
3212.13	173.38
3215.241	178.38
3218.35	177.38
3221.456	166.38
3224.56	157.38
3227.661	158.38
3230.76	166.38
3233.856	151.38
3236.95	171.38
3240.041	159.38
3243.13	167.38
3246.216	162.38
3249.3	159.38
3252.382	157.38
3255.46	148.38
3258.537	102.38
3261.611	145.38
3264.682	153.38
3267.751	157.38
3270.818	144.38
3273.882	159.38
3276.943	152.38
3280.002	160.38
3283.059	134.38
3286.113	144.38
3289.165	135.38
3292.214	131.38
3295.261	150.38
3298.306	137.38
3301.348	141.38
3304.387	128.38
3307.425	138.38
3310.459	134.38
3313.492	140.38
3316.521	131.38
3319.549	138.38
3322.574	134.38
3325.597	129.38
3328.617	129.38
3331.635	120.38
3334.65	102.38
3337.663	130.38
3340.674	125.38
3343.682	124.38
3346.688	135.38
3349.691	117.38
3352.692	119.38
3355.691	122.38
3358.687	119.38
3361.681	117.38
3364.673	114.38
3367.662	116.38
3370.649	123.38
3373.633	105.38
3376.615	116.38
3379.595	97.38
3382.572	100.38
3385.547	97.38
3388.52	95.38
3391.49	93.38
3394.458	97.38
3397.424	112.38
3400.387	88.38
3403.348	94.38
3406.307	95.38
3409.263	94.38
3412.217	103.38
3415.168	95.38
3418.118	100.38
3421.065	83.38
3424.009	103.38
3426.951	86.38
3429.891	79.38
3432.829	86.38
3435.764	87.38
3438.697	77.38
3441.628	90.38
3444.557	70.38
3447.483	61.38
3450.407	78.38
3453.328	61.38
3456.247	63.38
3459.164	51.38
3462.079	74.38
3464.991	65.38
3467.902	60.38
3470.809	59.38
3473.715	62.38
3476.618	52.38
3479.519	53.38
3482.418	35.38
3485.315	39.38
3488.209	38.38
3491.101	36.38
3493.99	24.38
3496.878	30.38
3499.763	37.38
3502.646	36.38
3505.527	18.38
3508.405	25.38
3511.281	14.38
3514.155	21.38
3517.027	28.38
3519.897	14.38
3522.764	23.38
3525.629	-1.62
3528.492	15.38
3531.352	15.38
3534.211	10.38
3537.067	9.38
3539.921	6.38
3542.773	14.38
3545.622	1.38
3548.469	-3.62
3551.315	-6.62
3554.157	1.38
3556.998	-9.62
3559.837	-4.62
3562.673	-2.62
3565.507	-10.62
3568.339	-12.62
3571.169	-9.62
3573.996	-5.62
3576.822	-20.62
3579.645	-19.62
3582.466	-16.62
3585.285	-4.62
3588.101	-11.62
3590.916	-17.62
3593.728	-9.62
3596.538	-16.62
3599.346	-9.62
3602.152	-23.62
3604.956	-17.62
3607.757	-11.62
3610.556	-30.62
3613.354	-11.62
3616.149	-15.62
3618.942	-19.62
3621.732	-16.62
3624.521	-15.62
3627.307	-32.62
3630.092	-27.62
3632.874	-9.62
3635.654	-19.62
3638.432	-30.62
3641.208	-27.62
3643.982	-25.62
3646.753	-16.62
3649.523	-47.62
3652.29	-29.62
3655.055	-17.62
3657.818	-24.62
3660.579	-29.62
3663.338	-37.62
3666.095	-34.62
3668.849	-52.62
3671.602	-25.62
3674.352	-36.62
3677.101	-25.62
3679.847	-21.62
3682.591	-36.62
3685.333	-39.62
3688.073	-28.62
3690.811	-34.62
3693.547	-44.62
3696.281	-46.62
3699.013	-29.62
3701.742	-36.62
3704.47	-45.62
3707.195	-34.62
3709.919	-31.62
3712.64	-32.62
3715.359	-38.62
3718.076	-22.62
3720.792	-32.62
3723.505	-32.62
3726.216	-22.62
3728.925	-31.62
3731.632	-37.62
3734.336	-34.62
3737.039	-27.62
3739.74	-32.62
3742.439	-58.62
3745.136	-25.62
3747.83	-28.62
3750.523	-28.62
3753.213	-90.62
3755.902	-32.62
3758.589	-45.62
3761.273	-36.62
3763.956	-29.62
3766.636	-47.62
3769.315	-27.62
3771.991	-36.62
3774.665	-37.62
3777.338	-35.62
3780.008	-48.62
3782.677	-38.62
3785.343	-47.62
3788.007	-53.62
3790.67	-33.62
3793.33	-45.62
3795.989	-39.62
3798.645	-32.62
3801.299	-47.62
3803.952	-49.62
3806.602	-40.62
3809.251	-33.62
3811.897	-38.62
3814.542	-36.62
3817.184	-36.62
3819.825	-34.62
3822.463	-50.62
3825.1	-38.62
3827.735	-34.62
3830.367	-46.62
3832.998	-23.62
3835.627	-38.62
3838.253	-28.62
3840.878	-35.62
3843.501	-18.62
3846.122	-31.62
3848.741	-25.62
3851.358	-28.62
3853.973	-45.62
3856.586	-24.62
3859.197	-44.62
3861.806	-37.62
3864.414	-50.62
3867.019	-38.62
3869.622	-31.62
3872.224	-27.62
3874.823	-18.62
3877.421	-2.62
3880.016	9.38
3882.61	31.38
3885.202	36.38
3887.792	31.38
3890.38	2.38
3892.966	-24.62
3895.55	-42.62
3898.132	-27.62
3900.713	-26.62
3903.291	-36.62
3905.868	-41.62
3908.442	-34.62
3911.015	-36.62
3913.586	-41.62
3916.155	-40.62
3918.722	-40.62
3921.287	-40.62
3923.85	-52.62
3926.411	-44.62
3928.971	-41.62
3931.528	-36.62
3934.084	-40.62
3936.638	-48.62
3939.19	-29.62
3941.74	-34.62
3944.288	-35.62
3946.834	-36.62
3949.378	-28.62
3951.921	-41.62
3954.462	-41.62
3957	-36.62
3959.537	-22.62
3962.072	-36.62
3964.606	-46.62
3967.137	-34.62
3969.667	-38.62
3972.194	-27.62
3974.72	-37.62
3977.244	-53.62
3979.766	-41.62
3982.286	-40.62
3984.805	-32.62
3987.321	-28.62
3989.836	-31.62
3992.349	-39.62
3994.86	-31.62
3997.369	-43.62
3999.877	-39.62
4002.382	-33.62
4004.886	-27.62
4007.388	-33.62
4009.888	-25.62
4012.386	-29.62
4014.883	-30.62
4017.377	-34.62
4019.87	-36.62
4022.361	-41.62
4024.85	-31.62
4027.338	-35.62
4029.823	-39.62
4032.307	-39.62
4034.789	-30.62
4037.269	-34.62
4039.747	-48.62
4042.224	-27.62
4044.699	-36.62
4047.172	-40.62
4049.643	-25.62
4052.112	-62.62
4054.58	-34.62
4057.046	-45.62
4059.51	-36.62
4061.972	-33.62
4064.432	-53.62
4066.891	-21.62
4069.348	-34.62
4071.803	-32.62
4074.256	-40.62
4076.708	-27.62
4079.158	-33.62
4081.606	-27.62
4084.052	-35.62
4086.497	-30.62
4088.939	-30.62
4091.38	-37.62
4093.819	-26.62
4096.257	0.38
4098.693	-5.62
4101.127	-4.62
4103.559	1.38
4105.989	48.38
4108.418	52.38
4110.845	44.38
4113.27	51.38
4115.694	51.38
4118.115	37.38
4120.535	-33.62
4122.954	-28.62
4125.37	-24.62
4127.785	-34.62
4130.198	-23.62
4132.609	-31.62
4135.019	6.38
4137.427	2.38
4139.833	3.38
4142.237	-3.62
