Data from 2018-3-6_conc=3_n=9_RamanShift_05.txt Node
Date: Tue Mar 06 13:42:19 GMT+02:00 2018
User: LAB3
Spectrometer: QEPB0276
Trigger mode: 0
Integration Time (sec): 3.000000E1
Scans to average: 1
Electric dark correction enabled: true
Nonlinearity correction enabled: false
Boxcar width: 0
XAxis mode: Raman Shifts
Number of Pixels in Spectrum: 1044
>>>>>Begin Spectral Data<<<<<
160.701	100.38
166.742	130.38
172.777	197.38
178.805	396.38
184.826	915.38
190.841	1817.38
196.849	2909.38
202.85	3729.38
208.845	4035.38
214.833	4053.38
220.815	3983.38
226.789	4023.38
232.758	4047.38
238.719	4067.38
244.674	4011.38
250.623	4014.38
256.565	3995.38
262.5	3953.38
268.429	3929.38
274.351	3903.38
280.267	3937.38
286.176	3952.38
292.079	3970.38
297.975	3954.38
303.865	3972.38
309.748	3962.38
315.625	3967.38
321.495	3988.38
327.359	3987.38
333.217	3993.38
339.068	4025.38
344.912	4027.38
350.751	4049.38
356.583	4069.38
362.408	4086.38
368.227	4110.38
374.04	4132.38
379.847	4144.38
385.647	4184.38
391.44	4186.38
397.228	4206.38
403.009	4249.38
408.784	4242.38
414.553	4264.38
420.315	4257.38
426.071	4277.38
431.821	4276.38
437.565	4286.38
443.302	4285.38
449.033	4230.38
454.758	4213.38
460.477	4193.38
466.189	4136.38
471.896	4126.38
477.596	4077.38
483.29	4052.38
488.978	4053.38
494.66	4005.38
500.335	3921.38
506.005	3727.38
511.668	3575.38
517.325	3396.38
522.977	3267.38
528.622	3128.38
534.261	3089.38
539.894	3009.38
545.521	2967.38
551.141	2916.38
556.756	2902.38
562.365	2860.38
567.968	2841.38
573.565	2819.38
579.155	2811.38
584.74	2790.38
590.319	2803.38
595.892	2809.38
601.459	2794.38
607.02	2812.38
612.575	2752.38
618.124	2741.38
623.667	2673.38
629.204	2645.38
634.735	2613.38
640.261	2574.38
645.781	2562.38
651.294	2550.38
656.802	2541.38
662.304	2557.38
667.8	2566.38
673.29	2517.38
678.775	2529.38
684.254	2487.38
689.726	2488.38
695.193	2481.38
700.655	2485.38
706.11	2452.38
711.56	2451.38
717.004	2457.38
722.442	2384.38
727.874	2422.38
733.301	2406.38
738.722	2381.38
744.137	2409.38
749.547	2380.38
754.951	2381.38
760.349	2376.38
765.741	2401.38
771.128	2423.38
776.509	2469.38
781.885	2485.38
787.254	2520.38
792.618	2510.38
797.977	2531.38
803.33	2504.38
808.677	2467.38
814.019	2473.38
819.355	2463.38
824.686	2407.38
830.011	2391.38
835.33	2399.38
840.644	2396.38
845.952	2368.38
851.255	2346.38
856.552	2313.38
861.844	2289.38
867.13	2271.38
872.41	2257.38
877.686	2225.38
882.955	2209.38
888.219	2194.38
893.478	2151.38
898.731	2150.38
903.979	2124.38
909.221	2088.38
914.458	2100.38
919.69	2058.38
924.916	2096.38
930.136	2091.38
935.351	2075.38
940.561	2085.38
945.766	2077.38
950.965	2083.38
956.158	2026.38
961.347	2031.38
966.529	2007.38
971.707	1985.38
976.879	1965.38
982.046	1931.38
987.208	1908.38
992.364	1929.38
997.515	1931.38
1002.66	1964.38
1007.801	1952.38
1012.936	1986.38
1018.066	1952.38
1023.19	1989.38
1028.309	1999.38
1033.423	2019.38
1038.532	2010.38
1043.636	2000.38
1048.734	1968.38
1053.827	1956.38
1058.915	1941.38
1063.998	1927.38
1069.075	1914.38
1074.147	1916.38
1079.214	1897.38
1084.276	1936.38
1089.333	1927.38
1094.385	1932.38
1099.431	1904.38
1104.472	1921.38
1109.509	1889.38
1114.54	1872.38
1119.565	1848.38
1124.586	1820.38
1129.602	1814.38
1134.613	1775.38
1139.618	1769.38
1144.619	1764.38
1149.614	1772.38
1154.604	1785.38
1159.589	1782.38
1164.57	1815.38
1169.545	1824.38
1174.515	1811.38
1179.48	1804.38
1184.44	1798.38
1189.395	1790.38
1194.345	1744.38
1199.29	1767.38
1204.23	1752.38
1209.165	1714.38
1214.095	1767.38
1219.021	1757.38
1223.941	1766.38
1228.856	1760.38
1233.766	1779.38
1238.672	1782.38
1243.572	1776.38
1248.467	1775.38
1253.358	1723.38
1258.244	1694.38
1263.124	1696.38
1268	1670.38
1272.871	1614.38
1277.737	1623.38
1282.599	1604.38
1287.455	1607.38
1292.306	1609.38
1297.153	1592.38
1301.995	1622.38
1306.832	1605.38
1311.664	1635.38
1316.491	1637.38
1321.314	1618.38
1326.132	1598.38
1330.945	1589.38
1335.753	1568.38
1340.556	1547.38
1345.354	1508.38
1350.148	1497.38
1354.937	1484.38
1359.722	1471.38
1364.501	1456.38
1369.276	1449.38
1374.046	1455.38
1378.811	1434.38
1383.572	1446.38
1388.327	1442.38
1393.079	1421.38
1397.825	1414.38
1402.567	1419.38
1407.304	1381.38
1412.036	1383.38
1416.764	1381.38
1421.487	1362.38
1426.205	1376.38
1430.919	1382.38
1435.628	1391.38
1440.333	1387.38
1445.032	1401.38
1449.727	1405.38
1454.418	1420.38
1459.104	1425.38
1463.785	1368.38
1468.462	1399.38
1473.134	1366.38
1477.802	1329.38
1482.465	1303.38
1487.123	1299.38
1491.777	1274.38
1496.426	1271.38
1501.071	1307.38
1505.711	1291.38
1510.347	1317.38
1514.978	1331.38
1519.604	1326.38
1524.226	1313.38
1528.844	1301.38
1533.457	1296.38
1538.065	1309.38
1542.669	1279.38
1547.269	1278.38
1551.864	1274.38
1556.454	1258.38
1561.041	1254.38
1565.622	1263.38
1570.199	1271.38
1574.772	1273.38
1579.34	1307.38
1583.904	1290.38
1588.464	1312.38
1593.019	1321.38
1597.569	1296.38
1602.115	1304.38
1606.657	1292.38
1611.195	1300.38
1615.728	1296.38
1620.256	1268.38
1624.78	1258.38
1629.3	1270.38
1633.816	1262.38
1638.327	1305.38
1642.834	1278.38
1647.336	1286.38
1651.834	1316.38
1656.328	1302.38
1660.817	1304.38
1665.302	1275.38
1669.783	1260.38
1674.259	1251.38
1678.732	1231.38
1683.199	1209.38
1687.663	1153.38
1692.122	1147.38
1696.577	1129.38
1701.028	1121.38
1705.474	1092.38
1709.917	1070.38
1714.355	1066.38
1718.788	1064.38
1723.218	1044.38
1727.643	1007.38
1732.064	1011.38
1736.481	983.38
1740.893	983.38
1745.301	951.38
1749.705	924.38
1754.105	918.38
1758.501	899.38
1762.893	897.38
1767.28	856.38
1771.663	868.38
1776.042	848.38
1780.417	842.38
1784.787	854.38
1789.154	853.38
1793.516	864.38
1797.874	855.38
1802.228	841.38
1806.578	832.38
1810.924	839.38
1815.266	708.38
1819.603	826.38
1823.937	807.38
1828.266	803.38
1832.591	797.38
1836.913	799.38
1841.23	794.38
1845.543	782.38
1849.852	785.38
1854.156	790.38
1858.457	776.38
1862.754	779.38
1867.047	783.38
1871.335	784.38
1875.62	796.38
1879.9	798.38
1884.177	770.38
1888.449	777.38
1892.718	778.38
1896.982	784.38
1901.243	756.38
1905.499	760.38
1909.752	748.38
1914	741.38
1918.245	762.38
1922.485	763.38
1926.722	757.38
1930.954	750.38
1935.183	756.38
1939.408	763.38
1943.628	764.38
1947.845	751.38
1952.058	745.38
1956.267	738.38
1960.472	736.38
1964.673	720.38
1968.87	703.38
1973.063	687.38
1977.252	691.38
1981.438	683.38
1985.619	674.38
1989.797	664.38
1993.971	682.38
1998.14	672.38
2002.306	653.38
2006.469	662.38
2010.627	652.38
2014.781	647.38
2018.932	643.38
2023.078	660.38
2027.221	645.38
2031.36	631.38
2035.495	619.38
2039.627	624.38
2043.754	624.38
2047.878	614.38
2051.998	606.38
2056.114	601.38
2060.226	601.38
2064.334	607.38
2068.439	626.38
2072.54	623.38
2076.637	609.38
2080.73	607.38
2084.82	613.38
2088.906	604.38
2092.988	603.38
2097.066	621.38
2101.14	603.38
2105.211	608.38
2109.278	582.38
2113.342	578.38
2117.401	565.38
2121.457	560.38
2125.509	562.38
2129.558	561.38
2133.602	553.38
2137.643	547.38
2141.681	547.38
2145.714	542.38
2149.744	539.38
2153.77	547.38
2157.793	531.38
2161.812	500.38
2165.827	497.38
2169.838	525.38
2173.846	485.38
2177.851	487.38
2181.851	495.38
2185.848	476.38
2189.841	488.38
2193.831	464.38
2197.817	467.38
2201.799	467.38
2205.778	453.38
2209.753	446.38
2213.725	442.38
2217.693	455.38
2221.657	455.38
2225.618	459.38
2229.575	440.38
2233.529	445.38
2237.479	439.38
2241.425	429.38
2245.368	411.38
2249.307	427.38
2253.243	412.38
2257.175	412.38
2261.104	395.38
2265.029	404.38
2268.95	400.38
2272.868	385.38
2276.783	372.38
2280.694	378.38
2284.601	383.38
2288.505	374.38
2292.405	379.38
2296.302	352.38
2300.195	355.38
2304.085	327.38
2307.971	346.38
2311.854	318.38
2315.734	334.38
2319.609	341.38
2323.482	312.38
2327.351	317.38
2331.216	317.38
2335.078	322.38
2338.937	316.38
2342.792	311.38
2346.643	301.38
2350.492	315.38
2354.336	313.38
2358.178	317.38
2362.015	319.38
2365.85	313.38
2369.681	309.38
2373.508	315.38
2377.333	317.38
2381.153	315.38
2384.971	310.38
2388.785	315.38
2392.595	292.38
2396.402	293.38
2400.206	272.38
2404.007	291.38
2407.804	294.38
2411.597	293.38
2415.388	289.38
2419.174	282.38
2422.958	292.38
2426.738	284.38
2430.515	296.38
2434.289	281.38
2438.059	278.38
2441.825	279.38
2445.589	284.38
2449.349	265.38
2453.106	278.38
2456.859	272.38
2460.61	275.38
2464.356	252.38
2468.1	248.38
2471.84	248.38
2475.577	256.38
2479.311	254.38
2483.041	254.38
2486.768	266.38
2490.492	263.38
2494.213	262.38
2497.93	246.38
2501.644	237.38
2505.355	247.38
2509.062	244.38
2512.766	244.38
2516.467	248.38
2520.165	240.38
2523.859	231.38
2527.551	262.38
2531.239	231.38
2534.923	241.38
2538.605	236.38
2542.283	240.38
2545.958	239.38
2549.63	244.38
2553.299	239.38
2556.964	227.38
2560.626	231.38
2564.285	232.38
2567.941	216.38
2571.594	219.38
2575.243	237.38
2578.89	222.38
2582.533	214.38
2586.173	216.38
2589.809	213.38
2593.443	192.38
2597.073	208.38
2600.701	212.38
2604.325	202.38
2607.946	195.38
2611.564	210.38
2615.178	207.38
2618.79	205.38
2622.398	193.38
2626.004	203.38
2629.606	202.38
2633.205	188.38
2636.801	191.38
2640.394	200.38
2643.983	187.38
2647.57	186.38
2651.153	185.38
2654.734	185.38
2658.311	159.38
2661.885	174.38
2665.456	171.38
2669.025	169.38
2672.589	166.38
2676.151	187.38
2679.71	189.38
2683.266	165.38
2686.819	166.38
2690.368	167.38
2693.915	164.38
2697.458	163.38
2700.999	160.38
2704.536	165.38
2708.071	159.38
2711.602	154.38
2715.13	155.38
2718.656	146.38
2722.178	152.38
2725.697	138.38
2729.214	147.38
2732.727	160.38
2736.237	138.38
2739.744	147.38
2743.249	138.38
2746.75	147.38
2750.248	140.38
2753.743	145.38
2757.236	146.38
2760.725	150.38
2764.211	125.38
2767.695	145.38
2771.175	144.38
2774.652	146.38
2778.127	140.38
2781.598	132.38
2785.067	148.38
2788.532	129.38
2791.995	140.38
2795.455	131.38
2798.911	147.38
2802.365	134.38
2805.816	139.38
2809.264	152.38
2812.709	137.38
2816.151	145.38
2819.59	131.38
2823.026	143.38
2826.46	136.38
2829.89	148.38
2833.318	116.38
2836.742	135.38
2840.164	135.38
2843.583	144.38
2846.999	137.38
2850.412	151.38
2853.822	133.38
2857.229	157.38
2860.634	149.38
2864.035	127.38
2867.434	151.38
2870.83	160.38
2874.223	147.38
2877.613	155.38
2881	143.38
2884.385	150.38
2887.766	149.38
2891.145	160.38
2894.521	151.38
2897.894	139.38
2901.264	164.38
2904.631	155.38
2907.996	161.38
2911.358	161.38
2914.717	159.38
2918.073	154.38
2921.426	159.38
2924.777	138.38
2928.124	162.38
2931.469	171.38
2934.811	162.38
2938.15	179.38
2941.487	181.38
2944.821	189.38
2948.152	173.38
2951.48	181.38
2954.805	160.38
2958.128	184.38
2961.447	175.38
2964.765	190.38
2968.079	174.38
2971.39	175.38
2974.699	174.38
2978.005	195.38
2981.308	186.38
2984.609	173.38
2987.907	194.38
2991.202	193.38
2994.494	178.38
2997.784	189.38
3001.07	191.38
3004.355	191.38
3007.636	201.38
3010.915	196.38
3014.191	195.38
3017.464	204.38
3020.734	195.38
3024.002	199.38
3027.267	198.38
3030.53	198.38
3033.789	194.38
3037.046	209.38
3040.301	205.38
3043.552	220.38
3046.801	218.38
3050.048	226.38
3053.291	251.38
3056.532	232.38
3059.771	226.38
3063.006	243.38
3066.239	246.38
3069.469	267.38
3072.697	253.38
3075.922	260.38
3079.144	267.38
3082.364	290.38
3085.581	281.38
3088.795	304.38
3092.007	307.38
3095.216	299.38
3098.423	308.38
3101.627	287.38
3104.828	320.38
3108.026	320.38
3111.222	331.38
3114.416	345.38
3117.607	344.38
3120.795	353.38
3123.98	357.38
3127.163	350.38
3130.344	366.38
3133.521	366.38
3136.696	389.38
3139.869	398.38
3143.039	390.38
3146.206	420.38
3149.371	419.38
3152.533	405.38
3155.693	410.38
3158.85	431.38
3162.005	414.38
3165.157	423.38
3168.306	426.38
3171.453	429.38
3174.597	410.38
3177.739	415.38
3180.878	439.38
3184.014	436.38
3187.149	426.38
3190.28	438.38
3193.409	441.38
3196.536	447.38
3199.659	453.38
3202.781	453.38
3205.9	437.38
3209.016	444.38
3212.13	448.38
3215.241	426.38
3218.35	429.38
3221.456	428.38
3224.56	416.38
3227.661	425.38
3230.76	407.38
3233.856	407.38
3236.95	421.38
3240.041	393.38
3243.13	423.38
3246.216	407.38
3249.3	406.38
3252.382	400.38
3255.46	387.38
3258.537	350.38
3261.611	384.38
3264.682	391.38
3267.751	395.38
3270.818	377.38
3273.882	394.38
3276.943	383.38
3280.002	406.38
3283.059	381.38
3286.113	376.38
3289.165	362.38
3292.214	361.38
3295.261	386.38
3298.306	343.38
3301.348	357.38
3304.387	349.38
3307.425	353.38
3310.459	341.38
3313.492	350.38
3316.521	331.38
3319.549	338.38
3322.574	334.38
3325.597	325.38
3328.617	326.38
3331.635	319.38
3334.65	306.38
3337.663	329.38
3340.674	308.38
3343.682	315.38
3346.688	328.38
3349.691	304.38
3352.692	321.38
3355.691	324.38
3358.687	313.38
3361.681	314.38
3364.673	304.38
3367.662	308.38
3370.649	302.38
3373.633	304.38
3376.615	297.38
3379.595	279.38
3382.572	281.38
3385.547	271.38
3388.52	268.38
3391.49	273.38
3394.458	279.38
3397.424	273.38
3400.387	258.38
3403.348	269.38
3406.307	261.38
3409.263	258.38
3412.217	261.38
3415.168	249.38
3418.118	258.38
3421.065	249.38
3424.009	257.38
3426.951	235.38
3429.891	235.38
3432.829	232.38
3435.764	233.38
3438.697	219.38
3441.628	229.38
3444.557	199.38
3447.483	210.38
3450.407	213.38
3453.328	197.38
3456.247	193.38
3459.164	177.38
3462.079	190.38
3464.991	179.38
3467.902	174.38
3470.809	176.38
3473.715	168.38
3476.618	157.38
3479.519	163.38
3482.418	138.38
3485.315	137.38
3488.209	144.38
3491.101	138.38
3493.99	123.38
3496.878	128.38
3499.763	126.38
3502.646	127.38
3505.527	116.38
3508.405	116.38
3511.281	97.38
3514.155	103.38
3517.027	102.38
3519.897	90.38
3522.764	97.38
3525.629	68.38
3528.492	89.38
3531.352	80.38
3534.211	78.38
3537.067	66.38
3539.921	71.38
3542.773	75.38
3545.622	59.38
3548.469	51.38
3551.315	43.38
3554.157	50.38
3556.998	47.38
3559.837	46.38
3562.673	54.38
3565.507	33.38
3568.339	34.38
3571.169	37.38
3573.996	35.38
3576.822	12.38
3579.645	21.38
3582.466	30.38
3585.285	33.38
3588.101	29.38
3590.916	18.38
3593.728	28.38
3596.538	17.38
3599.346	19.38
3602.152	13.38
3604.956	17.38
3607.757	15.38
3610.556	0.38
3613.354	20.38
3616.149	13.38
3618.942	13.38
3621.732	10.38
3624.521	3.38
3627.307	-2.62
3630.092	0.38
3632.874	14.38
3635.654	6.38
3638.432	-3.62
3641.208	-3.62
3643.982	-2.62
3646.753	6.38
3649.523	-26.62
3652.29	-5.62
3655.055	-0.62
3657.818	-3.62
3660.579	-7.62
3663.338	-13.62
3666.095	-12.62
3668.849	-24.62
3671.602	-3.62
3674.352	-25.62
3677.101	-2.62
3679.847	-4.62
3682.591	-24.62
3685.333	-29.62
3688.073	-12.62
3690.811	-26.62
3693.547	-31.62
3696.281	-24.62
3699.013	-14.62
3701.742	-21.62
3704.47	-24.62
3707.195	-15.62
3709.919	-14.62
3712.64	-24.62
3715.359	-26.62
3718.076	-8.62
3720.792	-19.62
3723.505	-17.62
3726.216	-10.62
3728.925	-23.62
3731.632	-29.62
3734.336	-20.62
3737.039	-19.62
3739.74	-23.62
3742.439	-45.62
3745.136	-12.62
3747.83	-21.62
3750.523	-21.62
3753.213	-80.62
3755.902	-26.62
3758.589	-38.62
3761.273	-28.62
3763.956	-19.62
3766.636	-39.62
3769.315	-15.62
3771.991	-26.62
3774.665	-32.62
3777.338	-27.62
3780.008	-37.62
3782.677	-29.62
3785.343	-45.62
3788.007	-42.62
3790.67	-24.62
3793.33	-36.62
3795.989	-33.62
3798.645	-22.62
3801.299	-38.62
3803.952	-34.62
3806.602	-28.62
3809.251	-24.62
3811.897	-26.62
3814.542	-32.62
3817.184	-31.62
3819.825	-31.62
3822.463	-42.62
3825.1	-33.62
3827.735	-30.62
3830.367	-39.62
3832.998	-17.62
3835.627	-31.62
3838.253	-22.62
3840.878	-35.62
3843.501	-19.62
3846.122	-27.62
3848.741	-25.62
3851.358	-24.62
3853.973	-41.62
3856.586	-16.62
3859.197	-37.62
3861.806	-27.62
3864.414	-38.62
3867.019	-30.62
3869.622	-29.62
3872.224	-18.62
3874.823	-14.62
3877.421	7.38
3880.016	19.38
3882.61	42.38
3885.202	59.38
3887.792	42.38
3890.38	18.38
3892.966	-14.62
3895.55	-34.62
3898.132	-19.62
3900.713	-18.62
3903.291	-23.62
3905.868	-36.62
3908.442	-30.62
3911.015	-29.62
3913.586	-36.62
3916.155	-31.62
3918.722	-41.62
3921.287	-36.62
3923.85	-46.62
3926.411	-38.62
3928.971	-38.62
3931.528	-30.62
3934.084	-34.62
3936.638	-41.62
3939.19	-28.62
3941.74	-29.62
3944.288	-36.62
3946.834	-31.62
3949.378	-22.62
3951.921	-38.62
3954.462	-34.62
3957	-32.62
3959.537	-18.62
3962.072	-34.62
3964.606	-48.62
3967.137	-31.62
3969.667	-37.62
3972.194	-28.62
3974.72	-37.62
3977.244	-56.62
3979.766	-39.62
3982.286	-41.62
3984.805	-28.62
3987.321	-27.62
3989.836	-25.62
3992.349	-40.62
3994.86	-32.62
3997.369	-37.62
3999.877	-32.62
4002.382	-35.62
4004.886	-23.62
4007.388	-29.62
4009.888	-16.62
4012.386	-25.62
4014.883	-31.62
4017.377	-31.62
4019.87	-28.62
4022.361	-40.62
4024.85	-29.62
4027.338	-31.62
4029.823	-36.62
4032.307	-34.62
4034.789	-35.62
4037.269	-28.62
4039.747	-45.62
4042.224	-24.62
4044.699	-35.62
4047.172	-33.62
4049.643	-23.62
4052.112	-58.62
4054.58	-30.62
4057.046	-44.62
4059.51	-31.62
4061.972	-29.62
4064.432	-47.62
4066.891	-20.62
4069.348	-31.62
4071.803	-27.62
4074.256	-36.62
4076.708	-26.62
4079.158	-32.62
4081.606	-24.62
4084.052	-32.62
4086.497	-27.62
4088.939	-28.62
4091.38	-34.62
4093.819	-21.62
4096.257	1.38
4098.693	-2.62
4101.127	-5.62
4103.559	2.38
4105.989	97.38
4108.418	95.38
4110.845	81.38
4113.27	79.38
4115.694	102.38
4118.115	83.38
4120.535	-27.62
4122.954	-27.62
4125.37	-19.62
4127.785	-26.62
4130.198	-24.62
4132.609	-28.62
4135.019	8.38
4137.427	-2.62
4139.833	5.38
4142.237	-6.62
