Data from 2018-3-6_conc=4_n=2_RamanShift_02.txt Node
Date: Tue Mar 06 13:53:49 GMT+02:00 2018
User: LAB3
Spectrometer: QEPB0276
Trigger mode: 0
Integration Time (sec): 3.000000E1
Scans to average: 1
Electric dark correction enabled: true
Nonlinearity correction enabled: false
Boxcar width: 0
XAxis mode: Raman Shifts
Number of Pixels in Spectrum: 1044
>>>>>Begin Spectral Data<<<<<
160.701	127.38
166.742	159.38
172.777	221.38
178.805	424.38
184.826	966.38
190.841	1910.38
196.849	3024.38
202.85	3867.38
208.845	4147.38
214.833	4159.38
220.815	4092.38
226.789	4121.38
232.758	4127.38
238.719	4112.38
244.674	4119.38
250.623	4089.38
256.565	4036.38
262.5	4038.38
268.429	3992.38
274.351	3962.38
280.267	3964.38
286.176	3973.38
292.079	4005.38
297.975	3981.38
303.865	3987.38
309.748	3978.38
315.625	4020.38
321.495	4019.38
327.359	3996.38
333.217	4014.38
339.068	4040.38
344.912	4026.38
350.751	4051.38
356.583	4076.38
362.408	4103.38
368.227	4114.38
374.04	4140.38
379.847	4164.38
385.647	4193.38
391.44	4204.38
397.228	4229.38
403.009	4271.38
408.784	4256.38
414.553	4291.38
420.315	4311.38
426.071	4294.38
431.821	4289.38
437.565	4290.38
443.302	4280.38
449.033	4237.38
454.758	4232.38
460.477	4209.38
466.189	4162.38
471.896	4110.38
477.596	4091.38
483.29	4065.38
488.978	4060.38
494.66	4020.38
500.335	3946.38
506.005	3753.38
511.668	3564.38
517.325	3380.38
522.977	3251.38
528.622	3141.38
534.261	3084.38
539.894	2998.38
545.521	2974.38
551.141	2917.38
556.756	2892.38
562.365	2898.38
567.968	2868.38
573.565	2833.38
579.155	2815.38
584.74	2773.38
590.319	2769.38
595.892	2780.38
601.459	2783.38
607.02	2761.38
612.575	2759.38
618.124	2726.38
623.667	2659.38
629.204	2623.38
634.735	2596.38
640.261	2575.38
645.781	2539.38
651.294	2537.38
656.802	2525.38
662.304	2542.38
667.8	2544.38
673.29	2530.38
678.775	2499.38
684.254	2472.38
689.726	2469.38
695.193	2468.38
700.655	2466.38
706.11	2425.38
711.56	2445.38
717.004	2407.38
722.442	2396.38
727.874	2403.38
733.301	2404.38
738.722	2363.38
744.137	2365.38
749.547	2376.38
754.951	2354.38
760.349	2357.38
765.741	2376.38
771.128	2400.38
776.509	2433.38
781.885	2487.38
787.254	2508.38
792.618	2482.38
797.977	2522.38
803.33	2473.38
808.677	2444.38
814.019	2425.38
819.355	2398.38
824.686	2381.38
830.011	2367.38
835.33	2381.38
840.644	2347.38
845.952	2315.38
851.255	2337.38
856.552	2290.38
861.844	2271.38
867.13	2244.38
872.41	2218.38
877.686	2228.38
882.955	2199.38
888.219	2163.38
893.478	2128.38
898.731	2111.38
903.979	2092.38
909.221	2063.38
914.458	2052.38
919.69	2052.38
924.916	2032.38
930.136	2065.38
935.351	2044.38
940.561	2058.38
945.766	2057.38
950.965	2064.38
956.158	2026.38
961.347	1996.38
966.529	1985.38
971.707	1970.38
976.879	1937.38
982.046	1927.38
987.208	1886.38
992.364	1903.38
997.515	1914.38
1002.66	1925.38
1007.801	1938.38
1012.936	1954.38
1018.066	1936.38
1023.19	1966.38
1028.309	1983.38
1033.423	1955.38
1038.532	1987.38
1043.636	1955.38
1048.734	1940.38
1053.827	1932.38
1058.915	1895.38
1063.998	1908.38
1069.075	1874.38
1074.147	1889.38
1079.214	1851.38
1084.276	1910.38
1089.333	1892.38
1094.385	1908.38
1099.431	1886.38
1104.472	1876.38
1109.509	1876.38
1114.54	1844.38
1119.565	1809.38
1124.586	1792.38
1129.602	1769.38
1134.613	1734.38
1139.618	1730.38
1144.619	1740.38
1149.614	1739.38
1154.604	1749.38
1159.589	1733.38
1164.57	1780.38
1169.545	1792.38
1174.515	1781.38
1179.48	1773.38
1184.44	1759.38
1189.395	1757.38
1194.345	1701.38
1199.29	1724.38
1204.23	1694.38
1209.165	1696.38
1214.095	1732.38
1219.021	1725.38
1223.941	1715.38
1228.856	1741.38
1233.766	1739.38
1238.672	1735.38
1243.572	1733.38
1248.467	1719.38
1253.358	1685.38
1258.244	1671.38
1263.124	1634.38
1268	1625.38
1272.871	1594.38
1277.737	1585.38
1282.599	1562.38
1287.455	1555.38
1292.306	1579.38
1297.153	1554.38
1301.995	1588.38
1306.832	1577.38
1311.664	1606.38
1316.491	1591.38
1321.314	1584.38
1326.132	1564.38
1330.945	1554.38
1335.753	1527.38
1340.556	1500.38
1345.354	1479.38
1350.148	1462.38
1354.937	1452.38
1359.722	1402.38
1364.501	1422.38
1369.276	1412.38
1374.046	1426.38
1378.811	1381.38
1383.572	1417.38
1388.327	1404.38
1393.079	1381.38
1397.825	1384.38
1402.567	1357.38
1407.304	1356.38
1412.036	1351.38
1416.764	1344.38
1421.487	1339.38
1426.205	1353.38
1430.919	1339.38
1435.628	1348.38
1440.333	1344.38
1445.032	1363.38
1449.727	1372.38
1454.418	1373.38
1459.104	1376.38
1463.785	1335.38
1468.462	1325.38
1473.134	1311.38
1477.802	1297.38
1482.465	1260.38
1487.123	1269.38
1491.777	1231.38
1496.426	1238.38
1501.071	1257.38
1505.711	1241.38
1510.347	1266.38
1514.978	1261.38
1519.604	1266.38
1524.226	1264.38
1528.844	1244.38
1533.457	1259.38
1538.065	1238.38
1542.669	1226.38
1547.269	1216.38
1551.864	1234.38
1556.454	1201.38
1561.041	1206.38
1565.622	1211.38
1570.199	1225.38
1574.772	1230.38
1579.34	1253.38
1583.904	1270.38
1588.464	1272.38
1593.019	1279.38
1597.569	1252.38
1602.115	1250.38
1606.657	1249.38
1611.195	1264.38
1615.728	1265.38
1620.256	1239.38
1624.78	1221.38
1629.3	1235.38
1633.816	1247.38
1638.327	1249.38
1642.834	1275.38
1647.336	1257.38
1651.834	1265.38
1656.328	1268.38
1660.817	1247.38
1665.302	1248.38
1669.783	1215.38
1674.259	1206.38
1678.732	1189.38
1683.199	1165.38
1687.663	1121.38
1692.122	1092.38
1696.577	1084.38
1701.028	1059.38
1705.474	1033.38
1709.917	1006.38
1714.355	1003.38
1718.788	1000.38
1723.218	982.38
1727.643	958.38
1732.064	955.38
1736.481	934.38
1740.893	923.38
1745.301	898.38
1749.705	872.38
1754.105	867.38
1758.501	848.38
1762.893	851.38
1767.28	821.38
1771.663	820.38
1776.042	814.38
1780.417	798.38
1784.787	820.38
1789.154	810.38
1793.516	823.38
1797.874	794.38
1802.228	794.38
1806.578	792.38
1810.924	798.38
1815.266	671.38
1819.603	784.38
1823.937	765.38
1828.266	763.38
1832.591	762.38
1836.913	758.38
1841.23	745.38
1845.543	741.38
1849.852	738.38
1854.156	741.38
1858.457	742.38
1862.754	735.38
1867.047	728.38
1871.335	758.38
1875.62	746.38
1879.9	749.38
1884.177	735.38
1888.449	735.38
1892.718	730.38
1896.982	732.38
1901.243	719.38
1905.499	710.38
1909.752	699.38
1914	707.38
1918.245	719.38
1922.485	725.38
1926.722	711.38
1930.954	716.38
1935.183	719.38
1939.408	724.38
1943.628	715.38
1947.845	705.38
1952.058	714.38
1956.267	688.38
1960.472	697.38
1964.673	677.38
1968.87	663.38
1973.063	664.38
1977.252	655.38
1981.438	644.38
1985.619	648.38
1989.797	614.38
1993.971	628.38
1998.14	642.38
2002.306	637.38
2006.469	625.38
2010.627	613.38
2014.781	610.38
2018.932	600.38
2023.078	623.38
2027.221	617.38
2031.36	590.38
2035.495	586.38
2039.627	590.38
2043.754	594.38
2047.878	572.38
2051.998	570.38
2056.114	568.38
2060.226	568.38
2064.334	596.38
2068.439	589.38
2072.54	583.38
2076.637	569.38
2080.73	574.38
2084.82	566.38
2088.906	579.38
2092.988	569.38
2097.066	574.38
2101.14	577.38
2105.211	567.38
2109.278	557.38
2113.342	544.38
2117.401	534.38
2121.457	530.38
2125.509	524.38
2129.558	525.38
2133.602	530.38
2137.643	530.38
2141.681	510.38
2145.714	515.38
2149.744	511.38
2153.77	519.38
2157.793	493.38
2161.812	470.38
2165.827	462.38
2169.838	497.38
2173.846	464.38
2177.851	451.38
2181.851	481.38
2185.848	457.38
2189.841	461.38
2193.831	445.38
2197.817	439.38
2201.799	436.38
2205.778	432.38
2209.753	428.38
2213.725	413.38
2217.693	429.38
2221.657	417.38
2225.618	422.38
2229.575	423.38
2233.529	421.38
2237.479	418.38
2241.425	405.38
2245.368	391.38
2249.307	398.38
2253.243	389.38
2257.175	396.38
2261.104	371.38
2265.029	384.38
2268.95	371.38
2272.868	366.38
2276.783	349.38
2280.694	363.38
2284.601	358.38
2288.505	348.38
2292.405	351.38
2296.302	338.38
2300.195	336.38
2304.085	308.38
2307.971	338.38
2311.854	308.38
2315.734	313.38
2319.609	321.38
2323.482	288.38
2327.351	298.38
2331.216	301.38
2335.078	315.38
2338.937	308.38
2342.792	290.38
2346.643	288.38
2350.492	303.38
2354.336	287.38
2358.178	309.38
2362.015	295.38
2365.85	293.38
2369.681	298.38
2373.508	293.38
2377.333	291.38
2381.153	299.38
2384.971	287.38
2388.785	301.38
2392.595	283.38
2396.402	283.38
2400.206	266.38
2404.007	275.38
2407.804	277.38
2411.597	281.38
2415.388	276.38
2419.174	275.38
2422.958	274.38
2426.738	269.38
2430.515	272.38
2434.289	259.38
2438.059	260.38
2441.825	264.38
2445.589	267.38
2449.349	252.38
2453.106	256.38
2456.859	256.38
2460.61	256.38
2464.356	243.38
2468.1	240.38
2471.84	241.38
2475.577	237.38
2479.311	234.38
2483.041	232.38
2486.768	250.38
2490.492	242.38
2494.213	238.38
2497.93	225.38
2501.644	224.38
2505.355	241.38
2509.062	235.38
2512.766	231.38
2516.467	216.38
2520.165	221.38
2523.859	208.38
2527.551	239.38
2531.239	203.38
2534.923	216.38
2538.605	211.38
2542.283	219.38
2545.958	217.38
2549.63	231.38
2553.299	224.38
2556.964	208.38
2560.626	208.38
2564.285	216.38
2567.941	200.38
2571.594	202.38
2575.243	212.38
2578.89	206.38
2582.533	204.38
2586.173	203.38
2589.809	205.38
2593.443	173.38
2597.073	193.38
2600.701	196.38
2604.325	189.38
2607.946	178.38
2611.564	193.38
2615.178	193.38
2618.79	189.38
2622.398	177.38
2626.004	193.38
2629.606	180.38
2633.205	166.38
2636.801	178.38
2640.394	186.38
2643.983	177.38
2647.57	170.38
2651.153	159.38
2654.734	177.38
2658.311	146.38
2661.885	150.38
2665.456	153.38
2669.025	158.38
2672.589	152.38
2676.151	177.38
2679.71	170.38
2683.266	157.38
2686.819	143.38
2690.368	153.38
2693.915	161.38
2697.458	153.38
2700.999	148.38
2704.536	149.38
2708.071	151.38
2711.602	142.38
2715.13	142.38
2718.656	125.38
2722.178	141.38
2725.697	126.38
2729.214	134.38
2732.727	134.38
2736.237	134.38
2739.744	133.38
2743.249	127.38
2746.75	130.38
2750.248	131.38
2753.743	135.38
2757.236	139.38
2760.725	132.38
2764.211	112.38
2767.695	135.38
2771.175	127.38
2774.652	134.38
2778.127	121.38
2781.598	131.38
2785.067	137.38
2788.532	125.38
2791.995	130.38
2795.455	121.38
2798.911	135.38
2802.365	125.38
2805.816	128.38
2809.264	143.38
2812.709	126.38
2816.151	143.38
2819.59	122.38
2823.026	120.38
2826.46	126.38
2829.89	137.38
2833.318	106.38
2836.742	128.38
2840.164	134.38
2843.583	130.38
2846.999	126.38
2850.412	130.38
2853.822	130.38
2857.229	138.38
2860.634	135.38
2864.035	125.38
2867.434	145.38
2870.83	151.38
2874.223	143.38
2877.613	149.38
2881	128.38
2884.385	148.38
2887.766	141.38
2891.145	150.38
2894.521	136.38
2897.894	136.38
2901.264	149.38
2904.631	149.38
2907.996	148.38
2911.358	156.38
2914.717	156.38
2918.073	149.38
2921.426	140.38
2924.777	138.38
2928.124	151.38
2931.469	166.38
2934.811	156.38
2938.15	176.38
2941.487	163.38
2944.821	183.38
2948.152	173.38
2951.48	174.38
2954.805	147.38
2958.128	187.38
2961.447	167.38
2964.765	182.38
2968.079	166.38
2971.39	169.38
2974.699	172.38
2978.005	173.38
2981.308	172.38
2984.609	170.38
2987.907	181.38
2991.202	187.38
2994.494	175.38
2997.784	184.38
3001.07	186.38
3004.355	178.38
3007.636	198.38
3010.915	188.38
3014.191	191.38
3017.464	190.38
3020.734	192.38
3024.002	197.38
3027.267	197.38
3030.53	202.38
3033.789	193.38
3037.046	205.38
3040.301	196.38
3043.552	210.38
3046.801	215.38
3050.048	234.38
3053.291	246.38
3056.532	242.38
3059.771	227.38
3063.006	246.38
3066.239	242.38
3069.469	263.38
3072.697	255.38
3075.922	255.38
3079.144	261.38
3082.364	292.38
3085.581	276.38
3088.795	307.38
3092.007	304.38
3095.216	305.38
3098.423	294.38
3101.627	294.38
3104.828	322.38
3108.026	313.38
3111.222	340.38
3114.416	349.38
3117.607	344.38
3120.795	347.38
3123.98	358.38
3127.163	354.38
3130.344	357.38
3133.521	361.38
3136.696	393.38
3139.869	392.38
3143.039	379.38
3146.206	418.38
3149.371	420.38
3152.533	412.38
3155.693	409.38
3158.85	418.38
3162.005	421.38
3165.157	420.38
3168.306	420.38
3171.453	434.38
3174.597	418.38
3177.739	410.38
3180.878	424.38
3184.014	436.38
3187.149	433.38
3190.28	435.38
3193.409	440.38
3196.536	441.38
3199.659	459.38
3202.781	444.38
3205.9	422.38
3209.016	437.38
3212.13	431.38
3215.241	438.38
3218.35	429.38
3221.456	422.38
3224.56	406.38
3227.661	426.38
3230.76	413.38
3233.856	412.38
3236.95	411.38
3240.041	397.38
3243.13	404.38
3246.216	400.38
3249.3	414.38
3252.382	396.38
3255.46	383.38
3258.537	346.38
3261.611	391.38
3264.682	391.38
3267.751	388.38
3270.818	386.38
3273.882	390.38
3276.943	390.38
3280.002	397.38
3283.059	373.38
3286.113	379.38
3289.165	363.38
3292.214	370.38
3295.261	375.38
3298.306	344.38
3301.348	356.38
3304.387	338.38
3307.425	357.38
3310.459	347.38
3313.492	356.38
3316.521	336.38
3319.549	342.38
3322.574	342.38
3325.597	334.38
3328.617	320.38
3331.635	328.38
3334.65	316.38
3337.663	330.38
3340.674	327.38
3343.682	319.38
3346.688	325.38
3349.691	318.38
3352.692	321.38
3355.691	329.38
3358.687	313.38
3361.681	319.38
3364.673	306.38
3367.662	313.38
3370.649	311.38
3373.633	301.38
3376.615	301.38
3379.595	288.38
3382.572	290.38
3385.547	269.38
3388.52	273.38
3391.49	269.38
3394.458	274.38
3397.424	273.38
3400.387	255.38
3403.348	265.38
3406.307	263.38
3409.263	271.38
3412.217	264.38
3415.168	265.38
3418.118	270.38
3421.065	256.38
3424.009	253.38
3426.951	243.38
3429.891	241.38
3432.829	235.38
3435.764	235.38
3438.697	219.38
3441.628	236.38
3444.557	212.38
3447.483	206.38
3450.407	218.38
3453.328	195.38
3456.247	193.38
3459.164	183.38
3462.079	200.38
3464.991	181.38
3467.902	180.38
3470.809	175.38
3473.715	178.38
3476.618	158.38
3479.519	163.38
3482.418	138.38
3485.315	149.38
3488.209	144.38
3491.101	139.38
3493.99	126.38
3496.878	131.38
3499.763	135.38
3502.646	127.38
3505.527	121.38
3508.405	114.38
3511.281	103.38
3514.155	117.38
3517.027	106.38
3519.897	92.38
3522.764	103.38
3525.629	77.38
3528.492	92.38
3531.352	95.38
3534.211	80.38
3537.067	75.38
3539.921	78.38
3542.773	81.38
3545.622	65.38
3548.469	52.38
3551.315	57.38
3554.157	53.38
3556.998	48.38
3559.837	49.38
3562.673	54.38
3565.507	41.38
3568.339	34.38
3571.169	43.38
3573.996	37.38
3576.822	26.38
3579.645	29.38
3582.466	31.38
3585.285	37.38
3588.101	26.38
3590.916	25.38
3593.728	32.38
3596.538	29.38
3599.346	23.38
3602.152	13.38
3604.956	17.38
3607.757	26.38
3610.556	7.38
3613.354	22.38
3616.149	14.38
3618.942	15.38
3621.732	16.38
3624.521	0.38
3627.307	1.38
3630.092	1.38
3632.874	18.38
3635.654	8.38
3638.432	-2.62
3641.208	-3.62
3643.982	2.38
3646.753	10.38
3649.523	-23.62
3652.29	-3.62
3655.055	1.38
3657.818	2.38
3660.579	-11.62
3663.338	-17.62
3666.095	-14.62
3668.849	-39.62
3671.602	0.38
3674.352	-26.62
3677.101	1.38
3679.847	-3.62
3682.591	-20.62
3685.333	-21.62
3688.073	-14.62
3690.811	-27.62
3693.547	-32.62
3696.281	-31.62
3699.013	-15.62
3701.742	-21.62
3704.47	-28.62
3707.195	-12.62
3709.919	-22.62
3712.64	-18.62
3715.359	-35.62
3718.076	-7.62
3720.792	-23.62
3723.505	-15.62
3726.216	-11.62
3728.925	-24.62
3731.632	-30.62
3734.336	-25.62
3737.039	-19.62
3739.74	-21.62
3742.439	-44.62
3745.136	-13.62
3747.83	-21.62
3750.523	-20.62
3753.213	-77.62
3755.902	-23.62
3758.589	-39.62
3761.273	-25.62
3763.956	-16.62
3766.636	-40.62
3769.315	-14.62
3771.991	-27.62
3774.665	-32.62
3777.338	-25.62
3780.008	-29.62
3782.677	-25.62
3785.343	-39.62
3788.007	-47.62
3790.67	-23.62
3793.33	-37.62
3795.989	-30.62
3798.645	-24.62
3801.299	-39.62
3803.952	-34.62
3806.602	-29.62
3809.251	-23.62
3811.897	-27.62
3814.542	-34.62
3817.184	-31.62
3819.825	-29.62
3822.463	-41.62
3825.1	-33.62
3827.735	-31.62
3830.367	-42.62
3832.998	-18.62
3835.627	-31.62
3838.253	-23.62
3840.878	-32.62
3843.501	-14.62
3846.122	-22.62
3848.741	-25.62
3851.358	-20.62
3853.973	-41.62
3856.586	-15.62
3859.197	-34.62
3861.806	-23.62
3864.414	-42.62
3867.019	-28.62
3869.622	-15.62
3872.224	-14.62
3874.823	2.38
3877.421	34.38
3880.016	55.38
3882.61	96.38
3885.202	104.38
3887.792	72.38
3890.38	36.38
3892.966	-1.62
3895.55	-27.62
3898.132	-22.62
3900.713	-18.62
3903.291	-28.62
3905.868	-35.62
3908.442	-30.62
3911.015	-27.62
3913.586	-31.62
3916.155	-28.62
3918.722	-38.62
3921.287	-33.62
3923.85	-40.62
3926.411	-31.62
3928.971	-38.62
3931.528	-24.62
3934.084	-30.62
3936.638	-44.62
3939.19	-26.62
3941.74	-27.62
3944.288	-36.62
3946.834	-34.62
3949.378	-25.62
3951.921	-34.62
3954.462	-27.62
3957	-24.62
3959.537	-16.62
3962.072	-31.62
3964.606	-46.62
3967.137	-31.62
3969.667	-34.62
3972.194	-24.62
3974.72	-33.62
3977.244	-49.62
3979.766	-39.62
3982.286	-37.62
3984.805	-25.62
3987.321	-16.62
3989.836	-22.62
3992.349	-35.62
3994.86	-30.62
3997.369	-33.62
3999.877	-33.62
4002.382	-32.62
4004.886	-23.62
4007.388	-28.62
4009.888	-17.62
4012.386	-23.62
4014.883	-24.62
4017.377	-27.62
4019.87	-22.62
4022.361	-39.62
4024.85	-28.62
4027.338	-28.62
4029.823	-35.62
4032.307	-27.62
4034.789	-29.62
4037.269	-27.62
4039.747	-40.62
4042.224	-17.62
4044.699	-34.62
4047.172	-32.62
4049.643	-19.62
4052.112	-51.62
4054.58	-26.62
4057.046	-40.62
4059.51	-27.62
4061.972	-27.62
4064.432	-45.62
4066.891	-18.62
4069.348	-28.62
4071.803	-25.62
4074.256	-32.62
4076.708	-20.62
4079.158	-28.62
4081.606	-14.62
4084.052	-33.62
4086.497	-18.62
4088.939	-27.62
4091.38	-30.62
4093.819	-20.62
4096.257	-3.62
4098.693	-7.62
4101.127	-4.62
4103.559	1.38
4105.989	128.38
4108.418	129.38
4110.845	115.38
4113.27	121.38
4115.694	126.38
4118.115	114.38
4120.535	-23.62
4122.954	-22.62
4125.37	-15.62
4127.785	-24.62
4130.198	-16.62
4132.609	-24.62
4135.019	10.38
4137.427	2.38
4139.833	5.38
4142.237	-3.62
