Data from 2018-3-6_conc=0_n=6_RamanShift_05.txt Node
Date: Tue Mar 06 12:25:49 GMT+02:00 2018
User: LAB3
Spectrometer: QEPB0276
Trigger mode: 0
Integration Time (sec): 3.000000E1
Scans to average: 1
Electric dark correction enabled: true
Nonlinearity correction enabled: false
Boxcar width: 0
XAxis mode: Raman Shifts
Number of Pixels in Spectrum: 1044
>>>>>Begin Spectral Data<<<<<
160.701	175.38
166.742	216.38
172.777	347.38
178.805	696.38
184.826	1596.38
190.841	3209.38
196.849	5113.38
202.85	6579.38
208.845	7159.38
214.833	7165.38
220.815	7109.38
226.789	7118.38
232.758	7170.38
238.719	7181.38
244.674	7194.38
250.623	7179.38
256.565	7113.38
262.5	7021.38
268.429	7053.38
274.351	6979.38
280.267	6993.38
286.176	6999.38
292.079	7056.38
297.975	7044.38
303.865	7057.38
309.748	7092.38
315.625	7083.38
321.495	7092.38
327.359	7099.38
333.217	7122.38
339.068	7172.38
344.912	7225.38
350.751	7229.38
356.583	7258.38
362.408	7243.38
368.227	7322.38
374.04	7331.38
379.847	7392.38
385.647	7461.38
391.44	7450.38
397.228	7506.38
403.009	7561.38
408.784	7616.38
414.553	7586.38
420.315	7692.38
426.071	7641.38
431.821	7673.38
437.565	7684.38
443.302	7675.38
449.033	7594.38
454.758	7544.38
460.477	7509.38
466.189	7478.38
471.896	7381.38
477.596	7320.38
483.29	7272.38
488.978	7227.38
494.66	7169.38
500.335	7001.38
506.005	6710.38
511.668	6413.38
517.325	6155.38
522.977	5869.38
528.622	5693.38
534.261	5532.38
539.894	5488.38
545.521	5397.38
551.141	5321.38
556.756	5294.38
562.365	5241.38
567.968	5215.38
573.565	5123.38
579.155	5129.38
584.74	5084.38
590.319	5100.38
595.892	5073.38
601.459	5081.38
607.02	5060.38
612.575	5024.38
618.124	4987.38
623.667	4907.38
629.204	4820.38
634.735	4786.38
640.261	4719.38
645.781	4656.38
651.294	4648.38
656.802	4648.38
662.304	4626.38
667.8	4616.38
673.29	4584.38
678.775	4577.38
684.254	4573.38
689.726	4518.38
695.193	4533.38
700.655	4521.38
706.11	4445.38
711.56	4463.38
717.004	4448.38
722.442	4389.38
727.874	4419.38
733.301	4391.38
738.722	4343.38
744.137	4329.38
749.547	4330.38
754.951	4328.38
760.349	4340.38
765.741	4387.38
771.128	4374.38
776.509	4463.38
781.885	4514.38
787.254	4557.38
792.618	4585.38
797.977	4536.38
803.33	4524.38
808.677	4477.38
814.019	4473.38
819.355	4420.38
824.686	4379.38
830.011	4334.38
835.33	4355.38
840.644	4318.38
845.952	4273.38
851.255	4273.38
856.552	4249.38
861.844	4178.38
867.13	4191.38
872.41	4177.38
877.686	4226.38
882.955	4263.38
888.219	4198.38
893.478	4092.38
898.731	3968.38
903.979	3905.38
909.221	3843.38
914.458	3805.38
919.69	3824.38
924.916	3783.38
930.136	3835.38
935.351	3804.38
940.561	3796.38
945.766	3791.38
950.965	3778.38
956.158	3741.38
961.347	3708.38
966.529	3651.38
971.707	3629.38
976.879	3556.38
982.046	3519.38
987.208	3529.38
992.364	3517.38
997.515	3533.38
1002.66	3581.38
1007.801	3568.38
1012.936	3635.38
1018.066	3644.38
1023.19	3660.38
1028.309	3709.38
1033.423	3692.38
1038.532	3700.38
1043.636	3701.38
1048.734	3702.38
1053.827	3631.38
1058.915	3633.38
1063.998	3556.38
1069.075	3541.38
1074.147	3532.38
1079.214	3524.38
1084.276	3594.38
1089.333	3590.38
1094.385	3614.38
1099.431	3601.38
1104.472	3562.38
1109.509	3517.38
1114.54	3428.38
1119.565	3379.38
1124.586	3338.38
1129.602	3308.38
1134.613	3259.38
1139.618	3217.38
1144.619	3254.38
1149.614	3256.38
1154.604	3261.38
1159.589	3263.38
1164.57	3295.38
1169.545	3272.38
1174.515	3292.38
1179.48	3256.38
1184.44	3238.38
1189.395	3232.38
1194.345	3176.38
1199.29	3169.38
1204.23	3169.38
1209.165	3159.38
1214.095	3185.38
1219.021	3210.38
1223.941	3221.38
1228.856	3214.38
1233.766	3212.38
1238.672	3217.38
1243.572	3228.38
1248.467	3209.38
1253.358	3158.38
1258.244	3104.38
1263.124	3072.38
1268	3047.38
1272.871	2981.38
1277.737	2964.38
1282.599	2944.38
1287.455	2959.38
1292.306	2959.38
1297.153	2935.38
1301.995	2948.38
1306.832	2960.38
1311.664	2981.38
1316.491	2974.38
1321.314	2948.38
1326.132	2915.38
1330.945	2919.38
1335.753	2835.38
1340.556	2798.38
1345.354	2741.38
1350.148	2722.38
1354.937	2691.38
1359.722	2673.38
1364.501	2658.38
1369.276	2644.38
1374.046	2661.38
1378.811	2648.38
1383.572	2646.38
1388.327	2647.38
1393.079	2596.38
1397.825	2605.38
1402.567	2585.38
1407.304	2571.38
1412.036	2550.38
1416.764	2533.38
1421.487	2540.38
1426.205	2519.38
1430.919	2539.38
1435.628	2577.38
1440.333	2582.38
1445.032	2619.38
1449.727	2637.38
1454.418	2694.38
1459.104	2714.38
1463.785	2630.38
1468.462	2613.38
1473.134	2519.38
1477.802	2496.38
1482.465	2430.38
1487.123	2433.38
1491.777	2394.38
1496.426	2409.38
1501.071	2430.38
1505.711	2393.38
1510.347	2413.38
1514.978	2441.38
1519.604	2448.38
1524.226	2455.38
1528.844	2401.38
1533.457	2402.38
1538.065	2381.38
1542.669	2367.38
1547.269	2330.38
1551.864	2311.38
1556.454	2285.38
1561.041	2298.38
1565.622	2291.38
1570.199	2302.38
1574.772	2321.38
1579.34	2345.38
1583.904	2365.38
1588.464	2371.38
1593.019	2372.38
1597.569	2357.38
1602.115	2358.38
1606.657	2355.38
1611.195	2366.38
1615.728	2351.38
1620.256	2311.38
1624.78	2288.38
1629.3	2326.38
1633.816	2337.38
1638.327	2338.38
1642.834	2351.38
1647.336	2371.38
1651.834	2375.38
1656.328	2385.38
1660.817	2368.38
1665.302	2375.38
1669.783	2341.38
1674.259	2316.38
1678.732	2277.38
1683.199	2223.38
1687.663	2159.38
1692.122	2117.38
1696.577	2084.38
1701.028	2047.38
1705.474	1996.38
1709.917	1959.38
1714.355	1945.38
1718.788	1923.38
1723.218	1897.38
1727.643	1909.38
1732.064	1869.38
1736.481	1810.38
1740.893	1800.38
1745.301	1762.38
1749.705	1710.38
1754.105	1693.38
1758.501	1658.38
1762.893	1633.38
1767.28	1596.38
1771.663	1600.38
1776.042	1579.38
1780.417	1565.38
1784.787	1568.38
1789.154	1573.38
1793.516	1581.38
1797.874	1589.38
1802.228	1574.38
1806.578	1568.38
1810.924	1564.38
1815.266	1458.38
1819.603	1531.38
1823.937	1494.38
1828.266	1486.38
1832.591	1467.38
1836.913	1460.38
1841.23	1435.38
1845.543	1444.38
1849.852	1444.38
1854.156	1441.38
1858.457	1439.38
1862.754	1437.38
1867.047	1445.38
1871.335	1470.38
1875.62	1460.38
1879.9	1459.38
1884.177	1437.38
1888.449	1448.38
1892.718	1436.38
1896.982	1433.38
1901.243	1400.38
1905.499	1406.38
1909.752	1406.38
1914	1395.38
1918.245	1413.38
1922.485	1414.38
1926.722	1410.38
1930.954	1399.38
1935.183	1438.38
1939.408	1432.38
1943.628	1411.38
1947.845	1416.38
1952.058	1404.38
1956.267	1354.38
1960.472	1350.38
1964.673	1340.38
1968.87	1304.38
1973.063	1280.38
1977.252	1266.38
1981.438	1244.38
1985.619	1231.38
1989.797	1220.38
1993.971	1226.38
1998.14	1217.38
2002.306	1212.38
2006.469	1209.38
2010.627	1193.38
2014.781	1181.38
2018.932	1192.38
2023.078	1210.38
2027.221	1182.38
2031.36	1160.38
2035.495	1156.38
2039.627	1132.38
2043.754	1140.38
2047.878	1121.38
2051.998	1112.38
2056.114	1122.38
2060.226	1129.38
2064.334	1124.38
2068.439	1133.38
2072.54	1147.38
2076.637	1120.38
2080.73	1107.38
2084.82	1143.38
2088.906	1137.38
2092.988	1133.38
2097.066	1129.38
2101.14	1135.38
2105.211	1105.38
2109.278	1082.38
2113.342	1079.38
2117.401	1060.38
2121.457	1034.38
2125.509	1027.38
2129.558	1031.38
2133.602	1030.38
2137.643	1016.38
2141.681	1004.38
2145.714	1005.38
2149.744	993.38
2153.77	1002.38
2157.793	960.38
2161.812	936.38
2165.827	927.38
2169.838	945.38
2173.846	911.38
2177.851	918.38
2181.851	913.38
2185.848	893.38
2189.841	884.38
2193.831	866.38
2197.817	861.38
2201.799	864.38
2205.778	840.38
2209.753	829.38
2213.725	826.38
2217.693	835.38
2221.657	821.38
2225.618	844.38
2229.575	824.38
2233.529	826.38
2237.479	814.38
2241.425	789.38
2245.368	774.38
2249.307	779.38
2253.243	751.38
2257.175	761.38
2261.104	751.38
2265.029	738.38
2268.95	719.38
2272.868	728.38
2276.783	689.38
2280.694	696.38
2284.601	698.38
2288.505	690.38
2292.405	691.38
2296.302	656.38
2300.195	659.38
2304.085	625.38
2307.971	641.38
2311.854	607.38
2315.734	617.38
2319.609	622.38
2323.482	581.38
2327.351	597.38
2331.216	587.38
2335.078	604.38
2338.937	590.38
2342.792	574.38
2346.643	573.38
2350.492	578.38
2354.336	579.38
2358.178	577.38
2362.015	585.38
2365.85	574.38
2369.681	570.38
2373.508	570.38
2377.333	585.38
2381.153	574.38
2384.971	563.38
2388.785	568.38
2392.595	562.38
2396.402	542.38
2400.206	525.38
2404.007	544.38
2407.804	547.38
2411.597	545.38
2415.388	536.38
2419.174	526.38
2422.958	540.38
2426.738	524.38
2430.515	537.38
2434.289	517.38
2438.059	506.38
2441.825	509.38
2445.589	515.38
2449.349	494.38
2453.106	511.38
2456.859	495.38
2460.61	502.38
2464.356	490.38
2468.1	475.38
2471.84	470.38
2475.577	470.38
2479.311	465.38
2483.041	473.38
2486.768	484.38
2490.492	470.38
2494.213	478.38
2497.93	464.38
2501.644	453.38
2505.355	471.38
2509.062	460.38
2512.766	457.38
2516.467	460.38
2520.165	454.38
2523.859	435.38
2527.551	475.38
2531.239	437.38
2534.923	449.38
2538.605	448.38
2542.283	443.38
2545.958	445.38
2549.63	457.38
2553.299	450.38
2556.964	437.38
2560.626	425.38
2564.285	429.38
2567.941	416.38
2571.594	412.38
2575.243	418.38
2578.89	413.38
2582.533	417.38
2586.173	402.38
2589.809	411.38
2593.443	385.38
2597.073	395.38
2600.701	391.38
2604.325	397.38
2607.946	383.38
2611.564	400.38
2615.178	390.38
2618.79	380.38
2622.398	366.38
2626.004	380.38
2629.606	369.38
2633.205	355.38
2636.801	368.38
2640.394	360.38
2643.983	339.38
2647.57	346.38
2651.153	342.38
2654.734	355.38
2658.311	328.38
2661.885	332.38
2665.456	337.38
2669.025	325.38
2672.589	333.38
2676.151	334.38
2679.71	333.38
2683.266	320.38
2686.819	308.38
2690.368	313.38
2693.915	312.38
2697.458	314.38
2700.999	308.38
2704.536	309.38
2708.071	299.38
2711.602	303.38
2715.13	305.38
2718.656	286.38
2722.178	291.38
2725.697	284.38
2729.214	294.38
2732.727	290.38
2736.237	276.38
2739.744	298.38
2743.249	284.38
2746.75	297.38
2750.248	289.38
2753.743	298.38
2757.236	293.38
2760.725	295.38
2764.211	267.38
2767.695	296.38
2771.175	286.38
2774.652	291.38
2778.127	279.38
2781.598	271.38
2785.067	274.38
2788.532	269.38
2791.995	288.38
2795.455	275.38
2798.911	282.38
2802.365	280.38
2805.816	280.38
2809.264	291.38
2812.709	280.38
2816.151	287.38
2819.59	271.38
2823.026	278.38
2826.46	279.38
2829.89	294.38
2833.318	272.38
2836.742	281.38
2840.164	287.38
2843.583	289.38
2846.999	299.38
2850.412	297.38
2853.822	301.38
2857.229	309.38
2860.634	308.38
2864.035	310.38
2867.434	323.38
2870.83	329.38
2874.223	330.38
2877.613	347.38
2881	344.38
2884.385	355.38
2887.766	361.38
2891.145	364.38
2894.521	356.38
2897.894	338.38
2901.264	369.38
2904.631	360.38
2907.996	373.38
2911.358	377.38
2914.717	370.38
2918.073	365.38
2921.426	365.38
2924.777	360.38
2928.124	385.38
2931.469	415.38
2934.811	416.38
2938.15	448.38
2941.487	429.38
2944.821	449.38
2948.152	421.38
2951.48	424.38
2954.805	390.38
2958.128	403.38
2961.447	384.38
2964.765	397.38
2968.079	384.38
2971.39	392.38
2974.699	394.38
2978.005	407.38
2981.308	401.38
2984.609	391.38
2987.907	411.38
2991.202	411.38
2994.494	391.38
2997.784	398.38
3001.07	403.38
3004.355	385.38
3007.636	396.38
3010.915	393.38
3014.191	395.38
3017.464	399.38
3020.734	402.38
3024.002	405.38
3027.267	398.38
3030.53	405.38
3033.789	406.38
3037.046	405.38
3040.301	399.38
3043.552	421.38
3046.801	424.38
3050.048	435.38
3053.291	462.38
3056.532	446.38
3059.771	448.38
3063.006	476.38
3066.239	486.38
3069.469	497.38
3072.697	508.38
3075.922	507.38
3079.144	515.38
3082.364	556.38
3085.581	525.38
3088.795	566.38
3092.007	559.38
3095.216	579.38
3098.423	587.38
3101.627	574.38
3104.828	610.38
3108.026	612.38
3111.222	630.38
3114.416	659.38
3117.607	655.38
3120.795	673.38
3123.98	682.38
3127.163	684.38
3130.344	711.38
3133.521	704.38
3136.696	749.38
3139.869	752.38
3143.039	739.38
3146.206	789.38
3149.371	794.38
3152.533	799.38
3155.693	776.38
3158.85	796.38
3162.005	801.38
3165.157	799.38
3168.306	794.38
3171.453	814.38
3174.597	801.38
3177.739	801.38
3180.878	812.38
3184.014	813.38
3187.149	802.38
3190.28	813.38
3193.409	817.38
3196.536	830.38
3199.659	832.38
3202.781	834.38
3205.9	814.38
3209.016	821.38
3212.13	833.38
3215.241	823.38
3218.35	821.38
3221.456	813.38
3224.56	786.38
3227.661	798.38
3230.76	779.38
3233.856	781.38
3236.95	781.38
3240.041	763.38
3243.13	780.38
3246.216	772.38
3249.3	771.38
3252.382	760.38
3255.46	744.38
3258.537	704.38
3261.611	741.38
3264.682	755.38
3267.751	742.38
3270.818	740.38
3273.882	740.38
3276.943	738.38
3280.002	744.38
3283.059	710.38
3286.113	724.38
3289.165	703.38
3292.214	686.38
3295.261	707.38
3298.306	657.38
3301.348	683.38
3304.387	645.38
3307.425	661.38
3310.459	653.38
3313.492	655.38
3316.521	631.38
3319.549	632.38
3322.574	632.38
3325.597	618.38
3328.617	611.38
3331.635	610.38
3334.65	600.38
3337.663	615.38
3340.674	600.38
3343.682	597.38
3346.688	608.38
3349.691	594.38
3352.692	597.38
3355.691	600.38
3358.687	598.38
3361.681	588.38
3364.673	582.38
3367.662	589.38
3370.649	586.38
3373.633	548.38
3376.615	566.38
3379.595	529.38
3382.572	548.38
3385.547	536.38
3388.52	517.38
3391.49	524.38
3394.458	514.38
3397.424	508.38
3400.387	506.38
3403.348	507.38
3406.307	507.38
3409.263	498.38
3412.217	493.38
3415.168	497.38
3418.118	493.38
3421.065	482.38
3424.009	488.38
3426.951	466.38
3429.891	463.38
3432.829	464.38
3435.764	451.38
3438.697	438.38
3441.628	444.38
3444.557	416.38
3447.483	402.38
3450.407	408.38
3453.328	392.38
3456.247	384.38
3459.164	357.38
3462.079	383.38
3464.991	355.38
3467.902	353.38
3470.809	343.38
3473.715	339.38
3476.618	315.38
3479.519	315.38
3482.418	292.38
3485.315	293.38
3488.209	281.38
3491.101	287.38
3493.99	265.38
3496.878	259.38
3499.763	258.38
3502.646	260.38
3505.527	240.38
3508.405	242.38
3511.281	215.38
3514.155	219.38
3517.027	215.38
3519.897	190.38
3522.764	207.38
3525.629	171.38
3528.492	182.38
3531.352	171.38
3534.211	168.38
3537.067	154.38
3539.921	153.38
3542.773	162.38
3545.622	134.38
3548.469	124.38
3551.315	122.38
3554.157	123.38
3556.998	114.38
3559.837	116.38
3562.673	113.38
3565.507	98.38
3568.339	93.38
3571.169	97.38
3573.996	93.38
3576.822	75.38
3579.645	72.38
3582.466	71.38
3585.285	75.38
3588.101	75.38
3590.916	69.38
3593.728	71.38
3596.538	64.38
3599.346	60.38
3602.152	56.38
3604.956	51.38
3607.757	56.38
3610.556	28.38
3613.354	50.38
3616.149	50.38
3618.942	46.38
3621.732	49.38
3624.521	38.38
3627.307	22.38
3630.092	23.38
3632.874	40.38
3635.654	28.38
3638.432	22.38
3641.208	18.38
3643.982	21.38
3646.753	25.38
3649.523	-1.62
3652.29	12.38
3655.055	17.38
3657.818	13.38
3660.579	7.38
3663.338	1.38
3666.095	3.38
3668.849	-19.62
3671.602	11.38
3674.352	-4.62
3677.101	7.38
3679.847	3.38
3682.591	-6.62
3685.333	-15.62
3688.073	-1.62
3690.811	-11.62
3693.547	-18.62
3696.281	-22.62
3699.013	-5.62
3701.742	-14.62
3704.47	-17.62
3707.195	-3.62
3709.919	-6.62
3712.64	-8.62
3715.359	-22.62
3718.076	1.38
3720.792	-13.62
3723.505	-15.62
3726.216	-0.62
3728.925	-14.62
3731.632	-23.62
3734.336	-17.62
3737.039	-15.62
3739.74	-12.62
3742.439	-35.62
3745.136	-11.62
3747.83	-12.62
3750.523	-13.62
3753.213	-73.62
3755.902	-22.62
3758.589	-33.62
3761.273	-21.62
3763.956	-10.62
3766.636	-31.62
3769.315	-6.62
3771.991	-19.62
3774.665	-23.62
3777.338	-22.62
3780.008	-31.62
3782.677	-21.62
3785.343	-37.62
3788.007	-37.62
3790.67	-19.62
3793.33	-33.62
3795.989	-25.62
3798.645	-20.62
3801.299	-34.62
3803.952	-34.62
3806.602	-26.62
3809.251	-15.62
3811.897	-24.62
3814.542	-32.62
3817.184	-24.62
3819.825	-21.62
3822.463	-38.62
3825.1	-28.62
3827.735	-21.62
3830.367	-35.62
3832.998	-11.62
3835.627	-29.62
3838.253	-19.62
3840.878	-26.62
3843.501	-12.62
3846.122	-24.62
3848.741	-17.62
3851.358	-18.62
3853.973	-38.62
3856.586	-14.62
3859.197	-33.62
3861.806	-23.62
3864.414	-37.62
3867.019	-22.62
3869.622	-12.62
3872.224	-12.62
3874.823	7.38
3877.421	46.38
3880.016	70.38
3882.61	126.38
3885.202	149.38
3887.792	113.38
3890.38	59.38
3892.966	7.38
3895.55	-24.62
3898.132	-17.62
3900.713	-14.62
3903.291	-27.62
3905.868	-36.62
3908.442	-25.62
3911.015	-24.62
3913.586	-26.62
3916.155	-28.62
3918.722	-36.62
3921.287	-29.62
3923.85	-39.62
3926.411	-28.62
3928.971	-35.62
3931.528	-27.62
3934.084	-32.62
3936.638	-36.62
3939.19	-23.62
3941.74	-26.62
3944.288	-30.62
3946.834	-29.62
3949.378	-25.62
3951.921	-37.62
3954.462	-26.62
3957	-28.62
3959.537	-19.62
3962.072	-30.62
3964.606	-42.62
3967.137	-31.62
3969.667	-31.62
3972.194	-25.62
3974.72	-31.62
3977.244	-52.62
3979.766	-38.62
3982.286	-32.62
3984.805	-26.62
3987.321	-16.62
3989.836	-24.62
3992.349	-28.62
3994.86	-27.62
3997.369	-34.62
3999.877	-27.62
4002.382	-28.62
4004.886	-19.62
4007.388	-30.62
4009.888	-16.62
4012.386	-20.62
4014.883	-24.62
4017.377	-23.62
4019.87	-26.62
4022.361	-33.62
4024.85	-24.62
4027.338	-25.62
4029.823	-35.62
4032.307	-25.62
4034.789	-25.62
4037.269	-24.62
4039.747	-35.62
4042.224	-21.62
4044.699	-34.62
4047.172	-31.62
4049.643	-16.62
4052.112	-51.62
4054.58	-21.62
4057.046	-36.62
4059.51	-25.62
4061.972	-26.62
4064.432	-46.62
4066.891	-16.62
4069.348	-29.62
4071.803	-25.62
4074.256	-36.62
4076.708	-17.62
4079.158	-25.62
4081.606	-14.62
4084.052	-31.62
4086.497	-19.62
4088.939	-27.62
4091.38	-23.62
4093.819	-21.62
4096.257	0.38
4098.693	-2.62
4101.127	-5.62
4103.559	0.38
4105.989	151.38
4108.418	157.38
4110.845	141.38
4113.27	146.38
4115.694	161.38
4118.115	154.38
4120.535	-26.62
4122.954	-17.62
4125.37	-20.62
4127.785	-19.62
4130.198	-20.62
4132.609	-24.62
4135.019	9.38
4137.427	-1.62
4139.833	7.38
4142.237	-7.62
