Data from 2018-3-6_conc=2_n=5_RamanShift_01.txt Node
Date: Tue Mar 06 12:54:19 GMT+02:00 2018
User: LAB3
Spectrometer: QEPB0276
Trigger mode: 0
Integration Time (sec): 3.000000E1
Scans to average: 1
Electric dark correction enabled: true
Nonlinearity correction enabled: false
Boxcar width: 0
XAxis mode: Raman Shifts
Number of Pixels in Spectrum: 1044
>>>>>Begin Spectral Data<<<<<
160.701	172.12
166.742	221.12
172.777	325.12
178.805	623.12
184.826	1432.12
190.841	2833.12
196.849	4518.12
202.85	5789.12
208.845	6265.12
214.833	6265.12
220.815	6205.12
226.789	6203.12
232.758	6287.12
238.719	6299.12
244.674	6261.12
250.623	6269.12
256.565	6210.12
262.5	6146.12
268.429	6132.12
274.351	6111.12
280.267	6119.12
286.176	6141.12
292.079	6166.12
297.975	6184.12
303.865	6186.12
309.748	6230.12
315.625	6192.12
321.495	6249.12
327.359	6248.12
333.217	6241.12
339.068	6284.12
344.912	6320.12
350.751	6306.12
356.583	6374.12
362.408	6385.12
368.227	6432.12
374.04	6452.12
379.847	6498.12
385.647	6560.12
391.44	6566.12
397.228	6584.12
403.009	6653.12
408.784	6694.12
414.553	6697.12
420.315	6734.12
426.071	6747.12
431.821	6712.12
437.565	6730.12
443.302	6712.12
449.033	6692.12
454.758	6682.12
460.477	6606.12
466.189	6506.12
471.896	6421.12
477.596	6435.12
483.29	6363.12
488.978	6355.12
494.66	6300.12
500.335	6157.12
506.005	5854.12
511.668	5541.12
517.325	5261.12
522.977	5025.12
528.622	4847.12
534.261	4702.12
539.894	4620.12
545.521	4539.12
551.141	4499.12
556.756	4442.12
562.365	4408.12
567.968	4355.12
573.565	4316.12
579.155	4314.12
584.74	4248.12
590.319	4293.12
595.892	4274.12
601.459	4270.12
607.02	4261.12
612.575	4219.12
618.124	4159.12
623.667	4104.12
629.204	4030.12
634.735	3965.12
640.261	3958.12
645.781	3886.12
651.294	3864.12
656.802	3858.12
662.304	3865.12
667.8	3848.12
673.29	3837.12
678.775	3816.12
684.254	3795.12
689.726	3783.12
695.193	3768.12
700.655	3741.12
706.11	3720.12
711.56	3713.12
717.004	3696.12
722.442	3660.12
727.874	3658.12
733.301	3650.12
738.722	3613.12
744.137	3602.12
749.547	3603.12
754.951	3592.12
760.349	3618.12
765.741	3651.12
771.128	3681.12
776.509	3716.12
781.885	3778.12
787.254	3820.12
792.618	3833.12
797.977	3843.12
803.33	3811.12
808.677	3776.12
814.019	3764.12
819.355	3704.12
824.686	3666.12
830.011	3626.12
835.33	3637.12
840.644	3608.12
845.952	3561.12
851.255	3562.12
856.552	3524.12
861.844	3439.12
867.13	3419.12
872.41	3381.12
877.686	3370.12
882.955	3369.12
888.219	3307.12
893.478	3273.12
898.731	3225.12
903.979	3191.12
909.221	3145.12
914.458	3138.12
919.69	3130.12
924.916	3131.12
930.136	3149.12
935.351	3125.12
940.561	3131.12
945.766	3135.12
950.965	3133.12
956.158	3074.12
961.347	3043.12
966.529	3008.12
971.707	2985.12
976.879	2959.12
982.046	2916.12
987.208	2896.12
992.364	2892.12
997.515	2910.12
1002.66	2932.12
1007.801	2967.12
1012.936	2973.12
1018.066	2964.12
1023.19	3010.12
1028.309	2999.12
1033.423	3021.12
1038.532	3042.12
1043.636	3022.12
1048.734	3009.12
1053.827	2956.12
1058.915	2957.12
1063.998	2914.12
1069.075	2889.12
1074.147	2920.12
1079.214	2902.12
1084.276	2893.12
1089.333	2909.12
1094.385	2932.12
1099.431	2892.12
1104.472	2896.12
1109.509	2838.12
1114.54	2795.12
1119.565	2768.12
1124.586	2746.12
1129.602	2695.12
1134.613	2678.12
1139.618	2666.12
1144.619	2666.12
1149.614	2689.12
1154.604	2674.12
1159.589	2675.12
1164.57	2699.12
1169.545	2718.12
1174.515	2693.12
1179.48	2683.12
1184.44	2667.12
1189.395	2672.12
1194.345	2640.12
1199.29	2604.12
1204.23	2576.12
1209.165	2593.12
1214.095	2626.12
1219.021	2639.12
1223.941	2628.12
1228.856	2640.12
1233.766	2671.12
1238.672	2668.12
1243.572	2639.12
1248.467	2632.12
1253.358	2577.12
1258.244	2544.12
1263.124	2520.12
1268	2501.12
1272.871	2425.12
1277.737	2425.12
1282.599	2394.12
1287.455	2402.12
1292.306	2387.12
1297.153	2410.12
1301.995	2417.12
1306.832	2423.12
1311.664	2421.12
1316.491	2415.12
1321.314	2430.12
1326.132	2395.12
1330.945	2367.12
1335.753	2316.12
1340.556	2278.12
1345.354	2247.12
1350.148	2227.12
1354.937	2211.12
1359.722	2152.12
1364.501	2156.12
1369.276	2161.12
1374.046	2142.12
1378.811	2157.12
1383.572	2150.12
1388.327	2115.12
1393.079	2120.12
1397.825	2099.12
1402.567	2080.12
1407.304	2058.12
1412.036	2074.12
1416.764	2081.12
1421.487	2051.12
1426.205	2036.12
1430.919	2054.12
1435.628	2054.12
1440.333	2085.12
1445.032	2076.12
1449.727	2101.12
1454.418	2121.12
1459.104	2119.12
1463.785	2079.12
1468.462	2055.12
1473.134	2010.12
1477.802	1984.12
1482.465	1941.12
1487.123	1942.12
1491.777	1914.12
1496.426	1903.12
1501.071	1941.12
1505.711	1945.12
1510.347	1942.12
1514.978	1953.12
1519.604	1967.12
1524.226	1965.12
1528.844	1926.12
1533.457	1924.12
1538.065	1922.12
1542.669	1896.12
1547.269	1877.12
1551.864	1876.12
1556.454	1846.12
1561.041	1860.12
1565.622	1859.12
1570.199	1875.12
1574.772	1867.12
1579.34	1902.12
1583.904	1922.12
1588.464	1956.12
1593.019	1951.12
1597.569	1906.12
1602.115	1933.12
1606.657	1905.12
1611.195	1916.12
1615.728	1920.12
1620.256	1889.12
1624.78	1895.12
1629.3	1881.12
1633.816	1922.12
1638.327	1914.12
1642.834	1944.12
1647.336	1929.12
1651.834	1967.12
1656.328	1946.12
1660.817	1937.12
1665.302	1935.12
1669.783	1907.12
1674.259	1872.12
1678.732	1849.12
1683.199	1785.12
1687.663	1724.12
1692.122	1705.12
1696.577	1660.12
1701.028	1647.12
1705.474	1605.12
1709.917	1577.12
1714.355	1573.12
1718.788	1558.12
1723.218	1524.12
1727.643	1497.12
1732.064	1490.12
1736.481	1450.12
1740.893	1450.12
1745.301	1416.12
1749.705	1359.12
1754.105	1338.12
1758.501	1318.12
1762.893	1306.12
1767.28	1262.12
1771.663	1278.12
1776.042	1252.12
1780.417	1250.12
1784.787	1254.12
1789.154	1258.12
1793.516	1260.12
1797.874	1266.12
1802.228	1253.12
1806.578	1221.12
1810.924	1250.12
1815.266	1139.12
1819.603	1206.12
1823.937	1183.12
1828.266	1184.12
1832.591	1168.12
1836.913	1159.12
1841.23	1132.12
1845.543	1142.12
1849.852	1138.12
1854.156	1142.12
1858.457	1155.12
1862.754	1143.12
1867.047	1151.12
1871.335	1158.12
1875.62	1146.12
1879.9	1159.12
1884.177	1148.12
1888.449	1149.12
1892.718	1138.12
1896.982	1149.12
1901.243	1121.12
1905.499	1114.12
1909.752	1123.12
1914	1089.12
1918.245	1121.12
1922.485	1130.12
1926.722	1118.12
1930.954	1117.12
1935.183	1137.12
1939.408	1147.12
1943.628	1138.12
1947.845	1122.12
1952.058	1114.12
1956.267	1075.12
1960.472	1075.12
1964.673	1064.12
1968.87	1043.12
1973.063	1010.12
1977.252	996.12
1981.438	989.12
1985.619	983.12
1989.797	962.12
1993.971	970.12
1998.14	964.12
2002.306	956.12
2006.469	978.12
2010.627	958.12
2014.781	955.12
2018.932	939.12
2023.078	966.12
2027.221	942.12
2031.36	916.12
2035.495	932.12
2039.627	921.12
2043.754	906.12
2047.878	896.12
2051.998	876.12
2056.114	882.12
2060.226	885.12
2064.334	899.12
2068.439	895.12
2072.54	914.12
2076.637	891.12
2080.73	905.12
2084.82	899.12
2088.906	911.12
2092.988	892.12
2097.066	892.12
2101.14	905.12
2105.211	885.12
2109.278	859.12
2113.342	867.12
2117.401	839.12
2121.457	835.12
2125.509	826.12
2129.558	830.12
2133.602	814.12
2137.643	817.12
2141.681	799.12
2145.714	804.12
2149.744	813.12
2153.77	796.12
2157.793	785.12
2161.812	753.12
2165.827	741.12
2169.838	759.12
2173.846	734.12
2177.851	722.12
2181.851	727.12
2185.848	720.12
2189.841	710.12
2193.831	695.12
2197.817	698.12
2201.799	687.12
2205.778	668.12
2209.753	671.12
2213.725	658.12
2217.693	656.12
2221.657	657.12
2225.618	672.12
2229.575	669.12
2233.529	655.12
2237.479	655.12
2241.425	637.12
2245.368	626.12
2249.307	630.12
2253.243	609.12
2257.175	616.12
2261.104	591.12
2265.029	588.12
2268.95	576.12
2272.868	566.12
2276.783	563.12
2280.694	555.12
2284.601	569.12
2288.505	554.12
2292.405	539.12
2296.302	524.12
2300.195	528.12
2304.085	503.12
2307.971	517.12
2311.854	482.12
2315.734	498.12
2319.609	495.12
2323.482	468.12
2327.351	477.12
2331.216	475.12
2335.078	480.12
2338.937	469.12
2342.792	464.12
2346.643	467.12
2350.492	463.12
2354.336	464.12
2358.178	471.12
2362.015	466.12
2365.85	464.12
2369.681	465.12
2373.508	461.12
2377.333	480.12
2381.153	475.12
2384.971	457.12
2388.785	460.12
2392.595	440.12
2396.402	449.12
2400.206	439.12
2404.007	433.12
2407.804	443.12
2411.597	440.12
2415.388	437.12
2419.174	429.12
2422.958	433.12
2426.738	424.12
2430.515	437.12
2434.289	408.12
2438.059	418.12
2441.825	414.12
2445.589	420.12
2449.349	393.12
2453.106	416.12
2456.859	406.12
2460.61	408.12
2464.356	394.12
2468.1	380.12
2471.84	389.12
2475.577	381.12
2479.311	382.12
2483.041	390.12
2486.768	389.12
2490.492	387.12
2494.213	380.12
2497.93	373.12
2501.644	365.12
2505.355	368.12
2509.062	374.12
2512.766	364.12
2516.467	361.12
2520.165	370.12
2523.859	356.12
2527.551	386.12
2531.239	347.12
2534.923	360.12
2538.605	343.12
2542.283	359.12
2545.958	354.12
2549.63	371.12
2553.299	356.12
2556.964	342.12
2560.626	344.12
2564.285	352.12
2567.941	330.12
2571.594	332.12
2575.243	341.12
2578.89	333.12
2582.533	330.12
2586.173	328.12
2589.809	333.12
2593.443	305.12
2597.073	317.12
2600.701	315.12
2604.325	320.12
2607.946	301.12
2611.564	321.12
2615.178	322.12
2618.79	310.12
2622.398	301.12
2626.004	304.12
2629.606	304.12
2633.205	283.12
2636.801	294.12
2640.394	284.12
2643.983	279.12
2647.57	279.12
2651.153	274.12
2654.734	287.12
2658.311	252.12
2661.885	265.12
2665.456	262.12
2669.025	263.12
2672.589	258.12
2676.151	276.12
2679.71	264.12
2683.266	259.12
2686.819	249.12
2690.368	255.12
2693.915	253.12
2697.458	252.12
2700.999	248.12
2704.536	245.12
2708.071	233.12
2711.602	238.12
2715.13	245.12
2718.656	221.12
2722.178	225.12
2725.697	216.12
2729.214	233.12
2732.727	232.12
2736.237	224.12
2739.744	223.12
2743.249	218.12
2746.75	231.12
2750.248	218.12
2753.743	237.12
2757.236	236.12
2760.725	233.12
2764.211	199.12
2767.695	230.12
2771.175	217.12
2774.652	228.12
2778.127	214.12
2781.598	212.12
2785.067	218.12
2788.532	201.12
2791.995	217.12
2795.455	214.12
2798.911	229.12
2802.365	211.12
2805.816	220.12
2809.264	231.12
2812.709	218.12
2816.151	227.12
2819.59	208.12
2823.026	217.12
2826.46	215.12
2829.89	225.12
2833.318	195.12
2836.742	214.12
2840.164	219.12
2843.583	229.12
2846.999	226.12
2850.412	223.12
2853.822	224.12
2857.229	235.12
2860.634	239.12
2864.035	218.12
2867.434	243.12
2870.83	255.12
2874.223	237.12
2877.613	251.12
2881	245.12
2884.385	245.12
2887.766	251.12
2891.145	251.12
2894.521	249.12
2897.894	246.12
2901.264	260.12
2904.631	258.12
2907.996	252.12
2911.358	263.12
2914.717	260.12
2918.073	250.12
2921.426	253.12
2924.777	244.12
2928.124	264.12
2931.469	285.12
2934.811	269.12
2938.15	290.12
2941.487	285.12
2944.821	303.12
2948.152	296.12
2951.48	301.12
2954.805	276.12
2958.128	305.12
2961.447	284.12
2964.765	297.12
2968.079	290.12
2971.39	287.12
2974.699	289.12
2978.005	299.12
2981.308	295.12
2984.609	296.12
2987.907	307.12
2991.202	320.12
2994.494	305.12
2997.784	310.12
3001.07	312.12
3004.355	314.12
3007.636	316.12
3010.915	315.12
3014.191	319.12
3017.464	327.12
3020.734	324.12
3024.002	338.12
3027.267	335.12
3030.53	331.12
3033.789	337.12
3037.046	331.12
3040.301	338.12
3043.552	351.12
3046.801	359.12
3050.048	382.12
3053.291	395.12
3056.532	381.12
3059.771	384.12
3063.006	406.12
3066.239	416.12
3069.469	409.12
3072.697	426.12
3075.922	433.12
3079.144	445.12
3082.364	474.12
3085.581	465.12
3088.795	486.12
3092.007	498.12
3095.216	501.12
3098.423	501.12
3101.627	496.12
3104.828	522.12
3108.026	512.12
3111.222	552.12
3114.416	574.12
3117.607	561.12
3120.795	582.12
3123.98	579.12
3127.163	587.12
3130.344	600.12
3133.521	606.12
3136.696	634.12
3139.869	639.12
3143.039	644.12
3146.206	681.12
3149.371	679.12
3152.533	677.12
3155.693	662.12
3158.85	686.12
3162.005	702.12
3165.157	694.12
3168.306	703.12
3171.453	710.12
3174.597	680.12
3177.739	696.12
3180.878	711.12
3184.014	709.12
3187.149	691.12
3190.28	705.12
3193.409	724.12
3196.536	712.12
3199.659	724.12
3202.781	731.12
3205.9	707.12
3209.016	719.12
3212.13	719.12
3215.241	706.12
3218.35	712.12
3221.456	707.12
3224.56	698.12
3227.661	692.12
3230.76	672.12
3233.856	666.12
3236.95	688.12
3240.041	663.12
3243.13	682.12
3246.216	665.12
3249.3	667.12
3252.382	667.12
3255.46	668.12
3258.537	616.12
3261.611	658.12
3264.682	654.12
3267.751	648.12
3270.818	639.12
3273.882	650.12
3276.943	640.12
3280.002	641.12
3283.059	629.12
3286.113	624.12
3289.165	601.12
3292.214	605.12
3295.261	612.12
3298.306	588.12
3301.348	581.12
3304.387	565.12
3307.425	569.12
3310.459	560.12
3313.492	572.12
3316.521	552.12
3319.549	560.12
3322.574	552.12
3325.597	536.12
3328.617	533.12
3331.635	534.12
3334.65	524.12
3337.663	523.12
3340.674	527.12
3343.682	519.12
3346.688	531.12
3349.691	518.12
3352.692	519.12
3355.691	516.12
3358.687	524.12
3361.681	510.12
3364.673	512.12
3367.662	514.12
3370.649	508.12
3373.633	482.12
3376.615	485.12
3379.595	470.12
3382.572	468.12
3385.547	459.12
3388.52	452.12
3391.49	452.12
3394.458	456.12
3397.424	451.12
3400.387	437.12
3403.348	449.12
3406.307	432.12
3409.263	427.12
3412.217	438.12
3415.168	422.12
3418.118	427.12
3421.065	417.12
3424.009	428.12
3426.951	397.12
3429.891	396.12
3432.829	393.12
3435.764	400.12
3438.697	373.12
3441.628	379.12
3444.557	352.12
3447.483	346.12
3450.407	356.12
3453.328	334.12
3456.247	322.12
3459.164	321.12
3462.079	316.12
3464.991	309.12
3467.902	298.12
3470.809	299.12
3473.715	295.12
3476.618	272.12
3479.519	269.12
3482.418	251.12
3485.315	253.12
3488.209	250.12
3491.101	245.12
3493.99	225.12
3496.878	236.12
3499.763	223.12
3502.646	225.12
3505.527	200.12
3508.405	202.12
3511.281	189.12
3514.155	198.12
3517.027	187.12
3519.897	174.12
3522.764	166.12
3525.629	148.12
3528.492	150.12
3531.352	159.12
3534.211	150.12
3537.067	138.12
3539.921	136.12
3542.773	135.12
3545.622	113.12
3548.469	104.12
3551.315	99.12
3554.157	108.12
3556.998	98.12
3559.837	99.12
3562.673	106.12
3565.507	88.12
3568.339	79.12
3571.169	81.12
3573.996	81.12
3576.822	55.12
3579.645	65.12
3582.466	70.12
3585.285	72.12
3588.101	64.12
3590.916	57.12
3593.728	68.12
3596.538	50.12
3599.346	50.12
3602.152	44.12
3604.956	49.12
3607.757	46.12
3610.556	23.12
3613.354	38.12
3616.149	44.12
3618.942	36.12
3621.732	35.12
3624.521	26.12
3627.307	13.12
3630.092	18.12
3632.874	34.12
3635.654	23.12
3638.432	15.12
3641.208	16.12
3643.982	16.12
3646.753	23.12
3649.523	-7.88
3652.29	8.12
3655.055	14.12
3657.818	11.12
3660.579	7.12
3663.338	-3.88
3666.095	0.12
3668.849	-27.88
3671.602	9.12
3674.352	-15.88
3677.101	9.12
3679.847	2.12
3682.591	-12.88
3685.333	-16.88
3688.073	-7.88
3690.811	-16.88
3693.547	-26.88
3696.281	-21.88
3699.013	-3.88
3701.742	-18.88
3704.47	-23.88
3707.195	-9.88
3709.919	-12.88
3712.64	-16.88
3715.359	-26.88
3718.076	-5.88
3720.792	-17.88
3723.505	-14.88
3726.216	-6.88
3728.925	-16.88
3731.632	-26.88
3734.336	-21.88
3737.039	-23.88
3739.74	-16.88
3742.439	-38.88
3745.136	-15.88
3747.83	-18.88
3750.523	-13.88
3753.213	-83.88
3755.902	-27.88
3758.589	-34.88
3761.273	-28.88
3763.956	-13.88
3766.636	-36.88
3769.315	-13.88
3771.991	-18.88
3774.665	-30.88
3777.338	-22.88
3780.008	-34.88
3782.677	-21.88
3785.343	-39.88
3788.007	-41.88
3790.67	-20.88
3793.33	-35.88
3795.989	-29.88
3798.645	-21.88
3801.299	-37.88
3803.952	-32.88
3806.602	-25.88
3809.251	-20.88
3811.897	-25.88
3814.542	-26.88
3817.184	-28.88
3819.825	-24.88
3822.463	-35.88
3825.1	-32.88
3827.735	-27.88
3830.367	-32.88
3832.998	-14.88
3835.627	-30.88
3838.253	-19.88
3840.878	-28.88
3843.501	-13.88
3846.122	-21.88
3848.741	-22.88
3851.358	-19.88
3853.973	-32.88
3856.586	-19.88
3859.197	-36.88
3861.806	-26.88
3864.414	-36.88
3867.019	-23.88
3869.622	-10.88
3872.224	-8.88
3874.823	15.12
3877.421	47.12
3880.016	69.12
3882.61	130.12
3885.202	147.12
3887.792	109.12
3890.38	63.12
3892.966	5.12
3895.55	-24.88
3898.132	-13.88
3900.713	-18.88
3903.291	-24.88
3905.868	-34.88
3908.442	-29.88
3911.015	-31.88
3913.586	-34.88
3916.155	-26.88
3918.722	-32.88
3921.287	-35.88
3923.85	-43.88
3926.411	-34.88
3928.971	-36.88
3931.528	-22.88
3934.084	-31.88
3936.638	-41.88
3939.19	-24.88
3941.74	-27.88
3944.288	-32.88
3946.834	-32.88
3949.378	-23.88
3951.921	-32.88
3954.462	-33.88
3957	-23.88
3959.537	-14.88
3962.072	-34.88
3964.606	-45.88
3967.137	-37.88
3969.667	-35.88
3972.194	-26.88
3974.72	-33.88
3977.244	-54.88
3979.766	-39.88
3982.286	-37.88
3984.805	-27.88
3987.321	-17.88
3989.836	-26.88
3992.349	-37.88
3994.86	-23.88
3997.369	-35.88
3999.877	-28.88
4002.382	-34.88
4004.886	-22.88
4007.388	-25.88
4009.888	-19.88
4012.386	-22.88
4014.883	-28.88
4017.377	-30.88
4019.87	-30.88
4022.361	-39.88
4024.85	-29.88
4027.338	-25.88
4029.823	-32.88
4032.307	-31.88
4034.789	-23.88
4037.269	-28.88
4039.747	-35.88
4042.224	-17.88
4044.699	-35.88
4047.172	-35.88
4049.643	-21.88
4052.112	-49.88
4054.58	-23.88
4057.046	-37.88
4059.51	-32.88
4061.972	-28.88
4064.432	-43.88
4066.891	-23.88
4069.348	-28.88
4071.803	-25.88
4074.256	-30.88
4076.708	-22.88
4079.158	-28.88
4081.606	-14.88
4084.052	-25.88
4086.497	-25.88
4088.939	-25.88
4091.38	-35.88
4093.819	-22.88
4096.257	3.12
4098.693	-5.88
4101.127	-4.88
4103.559	-0.88
4105.989	160.12
4108.418	161.12
4110.845	152.12
4113.27	157.12
4115.694	163.12
4118.115	157.12
4120.535	-27.88
4122.954	-18.88
4125.37	-18.88
4127.785	-23.88
4130.198	-20.88
4132.609	-27.88
4135.019	6.12
4137.427	0.12
4139.833	6.12
4142.237	-3.88
