Data from 2018-3-6_conc=4_n=8_RamanShift_01.txt Node
Date: Tue Mar 06 14:12:48 GMT+02:00 2018
User: LAB3
Spectrometer: QEPB0276
Trigger mode: 0
Integration Time (sec): 3.000000E1
Scans to average: 1
Electric dark correction enabled: true
Nonlinearity correction enabled: false
Boxcar width: 0
XAxis mode: Raman Shifts
Number of Pixels in Spectrum: 1044
>>>>>Begin Spectral Data<<<<<
160.701	79.5
166.742	110.5
172.777	147.5
178.805	301.5
184.826	663.5
190.841	1330.5
196.849	2062.5
202.85	2599.5
208.845	2786.5
214.833	2734.5
220.815	2682.5
226.789	2646.5
232.758	2664.5
238.719	2636.5
244.674	2585.5
250.623	2555.5
256.565	2511.5
262.5	2491.5
268.429	2443.5
274.351	2419.5
280.267	2406.5
286.176	2404.5
292.079	2386.5
297.975	2387.5
303.865	2348.5
309.748	2350.5
315.625	2354.5
321.495	2370.5
327.359	2369.5
333.217	2367.5
339.068	2368.5
344.912	2376.5
350.751	2375.5
356.583	2377.5
362.408	2389.5
368.227	2396.5
374.04	2392.5
379.847	2395.5
385.647	2426.5
391.44	2435.5
397.228	2446.5
403.009	2436.5
408.784	2440.5
414.553	2464.5
420.315	2477.5
426.071	2456.5
431.821	2492.5
437.565	2479.5
443.302	2471.5
449.033	2431.5
454.758	2447.5
460.477	2399.5
466.189	2401.5
471.896	2362.5
477.596	2337.5
483.29	2323.5
488.978	2330.5
494.66	2317.5
500.335	2233.5
506.005	2145.5
511.668	2042.5
517.325	1947.5
522.977	1869.5
528.622	1801.5
534.261	1746.5
539.894	1713.5
545.521	1707.5
551.141	1654.5
556.756	1633.5
562.365	1635.5
567.968	1617.5
573.565	1600.5
579.155	1614.5
584.74	1599.5
590.319	1584.5
595.892	1588.5
601.459	1598.5
607.02	1593.5
612.575	1568.5
618.124	1568.5
623.667	1524.5
629.204	1517.5
634.735	1487.5
640.261	1474.5
645.781	1424.5
651.294	1432.5
656.802	1462.5
662.304	1455.5
667.8	1458.5
673.29	1435.5
678.775	1433.5
684.254	1436.5
689.726	1406.5
695.193	1413.5
700.655	1410.5
706.11	1391.5
711.56	1390.5
717.004	1382.5
722.442	1356.5
727.874	1335.5
733.301	1366.5
738.722	1358.5
744.137	1353.5
749.547	1340.5
754.951	1344.5
760.349	1336.5
765.741	1358.5
771.128	1374.5
776.509	1374.5
781.885	1386.5
787.254	1421.5
792.618	1416.5
797.977	1430.5
803.33	1416.5
808.677	1415.5
814.019	1392.5
819.355	1375.5
824.686	1353.5
830.011	1346.5
835.33	1361.5
840.644	1347.5
845.952	1338.5
851.255	1323.5
856.552	1330.5
861.844	1294.5
867.13	1266.5
872.41	1268.5
877.686	1251.5
882.955	1251.5
888.219	1225.5
893.478	1199.5
898.731	1211.5
903.979	1221.5
909.221	1174.5
914.458	1173.5
919.69	1176.5
924.916	1169.5
930.136	1158.5
935.351	1161.5
940.561	1179.5
945.766	1168.5
950.965	1165.5
956.158	1151.5
961.347	1133.5
966.529	1122.5
971.707	1129.5
976.879	1121.5
982.046	1092.5
987.208	1082.5
992.364	1103.5
997.515	1089.5
1002.66	1093.5
1007.801	1095.5
1012.936	1116.5
1018.066	1082.5
1023.19	1116.5
1028.309	1112.5
1033.423	1124.5
1038.532	1126.5
1043.636	1111.5
1048.734	1108.5
1053.827	1080.5
1058.915	1078.5
1063.998	1059.5
1069.075	1059.5
1074.147	1072.5
1079.214	1052.5
1084.276	1075.5
1089.333	1086.5
1094.385	1088.5
1099.431	1080.5
1104.472	1076.5
1109.509	1043.5
1114.54	1048.5
1119.565	1034.5
1124.586	1015.5
1129.602	1008.5
1134.613	985.5
1139.618	978.5
1144.619	994.5
1149.614	993.5
1154.604	992.5
1159.589	981.5
1164.57	1009.5
1169.545	1027.5
1174.515	1007.5
1179.48	1009.5
1184.44	997.5
1189.395	1002.5
1194.345	978.5
1199.29	979.5
1204.23	962.5
1209.165	960.5
1214.095	980.5
1219.021	977.5
1223.941	974.5
1228.856	983.5
1233.766	994.5
1238.672	1001.5
1243.572	996.5
1248.467	983.5
1253.358	965.5
1258.244	943.5
1263.124	942.5
1268	930.5
1272.871	905.5
1277.737	902.5
1282.599	893.5
1287.455	892.5
1292.306	899.5
1297.153	892.5
1301.995	892.5
1306.832	901.5
1311.664	903.5
1316.491	895.5
1321.314	900.5
1326.132	870.5
1330.945	888.5
1335.753	877.5
1340.556	848.5
1345.354	837.5
1350.148	809.5
1354.937	813.5
1359.722	801.5
1364.501	790.5
1369.276	788.5
1374.046	805.5
1378.811	779.5
1383.572	798.5
1388.327	785.5
1393.079	765.5
1397.825	758.5
1402.567	770.5
1407.304	764.5
1412.036	755.5
1416.764	759.5
1421.487	747.5
1426.205	742.5
1430.919	752.5
1435.628	753.5
1440.333	761.5
1445.032	773.5
1449.727	761.5
1454.418	783.5
1459.104	784.5
1463.785	770.5
1468.462	763.5
1473.134	745.5
1477.802	731.5
1482.465	691.5
1487.123	715.5
1491.777	688.5
1496.426	679.5
1501.071	707.5
1505.711	682.5
1510.347	703.5
1514.978	697.5
1519.604	688.5
1524.226	704.5
1528.844	692.5
1533.457	697.5
1538.065	694.5
1542.669	696.5
1547.269	688.5
1551.864	688.5
1556.454	663.5
1561.041	667.5
1565.622	674.5
1570.199	689.5
1574.772	694.5
1579.34	705.5
1583.904	705.5
1588.464	711.5
1593.019	713.5
1597.569	703.5
1602.115	699.5
1606.657	705.5
1611.195	714.5
1615.728	711.5
1620.256	701.5
1624.78	677.5
1629.3	696.5
1633.816	699.5
1638.327	690.5
1642.834	706.5
1647.336	692.5
1651.834	711.5
1656.328	702.5
1660.817	699.5
1665.302	688.5
1669.783	673.5
1674.259	654.5
1678.732	657.5
1683.199	631.5
1687.663	607.5
1692.122	598.5
1696.577	593.5
1701.028	585.5
1705.474	550.5
1709.917	543.5
1714.355	544.5
1718.788	548.5
1723.218	520.5
1727.643	517.5
1732.064	521.5
1736.481	510.5
1740.893	507.5
1745.301	496.5
1749.705	468.5
1754.105	471.5
1758.501	449.5
1762.893	469.5
1767.28	429.5
1771.663	447.5
1776.042	426.5
1780.417	431.5
1784.787	423.5
1789.154	443.5
1793.516	431.5
1797.874	422.5
1802.228	422.5
1806.578	409.5
1810.924	424.5
1815.266	305.5
1819.603	420.5
1823.937	407.5
1828.266	407.5
1832.591	407.5
1836.913	401.5
1841.23	396.5
1845.543	395.5
1849.852	405.5
1854.156	396.5
1858.457	395.5
1862.754	390.5
1867.047	407.5
1871.335	399.5
1875.62	395.5
1879.9	401.5
1884.177	388.5
1888.449	399.5
1892.718	396.5
1896.982	394.5
1901.243	369.5
1905.499	387.5
1909.752	367.5
1914	356.5
1918.245	380.5
1922.485	376.5
1926.722	367.5
1930.954	360.5
1935.183	366.5
1939.408	375.5
1943.628	371.5
1947.845	369.5
1952.058	364.5
1956.267	358.5
1960.472	360.5
1964.673	351.5
1968.87	345.5
1973.063	344.5
1977.252	337.5
1981.438	337.5
1985.619	335.5
1989.797	325.5
1993.971	327.5
1998.14	342.5
2002.306	336.5
2006.469	346.5
2010.627	317.5
2014.781	321.5
2018.932	315.5
2023.078	341.5
2027.221	325.5
2031.36	310.5
2035.495	310.5
2039.627	314.5
2043.754	310.5
2047.878	309.5
2051.998	293.5
2056.114	299.5
2060.226	308.5
2064.334	305.5
2068.439	309.5
2072.54	315.5
2076.637	297.5
2080.73	295.5
2084.82	303.5
2088.906	287.5
2092.988	295.5
2097.066	296.5
2101.14	302.5
2105.211	292.5
2109.278	285.5
2113.342	286.5
2117.401	272.5
2121.457	264.5
2125.509	266.5
2129.558	275.5
2133.602	271.5
2137.643	275.5
2141.681	268.5
2145.714	274.5
2149.744	269.5
2153.77	273.5
2157.793	256.5
2161.812	233.5
2165.827	231.5
2169.838	266.5
2173.846	238.5
2177.851	240.5
2181.851	257.5
2185.848	240.5
2189.841	249.5
2193.831	239.5
2197.817	237.5
2201.799	232.5
2205.778	222.5
2209.753	224.5
2213.725	224.5
2217.693	227.5
2221.657	212.5
2225.618	228.5
2229.575	225.5
2233.529	223.5
2237.479	233.5
2241.425	220.5
2245.368	211.5
2249.307	213.5
2253.243	206.5
2257.175	204.5
2261.104	198.5
2265.029	212.5
2268.95	201.5
2272.868	199.5
2276.783	186.5
2280.694	194.5
2284.601	186.5
2288.505	185.5
2292.405	199.5
2296.302	168.5
2300.195	182.5
2304.085	151.5
2307.971	179.5
2311.854	151.5
2315.734	169.5
2319.609	169.5
2323.482	149.5
2327.351	162.5
2331.216	162.5
2335.078	171.5
2338.937	159.5
2342.792	154.5
2346.643	155.5
2350.492	163.5
2354.336	154.5
2358.178	165.5
2362.015	161.5
2365.85	156.5
2369.681	156.5
2373.508	159.5
2377.333	163.5
2381.153	161.5
2384.971	154.5
2388.785	160.5
2392.595	146.5
2396.402	152.5
2400.206	128.5
2404.007	140.5
2407.804	147.5
2411.597	155.5
2415.388	140.5
2419.174	142.5
2422.958	140.5
2426.738	139.5
2430.515	143.5
2434.289	133.5
2438.059	133.5
2441.825	137.5
2445.589	150.5
2449.349	130.5
2453.106	136.5
2456.859	133.5
2460.61	135.5
2464.356	132.5
2468.1	121.5
2471.84	121.5
2475.577	124.5
2479.311	116.5
2483.041	119.5
2486.768	130.5
2490.492	130.5
2494.213	118.5
2497.93	109.5
2501.644	109.5
2505.355	108.5
2509.062	118.5
2512.766	114.5
2516.467	111.5
2520.165	113.5
2523.859	100.5
2527.551	128.5
2531.239	102.5
2534.923	117.5
2538.605	104.5
2542.283	112.5
2545.958	110.5
2549.63	118.5
2553.299	113.5
2556.964	97.5
2560.626	104.5
2564.285	106.5
2567.941	94.5
2571.594	93.5
2575.243	108.5
2578.89	94.5
2582.533	101.5
2586.173	102.5
2589.809	104.5
2593.443	76.5
2597.073	95.5
2600.701	105.5
2604.325	97.5
2607.946	80.5
2611.564	99.5
2615.178	99.5
2618.79	95.5
2622.398	81.5
2626.004	97.5
2629.606	96.5
2633.205	79.5
2636.801	94.5
2640.394	84.5
2643.983	82.5
2647.57	80.5
2651.153	77.5
2654.734	88.5
2658.311	62.5
2661.885	72.5
2665.456	74.5
2669.025	76.5
2672.589	70.5
2676.151	94.5
2679.71	88.5
2683.266	79.5
2686.819	112.5
2690.368	374.5
2693.915	82.5
2697.458	72.5
2700.999	82.5
2704.536	72.5
2708.071	67.5
2711.602	75.5
2715.13	65.5
2718.656	49.5
2722.178	69.5
2725.697	58.5
2729.214	62.5
2732.727	66.5
2736.237	48.5
2739.744	63.5
2743.249	55.5
2746.75	56.5
2750.248	50.5
2753.743	60.5
2757.236	55.5
2760.725	65.5
2764.211	27.5
2767.695	62.5
2771.175	57.5
2774.652	60.5
2778.127	49.5
2781.598	57.5
2785.067	60.5
2788.532	50.5
2791.995	60.5
2795.455	54.5
2798.911	59.5
2802.365	60.5
2805.816	65.5
2809.264	64.5
2812.709	54.5
2816.151	57.5
2819.59	51.5
2823.026	54.5
2826.46	54.5
2829.89	66.5
2833.318	30.5
2836.742	58.5
2840.164	59.5
2843.583	54.5
2846.999	57.5
2850.412	59.5
2853.822	46.5
2857.229	65.5
2860.634	60.5
2864.035	44.5
2867.434	65.5
2870.83	64.5
2874.223	54.5
2877.613	63.5
2881	54.5
2884.385	62.5
2887.766	59.5
2891.145	62.5
2894.521	64.5
2897.894	56.5
2901.264	70.5
2904.631	70.5
2907.996	72.5
2911.358	82.5
2914.717	81.5
2918.073	315.5
2921.426	151.5
2924.777	57.5
2928.124	67.5
2931.469	78.5
2934.811	68.5
2938.15	90.5
2941.487	72.5
2944.821	92.5
2948.152	77.5
2951.48	90.5
2954.805	69.5
2958.128	92.5
2961.447	78.5
2964.765	93.5
2968.079	83.5
2971.39	89.5
2974.699	82.5
2978.005	87.5
2981.308	81.5
2984.609	74.5
2987.907	93.5
2991.202	89.5
2994.494	75.5
2997.784	92.5
3001.07	85.5
3004.355	91.5
3007.636	91.5
3010.915	94.5
3014.191	91.5
3017.464	94.5
3020.734	95.5
3024.002	95.5
3027.267	96.5
3030.53	102.5
3033.789	92.5
3037.046	96.5
3040.301	98.5
3043.552	98.5
3046.801	106.5
3050.048	110.5
3053.291	134.5
3056.532	118.5
3059.771	101.5
3063.006	128.5
3066.239	121.5
3069.469	136.5
3072.697	119.5
3075.922	125.5
3079.144	124.5
3082.364	150.5
3085.581	135.5
3088.795	156.5
3092.007	148.5
3095.216	160.5
3098.423	156.5
3101.627	138.5
3104.828	168.5
3108.026	163.5
3111.222	184.5
3114.416	180.5
3117.607	186.5
3120.795	185.5
3123.98	186.5
3127.163	174.5
3130.344	187.5
3133.521	186.5
3136.696	205.5
3139.869	204.5
3143.039	195.5
3146.206	219.5
3149.371	223.5
3152.533	220.5
3155.693	199.5
3158.85	222.5
3162.005	235.5
3165.157	228.5
3168.306	222.5
3171.453	232.5
3174.597	212.5
3177.739	215.5
3180.878	225.5
3184.014	226.5
3187.149	230.5
3190.28	230.5
3193.409	229.5
3196.536	235.5
3199.659	234.5
3202.781	238.5
3205.9	225.5
3209.016	236.5
3212.13	242.5
3215.241	231.5
3218.35	230.5
3221.456	217.5
3224.56	210.5
3227.661	220.5
3230.76	212.5
3233.856	203.5
3236.95	221.5
3240.041	199.5
3243.13	216.5
3246.216	213.5
3249.3	218.5
3252.382	212.5
3255.46	190.5
3258.537	156.5
3261.611	199.5
3264.682	201.5
3267.751	200.5
3270.818	192.5
3273.882	203.5
3276.943	198.5
3280.002	210.5
3283.059	194.5
3286.113	190.5
3289.165	190.5
3292.214	180.5
3295.261	195.5
3298.306	186.5
3301.348	189.5
3304.387	173.5
3307.425	185.5
3310.459	178.5
3313.492	183.5
3316.521	173.5
3319.549	185.5
3322.574	178.5
3325.597	176.5
3328.617	162.5
3331.635	162.5
3334.65	153.5
3337.663	178.5
3340.674	163.5
3343.682	167.5
3346.688	175.5
3349.691	165.5
3352.692	167.5
3355.691	169.5
3358.687	165.5
3361.681	171.5
3364.673	163.5
3367.662	160.5
3370.649	173.5
3373.633	145.5
3376.615	158.5
3379.595	135.5
3382.572	147.5
3385.547	129.5
3388.52	132.5
3391.49	138.5
3394.458	134.5
3397.424	137.5
3400.387	129.5
3403.348	133.5
3406.307	134.5
3409.263	126.5
3412.217	146.5
3415.168	137.5
3418.118	136.5
3421.065	129.5
3424.009	133.5
3426.951	124.5
3429.891	116.5
3432.829	121.5
3435.764	117.5
3438.697	106.5
3441.628	119.5
3444.557	95.5
3447.483	102.5
3450.407	107.5
3453.328	93.5
3456.247	86.5
3459.164	88.5
3462.079	102.5
3464.991	89.5
3467.902	83.5
3470.809	85.5
3473.715	85.5
3476.618	75.5
3479.519	74.5
3482.418	54.5
3485.315	61.5
3488.209	53.5
3491.101	62.5
3493.99	49.5
3496.878	54.5
3499.763	52.5
3502.646	56.5
3505.527	41.5
3508.405	45.5
3511.281	34.5
3514.155	44.5
3517.027	36.5
3519.897	30.5
3522.764	39.5
3525.629	16.5
3528.492	28.5
3531.352	32.5
3534.211	28.5
3537.067	22.5
3539.921	26.5
3542.773	28.5
3545.622	11.5
3548.469	10.5
3551.315	4.5
3554.157	17.5
3556.998	3.5
3559.837	6.5
3562.673	11.5
3565.507	2.5
3568.339	-1.5
3571.169	9.5
3573.996	-0.5
3576.822	-9.5
3579.645	-6.5
3582.466	-2.5
3585.285	5.5
3588.101	-1.5
3590.916	-3.5
3593.728	6.5
3596.538	-8.5
3599.346	1.5
3602.152	-7.5
3604.956	-7.5
3607.757	-0.5
3610.556	-19.5
3613.354	-4.5
3616.149	-7.5
3618.942	-5.5
3621.732	-4.5
3624.521	-18.5
3627.307	-25.5
3630.092	-17.5
3632.874	-4.5
3635.654	-15.5
3638.432	-23.5
3641.208	-15.5
3643.982	-15.5
3646.753	-9.5
3649.523	-41.5
3652.29	-21.5
3655.055	-14.5
3657.818	-17.5
3660.579	-27.5
3663.338	-31.5
3666.095	-24.5
3668.849	-49.5
3671.602	-17.5
3674.352	-34.5
3677.101	-13.5
3679.847	-12.5
3682.591	-32.5
3685.333	-38.5
3688.073	-23.5
3690.811	-31.5
3693.547	-31.5
3696.281	-39.5
3699.013	-25.5
3701.742	-31.5
3704.47	-43.5
3707.195	-24.5
3709.919	-30.5
3712.64	-26.5
3715.359	-41.5
3718.076	-14.5
3720.792	-29.5
3723.505	-24.5
3726.216	-18.5
3728.925	-30.5
3731.632	-33.5
3734.336	-28.5
3737.039	-26.5
3739.74	-25.5
3742.439	-53.5
3745.136	-26.5
3747.83	-28.5
3750.523	-28.5
3753.213	-86.5
3755.902	-31.5
3758.589	-45.5
3761.273	-36.5
3763.956	-25.5
3766.636	-44.5
3769.315	-21.5
3771.991	-32.5
3774.665	-32.5
3777.338	-28.5
3780.008	-40.5
3782.677	-33.5
3785.343	-46.5
3788.007	-50.5
3790.67	-28.5
3793.33	-41.5
3795.989	-38.5
3798.645	-31.5
3801.299	-43.5
3803.952	-45.5
3806.602	-36.5
3809.251	-26.5
3811.897	-33.5
3814.542	-35.5
3817.184	-33.5
3819.825	-30.5
3822.463	-44.5
3825.1	-36.5
3827.735	-34.5
3830.367	-43.5
3832.998	-19.5
3835.627	-35.5
3838.253	-25.5
3840.878	-35.5
3843.501	-15.5
3846.122	-28.5
3848.741	-26.5
3851.358	-25.5
3853.973	-41.5
3856.586	-23.5
3859.197	-38.5
3861.806	-35.5
3864.414	-41.5
3867.019	-30.5
3869.622	-20.5
3872.224	-17.5
3874.823	-12.5
3877.421	13.5
3880.016	28.5
3882.61	61.5
3885.202	82.5
3887.792	63.5
3890.38	28.5
3892.966	-11.5
3895.55	-31.5
3898.132	-21.5
3900.713	-23.5
3903.291	-28.5
3905.868	-37.5
3908.442	-31.5
3911.015	-30.5
3913.586	-35.5
3916.155	-34.5
3918.722	-34.5
3921.287	-38.5
3923.85	-42.5
3926.411	-37.5
3928.971	-33.5
3931.528	-30.5
3934.084	-41.5
3936.638	-41.5
3939.19	-31.5
3941.74	-28.5
3944.288	-35.5
3946.834	-32.5
3949.378	-24.5
3951.921	-41.5
3954.462	-36.5
3957	-26.5
3959.537	-23.5
3962.072	-34.5
3964.606	-46.5
3967.137	-36.5
3969.667	-36.5
3972.194	-24.5
3974.72	-35.5
3977.244	-53.5
3979.766	-37.5
3982.286	-42.5
3984.805	-33.5
3987.321	-22.5
3989.836	-28.5
3992.349	-37.5
3994.86	-29.5
3997.369	-36.5
3999.877	-33.5
4002.382	-33.5
4004.886	-27.5
4007.388	-32.5
4009.888	-29.5
4012.386	-23.5
4014.883	-27.5
4017.377	-29.5
4019.87	-26.5
4022.361	-39.5
4024.85	-33.5
4027.338	-29.5
4029.823	-40.5
4032.307	-34.5
4034.789	-26.5
4037.269	-33.5
4039.747	-44.5
4042.224	-24.5
4044.699	-35.5
4047.172	-34.5
4049.643	-24.5
4052.112	-54.5
4054.58	-29.5
4057.046	-42.5
4059.51	-32.5
4061.972	-31.5
4064.432	-51.5
4066.891	-24.5
4069.348	-33.5
4071.803	-30.5
4074.256	-35.5
4076.708	-28.5
4079.158	-30.5
4081.606	-23.5
4084.052	-29.5
4086.497	-22.5
4088.939	-32.5
4091.38	-36.5
4093.819	-28.5
4096.257	0.5
4098.693	-3.5
4101.127	-7.5
4103.559	3.5
4105.989	94.5
4108.418	86.5
4110.845	74.5
4113.27	80.5
4115.694	91.5
4118.115	75.5
4120.535	-31.5
4122.954	-20.5
4125.37	-21.5
4127.785	-28.5
4130.198	-24.5
4132.609	-28.5
4135.019	8.5
4137.427	0.5
4139.833	3.5
4142.237	-5.5
