Data from 2018-3-6_conc=5_n=1_RamanShift_03.txt Node
Date: Tue Mar 06 14:23:18 GMT+02:00 2018
User: LAB3
Spectrometer: QEPB0276
Trigger mode: 0
Integration Time (sec): 3.000000E1
Scans to average: 1
Electric dark correction enabled: true
Nonlinearity correction enabled: false
Boxcar width: 0
XAxis mode: Raman Shifts
Number of Pixels in Spectrum: 1044
>>>>>Begin Spectral Data<<<<<
160.701	54.75
166.742	82.75
172.777	119.75
178.805	241.75
184.826	563.75
190.841	1138.75
196.849	1764.75
202.85	2222.75
208.845	2350.75
214.833	2321.75
220.815	2284.75
226.789	2245.75
232.758	2239.75
238.719	2229.75
244.674	2194.75
250.623	2159.75
256.565	2115.75
262.5	2085.75
268.429	2059.75
274.351	2023.75
280.267	2014.75
286.176	2001.75
292.079	2019.75
297.975	1986.75
303.865	1988.75
309.748	1979.75
315.625	1979.75
321.495	1987.75
327.359	1982.75
333.217	1963.75
339.068	1964.75
344.912	1991.75
350.751	1980.75
356.583	1985.75
362.408	1983.75
368.227	1966.75
374.04	1989.75
379.847	1996.75
385.647	2014.75
391.44	2003.75
397.228	2003.75
403.009	2027.75
408.784	2024.75
414.553	2028.75
420.315	2052.75
426.071	2032.75
431.821	2031.75
437.565	2043.75
443.302	2028.75
449.033	2010.75
454.758	2020.75
460.477	2005.75
466.189	1956.75
471.896	1974.75
477.596	1935.75
483.29	1927.75
488.978	1929.75
494.66	1897.75
500.335	1856.75
506.005	1762.75
511.668	1694.75
517.325	1604.75
522.977	1543.75
528.622	1513.75
534.261	1449.75
539.894	1441.75
545.521	1422.75
551.141	1394.75
556.756	1365.75
562.365	1364.75
567.968	1349.75
573.565	1346.75
579.155	1342.75
584.74	1322.75
590.319	1323.75
595.892	1326.75
601.459	1321.75
607.02	1315.75
612.575	1312.75
618.124	1300.75
623.667	1266.75
629.204	1268.75
634.735	1240.75
640.261	1212.75
645.781	1196.75
651.294	1200.75
656.802	1208.75
662.304	1214.75
667.8	1191.75
673.29	1181.75
678.775	1189.75
684.254	1177.75
689.726	1157.75
695.193	1183.75
700.655	1184.75
706.11	1155.75
711.56	1159.75
717.004	1158.75
722.442	1121.75
727.874	1128.75
733.301	1150.75
738.722	1120.75
744.137	1129.75
749.547	1117.75
754.951	1128.75
760.349	1130.75
765.741	1141.75
771.128	1133.75
776.509	1148.75
781.885	1180.75
787.254	1191.75
792.618	1174.75
797.977	1173.75
803.33	1162.75
808.677	1162.75
814.019	1149.75
819.355	1133.75
824.686	1129.75
830.011	1120.75
835.33	1134.75
840.644	1127.75
845.952	1094.75
851.255	1110.75
856.552	1108.75
861.844	1067.75
867.13	1059.75
872.41	1060.75
877.686	1049.75
882.955	1057.75
888.219	1037.75
893.478	997.75
898.731	1019.75
903.979	1001.75
909.221	987.75
914.458	977.75
919.69	980.75
924.916	976.75
930.136	963.75
935.351	981.75
940.561	994.75
945.766	982.75
950.965	981.75
956.158	967.75
961.347	936.75
966.529	939.75
971.707	948.75
976.879	921.75
982.046	912.75
987.208	899.75
992.364	911.75
997.515	902.75
1002.66	925.75
1007.801	914.75
1012.936	932.75
1018.066	907.75
1023.19	936.75
1028.309	940.75
1033.423	934.75
1038.532	950.75
1043.636	932.75
1048.734	933.75
1053.827	896.75
1058.915	907.75
1063.998	901.75
1069.075	877.75
1074.147	916.75
1079.214	871.75
1084.276	903.75
1089.333	885.75
1094.385	922.75
1099.431	898.75
1104.472	896.75
1109.509	876.75
1114.54	867.75
1119.565	858.75
1124.586	841.75
1129.602	837.75
1134.613	816.75
1139.618	820.75
1144.619	815.75
1149.614	833.75
1154.604	819.75
1159.589	816.75
1164.57	841.75
1169.545	859.75
1174.515	841.75
1179.48	836.75
1184.44	834.75
1189.395	839.75
1194.345	802.75
1199.29	811.75
1204.23	797.75
1209.165	801.75
1214.095	815.75
1219.021	816.75
1223.941	815.75
1228.856	813.75
1233.766	833.75
1238.672	829.75
1243.572	830.75
1248.467	811.75
1253.358	784.75
1258.244	769.75
1263.124	788.75
1268	778.75
1272.871	750.75
1277.737	764.75
1282.599	738.75
1287.455	732.75
1292.306	741.75
1297.153	744.75
1301.995	753.75
1306.832	742.75
1311.664	753.75
1316.491	740.75
1321.314	746.75
1326.132	737.75
1330.945	727.75
1335.753	721.75
1340.556	694.75
1345.354	686.75
1350.148	691.75
1354.937	689.75
1359.722	657.75
1364.501	663.75
1369.276	670.75
1374.046	673.75
1378.811	658.75
1383.572	670.75
1388.327	658.75
1393.079	641.75
1397.825	637.75
1402.567	639.75
1407.304	642.75
1412.036	637.75
1416.764	630.75
1421.487	637.75
1426.205	621.75
1430.919	630.75
1435.628	630.75
1440.333	631.75
1445.032	638.75
1449.727	648.75
1454.418	656.75
1459.104	657.75
1463.785	630.75
1468.462	635.75
1473.134	623.75
1477.802	608.75
1482.465	581.75
1487.123	599.75
1491.777	565.75
1496.426	567.75
1501.071	578.75
1505.711	578.75
1510.347	581.75
1514.978	589.75
1519.604	592.75
1524.226	592.75
1528.844	583.75
1533.457	578.75
1538.065	580.75
1542.669	577.75
1547.269	575.75
1551.864	577.75
1556.454	566.75
1561.041	567.75
1565.622	563.75
1570.199	567.75
1574.772	580.75
1579.34	579.75
1583.904	590.75
1588.464	600.75
1593.019	602.75
1597.569	602.75
1602.115	587.75
1606.657	583.75
1611.195	597.75
1615.728	587.75
1620.256	574.75
1624.78	559.75
1629.3	581.75
1633.816	572.75
1638.327	573.75
1642.834	586.75
1647.336	581.75
1651.834	590.75
1656.328	577.75
1660.817	581.75
1665.302	569.75
1669.783	556.75
1674.259	548.75
1678.732	550.75
1683.199	535.75
1687.663	507.75
1692.122	507.75
1696.577	498.75
1701.028	498.75
1705.474	476.75
1709.917	455.75
1714.355	459.75
1718.788	451.75
1723.218	450.75
1727.643	424.75
1732.064	440.75
1736.481	412.75
1740.893	427.75
1745.301	408.75
1749.705	379.75
1754.105	402.75
1758.501	385.75
1762.893	388.75
1767.28	369.75
1771.663	370.75
1776.042	365.75
1780.417	361.75
1784.787	367.75
1789.154	367.75
1793.516	367.75
1797.874	353.75
1802.228	344.75
1806.578	354.75
1810.924	365.75
1815.266	241.75
1819.603	355.75
1823.937	337.75
1828.266	344.75
1832.591	348.75
1836.913	345.75
1841.23	338.75
1845.543	325.75
1849.852	339.75
1854.156	324.75
1858.457	331.75
1862.754	319.75
1867.047	332.75
1871.335	342.75
1875.62	334.75
1879.9	329.75
1884.177	327.75
1888.449	333.75
1892.718	336.75
1896.982	334.75
1901.243	314.75
1905.499	311.75
1909.752	309.75
1914	297.75
1918.245	317.75
1922.485	323.75
1926.722	315.75
1930.954	301.75
1935.183	323.75
1939.408	326.75
1943.628	319.75
1947.845	310.75
1952.058	307.75
1956.267	298.75
1960.472	304.75
1964.673	292.75
1968.87	298.75
1973.063	287.75
1977.252	294.75
1981.438	281.75
1985.619	271.75
1989.797	271.75
1993.971	272.75
1998.14	284.75
2002.306	266.75
2006.469	283.75
2010.627	268.75
2014.781	268.75
2018.932	268.75
2023.078	279.75
2027.221	273.75
2031.36	260.75
2035.495	257.75
2039.627	263.75
2043.754	259.75
2047.878	246.75
2051.998	253.75
2056.114	257.75
2060.226	253.75
2064.334	257.75
2068.439	264.75
2072.54	259.75
2076.637	248.75
2080.73	249.75
2084.82	254.75
2088.906	241.75
2092.988	241.75
2097.066	251.75
2101.14	252.75
2105.211	246.75
2109.278	237.75
2113.342	235.75
2117.401	233.75
2121.457	218.75
2125.509	219.75
2129.558	227.75
2133.602	232.75
2137.643	226.75
2141.681	226.75
2145.714	224.75
2149.744	231.75
2153.77	225.75
2157.793	207.75
2161.812	187.75
2165.827	194.75
2169.838	221.75
2173.846	203.75
2177.851	200.75
2181.851	207.75
2185.848	207.75
2189.841	202.75
2193.831	197.75
2197.817	194.75
2201.799	192.75
2205.778	183.75
2209.753	188.75
2213.725	172.75
2217.693	191.75
2221.657	182.75
2225.618	187.75
2229.575	182.75
2233.529	184.75
2237.479	190.75
2241.425	175.75
2245.368	170.75
2249.307	172.75
2253.243	164.75
2257.175	175.75
2261.104	159.75
2265.029	162.75
2268.95	166.75
2272.868	156.75
2276.783	153.75
2280.694	164.75
2284.601	154.75
2288.505	147.75
2292.405	157.75
2296.302	139.75
2300.195	146.75
2304.085	106.75
2307.971	144.75
2311.854	122.75
2315.734	141.75
2319.609	141.75
2323.482	111.75
2327.351	125.75
2331.216	131.75
2335.078	134.75
2338.937	133.75
2342.792	121.75
2346.643	117.75
2350.492	135.75
2354.336	124.75
2358.178	132.75
2362.015	132.75
2365.85	123.75
2369.681	118.75
2373.508	129.75
2377.333	134.75
2381.153	121.75
2384.971	122.75
2388.785	130.75
2392.595	114.75
2396.402	109.75
2400.206	97.75
2404.007	110.75
2407.804	117.75
2411.597	124.75
2415.388	111.75
2419.174	109.75
2422.958	120.75
2426.738	113.75
2430.515	112.75
2434.289	103.75
2438.059	103.75
2441.825	112.75
2445.589	114.75
2449.349	93.75
2453.106	116.75
2456.859	107.75
2460.61	108.75
2464.356	104.75
2468.1	88.75
2471.84	87.75
2475.577	92.75
2479.311	91.75
2483.041	97.75
2486.768	104.75
2490.492	107.75
2494.213	101.75
2497.93	85.75
2501.644	81.75
2505.355	90.75
2509.062	87.75
2512.766	86.75
2516.467	84.75
2520.165	84.75
2523.859	71.75
2527.551	107.75
2531.239	79.75
2534.923	86.75
2538.605	85.75
2542.283	83.75
2545.958	86.75
2549.63	96.75
2553.299	89.75
2556.964	71.75
2560.626	84.75
2564.285	84.75
2567.941	70.75
2571.594	68.75
2575.243	86.75
2578.89	73.75
2582.533	77.75
2586.173	71.75
2589.809	83.75
2593.443	48.75
2597.073	73.75
2600.701	76.75
2604.325	72.75
2607.946	65.75
2611.564	89.75
2615.178	75.75
2618.79	71.75
2622.398	58.75
2626.004	69.75
2629.606	71.75
2633.205	61.75
2636.801	71.75
2640.394	68.75
2643.983	63.75
2647.57	61.75
2651.153	60.75
2654.734	70.75
2658.311	43.75
2661.885	51.75
2665.456	55.75
2669.025	62.75
2672.589	60.75
2676.151	68.75
2679.71	67.75
2683.266	53.75
2686.819	47.75
2690.368	55.75
2693.915	62.75
2697.458	50.75
2700.999	61.75
2704.536	58.75
2708.071	54.75
2711.602	56.75
2715.13	53.75
2718.656	31.75
2722.178	45.75
2725.697	40.75
2729.214	41.75
2732.727	51.75
2736.237	30.75
2739.744	43.75
2743.249	39.75
2746.75	40.75
2750.248	37.75
2753.743	45.75
2757.236	40.75
2760.725	46.75
2764.211	17.75
2767.695	47.75
2771.175	40.75
2774.652	45.75
2778.127	37.75
2781.598	44.75
2785.067	39.75
2788.532	30.75
2791.995	38.75
2795.455	35.75
2798.911	49.75
2802.365	35.75
2805.816	43.75
2809.264	45.75
2812.709	47.75
2816.151	46.75
2819.59	27.75
2823.026	40.75
2826.46	35.75
2829.89	48.75
2833.318	24.75
2836.742	35.75
2840.164	38.75
2843.583	43.75
2846.999	34.75
2850.412	46.75
2853.822	38.75
2857.229	50.75
2860.634	43.75
2864.035	27.75
2867.434	46.75
2870.83	52.75
2874.223	45.75
2877.613	41.75
2881	32.75
2884.385	39.75
2887.766	42.75
2891.145	47.75
2894.521	38.75
2897.894	35.75
2901.264	50.75
2904.631	47.75
2907.996	54.75
2911.358	57.75
2914.717	48.75
2918.073	43.75
2921.426	40.75
2924.777	33.75
2928.124	45.75
2931.469	61.75
2934.811	41.75
2938.15	62.75
2941.487	55.75
2944.821	75.75
2948.152	52.75
2951.48	60.75
2954.805	42.75
2958.128	71.75
2961.447	54.75
2964.765	71.75
2968.079	49.75
2971.39	57.75
2974.699	60.75
2978.005	62.75
2981.308	54.75
2984.609	58.75
2987.907	62.75
2991.202	72.75
2994.494	51.75
2997.784	66.75
3001.07	62.75
3004.355	57.75
3007.636	64.75
3010.915	66.75
3014.191	60.75
3017.464	66.75
3020.734	69.75
3024.002	72.75
3027.267	70.75
3030.53	68.75
3033.789	71.75
3037.046	74.75
3040.301	66.75
3043.552	77.75
3046.801	84.75
3050.048	86.75
3053.291	101.75
3056.532	88.75
3059.771	77.75
3063.006	96.75
3066.239	87.75
3069.469	93.75
3072.697	91.75
3075.922	96.75
3079.144	88.75
3082.364	121.75
3085.581	96.75
3088.795	126.75
3092.007	117.75
3095.216	126.75
3098.423	111.75
3101.627	95.75
3104.828	125.75
3108.026	119.75
3111.222	136.75
3114.416	143.75
3117.607	128.75
3120.795	137.75
3123.98	139.75
3127.163	136.75
3130.344	141.75
3133.521	141.75
3136.696	158.75
3139.869	154.75
3143.039	139.75
3146.206	176.75
3149.371	170.75
3152.533	164.75
3155.693	157.75
3158.85	173.75
3162.005	176.75
3165.157	173.75
3168.306	175.75
3171.453	179.75
3174.597	165.75
3177.739	165.75
3180.878	178.75
3184.014	179.75
3187.149	175.75
3190.28	177.75
3193.409	181.75
3196.536	177.75
3199.659	183.75
3202.781	181.75
3205.9	177.75
3209.016	174.75
3212.13	180.75
3215.241	176.75
3218.35	181.75
3221.456	169.75
3224.56	164.75
3227.661	169.75
3230.76	163.75
3233.856	157.75
3236.95	162.75
3240.041	152.75
3243.13	167.75
3246.216	160.75
3249.3	161.75
3252.382	159.75
3255.46	149.75
3258.537	114.75
3261.611	146.75
3264.682	152.75
3267.751	151.75
3270.818	143.75
3273.882	155.75
3276.943	146.75
3280.002	164.75
3283.059	136.75
3286.113	145.75
3289.165	139.75
3292.214	139.75
3295.261	150.75
3298.306	130.75
3301.348	142.75
3304.387	119.75
3307.425	133.75
3310.459	126.75
3313.492	142.75
3316.521	124.75
3319.549	143.75
3322.574	138.75
3325.597	129.75
3328.617	126.75
3331.635	130.75
3334.65	113.75
3337.663	127.75
3340.674	122.75
3343.682	130.75
3346.688	131.75
3349.691	120.75
3352.692	122.75
3355.691	129.75
3358.687	122.75
3361.681	122.75
3364.673	116.75
3367.662	122.75
3370.649	120.75
3373.633	108.75
3376.615	114.75
3379.595	100.75
3382.572	101.75
3385.547	97.75
3388.52	98.75
3391.49	99.75
3394.458	104.75
3397.424	107.75
3400.387	90.75
3403.348	102.75
3406.307	100.75
3409.263	100.75
3412.217	105.75
3415.168	96.75
3418.118	104.75
3421.065	92.75
3424.009	104.75
3426.951	79.75
3429.891	82.75
3432.829	88.75
3435.764	87.75
3438.697	78.75
3441.628	85.75
3444.557	71.75
3447.483	66.75
3450.407	71.75
3453.328	67.75
3456.247	63.75
3459.164	61.75
3462.079	73.75
3464.991	64.75
3467.902	60.75
3470.809	59.75
3473.715	67.75
3476.618	57.75
3479.519	56.75
3482.418	34.75
3485.315	37.75
3488.209	43.75
3491.101	43.75
3493.99	25.75
3496.878	34.75
3499.763	33.75
3502.646	36.75
3505.527	29.75
3508.405	25.75
3511.281	12.75
3514.155	28.75
3517.027	21.75
3519.897	11.75
3522.764	20.75
3525.629	0.75
3528.492	17.75
3531.352	21.75
3534.211	14.75
3537.067	10.75
3539.921	11.75
3542.773	9.75
3545.622	0.75
3548.469	-3.25
3551.315	-6.25
3554.157	2.75
3556.998	-3.25
3559.837	1.75
3562.673	2.75
3565.507	-6.25
3568.339	-10.25
3571.169	-10.25
3573.996	-6.25
3576.822	-22.25
3579.645	-18.25
3582.466	-11.25
3585.285	0.75
3588.101	-8.25
3590.916	-15.25
3593.728	-5.25
3596.538	-16.25
3599.346	-8.25
3602.152	-21.25
3604.956	-11.25
3607.757	-11.25
3610.556	-28.25
3613.354	-3.25
3616.149	-13.25
3618.942	-11.25
3621.732	-12.25
3624.521	-18.25
3627.307	-26.25
3630.092	-21.25
3632.874	-11.25
3635.654	-15.25
3638.432	-32.25
3641.208	-27.25
3643.982	-22.25
3646.753	-16.25
3649.523	-46.25
3652.29	-23.25
3655.055	-17.25
3657.818	-18.25
3660.579	-26.25
3663.338	-33.25
3666.095	-30.25
3668.849	-55.25
3671.602	-16.25
3674.352	-36.25
3677.101	-18.25
3679.847	-15.25
3682.591	-34.25
3685.333	-33.25
3688.073	-28.25
3690.811	-34.25
3693.547	-39.25
3696.281	-43.25
3699.013	-23.25
3701.742	-36.25
3704.47	-41.25
3707.195	-26.25
3709.919	-27.25
3712.64	-29.25
3715.359	-38.25
3718.076	-18.25
3720.792	-30.25
3723.505	-27.25
3726.216	-21.25
3728.925	-30.25
3731.632	-36.25
3734.336	-29.25
3737.039	-30.25
3739.74	-30.25
3742.439	-55.25
3745.136	-24.25
3747.83	-26.25
3750.523	-28.25
3753.213	-85.25
3755.902	-30.25
3758.589	-48.25
3761.273	-35.25
3763.956	-25.25
3766.636	-47.25
3769.315	-23.25
3771.991	-28.25
3774.665	-39.25
3777.338	-31.25
3780.008	-39.25
3782.677	-32.25
3785.343	-47.25
3788.007	-50.25
3790.67	-25.25
3793.33	-44.25
3795.989	-40.25
3798.645	-28.25
3801.299	-45.25
3803.952	-39.25
3806.602	-33.25
3809.251	-25.25
3811.897	-35.25
3814.542	-33.25
3817.184	-37.25
3819.825	-35.25
3822.463	-43.25
3825.1	-35.25
3827.735	-35.25
3830.367	-45.25
3832.998	-23.25
3835.627	-35.25
3838.253	-28.25
3840.878	-38.25
3843.501	-15.25
3846.122	-31.25
3848.741	-26.25
3851.358	-30.25
3853.973	-41.25
3856.586	-27.25
3859.197	-40.25
3861.806	-29.25
3864.414	-46.25
3867.019	-29.25
3869.622	-24.25
3872.224	-27.25
3874.823	-19.25
3877.421	7.75
3880.016	16.75
3882.61	41.75
3885.202	48.75
3887.792	26.75
3890.38	7.75
3892.966	-23.25
3895.55	-37.25
3898.132	-28.25
3900.713	-23.25
3903.291	-30.25
3905.868	-41.25
3908.442	-32.25
3911.015	-31.25
3913.586	-38.25
3916.155	-37.25
3918.722	-39.25
3921.287	-42.25
3923.85	-46.25
3926.411	-40.25
3928.971	-42.25
3931.528	-38.25
3934.084	-43.25
3936.638	-47.25
3939.19	-32.25
3941.74	-32.25
3944.288	-40.25
3946.834	-38.25
3949.378	-27.25
3951.921	-39.25
3954.462	-36.25
3957	-35.25
3959.537	-18.25
3962.072	-35.25
3964.606	-51.25
3967.137	-37.25
3969.667	-40.25
3972.194	-26.25
3974.72	-40.25
3977.244	-60.25
3979.766	-40.25
3982.286	-44.25
3984.805	-32.25
3987.321	-27.25
3989.836	-27.25
3992.349	-42.25
3994.86	-37.25
3997.369	-40.25
3999.877	-37.25
4002.382	-40.25
4004.886	-30.25
4007.388	-33.25
4009.888	-26.25
4012.386	-25.25
4014.883	-33.25
4017.377	-33.25
4019.87	-28.25
4022.361	-46.25
4024.85	-35.25
4027.338	-30.25
4029.823	-39.25
4032.307	-33.25
4034.789	-33.25
4037.269	-32.25
4039.747	-43.25
4042.224	-27.25
4044.699	-42.25
4047.172	-37.25
4049.643	-29.25
4052.112	-54.25
4054.58	-36.25
4057.046	-42.25
4059.51	-31.25
4061.972	-33.25
4064.432	-53.25
4066.891	-19.25
4069.348	-34.25
4071.803	-29.25
4074.256	-35.25
4076.708	-29.25
4079.158	-33.25
4081.606	-21.25
4084.052	-34.25
4086.497	-27.25
4088.939	-33.25
4091.38	-40.25
4093.819	-27.25
4096.257	4.75
4098.693	-4.25
4101.127	-7.25
4103.559	0.75
4105.989	61.75
4108.418	59.75
4110.845	47.75
4113.27	56.75
4115.694	63.75
4118.115	51.75
4120.535	-31.25
4122.954	-33.25
4125.37	-21.25
4127.785	-32.25
4130.198	-24.25
4132.609	-28.25
4135.019	4.75
4137.427	1.75
4139.833	3.75
4142.237	-4.25
