Data from 2018-3-6_conc=5_n=3_RamanShift_04.txt Node
Date: Tue Mar 06 14:29:48 GMT+02:00 2018
User: LAB3
Spectrometer: QEPB0276
Trigger mode: 0
Integration Time (sec): 3.000000E1
Scans to average: 1
Electric dark correction enabled: true
Nonlinearity correction enabled: false
Boxcar width: 0
XAxis mode: Raman Shifts
Number of Pixels in Spectrum: 1044
>>>>>Begin Spectral Data<<<<<
160.701	45.88
166.742	73.88
172.777	106.88
178.805	207.88
184.826	506.88
190.841	1005.88
196.849	1596.88
202.85	2028.88
208.845	2170.88
214.833	2164.88
220.815	2108.88
226.789	2089.88
232.758	2084.88
238.719	2061.88
244.674	2044.88
250.623	2018.88
256.565	1982.88
262.5	1957.88
268.429	1933.88
274.351	1895.88
280.267	1881.88
286.176	1898.88
292.079	1902.88
297.975	1893.88
303.865	1880.88
309.748	1850.88
315.625	1848.88
321.495	1869.88
327.359	1861.88
333.217	1862.88
339.068	1842.88
344.912	1855.88
350.751	1870.88
356.583	1856.88
362.408	1868.88
368.227	1871.88
374.04	1875.88
379.847	1874.88
385.647	1887.88
391.44	1888.88
397.228	1902.88
403.009	1902.88
408.784	1887.88
414.553	1907.88
420.315	1916.88
426.071	1908.88
431.821	1927.88
437.565	1946.88
443.302	1917.88
449.033	1902.88
454.758	1896.88
460.477	1876.88
466.189	1858.88
471.896	1850.88
477.596	1826.88
483.29	1789.88
488.978	1818.88
494.66	1778.88
500.335	1753.88
506.005	1667.88
511.668	1603.88
517.325	1512.88
522.977	1450.88
528.622	1432.88
534.261	1391.88
539.894	1366.88
545.521	1343.88
551.141	1323.88
556.756	1311.88
562.365	1283.88
567.968	1290.88
573.565	1269.88
579.155	1277.88
584.74	1257.88
590.319	1267.88
595.892	1267.88
601.459	1262.88
607.02	1249.88
612.575	1255.88
618.124	1238.88
623.667	1205.88
629.204	1193.88
634.735	1197.88
640.261	1161.88
645.781	1137.88
651.294	1135.88
656.802	1135.88
662.304	1170.88
667.8	1155.88
673.29	1140.88
678.775	1143.88
684.254	1144.88
689.726	1102.88
695.193	1138.88
700.655	1111.88
706.11	1105.88
711.56	1099.88
717.004	1107.88
722.442	1090.88
727.874	1093.88
733.301	1090.88
738.722	1062.88
744.137	1078.88
749.547	1069.88
754.951	1075.88
760.349	1079.88
765.741	1094.88
771.128	1088.88
776.509	1100.88
781.885	1119.88
787.254	1127.88
792.618	1121.88
797.977	1136.88
803.33	1119.88
808.677	1097.88
814.019	1105.88
819.355	1093.88
824.686	1077.88
830.011	1071.88
835.33	1079.88
840.644	1097.88
845.952	1052.88
851.255	1060.88
856.552	1052.88
861.844	1041.88
867.13	1016.88
872.41	996.88
877.686	1017.88
882.955	990.88
888.219	987.88
893.478	961.88
898.731	957.88
903.979	946.88
909.221	934.88
914.458	930.88
919.69	926.88
924.916	929.88
930.136	932.88
935.351	917.88
940.561	943.88
945.766	937.88
950.965	934.88
956.158	907.88
961.347	910.88
966.529	903.88
971.707	902.88
976.879	895.88
982.046	871.88
987.208	844.88
992.364	875.88
997.515	853.88
1002.66	879.88
1007.801	862.88
1012.936	886.88
1018.066	862.88
1023.19	889.88
1028.309	904.88
1033.423	885.88
1038.532	906.88
1043.636	876.88
1048.734	875.88
1053.827	864.88
1058.915	849.88
1063.998	852.88
1069.075	837.88
1074.147	853.88
1079.214	840.88
1084.276	860.88
1089.333	849.88
1094.385	857.88
1099.431	847.88
1104.472	866.88
1109.509	840.88
1114.54	819.88
1119.565	814.88
1124.586	819.88
1129.602	793.88
1134.613	781.88
1139.618	785.88
1144.619	767.88
1149.614	795.88
1154.604	783.88
1159.589	781.88
1164.57	802.88
1169.545	802.88
1174.515	805.88
1179.48	800.88
1184.44	804.88
1189.395	792.88
1194.345	788.88
1199.29	769.88
1204.23	756.88
1209.165	756.88
1214.095	778.88
1219.021	778.88
1223.941	769.88
1228.856	794.88
1233.766	788.88
1238.672	785.88
1243.572	788.88
1248.467	794.88
1253.358	762.88
1258.244	737.88
1263.124	744.88
1268	741.88
1272.871	710.88
1277.737	717.88
1282.599	704.88
1287.455	699.88
1292.306	711.88
1297.153	691.88
1301.995	726.88
1306.832	708.88
1311.664	715.88
1316.491	716.88
1321.314	708.88
1326.132	705.88
1330.945	699.88
1335.753	683.88
1340.556	673.88
1345.354	660.88
1350.148	651.88
1354.937	649.88
1359.722	631.88
1364.501	621.88
1369.276	647.88
1374.046	642.88
1378.811	627.88
1383.572	624.88
1388.327	634.88
1393.079	617.88
1397.825	612.88
1402.567	616.88
1407.304	606.88
1412.036	605.88
1416.764	610.88
1421.487	602.88
1426.205	590.88
1430.919	590.88
1435.628	602.88
1440.333	591.88
1445.032	611.88
1449.727	612.88
1454.418	617.88
1459.104	621.88
1463.785	596.88
1468.462	607.88
1473.134	589.88
1477.802	585.88
1482.465	549.88
1487.123	568.88
1491.777	536.88
1496.426	536.88
1501.071	563.88
1505.711	552.88
1510.347	559.88
1514.978	572.88
1519.604	549.88
1524.226	587.88
1528.844	545.88
1533.457	559.88
1538.065	558.88
1542.669	552.88
1547.269	554.88
1551.864	557.88
1556.454	532.88
1561.041	550.88
1565.622	537.88
1570.199	549.88
1574.772	548.88
1579.34	560.88
1583.904	561.88
1588.464	571.88
1593.019	587.88
1597.569	556.88
1602.115	551.88
1606.657	555.88
1611.195	573.88
1615.728	564.88
1620.256	542.88
1624.78	539.88
1629.3	537.88
1633.816	543.88
1638.327	542.88
1642.834	556.88
1647.336	559.88
1651.834	565.88
1656.328	560.88
1660.817	563.88
1665.302	551.88
1669.783	526.88
1674.259	525.88
1678.732	520.88
1683.199	514.88
1687.663	488.88
1692.122	481.88
1696.577	478.88
1701.028	470.88
1705.474	460.88
1709.917	448.88
1714.355	451.88
1718.788	435.88
1723.218	415.88
1727.643	424.88
1732.064	425.88
1736.481	397.88
1740.893	408.88
1745.301	403.88
1749.705	366.88
1754.105	379.88
1758.501	367.88
1762.893	379.88
1767.28	341.88
1771.663	364.88
1776.042	344.88
1780.417	346.88
1784.787	346.88
1789.154	361.88
1793.516	352.88
1797.874	349.88
1802.228	338.88
1806.578	334.88
1810.924	344.88
1815.266	229.88
1819.603	346.88
1823.937	331.88
1828.266	333.88
1832.591	327.88
1836.913	330.88
1841.23	313.88
1845.543	320.88
1849.852	328.88
1854.156	312.88
1858.457	326.88
1862.754	320.88
1867.047	315.88
1871.335	335.88
1875.62	328.88
1879.9	325.88
1884.177	311.88
1888.449	319.88
1892.718	314.88
1896.982	318.88
1901.243	302.88
1905.499	300.88
1909.752	290.88
1914	285.88
1918.245	300.88
1922.485	310.88
1926.722	298.88
1930.954	291.88
1935.183	311.88
1939.408	308.88
1943.628	293.88
1947.845	298.88
1952.058	301.88
1956.267	275.88
1960.472	296.88
1964.673	294.88
1968.87	286.88
1973.063	282.88
1977.252	273.88
1981.438	271.88
1985.619	263.88
1989.797	255.88
1993.971	263.88
1998.14	274.88
2002.306	266.88
2006.469	269.88
2010.627	252.88
2014.781	258.88
2018.932	255.88
2023.078	273.88
2027.221	259.88
2031.36	259.88
2035.495	252.88
2039.627	252.88
2043.754	245.88
2047.878	237.88
2051.998	240.88
2056.114	241.88
2060.226	245.88
2064.334	244.88
2068.439	245.88
2072.54	260.88
2076.637	237.88
2080.73	239.88
2084.82	246.88
2088.906	231.88
2092.988	236.88
2097.066	251.88
2101.14	248.88
2105.211	246.88
2109.278	233.88
2113.342	230.88
2117.401	216.88
2121.457	211.88
2125.509	212.88
2129.558	231.88
2133.602	223.88
2137.643	221.88
2141.681	212.88
2145.714	214.88
2149.744	223.88
2153.77	217.88
2157.793	204.88
2161.812	184.88
2165.827	181.88
2169.838	209.88
2173.846	194.88
2177.851	186.88
2181.851	201.88
2185.848	188.88
2189.841	188.88
2193.831	182.88
2197.817	188.88
2201.799	187.88
2205.778	171.88
2209.753	170.88
2213.725	174.88
2217.693	176.88
2221.657	170.88
2225.618	179.88
2229.575	180.88
2233.529	178.88
2237.479	177.88
2241.425	168.88
2245.368	160.88
2249.307	169.88
2253.243	160.88
2257.175	168.88
2261.104	154.88
2265.029	159.88
2268.95	155.88
2272.868	157.88
2276.783	141.88
2280.694	147.88
2284.601	152.88
2288.505	143.88
2292.405	151.88
2296.302	130.88
2300.195	142.88
2304.085	112.88
2307.971	138.88
2311.854	115.88
2315.734	128.88
2319.609	134.88
2323.482	105.88
2327.351	119.88
2331.216	116.88
2335.078	127.88
2338.937	122.88
2342.792	110.88
2346.643	119.88
2350.492	129.88
2354.336	119.88
2358.178	125.88
2362.015	122.88
2365.85	113.88
2369.681	117.88
2373.508	127.88
2377.333	123.88
2381.153	125.88
2384.971	115.88
2388.785	126.88
2392.595	102.88
2396.402	112.88
2400.206	89.88
2404.007	97.88
2407.804	110.88
2411.597	107.88
2415.388	102.88
2419.174	104.88
2422.958	107.88
2426.738	99.88
2430.515	115.88
2434.289	104.88
2438.059	100.88
2441.825	96.88
2445.589	111.88
2449.349	86.88
2453.106	96.88
2456.859	98.88
2460.61	97.88
2464.356	87.88
2468.1	82.88
2471.84	80.88
2475.577	89.88
2479.311	78.88
2483.041	83.88
2486.768	102.88
2490.492	96.88
2494.213	86.88
2497.93	82.88
2501.644	69.88
2505.355	83.88
2509.062	82.88
2512.766	86.88
2516.467	75.88
2520.165	76.88
2523.859	65.88
2527.551	105.88
2531.239	72.88
2534.923	80.88
2538.605	79.88
2542.283	86.88
2545.958	83.88
2549.63	83.88
2553.299	83.88
2556.964	71.88
2560.626	76.88
2564.285	79.88
2567.941	64.88
2571.594	62.88
2575.243	75.88
2578.89	67.88
2582.533	72.88
2586.173	70.88
2589.809	67.88
2593.443	40.88
2597.073	66.88
2600.701	68.88
2604.325	61.88
2607.946	57.88
2611.564	74.88
2615.178	68.88
2618.79	70.88
2622.398	60.88
2626.004	61.88
2629.606	62.88
2633.205	54.88
2636.801	67.88
2640.394	61.88
2643.983	55.88
2647.57	54.88
2651.153	46.88
2654.734	62.88
2658.311	36.88
2661.885	44.88
2665.456	49.88
2669.025	55.88
2672.589	48.88
2676.151	65.88
2679.71	62.88
2683.266	52.88
2686.819	37.88
2690.368	56.88
2693.915	58.88
2697.458	50.88
2700.999	55.88
2704.536	54.88
2708.071	49.88
2711.602	48.88
2715.13	46.88
2718.656	30.88
2722.178	45.88
2725.697	35.88
2729.214	34.88
2732.727	45.88
2736.237	25.88
2739.744	38.88
2743.249	39.88
2746.75	41.88
2750.248	40.88
2753.743	36.88
2757.236	36.88
2760.725	40.88
2764.211	14.88
2767.695	39.88
2771.175	35.88
2774.652	40.88
2778.127	32.88
2781.598	31.88
2785.067	43.88
2788.532	31.88
2791.995	37.88
2795.455	33.88
2798.911	44.88
2802.365	31.88
2805.816	42.88
2809.264	43.88
2812.709	29.88
2816.151	41.88
2819.59	28.88
2823.026	30.88
2826.46	31.88
2829.89	41.88
2833.318	18.88
2836.742	33.88
2840.164	34.88
2843.583	37.88
2846.999	32.88
2850.412	33.88
2853.822	28.88
2857.229	44.88
2860.634	41.88
2864.035	27.88
2867.434	43.88
2870.83	47.88
2874.223	31.88
2877.613	37.88
2881	33.88
2884.385	36.88
2887.766	36.88
2891.145	40.88
2894.521	38.88
2897.894	33.88
2901.264	46.88
2904.631	41.88
2907.996	46.88
2911.358	53.88
2914.717	47.88
2918.073	46.88
2921.426	38.88
2924.777	25.88
2928.124	52.88
2931.469	54.88
2934.811	40.88
2938.15	61.88
2941.487	47.88
2944.821	68.88
2948.152	50.88
2951.48	53.88
2954.805	40.88
2958.128	66.88
2961.447	47.88
2964.765	64.88
2968.079	49.88
2971.39	51.88
2974.699	58.88
2978.005	59.88
2981.308	50.88
2984.609	51.88
2987.907	57.88
2991.202	62.88
2994.494	48.88
2997.784	59.88
3001.07	61.88
3004.355	49.88
3007.636	62.88
3010.915	65.88
3014.191	58.88
3017.464	59.88
3020.734	64.88
3024.002	65.88
3027.267	65.88
3030.53	69.88
3033.789	62.88
3037.046	67.88
3040.301	63.88
3043.552	66.88
3046.801	78.88
3050.048	85.88
3053.291	96.88
3056.532	80.88
3059.771	67.88
3063.006	85.88
3066.239	77.88
3069.469	96.88
3072.697	84.88
3075.922	88.88
3079.144	89.88
3082.364	115.88
3085.581	92.88
3088.795	121.88
3092.007	117.88
3095.216	120.88
3098.423	109.88
3101.627	90.88
3104.828	115.88
3108.026	111.88
3111.222	130.88
3114.416	129.88
3117.607	138.88
3120.795	120.88
3123.98	141.88
3127.163	127.88
3130.344	140.88
3133.521	129.88
3136.696	157.88
3139.869	149.88
3143.039	132.88
3146.206	170.88
3149.371	158.88
3152.533	153.88
3155.693	154.88
3158.85	166.88
3162.005	164.88
3165.157	165.88
3168.306	157.88
3171.453	174.88
3174.597	160.88
3177.739	156.88
3180.878	165.88
3184.014	173.88
3187.149	178.88
3190.28	167.88
3193.409	174.88
3196.536	178.88
3199.659	182.88
3202.781	181.88
3205.9	157.88
3209.016	175.88
3212.13	172.88
3215.241	166.88
3218.35	165.88
3221.456	160.88
3224.56	158.88
3227.661	159.88
3230.76	158.88
3233.856	152.88
3236.95	158.88
3240.041	151.88
3243.13	161.88
3246.216	157.88
3249.3	158.88
3252.382	157.88
3255.46	145.88
3258.537	100.88
3261.611	142.88
3264.682	147.88
3267.751	155.88
3270.818	140.88
3273.882	154.88
3276.943	149.88
3280.002	154.88
3283.059	136.88
3286.113	143.88
3289.165	133.88
3292.214	133.88
3295.261	153.88
3298.306	128.88
3301.348	137.88
3304.387	128.88
3307.425	140.88
3310.459	130.88
3313.492	146.88
3316.521	123.88
3319.549	133.88
3322.574	132.88
3325.597	120.88
3328.617	120.88
3331.635	119.88
3334.65	101.88
3337.663	121.88
3340.674	122.88
3343.682	121.88
3346.688	128.88
3349.691	113.88
3352.692	113.88
3355.691	124.88
3358.687	120.88
3361.681	121.88
3364.673	115.88
3367.662	119.88
3370.649	121.88
3373.633	105.88
3376.615	118.88
3379.595	92.88
3382.572	103.88
3385.547	90.88
3388.52	90.88
3391.49	94.88
3394.458	95.88
3397.424	110.88
3400.387	80.88
3403.348	96.88
3406.307	98.88
3409.263	91.88
3412.217	102.88
3415.168	99.88
3418.118	95.88
3421.065	86.88
3424.009	99.88
3426.951	87.88
3429.891	79.88
3432.829	82.88
3435.764	81.88
3438.697	75.88
3441.628	88.88
3444.557	64.88
3447.483	70.88
3450.407	77.88
3453.328	62.88
3456.247	64.88
3459.164	52.88
3462.079	71.88
3464.991	60.88
3467.902	57.88
3470.809	51.88
3473.715	62.88
3476.618	45.88
3479.519	56.88
3482.418	37.88
3485.315	35.88
3488.209	37.88
3491.101	42.88
3493.99	23.88
3496.878	27.88
3499.763	32.88
3502.646	33.88
3505.527	20.88
3508.405	23.88
3511.281	13.88
3514.155	25.88
3517.027	20.88
3519.897	11.88
3522.764	22.88
3525.629	-0.12
3528.492	15.88
3531.352	15.88
3534.211	12.88
3537.067	4.88
3539.921	7.88
3542.773	13.88
3545.622	-5.12
3548.469	-3.12
3551.315	-4.12
3554.157	2.88
3556.998	-11.12
3559.837	-5.12
3562.673	1.88
3565.507	-6.12
3568.339	-13.12
3571.169	-12.12
3573.996	-6.12
3576.822	-25.12
3579.645	-19.12
3582.466	-16.12
3585.285	-7.12
3588.101	-5.12
3590.916	-11.12
3593.728	-7.12
3596.538	-14.12
3599.346	-10.12
3602.152	-23.12
3604.956	-17.12
3607.757	-11.12
3610.556	-26.12
3613.354	-14.12
3616.149	-15.12
3618.942	-13.12
3621.732	-10.12
3624.521	-22.12
3627.307	-25.12
3630.092	-28.12
3632.874	-13.12
3635.654	-24.12
3638.432	-30.12
3641.208	-29.12
3643.982	-25.12
3646.753	-13.12
3649.523	-48.12
3652.29	-30.12
3655.055	-20.12
3657.818	-26.12
3660.579	-27.12
3663.338	-37.12
3666.095	-32.12
3668.849	-50.12
3671.602	-19.12
3674.352	-38.12
3677.101	-19.12
3679.847	-18.12
3682.591	-35.12
3685.333	-42.12
3688.073	-26.12
3690.811	-36.12
3693.547	-40.12
3696.281	-39.12
3699.013	-25.12
3701.742	-35.12
3704.47	-40.12
3707.195	-29.12
3709.919	-34.12
3712.64	-34.12
3715.359	-43.12
3718.076	-23.12
3720.792	-34.12
3723.505	-29.12
3726.216	-24.12
3728.925	-35.12
3731.632	-39.12
3734.336	-30.12
3737.039	-31.12
3739.74	-30.12
3742.439	-54.12
3745.136	-26.12
3747.83	-26.12
3750.523	-23.12
3753.213	-90.12
3755.902	-32.12
3758.589	-48.12
3761.273	-39.12
3763.956	-26.12
3766.636	-46.12
3769.315	-25.12
3771.991	-32.12
3774.665	-41.12
3777.338	-39.12
3780.008	-42.12
3782.677	-33.12
3785.343	-44.12
3788.007	-54.12
3790.67	-28.12
3793.33	-44.12
3795.989	-30.12
3798.645	-28.12
3801.299	-46.12
3803.952	-46.12
3806.602	-36.12
3809.251	-28.12
3811.897	-36.12
3814.542	-36.12
3817.184	-39.12
3819.825	-35.12
3822.463	-42.12
3825.1	-39.12
3827.735	-31.12
3830.367	-42.12
3832.998	-16.12
3835.627	-38.12
3838.253	-25.12
3840.878	-34.12
3843.501	-16.12
3846.122	-32.12
3848.741	-26.12
3851.358	-28.12
3853.973	-43.12
3856.586	-22.12
3859.197	-40.12
3861.806	-29.12
3864.414	-44.12
3867.019	-32.12
3869.622	-25.12
3872.224	-26.12
3874.823	-20.12
3877.421	-3.12
3880.016	6.88
3882.61	34.88
3885.202	39.88
3887.792	28.88
3890.38	11.88
3892.966	-20.12
3895.55	-37.12
3898.132	-23.12
3900.713	-23.12
3903.291	-30.12
3905.868	-40.12
3908.442	-34.12
3911.015	-31.12
3913.586	-40.12
3916.155	-35.12
3918.722	-37.12
3921.287	-38.12
3923.85	-45.12
3926.411	-35.12
3928.971	-39.12
3931.528	-30.12
3934.084	-38.12
3936.638	-42.12
3939.19	-30.12
3941.74	-30.12
3944.288	-40.12
3946.834	-33.12
3949.378	-27.12
3951.921	-36.12
3954.462	-34.12
3957	-31.12
3959.537	-25.12
3962.072	-32.12
3964.606	-48.12
3967.137	-35.12
3969.667	-36.12
3972.194	-31.12
3974.72	-39.12
3977.244	-59.12
3979.766	-39.12
3982.286	-39.12
3984.805	-28.12
3987.321	-27.12
3989.836	-28.12
3992.349	-34.12
3994.86	-29.12
3997.369	-37.12
3999.877	-36.12
4002.382	-38.12
4004.886	-29.12
4007.388	-31.12
4009.888	-23.12
4012.386	-27.12
4014.883	-30.12
4017.377	-32.12
4019.87	-32.12
4022.361	-44.12
4024.85	-34.12
4027.338	-35.12
4029.823	-33.12
4032.307	-34.12
4034.789	-30.12
4037.269	-30.12
4039.747	-46.12
4042.224	-28.12
4044.699	-41.12
4047.172	-33.12
4049.643	-26.12
4052.112	-59.12
4054.58	-30.12
4057.046	-45.12
4059.51	-32.12
4061.972	-34.12
4064.432	-50.12
4066.891	-22.12
4069.348	-36.12
4071.803	-29.12
4074.256	-35.12
4076.708	-29.12
4079.158	-35.12
4081.606	-23.12
4084.052	-34.12
4086.497	-27.12
4088.939	-31.12
4091.38	-45.12
4093.819	-28.12
4096.257	-1.12
4098.693	-5.12
4101.127	-6.12
4103.559	-0.12
4105.989	52.88
4108.418	53.88
4110.845	40.88
4113.27	51.88
4115.694	58.88
4118.115	39.88
4120.535	-33.12
4122.954	-28.12
4125.37	-24.12
4127.785	-32.12
4130.198	-27.12
4132.609	-32.12
4135.019	6.88
4137.427	0.88
4139.833	6.88
4142.237	-2.12
