Data from 2018-3-6_conc=3_n=3_RamanShift_01.txt Node
Date: Tue Mar 06 13:20:19 GMT+02:00 2018
User: LAB3
Spectrometer: QEPB0276
Trigger mode: 0
Integration Time (sec): 3.000000E1
Scans to average: 1
Electric dark correction enabled: true
Nonlinearity correction enabled: false
Boxcar width: 0
XAxis mode: Raman Shifts
Number of Pixels in Spectrum: 1044
>>>>>Begin Spectral Data<<<<<
160.701	145.75
166.742	190.75
172.777	276.75
178.805	535.75
184.826	1220.75
190.841	2435.75
196.849	3898.75
202.85	4963.75
208.845	5369.75
214.833	5380.75
220.815	5290.75
226.789	5346.75
232.758	5367.75
238.719	5373.75
244.674	5375.75
250.623	5327.75
256.565	5293.75
262.5	5240.75
268.429	5217.75
274.351	5211.75
280.267	5213.75
286.176	5243.75
292.079	5245.75
297.975	5269.75
303.865	5236.75
309.748	5239.75
315.625	5276.75
321.495	5253.75
327.359	5332.75
333.217	5333.75
339.068	5351.75
344.912	5345.75
350.751	5380.75
356.583	5369.75
362.408	5421.75
368.227	5462.75
374.04	5464.75
379.847	5510.75
385.647	5523.75
391.44	5555.75
397.228	5569.75
403.009	5632.75
408.784	5614.75
414.553	5686.75
420.315	5667.75
426.071	5699.75
431.821	5711.75
437.565	5720.75
443.302	5675.75
449.033	5623.75
454.758	5625.75
460.477	5552.75
466.189	5502.75
471.896	5464.75
477.596	5446.75
483.29	5411.75
488.978	5415.75
494.66	5343.75
500.335	5210.75
506.005	4971.75
511.668	4721.75
517.325	4498.75
522.977	4312.75
528.622	4148.75
534.261	4044.75
539.894	3987.75
545.521	3901.75
551.141	3863.75
556.756	3828.75
562.365	3786.75
567.968	3767.75
573.565	3724.75
579.155	3713.75
584.74	3694.75
590.319	3678.75
595.892	3669.75
601.459	3655.75
607.02	3684.75
612.575	3634.75
618.124	3611.75
623.667	3529.75
629.204	3482.75
634.735	3426.75
640.261	3390.75
645.781	3382.75
651.294	3348.75
656.802	3363.75
662.304	3334.75
667.8	3340.75
673.29	3302.75
678.775	3305.75
684.254	3275.75
689.726	3272.75
695.193	3280.75
700.655	3236.75
706.11	3216.75
711.56	3189.75
717.004	3210.75
722.442	3164.75
727.874	3165.75
733.301	3153.75
738.722	3124.75
744.137	3136.75
749.547	3145.75
754.951	3130.75
760.349	3126.75
765.741	3152.75
771.128	3186.75
776.509	3210.75
781.885	3257.75
787.254	3289.75
792.618	3299.75
797.977	3289.75
803.33	3264.75
808.677	3248.75
814.019	3241.75
819.355	3180.75
824.686	3154.75
830.011	3139.75
835.33	3138.75
840.644	3108.75
845.952	3083.75
851.255	3059.75
856.552	3066.75
861.844	2981.75
867.13	2970.75
872.41	2960.75
877.686	2928.75
882.955	2895.75
888.219	2864.75
893.478	2805.75
898.731	2814.75
903.979	2750.75
909.221	2731.75
914.458	2711.75
919.69	2695.75
924.916	2721.75
930.136	2711.75
935.351	2721.75
940.561	2722.75
945.766	2720.75
950.965	2709.75
956.158	2670.75
961.347	2633.75
966.529	2617.75
971.707	2603.75
976.879	2545.75
982.046	2539.75
987.208	2503.75
992.364	2537.75
997.515	2529.75
1002.66	2557.75
1007.801	2543.75
1012.936	2562.75
1018.066	2590.75
1023.19	2609.75
1028.309	2640.75
1033.423	2604.75
1038.532	2629.75
1043.636	2600.75
1048.734	2590.75
1053.827	2545.75
1058.915	2533.75
1063.998	2491.75
1069.075	2512.75
1074.147	2520.75
1079.214	2500.75
1084.276	2521.75
1089.333	2518.75
1094.385	2537.75
1099.431	2515.75
1104.472	2520.75
1109.509	2471.75
1114.54	2439.75
1119.565	2401.75
1124.586	2368.75
1129.602	2343.75
1134.613	2316.75
1139.618	2294.75
1144.619	2309.75
1149.614	2296.75
1154.604	2307.75
1159.589	2319.75
1164.57	2349.75
1169.545	2339.75
1174.515	2360.75
1179.48	2341.75
1184.44	2336.75
1189.395	2323.75
1194.345	2280.75
1199.29	2288.75
1204.23	2249.75
1209.165	2264.75
1214.095	2286.75
1219.021	2278.75
1223.941	2275.75
1228.856	2291.75
1233.766	2324.75
1238.672	2300.75
1243.572	2299.75
1248.467	2288.75
1253.358	2249.75
1258.244	2211.75
1263.124	2202.75
1268	2175.75
1272.871	2105.75
1277.737	2086.75
1282.599	2077.75
1287.455	2082.75
1292.306	2085.75
1297.153	2074.75
1301.995	2112.75
1306.832	2100.75
1311.664	2106.75
1316.491	2090.75
1321.314	2095.75
1326.132	2089.75
1330.945	2057.75
1335.753	2015.75
1340.556	1991.75
1345.354	1969.75
1350.148	1944.75
1354.937	1917.75
1359.722	1885.75
1364.501	1884.75
1369.276	1869.75
1374.046	1871.75
1378.811	1859.75
1383.572	1847.75
1388.327	1854.75
1393.079	1848.75
1397.825	1814.75
1402.567	1806.75
1407.304	1812.75
1412.036	1791.75
1416.764	1773.75
1421.487	1781.75
1426.205	1771.75
1430.919	1782.75
1435.628	1792.75
1440.333	1796.75
1445.032	1805.75
1449.727	1819.75
1454.418	1841.75
1459.104	1830.75
1463.785	1810.75
1468.462	1794.75
1473.134	1750.75
1477.802	1726.75
1482.465	1679.75
1487.123	1682.75
1491.777	1643.75
1496.426	1625.75
1501.071	1672.75
1505.711	1659.75
1510.347	1683.75
1514.978	1683.75
1519.604	1682.75
1524.226	1694.75
1528.844	1683.75
1533.457	1669.75
1538.065	1665.75
1542.669	1646.75
1547.269	1640.75
1551.864	1643.75
1556.454	1602.75
1561.041	1609.75
1565.622	1618.75
1570.199	1630.75
1574.772	1646.75
1579.34	1666.75
1583.904	1680.75
1588.464	1692.75
1593.019	1703.75
1597.569	1671.75
1602.115	1678.75
1606.657	1672.75
1611.195	1671.75
1615.728	1667.75
1620.256	1647.75
1624.78	1622.75
1629.3	1648.75
1633.816	1660.75
1638.327	1653.75
1642.834	1675.75
1647.336	1683.75
1651.834	1696.75
1656.328	1688.75
1660.817	1687.75
1665.302	1677.75
1669.783	1640.75
1674.259	1625.75
1678.732	1578.75
1683.199	1560.75
1687.663	1515.75
1692.122	1470.75
1696.577	1427.75
1701.028	1414.75
1705.474	1385.75
1709.917	1380.75
1714.355	1361.75
1718.788	1345.75
1723.218	1315.75
1727.643	1303.75
1732.064	1282.75
1736.481	1281.75
1740.893	1264.75
1745.301	1206.75
1749.705	1170.75
1754.105	1168.75
1758.501	1144.75
1762.893	1133.75
1767.28	1102.75
1771.663	1096.75
1776.042	1080.75
1780.417	1065.75
1784.787	1100.75
1789.154	1091.75
1793.516	1084.75
1797.874	1088.75
1802.228	1078.75
1806.578	1066.75
1810.924	1085.75
1815.266	948.75
1819.603	1065.75
1823.937	1031.75
1828.266	1012.75
1832.591	1014.75
1836.913	1012.75
1841.23	994.75
1845.543	989.75
1849.852	983.75
1854.156	995.75
1858.457	986.75
1862.754	993.75
1867.047	995.75
1871.335	1005.75
1875.62	1014.75
1879.9	1002.75
1884.177	991.75
1888.449	988.75
1892.718	975.75
1896.982	983.75
1901.243	967.75
1905.499	968.75
1909.752	945.75
1914	926.75
1918.245	958.75
1922.485	966.75
1926.722	965.75
1930.954	945.75
1935.183	978.75
1939.408	974.75
1943.628	974.75
1947.845	953.75
1952.058	957.75
1956.267	933.75
1960.472	944.75
1964.673	907.75
1968.87	899.75
1973.063	878.75
1977.252	872.75
1981.438	874.75
1985.619	854.75
1989.797	835.75
1993.971	842.75
1998.14	846.75
2002.306	846.75
2006.469	832.75
2010.627	830.75
2014.781	820.75
2018.932	813.75
2023.078	826.75
2027.221	813.75
2031.36	789.75
2035.495	789.75
2039.627	785.75
2043.754	782.75
2047.878	767.75
2051.998	769.75
2056.114	768.75
2060.226	759.75
2064.334	769.75
2068.439	776.75
2072.54	775.75
2076.637	758.75
2080.73	774.75
2084.82	771.75
2088.906	769.75
2092.988	775.75
2097.066	776.75
2101.14	780.75
2105.211	768.75
2109.278	744.75
2113.342	745.75
2117.401	728.75
2121.457	714.75
2125.509	712.75
2129.558	704.75
2133.602	705.75
2137.643	700.75
2141.681	691.75
2145.714	696.75
2149.744	702.75
2153.77	684.75
2157.793	664.75
2161.812	647.75
2165.827	633.75
2169.838	659.75
2173.846	639.75
2177.851	614.75
2181.851	626.75
2185.848	613.75
2189.841	606.75
2193.831	603.75
2197.817	615.75
2201.799	598.75
2205.778	579.75
2209.753	576.75
2213.725	565.75
2217.693	570.75
2221.657	559.75
2225.618	586.75
2229.575	577.75
2233.529	571.75
2237.479	575.75
2241.425	546.75
2245.368	542.75
2249.307	539.75
2253.243	527.75
2257.175	517.75
2261.104	509.75
2265.029	512.75
2268.95	503.75
2272.868	485.75
2276.783	486.75
2280.694	492.75
2284.601	477.75
2288.505	475.75
2292.405	483.75
2296.302	448.75
2300.195	463.75
2304.085	423.75
2307.971	449.75
2311.854	418.75
2315.734	430.75
2319.609	432.75
2323.482	407.75
2327.351	410.75
2331.216	417.75
2335.078	421.75
2338.937	400.75
2342.792	395.75
2346.643	401.75
2350.492	413.75
2354.336	397.75
2358.178	398.75
2362.015	406.75
2365.85	409.75
2369.681	411.75
2373.508	410.75
2377.333	418.75
2381.153	397.75
2384.971	392.75
2388.785	393.75
2392.595	390.75
2396.402	387.75
2400.206	354.75
2404.007	378.75
2407.804	381.75
2411.597	379.75
2415.388	374.75
2419.174	372.75
2422.958	373.75
2426.738	372.75
2430.515	367.75
2434.289	361.75
2438.059	358.75
2441.825	365.75
2445.589	363.75
2449.349	347.75
2453.106	359.75
2456.859	354.75
2460.61	357.75
2464.356	335.75
2468.1	326.75
2471.84	334.75
2475.577	321.75
2479.311	321.75
2483.041	326.75
2486.768	340.75
2490.492	347.75
2494.213	331.75
2497.93	315.75
2501.644	307.75
2505.355	321.75
2509.062	328.75
2512.766	317.75
2516.467	325.75
2520.165	315.75
2523.859	302.75
2527.551	336.75
2531.239	294.75
2534.923	309.75
2538.605	309.75
2542.283	309.75
2545.958	310.75
2549.63	324.75
2553.299	306.75
2556.964	290.75
2560.626	293.75
2564.285	299.75
2567.941	281.75
2571.594	286.75
2575.243	295.75
2578.89	286.75
2582.533	284.75
2586.173	282.75
2589.809	287.75
2593.443	261.75
2597.073	279.75
2600.701	268.75
2604.325	268.75
2607.946	262.75
2611.564	269.75
2615.178	270.75
2618.79	267.75
2622.398	258.75
2626.004	265.75
2629.606	255.75
2633.205	240.75
2636.801	259.75
2640.394	251.75
2643.983	246.75
2647.57	239.75
2651.153	235.75
2654.734	248.75
2658.311	219.75
2661.885	226.75
2665.456	224.75
2669.025	232.75
2672.589	225.75
2676.151	239.75
2679.71	231.75
2683.266	221.75
2686.819	213.75
2690.368	225.75
2693.915	224.75
2697.458	217.75
2700.999	220.75
2704.536	214.75
2708.071	207.75
2711.602	206.75
2715.13	212.75
2718.656	182.75
2722.178	200.75
2725.697	195.75
2729.214	192.75
2732.727	195.75
2736.237	180.75
2739.744	181.75
2743.249	192.75
2746.75	198.75
2750.248	181.75
2753.743	193.75
2757.236	198.75
2760.725	200.75
2764.211	169.75
2767.695	194.75
2771.175	187.75
2774.652	193.75
2778.127	182.75
2781.598	178.75
2785.067	187.75
2788.532	178.75
2791.995	192.75
2795.455	189.75
2798.911	186.75
2802.365	185.75
2805.816	186.75
2809.264	201.75
2812.709	186.75
2816.151	186.75
2819.59	174.75
2823.026	189.75
2826.46	184.75
2829.89	189.75
2833.318	171.75
2836.742	188.75
2840.164	190.75
2843.583	183.75
2846.999	190.75
2850.412	190.75
2853.822	190.75
2857.229	198.75
2860.634	199.75
2864.035	178.75
2867.434	202.75
2870.83	210.75
2874.223	202.75
2877.613	204.75
2881	202.75
2884.385	206.75
2887.766	204.75
2891.145	203.75
2894.521	208.75
2897.894	207.75
2901.264	214.75
2904.631	218.75
2907.996	211.75
2911.358	224.75
2914.717	216.75
2918.073	211.75
2921.426	215.75
2924.777	206.75
2928.124	218.75
2931.469	235.75
2934.811	217.75
2938.15	249.75
2941.487	231.75
2944.821	259.75
2948.152	245.75
2951.48	242.75
2954.805	232.75
2958.128	252.75
2961.447	233.75
2964.765	255.75
2968.079	243.75
2971.39	247.75
2974.699	248.75
2978.005	248.75
2981.308	261.75
2984.609	244.75
2987.907	261.75
2991.202	268.75
2994.494	254.75
2997.784	262.75
3001.07	260.75
3004.355	264.75
3007.636	272.75
3010.915	269.75
3014.191	264.75
3017.464	274.75
3020.734	273.75
3024.002	278.75
3027.267	277.75
3030.53	279.75
3033.789	281.75
3037.046	286.75
3040.301	280.75
3043.552	294.75
3046.801	303.75
3050.048	315.75
3053.291	338.75
3056.532	328.75
3059.771	320.75
3063.006	341.75
3066.239	336.75
3069.469	362.75
3072.697	366.75
3075.922	355.75
3079.144	374.75
3082.364	404.75
3085.581	387.75
3088.795	412.75
3092.007	420.75
3095.216	426.75
3098.423	429.75
3101.627	422.75
3104.828	444.75
3108.026	436.75
3111.222	469.75
3114.416	484.75
3117.607	485.75
3120.795	484.75
3123.98	502.75
3127.163	503.75
3130.344	520.75
3133.521	516.75
3136.696	553.75
3139.869	552.75
3143.039	530.75
3146.206	587.75
3149.371	578.75
3152.533	571.75
3155.693	571.75
3158.85	592.75
3162.005	587.75
3165.157	589.75
3168.306	585.75
3171.453	592.75
3174.597	585.75
3177.739	599.75
3180.878	606.75
3184.014	599.75
3187.149	605.75
3190.28	612.75
3193.409	614.75
3196.536	621.75
3199.659	627.75
3202.781	623.75
3205.9	608.75
3209.016	617.75
3212.13	606.75
3215.241	609.75
3218.35	612.75
3221.456	603.75
3224.56	590.75
3227.661	605.75
3230.76	588.75
3233.856	593.75
3236.95	575.75
3240.041	566.75
3243.13	579.75
3246.216	575.75
3249.3	588.75
3252.382	560.75
3255.46	555.75
3258.537	522.75
3261.611	555.75
3264.682	554.75
3267.751	558.75
3270.818	537.75
3273.882	559.75
3276.943	547.75
3280.002	544.75
3283.059	536.75
3286.113	532.75
3289.165	525.75
3292.214	509.75
3295.261	517.75
3298.306	489.75
3301.348	502.75
3304.387	475.75
3307.425	482.75
3310.459	483.75
3313.492	477.75
3316.521	471.75
3319.549	474.75
3322.574	477.75
3325.597	461.75
3328.617	460.75
3331.635	461.75
3334.65	444.75
3337.663	444.75
3340.674	451.75
3343.682	450.75
3346.688	459.75
3349.691	436.75
3352.692	442.75
3355.691	443.75
3358.687	444.75
3361.681	441.75
3364.673	431.75
3367.662	434.75
3370.649	435.75
3373.633	406.75
3376.615	422.75
3379.595	392.75
3382.572	401.75
3385.547	387.75
3388.52	388.75
3391.49	388.75
3394.458	386.75
3397.424	392.75
3400.387	369.75
3403.348	376.75
3406.307	375.75
3409.263	371.75
3412.217	364.75
3415.168	366.75
3418.118	360.75
3421.065	342.75
3424.009	365.75
3426.951	347.75
3429.891	341.75
3432.829	339.75
3435.764	330.75
3438.697	317.75
3441.628	333.75
3444.557	303.75
3447.483	290.75
3450.407	297.75
3453.328	277.75
3456.247	278.75
3459.164	263.75
3462.079	276.75
3464.991	254.75
3467.902	257.75
3470.809	248.75
3473.715	254.75
3476.618	229.75
3479.519	235.75
3482.418	202.75
3485.315	212.75
3488.209	202.75
3491.101	204.75
3493.99	183.75
3496.878	186.75
3499.763	188.75
3502.646	185.75
3505.527	170.75
3508.405	162.75
3511.281	161.75
3514.155	155.75
3517.027	148.75
3519.897	138.75
3522.764	142.75
3525.629	118.75
3528.492	128.75
3531.352	123.75
3534.211	118.75
3537.067	107.75
3539.921	114.75
3542.773	115.75
3545.622	95.75
3548.469	79.75
3551.315	74.75
3554.157	87.75
3556.998	76.75
3559.837	73.75
3562.673	78.75
3565.507	72.75
3568.339	59.75
3571.169	64.75
3573.996	63.75
3576.822	40.75
3579.645	48.75
3582.466	52.75
3585.285	51.75
3588.101	48.75
3590.916	43.75
3593.728	45.75
3596.538	44.75
3599.346	37.75
3602.152	31.75
3604.956	29.75
3607.757	33.75
3610.556	15.75
3613.354	28.75
3616.149	28.75
3618.942	27.75
3621.732	22.75
3624.521	13.75
3627.307	11.75
3630.092	9.75
3632.874	25.75
3635.654	14.75
3638.432	7.75
3641.208	7.75
3643.982	8.75
3646.753	10.75
3649.523	-18.25
3652.29	4.75
3655.055	10.75
3657.818	3.75
3660.579	-4.25
3663.338	-8.25
3666.095	-14.25
3668.849	-32.25
3671.602	0.75
3674.352	-12.25
3677.101	-0.25
3679.847	0.75
3682.591	-16.25
3685.333	-22.25
3688.073	-9.25
3690.811	-19.25
3693.547	-26.25
3696.281	-27.25
3699.013	-13.25
3701.742	-16.25
3704.47	-32.25
3707.195	-12.25
3709.919	-18.25
3712.64	-17.25
3715.359	-28.25
3718.076	-9.25
3720.792	-21.25
3723.505	-14.25
3726.216	-12.25
3728.925	-18.25
3731.632	-27.25
3734.336	-18.25
3737.039	-26.25
3739.74	-20.25
3742.439	-42.25
3745.136	-11.25
3747.83	-22.25
3750.523	-18.25
3753.213	-83.25
3755.902	-26.25
3758.589	-37.25
3761.273	-28.25
3763.956	-17.25
3766.636	-39.25
3769.315	-17.25
3771.991	-22.25
3774.665	-28.25
3777.338	-27.25
3780.008	-33.25
3782.677	-27.25
3785.343	-42.25
3788.007	-45.25
3790.67	-20.25
3793.33	-37.25
3795.989	-29.25
3798.645	-25.25
3801.299	-35.25
3803.952	-30.25
3806.602	30.75
3809.251	-19.25
3811.897	-26.25
3814.542	-32.25
3817.184	-33.25
3819.825	-28.25
3822.463	-42.25
3825.1	-26.25
3827.735	-28.25
3830.367	-36.25
3832.998	-19.25
3835.627	-31.25
3838.253	-21.25
3840.878	-31.25
3843.501	-16.25
3846.122	-27.25
3848.741	-24.25
3851.358	-20.25
3853.973	-42.25
3856.586	-24.25
3859.197	-32.25
3861.806	-26.25
3864.414	-41.25
3867.019	-26.25
3869.622	-16.25
3872.224	-12.25
3874.823	1.75
3877.421	28.75
3880.016	54.75
3882.61	94.75
3885.202	99.75
3887.792	81.75
3890.38	43.75
3892.966	-1.25
3895.55	-24.25
3898.132	-14.25
3900.713	-16.25
3903.291	-23.25
3905.868	-38.25
3908.442	-27.25
3911.015	-32.25
3913.586	-29.25
3916.155	-31.25
3918.722	-34.25
3921.287	-29.25
3923.85	-45.25
3926.411	-34.25
3928.971	-35.25
3931.528	-28.25
3934.084	-36.25
3936.638	-42.25
3939.19	-30.25
3941.74	-30.25
3944.288	-37.25
3946.834	-35.25
3949.378	-25.25
3951.921	-42.25
3954.462	-29.25
3957	-22.25
3959.537	-17.25
3962.072	-29.25
3964.606	-42.25
3967.137	-33.25
3969.667	-36.25
3972.194	-27.25
3974.72	-37.25
3977.244	-56.25
3979.766	-37.25
3982.286	-35.25
3984.805	-28.25
3987.321	-19.25
3989.836	-23.25
3992.349	-39.25
3994.86	-28.25
3997.369	-32.25
3999.877	-29.25
4002.382	-36.25
4004.886	-23.25
4007.388	-24.25
4009.888	-16.25
4012.386	-22.25
4014.883	-25.25
4017.377	-26.25
4019.87	-26.25
4022.361	-42.25
4024.85	-26.25
4027.338	-23.25
4029.823	-30.25
4032.307	-27.25
4034.789	-27.25
4037.269	-26.25
4039.747	-38.25
4042.224	-22.25
4044.699	-32.25
4047.172	-27.25
4049.643	-20.25
4052.112	-53.25
4054.58	-28.25
4057.046	-40.25
4059.51	-28.25
4061.972	-26.25
4064.432	-43.25
4066.891	-16.25
4069.348	-29.25
4071.803	-24.25
4074.256	-27.25
4076.708	-27.25
4079.158	-25.25
4081.606	-17.25
4084.052	-27.25
4086.497	-21.25
4088.939	-27.25
4091.38	-30.25
4093.819	-19.25
4096.257	0.75
4098.693	-7.25
4101.127	-8.25
4103.559	1.75
4105.989	131.75
4108.418	137.75
4110.845	126.75
4113.27	131.75
4115.694	139.75
4118.115	130.75
4120.535	-25.25
4122.954	-27.25
4125.37	-15.25
4127.785	-25.25
4130.198	-20.25
4132.609	-24.25
4135.019	8.75
4137.427	2.75
4139.833	4.75
4142.237	-3.25
