Data from 2018-3-6_conc=2_n=7_RamanShift_02.txt Node
Date: Tue Mar 06 13:00:49 GMT+02:00 2018
User: LAB3
Spectrometer: QEPB0276
Trigger mode: 0
Integration Time (sec): 3.000000E1
Scans to average: 1
Electric dark correction enabled: true
Nonlinearity correction enabled: false
Boxcar width: 0
XAxis mode: Raman Shifts
Number of Pixels in Spectrum: 1044
>>>>>Begin Spectral Data<<<<<
160.701	155.5
166.742	200.5
172.777	304.5
178.805	605.5
184.826	1398.5
190.841	2797.5
196.849	4436.5
202.85	5695.5
208.845	6152.5
214.833	6123.5
220.815	6109.5
226.789	6111.5
232.758	6128.5
238.719	6169.5
244.674	6138.5
250.623	6088.5
256.565	6046.5
262.5	6001.5
268.429	5955.5
274.351	5935.5
280.267	5946.5
286.176	5953.5
292.079	5956.5
297.975	5970.5
303.865	5972.5
309.748	5995.5
315.625	6003.5
321.495	6036.5
327.359	6019.5
333.217	6048.5
339.068	6081.5
344.912	6117.5
350.751	6119.5
356.583	6140.5
362.408	6152.5
368.227	6199.5
374.04	6183.5
379.847	6239.5
385.647	6321.5
391.44	6294.5
397.228	6363.5
403.009	6417.5
408.784	6417.5
414.553	6438.5
420.315	6464.5
426.071	6491.5
431.821	6503.5
437.565	6486.5
443.302	6460.5
449.033	6405.5
454.758	6393.5
460.477	6350.5
466.189	6277.5
471.896	6217.5
477.596	6177.5
483.29	6150.5
488.978	6126.5
494.66	6093.5
500.335	5922.5
506.005	5649.5
511.668	5359.5
517.325	5078.5
522.977	4892.5
528.622	4718.5
534.261	4608.5
539.894	4545.5
545.521	4483.5
551.141	4419.5
556.756	4347.5
562.365	4316.5
567.968	4262.5
573.565	4232.5
579.155	4191.5
584.74	4183.5
590.319	4197.5
595.892	4183.5
601.459	4181.5
607.02	4186.5
612.575	4163.5
618.124	4082.5
623.667	4023.5
629.204	3972.5
634.735	3894.5
640.261	3864.5
645.781	3807.5
651.294	3819.5
656.802	3802.5
662.304	3804.5
667.8	3777.5
673.29	3775.5
678.775	3761.5
684.254	3724.5
689.726	3723.5
695.193	3712.5
700.655	3683.5
706.11	3679.5
711.56	3627.5
717.004	3634.5
722.442	3622.5
727.874	3589.5
733.301	3576.5
738.722	3547.5
744.137	3545.5
749.547	3552.5
754.951	3554.5
760.349	3554.5
765.741	3596.5
771.128	3618.5
776.509	3651.5
781.885	3702.5
787.254	3725.5
792.618	3750.5
797.977	3757.5
803.33	3730.5
808.677	3703.5
814.019	3665.5
819.355	3645.5
824.686	3624.5
830.011	3563.5
835.33	3570.5
840.644	3532.5
845.952	3524.5
851.255	3473.5
856.552	3461.5
861.844	3415.5
867.13	3350.5
872.41	3338.5
877.686	3320.5
882.955	3310.5
888.219	3257.5
893.478	3214.5
898.731	3184.5
903.979	3151.5
909.221	3104.5
914.458	3097.5
919.69	3084.5
924.916	3079.5
930.136	3080.5
935.351	3075.5
940.561	3100.5
945.766	3084.5
950.965	3073.5
956.158	3018.5
961.347	3006.5
966.529	2964.5
971.707	2962.5
976.879	2909.5
982.046	2862.5
987.208	2857.5
992.364	2854.5
997.515	2864.5
1002.66	2897.5
1007.801	2921.5
1012.936	2933.5
1018.066	2921.5
1023.19	2939.5
1028.309	2979.5
1033.423	2961.5
1038.532	2979.5
1043.636	2954.5
1048.734	2942.5
1053.827	2884.5
1058.915	2872.5
1063.998	2853.5
1069.075	2848.5
1074.147	2859.5
1079.214	2845.5
1084.276	2844.5
1089.333	2859.5
1094.385	2865.5
1099.431	2842.5
1104.472	2838.5
1109.509	2806.5
1114.54	2763.5
1119.565	2708.5
1124.586	2676.5
1129.602	2646.5
1134.613	2629.5
1139.618	2601.5
1144.619	2626.5
1149.614	2605.5
1154.604	2625.5
1159.589	2619.5
1164.57	2679.5
1169.545	2667.5
1174.515	2658.5
1179.48	2643.5
1184.44	2635.5
1189.395	2616.5
1194.345	2584.5
1199.29	2562.5
1204.23	2566.5
1209.165	2560.5
1214.095	2600.5
1219.021	2580.5
1223.941	2593.5
1228.856	2598.5
1233.766	2620.5
1238.672	2596.5
1243.572	2603.5
1248.467	2601.5
1253.358	2554.5
1258.244	2497.5
1263.124	2471.5
1268	2454.5
1272.871	2385.5
1277.737	2384.5
1282.599	2363.5
1287.455	2339.5
1292.306	2366.5
1297.153	2378.5
1301.995	2379.5
1306.832	2401.5
1311.664	2401.5
1316.491	2390.5
1321.314	2366.5
1326.132	2355.5
1330.945	2320.5
1335.753	2295.5
1340.556	2240.5
1345.354	2215.5
1350.148	2179.5
1354.937	2172.5
1359.722	2122.5
1364.501	2137.5
1369.276	2121.5
1374.046	2117.5
1378.811	2082.5
1383.572	2113.5
1388.327	2082.5
1393.079	2056.5
1397.825	2061.5
1402.567	2038.5
1407.304	2031.5
1412.036	2044.5
1416.764	2025.5
1421.487	2016.5
1426.205	2014.5
1430.919	2008.5
1435.628	2031.5
1440.333	2026.5
1445.032	2057.5
1449.727	2076.5
1454.418	2072.5
1459.104	2069.5
1463.785	2025.5
1468.462	2023.5
1473.134	1985.5
1477.802	1953.5
1482.465	1898.5
1487.123	1893.5
1491.777	1873.5
1496.426	1872.5
1501.071	1898.5
1505.711	1892.5
1510.347	1912.5
1514.978	1899.5
1519.604	1909.5
1524.226	1923.5
1528.844	1891.5
1533.457	1891.5
1538.065	1869.5
1542.669	1873.5
1547.269	1842.5
1551.864	1838.5
1556.454	1835.5
1561.041	1830.5
1565.622	1828.5
1570.199	1825.5
1574.772	1857.5
1579.34	1861.5
1583.904	1883.5
1588.464	1895.5
1593.019	1933.5
1597.569	1892.5
1602.115	1885.5
1606.657	1888.5
1611.195	1892.5
1615.728	1870.5
1620.256	1865.5
1624.78	1849.5
1629.3	1849.5
1633.816	1893.5
1638.327	1865.5
1642.834	1883.5
1647.336	1900.5
1651.834	1915.5
1656.328	1911.5
1660.817	1890.5
1665.302	1885.5
1669.783	1866.5
1674.259	1824.5
1678.732	1804.5
1683.199	1773.5
1687.663	1690.5
1692.122	1676.5
1696.577	1632.5
1701.028	1618.5
1705.474	1567.5
1709.917	1547.5
1714.355	1529.5
1718.788	1525.5
1723.218	1493.5
1727.643	1479.5
1732.064	1475.5
1736.481	1428.5
1740.893	1405.5
1745.301	1384.5
1749.705	1330.5
1754.105	1321.5
1758.501	1305.5
1762.893	1280.5
1767.28	1223.5
1771.663	1238.5
1776.042	1219.5
1780.417	1219.5
1784.787	1228.5
1789.154	1228.5
1793.516	1221.5
1797.874	1210.5
1802.228	1214.5
1806.578	1207.5
1810.924	1212.5
1815.266	1080.5
1819.603	1183.5
1823.937	1155.5
1828.266	1141.5
1832.591	1140.5
1836.913	1134.5
1841.23	1108.5
1845.543	1106.5
1849.852	1114.5
1854.156	1106.5
1858.457	1117.5
1862.754	1108.5
1867.047	1124.5
1871.335	1131.5
1875.62	1125.5
1879.9	1144.5
1884.177	1113.5
1888.449	1121.5
1892.718	1099.5
1896.982	1116.5
1901.243	1084.5
1905.499	1082.5
1909.752	1082.5
1914	1059.5
1918.245	1074.5
1922.485	1104.5
1926.722	1094.5
1930.954	1076.5
1935.183	1106.5
1939.408	1106.5
1943.628	1102.5
1947.845	1081.5
1952.058	1081.5
1956.267	1060.5
1960.472	1067.5
1964.673	1026.5
1968.87	997.5
1973.063	999.5
1977.252	970.5
1981.438	967.5
1985.619	935.5
1989.797	937.5
1993.971	939.5
1998.14	956.5
2002.306	936.5
2006.469	951.5
2010.627	931.5
2014.781	917.5
2018.932	912.5
2023.078	938.5
2027.221	922.5
2031.36	893.5
2035.495	878.5
2039.627	887.5
2043.754	876.5
2047.878	869.5
2051.998	855.5
2056.114	867.5
2060.226	862.5
2064.334	868.5
2068.439	871.5
2072.54	874.5
2076.637	868.5
2080.73	877.5
2084.82	876.5
2088.906	874.5
2092.988	868.5
2097.066	877.5
2101.14	872.5
2105.211	863.5
2109.278	848.5
2113.342	831.5
2117.401	814.5
2121.457	812.5
2125.509	782.5
2129.558	808.5
2133.602	789.5
2137.643	778.5
2141.681	785.5
2145.714	780.5
2149.744	778.5
2153.77	768.5
2157.793	748.5
2161.812	741.5
2165.827	716.5
2169.838	743.5
2173.846	707.5
2177.851	704.5
2181.851	709.5
2185.848	685.5
2189.841	687.5
2193.831	662.5
2197.817	672.5
2201.799	666.5
2205.778	646.5
2209.753	647.5
2213.725	644.5
2217.693	643.5
2221.657	637.5
2225.618	647.5
2229.575	638.5
2233.529	645.5
2237.479	637.5
2241.425	615.5
2245.368	612.5
2249.307	606.5
2253.243	592.5
2257.175	592.5
2261.104	570.5
2265.029	573.5
2268.95	564.5
2272.868	549.5
2276.783	535.5
2280.694	550.5
2284.601	546.5
2288.505	537.5
2292.405	539.5
2296.302	502.5
2300.195	509.5
2304.085	485.5
2307.971	505.5
2311.854	473.5
2315.734	485.5
2319.609	482.5
2323.482	449.5
2327.351	460.5
2331.216	466.5
2335.078	471.5
2338.937	455.5
2342.792	457.5
2346.643	439.5
2350.492	454.5
2354.336	445.5
2358.178	460.5
2362.015	458.5
2365.85	455.5
2369.681	448.5
2373.508	452.5
2377.333	467.5
2381.153	453.5
2384.971	447.5
2388.785	449.5
2392.595	430.5
2396.402	435.5
2400.206	407.5
2404.007	438.5
2407.804	426.5
2411.597	426.5
2415.388	422.5
2419.174	424.5
2422.958	411.5
2426.738	422.5
2430.515	418.5
2434.289	410.5
2438.059	404.5
2441.825	402.5
2445.589	402.5
2449.349	396.5
2453.106	400.5
2456.859	389.5
2460.61	391.5
2464.356	385.5
2468.1	367.5
2471.84	369.5
2475.577	377.5
2479.311	366.5
2483.041	359.5
2486.768	380.5
2490.492	380.5
2494.213	376.5
2497.93	352.5
2501.644	361.5
2505.355	359.5
2509.062	361.5
2512.766	367.5
2516.467	351.5
2520.165	363.5
2523.859	341.5
2527.551	373.5
2531.239	336.5
2534.923	351.5
2538.605	332.5
2542.283	353.5
2545.958	348.5
2549.63	351.5
2553.299	349.5
2556.964	335.5
2560.626	335.5
2564.285	343.5
2567.941	316.5
2571.594	319.5
2575.243	340.5
2578.89	321.5
2582.533	324.5
2586.173	327.5
2589.809	322.5
2593.443	295.5
2597.073	313.5
2600.701	315.5
2604.325	306.5
2607.946	289.5
2611.564	307.5
2615.178	304.5
2618.79	302.5
2622.398	280.5
2626.004	291.5
2629.606	289.5
2633.205	283.5
2636.801	284.5
2640.394	282.5
2643.983	276.5
2647.57	263.5
2651.153	265.5
2654.734	273.5
2658.311	246.5
2661.885	256.5
2665.456	262.5
2669.025	260.5
2672.589	246.5
2676.151	257.5
2679.71	267.5
2683.266	254.5
2686.819	244.5
2690.368	244.5
2693.915	250.5
2697.458	243.5
2700.999	246.5
2704.536	241.5
2708.071	233.5
2711.602	233.5
2715.13	225.5
2718.656	210.5
2722.178	227.5
2725.697	210.5
2729.214	206.5
2732.727	221.5
2736.237	211.5
2739.744	218.5
2743.249	205.5
2746.75	221.5
2750.248	219.5
2753.743	220.5
2757.236	219.5
2760.725	224.5
2764.211	187.5
2767.695	213.5
2771.175	215.5
2774.652	220.5
2778.127	206.5
2781.598	214.5
2785.067	210.5
2788.532	193.5
2791.995	213.5
2795.455	204.5
2798.911	217.5
2802.365	198.5
2805.816	205.5
2809.264	216.5
2812.709	207.5
2816.151	212.5
2819.59	197.5
2823.026	210.5
2826.46	211.5
2829.89	219.5
2833.318	191.5
2836.742	202.5
2840.164	209.5
2843.583	209.5
2846.999	212.5
2850.412	220.5
2853.822	214.5
2857.229	224.5
2860.634	224.5
2864.035	209.5
2867.434	230.5
2870.83	237.5
2874.223	232.5
2877.613	241.5
2881	238.5
2884.385	230.5
2887.766	233.5
2891.145	243.5
2894.521	240.5
2897.894	226.5
2901.264	244.5
2904.631	250.5
2907.996	249.5
2911.358	253.5
2914.717	242.5
2918.073	244.5
2921.426	249.5
2924.777	241.5
2928.124	251.5
2931.469	271.5
2934.811	257.5
2938.15	280.5
2941.487	277.5
2944.821	292.5
2948.152	273.5
2951.48	293.5
2954.805	261.5
2958.128	281.5
2961.447	278.5
2964.765	286.5
2968.079	277.5
2971.39	276.5
2974.699	276.5
2978.005	289.5
2981.308	288.5
2984.609	277.5
2987.907	295.5
2991.202	300.5
2994.494	289.5
2997.784	299.5
3001.07	303.5
3004.355	309.5
3007.636	301.5
3010.915	307.5
3014.191	312.5
3017.464	308.5
3020.734	308.5
3024.002	313.5
3027.267	310.5
3030.53	320.5
3033.789	327.5
3037.046	331.5
3040.301	317.5
3043.552	347.5
3046.801	354.5
3050.048	359.5
3053.291	378.5
3056.532	369.5
3059.771	357.5
3063.006	399.5
3066.239	396.5
3069.469	410.5
3072.697	412.5
3075.922	425.5
3079.144	423.5
3082.364	455.5
3085.581	446.5
3088.795	483.5
3092.007	478.5
3095.216	493.5
3098.423	481.5
3101.627	476.5
3104.828	509.5
3108.026	503.5
3111.222	538.5
3114.416	549.5
3117.607	539.5
3120.795	550.5
3123.98	572.5
3127.163	568.5
3130.344	586.5
3133.521	589.5
3136.696	618.5
3139.869	625.5
3143.039	620.5
3146.206	663.5
3149.371	668.5
3152.533	668.5
3155.693	655.5
3158.85	673.5
3162.005	680.5
3165.157	674.5
3168.306	683.5
3171.453	689.5
3174.597	663.5
3177.739	671.5
3180.878	691.5
3184.014	677.5
3187.149	696.5
3190.28	695.5
3193.409	699.5
3196.536	681.5
3199.659	702.5
3202.781	701.5
3205.9	694.5
3209.016	708.5
3212.13	694.5
3215.241	698.5
3218.35	699.5
3221.456	679.5
3224.56	668.5
3227.661	683.5
3230.76	670.5
3233.856	662.5
3236.95	653.5
3240.041	648.5
3243.13	656.5
3246.216	645.5
3249.3	660.5
3252.382	651.5
3255.46	636.5
3258.537	591.5
3261.611	635.5
3264.682	628.5
3267.751	644.5
3270.818	630.5
3273.882	620.5
3276.943	627.5
3280.002	634.5
3283.059	609.5
3286.113	617.5
3289.165	591.5
3292.214	579.5
3295.261	597.5
3298.306	559.5
3301.348	571.5
3304.387	556.5
3307.425	565.5
3310.459	541.5
3313.492	547.5
3316.521	547.5
3319.549	545.5
3322.574	534.5
3325.597	519.5
3328.617	519.5
3331.635	515.5
3334.65	505.5
3337.663	511.5
3340.674	517.5
3343.682	513.5
3346.688	526.5
3349.691	506.5
3352.692	508.5
3355.691	522.5
3358.687	500.5
3361.681	503.5
3364.673	490.5
3367.662	490.5
3370.649	485.5
3373.633	467.5
3376.615	475.5
3379.595	456.5
3382.572	465.5
3385.547	451.5
3388.52	449.5
3391.49	442.5
3394.458	454.5
3397.424	438.5
3400.387	420.5
3403.348	434.5
3406.307	421.5
3409.263	411.5
3412.217	415.5
3415.168	419.5
3418.118	425.5
3421.065	410.5
3424.009	408.5
3426.951	397.5
3429.891	394.5
3432.829	388.5
3435.764	383.5
3438.697	362.5
3441.628	375.5
3444.557	342.5
3447.483	349.5
3450.407	345.5
3453.328	326.5
3456.247	324.5
3459.164	308.5
3462.079	317.5
3464.991	304.5
3467.902	295.5
3470.809	283.5
3473.715	277.5
3476.618	262.5
3479.519	275.5
3482.418	236.5
3485.315	242.5
3488.209	244.5
3491.101	239.5
3493.99	217.5
3496.878	222.5
3499.763	230.5
3502.646	215.5
3505.527	198.5
3508.405	194.5
3511.281	180.5
3514.155	189.5
3517.027	174.5
3519.897	163.5
3522.764	165.5
3525.629	145.5
3528.492	159.5
3531.352	155.5
3534.211	143.5
3537.067	131.5
3539.921	127.5
3542.773	133.5
3545.622	117.5
3548.469	108.5
3551.315	95.5
3554.157	106.5
3556.998	95.5
3559.837	91.5
3562.673	93.5
3565.507	79.5
3568.339	78.5
3571.169	79.5
3573.996	75.5
3576.822	54.5
3579.645	60.5
3582.466	68.5
3585.285	67.5
3588.101	61.5
3590.916	52.5
3593.728	58.5
3596.538	51.5
3599.346	51.5
3602.152	36.5
3604.956	47.5
3607.757	46.5
3610.556	30.5
3613.354	39.5
3616.149	34.5
3618.942	32.5
3621.732	31.5
3624.521	30.5
3627.307	19.5
3630.092	12.5
3632.874	34.5
3635.654	18.5
3638.432	14.5
3641.208	5.5
3643.982	12.5
3646.753	22.5
3649.523	-12.5
3652.29	12.5
3655.055	16.5
3657.818	7.5
3660.579	2.5
3663.338	-10.5
3666.095	2.5
3668.849	-25.5
3671.602	2.5
3674.352	-14.5
3677.101	6.5
3679.847	1.5
3682.591	-12.5
3685.333	-18.5
3688.073	-2.5
3690.811	-18.5
3693.547	-20.5
3696.281	-24.5
3699.013	-10.5
3701.742	-17.5
3704.47	-20.5
3707.195	-10.5
3709.919	-15.5
3712.64	-16.5
3715.359	-29.5
3718.076	-6.5
3720.792	-15.5
3723.505	-15.5
3726.216	-8.5
3728.925	-20.5
3731.632	-27.5
3734.336	-17.5
3737.039	-20.5
3739.74	-18.5
3742.439	-43.5
3745.136	-15.5
3747.83	-17.5
3750.523	-14.5
3753.213	-88.5
3755.902	-25.5
3758.589	-36.5
3761.273	-27.5
3763.956	-18.5
3766.636	-35.5
3769.315	-13.5
3771.991	-28.5
3774.665	-28.5
3777.338	-20.5
3780.008	-34.5
3782.677	-29.5
3785.343	-39.5
3788.007	-40.5
3790.67	-18.5
3793.33	-39.5
3795.989	-27.5
3798.645	-26.5
3801.299	-37.5
3803.952	-40.5
3806.602	-25.5
3809.251	-18.5
3811.897	-27.5
3814.542	-25.5
3817.184	-34.5
3819.825	-27.5
3822.463	-36.5
3825.1	-29.5
3827.735	-27.5
3830.367	-38.5
3832.998	-15.5
3835.627	-31.5
3838.253	-17.5
3840.878	-31.5
3843.501	-14.5
3846.122	-27.5
3848.741	-22.5
3851.358	-19.5
3853.973	-36.5
3856.586	-18.5
3859.197	-33.5
3861.806	-26.5
3864.414	-37.5
3867.019	-26.5
3869.622	-20.5
3872.224	-7.5
3874.823	6.5
3877.421	32.5
3880.016	55.5
3882.61	97.5
3885.202	107.5
3887.792	94.5
3890.38	41.5
3892.966	-2.5
3895.55	-23.5
3898.132	-15.5
3900.713	-19.5
3903.291	-24.5
3905.868	-34.5
3908.442	-26.5
3911.015	-25.5
3913.586	-33.5
3916.155	-28.5
3918.722	-36.5
3921.287	-31.5
3923.85	-45.5
3926.411	-32.5
3928.971	-33.5
3931.528	-25.5
3934.084	-29.5
3936.638	-40.5
3939.19	-26.5
3941.74	-27.5
3944.288	-30.5
3946.834	-32.5
3949.378	-22.5
3951.921	-33.5
3954.462	-27.5
3957	-25.5
3959.537	-15.5
3962.072	-29.5
3964.606	-44.5
3967.137	-33.5
3969.667	-33.5
3972.194	-30.5
3974.72	-33.5
3977.244	-56.5
3979.766	-36.5
3982.286	-39.5
3984.805	-29.5
3987.321	-19.5
3989.836	-26.5
3992.349	-33.5
3994.86	-26.5
3997.369	-38.5
3999.877	-30.5
4002.382	-34.5
4004.886	-19.5
4007.388	-23.5
4009.888	-16.5
4012.386	-19.5
4014.883	-24.5
4017.377	-29.5
4019.87	-24.5
4022.361	-34.5
4024.85	-20.5
4027.338	-25.5
4029.823	-31.5
4032.307	-26.5
4034.789	-27.5
4037.269	-27.5
4039.747	-39.5
4042.224	-17.5
4044.699	-36.5
4047.172	-31.5
4049.643	-19.5
4052.112	-47.5
4054.58	-25.5
4057.046	-39.5
4059.51	-28.5
4061.972	-25.5
4064.432	-42.5
4066.891	-14.5
4069.348	-23.5
4071.803	-24.5
4074.256	-31.5
4076.708	-22.5
4079.158	-26.5
4081.606	-20.5
4084.052	-28.5
4086.497	-21.5
4088.939	-27.5
4091.38	-30.5
4093.819	-24.5
4096.257	1.5
4098.693	-6.5
4101.127	-6.5
4103.559	0.5
4105.989	142.5
4108.418	145.5
4110.845	126.5
4113.27	144.5
4115.694	148.5
4118.115	146.5
4120.535	-21.5
4122.954	-19.5
4125.37	-20.5
4127.785	-25.5
4130.198	-20.5
4132.609	-23.5
4135.019	9.5
4137.427	-2.5
4139.833	6.5
4142.237	-2.5
