Data from 2018-3-6_conc=2_n=6_RamanShift_03.txt Node
Date: Tue Mar 06 12:58:19 GMT+02:00 2018
User: LAB3
Spectrometer: QEPB0276
Trigger mode: 0
Integration Time (sec): 3.000000E1
Scans to average: 1
Electric dark correction enabled: true
Nonlinearity correction enabled: false
Boxcar width: 0
XAxis mode: Raman Shifts
Number of Pixels in Spectrum: 1044
>>>>>Begin Spectral Data<<<<<
160.701	168.12
166.742	221.12
172.777	314.12
178.805	607.12
184.826	1372.12
190.841	2729.12
196.849	4328.12
202.85	5546.12
208.845	6002.12
214.833	6003.12
220.815	5964.12
226.789	5967.12
232.758	5987.12
238.719	6011.12
244.674	5987.12
250.623	5954.12
256.565	5899.12
262.5	5871.12
268.429	5833.12
274.351	5791.12
280.267	5815.12
286.176	5828.12
292.079	5844.12
297.975	5846.12
303.865	5805.12
309.748	5878.12
315.625	5875.12
321.495	5901.12
327.359	5867.12
333.217	5916.12
339.068	5954.12
344.912	5966.12
350.751	5982.12
356.583	6030.12
362.408	6030.12
368.227	6092.12
374.04	6101.12
379.847	6134.12
385.647	6196.12
391.44	6186.12
397.228	6271.12
403.009	6261.12
408.784	6277.12
414.553	6349.12
420.315	6366.12
426.071	6364.12
431.821	6346.12
437.565	6343.12
443.302	6354.12
449.033	6262.12
454.758	6267.12
460.477	6227.12
466.189	6193.12
471.896	6095.12
477.596	6103.12
483.29	5998.12
488.978	6011.12
494.66	5931.12
500.335	5779.12
506.005	5529.12
511.668	5247.12
517.325	5007.12
522.977	4761.12
528.622	4592.12
534.261	4502.12
539.894	4399.12
545.521	4318.12
551.141	4271.12
556.756	4212.12
562.365	4189.12
567.968	4149.12
573.565	4114.12
579.155	4103.12
584.74	4064.12
590.319	4071.12
595.892	4062.12
601.459	4061.12
607.02	4063.12
612.575	4037.12
618.124	3966.12
623.667	3903.12
629.204	3846.12
634.735	3795.12
640.261	3754.12
645.781	3710.12
651.294	3691.12
656.802	3687.12
662.304	3646.12
667.8	3666.12
673.29	3655.12
678.775	3629.12
684.254	3633.12
689.726	3613.12
695.193	3585.12
700.655	3548.12
706.11	3533.12
711.56	3527.12
717.004	3540.12
722.442	3499.12
727.874	3487.12
733.301	3484.12
738.722	3436.12
744.137	3466.12
749.547	3438.12
754.951	3461.12
760.349	3431.12
765.741	3493.12
771.128	3516.12
776.509	3561.12
781.885	3603.12
787.254	3634.12
792.618	3669.12
797.977	3642.12
803.33	3632.12
808.677	3602.12
814.019	3562.12
819.355	3549.12
824.686	3510.12
830.011	3472.12
835.33	3457.12
840.644	3443.12
845.952	3399.12
851.255	3375.12
856.552	3345.12
861.844	3329.12
867.13	3278.12
872.41	3260.12
877.686	3207.12
882.955	3189.12
888.219	3171.12
893.478	3091.12
898.731	3070.12
903.979	3057.12
909.221	3018.12
914.458	3008.12
919.69	2989.12
924.916	2977.12
930.136	2983.12
935.351	2994.12
940.561	3009.12
945.766	3005.12
950.965	3000.12
956.158	2962.12
961.347	2905.12
966.529	2873.12
971.707	2863.12
976.879	2813.12
982.046	2788.12
987.208	2762.12
992.364	2772.12
997.515	2786.12
1002.66	2812.12
1007.801	2829.12
1012.936	2835.12
1018.066	2860.12
1023.19	2889.12
1028.309	2882.12
1033.423	2894.12
1038.532	2891.12
1043.636	2871.12
1048.734	2846.12
1053.827	2814.12
1058.915	2773.12
1063.998	2765.12
1069.075	2760.12
1074.147	2773.12
1079.214	2746.12
1084.276	2799.12
1089.333	2820.12
1094.385	2810.12
1099.431	2773.12
1104.472	2755.12
1109.509	2756.12
1114.54	2688.12
1119.565	2668.12
1124.586	2617.12
1129.602	2583.12
1134.613	2551.12
1139.618	2562.12
1144.619	2553.12
1149.614	2550.12
1154.604	2562.12
1159.589	2559.12
1164.57	2581.12
1169.545	2574.12
1174.515	2585.12
1179.48	2576.12
1184.44	2570.12
1189.395	2535.12
1194.345	2519.12
1199.29	2514.12
1204.23	2488.12
1209.165	2499.12
1214.095	2522.12
1219.021	2524.12
1223.941	2533.12
1228.856	2535.12
1233.766	2553.12
1238.672	2547.12
1243.572	2545.12
1248.467	2515.12
1253.358	2471.12
1258.244	2436.12
1263.124	2446.12
1268	2372.12
1272.871	2316.12
1277.737	2318.12
1282.599	2296.12
1287.455	2283.12
1292.306	2305.12
1297.153	2294.12
1301.995	2309.12
1306.832	2324.12
1311.664	2336.12
1316.491	2333.12
1321.314	2327.12
1326.132	2292.12
1330.945	2277.12
1335.753	2221.12
1340.556	2191.12
1345.354	2154.12
1350.148	2144.12
1354.937	2115.12
1359.722	2095.12
1364.501	2056.12
1369.276	2060.12
1374.046	2083.12
1378.811	2049.12
1383.572	2051.12
1388.327	2054.12
1393.079	2018.12
1397.825	2002.12
1402.567	2014.12
1407.304	1969.12
1412.036	1985.12
1416.764	1977.12
1421.487	1953.12
1426.205	1974.12
1430.919	1989.12
1435.628	1979.12
1440.333	1981.12
1445.032	2007.12
1449.727	2021.12
1454.418	2032.12
1459.104	2042.12
1463.785	1993.12
1468.462	1979.12
1473.134	1946.12
1477.802	1915.12
1482.465	1862.12
1487.123	1850.12
1491.777	1836.12
1496.426	1809.12
1501.071	1846.12
1505.711	1851.12
1510.347	1865.12
1514.978	1857.12
1519.604	1868.12
1524.226	1899.12
1528.844	1849.12
1533.457	1869.12
1538.065	1845.12
1542.669	1816.12
1547.269	1813.12
1551.864	1807.12
1556.454	1800.12
1561.041	1786.12
1565.622	1788.12
1570.199	1807.12
1574.772	1817.12
1579.34	1828.12
1583.904	1854.12
1588.464	1875.12
1593.019	1881.12
1597.569	1842.12
1602.115	1853.12
1606.657	1849.12
1611.195	1865.12
1615.728	1847.12
1620.256	1811.12
1624.78	1818.12
1629.3	1832.12
1633.816	1855.12
1638.327	1845.12
1642.834	1882.12
1647.336	1878.12
1651.834	1898.12
1656.328	1884.12
1660.817	1869.12
1665.302	1843.12
1669.783	1835.12
1674.259	1802.12
1678.732	1753.12
1683.199	1717.12
1687.663	1684.12
1692.122	1651.12
1696.577	1630.12
1701.028	1582.12
1705.474	1532.12
1709.917	1532.12
1714.355	1493.12
1718.788	1498.12
1723.218	1472.12
1727.643	1448.12
1732.064	1419.12
1736.481	1406.12
1740.893	1366.12
1745.301	1354.12
1749.705	1291.12
1754.105	1307.12
1758.501	1249.12
1762.893	1262.12
1767.28	1225.12
1771.663	1208.12
1776.042	1197.12
1780.417	1191.12
1784.787	1204.12
1789.154	1207.12
1793.516	1214.12
1797.874	1217.12
1802.228	1196.12
1806.578	1185.12
1810.924	1191.12
1815.266	1069.12
1819.603	1161.12
1823.937	1146.12
1828.266	1130.12
1832.591	1126.12
1836.913	1110.12
1841.23	1103.12
1845.543	1088.12
1849.852	1111.12
1854.156	1093.12
1858.457	1098.12
1862.754	1088.12
1867.047	1108.12
1871.335	1112.12
1875.62	1098.12
1879.9	1105.12
1884.177	1111.12
1888.449	1095.12
1892.718	1095.12
1896.982	1086.12
1901.243	1065.12
1905.499	1071.12
1909.752	1057.12
1914	1050.12
1918.245	1070.12
1922.485	1070.12
1926.722	1079.12
1930.954	1077.12
1935.183	1083.12
1939.408	1088.12
1943.628	1067.12
1947.845	1075.12
1952.058	1058.12
1956.267	1044.12
1960.472	1028.12
1964.673	1024.12
1968.87	996.12
1973.063	982.12
1977.252	974.12
1981.438	948.12
1985.619	945.12
1989.797	918.12
1993.971	934.12
1998.14	943.12
2002.306	928.12
2006.469	932.12
2010.627	914.12
2014.781	908.12
2018.932	913.12
2023.078	913.12
2027.221	903.12
2031.36	884.12
2035.495	885.12
2039.627	885.12
2043.754	872.12
2047.878	858.12
2051.998	856.12
2056.114	849.12
2060.226	849.12
2064.334	856.12
2068.439	866.12
2072.54	877.12
2076.637	866.12
2080.73	854.12
2084.82	867.12
2088.906	867.12
2092.988	865.12
2097.066	861.12
2101.14	870.12
2105.211	845.12
2109.278	844.12
2113.342	815.12
2117.401	794.12
2121.457	793.12
2125.509	793.12
2129.558	806.12
2133.602	792.12
2137.643	786.12
2141.681	763.12
2145.714	781.12
2149.744	761.12
2153.77	752.12
2157.793	736.12
2161.812	711.12
2165.827	702.12
2169.838	733.12
2173.846	696.12
2177.851	692.12
2181.851	694.12
2185.848	680.12
2189.841	672.12
2193.831	664.12
2197.817	660.12
2201.799	656.12
2205.778	632.12
2209.753	649.12
2213.725	640.12
2217.693	643.12
2221.657	627.12
2225.618	646.12
2229.575	629.12
2233.529	632.12
2237.479	633.12
2241.425	607.12
2245.368	603.12
2249.307	595.12
2253.243	586.12
2257.175	582.12
2261.104	569.12
2265.029	569.12
2268.95	551.12
2272.868	535.12
2276.783	535.12
2280.694	536.12
2284.601	533.12
2288.505	531.12
2292.405	520.12
2296.302	504.12
2300.195	515.12
2304.085	473.12
2307.971	501.12
2311.854	473.12
2315.734	477.12
2319.609	477.12
2323.482	445.12
2327.351	455.12
2331.216	460.12
2335.078	465.12
2338.937	455.12
2342.792	451.12
2346.643	445.12
2350.492	459.12
2354.336	440.12
2358.178	445.12
2362.015	449.12
2365.85	454.12
2369.681	447.12
2373.508	448.12
2377.333	457.12
2381.153	454.12
2384.971	446.12
2388.785	448.12
2392.595	432.12
2396.402	434.12
2400.206	406.12
2404.007	426.12
2407.804	429.12
2411.597	420.12
2415.388	420.12
2419.174	418.12
2422.958	412.12
2426.738	410.12
2430.515	418.12
2434.289	405.12
2438.059	398.12
2441.825	402.12
2445.589	402.12
2449.349	385.12
2453.106	386.12
2456.859	388.12
2460.61	401.12
2464.356	378.12
2468.1	366.12
2471.84	365.12
2475.577	362.12
2479.311	356.12
2483.041	368.12
2486.768	380.12
2490.492	372.12
2494.213	364.12
2497.93	354.12
2501.644	338.12
2505.355	363.12
2509.062	358.12
2512.766	361.12
2516.467	348.12
2520.165	351.12
2523.859	341.12
2527.551	371.12
2531.239	337.12
2534.923	345.12
2538.605	336.12
2542.283	334.12
2545.958	331.12
2549.63	352.12
2553.299	351.12
2556.964	321.12
2560.626	336.12
2564.285	339.12
2567.941	321.12
2571.594	315.12
2575.243	337.12
2578.89	321.12
2582.533	317.12
2586.173	308.12
2589.809	312.12
2593.443	296.12
2597.073	308.12
2600.701	307.12
2604.325	306.12
2607.946	287.12
2611.564	297.12
2615.178	307.12
2618.79	297.12
2622.398	291.12
2626.004	291.12
2629.606	295.12
2633.205	280.12
2636.801	284.12
2640.394	282.12
2643.983	271.12
2647.57	268.12
2651.153	264.12
2654.734	278.12
2658.311	243.12
2661.885	252.12
2665.456	257.12
2669.025	256.12
2672.589	243.12
2676.151	267.12
2679.71	258.12
2683.266	246.12
2686.819	238.12
2690.368	243.12
2693.915	250.12
2697.458	236.12
2700.999	240.12
2704.536	245.12
2708.071	228.12
2711.602	233.12
2715.13	222.12
2718.656	207.12
2722.178	225.12
2725.697	212.12
2729.214	222.12
2732.727	217.12
2736.237	207.12
2739.744	214.12
2743.249	203.12
2746.75	224.12
2750.248	214.12
2753.743	223.12
2757.236	221.12
2760.725	223.12
2764.211	188.12
2767.695	220.12
2771.175	215.12
2774.652	211.12
2778.127	211.12
2781.598	199.12
2785.067	209.12
2788.532	204.12
2791.995	215.12
2795.455	205.12
2798.911	212.12
2802.365	206.12
2805.816	217.12
2809.264	220.12
2812.709	204.12
2816.151	211.12
2819.59	199.12
2823.026	207.12
2826.46	214.12
2829.89	213.12
2833.318	196.12
2836.742	209.12
2840.164	221.12
2843.583	213.12
2846.999	212.12
2850.412	222.12
2853.822	213.12
2857.229	228.12
2860.634	223.12
2864.035	218.12
2867.434	238.12
2870.83	242.12
2874.223	233.12
2877.613	240.12
2881	229.12
2884.385	236.12
2887.766	233.12
2891.145	238.12
2894.521	236.12
2897.894	230.12
2901.264	254.12
2904.631	240.12
2907.996	248.12
2911.358	259.12
2914.717	254.12
2918.073	249.12
2921.426	243.12
2924.777	237.12
2928.124	254.12
2931.469	268.12
2934.811	252.12
2938.15	280.12
2941.487	273.12
2944.821	288.12
2948.152	281.12
2951.48	278.12
2954.805	269.12
2958.128	288.12
2961.447	271.12
2964.765	291.12
2968.079	278.12
2971.39	279.12
2974.699	283.12
2978.005	283.12
2981.308	293.12
2984.609	288.12
2987.907	298.12
2991.202	301.12
2994.494	290.12
2997.784	303.12
3001.07	302.12
3004.355	297.12
3007.636	304.12
3010.915	312.12
3014.191	306.12
3017.464	318.12
3020.734	318.12
3024.002	312.12
3027.267	316.12
3030.53	324.12
3033.789	329.12
3037.046	334.12
3040.301	323.12
3043.552	342.12
3046.801	342.12
3050.048	362.12
3053.291	383.12
3056.532	369.12
3059.771	364.12
3063.006	395.12
3066.239	400.12
3069.469	415.12
3072.697	414.12
3075.922	409.12
3079.144	428.12
3082.364	461.12
3085.581	443.12
3088.795	482.12
3092.007	478.12
3095.216	487.12
3098.423	490.12
3101.627	475.12
3104.828	509.12
3108.026	509.12
3111.222	543.12
3114.416	548.12
3117.607	556.12
3120.795	562.12
3123.98	574.12
3127.163	574.12
3130.344	585.12
3133.521	591.12
3136.696	633.12
3139.869	638.12
3143.039	619.12
3146.206	665.12
3149.371	658.12
3152.533	672.12
3155.693	654.12
3158.85	678.12
3162.005	681.12
3165.157	678.12
3168.306	670.12
3171.453	688.12
3174.597	676.12
3177.739	670.12
3180.878	694.12
3184.014	691.12
3187.149	681.12
3190.28	682.12
3193.409	705.12
3196.536	697.12
3199.659	702.12
3202.781	701.12
3205.9	695.12
3209.016	703.12
3212.13	706.12
3215.241	681.12
3218.35	692.12
3221.456	690.12
3224.56	676.12
3227.661	682.12
3230.76	678.12
3233.856	661.12
3236.95	661.12
3240.041	653.12
3243.13	667.12
3246.216	657.12
3249.3	668.12
3252.382	638.12
3255.46	640.12
3258.537	589.12
3261.611	634.12
3264.682	652.12
3267.751	636.12
3270.818	624.12
3273.882	642.12
3276.943	629.12
3280.002	640.12
3283.059	619.12
3286.113	610.12
3289.165	593.12
3292.214	587.12
3295.261	602.12
3298.306	569.12
3301.348	576.12
3304.387	560.12
3307.425	570.12
3310.459	553.12
3313.492	561.12
3316.521	543.12
3319.549	547.12
3322.574	546.12
3325.597	532.12
3328.617	513.12
3331.635	521.12
3334.65	506.12
3337.663	517.12
3340.674	513.12
3343.682	526.12
3346.688	527.12
3349.691	516.12
3352.692	514.12
3355.691	514.12
3358.687	510.12
3361.681	503.12
3364.673	486.12
3367.662	500.12
3370.649	489.12
3373.633	480.12
3376.615	486.12
3379.595	461.12
3382.572	463.12
3385.547	445.12
3388.52	448.12
3391.49	449.12
3394.458	444.12
3397.424	445.12
3400.387	436.12
3403.348	431.12
3406.307	430.12
3409.263	426.12
3412.217	424.12
3415.168	414.12
3418.118	434.12
3421.065	404.12
3424.009	404.12
3426.951	399.12
3429.891	389.12
3432.829	392.12
3435.764	387.12
3438.697	365.12
3441.628	377.12
3444.557	348.12
3447.483	337.12
3450.407	354.12
3453.328	327.12
3456.247	311.12
3459.164	312.12
3462.079	317.12
3464.991	303.12
3467.902	291.12
3470.809	289.12
3473.715	287.12
3476.618	275.12
3479.519	269.12
3482.418	243.12
3485.315	241.12
3488.209	242.12
3491.101	241.12
3493.99	219.12
3496.878	225.12
3499.763	227.12
3502.646	217.12
3505.527	205.12
3508.405	200.12
3511.281	182.12
3514.155	192.12
3517.027	179.12
3519.897	171.12
3522.764	174.12
3525.629	147.12
3528.492	157.12
3531.352	143.12
3534.211	147.12
3537.067	141.12
3539.921	138.12
3542.773	141.12
3545.622	118.12
3548.469	109.12
3551.315	100.12
3554.157	111.12
3556.998	92.12
3559.837	92.12
3562.673	105.12
3565.507	86.12
3568.339	75.12
3571.169	81.12
3573.996	84.12
3576.822	63.12
3579.645	60.12
3582.466	63.12
3585.285	67.12
3588.101	62.12
3590.916	55.12
3593.728	59.12
3596.538	53.12
3599.346	48.12
3602.152	40.12
3604.956	43.12
3607.757	45.12
3610.556	25.12
3613.354	40.12
3616.149	35.12
3618.942	38.12
3621.732	33.12
3624.521	26.12
3627.307	17.12
3630.092	17.12
3632.874	33.12
3635.654	20.12
3638.432	12.12
3641.208	14.12
3643.982	19.12
3646.753	18.12
3649.523	-11.88
3652.29	10.12
3655.055	17.12
3657.818	5.12
3660.579	4.12
3663.338	-6.88
3666.095	1.12
3668.849	-23.88
3671.602	2.12
3674.352	-11.88
3677.101	6.12
3679.847	3.12
3682.591	-13.88
3685.333	-19.88
3688.073	-11.88
3690.811	-12.88
3693.547	-21.88
3696.281	-21.88
3699.013	-9.88
3701.742	-13.88
3704.47	-19.88
3707.195	-11.88
3709.919	-12.88
3712.64	-16.88
3715.359	-29.88
3718.076	-4.88
3720.792	-16.88
3723.505	-13.88
3726.216	-7.88
3728.925	-17.88
3731.632	-26.88
3734.336	-15.88
3737.039	-20.88
3739.74	-18.88
3742.439	-46.88
3745.136	-14.88
3747.83	-14.88
3750.523	-13.88
3753.213	-87.88
3755.902	-24.88
3758.589	-33.88
3761.273	-29.88
3763.956	-18.88
3766.636	-35.88
3769.315	-10.88
3771.991	-27.88
3774.665	-27.88
3777.338	-28.88
3780.008	-29.88
3782.677	-24.88
3785.343	-40.88
3788.007	-43.88
3790.67	-16.88
3793.33	-34.88
3795.989	-27.88
3798.645	-22.88
3801.299	-34.88
3803.952	-35.88
3806.602	-26.88
3809.251	-21.88
3811.897	-25.88
3814.542	-24.88
3817.184	-28.88
3819.825	-26.88
3822.463	-41.88
3825.1	-29.88
3827.735	-27.88
3830.367	-34.88
3832.998	-17.88
3835.627	-28.88
3838.253	-22.88
3840.878	-26.88
3843.501	-10.88
3846.122	-23.88
3848.741	-22.88
3851.358	-22.88
3853.973	-40.88
3856.586	-16.88
3859.197	-32.88
3861.806	-28.88
3864.414	-40.88
3867.019	-21.88
3869.622	-12.88
3872.224	-10.88
3874.823	15.12
3877.421	48.12
3880.016	87.12
3882.61	136.12
3885.202	158.12
3887.792	118.12
3890.38	57.12
3892.966	10.12
3895.55	-19.88
3898.132	-13.88
3900.713	-17.88
3903.291	-25.88
3905.868	-39.88
3908.442	-29.88
3911.015	-31.88
3913.586	-31.88
3916.155	-28.88
3918.722	-35.88
3921.287	-36.88
3923.85	-42.88
3926.411	-36.88
3928.971	-36.88
3931.528	-30.88
3934.084	-34.88
3936.638	-42.88
3939.19	-29.88
3941.74	-29.88
3944.288	-36.88
3946.834	-30.88
3949.378	-25.88
3951.921	-38.88
3954.462	-31.88
3957	-28.88
3959.537	-15.88
3962.072	-26.88
3964.606	-44.88
3967.137	-33.88
3969.667	-31.88
3972.194	-26.88
3974.72	-38.88
3977.244	-55.88
3979.766	-36.88
3982.286	-35.88
3984.805	-27.88
3987.321	-20.88
3989.836	-20.88
3992.349	-32.88
3994.86	-29.88
3997.369	-34.88
3999.877	-32.88
4002.382	-30.88
4004.886	-23.88
4007.388	-23.88
4009.888	-19.88
4012.386	-26.88
4014.883	-23.88
4017.377	-27.88
4019.87	-20.88
4022.361	-37.88
4024.85	-31.88
4027.338	-24.88
4029.823	-31.88
4032.307	-24.88
4034.789	-28.88
4037.269	-25.88
4039.747	-36.88
4042.224	-20.88
4044.699	-30.88
4047.172	-31.88
4049.643	-21.88
4052.112	-53.88
4054.58	-20.88
4057.046	-41.88
4059.51	-26.88
4061.972	-25.88
4064.432	-50.88
4066.891	-15.88
4069.348	-29.88
4071.803	-23.88
4074.256	-32.88
4076.708	-20.88
4079.158	-24.88
4081.606	-15.88
4084.052	-29.88
4086.497	-20.88
4088.939	-25.88
4091.38	-30.88
4093.819	-19.88
4096.257	-0.88
4098.693	-3.88
4101.127	-6.88
4103.559	-0.88
4105.989	155.12
4108.418	164.12
4110.845	145.12
4113.27	156.12
4115.694	153.12
4118.115	156.12
4120.535	-25.88
4122.954	-21.88
4125.37	-17.88
4127.785	-25.88
4130.198	-18.88
4132.609	-17.88
4135.019	10.12
4137.427	-0.88
4139.833	8.12
4142.237	-4.88
