Data from 2018-3-6_conc=2_n=7_RamanShift_04.txt Node
Date: Tue Mar 06 13:01:49 GMT+02:00 2018
User: LAB3
Spectrometer: QEPB0276
Trigger mode: 0
Integration Time (sec): 3.000000E1
Scans to average: 1
Electric dark correction enabled: true
Nonlinearity correction enabled: false
Boxcar width: 0
XAxis mode: Raman Shifts
Number of Pixels in Spectrum: 1044
>>>>>Begin Spectral Data<<<<<
160.701	155.88
166.742	194.88
172.777	293.88
178.805	595.88
184.826	1341.88
190.841	2689.88
196.849	4228.88
202.85	5449.88
208.845	5870.88
214.833	5902.88
220.815	5798.88
226.789	5836.88
232.758	5886.88
238.719	5893.88
244.674	5913.88
250.623	5826.88
256.565	5819.88
262.5	5756.88
268.429	5739.88
274.351	5712.88
280.267	5714.88
286.176	5727.88
292.079	5753.88
297.975	5734.88
303.865	5762.88
309.748	5784.88
315.625	5766.88
321.495	5779.88
327.359	5821.88
333.217	5816.88
339.068	5847.88
344.912	5874.88
350.751	5909.88
356.583	5920.88
362.408	5938.88
368.227	5978.88
374.04	5961.88
379.847	6046.88
385.647	6068.88
391.44	6101.88
397.228	6144.88
403.009	6177.88
408.784	6169.88
414.553	6203.88
420.315	6262.88
426.071	6240.88
431.821	6243.88
437.565	6231.88
443.302	6213.88
449.033	6171.88
454.758	6128.88
460.477	6083.88
466.189	6041.88
471.896	5958.88
477.596	5972.88
483.29	5909.88
488.978	5914.88
494.66	5874.88
500.335	5696.88
506.005	5454.88
511.668	5193.88
517.325	4910.88
522.977	4723.88
528.622	4584.88
534.261	4465.88
539.894	4375.88
545.521	4305.88
551.141	4231.88
556.756	4234.88
562.365	4161.88
567.968	4118.88
573.565	4097.88
579.155	4091.88
584.74	4062.88
590.319	4049.88
595.892	4032.88
601.459	4042.88
607.02	4032.88
612.575	4019.88
618.124	3952.88
623.667	3877.88
629.204	3837.88
634.735	3814.88
640.261	3764.88
645.781	3708.88
651.294	3687.88
656.802	3696.88
662.304	3662.88
667.8	3709.88
673.29	3655.88
678.775	3657.88
684.254	3619.88
689.726	3614.88
695.193	3610.88
700.655	3560.88
706.11	3537.88
711.56	3524.88
717.004	3519.88
722.442	3458.88
727.874	3482.88
733.301	3493.88
738.722	3466.88
744.137	3472.88
749.547	3468.88
754.951	3461.88
760.349	3461.88
765.741	3486.88
771.128	3475.88
776.509	3533.88
781.885	3567.88
787.254	3627.88
792.618	3637.88
797.977	3636.88
803.33	3607.88
808.677	3570.88
814.019	3550.88
819.355	3520.88
824.686	3484.88
830.011	3424.88
835.33	3448.88
840.644	3435.88
845.952	3416.88
851.255	3392.88
856.552	3340.88
861.844	3320.88
867.13	3273.88
872.41	3262.88
877.686	3201.88
882.955	3198.88
888.219	3164.88
893.478	3092.88
898.731	3104.88
903.979	3047.88
909.221	2993.88
914.458	2973.88
919.69	2987.88
924.916	2983.88
930.136	2996.88
935.351	2992.88
940.561	2995.88
945.766	2995.88
950.965	2980.88
956.158	2951.88
961.347	2903.88
966.529	2885.88
971.707	2839.88
976.879	2820.88
982.046	2812.88
987.208	2781.88
992.364	2782.88
997.515	2797.88
1002.66	2808.88
1007.801	2839.88
1012.936	2860.88
1018.066	2850.88
1023.19	2865.88
1028.309	2894.88
1033.423	2892.88
1038.532	2892.88
1043.636	2871.88
1048.734	2855.88
1053.827	2814.88
1058.915	2805.88
1063.998	2772.88
1069.075	2757.88
1074.147	2780.88
1079.214	2754.88
1084.276	2771.88
1089.333	2785.88
1094.385	2773.88
1099.431	2770.88
1104.472	2772.88
1109.509	2732.88
1114.54	2684.88
1119.565	2655.88
1124.586	2629.88
1129.602	2580.88
1134.613	2558.88
1139.618	2539.88
1144.619	2559.88
1149.614	2553.88
1154.604	2565.88
1159.589	2554.88
1164.57	2586.88
1169.545	2621.88
1174.515	2582.88
1179.48	2581.88
1184.44	2566.88
1189.395	2532.88
1194.345	2513.88
1199.29	2486.88
1204.23	2493.88
1209.165	2497.88
1214.095	2524.88
1219.021	2516.88
1223.941	2526.88
1228.856	2532.88
1233.766	2560.88
1238.672	2555.88
1243.572	2559.88
1248.467	2516.88
1253.358	2490.88
1258.244	2428.88
1263.124	2424.88
1268	2376.88
1272.871	2321.88
1277.737	2315.88
1282.599	2297.88
1287.455	2299.88
1292.306	2301.88
1297.153	2301.88
1301.995	2327.88
1306.832	2313.88
1311.664	2336.88
1316.491	2318.88
1321.314	2318.88
1326.132	2288.88
1330.945	2282.88
1335.753	2215.88
1340.556	2205.88
1345.354	2142.88
1350.148	2153.88
1354.937	2122.88
1359.722	2072.88
1364.501	2071.88
1369.276	2066.88
1374.046	2066.88
1378.811	2046.88
1383.572	2058.88
1388.327	2054.88
1393.079	2021.88
1397.825	2008.88
1402.567	1994.88
1407.304	1981.88
1412.036	1988.88
1416.764	1951.88
1421.487	1948.88
1426.205	1967.88
1430.919	1971.88
1435.628	1977.88
1440.333	1987.88
1445.032	2021.88
1449.727	2045.88
1454.418	2015.88
1459.104	2021.88
1463.785	2005.88
1468.462	1972.88
1473.134	1934.88
1477.802	1909.88
1482.465	1857.88
1487.123	1861.88
1491.777	1851.88
1496.426	1821.88
1501.071	1848.88
1505.711	1858.88
1510.347	1861.88
1514.978	1878.88
1519.604	1881.88
1524.226	1887.88
1528.844	1864.88
1533.457	1860.88
1538.065	1848.88
1542.669	1817.88
1547.269	1812.88
1551.864	1824.88
1556.454	1794.88
1561.041	1774.88
1565.622	1787.88
1570.199	1806.88
1574.772	1804.88
1579.34	1818.88
1583.904	1844.88
1588.464	1851.88
1593.019	1857.88
1597.569	1826.88
1602.115	1844.88
1606.657	1836.88
1611.195	1863.88
1615.728	1829.88
1620.256	1800.88
1624.78	1806.88
1629.3	1813.88
1633.816	1829.88
1638.327	1824.88
1642.834	1837.88
1647.336	1854.88
1651.834	1881.88
1656.328	1861.88
1660.817	1871.88
1665.302	1838.88
1669.783	1806.88
1674.259	1806.88
1678.732	1763.88
1683.199	1728.88
1687.663	1684.88
1692.122	1649.88
1696.577	1602.88
1701.028	1587.88
1705.474	1540.88
1709.917	1528.88
1714.355	1520.88
1718.788	1505.88
1723.218	1464.88
1727.643	1448.88
1732.064	1440.88
1736.481	1407.88
1740.893	1387.88
1745.301	1346.88
1749.705	1313.88
1754.105	1299.88
1758.501	1275.88
1762.893	1252.88
1767.28	1206.88
1771.663	1221.88
1776.042	1195.88
1780.417	1202.88
1784.787	1215.88
1789.154	1212.88
1793.516	1224.88
1797.874	1221.88
1802.228	1203.88
1806.578	1200.88
1810.924	1196.88
1815.266	1073.88
1819.603	1183.88
1823.937	1133.88
1828.266	1136.88
1832.591	1132.88
1836.913	1118.88
1841.23	1109.88
1845.543	1096.88
1849.852	1125.88
1854.156	1104.88
1858.457	1098.88
1862.754	1098.88
1867.047	1104.88
1871.335	1122.88
1875.62	1131.88
1879.9	1107.88
1884.177	1102.88
1888.449	1108.88
1892.718	1099.88
1896.982	1109.88
1901.243	1084.88
1905.499	1083.88
1909.752	1074.88
1914	1051.88
1918.245	1083.88
1922.485	1089.88
1926.722	1087.88
1930.954	1076.88
1935.183	1080.88
1939.408	1093.88
1943.628	1096.88
1947.845	1083.88
1952.058	1080.88
1956.267	1049.88
1960.472	1041.88
1964.673	1034.88
1968.87	1014.88
1973.063	991.88
1977.252	983.88
1981.438	956.88
1985.619	939.88
1989.797	919.88
1993.971	935.88
1998.14	937.88
2002.306	932.88
2006.469	939.88
2010.627	913.88
2014.781	929.88
2018.932	910.88
2023.078	934.88
2027.221	914.88
2031.36	883.88
2035.495	883.88
2039.627	879.88
2043.754	873.88
2047.878	857.88
2051.998	849.88
2056.114	847.88
2060.226	858.88
2064.334	875.88
2068.439	868.88
2072.54	868.88
2076.637	865.88
2080.73	870.88
2084.82	889.88
2088.906	866.88
2092.988	859.88
2097.066	872.88
2101.14	869.88
2105.211	856.88
2109.278	842.88
2113.342	831.88
2117.401	830.88
2121.457	792.88
2125.509	802.88
2129.558	798.88
2133.602	796.88
2137.643	786.88
2141.681	790.88
2145.714	773.88
2149.744	771.88
2153.77	771.88
2157.793	743.88
2161.812	736.88
2165.827	708.88
2169.838	731.88
2173.846	699.88
2177.851	690.88
2181.851	701.88
2185.848	682.88
2189.841	686.88
2193.831	674.88
2197.817	676.88
2201.799	651.88
2205.778	644.88
2209.753	656.88
2213.725	643.88
2217.693	641.88
2221.657	636.88
2225.618	637.88
2229.575	638.88
2233.529	634.88
2237.479	623.88
2241.425	613.88
2245.368	593.88
2249.307	596.88
2253.243	582.88
2257.175	583.88
2261.104	559.88
2265.029	572.88
2268.95	555.88
2272.868	547.88
2276.783	533.88
2280.694	538.88
2284.601	536.88
2288.505	515.88
2292.405	528.88
2296.302	498.88
2300.195	506.88
2304.085	480.88
2307.971	495.88
2311.854	457.88
2315.734	470.88
2319.609	472.88
2323.482	446.88
2327.351	458.88
2331.216	457.88
2335.078	470.88
2338.937	448.88
2342.792	440.88
2346.643	448.88
2350.492	455.88
2354.336	449.88
2358.178	454.88
2362.015	445.88
2365.85	441.88
2369.681	448.88
2373.508	450.88
2377.333	443.88
2381.153	453.88
2384.971	441.88
2388.785	441.88
2392.595	423.88
2396.402	421.88
2400.206	406.88
2404.007	420.88
2407.804	421.88
2411.597	428.88
2415.388	419.88
2419.174	409.88
2422.958	413.88
2426.738	406.88
2430.515	409.88
2434.289	404.88
2438.059	390.88
2441.825	399.88
2445.589	407.88
2449.349	384.88
2453.106	390.88
2456.859	391.88
2460.61	388.88
2464.356	372.88
2468.1	363.88
2471.84	362.88
2475.577	361.88
2479.311	362.88
2483.041	367.88
2486.768	374.88
2490.492	380.88
2494.213	366.88
2497.93	345.88
2501.644	349.88
2505.355	359.88
2509.062	356.88
2512.766	355.88
2516.467	341.88
2520.165	333.88
2523.859	342.88
2527.551	359.88
2531.239	343.88
2534.923	348.88
2538.605	333.88
2542.283	342.88
2545.958	341.88
2549.63	351.88
2553.299	348.88
2556.964	325.88
2560.626	334.88
2564.285	328.88
2567.941	323.88
2571.594	311.88
2575.243	328.88
2578.89	310.88
2582.533	321.88
2586.173	314.88
2589.809	318.88
2593.443	290.88
2597.073	306.88
2600.701	311.88
2604.325	303.88
2607.946	285.88
2611.564	303.88
2615.178	296.88
2618.79	301.88
2622.398	282.88
2626.004	293.88
2629.606	288.88
2633.205	271.88
2636.801	287.88
2640.394	278.88
2643.983	270.88
2647.57	260.88
2651.153	261.88
2654.734	266.88
2658.311	243.88
2661.885	252.88
2665.456	249.88
2669.025	250.88
2672.589	246.88
2676.151	261.88
2679.71	253.88
2683.266	238.88
2686.819	232.88
2690.368	238.88
2693.915	247.88
2697.458	241.88
2700.999	241.88
2704.536	231.88
2708.071	225.88
2711.602	228.88
2715.13	228.88
2718.656	204.88
2722.178	219.88
2725.697	204.88
2729.214	213.88
2732.727	223.88
2736.237	194.88
2739.744	215.88
2743.249	213.88
2746.75	214.88
2750.248	212.88
2753.743	222.88
2757.236	218.88
2760.725	214.88
2764.211	182.88
2767.695	224.88
2771.175	204.88
2774.652	212.88
2778.127	199.88
2781.598	208.88
2785.067	209.88
2788.532	192.88
2791.995	202.88
2795.455	200.88
2798.911	219.88
2802.365	192.88
2805.816	212.88
2809.264	214.88
2812.709	196.88
2816.151	215.88
2819.59	196.88
2823.026	205.88
2826.46	200.88
2829.89	216.88
2833.318	186.88
2836.742	210.88
2840.164	205.88
2843.583	213.88
2846.999	215.88
2850.412	212.88
2853.822	212.88
2857.229	229.88
2860.634	221.88
2864.035	206.88
2867.434	228.88
2870.83	237.88
2874.223	232.88
2877.613	228.88
2881	225.88
2884.385	235.88
2887.766	233.88
2891.145	235.88
2894.521	237.88
2897.894	221.88
2901.264	233.88
2904.631	240.88
2907.996	241.88
2911.358	241.88
2914.717	240.88
2918.073	236.88
2921.426	242.88
2924.777	231.88
2928.124	252.88
2931.469	261.88
2934.811	247.88
2938.15	271.88
2941.487	270.88
2944.821	281.88
2948.152	265.88
2951.48	280.88
2954.805	260.88
2958.128	277.88
2961.447	264.88
2964.765	284.88
2968.079	267.88
2971.39	276.88
2974.699	277.88
2978.005	273.88
2981.308	274.88
2984.609	269.88
2987.907	282.88
2991.202	299.88
2994.494	283.88
2997.784	302.88
3001.07	292.88
3004.355	292.88
3007.636	305.88
3010.915	302.88
3014.191	282.88
3017.464	306.88
3020.734	310.88
3024.002	308.88
3027.267	306.88
3030.53	312.88
3033.789	312.88
3037.046	311.88
3040.301	315.88
3043.552	325.88
3046.801	337.88
3050.048	348.88
3053.291	379.88
3056.532	354.88
3059.771	351.88
3063.006	378.88
3066.239	384.88
3069.469	401.88
3072.697	399.88
3075.922	411.88
3079.144	404.88
3082.364	446.88
3085.581	434.88
3088.795	443.88
3092.007	463.88
3095.216	466.88
3098.423	474.88
3101.627	460.88
3104.828	485.88
3108.026	490.88
3111.222	514.88
3114.416	540.88
3117.607	535.88
3120.795	547.88
3123.98	559.88
3127.163	547.88
3130.344	558.88
3133.521	578.88
3136.696	605.88
3139.869	611.88
3143.039	594.88
3146.206	632.88
3149.371	636.88
3152.533	629.88
3155.693	625.88
3158.85	638.88
3162.005	652.88
3165.157	650.88
3168.306	650.88
3171.453	666.88
3174.597	635.88
3177.739	655.88
3180.878	652.88
3184.014	678.88
3187.149	660.88
3190.28	662.88
3193.409	675.88
3196.536	672.88
3199.659	683.88
3202.781	680.88
3205.9	668.88
3209.016	676.88
3212.13	672.88
3215.241	666.88
3218.35	667.88
3221.456	662.88
3224.56	645.88
3227.661	657.88
3230.76	643.88
3233.856	641.88
3236.95	638.88
3240.041	632.88
3243.13	642.88
3246.216	622.88
3249.3	626.88
3252.382	626.88
3255.46	616.88
3258.537	567.88
3261.611	613.88
3264.682	619.88
3267.751	619.88
3270.818	600.88
3273.882	627.88
3276.943	608.88
3280.002	616.88
3283.059	588.88
3286.113	603.88
3289.165	575.88
3292.214	571.88
3295.261	583.88
3298.306	545.88
3301.348	558.88
3304.387	536.88
3307.425	540.88
3310.459	537.88
3313.492	537.88
3316.521	522.88
3319.549	529.88
3322.574	528.88
3325.597	495.88
3328.617	505.88
3331.635	498.88
3334.65	478.88
3337.663	494.88
3340.674	493.88
3343.682	490.88
3346.688	506.88
3349.691	476.88
3352.692	494.88
3355.691	489.88
3358.687	475.88
3361.681	482.88
3364.673	485.88
3367.662	468.88
3370.649	475.88
3373.633	444.88
3376.615	448.88
3379.595	441.88
3382.572	438.88
3385.547	424.88
3388.52	425.88
3391.49	421.88
3394.458	419.88
3397.424	419.88
3400.387	411.88
3403.348	403.88
3406.307	400.88
3409.263	406.88
3412.217	405.88
3415.168	392.88
3418.118	412.88
3421.065	386.88
3424.009	392.88
3426.951	378.88
3429.891	360.88
3432.829	371.88
3435.764	376.88
3438.697	353.88
3441.628	356.88
3444.557	331.88
3447.483	321.88
3450.407	332.88
3453.328	314.88
3456.247	299.88
3459.164	297.88
3462.079	301.88
3464.991	286.88
3467.902	269.88
3470.809	279.88
3473.715	267.88
3476.618	254.88
3479.519	257.88
3482.418	223.88
3485.315	232.88
3488.209	234.88
3491.101	223.88
3493.99	207.88
3496.878	217.88
3499.763	211.88
3502.646	209.88
3505.527	185.88
3508.405	192.88
3511.281	168.88
3514.155	179.88
3517.027	167.88
3519.897	156.88
3522.764	162.88
3525.629	139.88
3528.492	145.88
3531.352	149.88
3534.211	136.88
3537.067	126.88
3539.921	120.88
3542.773	123.88
3545.622	103.88
3548.469	103.88
3551.315	90.88
3554.157	107.88
3556.998	88.88
3559.837	88.88
3562.673	90.88
3565.507	74.88
3568.339	73.88
3571.169	75.88
3573.996	72.88
3576.822	51.88
3579.645	53.88
3582.466	59.88
3585.285	61.88
3588.101	55.88
3590.916	47.88
3593.728	57.88
3596.538	40.88
3599.346	48.88
3602.152	35.88
3604.956	41.88
3607.757	37.88
3610.556	17.88
3613.354	37.88
3616.149	31.88
3618.942	31.88
3621.732	33.88
3624.521	21.88
3627.307	8.88
3630.092	9.88
3632.874	30.88
3635.654	12.88
3638.432	9.88
3641.208	9.88
3643.982	9.88
3646.753	13.88
3649.523	-16.12
3652.29	2.88
3655.055	12.88
3657.818	3.88
3660.579	-2.12
3663.338	-9.12
3666.095	-7.12
3668.849	-31.12
3671.602	1.88
3674.352	-15.12
3677.101	2.88
3679.847	0.88
3682.591	-16.12
3685.333	-24.12
3688.073	-9.12
3690.811	-24.12
3693.547	-22.12
3696.281	-24.12
3699.013	-7.12
3701.742	-21.12
3704.47	-25.12
3707.195	-13.12
3709.919	-16.12
3712.64	-15.12
3715.359	-24.12
3718.076	-11.12
3720.792	-19.12
3723.505	-19.12
3726.216	-7.12
3728.925	-21.12
3731.632	-27.12
3734.336	-18.12
3737.039	-21.12
3739.74	-22.12
3742.439	-42.12
3745.136	-18.12
3747.83	-18.12
3750.523	-18.12
3753.213	-92.12
3755.902	-28.12
3758.589	-34.12
3761.273	-34.12
3763.956	-17.12
3766.636	-38.12
3769.315	-17.12
3771.991	-28.12
3774.665	-36.12
3777.338	-27.12
3780.008	-36.12
3782.677	-32.12
3785.343	-46.12
3788.007	-49.12
3790.67	-25.12
3793.33	-43.12
3795.989	-32.12
3798.645	-27.12
3801.299	-42.12
3803.952	-40.12
3806.602	-34.12
3809.251	-26.12
3811.897	-32.12
3814.542	-34.12
3817.184	-34.12
3819.825	-29.12
3822.463	-43.12
3825.1	-35.12
3827.735	-26.12
3830.367	-43.12
3832.998	-18.12
3835.627	-31.12
3838.253	-25.12
3840.878	-36.12
3843.501	-17.12
3846.122	-28.12
3848.741	-24.12
3851.358	-28.12
3853.973	-40.12
3856.586	-21.12
3859.197	-33.12
3861.806	-30.12
3864.414	-41.12
3867.019	-32.12
3869.622	-16.12
3872.224	-18.12
3874.823	3.88
3877.421	28.88
3880.016	51.88
3882.61	91.88
3885.202	118.88
3887.792	84.88
3890.38	41.88
3892.966	-1.12
3895.55	-31.12
3898.132	-24.12
3900.713	-22.12
3903.291	-27.12
3905.868	-38.12
3908.442	-30.12
3911.015	-31.12
3913.586	-38.12
3916.155	-36.12
3918.722	-39.12
3921.287	-39.12
3923.85	-44.12
3926.411	-40.12
3928.971	-43.12
3931.528	-28.12
3934.084	-36.12
3936.638	-44.12
3939.19	-31.12
3941.74	-34.12
3944.288	-34.12
3946.834	-32.12
3949.378	-27.12
3951.921	-37.12
3954.462	-35.12
3957	-31.12
3959.537	-22.12
3962.072	-34.12
3964.606	-50.12
3967.137	-36.12
3969.667	-38.12
3972.194	-28.12
3974.72	-42.12
3977.244	-59.12
3979.766	-41.12
3982.286	-42.12
3984.805	-27.12
3987.321	-26.12
3989.836	-30.12
3992.349	-39.12
3994.86	-32.12
3997.369	-43.12
3999.877	-29.12
4002.382	-35.12
4004.886	-28.12
4007.388	-32.12
4009.888	-21.12
4012.386	-21.12
4014.883	-30.12
4017.377	-32.12
4019.87	-29.12
4022.361	-38.12
4024.85	-28.12
4027.338	-30.12
4029.823	-34.12
4032.307	-30.12
4034.789	-34.12
4037.269	-31.12
4039.747	-44.12
4042.224	-22.12
4044.699	-36.12
4047.172	-35.12
4049.643	-23.12
4052.112	-53.12
4054.58	-29.12
4057.046	-41.12
4059.51	-29.12
4061.972	-27.12
4064.432	-44.12
4066.891	-16.12
4069.348	-28.12
4071.803	-28.12
4074.256	-31.12
4076.708	-22.12
4079.158	-29.12
4081.606	-22.12
4084.052	-29.12
4086.497	-23.12
4088.939	-28.12
4091.38	-31.12
4093.819	-21.12
4096.257	0.88
4098.693	-6.12
4101.127	-3.12
4103.559	1.88
4105.989	131.88
4108.418	139.88
4110.845	132.88
4113.27	137.88
4115.694	145.88
4118.115	138.88
4120.535	-25.12
4122.954	-25.12
4125.37	-18.12
4127.785	-22.12
4130.198	-25.12
4132.609	-24.12
4135.019	7.88
4137.427	0.88
4139.833	2.88
4142.237	-5.12
