Data from 2018-3-6_conc=3_n=9_RamanShift_02.txt Node
Date: Tue Mar 06 13:40:49 GMT+02:00 2018
User: LAB3
Spectrometer: QEPB0276
Trigger mode: 0
Integration Time (sec): 3.000000E1
Scans to average: 1
Electric dark correction enabled: true
Nonlinearity correction enabled: false
Boxcar width: 0
XAxis mode: Raman Shifts
Number of Pixels in Spectrum: 1044
>>>>>Begin Spectral Data<<<<<
160.701	123.62
166.742	150.62
172.777	220.62
178.805	423.62
184.826	969.62
190.841	1905.62
196.849	3032.62
202.85	3853.62
208.845	4196.62
214.833	4139.62
220.815	4089.62
226.789	4113.62
232.758	4139.62
238.719	4133.62
244.674	4098.62
250.623	4109.62
256.565	4034.62
262.5	3982.62
268.429	3966.62
274.351	3955.62
280.267	3972.62
286.176	3971.62
292.079	3956.62
297.975	3962.62
303.865	3961.62
309.748	3981.62
315.625	3992.62
321.495	3985.62
327.359	3982.62
333.217	3970.62
339.068	3983.62
344.912	4023.62
350.751	4032.62
356.583	4032.62
362.408	4065.62
368.227	4094.62
374.04	4086.62
379.847	4105.62
385.647	4143.62
391.44	4151.62
397.228	4179.62
403.009	4195.62
408.784	4200.62
414.553	4233.62
420.315	4241.62
426.071	4234.62
431.821	4261.62
437.565	4246.62
443.302	4221.62
449.033	4212.62
454.758	4203.62
460.477	4160.62
466.189	4127.62
471.896	4080.62
477.596	4054.62
483.29	4037.62
488.978	4027.62
494.66	3988.62
500.335	3896.62
506.005	3731.62
511.668	3587.62
517.325	3392.62
522.977	3254.62
528.622	3174.62
534.261	3108.62
539.894	3045.62
545.521	3024.62
551.141	2951.62
556.756	2931.62
562.365	2888.62
567.968	2874.62
573.565	2847.62
579.155	2841.62
584.74	2798.62
590.319	2825.62
595.892	2806.62
601.459	2816.62
607.02	2798.62
612.575	2795.62
618.124	2757.62
623.667	2688.62
629.204	2680.62
634.735	2655.62
640.261	2600.62
645.781	2580.62
651.294	2569.62
656.802	2579.62
662.304	2560.62
667.8	2558.62
673.29	2549.62
678.775	2560.62
684.254	2524.62
689.726	2513.62
695.193	2516.62
700.655	2494.62
706.11	2459.62
711.56	2449.62
717.004	2442.62
722.442	2431.62
727.874	2428.62
733.301	2427.62
738.722	2397.62
744.137	2405.62
749.547	2410.62
754.951	2400.62
760.349	2405.62
765.741	2428.62
771.128	2422.62
776.509	2481.62
781.885	2490.62
787.254	2512.62
792.618	2513.62
797.977	2515.62
803.33	2523.62
808.677	2485.62
814.019	2471.62
819.355	2437.62
824.686	2413.62
830.011	2392.62
835.33	2406.62
840.644	2396.62
845.952	2365.62
851.255	2364.62
856.552	2336.62
861.844	2313.62
867.13	2281.62
872.41	2265.62
877.686	2232.62
882.955	2213.62
888.219	2207.62
893.478	2172.62
898.731	2139.62
903.979	2141.62
909.221	2106.62
914.458	2087.62
919.69	2097.62
924.916	2066.62
930.136	2094.62
935.351	2092.62
940.561	2113.62
945.766	2095.62
950.965	2093.62
956.158	2063.62
961.347	2048.62
966.529	2020.62
971.707	1986.62
976.879	1968.62
982.046	1951.62
987.208	1956.62
992.364	1948.62
997.515	1949.62
1002.66	1957.62
1007.801	1993.62
1012.936	1976.62
1018.066	1987.62
1023.19	2004.62
1028.309	2013.62
1033.423	2004.62
1038.532	2010.62
1043.636	1989.62
1048.734	1989.62
1053.827	1973.62
1058.915	1945.62
1063.998	1935.62
1069.075	1925.62
1074.147	1924.62
1079.214	1910.62
1084.276	1937.62
1089.333	1934.62
1094.385	1934.62
1099.431	1933.62
1104.472	1928.62
1109.509	1899.62
1114.54	1867.62
1119.565	1863.62
1124.586	1839.62
1129.602	1799.62
1134.613	1776.62
1139.618	1780.62
1144.619	1771.62
1149.614	1761.62
1154.604	1780.62
1159.589	1797.62
1164.57	1819.62
1169.545	1818.62
1174.515	1805.62
1179.48	1794.62
1184.44	1789.62
1189.395	1786.62
1194.345	1740.62
1199.29	1751.62
1204.23	1730.62
1209.165	1740.62
1214.095	1757.62
1219.021	1749.62
1223.941	1760.62
1228.856	1757.62
1233.766	1765.62
1238.672	1792.62
1243.572	1773.62
1248.467	1766.62
1253.358	1752.62
1258.244	1684.62
1263.124	1683.62
1268	1659.62
1272.871	1623.62
1277.737	1601.62
1282.599	1611.62
1287.455	1596.62
1292.306	1615.62
1297.153	1601.62
1301.995	1609.62
1306.832	1600.62
1311.664	1630.62
1316.491	1620.62
1321.314	1606.62
1326.132	1585.62
1330.945	1570.62
1335.753	1555.62
1340.556	1518.62
1345.354	1497.62
1350.148	1467.62
1354.937	1469.62
1359.722	1461.62
1364.501	1442.62
1369.276	1447.62
1374.046	1452.62
1378.811	1436.62
1383.572	1424.62
1388.327	1431.62
1393.079	1407.62
1397.825	1394.62
1402.567	1390.62
1407.304	1365.62
1412.036	1380.62
1416.764	1370.62
1421.487	1364.62
1426.205	1365.62
1430.919	1381.62
1435.628	1369.62
1440.333	1386.62
1445.032	1403.62
1449.727	1395.62
1454.418	1401.62
1459.104	1400.62
1463.785	1386.62
1468.462	1350.62
1473.134	1327.62
1477.802	1310.62
1482.465	1284.62
1487.123	1289.62
1491.777	1263.62
1496.426	1257.62
1501.071	1281.62
1505.711	1282.62
1510.347	1286.62
1514.978	1295.62
1519.604	1278.62
1524.226	1303.62
1528.844	1276.62
1533.457	1282.62
1538.065	1271.62
1542.669	1262.62
1547.269	1243.62
1551.864	1253.62
1556.454	1219.62
1561.041	1237.62
1565.622	1235.62
1570.199	1245.62
1574.772	1244.62
1579.34	1261.62
1583.904	1286.62
1588.464	1296.62
1593.019	1312.62
1597.569	1281.62
1602.115	1290.62
1606.657	1259.62
1611.195	1291.62
1615.728	1277.62
1620.256	1251.62
1624.78	1237.62
1629.3	1257.62
1633.816	1279.62
1638.327	1260.62
1642.834	1281.62
1647.336	1283.62
1651.834	1301.62
1656.328	1285.62
1660.817	1285.62
1665.302	1275.62
1669.783	1255.62
1674.259	1239.62
1678.732	1210.62
1683.199	1185.62
1687.663	1142.62
1692.122	1128.62
1696.577	1097.62
1701.028	1092.62
1705.474	1051.62
1709.917	1031.62
1714.355	1025.62
1718.788	1012.62
1723.218	999.62
1727.643	971.62
1732.064	971.62
1736.481	951.62
1740.893	945.62
1745.301	933.62
1749.705	889.62
1754.105	899.62
1758.501	870.62
1762.893	872.62
1767.28	816.62
1771.663	819.62
1776.042	812.62
1780.417	797.62
1784.787	820.62
1789.154	824.62
1793.516	823.62
1797.874	828.62
1802.228	795.62
1806.578	798.62
1810.924	807.62
1815.266	686.62
1819.603	800.62
1823.937	765.62
1828.266	764.62
1832.591	758.62
1836.913	752.62
1841.23	746.62
1845.543	734.62
1849.852	765.62
1854.156	746.62
1858.457	747.62
1862.754	733.62
1867.047	747.62
1871.335	771.62
1875.62	746.62
1879.9	752.62
1884.177	732.62
1888.449	754.62
1892.718	734.62
1896.982	743.62
1901.243	711.62
1905.499	715.62
1909.752	706.62
1914	698.62
1918.245	713.62
1922.485	723.62
1926.722	701.62
1930.954	705.62
1935.183	721.62
1939.408	722.62
1943.628	718.62
1947.845	714.62
1952.058	702.62
1956.267	690.62
1960.472	687.62
1964.673	680.62
1968.87	675.62
1973.063	655.62
1977.252	653.62
1981.438	633.62
1985.619	628.62
1989.797	620.62
1993.971	625.62
1998.14	632.62
2002.306	635.62
2006.469	622.62
2010.627	619.62
2014.781	611.62
2018.932	615.62
2023.078	631.62
2027.221	610.62
2031.36	592.62
2035.495	590.62
2039.627	579.62
2043.754	589.62
2047.878	573.62
2051.998	579.62
2056.114	575.62
2060.226	570.62
2064.334	583.62
2068.439	583.62
2072.54	588.62
2076.637	558.62
2080.73	582.62
2084.82	587.62
2088.906	575.62
2092.988	568.62
2097.066	571.62
2101.14	577.62
2105.211	561.62
2109.278	554.62
2113.342	543.62
2117.401	539.62
2121.457	533.62
2125.509	516.62
2129.558	520.62
2133.602	514.62
2137.643	512.62
2141.681	520.62
2145.714	521.62
2149.744	513.62
2153.77	519.62
2157.793	500.62
2161.812	478.62
2165.827	473.62
2169.838	491.62
2173.846	473.62
2177.851	459.62
2181.851	477.62
2185.848	455.62
2189.841	463.62
2193.831	440.62
2197.817	451.62
2201.799	451.62
2205.778	431.62
2209.753	429.62
2213.725	419.62
2217.693	432.62
2221.657	426.62
2225.618	439.62
2229.575	416.62
2233.529	430.62
2237.479	423.62
2241.425	401.62
2245.368	397.62
2249.307	405.62
2253.243	388.62
2257.175	391.62
2261.104	380.62
2265.029	384.62
2268.95	378.62
2272.868	368.62
2276.783	352.62
2280.694	367.62
2284.601	356.62
2288.505	357.62
2292.405	360.62
2296.302	329.62
2300.195	348.62
2304.085	311.62
2307.971	334.62
2311.854	310.62
2315.734	328.62
2319.609	329.62
2323.482	294.62
2327.351	314.62
2331.216	311.62
2335.078	314.62
2338.937	304.62
2342.792	300.62
2346.643	295.62
2350.492	309.62
2354.336	301.62
2358.178	299.62
2362.015	302.62
2365.85	299.62
2369.681	299.62
2373.508	300.62
2377.333	311.62
2381.153	302.62
2384.971	295.62
2388.785	298.62
2392.595	286.62
2396.402	289.62
2400.206	262.62
2404.007	279.62
2407.804	283.62
2411.597	284.62
2415.388	281.62
2419.174	276.62
2422.958	278.62
2426.738	280.62
2430.515	271.62
2434.289	266.62
2438.059	261.62
2441.825	261.62
2445.589	268.62
2449.349	242.62
2453.106	258.62
2456.859	262.62
2460.61	258.62
2464.356	245.62
2468.1	245.62
2471.84	239.62
2475.577	238.62
2479.311	239.62
2483.041	248.62
2486.768	259.62
2490.492	243.62
2494.213	237.62
2497.93	233.62
2501.644	229.62
2505.355	237.62
2509.062	240.62
2512.766	229.62
2516.467	233.62
2520.165	220.62
2523.859	211.62
2527.551	252.62
2531.239	212.62
2534.923	233.62
2538.605	227.62
2542.283	220.62
2545.958	223.62
2549.63	229.62
2553.299	219.62
2556.964	212.62
2560.626	213.62
2564.285	215.62
2567.941	201.62
2571.594	195.62
2575.243	215.62
2578.89	201.62
2582.533	208.62
2586.173	202.62
2589.809	209.62
2593.443	176.62
2597.073	197.62
2600.701	196.62
2604.325	192.62
2607.946	180.62
2611.564	202.62
2615.178	198.62
2618.79	199.62
2622.398	175.62
2626.004	195.62
2629.606	187.62
2633.205	169.62
2636.801	178.62
2640.394	180.62
2643.983	168.62
2647.57	170.62
2651.153	163.62
2654.734	170.62
2658.311	147.62
2661.885	159.62
2665.456	166.62
2669.025	160.62
2672.589	157.62
2676.151	172.62
2679.71	173.62
2683.266	154.62
2686.819	148.62
2690.368	159.62
2693.915	156.62
2697.458	152.62
2700.999	155.62
2704.536	153.62
2708.071	147.62
2711.602	149.62
2715.13	136.62
2718.656	120.62
2722.178	140.62
2725.697	122.62
2729.214	130.62
2732.727	136.62
2736.237	123.62
2739.744	130.62
2743.249	127.62
2746.75	136.62
2750.248	127.62
2753.743	131.62
2757.236	135.62
2760.725	140.62
2764.211	105.62
2767.695	132.62
2771.175	127.62
2774.652	135.62
2778.127	121.62
2781.598	130.62
2785.067	126.62
2788.532	121.62
2791.995	127.62
2795.455	126.62
2798.911	139.62
2802.365	123.62
2805.816	128.62
2809.264	144.62
2812.709	123.62
2816.151	133.62
2819.59	119.62
2823.026	120.62
2826.46	126.62
2829.89	141.62
2833.318	112.62
2836.742	126.62
2840.164	127.62
2843.583	127.62
2846.999	135.62
2850.412	137.62
2853.822	121.62
2857.229	147.62
2860.634	140.62
2864.035	123.62
2867.434	147.62
2870.83	148.62
2874.223	133.62
2877.613	143.62
2881	137.62
2884.385	142.62
2887.766	135.62
2891.145	146.62
2894.521	150.62
2897.894	139.62
2901.264	160.62
2904.631	152.62
2907.996	149.62
2911.358	157.62
2914.717	160.62
2918.073	145.62
2921.426	148.62
2924.777	140.62
2928.124	150.62
2931.469	167.62
2934.811	148.62
2938.15	181.62
2941.487	166.62
2944.821	186.62
2948.152	174.62
2951.48	171.62
2954.805	156.62
2958.128	180.62
2961.447	168.62
2964.765	180.62
2968.079	172.62
2971.39	172.62
2974.699	181.62
2978.005	180.62
2981.308	168.62
2984.609	171.62
2987.907	187.62
2991.202	194.62
2994.494	178.62
2997.784	181.62
3001.07	195.62
3004.355	186.62
3007.636	195.62
3010.915	198.62
3014.191	194.62
3017.464	197.62
3020.734	197.62
3024.002	204.62
3027.267	202.62
3030.53	202.62
3033.789	209.62
3037.046	205.62
3040.301	202.62
3043.552	211.62
3046.801	225.62
3050.048	227.62
3053.291	257.62
3056.532	237.62
3059.771	237.62
3063.006	251.62
3066.239	252.62
3069.469	267.62
3072.697	262.62
3075.922	273.62
3079.144	274.62
3082.364	301.62
3085.581	282.62
3088.795	303.62
3092.007	318.62
3095.216	311.62
3098.423	313.62
3101.627	297.62
3104.828	329.62
3108.026	323.62
3111.222	349.62
3114.416	369.62
3117.607	364.62
3120.795	366.62
3123.98	381.62
3127.163	367.62
3130.344	385.62
3133.521	392.62
3136.696	411.62
3139.869	410.62
3143.039	402.62
3146.206	438.62
3149.371	433.62
3152.533	432.62
3155.693	423.62
3158.85	432.62
3162.005	443.62
3165.157	432.62
3168.306	436.62
3171.453	452.62
3174.597	443.62
3177.739	431.62
3180.878	448.62
3184.014	443.62
3187.149	441.62
3190.28	446.62
3193.409	449.62
3196.536	462.62
3199.659	468.62
3202.781	460.62
3205.9	451.62
3209.016	449.62
3212.13	456.62
3215.241	455.62
3218.35	452.62
3221.456	449.62
3224.56	436.62
3227.661	439.62
3230.76	424.62
3233.856	427.62
3236.95	436.62
3240.041	417.62
3243.13	427.62
3246.216	421.62
3249.3	419.62
3252.382	422.62
3255.46	401.62
3258.537	373.62
3261.611	407.62
3264.682	408.62
3267.751	409.62
3270.818	393.62
3273.882	410.62
3276.943	405.62
3280.002	413.62
3283.059	393.62
3286.113	388.62
3289.165	382.62
3292.214	376.62
3295.261	400.62
3298.306	361.62
3301.348	370.62
3304.387	359.62
3307.425	367.62
3310.459	349.62
3313.492	361.62
3316.521	356.62
3319.549	359.62
3322.574	351.62
3325.597	340.62
3328.617	332.62
3331.635	341.62
3334.65	317.62
3337.663	339.62
3340.674	334.62
3343.682	338.62
3346.688	344.62
3349.691	331.62
3352.692	323.62
3355.691	335.62
3358.687	329.62
3361.681	334.62
3364.673	328.62
3367.662	320.62
3370.649	321.62
3373.633	310.62
3376.615	311.62
3379.595	291.62
3382.572	297.62
3385.547	280.62
3388.52	284.62
3391.49	284.62
3394.458	284.62
3397.424	289.62
3400.387	276.62
3403.348	283.62
3406.307	276.62
3409.263	276.62
3412.217	280.62
3415.168	266.62
3418.118	272.62
3421.065	256.62
3424.009	266.62
3426.951	255.62
3429.891	256.62
3432.829	253.62
3435.764	241.62
3438.697	230.62
3441.628	246.62
3444.557	214.62
3447.483	215.62
3450.407	225.62
3453.328	206.62
3456.247	202.62
3459.164	203.62
3462.079	202.62
3464.991	193.62
3467.902	177.62
3470.809	186.62
3473.715	182.62
3476.618	167.62
3479.519	167.62
3482.418	145.62
3485.315	154.62
3488.209	141.62
3491.101	145.62
3493.99	131.62
3496.878	133.62
3499.763	136.62
3502.646	132.62
3505.527	117.62
3508.405	119.62
3511.281	104.62
3514.155	110.62
3517.027	99.62
3519.897	89.62
3522.764	95.62
3525.629	77.62
3528.492	91.62
3531.352	82.62
3534.211	84.62
3537.067	70.62
3539.921	68.62
3542.773	79.62
3545.622	56.62
3548.469	53.62
3551.315	47.62
3554.157	51.62
3556.998	44.62
3559.837	45.62
3562.673	47.62
3565.507	41.62
3568.339	31.62
3571.169	32.62
3573.996	38.62
3576.822	20.62
3579.645	21.62
3582.466	27.62
3585.285	29.62
3588.101	30.62
3590.916	18.62
3593.728	26.62
3596.538	19.62
3599.346	21.62
3602.152	11.62
3604.956	13.62
3607.757	14.62
3610.556	1.62
3613.354	14.62
3616.149	12.62
3618.942	8.62
3621.732	11.62
3624.521	2.62
3627.307	-8.38
3630.092	-3.38
3632.874	11.62
3635.654	1.62
3638.432	-8.38
3641.208	-7.38
3643.982	-6.38
3646.753	-0.38
3649.523	-29.38
3652.29	-10.38
3655.055	-5.38
3657.818	-8.38
3660.579	-16.38
3663.338	-22.38
3666.095	-18.38
3668.849	-38.38
3671.602	-8.38
3674.352	-22.38
3677.101	-10.38
3679.847	-6.38
3682.591	-25.38
3685.333	-27.38
3688.073	-16.38
3690.811	-28.38
3693.547	-31.38
3696.281	-27.38
3699.013	-18.38
3701.742	-26.38
3704.47	-32.38
3707.195	-15.38
3709.919	-19.38
3712.64	-21.38
3715.359	-34.38
3718.076	-13.38
3720.792	-26.38
3723.505	-22.38
3726.216	-13.38
3728.925	-29.38
3731.632	-37.38
3734.336	-23.38
3737.039	-25.38
3739.74	-21.38
3742.439	-48.38
3745.136	-21.38
3747.83	-19.38
3750.523	-21.38
3753.213	-91.38
3755.902	-26.38
3758.589	-42.38
3761.273	-32.38
3763.956	-20.38
3766.636	-41.38
3769.315	-17.38
3771.991	-24.38
3774.665	-36.38
3777.338	-31.38
3780.008	-37.38
3782.677	-28.38
3785.343	-44.38
3788.007	-48.38
3790.67	-21.38
3793.33	-39.38
3795.989	-35.38
3798.645	-27.38
3801.299	-44.38
3803.952	-37.38
3806.602	-31.38
3809.251	-25.38
3811.897	-31.38
3814.542	-29.38
3817.184	-34.38
3819.825	-30.38
3822.463	-44.38
3825.1	-31.38
3827.735	-29.38
3830.367	-40.38
3832.998	-20.38
3835.627	-33.38
3838.253	-17.38
3840.878	-26.38
3843.501	-14.38
3846.122	-25.38
3848.741	-23.38
3851.358	-21.38
3853.973	-44.38
3856.586	-24.38
3859.197	-34.38
3861.806	-34.38
3864.414	-41.38
3867.019	-25.38
3869.622	-21.38
3872.224	-12.38
3874.823	-3.38
3877.421	24.62
3880.016	45.62
3882.61	79.62
3885.202	94.62
3887.792	69.62
3890.38	32.62
3892.966	-8.38
3895.55	-30.38
3898.132	-18.38
3900.713	-21.38
3903.291	-27.38
3905.868	-37.38
3908.442	-26.38
3911.015	-28.38
3913.586	-35.38
3916.155	-34.38
3918.722	-40.38
3921.287	-30.38
3923.85	-45.38
3926.411	-37.38
3928.971	-37.38
3931.528	-30.38
3934.084	-32.38
3936.638	-43.38
3939.19	-29.38
3941.74	-30.38
3944.288	-34.38
3946.834	-34.38
3949.378	-24.38
3951.921	-39.38
3954.462	-33.38
3957	-32.38
3959.537	-19.38
3962.072	-33.38
3964.606	-46.38
3967.137	-32.38
3969.667	-35.38
3972.194	-30.38
3974.72	-33.38
3977.244	-55.38
3979.766	-36.38
3982.286	-36.38
3984.805	-25.38
3987.321	-24.38
3989.836	-30.38
3992.349	-36.38
3994.86	-32.38
3997.369	-36.38
3999.877	-32.38
4002.382	-34.38
4004.886	-31.38
4007.388	-24.38
4009.888	-21.38
4012.386	-21.38
4014.883	-24.38
4017.377	-34.38
4019.87	-26.38
4022.361	-38.38
4024.85	-29.38
4027.338	-28.38
4029.823	-31.38
4032.307	-31.38
4034.789	-29.38
4037.269	-25.38
4039.747	-43.38
4042.224	-21.38
4044.699	-33.38
4047.172	-36.38
4049.643	-28.38
4052.112	-53.38
4054.58	-29.38
4057.046	-37.38
4059.51	-30.38
4061.972	-32.38
4064.432	-53.38
4066.891	-17.38
4069.348	-29.38
4071.803	-25.38
4074.256	-35.38
4076.708	-28.38
4079.158	-30.38
4081.606	-25.38
4084.052	-31.38
4086.497	-27.38
4088.939	-32.38
4091.38	-35.38
4093.819	-20.38
4096.257	2.62
4098.693	-5.38
4101.127	-3.38
4103.559	-0.38
4105.989	122.62
4108.418	121.62
4110.845	110.62
4113.27	113.62
4115.694	121.62
4118.115	112.62
4120.535	-28.38
4122.954	-22.38
4125.37	-18.38
4127.785	-31.38
4130.198	-23.38
4132.609	-30.38
4135.019	9.62
4137.427	-1.38
4139.833	3.62
4142.237	-5.38
