Data from 2018-3-6_conc=5_n=4_RamanShift_02.txt Node
Date: Tue Mar 06 14:32:18 GMT+02:00 2018
User: LAB3
Spectrometer: QEPB0276
Trigger mode: 0
Integration Time (sec): 3.000000E1
Scans to average: 1
Electric dark correction enabled: true
Nonlinearity correction enabled: false
Boxcar width: 0
XAxis mode: Raman Shifts
Number of Pixels in Spectrum: 1044
>>>>>Begin Spectral Data<<<<<
160.701	62.38
166.742	91.38
172.777	126.38
178.805	247.38
184.826	555.38
190.841	1116.38
196.849	1726.38
202.85	2172.38
208.845	2317.38
214.833	2281.38
220.815	2225.38
226.789	2177.38
232.758	2177.38
238.719	2151.38
244.674	2131.38
250.623	2089.38
256.565	2058.38
262.5	2011.38
268.429	1979.38
274.351	1944.38
280.267	1940.38
286.176	1929.38
292.079	1920.38
297.975	1914.38
303.865	1908.38
309.748	1918.38
315.625	1902.38
321.495	1895.38
327.359	1872.38
333.217	1879.38
339.068	1861.38
344.912	1865.38
350.751	1879.38
356.583	1878.38
362.408	1890.38
368.227	1912.38
374.04	1898.38
379.847	1912.38
385.647	1922.38
391.44	1895.38
397.228	1942.38
403.009	1957.38
408.784	1948.38
414.553	1948.38
420.315	1965.38
426.071	1948.38
431.821	1972.38
437.565	1968.38
443.302	1951.38
449.033	1917.38
454.758	1923.38
460.477	1933.38
466.189	1901.38
471.896	1865.38
477.596	1865.38
483.29	1841.38
488.978	1851.38
494.66	1834.38
500.335	1768.38
506.005	1675.38
511.668	1618.38
517.325	1512.38
522.977	1457.38
528.622	1415.38
534.261	1355.38
539.894	1344.38
545.521	1302.38
551.141	1295.38
556.756	1283.38
562.365	1274.38
567.968	1246.38
573.565	1245.38
579.155	1249.38
584.74	1228.38
590.319	1238.38
595.892	1232.38
601.459	1233.38
607.02	1225.38
612.575	1214.38
618.124	1209.38
623.667	1183.38
629.204	1168.38
634.735	1156.38
640.261	1122.38
645.781	1092.38
651.294	1119.38
656.802	1112.38
662.304	1117.38
667.8	1116.38
673.29	1100.38
678.775	1095.38
684.254	1090.38
689.726	1086.38
695.193	1078.38
700.655	1080.38
706.11	1062.38
711.56	1072.38
717.004	1071.38
722.442	1035.38
727.874	1054.38
733.301	1063.38
738.722	1026.38
744.137	1043.38
749.547	1027.38
754.951	1029.38
760.349	1043.38
765.741	1052.38
771.128	1046.38
776.509	1054.38
781.885	1083.38
787.254	1086.38
792.618	1084.38
797.977	1089.38
803.33	1083.38
808.677	1076.38
814.019	1071.38
819.355	1049.38
824.686	1040.38
830.011	1035.38
835.33	1044.38
840.644	1049.38
845.952	1012.38
851.255	1015.38
856.552	1013.38
861.844	998.38
867.13	976.38
872.41	970.38
877.686	972.38
882.955	954.38
888.219	944.38
893.478	918.38
898.731	933.38
903.979	922.38
909.221	893.38
914.458	891.38
919.69	891.38
924.916	898.38
930.136	904.38
935.351	891.38
940.561	918.38
945.766	901.38
950.965	898.38
956.158	885.38
961.347	884.38
966.529	869.38
971.707	866.38
976.879	854.38
982.046	836.38
987.208	829.38
992.364	842.38
997.515	841.38
1002.66	854.38
1007.801	829.38
1012.936	842.38
1018.066	822.38
1023.19	858.38
1028.309	859.38
1033.423	855.38
1038.532	865.38
1043.636	849.38
1048.734	847.38
1053.827	832.38
1058.915	823.38
1063.998	815.38
1069.075	810.38
1074.147	835.38
1079.214	803.38
1084.276	813.38
1089.333	816.38
1094.385	825.38
1099.431	811.38
1104.472	818.38
1109.509	788.38
1114.54	794.38
1119.565	782.38
1124.586	771.38
1129.602	763.38
1134.613	741.38
1139.618	738.38
1144.619	755.38
1149.614	743.38
1154.604	749.38
1159.589	741.38
1164.57	765.38
1169.545	774.38
1174.515	769.38
1179.48	769.38
1184.44	761.38
1189.395	757.38
1194.345	745.38
1199.29	736.38
1204.23	742.38
1209.165	727.38
1214.095	748.38
1219.021	734.38
1223.941	746.38
1228.856	740.38
1233.766	770.38
1238.672	756.38
1243.572	750.38
1248.467	743.38
1253.358	721.38
1258.244	707.38
1263.124	728.38
1268	718.38
1272.871	674.38
1277.737	680.38
1282.599	686.38
1287.455	686.38
1292.306	678.38
1297.153	674.38
1301.995	681.38
1306.832	665.38
1311.664	690.38
1316.491	671.38
1321.314	668.38
1326.132	673.38
1330.945	677.38
1335.753	645.38
1340.556	647.38
1345.354	624.38
1350.148	633.38
1354.937	617.38
1359.722	609.38
1364.501	593.38
1369.276	604.38
1374.046	607.38
1378.811	597.38
1383.572	610.38
1388.327	593.38
1393.079	594.38
1397.825	587.38
1402.567	585.38
1407.304	581.38
1412.036	578.38
1416.764	566.38
1421.487	550.38
1426.205	574.38
1430.919	574.38
1435.628	575.38
1440.333	562.38
1445.032	584.38
1449.727	585.38
1454.418	592.38
1459.104	593.38
1463.785	560.38
1468.462	575.38
1473.134	561.38
1477.802	560.38
1482.465	520.38
1487.123	537.38
1491.777	516.38
1496.426	509.38
1501.071	542.38
1505.711	517.38
1510.347	548.38
1514.978	539.38
1519.604	531.38
1524.226	546.38
1528.844	518.38
1533.457	535.38
1538.065	523.38
1542.669	531.38
1547.269	521.38
1551.864	523.38
1556.454	501.38
1561.041	513.38
1565.622	521.38
1570.199	529.38
1574.772	538.38
1579.34	539.38
1583.904	554.38
1588.464	557.38
1593.019	540.38
1597.569	528.38
1602.115	536.38
1606.657	536.38
1611.195	542.38
1615.728	548.38
1620.256	536.38
1624.78	509.38
1629.3	523.38
1633.816	534.38
1638.327	512.38
1642.834	533.38
1647.336	535.38
1651.834	548.38
1656.328	538.38
1660.817	524.38
1665.302	529.38
1669.783	507.38
1674.259	490.38
1678.732	492.38
1683.199	488.38
1687.663	459.38
1692.122	463.38
1696.577	453.38
1701.028	447.38
1705.474	427.38
1709.917	414.38
1714.355	415.38
1718.788	405.38
1723.218	399.38
1727.643	389.38
1732.064	411.38
1736.481	382.38
1740.893	385.38
1745.301	375.38
1749.705	342.38
1754.105	359.38
1758.501	349.38
1762.893	357.38
1767.28	329.38
1771.663	336.38
1776.042	325.38
1780.417	319.38
1784.787	327.38
1789.154	330.38
1793.516	329.38
1797.874	321.38
1802.228	311.38
1806.578	309.38
1810.924	326.38
1815.266	201.38
1819.603	319.38
1823.937	298.38
1828.266	311.38
1832.591	305.38
1836.913	298.38
1841.23	296.38
1845.543	294.38
1849.852	309.38
1854.156	305.38
1858.457	301.38
1862.754	281.38
1867.047	289.38
1871.335	310.38
1875.62	299.38
1879.9	305.38
1884.177	290.38
1888.449	292.38
1892.718	307.38
1896.982	300.38
1901.243	281.38
1905.499	281.38
1909.752	281.38
1914	259.38
1918.245	297.38
1922.485	294.38
1926.722	278.38
1930.954	272.38
1935.183	284.38
1939.408	290.38
1943.628	288.38
1947.845	275.38
1952.058	278.38
1956.267	275.38
1960.472	279.38
1964.673	282.38
1968.87	264.38
1973.063	258.38
1977.252	261.38
1981.438	259.38
1985.619	256.38
1989.797	240.38
1993.971	249.38
1998.14	262.38
2002.306	253.38
2006.469	251.38
2010.627	244.38
2014.781	251.38
2018.932	230.38
2023.078	259.38
2027.221	250.38
2031.36	233.38
2035.495	237.38
2039.627	233.38
2043.754	232.38
2047.878	233.38
2051.998	228.38
2056.114	222.38
2060.226	232.38
2064.334	234.38
2068.439	235.38
2072.54	237.38
2076.637	216.38
2080.73	227.38
2084.82	231.38
2088.906	219.38
2092.988	218.38
2097.066	226.38
2101.14	234.38
2105.211	228.38
2109.278	218.38
2113.342	211.38
2117.401	205.38
2121.457	207.38
2125.509	204.38
2129.558	212.38
2133.602	202.38
2137.643	201.38
2141.681	204.38
2145.714	205.38
2149.744	203.38
2153.77	203.38
2157.793	192.38
2161.812	166.38
2165.827	178.38
2169.838	196.38
2173.846	180.38
2177.851	174.38
2181.851	192.38
2185.848	174.38
2189.841	184.38
2193.831	172.38
2197.817	176.38
2201.799	175.38
2205.778	163.38
2209.753	173.38
2213.725	161.38
2217.693	170.38
2221.657	161.38
2225.618	169.38
2229.575	173.38
2233.529	169.38
2237.479	169.38
2241.425	149.38
2245.368	149.38
2249.307	161.38
2253.243	151.38
2257.175	159.38
2261.104	144.38
2265.029	150.38
2268.95	153.38
2272.868	138.38
2276.783	133.38
2280.694	139.38
2284.601	149.38
2288.505	132.38
2292.405	144.38
2296.302	127.38
2300.195	128.38
2304.085	103.38
2307.971	127.38
2311.854	99.38
2315.734	124.38
2319.609	128.38
2323.482	97.38
2327.351	114.38
2331.216	119.38
2335.078	119.38
2338.937	116.38
2342.792	111.38
2346.643	107.38
2350.492	120.38
2354.336	107.38
2358.178	124.38
2362.015	119.38
2365.85	103.38
2369.681	118.38
2373.508	113.38
2377.333	119.38
2381.153	117.38
2384.971	105.38
2388.785	112.38
2392.595	103.38
2396.402	95.38
2400.206	79.38
2404.007	97.38
2407.804	101.38
2411.597	100.38
2415.388	95.38
2419.174	102.38
2422.958	100.38
2426.738	99.38
2430.515	109.38
2434.289	94.38
2438.059	88.38
2441.825	93.38
2445.589	105.38
2449.349	77.38
2453.106	98.38
2456.859	89.38
2460.61	99.38
2464.356	79.38
2468.1	78.38
2471.84	83.38
2475.577	84.38
2479.311	82.38
2483.041	85.38
2486.768	96.38
2490.492	100.38
2494.213	87.38
2497.93	74.38
2501.644	69.38
2505.355	82.38
2509.062	76.38
2512.766	79.38
2516.467	77.38
2520.165	75.38
2523.859	67.38
2527.551	96.38
2531.239	69.38
2534.923	82.38
2538.605	78.38
2542.283	75.38
2545.958	71.38
2549.63	80.38
2553.299	82.38
2556.964	68.38
2560.626	68.38
2564.285	74.38
2567.941	64.38
2571.594	62.38
2575.243	73.38
2578.89	66.38
2582.533	67.38
2586.173	62.38
2589.809	63.38
2593.443	44.38
2597.073	71.38
2600.701	70.38
2604.325	61.38
2607.946	52.38
2611.564	71.38
2615.178	63.38
2618.79	63.38
2622.398	65.38
2626.004	60.38
2629.606	61.38
2633.205	56.38
2636.801	63.38
2640.394	63.38
2643.983	61.38
2647.57	55.38
2651.153	49.38
2654.734	58.38
2658.311	29.38
2661.885	45.38
2665.456	47.38
2669.025	54.38
2672.589	45.38
2676.151	62.38
2679.71	58.38
2683.266	46.38
2686.819	45.38
2690.368	54.38
2693.915	51.38
2697.458	52.38
2700.999	51.38
2704.536	51.38
2708.071	47.38
2711.602	51.38
2715.13	48.38
2718.656	30.38
2722.178	48.38
2725.697	36.38
2729.214	34.38
2732.727	43.38
2736.237	24.38
2739.744	39.38
2743.249	29.38
2746.75	31.38
2750.248	25.38
2753.743	36.38
2757.236	37.38
2760.725	48.38
2764.211	11.38
2767.695	41.38
2771.175	29.38
2774.652	39.38
2778.127	32.38
2781.598	32.38
2785.067	33.38
2788.532	30.38
2791.995	36.38
2795.455	28.38
2798.911	39.38
2802.365	27.38
2805.816	36.38
2809.264	42.38
2812.709	36.38
2816.151	34.38
2819.59	27.38
2823.026	26.38
2826.46	31.38
2829.89	41.38
2833.318	14.38
2836.742	26.38
2840.164	35.38
2843.583	29.38
2846.999	33.38
2850.412	32.38
2853.822	28.38
2857.229	43.38
2860.634	40.38
2864.035	24.38
2867.434	42.38
2870.83	39.38
2874.223	31.38
2877.613	36.38
2881	37.38
2884.385	34.38
2887.766	32.38
2891.145	34.38
2894.521	32.38
2897.894	28.38
2901.264	45.38
2904.631	41.38
2907.996	44.38
2911.358	46.38
2914.717	43.38
2918.073	37.38
2921.426	40.38
2924.777	25.38
2928.124	35.38
2931.469	52.38
2934.811	32.38
2938.15	58.38
2941.487	43.38
2944.821	61.38
2948.152	45.38
2951.48	59.38
2954.805	38.38
2958.128	59.38
2961.447	52.38
2964.765	63.38
2968.079	45.38
2971.39	49.38
2974.699	49.38
2978.005	57.38
2981.308	54.38
2984.609	42.38
2987.907	58.38
2991.202	61.38
2994.494	46.38
2997.784	52.38
3001.07	57.38
3004.355	53.38
3007.636	61.38
3010.915	54.38
3014.191	56.38
3017.464	58.38
3020.734	64.38
3024.002	61.38
3027.267	61.38
3030.53	66.38
3033.789	66.38
3037.046	67.38
3040.301	58.38
3043.552	66.38
3046.801	74.38
3050.048	86.38
3053.291	89.38
3056.532	82.38
3059.771	67.38
3063.006	82.38
3066.239	81.38
3069.469	88.38
3072.697	81.38
3075.922	80.38
3079.144	89.38
3082.364	112.38
3085.581	95.38
3088.795	113.38
3092.007	116.38
3095.216	121.38
3098.423	106.38
3101.627	85.38
3104.828	117.38
3108.026	104.38
3111.222	140.38
3114.416	134.38
3117.607	132.38
3120.795	124.38
3123.98	136.38
3127.163	124.38
3130.344	135.38
3133.521	125.38
3136.696	150.38
3139.869	152.38
3143.039	131.38
3146.206	167.38
3149.371	163.38
3152.533	151.38
3155.693	146.38
3158.85	154.38
3162.005	171.38
3165.157	162.38
3168.306	155.38
3171.453	167.38
3174.597	150.38
3177.739	149.38
3180.878	166.38
3184.014	166.38
3187.149	168.38
3190.28	164.38
3193.409	176.38
3196.536	167.38
3199.659	176.38
3202.781	170.38
3205.9	160.38
3209.016	159.38
3212.13	166.38
3215.241	166.38
3218.35	161.38
3221.456	165.38
3224.56	150.38
3227.661	152.38
3230.76	160.38
3233.856	151.38
3236.95	153.38
3240.041	146.38
3243.13	160.38
3246.216	149.38
3249.3	158.38
3252.382	157.38
3255.46	147.38
3258.537	100.38
3261.611	145.38
3264.682	145.38
3267.751	139.38
3270.818	134.38
3273.882	143.38
3276.943	144.38
3280.002	153.38
3283.059	134.38
3286.113	143.38
3289.165	136.38
3292.214	132.38
3295.261	147.38
3298.306	121.38
3301.348	139.38
3304.387	115.38
3307.425	135.38
3310.459	128.38
3313.492	134.38
3316.521	122.38
3319.549	131.38
3322.574	133.38
3325.597	125.38
3328.617	118.38
3331.635	117.38
3334.65	110.38
3337.663	121.38
3340.674	117.38
3343.682	118.38
3346.688	122.38
3349.691	110.38
3352.692	111.38
3355.691	119.38
3358.687	124.38
3361.681	122.38
3364.673	113.38
3367.662	112.38
3370.649	122.38
3373.633	107.38
3376.615	110.38
3379.595	91.38
3382.572	105.38
3385.547	99.38
3388.52	97.38
3391.49	94.38
3394.458	95.38
3397.424	98.38
3400.387	86.38
3403.348	90.38
3406.307	91.38
3409.263	90.38
3412.217	99.38
3415.168	101.38
3418.118	99.38
3421.065	87.38
3424.009	96.38
3426.951	84.38
3429.891	82.38
3432.829	83.38
3435.764	87.38
3438.697	71.38
3441.628	90.38
3444.557	62.38
3447.483	61.38
3450.407	76.38
3453.328	64.38
3456.247	63.38
3459.164	56.38
3462.079	67.38
3464.991	57.38
3467.902	56.38
3470.809	53.38
3473.715	62.38
3476.618	43.38
3479.519	45.38
3482.418	24.38
3485.315	34.38
3488.209	33.38
3491.101	36.38
3493.99	26.38
3496.878	28.38
3499.763	32.38
3502.646	35.38
3505.527	17.38
3508.405	17.38
3511.281	10.38
3514.155	24.38
3517.027	17.38
3519.897	8.38
3522.764	18.38
3525.629	-1.62
3528.492	14.38
3531.352	18.38
3534.211	10.38
3537.067	7.38
3539.921	9.38
3542.773	11.38
3545.622	-0.62
3548.469	-5.62
3551.315	-4.62
3554.157	2.38
3556.998	-9.62
3559.837	-6.62
3562.673	-0.62
3565.507	-10.62
3568.339	-15.62
3571.169	-12.62
3573.996	-9.62
3576.822	-25.62
3579.645	-17.62
3582.466	-19.62
3585.285	-8.62
3588.101	-12.62
3590.916	-21.62
3593.728	-7.62
3596.538	-20.62
3599.346	-12.62
3602.152	-26.62
3604.956	-17.62
3607.757	-12.62
3610.556	-29.62
3613.354	-14.62
3616.149	-13.62
3618.942	-11.62
3621.732	-11.62
3624.521	-24.62
3627.307	-35.62
3630.092	-25.62
3632.874	-13.62
3635.654	-17.62
3638.432	-30.62
3641.208	-25.62
3643.982	-27.62
3646.753	-17.62
3649.523	-44.62
3652.29	-29.62
3655.055	-19.62
3657.818	-23.62
3660.579	-28.62
3663.338	-36.62
3666.095	-33.62
3668.849	-54.62
3671.602	-17.62
3674.352	-36.62
3677.101	-18.62
3679.847	-18.62
3682.591	-37.62
3685.333	-38.62
3688.073	-28.62
3690.811	-38.62
3693.547	-44.62
3696.281	-38.62
3699.013	-27.62
3701.742	-33.62
3704.47	-44.62
3707.195	-27.62
3709.919	-30.62
3712.64	-28.62
3715.359	-46.62
3718.076	-19.62
3720.792	-26.62
3723.505	-28.62
3726.216	-21.62
3728.925	-36.62
3731.632	-42.62
3734.336	-33.62
3737.039	-34.62
3739.74	-28.62
3742.439	-57.62
3745.136	-25.62
3747.83	-28.62
3750.523	-30.62
3753.213	-96.62
3755.902	-31.62
3758.589	-44.62
3761.273	-39.62
3763.956	-25.62
3766.636	-44.62
3769.315	-25.62
3771.991	-34.62
3774.665	-41.62
3777.338	-31.62
3780.008	-42.62
3782.677	-36.62
3785.343	-50.62
3788.007	-52.62
3790.67	-28.62
3793.33	-45.62
3795.989	-37.62
3798.645	-31.62
3801.299	-48.62
3803.952	-45.62
3806.602	-41.62
3809.251	-30.62
3811.897	-35.62
3814.542	-38.62
3817.184	-37.62
3819.825	-33.62
3822.463	-48.62
3825.1	-38.62
3827.735	-35.62
3830.367	-42.62
3832.998	-23.62
3835.627	-34.62
3838.253	-29.62
3840.878	-34.62
3843.501	-21.62
3846.122	-29.62
3848.741	-28.62
3851.358	-29.62
3853.973	-45.62
3856.586	-27.62
3859.197	-38.62
3861.806	-32.62
3864.414	-45.62
3867.019	-32.62
3869.622	-26.62
3872.224	-21.62
3874.823	-14.62
3877.421	6.38
3880.016	21.38
3882.61	53.38
3885.202	62.38
3887.792	44.38
3890.38	21.38
3892.966	-17.62
3895.55	-37.62
3898.132	-30.62
3900.713	-24.62
3903.291	-30.62
3905.868	-35.62
3908.442	-35.62
3911.015	-33.62
3913.586	-38.62
3916.155	-33.62
3918.722	-44.62
3921.287	-32.62
3923.85	-43.62
3926.411	-41.62
3928.971	-38.62
3931.528	-31.62
3934.084	-37.62
3936.638	-44.62
3939.19	-33.62
3941.74	-29.62
3944.288	-39.62
3946.834	-32.62
3949.378	-28.62
3951.921	-37.62
3954.462	-31.62
3957	-31.62
3959.537	-21.62
3962.072	-38.62
3964.606	-48.62
3967.137	-35.62
3969.667	-35.62
3972.194	-32.62
3974.72	-37.62
3977.244	-58.62
3979.766	-35.62
3982.286	-40.62
3984.805	-30.62
3987.321	-27.62
3989.836	-30.62
3992.349	-36.62
3994.86	-31.62
3997.369	-37.62
3999.877	-36.62
4002.382	-37.62
4004.886	-32.62
4007.388	-32.62
4009.888	-21.62
4012.386	-22.62
4014.883	-30.62
4017.377	-32.62
4019.87	-29.62
4022.361	-43.62
4024.85	-36.62
4027.338	-28.62
4029.823	-37.62
4032.307	-35.62
4034.789	-33.62
4037.269	-31.62
4039.747	-45.62
4042.224	-22.62
4044.699	-39.62
4047.172	-34.62
4049.643	-26.62
4052.112	-60.62
4054.58	-34.62
4057.046	-44.62
4059.51	-31.62
4061.972	-31.62
4064.432	-51.62
4066.891	-20.62
4069.348	-30.62
4071.803	-29.62
4074.256	-38.62
4076.708	-27.62
4079.158	-25.62
4081.606	-22.62
4084.052	-32.62
4086.497	-28.62
4088.939	-35.62
4091.38	-34.62
4093.819	-24.62
4096.257	1.38
4098.693	-8.62
4101.127	-4.62
4103.559	-0.62
4105.989	68.38
4108.418	71.38
4110.845	55.38
4113.27	63.38
4115.694	74.38
4118.115	59.38
4120.535	-31.62
4122.954	-23.62
4125.37	-22.62
4127.785	-27.62
4130.198	-24.62
4132.609	-25.62
4135.019	9.38
4137.427	0.38
4139.833	6.38
4142.237	-3.62
