Data from 2018-3-6_conc=2_n=5_RamanShift_05.txt Node
Date: Tue Mar 06 12:56:19 GMT+02:00 2018
User: LAB3
Spectrometer: QEPB0276
Trigger mode: 0
Integration Time (sec): 3.000000E1
Scans to average: 1
Electric dark correction enabled: true
Nonlinearity correction enabled: false
Boxcar width: 0
XAxis mode: Raman Shifts
Number of Pixels in Spectrum: 1044
>>>>>Begin Spectral Data<<<<<
160.701	155.88
166.742	189.88
172.777	284.88
178.805	583.88
184.826	1339.88
190.841	2689.88
196.849	4271.88
202.85	5527.88
208.845	5945.88
214.833	5959.88
220.815	5903.88
226.789	5948.88
232.758	5979.88
238.719	6000.88
244.674	5997.88
250.623	6001.88
256.565	5925.88
262.5	5853.88
268.429	5858.88
274.351	5848.88
280.267	5864.88
286.176	5868.88
292.079	5851.88
297.975	5899.88
303.865	5919.88
309.748	5949.88
315.625	5951.88
321.495	5987.88
327.359	5950.88
333.217	5974.88
339.068	6008.88
344.912	6039.88
350.751	6076.88
356.583	6098.88
362.408	6118.88
368.227	6185.88
374.04	6185.88
379.847	6198.88
385.647	6269.88
391.44	6276.88
397.228	6334.88
403.009	6374.88
408.784	6364.88
414.553	6446.88
420.315	6431.88
426.071	6426.88
431.821	6445.88
437.565	6467.88
443.302	6393.88
449.033	6384.88
454.758	6361.88
460.477	6297.88
466.189	6238.88
471.896	6156.88
477.596	6100.88
483.29	6083.88
488.978	6116.88
494.66	6002.88
500.335	5873.88
506.005	5611.88
511.668	5294.88
517.325	5054.88
522.977	4838.88
528.622	4670.88
534.261	4544.88
539.894	4457.88
545.521	4378.88
551.141	4326.88
556.756	4272.88
562.365	4212.88
567.968	4194.88
573.565	4155.88
579.155	4133.88
584.74	4114.88
590.319	4080.88
595.892	4108.88
601.459	4105.88
607.02	4089.88
612.575	4078.88
618.124	4009.88
623.667	3951.88
629.204	3878.88
634.735	3846.88
640.261	3788.88
645.781	3741.88
651.294	3731.88
656.802	3723.88
662.304	3714.88
667.8	3698.88
673.29	3672.88
678.775	3678.88
684.254	3668.88
689.726	3630.88
695.193	3629.88
700.655	3607.88
706.11	3567.88
711.56	3581.88
717.004	3562.88
722.442	3519.88
727.874	3526.88
733.301	3505.88
738.722	3456.88
744.137	3504.88
749.547	3484.88
754.951	3476.88
760.349	3492.88
765.741	3520.88
771.128	3547.88
776.509	3573.88
781.885	3647.88
787.254	3686.88
792.618	3719.88
797.977	3692.88
803.33	3648.88
808.677	3650.88
814.019	3606.88
819.355	3572.88
824.686	3543.88
830.011	3543.88
835.33	3521.88
840.644	3483.88
845.952	3468.88
851.255	3420.88
856.552	3402.88
861.844	3343.88
867.13	3287.88
872.41	3269.88
877.686	3275.88
882.955	3248.88
888.219	3213.88
893.478	3160.88
898.731	3117.88
903.979	3091.88
909.221	3044.88
914.458	3010.88
919.69	3017.88
924.916	3050.88
930.136	3045.88
935.351	3024.88
940.561	3033.88
945.766	3029.88
950.965	3023.88
956.158	2992.88
961.347	2969.88
966.529	2923.88
971.707	2884.88
976.879	2850.88
982.046	2832.88
987.208	2796.88
992.364	2819.88
997.515	2843.88
1002.66	2838.88
1007.801	2867.88
1012.936	2874.88
1018.066	2895.88
1023.19	2924.88
1028.309	2937.88
1033.423	2920.88
1038.532	2931.88
1043.636	2911.88
1048.734	2899.88
1053.827	2871.88
1058.915	2851.88
1063.998	2830.88
1069.075	2800.88
1074.147	2813.88
1079.214	2786.88
1084.276	2810.88
1089.333	2815.88
1094.385	2843.88
1099.431	2830.88
1104.472	2808.88
1109.509	2745.88
1114.54	2705.88
1119.565	2692.88
1124.586	2654.88
1129.602	2624.88
1134.613	2591.88
1139.618	2581.88
1144.619	2578.88
1149.614	2582.88
1154.604	2599.88
1159.589	2607.88
1164.57	2606.88
1169.545	2644.88
1174.515	2634.88
1179.48	2600.88
1184.44	2594.88
1189.395	2588.88
1194.345	2561.88
1199.29	2543.88
1204.23	2525.88
1209.165	2532.88
1214.095	2556.88
1219.021	2552.88
1223.941	2565.88
1228.856	2567.88
1233.766	2572.88
1238.672	2568.88
1243.572	2589.88
1248.467	2559.88
1253.358	2510.88
1258.244	2470.88
1263.124	2463.88
1268	2404.88
1272.871	2352.88
1277.737	2357.88
1282.599	2329.88
1287.455	2322.88
1292.306	2329.88
1297.153	2321.88
1301.995	2355.88
1306.832	2348.88
1311.664	2344.88
1316.491	2348.88
1321.314	2349.88
1326.132	2324.88
1330.945	2313.88
1335.753	2251.88
1340.556	2224.88
1345.354	2179.88
1350.148	2160.88
1354.937	2149.88
1359.722	2103.88
1364.501	2099.88
1369.276	2075.88
1374.046	2094.88
1378.811	2074.88
1383.572	2101.88
1388.327	2083.88
1393.079	2068.88
1397.825	2029.88
1402.567	2037.88
1407.304	2020.88
1412.036	1996.88
1416.764	2008.88
1421.487	1991.88
1426.205	1997.88
1430.919	1990.88
1435.628	2013.88
1440.333	1993.88
1445.032	2048.88
1449.727	2053.88
1454.418	2075.88
1459.104	2043.88
1463.785	2023.88
1468.462	1998.88
1473.134	1977.88
1477.802	1944.88
1482.465	1884.88
1487.123	1897.88
1491.777	1850.88
1496.426	1843.88
1501.071	1876.88
1505.711	1867.88
1510.347	1915.88
1514.978	1908.88
1519.604	1913.88
1524.226	1888.88
1528.844	1875.88
1533.457	1882.88
1538.065	1852.88
1542.669	1831.88
1547.269	1835.88
1551.864	1818.88
1556.454	1805.88
1561.041	1818.88
1565.622	1819.88
1570.199	1833.88
1574.772	1846.88
1579.34	1847.88
1583.904	1873.88
1588.464	1886.88
1593.019	1899.88
1597.569	1859.88
1602.115	1860.88
1606.657	1851.88
1611.195	1865.88
1615.728	1875.88
1620.256	1840.88
1624.78	1813.88
1629.3	1837.88
1633.816	1847.88
1638.327	1854.88
1642.834	1869.88
1647.336	1894.88
1651.834	1907.88
1656.328	1897.88
1660.817	1895.88
1665.302	1869.88
1669.783	1862.88
1674.259	1830.88
1678.732	1782.88
1683.199	1740.88
1687.663	1697.88
1692.122	1659.88
1696.577	1624.88
1701.028	1608.88
1705.474	1563.88
1709.917	1535.88
1714.355	1531.88
1718.788	1520.88
1723.218	1484.88
1727.643	1474.88
1732.064	1462.88
1736.481	1431.88
1740.893	1424.88
1745.301	1383.88
1749.705	1344.88
1754.105	1312.88
1758.501	1297.88
1762.893	1275.88
1767.28	1243.88
1771.663	1240.88
1776.042	1231.88
1780.417	1236.88
1784.787	1238.88
1789.154	1234.88
1793.516	1247.88
1797.874	1232.88
1802.228	1240.88
1806.578	1209.88
1810.924	1218.88
1815.266	1121.88
1819.603	1205.88
1823.937	1174.88
1828.266	1162.88
1832.591	1151.88
1836.913	1140.88
1841.23	1128.88
1845.543	1114.88
1849.852	1122.88
1854.156	1117.88
1858.457	1122.88
1862.754	1127.88
1867.047	1132.88
1871.335	1151.88
1875.62	1151.88
1879.9	1129.88
1884.177	1142.88
1888.449	1117.88
1892.718	1109.88
1896.982	1127.88
1901.243	1097.88
1905.499	1090.88
1909.752	1093.88
1914	1084.88
1918.245	1095.88
1922.485	1112.88
1926.722	1083.88
1930.954	1093.88
1935.183	1115.88
1939.408	1119.88
1943.628	1101.88
1947.845	1104.88
1952.058	1081.88
1956.267	1074.88
1960.472	1056.88
1964.673	1039.88
1968.87	1005.88
1973.063	1007.88
1977.252	986.88
1981.438	965.88
1985.619	977.88
1989.797	946.88
1993.971	957.88
1998.14	958.88
2002.306	946.88
2006.469	945.88
2010.627	935.88
2014.781	927.88
2018.932	913.88
2023.078	927.88
2027.221	923.88
2031.36	911.88
2035.495	892.88
2039.627	889.88
2043.754	889.88
2047.878	869.88
2051.998	877.88
2056.114	870.88
2060.226	879.88
2064.334	880.88
2068.439	885.88
2072.54	882.88
2076.637	870.88
2080.73	889.88
2084.82	893.88
2088.906	891.88
2092.988	890.88
2097.066	880.88
2101.14	882.88
2105.211	861.88
2109.278	852.88
2113.342	829.88
2117.401	831.88
2121.457	819.88
2125.509	817.88
2129.558	809.88
2133.602	803.88
2137.643	798.88
2141.681	787.88
2145.714	793.88
2149.744	790.88
2153.77	780.88
2157.793	749.88
2161.812	734.88
2165.827	728.88
2169.838	756.88
2173.846	716.88
2177.851	701.88
2181.851	715.88
2185.848	694.88
2189.841	683.88
2193.831	689.88
2197.817	688.88
2201.799	679.88
2205.778	667.88
2209.753	640.88
2213.725	659.88
2217.693	658.88
2221.657	641.88
2225.618	671.88
2229.575	658.88
2233.529	653.88
2237.479	637.88
2241.425	631.88
2245.368	609.88
2249.307	616.88
2253.243	592.88
2257.175	599.88
2261.104	579.88
2265.029	588.88
2268.95	579.88
2272.868	568.88
2276.783	545.88
2280.694	543.88
2284.601	546.88
2288.505	545.88
2292.405	542.88
2296.302	514.88
2300.195	519.88
2304.085	487.88
2307.971	514.88
2311.854	475.88
2315.734	488.88
2319.609	492.88
2323.482	464.88
2327.351	466.88
2331.216	463.88
2335.078	478.88
2338.937	477.88
2342.792	460.88
2346.643	463.88
2350.492	452.88
2354.336	455.88
2358.178	455.88
2362.015	472.88
2365.85	451.88
2369.681	459.88
2373.508	459.88
2377.333	478.88
2381.153	458.88
2384.971	453.88
2388.785	450.88
2392.595	443.88
2396.402	440.88
2400.206	415.88
2404.007	428.88
2407.804	436.88
2411.597	441.88
2415.388	424.88
2419.174	423.88
2422.958	429.88
2426.738	426.88
2430.515	431.88
2434.289	405.88
2438.059	413.88
2441.825	413.88
2445.589	419.88
2449.349	399.88
2453.106	404.88
2456.859	402.88
2460.61	404.88
2464.356	381.88
2468.1	377.88
2471.84	378.88
2475.577	379.88
2479.311	378.88
2483.041	384.88
2486.768	394.88
2490.492	379.88
2494.213	385.88
2497.93	360.88
2501.644	364.88
2505.355	369.88
2509.062	366.88
2512.766	366.88
2516.467	363.88
2520.165	361.88
2523.859	343.88
2527.551	381.88
2531.239	345.88
2534.923	362.88
2538.605	351.88
2542.283	354.88
2545.958	355.88
2549.63	367.88
2553.299	356.88
2556.964	339.88
2560.626	347.88
2564.285	350.88
2567.941	327.88
2571.594	323.88
2575.243	341.88
2578.89	325.88
2582.533	328.88
2586.173	331.88
2589.809	326.88
2593.443	309.88
2597.073	324.88
2600.701	321.88
2604.325	314.88
2607.946	298.88
2611.564	309.88
2615.178	305.88
2618.79	303.88
2622.398	296.88
2626.004	307.88
2629.606	297.88
2633.205	289.88
2636.801	296.88
2640.394	296.88
2643.983	289.88
2647.57	272.88
2651.153	267.88
2654.734	277.88
2658.311	250.88
2661.885	264.88
2665.456	268.88
2669.025	256.88
2672.589	257.88
2676.151	275.88
2679.71	268.88
2683.266	261.88
2686.819	255.88
2690.368	262.88
2693.915	253.88
2697.458	244.88
2700.999	248.88
2704.536	240.88
2708.071	240.88
2711.602	243.88
2715.13	239.88
2718.656	211.88
2722.178	233.88
2725.697	220.88
2729.214	223.88
2732.727	235.88
2736.237	214.88
2739.744	226.88
2743.249	227.88
2746.75	225.88
2750.248	223.88
2753.743	227.88
2757.236	226.88
2760.725	232.88
2764.211	199.88
2767.695	217.88
2771.175	219.88
2774.652	224.88
2778.127	213.88
2781.598	217.88
2785.067	214.88
2788.532	204.88
2791.995	207.88
2795.455	207.88
2798.911	221.88
2802.365	209.88
2805.816	219.88
2809.264	222.88
2812.709	215.88
2816.151	216.88
2819.59	206.88
2823.026	215.88
2826.46	212.88
2829.89	225.88
2833.318	203.88
2836.742	216.88
2840.164	213.88
2843.583	216.88
2846.999	223.88
2850.412	225.88
2853.822	221.88
2857.229	231.88
2860.634	236.88
2864.035	213.88
2867.434	232.88
2870.83	242.88
2874.223	229.88
2877.613	241.88
2881	236.88
2884.385	245.88
2887.766	243.88
2891.145	247.88
2894.521	247.88
2897.894	238.88
2901.264	252.88
2904.631	247.88
2907.996	255.88
2911.358	250.88
2914.717	248.88
2918.073	249.88
2921.426	245.88
2924.777	233.88
2928.124	261.88
2931.469	278.88
2934.811	258.88
2938.15	287.88
2941.487	277.88
2944.821	295.88
2948.152	276.88
2951.48	280.88
2954.805	268.88
2958.128	283.88
2961.447	273.88
2964.765	283.88
2968.079	277.88
2971.39	279.88
2974.699	287.88
2978.005	285.88
2981.308	282.88
2984.609	272.88
2987.907	303.88
2991.202	301.88
2994.494	274.88
2997.784	298.88
3001.07	301.88
3004.355	298.88
3007.636	311.88
3010.915	300.88
3014.191	302.88
3017.464	306.88
3020.734	308.88
3024.002	312.88
3027.267	304.88
3030.53	318.88
3033.789	311.88
3037.046	317.88
3040.301	309.88
3043.552	326.88
3046.801	333.88
3050.048	342.88
3053.291	369.88
3056.532	358.88
3059.771	348.88
3063.006	384.88
3066.239	382.88
3069.469	398.88
3072.697	389.88
3075.922	392.88
3079.144	416.88
3082.364	436.88
3085.581	431.88
3088.795	461.88
3092.007	463.88
3095.216	471.88
3098.423	469.88
3101.627	440.88
3104.828	492.88
3108.026	489.88
3111.222	509.88
3114.416	534.88
3117.607	532.88
3120.795	540.88
3123.98	543.88
3127.163	551.88
3130.344	562.88
3133.521	573.88
3136.696	599.88
3139.869	610.88
3143.039	605.88
3146.206	636.88
3149.371	640.88
3152.533	630.88
3155.693	630.88
3158.85	631.88
3162.005	641.88
3165.157	630.88
3168.306	644.88
3171.453	653.88
3174.597	643.88
3177.739	634.88
3180.878	650.88
3184.014	666.88
3187.149	659.88
3190.28	662.88
3193.409	669.88
3196.536	656.88
3199.659	673.88
3202.781	679.88
3205.9	658.88
3209.016	669.88
3212.13	673.88
3215.241	662.88
3218.35	664.88
3221.456	655.88
3224.56	623.88
3227.661	641.88
3230.76	645.88
3233.856	634.88
3236.95	627.88
3240.041	615.88
3243.13	630.88
3246.216	616.88
3249.3	631.88
3252.382	618.88
3255.46	611.88
3258.537	572.88
3261.611	603.88
3264.682	600.88
3267.751	603.88
3270.818	590.88
3273.882	617.88
3276.943	595.88
3280.002	598.88
3283.059	583.88
3286.113	578.88
3289.165	564.88
3292.214	560.88
3295.261	571.88
3298.306	537.88
3301.348	543.88
3304.387	519.88
3307.425	521.88
3310.459	529.88
3313.492	524.88
3316.521	514.88
3319.549	513.88
3322.574	505.88
3325.597	494.88
3328.617	504.88
3331.635	499.88
3334.65	471.88
3337.663	489.88
3340.674	479.88
3343.682	485.88
3346.688	498.88
3349.691	491.88
3352.692	482.88
3355.691	490.88
3358.687	480.88
3361.681	486.88
3364.673	464.88
3367.662	466.88
3370.649	480.88
3373.633	446.88
3376.615	463.88
3379.595	434.88
3382.572	437.88
3385.547	427.88
3388.52	411.88
3391.49	420.88
3394.458	415.88
3397.424	421.88
3400.387	397.88
3403.348	405.88
3406.307	403.88
3409.263	404.88
3412.217	401.88
3415.168	394.88
3418.118	398.88
3421.065	382.88
3424.009	404.88
3426.951	377.88
3429.891	373.88
3432.829	369.88
3435.764	360.88
3438.697	353.88
3441.628	354.88
3444.557	328.88
3447.483	323.88
3450.407	324.88
3453.328	308.88
3456.247	303.88
3459.164	294.88
3462.079	299.88
3464.991	283.88
3467.902	280.88
3470.809	263.88
3473.715	278.88
3476.618	254.88
3479.519	246.88
3482.418	221.88
3485.315	228.88
3488.209	229.88
3491.101	225.88
3493.99	201.88
3496.878	202.88
3499.763	206.88
3502.646	203.88
3505.527	198.88
3508.405	182.88
3511.281	167.88
3514.155	175.88
3517.027	168.88
3519.897	159.88
3522.764	163.88
3525.629	129.88
3528.492	145.88
3531.352	141.88
3534.211	139.88
3537.067	120.88
3539.921	118.88
3542.773	127.88
3545.622	102.88
3548.469	103.88
3551.315	99.88
3554.157	96.88
3556.998	93.88
3559.837	87.88
3562.673	88.88
3565.507	84.88
3568.339	72.88
3571.169	74.88
3573.996	81.88
3576.822	52.88
3579.645	55.88
3582.466	55.88
3585.285	66.88
3588.101	59.88
3590.916	49.88
3593.728	57.88
3596.538	47.88
3599.346	51.88
3602.152	37.88
3604.956	37.88
3607.757	38.88
3610.556	24.88
3613.354	38.88
3616.149	32.88
3618.942	34.88
3621.732	29.88
3624.521	21.88
3627.307	11.88
3630.092	17.88
3632.874	29.88
3635.654	20.88
3638.432	10.88
3641.208	11.88
3643.982	15.88
3646.753	23.88
3649.523	-10.12
3652.29	5.88
3655.055	12.88
3657.818	11.88
3660.579	3.88
3663.338	-10.12
3666.095	-3.12
3668.849	-23.12
3671.602	4.88
3674.352	-9.12
3677.101	4.88
3679.847	2.88
3682.591	-19.12
3685.333	-15.12
3688.073	-6.12
3690.811	-17.12
3693.547	-24.12
3696.281	-22.12
3699.013	-3.12
3701.742	-15.12
3704.47	-18.12
3707.195	-10.12
3709.919	-14.12
3712.64	-18.12
3715.359	-30.12
3718.076	-9.12
3720.792	-17.12
3723.505	-13.12
3726.216	-2.12
3728.925	-17.12
3731.632	-20.12
3734.336	-21.12
3737.039	-20.12
3739.74	-21.12
3742.439	-47.12
3745.136	-14.12
3747.83	-18.12
3750.523	-14.12
3753.213	-86.12
3755.902	-28.12
3758.589	-37.12
3761.273	-29.12
3763.956	-18.12
3766.636	-36.12
3769.315	-14.12
3771.991	-21.12
3774.665	-29.12
3777.338	-20.12
3780.008	-35.12
3782.677	-28.12
3785.343	-40.12
3788.007	-43.12
3790.67	-18.12
3793.33	-36.12
3795.989	-32.12
3798.645	-26.12
3801.299	-38.12
3803.952	-35.12
3806.602	-27.12
3809.251	-17.12
3811.897	-30.12
3814.542	-29.12
3817.184	-30.12
3819.825	-24.12
3822.463	-38.12
3825.1	-32.12
3827.735	-25.12
3830.367	-36.12
3832.998	-19.12
3835.627	-29.12
3838.253	-21.12
3840.878	-27.12
3843.501	-14.12
3846.122	-23.12
3848.741	-22.12
3851.358	-21.12
3853.973	-36.12
3856.586	-19.12
3859.197	-35.12
3861.806	-27.12
3864.414	-40.12
3867.019	-24.12
3869.622	-14.12
3872.224	-17.12
3874.823	3.88
3877.421	30.88
3880.016	52.88
3882.61	98.88
3885.202	111.88
3887.792	79.88
3890.38	42.88
3892.966	-2.12
3895.55	-21.12
3898.132	-19.12
3900.713	-20.12
3903.291	-25.12
3905.868	-37.12
3908.442	-27.12
3911.015	-30.12
3913.586	-32.12
3916.155	-27.12
3918.722	-35.12
3921.287	-31.12
3923.85	-39.12
3926.411	-33.12
3928.971	-35.12
3931.528	-29.12
3934.084	-32.12
3936.638	-41.12
3939.19	-26.12
3941.74	-29.12
3944.288	-31.12
3946.834	-32.12
3949.378	-21.12
3951.921	-35.12
3954.462	-31.12
3957	-29.12
3959.537	-14.12
3962.072	-35.12
3964.606	-47.12
3967.137	-33.12
3969.667	-32.12
3972.194	-26.12
3974.72	-34.12
3977.244	-52.12
3979.766	-35.12
3982.286	-35.12
3984.805	-27.12
3987.321	-16.12
3989.836	-21.12
3992.349	-31.12
3994.86	-28.12
3997.369	-36.12
3999.877	-30.12
4002.382	-30.12
4004.886	-24.12
4007.388	-26.12
4009.888	-16.12
4012.386	-18.12
4014.883	-25.12
4017.377	-28.12
4019.87	-26.12
4022.361	-41.12
4024.85	-27.12
4027.338	-23.12
4029.823	-31.12
4032.307	-29.12
4034.789	-25.12
4037.269	-23.12
4039.747	-41.12
4042.224	-18.12
4044.699	-33.12
4047.172	-30.12
4049.643	-20.12
4052.112	-54.12
4054.58	-26.12
4057.046	-37.12
4059.51	-28.12
4061.972	-26.12
4064.432	-45.12
4066.891	-19.12
4069.348	-27.12
4071.803	-23.12
4074.256	-32.12
4076.708	-23.12
4079.158	-26.12
4081.606	-11.12
4084.052	-27.12
4086.497	-25.12
4088.939	-31.12
4091.38	-30.12
4093.819	-21.12
4096.257	-0.12
4098.693	-6.12
4101.127	-7.12
4103.559	0.88
4105.989	131.88
4108.418	127.88
4110.845	112.88
4113.27	124.88
4115.694	137.88
4118.115	136.88
4120.535	-24.12
4122.954	-19.12
4125.37	-19.12
4127.785	-25.12
4130.198	-15.12
4132.609	-23.12
4135.019	7.88
4137.427	1.88
4139.833	4.88
4142.237	-2.12
