Data from 2018-3-6_conc=5_n=9_RamanShift_02.txt Node
Date: Tue Mar 06 14:47:48 GMT+02:00 2018
User: LAB3
Spectrometer: QEPB0276
Trigger mode: 0
Integration Time (sec): 3.000000E1
Scans to average: 1
Electric dark correction enabled: true
Nonlinearity correction enabled: false
Boxcar width: 0
XAxis mode: Raman Shifts
Number of Pixels in Spectrum: 1044
>>>>>Begin Spectral Data<<<<<
160.701	49.25
166.742	71.25
172.777	108.25
178.805	203.25
184.826	457.25
190.841	925.25
196.849	1452.25
202.85	1857.25
208.845	1982.25
214.833	1947.25
220.815	1911.25
226.789	1899.25
232.758	1905.25
238.719	1896.25
244.674	1853.25
250.623	1833.25
256.565	1793.25
262.5	1763.25
268.429	1745.25
274.351	1730.25
280.267	1745.25
286.176	1732.25
292.079	1726.25
297.975	1715.25
303.865	1729.25
309.748	1721.25
315.625	1709.25
321.495	1703.25
327.359	1700.25
333.217	1701.25
339.068	1690.25
344.912	1713.25
350.751	1707.25
356.583	1712.25
362.408	1710.25
368.227	1715.25
374.04	1707.25
379.847	1718.25
385.647	1751.25
391.44	1727.25
397.228	1725.25
403.009	1753.25
408.784	1730.25
414.553	1774.25
420.315	1761.25
426.071	1743.25
431.821	1774.25
437.565	1776.25
443.302	1733.25
449.033	1743.25
454.758	1734.25
460.477	1705.25
466.189	1682.25
471.896	1696.25
477.596	1701.25
483.29	1667.25
488.978	1663.25
494.66	1642.25
500.335	1598.25
506.005	1565.25
511.668	1498.25
517.325	1417.25
522.977	1354.25
528.622	1327.25
534.261	1298.25
539.894	1263.25
545.521	1251.25
551.141	1228.25
556.756	1210.25
562.365	1198.25
567.968	1201.25
573.565	1184.25
579.155	1210.25
584.74	1174.25
590.319	1184.25
595.892	1185.25
601.459	1180.25
607.02	1169.25
612.575	1172.25
618.124	1161.25
623.667	1125.25
629.204	1110.25
634.735	1106.25
640.261	1095.25
645.781	1061.25
651.294	1070.25
656.802	1075.25
662.304	1075.25
667.8	1086.25
673.29	1070.25
678.775	1077.25
684.254	1073.25
689.726	1041.25
695.193	1052.25
700.655	1048.25
706.11	1026.25
711.56	1042.25
717.004	1036.25
722.442	1006.25
727.874	1027.25
733.301	1029.25
738.722	992.25
744.137	997.25
749.547	998.25
754.951	1004.25
760.349	1003.25
765.741	1014.25
771.128	1013.25
776.509	1024.25
781.885	1042.25
787.254	1049.25
792.618	1054.25
797.977	1053.25
803.33	1042.25
808.677	1034.25
814.019	1037.25
819.355	1013.25
824.686	993.25
830.011	994.25
835.33	1003.25
840.644	992.25
845.952	971.25
851.255	994.25
856.552	985.25
861.844	975.25
867.13	950.25
872.41	951.25
877.686	950.25
882.955	935.25
888.219	923.25
893.478	896.25
898.731	909.25
903.979	897.25
909.221	870.25
914.458	876.25
919.69	870.25
924.916	878.25
930.136	884.25
935.351	864.25
940.561	873.25
945.766	883.25
950.965	889.25
956.158	867.25
961.347	841.25
966.529	842.25
971.707	848.25
976.879	842.25
982.046	819.25
987.208	806.25
992.364	808.25
997.515	820.25
1002.66	821.25
1007.801	805.25
1012.936	817.25
1018.066	803.25
1023.19	839.25
1028.309	847.25
1033.423	845.25
1038.532	850.25
1043.636	821.25
1048.734	822.25
1053.827	806.25
1058.915	804.25
1063.998	814.25
1069.075	788.25
1074.147	802.25
1079.214	776.25
1084.276	794.25
1089.333	801.25
1094.385	808.25
1099.431	793.25
1104.472	801.25
1109.509	787.25
1114.54	767.25
1119.565	769.25
1124.586	766.25
1129.602	751.25
1134.613	728.25
1139.618	731.25
1144.619	739.25
1149.614	735.25
1154.604	742.25
1159.589	722.25
1164.57	749.25
1169.545	769.25
1174.515	758.25
1179.48	748.25
1184.44	739.25
1189.395	750.25
1194.345	715.25
1199.29	738.25
1204.23	719.25
1209.165	700.25
1214.095	732.25
1219.021	720.25
1223.941	714.25
1228.856	728.25
1233.766	741.25
1238.672	733.25
1243.572	734.25
1248.467	737.25
1253.358	719.25
1258.244	693.25
1263.124	701.25
1268	709.25
1272.871	660.25
1277.737	669.25
1282.599	670.25
1287.455	666.25
1292.306	667.25
1297.153	652.25
1301.995	674.25
1306.832	661.25
1311.664	669.25
1316.491	663.25
1321.314	676.25
1326.132	675.25
1330.945	658.25
1335.753	645.25
1340.556	644.25
1345.354	627.25
1350.148	623.25
1354.937	680.25
1359.722	677.25
1364.501	590.25
1369.276	590.25
1374.046	602.25
1378.811	580.25
1383.572	592.25
1388.327	588.25
1393.079	578.25
1397.825	576.25
1402.567	575.25
1407.304	566.25
1412.036	562.25
1416.764	573.25
1421.487	549.25
1426.205	559.25
1430.919	564.25
1435.628	561.25
1440.333	556.25
1445.032	570.25
1449.727	576.25
1454.418	580.25
1459.104	568.25
1463.785	561.25
1468.462	553.25
1473.134	555.25
1477.802	536.25
1482.465	507.25
1487.123	520.25
1491.777	490.25
1496.426	493.25
1501.071	518.25
1505.711	502.25
1510.347	526.25
1514.978	523.25
1519.604	512.25
1524.226	519.25
1528.844	510.25
1533.457	507.25
1538.065	518.25
1542.669	514.25
1547.269	516.25
1551.864	510.25
1556.454	492.25
1561.041	494.25
1565.622	505.25
1570.199	507.25
1574.772	506.25
1579.34	520.25
1583.904	524.25
1588.464	520.25
1593.019	538.25
1597.569	512.25
1602.115	519.25
1606.657	512.25
1611.195	532.25
1615.728	536.25
1620.256	506.25
1624.78	483.25
1629.3	494.25
1633.816	500.25
1638.327	498.25
1642.834	509.25
1647.336	501.25
1651.834	524.25
1656.328	505.25
1660.817	501.25
1665.302	484.25
1669.783	492.25
1674.259	480.25
1678.732	475.25
1683.199	463.25
1687.663	446.25
1692.122	452.25
1696.577	430.25
1701.028	425.25
1705.474	413.25
1709.917	393.25
1714.355	399.25
1718.788	392.25
1723.218	386.25
1727.643	377.25
1732.064	371.25
1736.481	358.25
1740.893	376.25
1745.301	367.25
1749.705	338.25
1754.105	356.25
1758.501	330.25
1762.893	343.25
1767.28	313.25
1771.663	318.25
1776.042	307.25
1780.417	306.25
1784.787	314.25
1789.154	326.25
1793.516	324.25
1797.874	307.25
1802.228	299.25
1806.578	307.25
1810.924	307.25
1815.266	195.25
1819.603	306.25
1823.937	299.25
1828.266	298.25
1832.591	302.25
1836.913	289.25
1841.23	285.25
1845.543	281.25
1849.852	297.25
1854.156	289.25
1858.457	279.25
1862.754	279.25
1867.047	292.25
1871.335	297.25
1875.62	300.25
1879.9	291.25
1884.177	281.25
1888.449	276.25
1892.718	269.25
1896.982	286.25
1901.243	267.25
1905.499	271.25
1909.752	259.25
1914	248.25
1918.245	278.25
1922.485	267.25
1926.722	264.25
1930.954	253.25
1935.183	267.25
1939.408	267.25
1943.628	262.25
1947.845	257.25
1952.058	261.25
1956.267	247.25
1960.472	264.25
1964.673	253.25
1968.87	254.25
1973.063	259.25
1977.252	239.25
1981.438	245.25
1985.619	242.25
1989.797	221.25
1993.971	234.25
1998.14	248.25
2002.306	240.25
2006.469	246.25
2010.627	221.25
2014.781	232.25
2018.932	230.25
2023.078	249.25
2027.221	234.25
2031.36	223.25
2035.495	217.25
2039.627	219.25
2043.754	229.25
2047.878	217.25
2051.998	212.25
2056.114	201.25
2060.226	211.25
2064.334	225.25
2068.439	215.25
2072.54	212.25
2076.637	211.25
2080.73	207.25
2084.82	209.25
2088.906	202.25
2092.988	202.25
2097.066	212.25
2101.14	219.25
2105.211	215.25
2109.278	196.25
2113.342	193.25
2117.401	188.25
2121.457	186.25
2125.509	189.25
2129.558	198.25
2133.602	189.25
2137.643	193.25
2141.681	192.25
2145.714	203.25
2149.744	192.25
2153.77	191.25
2157.793	183.25
2161.812	159.25
2165.827	165.25
2169.838	185.25
2173.846	174.25
2177.851	165.25
2181.851	178.25
2185.848	173.25
2189.841	169.25
2193.831	168.25
2197.817	161.25
2201.799	162.25
2205.778	150.25
2209.753	157.25
2213.725	156.25
2217.693	157.25
2221.657	154.25
2225.618	166.25
2229.575	156.25
2233.529	161.25
2237.479	162.25
2241.425	147.25
2245.368	136.25
2249.307	147.25
2253.243	144.25
2257.175	152.25
2261.104	139.25
2265.029	136.25
2268.95	137.25
2272.868	137.25
2276.783	124.25
2280.694	140.25
2284.601	134.25
2288.505	130.25
2292.405	137.25
2296.302	111.25
2300.195	127.25
2304.085	103.25
2307.971	128.25
2311.854	97.25
2315.734	116.25
2319.609	118.25
2323.482	96.25
2327.351	107.25
2331.216	110.25
2335.078	115.25
2338.937	107.25
2342.792	105.25
2346.643	105.25
2350.492	112.25
2354.336	105.25
2358.178	117.25
2362.015	112.25
2365.85	113.25
2369.681	103.25
2373.508	108.25
2377.333	112.25
2381.153	116.25
2384.971	105.25
2388.785	117.25
2392.595	99.25
2396.402	100.25
2400.206	82.25
2404.007	93.25
2407.804	96.25
2411.597	101.25
2415.388	94.25
2419.174	93.25
2422.958	96.25
2426.738	91.25
2430.515	103.25
2434.289	86.25
2438.059	86.25
2441.825	92.25
2445.589	92.25
2449.349	76.25
2453.106	96.25
2456.859	93.25
2460.61	90.25
2464.356	72.25
2468.1	79.25
2471.84	75.25
2475.577	77.25
2479.311	73.25
2483.041	74.25
2486.768	89.25
2490.492	91.25
2494.213	78.25
2497.93	70.25
2501.644	63.25
2505.355	76.25
2509.062	69.25
2512.766	74.25
2516.467	67.25
2520.165	69.25
2523.859	62.25
2527.551	90.25
2531.239	59.25
2534.923	77.25
2538.605	67.25
2542.283	75.25
2545.958	71.25
2549.63	75.25
2553.299	71.25
2556.964	53.25
2560.626	63.25
2564.285	69.25
2567.941	52.25
2571.594	51.25
2575.243	67.25
2578.89	56.25
2582.533	66.25
2586.173	60.25
2589.809	59.25
2593.443	39.25
2597.073	59.25
2600.701	57.25
2604.325	62.25
2607.946	50.25
2611.564	66.25
2615.178	59.25
2618.79	54.25
2622.398	49.25
2626.004	57.25
2629.606	62.25
2633.205	44.25
2636.801	59.25
2640.394	57.25
2643.983	47.25
2647.57	41.25
2651.153	43.25
2654.734	51.25
2658.311	33.25
2661.885	36.25
2665.456	42.25
2669.025	46.25
2672.589	41.25
2676.151	55.25
2679.71	56.25
2683.266	41.25
2686.819	36.25
2690.368	49.25
2693.915	58.25
2697.458	47.25
2700.999	47.25
2704.536	47.25
2708.071	42.25
2711.602	41.25
2715.13	36.25
2718.656	20.25
2722.178	41.25
2725.697	24.25
2729.214	30.25
2732.727	36.25
2736.237	17.25
2739.744	33.25
2743.249	25.25
2746.75	33.25
2750.248	31.25
2753.743	35.25
2757.236	34.25
2760.725	33.25
2764.211	6.25
2767.695	31.25
2771.175	25.25
2774.652	35.25
2778.127	25.25
2781.598	26.25
2785.067	31.25
2788.532	24.25
2791.995	32.25
2795.455	24.25
2798.911	34.25
2802.365	23.25
2805.816	31.25
2809.264	36.25
2812.709	23.25
2816.151	27.25
2819.59	21.25
2823.026	30.25
2826.46	20.25
2829.89	35.25
2833.318	9.25
2836.742	25.25
2840.164	31.25
2843.583	28.25
2846.999	26.25
2850.412	29.25
2853.822	19.25
2857.229	35.25
2860.634	36.25
2864.035	18.25
2867.434	33.25
2870.83	33.25
2874.223	28.25
2877.613	27.25
2881	24.25
2884.385	28.25
2887.766	20.25
2891.145	31.25
2894.521	23.25
2897.894	14.25
2901.264	38.25
2904.631	34.25
2907.996	35.25
2911.358	45.25
2914.717	34.25
2918.073	31.25
2921.426	22.25
2924.777	15.25
2928.124	32.25
2931.469	44.25
2934.811	19.25
2938.15	52.25
2941.487	39.25
2944.821	54.25
2948.152	38.25
2951.48	49.25
2954.805	31.25
2958.128	52.25
2961.447	38.25
2964.765	56.25
2968.079	52.25
2971.39	49.25
2974.699	45.25
2978.005	47.25
2981.308	39.25
2984.609	40.25
2987.907	51.25
2991.202	59.25
2994.494	37.25
2997.784	48.25
3001.07	46.25
3004.355	43.25
3007.636	49.25
3010.915	51.25
3014.191	49.25
3017.464	51.25
3020.734	49.25
3024.002	55.25
3027.267	50.25
3030.53	51.25
3033.789	58.25
3037.046	55.25
3040.301	44.25
3043.552	58.25
3046.801	60.25
3050.048	68.25
3053.291	75.25
3056.532	62.25
3059.771	49.25
3063.006	70.25
3066.239	72.25
3069.469	75.25
3072.697	73.25
3075.922	71.25
3079.144	71.25
3082.364	92.25
3085.581	73.25
3088.795	99.25
3092.007	92.25
3095.216	105.25
3098.423	92.25
3101.627	69.25
3104.828	98.25
3108.026	92.25
3111.222	109.25
3114.416	108.25
3117.607	107.25
3120.795	110.25
3123.98	114.25
3127.163	101.25
3130.344	110.25
3133.521	108.25
3136.696	133.25
3139.869	122.25
3143.039	107.25
3146.206	144.25
3149.371	133.25
3152.533	126.25
3155.693	118.25
3158.85	135.25
3162.005	135.25
3165.157	129.25
3168.306	132.25
3171.453	141.25
3174.597	126.25
3177.739	118.25
3180.878	133.25
3184.014	138.25
3187.149	133.25
3190.28	143.25
3193.409	148.25
3196.536	144.25
3199.659	152.25
3202.781	149.25
3205.9	129.25
3209.016	146.25
3212.13	144.25
3215.241	136.25
3218.35	139.25
3221.456	138.25
3224.56	125.25
3227.661	134.25
3230.76	128.25
3233.856	126.25
3236.95	130.25
3240.041	121.25
3243.13	135.25
3246.216	129.25
3249.3	128.25
3252.382	124.25
3255.46	122.25
3258.537	72.25
3261.611	112.25
3264.682	121.25
3267.751	121.25
3270.818	111.25
3273.882	131.25
3276.943	120.25
3280.002	129.25
3283.059	112.25
3286.113	121.25
3289.165	115.25
3292.214	103.25
3295.261	119.25
3298.306	99.25
3301.348	110.25
3304.387	107.25
3307.425	108.25
3310.459	102.25
3313.492	124.25
3316.521	102.25
3319.549	115.25
3322.574	106.25
3325.597	100.25
3328.617	99.25
3331.635	98.25
3334.65	81.25
3337.663	97.25
3340.674	93.25
3343.682	101.25
3346.688	101.25
3349.691	89.25
3352.692	90.25
3355.691	101.25
3358.687	95.25
3361.681	99.25
3364.673	91.25
3367.662	98.25
3370.649	92.25
3373.633	77.25
3376.615	92.25
3379.595	75.25
3382.572	79.25
3385.547	75.25
3388.52	80.25
3391.49	78.25
3394.458	81.25
3397.424	91.25
3400.387	64.25
3403.348	77.25
3406.307	76.25
3409.263	75.25
3412.217	77.25
3415.168	77.25
3418.118	83.25
3421.065	66.25
3424.009	78.25
3426.951	71.25
3429.891	57.25
3432.829	61.25
3435.764	63.25
3438.697	61.25
3441.628	72.25
3444.557	46.25
3447.483	50.25
3450.407	65.25
3453.328	52.25
3456.247	40.25
3459.164	34.25
3462.079	56.25
3464.991	50.25
3467.902	44.25
3470.809	42.25
3473.715	47.25
3476.618	35.25
3479.519	40.25
3482.418	16.25
3485.315	25.25
3488.209	31.25
3491.101	29.25
3493.99	11.25
3496.878	22.25
3499.763	28.25
3502.646	22.25
3505.527	14.25
3508.405	15.25
3511.281	0.25
3514.155	16.25
3517.027	15.25
3519.897	0.25
3522.764	13.25
3525.629	-7.75
3528.492	7.25
3531.352	5.25
3534.211	8.25
3537.067	1.25
3539.921	4.25
3542.773	8.25
3545.622	-4.75
3548.469	-8.75
3551.315	-10.75
3554.157	-5.75
3556.998	-8.75
3559.837	-4.75
3562.673	-3.75
3565.507	-12.75
3568.339	-15.75
3571.169	-8.75
3573.996	-14.75
3576.822	-24.75
3579.645	-21.75
3582.466	-22.75
3585.285	-11.75
3588.101	-16.75
3590.916	-23.75
3593.728	-12.75
3596.538	-19.75
3599.346	-14.75
3602.152	-26.75
3604.956	-20.75
3607.757	-16.75
3610.556	-32.75
3613.354	-13.75
3616.149	-20.75
3618.942	-15.75
3621.732	-13.75
3624.521	-29.75
3627.307	-31.75
3630.092	-27.75
3632.874	-11.75
3635.654	-21.75
3638.432	-28.75
3641.208	-28.75
3643.982	-28.75
3646.753	-17.75
3649.523	-50.75
3652.29	-25.75
3655.055	-18.75
3657.818	-23.75
3660.579	-25.75
3663.338	-32.75
3666.095	-30.75
3668.849	-46.75
3671.602	-24.75
3674.352	-36.75
3677.101	-19.75
3679.847	-20.75
3682.591	-31.75
3685.333	-38.75
3688.073	-26.75
3690.811	-39.75
3693.547	-43.75
3696.281	-38.75
3699.013	-22.75
3701.742	-30.75
3704.47	-41.75
3707.195	-23.75
3709.919	-31.75
3712.64	-30.75
3715.359	-42.75
3718.076	-20.75
3720.792	-27.75
3723.505	-30.75
3726.216	-18.75
3728.925	-33.75
3731.632	-41.75
3734.336	-35.75
3737.039	-32.75
3739.74	-32.75
3742.439	-59.75
3745.136	-26.75
3747.83	-23.75
3750.523	-30.75
3753.213	-98.75
3755.902	-38.75
3758.589	-52.75
3761.273	-38.75
3763.956	-25.75
3766.636	-46.75
3769.315	-21.75
3771.991	-31.75
3774.665	-33.75
3777.338	-29.75
3780.008	-35.75
3782.677	-35.75
3785.343	-50.75
3788.007	-45.75
3790.67	-26.75
3793.33	-41.75
3795.989	-37.75
3798.645	-30.75
3801.299	-45.75
3803.952	-41.75
3806.602	-34.75
3809.251	-23.75
3811.897	-30.75
3814.542	-31.75
3817.184	-35.75
3819.825	-35.75
3822.463	-43.75
3825.1	-34.75
3827.735	-32.75
3830.367	-40.75
3832.998	-23.75
3835.627	-37.75
3838.253	-26.75
3840.878	-32.75
3843.501	-17.75
3846.122	-30.75
3848.741	-30.75
3851.358	-27.75
3853.973	-42.75
3856.586	-25.75
3859.197	-39.75
3861.806	-35.75
3864.414	-47.75
3867.019	-33.75
3869.622	-21.75
3872.224	-27.75
3874.823	-14.75
3877.421	6.25
3880.016	21.25
3882.61	59.25
3885.202	74.25
3887.792	49.25
3890.38	20.25
3892.966	-13.75
3895.55	-34.75
3898.132	-26.75
3900.713	-22.75
3903.291	-29.75
3905.868	-38.75
3908.442	-32.75
3911.015	-33.75
3913.586	-32.75
3916.155	-36.75
3918.722	-38.75
3921.287	-32.75
3923.85	-42.75
3926.411	-40.75
3928.971	-40.75
3931.528	-27.75
3934.084	-33.75
3936.638	-41.75
3939.19	-31.75
3941.74	-30.75
3944.288	-36.75
3946.834	-33.75
3949.378	-30.75
3951.921	-38.75
3954.462	-36.75
3957	-37.75
3959.537	-23.75
3962.072	-34.75
3964.606	-50.75
3967.137	-40.75
3969.667	-35.75
3972.194	-29.75
3974.72	-41.75
3977.244	-60.75
3979.766	-40.75
3982.286	-41.75
3984.805	-29.75
3987.321	-21.75
3989.836	-27.75
3992.349	-37.75
3994.86	-33.75
3997.369	-39.75
3999.877	-35.75
4002.382	-36.75
4004.886	-25.75
4007.388	-32.75
4009.888	-21.75
4012.386	-26.75
4014.883	-29.75
4017.377	-27.75
4019.87	-27.75
4022.361	-41.75
4024.85	-36.75
4027.338	-32.75
4029.823	-44.75
4032.307	-36.75
4034.789	-28.75
4037.269	-32.75
4039.747	-48.75
4042.224	-27.75
4044.699	-42.75
4047.172	-34.75
4049.643	-25.75
4052.112	-55.75
4054.58	-33.75
4057.046	-46.75
4059.51	-35.75
4061.972	-35.75
4064.432	-49.75
4066.891	-17.75
4069.348	-34.75
4071.803	-28.75
4074.256	-42.75
4076.708	-31.75
4079.158	-30.75
4081.606	-22.75
4084.052	-30.75
4086.497	-30.75
4088.939	-37.75
4091.38	-31.75
4093.819	-30.75
4096.257	-0.75
4098.693	-8.75
4101.127	-4.75
4103.559	3.25
4105.989	58.25
4108.418	63.25
4110.845	45.25
4113.27	51.25
4115.694	60.25
4118.115	48.25
4120.535	-31.75
4122.954	-24.75
4125.37	-21.75
4127.785	-28.75
4130.198	-24.75
4132.609	-28.75
4135.019	7.25
4137.427	0.25
4139.833	6.25
4142.237	-2.75
