Data from 2018-3-6_conc=6_n=4_RamanShift_05.txt Node
Date: Tue Mar 06 15:04:48 GMT+02:00 2018
User: LAB3
Spectrometer: QEPB0276
Trigger mode: 0
Integration Time (sec): 3.000000E1
Scans to average: 1
Electric dark correction enabled: true
Nonlinearity correction enabled: false
Boxcar width: 0
XAxis mode: Raman Shifts
Number of Pixels in Spectrum: 1044
>>>>>Begin Spectral Data<<<<<
160.701	36.88
166.742	52.88
172.777	72.88
178.805	147.88
184.826	373.88
190.841	747.88
196.849	1164.88
202.85	1515.88
208.845	1618.88
214.833	1590.88
220.815	1582.88
226.789	1568.88
232.758	1557.88
238.719	1546.88
244.674	1509.88
250.623	1497.88
256.565	1488.88
262.5	1452.88
268.429	1439.88
274.351	1419.88
280.267	1420.88
286.176	1414.88
292.079	1427.88
297.975	1412.88
303.865	1408.88
309.748	1422.88
315.625	1392.88
321.495	1406.88
327.359	1399.88
333.217	1412.88
339.068	1396.88
344.912	1428.88
350.751	1419.88
356.583	1428.88
362.408	1431.88
368.227	1435.88
374.04	1428.88
379.847	1427.88
385.647	1452.88
391.44	1428.88
397.228	1462.88
403.009	1467.88
408.784	1450.88
414.553	1465.88
420.315	1477.88
426.071	1461.88
431.821	1478.88
437.565	1475.88
443.302	1449.88
449.033	1431.88
454.758	1450.88
460.477	1426.88
466.189	1420.88
471.896	1409.88
477.596	1395.88
483.29	1380.88
488.978	1387.88
494.66	1358.88
500.335	1321.88
506.005	1262.88
511.668	1214.88
517.325	1150.88
522.977	1075.88
528.622	1042.88
534.261	1022.88
539.894	993.88
545.521	985.88
551.141	961.88
556.756	943.88
562.365	946.88
567.968	951.88
573.565	928.88
579.155	938.88
584.74	924.88
590.319	932.88
595.892	931.88
601.459	930.88
607.02	902.88
612.575	906.88
618.124	901.88
623.667	879.88
629.204	884.88
634.735	870.88
640.261	843.88
645.781	815.88
651.294	821.88
656.802	833.88
662.304	844.88
667.8	844.88
673.29	823.88
678.775	827.88
684.254	823.88
689.726	805.88
695.193	824.88
700.655	813.88
706.11	795.88
711.56	805.88
717.004	802.88
722.442	768.88
727.874	799.88
733.301	789.88
738.722	776.88
744.137	783.88
749.547	771.88
754.951	767.88
760.349	760.88
765.741	788.88
771.128	777.88
776.509	786.88
781.885	811.88
787.254	818.88
792.618	812.88
797.977	824.88
803.33	820.88
808.677	806.88
814.019	814.88
819.355	778.88
824.686	774.88
830.011	794.88
835.33	786.88
840.644	796.88
845.952	766.88
851.255	771.88
856.552	758.88
861.844	749.88
867.13	724.88
872.41	725.88
877.686	711.88
882.955	717.88
888.219	705.88
893.478	693.88
898.731	682.88
903.979	671.88
909.221	671.88
914.458	667.88
919.69	674.88
924.916	661.88
930.136	674.88
935.351	659.88
940.561	672.88
945.766	669.88
950.965	675.88
956.158	646.88
961.347	643.88
966.529	650.88
971.707	641.88
976.879	642.88
982.046	622.88
987.208	622.88
992.364	618.88
997.515	624.88
1002.66	627.88
1007.801	614.88
1012.936	628.88
1018.066	610.88
1023.19	628.88
1028.309	639.88
1033.423	649.88
1038.532	649.88
1043.636	635.88
1048.734	622.88
1053.827	623.88
1058.915	607.88
1063.998	622.88
1069.075	616.88
1074.147	613.88
1079.214	601.88
1084.276	623.88
1089.333	616.88
1094.385	614.88
1099.431	619.88
1104.472	615.88
1109.509	597.88
1114.54	592.88
1119.565	583.88
1124.586	592.88
1129.602	581.88
1134.613	555.88
1139.618	555.88
1144.619	558.88
1149.614	570.88
1154.604	563.88
1159.589	566.88
1164.57	577.88
1169.545	590.88
1174.515	571.88
1179.48	561.88
1184.44	570.88
1189.395	570.88
1194.345	547.88
1199.29	560.88
1204.23	550.88
1209.165	535.88
1214.095	557.88
1219.021	541.88
1223.941	547.88
1228.856	550.88
1233.766	554.88
1238.672	577.88
1243.572	560.88
1248.467	562.88
1253.358	549.88
1258.244	534.88
1263.124	547.88
1268	541.88
1272.871	497.88
1277.737	525.88
1282.599	501.88
1287.455	496.88
1292.306	498.88
1297.153	499.88
1301.995	507.88
1306.832	523.88
1311.664	512.88
1316.491	503.88
1321.314	506.88
1326.132	507.88
1330.945	510.88
1335.753	490.88
1340.556	481.88
1345.354	470.88
1350.148	463.88
1354.937	467.88
1359.722	452.88
1364.501	459.88
1369.276	460.88
1374.046	466.88
1378.811	442.88
1383.572	454.88
1388.327	454.88
1393.079	437.88
1397.825	444.88
1402.567	445.88
1407.304	431.88
1412.036	429.88
1416.764	437.88
1421.487	414.88
1426.205	419.88
1430.919	424.88
1435.628	427.88
1440.333	429.88
1445.032	425.88
1449.727	427.88
1454.418	436.88
1459.104	447.88
1463.785	425.88
1468.462	442.88
1473.134	415.88
1477.802	417.88
1482.465	391.88
1487.123	416.88
1491.777	380.88
1496.426	386.88
1501.071	401.88
1505.711	391.88
1510.347	415.88
1514.978	401.88
1519.604	400.88
1524.226	427.88
1528.844	397.88
1533.457	408.88
1538.065	399.88
1542.669	395.88
1547.269	397.88
1551.864	399.88
1556.454	379.88
1561.041	378.88
1565.622	382.88
1570.199	388.88
1574.772	395.88
1579.34	397.88
1583.904	405.88
1588.464	408.88
1593.019	418.88
1597.569	394.88
1602.115	399.88
1606.657	394.88
1611.195	409.88
1615.728	407.88
1620.256	401.88
1624.78	371.88
1629.3	389.88
1633.816	396.88
1638.327	389.88
1642.834	402.88
1647.336	397.88
1651.834	405.88
1656.328	411.88
1660.817	399.88
1665.302	377.88
1669.783	380.88
1674.259	370.88
1678.732	373.88
1683.199	358.88
1687.663	339.88
1692.122	349.88
1696.577	344.88
1701.028	344.88
1705.474	326.88
1709.917	315.88
1714.355	316.88
1718.788	314.88
1723.218	300.88
1727.643	290.88
1732.064	304.88
1736.481	278.88
1740.893	291.88
1745.301	282.88
1749.705	260.88
1754.105	276.88
1758.501	266.88
1762.893	271.88
1767.28	255.88
1771.663	245.88
1776.042	245.88
1780.417	238.88
1784.787	252.88
1789.154	257.88
1793.516	255.88
1797.874	244.88
1802.228	236.88
1806.578	236.88
1810.924	246.88
1815.266	131.88
1819.603	249.88
1823.937	232.88
1828.266	239.88
1832.591	242.88
1836.913	241.88
1841.23	223.88
1845.543	217.88
1849.852	228.88
1854.156	222.88
1858.457	224.88
1862.754	219.88
1867.047	226.88
1871.335	240.88
1875.62	239.88
1879.9	232.88
1884.177	224.88
1888.449	225.88
1892.718	227.88
1896.982	233.88
1901.243	206.88
1905.499	216.88
1909.752	213.88
1914	194.88
1918.245	220.88
1922.485	221.88
1926.722	210.88
1930.954	201.88
1935.183	222.88
1939.408	220.88
1943.628	220.88
1947.845	220.88
1952.058	216.88
1956.267	202.88
1960.472	216.88
1964.673	214.88
1968.87	199.88
1973.063	198.88
1977.252	203.88
1981.438	187.88
1985.619	190.88
1989.797	179.88
1993.971	193.88
1998.14	191.88
2002.306	190.88
2006.469	195.88
2010.627	178.88
2014.781	179.88
2018.932	182.88
2023.078	196.88
2027.221	188.88
2031.36	177.88
2035.495	179.88
2039.627	182.88
2043.754	177.88
2047.878	163.88
2051.998	176.88
2056.114	178.88
2060.226	172.88
2064.334	181.88
2068.439	177.88
2072.54	180.88
2076.637	163.88
2080.73	173.88
2084.82	165.88
2088.906	167.88
2092.988	172.88
2097.066	166.88
2101.14	169.88
2105.211	175.88
2109.278	153.88
2113.342	159.88
2117.401	149.88
2121.457	151.88
2125.509	139.88
2129.558	157.88
2133.602	154.88
2137.643	157.88
2141.681	156.88
2145.714	157.88
2149.744	154.88
2153.77	146.88
2157.793	133.88
2161.812	123.88
2165.827	127.88
2169.838	153.88
2173.846	138.88
2177.851	133.88
2181.851	147.88
2185.848	133.88
2189.841	132.88
2193.831	134.88
2197.817	126.88
2201.799	125.88
2205.778	120.88
2209.753	112.88
2213.725	114.88
2217.693	123.88
2221.657	114.88
2225.618	130.88
2229.575	120.88
2233.529	126.88
2237.479	127.88
2241.425	115.88
2245.368	101.88
2249.307	112.88
2253.243	108.88
2257.175	118.88
2261.104	106.88
2265.029	114.88
2268.95	114.88
2272.868	101.88
2276.783	93.88
2280.694	105.88
2284.601	99.88
2288.505	102.88
2292.405	108.88
2296.302	83.88
2300.195	90.88
2304.085	71.88
2307.971	93.88
2311.854	74.88
2315.734	87.88
2319.609	83.88
2323.482	70.88
2327.351	83.88
2331.216	83.88
2335.078	85.88
2338.937	81.88
2342.792	81.88
2346.643	72.88
2350.492	92.88
2354.336	82.88
2358.178	84.88
2362.015	84.88
2365.85	75.88
2369.681	80.88
2373.508	85.88
2377.333	85.88
2381.153	85.88
2384.971	81.88
2388.785	83.88
2392.595	68.88
2396.402	71.88
2400.206	53.88
2404.007	64.88
2407.804	69.88
2411.597	73.88
2415.388	67.88
2419.174	65.88
2422.958	67.88
2426.738	67.88
2430.515	68.88
2434.289	61.88
2438.059	59.88
2441.825	57.88
2445.589	72.88
2449.349	51.88
2453.106	64.88
2456.859	68.88
2460.61	66.88
2464.356	54.88
2468.1	46.88
2471.84	55.88
2475.577	57.88
2479.311	51.88
2483.041	53.88
2486.768	69.88
2490.492	68.88
2494.213	57.88
2497.93	43.88
2501.644	42.88
2505.355	58.88
2509.062	56.88
2512.766	46.88
2516.467	46.88
2520.165	44.88
2523.859	32.88
2527.551	68.88
2531.239	42.88
2534.923	51.88
2538.605	49.88
2542.283	44.88
2545.958	50.88
2549.63	55.88
2553.299	57.88
2556.964	37.88
2560.626	51.88
2564.285	46.88
2567.941	34.88
2571.594	36.88
2575.243	53.88
2578.89	40.88
2582.533	42.88
2586.173	42.88
2589.809	42.88
2593.443	19.88
2597.073	39.88
2600.701	45.88
2604.325	45.88
2607.946	27.88
2611.564	45.88
2615.178	38.88
2618.79	42.88
2622.398	31.88
2626.004	38.88
2629.606	35.88
2633.205	24.88
2636.801	33.88
2640.394	36.88
2643.983	31.88
2647.57	33.88
2651.153	30.88
2654.734	41.88
2658.311	14.88
2661.885	23.88
2665.456	25.88
2669.025	33.88
2672.589	27.88
2676.151	41.88
2679.71	42.88
2683.266	37.88
2686.819	26.88
2690.368	30.88
2693.915	31.88
2697.458	26.88
2700.999	33.88
2704.536	33.88
2708.071	20.88
2711.602	32.88
2715.13	27.88
2718.656	12.88
2722.178	27.88
2725.697	11.88
2729.214	14.88
2732.727	20.88
2736.237	8.88
2739.744	13.88
2743.249	12.88
2746.75	16.88
2750.248	13.88
2753.743	19.88
2757.236	18.88
2760.725	27.88
2764.211	-8.12
2767.695	21.88
2771.175	19.88
2774.652	21.88
2778.127	14.88
2781.598	14.88
2785.067	20.88
2788.532	13.88
2791.995	19.88
2795.455	12.88
2798.911	31.88
2802.365	16.88
2805.816	25.88
2809.264	28.88
2812.709	8.88
2816.151	22.88
2819.59	7.88
2823.026	17.88
2826.46	9.88
2829.89	27.88
2833.318	-3.12
2836.742	9.88
2840.164	9.88
2843.583	12.88
2846.999	8.88
2850.412	21.88
2853.822	9.88
2857.229	27.88
2860.634	24.88
2864.035	2.88
2867.434	18.88
2870.83	23.88
2874.223	14.88
2877.613	23.88
2881	7.88
2884.385	13.88
2887.766	10.88
2891.145	16.88
2894.521	14.88
2897.894	5.88
2901.264	26.88
2904.631	24.88
2907.996	23.88
2911.358	33.88
2914.717	24.88
2918.073	17.88
2921.426	11.88
2924.777	0.88
2928.124	15.88
2931.469	29.88
2934.811	8.88
2938.15	37.88
2941.487	21.88
2944.821	46.88
2948.152	25.88
2951.48	36.88
2954.805	18.88
2958.128	39.88
2961.447	24.88
2964.765	45.88
2968.079	26.88
2971.39	35.88
2974.699	30.88
2978.005	39.88
2981.308	31.88
2984.609	20.88
2987.907	38.88
2991.202	42.88
2994.494	25.88
2997.784	35.88
3001.07	31.88
3004.355	27.88
3007.636	29.88
3010.915	34.88
3014.191	26.88
3017.464	34.88
3020.734	33.88
3024.002	38.88
3027.267	35.88
3030.53	40.88
3033.789	36.88
3037.046	39.88
3040.301	36.88
3043.552	41.88
3046.801	46.88
3050.048	56.88
3053.291	64.88
3056.532	55.88
3059.771	32.88
3063.006	58.88
3066.239	46.88
3069.469	59.88
3072.697	57.88
3075.922	43.88
3079.144	51.88
3082.364	74.88
3085.581	54.88
3088.795	78.88
3092.007	68.88
3095.216	81.88
3098.423	63.88
3101.627	49.88
3104.828	70.88
3108.026	69.88
3111.222	88.88
3114.416	95.88
3117.607	81.88
3120.795	90.88
3123.98	89.88
3127.163	73.88
3130.344	84.88
3133.521	86.88
3136.696	103.88
3139.869	96.88
3143.039	82.88
3146.206	117.88
3149.371	114.88
3152.533	101.88
3155.693	93.88
3158.85	109.88
3162.005	105.88
3165.157	108.88
3168.306	102.88
3171.453	116.88
3174.597	101.88
3177.739	96.88
3180.878	114.88
3184.014	112.88
3187.149	113.88
3190.28	111.88
3193.409	117.88
3196.536	113.88
3199.659	115.88
3202.781	128.88
3205.9	101.88
3209.016	113.88
3212.13	113.88
3215.241	106.88
3218.35	110.88
3221.456	108.88
3224.56	94.88
3227.661	106.88
3230.76	106.88
3233.856	96.88
3236.95	101.88
3240.041	97.88
3243.13	106.88
3246.216	104.88
3249.3	105.88
3252.382	100.88
3255.46	91.88
3258.537	45.88
3261.611	93.88
3264.682	95.88
3267.751	88.88
3270.818	83.88
3273.882	99.88
3276.943	98.88
3280.002	108.88
3283.059	87.88
3286.113	88.88
3289.165	85.88
3292.214	82.88
3295.261	100.88
3298.306	75.88
3301.348	86.88
3304.387	72.88
3307.425	88.88
3310.459	81.88
3313.492	95.88
3316.521	87.88
3319.549	86.88
3322.574	85.88
3325.597	75.88
3328.617	68.88
3331.635	78.88
3334.65	56.88
3337.663	76.88
3340.674	70.88
3343.682	74.88
3346.688	83.88
3349.691	75.88
3352.692	73.88
3355.691	83.88
3358.687	69.88
3361.681	79.88
3364.673	75.88
3367.662	75.88
3370.649	81.88
3373.633	57.88
3376.615	77.88
3379.595	56.88
3382.572	61.88
3385.547	52.88
3388.52	57.88
3391.49	64.88
3394.458	57.88
3397.424	61.88
3400.387	48.88
3403.348	56.88
3406.307	52.88
3409.263	50.88
3412.217	65.88
3415.168	56.88
3418.118	66.88
3421.065	52.88
3424.009	58.88
3426.951	50.88
3429.891	50.88
3432.829	53.88
3435.764	50.88
3438.697	44.88
3441.628	46.88
3444.557	33.88
3447.483	29.88
3450.407	52.88
3453.328	33.88
3456.247	32.88
3459.164	26.88
3462.079	37.88
3464.991	30.88
3467.902	31.88
3470.809	24.88
3473.715	31.88
3476.618	20.88
3479.519	28.88
3482.418	1.88
3485.315	14.88
3488.209	13.88
3491.101	12.88
3493.99	3.88
3496.878	10.88
3499.763	12.88
3502.646	15.88
3505.527	6.88
3508.405	4.88
3511.281	-6.12
3514.155	4.88
3517.027	3.88
3519.897	-3.12
3522.764	9.88
3525.629	-15.12
3528.492	5.88
3531.352	1.88
3534.211	-1.12
3537.067	-9.12
3539.921	-6.12
3542.773	-4.12
3545.622	-14.12
3548.469	-19.12
3551.315	-13.12
3554.157	-9.12
3556.998	-22.12
3559.837	-15.12
3562.673	-6.12
3565.507	-17.12
3568.339	-27.12
3571.169	-12.12
3573.996	-13.12
3576.822	-29.12
3579.645	-21.12
3582.466	-23.12
3585.285	-17.12
3588.101	-15.12
3590.916	-25.12
3593.728	-16.12
3596.538	-26.12
3599.346	-18.12
3602.152	-29.12
3604.956	-20.12
3607.757	-18.12
3610.556	-34.12
3613.354	-23.12
3616.149	-24.12
3618.942	-21.12
3621.732	-15.12
3624.521	-30.12
3627.307	-33.12
3630.092	-33.12
3632.874	-17.12
3635.654	-24.12
3638.432	-28.12
3641.208	-29.12
3643.982	-27.12
3646.753	-18.12
3649.523	-49.12
3652.29	-28.12
3655.055	-21.12
3657.818	-25.12
3660.579	-28.12
3663.338	-36.12
3666.095	-32.12
3668.849	-53.12
3671.602	-27.12
3674.352	-37.12
3677.101	-19.12
3679.847	-20.12
3682.591	-39.12
3685.333	-41.12
3688.073	-29.12
3690.811	-39.12
3693.547	-41.12
3696.281	-42.12
3699.013	-30.12
3701.742	-35.12
3704.47	-43.12
3707.195	-30.12
3709.919	-28.12
3712.64	-34.12
3715.359	-40.12
3718.076	-22.12
3720.792	-31.12
3723.505	-29.12
3726.216	-19.12
3728.925	-31.12
3731.632	-40.12
3734.336	-31.12
3737.039	-31.12
3739.74	-29.12
3742.439	-54.12
3745.136	-26.12
3747.83	-32.12
3750.523	-28.12
3753.213	-94.12
3755.902	-33.12
3758.589	-46.12
3761.273	-37.12
3763.956	-25.12
3766.636	-40.12
3769.315	-24.12
3771.991	-37.12
3774.665	-37.12
3777.338	-34.12
3780.008	-43.12
3782.677	-36.12
3785.343	-53.12
3788.007	-54.12
3790.67	-27.12
3793.33	-43.12
3795.989	-34.12
3798.645	-34.12
3801.299	-43.12
3803.952	-40.12
3806.602	-37.12
3809.251	-32.12
3811.897	-32.12
3814.542	-39.12
3817.184	-37.12
3819.825	-35.12
3822.463	-43.12
3825.1	-34.12
3827.735	-35.12
3830.367	-37.12
3832.998	-20.12
3835.627	-37.12
3838.253	-27.12
3840.878	-37.12
3843.501	-22.12
3846.122	-35.12
3848.741	-28.12
3851.358	-26.12
3853.973	-47.12
3856.586	-27.12
3859.197	-46.12
3861.806	-32.12
3864.414	-47.12
3867.019	-37.12
3869.622	-26.12
3872.224	-26.12
3874.823	-16.12
3877.421	-6.12
3880.016	-2.12
3882.61	20.88
3885.202	41.88
3887.792	18.88
3890.38	7.88
3892.966	-21.12
3895.55	-42.12
3898.132	-28.12
3900.713	-26.12
3903.291	-30.12
3905.868	-38.12
3908.442	-37.12
3911.015	-36.12
3913.586	-39.12
3916.155	-39.12
3918.722	-41.12
3921.287	-39.12
3923.85	-47.12
3926.411	-34.12
3928.971	-41.12
3931.528	-35.12
3934.084	-35.12
3936.638	-47.12
3939.19	-28.12
3941.74	-30.12
3944.288	-36.12
3946.834	-37.12
3949.378	-28.12
3951.921	-40.12
3954.462	-35.12
3957	-30.12
3959.537	-23.12
3962.072	-39.12
3964.606	-51.12
3967.137	-41.12
3969.667	-37.12
3972.194	-28.12
3974.72	-40.12
3977.244	-61.12
3979.766	-47.12
3982.286	-39.12
3984.805	-27.12
3987.321	-23.12
3989.836	-33.12
3992.349	-43.12
3994.86	-33.12
3997.369	-38.12
3999.877	-34.12
4002.382	-35.12
4004.886	-29.12
4007.388	-35.12
4009.888	-30.12
4012.386	-26.12
4014.883	-29.12
4017.377	-34.12
4019.87	-28.12
4022.361	-40.12
4024.85	-35.12
4027.338	-30.12
4029.823	-42.12
4032.307	-37.12
4034.789	-33.12
4037.269	-31.12
4039.747	-48.12
4042.224	-27.12
4044.699	-38.12
4047.172	-36.12
4049.643	-31.12
4052.112	-64.12
4054.58	-32.12
4057.046	-48.12
4059.51	-37.12
4061.972	-38.12
4064.432	-51.12
4066.891	-22.12
4069.348	-35.12
4071.803	-32.12
4074.256	-36.12
4076.708	-29.12
4079.158	-31.12
4081.606	-20.12
4084.052	-34.12
4086.497	-28.12
4088.939	-31.12
4091.38	-34.12
4093.819	-26.12
4096.257	0.88
4098.693	-4.12
4101.127	-4.12
4103.559	1.88
4105.989	44.88
4108.418	47.88
4110.845	34.88
4113.27	34.88
4115.694	45.88
4118.115	26.88
4120.535	-31.12
4122.954	-23.12
4125.37	-23.12
4127.785	-32.12
4130.198	-25.12
4132.609	-33.12
4135.019	6.88
4137.427	-0.12
4139.833	2.88
4142.237	-4.12
