Data from 2018-3-6_conc=4_n=10_RamanShift_04.txt Node
Date: Tue Mar 06 14:20:18 GMT+02:00 2018
User: LAB3
Spectrometer: QEPB0276
Trigger mode: 0
Integration Time (sec): 3.000000E1
Scans to average: 1
Electric dark correction enabled: true
Nonlinearity correction enabled: false
Boxcar width: 0
XAxis mode: Raman Shifts
Number of Pixels in Spectrum: 1044
>>>>>Begin Spectral Data<<<<<
160.701	56.75
166.742	80.75
172.777	121.75
178.805	237.75
184.826	570.75
190.841	1150.75
196.849	1804.75
202.85	2304.75
208.845	2444.75
214.833	2433.75
220.815	2399.75
226.789	2353.75
232.758	2376.75
238.719	2363.75
244.674	2351.75
250.623	2294.75
256.565	2296.75
262.5	2250.75
268.429	2230.75
274.351	2212.75
280.267	2208.75
286.176	2183.75
292.079	2194.75
297.975	2199.75
303.865	2213.75
309.748	2190.75
315.625	2166.75
321.495	2182.75
327.359	2152.75
333.217	2187.75
339.068	2182.75
344.912	2184.75
350.751	2188.75
356.583	2183.75
362.408	2215.75
368.227	2210.75
374.04	2219.75
379.847	2230.75
385.647	2249.75
391.44	2231.75
397.228	2233.75
403.009	2254.75
408.784	2279.75
414.553	2264.75
420.315	2261.75
426.071	2250.75
431.821	2299.75
437.565	2279.75
443.302	2261.75
449.033	2235.75
454.758	2232.75
460.477	2216.75
466.189	2193.75
471.896	2186.75
477.596	2175.75
483.29	2151.75
488.978	2138.75
494.66	2145.75
500.335	2075.75
506.005	1969.75
511.668	1881.75
517.325	1813.75
522.977	1717.75
528.622	1657.75
534.261	1618.75
539.894	1589.75
545.521	1593.75
551.141	1548.75
556.756	1544.75
562.365	1526.75
567.968	1502.75
573.565	1491.75
579.155	1500.75
584.74	1499.75
590.319	1497.75
595.892	1485.75
601.459	1484.75
607.02	1475.75
612.575	1461.75
618.124	1471.75
623.667	1432.75
629.204	1409.75
634.735	1396.75
640.261	1359.75
645.781	1346.75
651.294	1344.75
656.802	1341.75
662.304	1367.75
667.8	1354.75
673.29	1356.75
678.775	1337.75
684.254	1350.75
689.726	1318.75
695.193	1331.75
700.655	1315.75
706.11	1292.75
711.56	1302.75
717.004	1313.75
722.442	1262.75
727.874	1276.75
733.301	1276.75
738.722	1253.75
744.137	1262.75
749.547	1264.75
754.951	1279.75
760.349	1252.75
765.741	1284.75
771.128	1292.75
776.509	1271.75
781.885	1327.75
787.254	1332.75
792.618	1317.75
797.977	1333.75
803.33	1328.75
808.677	1303.75
814.019	1293.75
819.355	1287.75
824.686	1269.75
830.011	1262.75
835.33	1283.75
840.644	1273.75
845.952	1237.75
851.255	1235.75
856.552	1238.75
861.844	1219.75
867.13	1195.75
872.41	1191.75
877.686	1169.75
882.955	1163.75
888.219	1163.75
893.478	1136.75
898.731	1127.75
903.979	1127.75
909.221	1105.75
914.458	1092.75
919.69	1098.75
924.916	1081.75
930.136	1100.75
935.351	1095.75
940.561	1112.75
945.766	1095.75
950.965	1106.75
956.158	1079.75
961.347	1066.75
966.529	1055.75
971.707	1068.75
976.879	1042.75
982.046	1024.75
987.208	1015.75
992.364	1042.75
997.515	1018.75
1002.66	1037.75
1007.801	1029.75
1012.936	1056.75
1018.066	1037.75
1023.19	1045.75
1028.309	1058.75
1033.423	1059.75
1038.532	1066.75
1043.636	1028.75
1048.734	1039.75
1053.827	1039.75
1058.915	1008.75
1063.998	1002.75
1069.075	998.75
1074.147	1027.75
1079.214	1005.75
1084.276	1025.75
1089.333	1004.75
1094.385	1027.75
1099.431	1001.75
1104.472	1015.75
1109.509	992.75
1114.54	986.75
1119.565	973.75
1124.586	956.75
1129.602	959.75
1134.613	922.75
1139.618	932.75
1144.619	929.75
1149.614	937.75
1154.604	942.75
1159.589	935.75
1164.57	959.75
1169.545	961.75
1174.515	956.75
1179.48	947.75
1184.44	940.75
1189.395	949.75
1194.345	915.75
1199.29	925.75
1204.23	918.75
1209.165	909.75
1214.095	925.75
1219.021	906.75
1223.941	930.75
1228.856	933.75
1233.766	940.75
1238.672	943.75
1243.572	930.75
1248.467	926.75
1253.358	903.75
1258.244	892.75
1263.124	897.75
1268	888.75
1272.871	842.75
1277.737	847.75
1282.599	847.75
1287.455	842.75
1292.306	850.75
1297.153	830.75
1301.995	846.75
1306.832	847.75
1311.664	848.75
1316.491	850.75
1321.314	860.75
1326.132	835.75
1330.945	828.75
1335.753	823.75
1340.556	800.75
1345.354	783.75
1350.148	773.75
1354.937	777.75
1359.722	763.75
1364.501	764.75
1369.276	768.75
1374.046	779.75
1378.811	755.75
1383.572	751.75
1388.327	765.75
1393.079	733.75
1397.825	737.75
1402.567	737.75
1407.304	727.75
1412.036	731.75
1416.764	724.75
1421.487	708.75
1426.205	711.75
1430.919	717.75
1435.628	725.75
1440.333	721.75
1445.032	740.75
1449.727	737.75
1454.418	758.75
1459.104	729.75
1463.785	714.75
1468.462	711.75
1473.134	711.75
1477.802	699.75
1482.465	665.75
1487.123	678.75
1491.777	664.75
1496.426	638.75
1501.071	671.75
1505.711	664.75
1510.347	681.75
1514.978	681.75
1519.604	679.75
1524.226	685.75
1528.844	659.75
1533.457	669.75
1538.065	681.75
1542.669	662.75
1547.269	658.75
1551.864	661.75
1556.454	636.75
1561.041	652.75
1565.622	659.75
1570.199	664.75
1574.772	666.75
1579.34	676.75
1583.904	679.75
1588.464	680.75
1593.019	681.75
1597.569	661.75
1602.115	657.75
1606.657	666.75
1611.195	687.75
1615.728	666.75
1620.256	651.75
1624.78	637.75
1629.3	645.75
1633.816	667.75
1638.327	661.75
1642.834	662.75
1647.336	663.75
1651.834	671.75
1656.328	679.75
1660.817	657.75
1665.302	657.75
1669.783	651.75
1674.259	628.75
1678.732	623.75
1683.199	611.75
1687.663	584.75
1692.122	575.75
1696.577	572.75
1701.028	572.75
1705.474	552.75
1709.917	547.75
1714.355	534.75
1718.788	526.75
1723.218	514.75
1727.643	496.75
1732.064	514.75
1736.481	494.75
1740.893	496.75
1745.301	476.75
1749.705	459.75
1754.105	467.75
1758.501	452.75
1762.893	460.75
1767.28	421.75
1771.663	431.75
1776.042	427.75
1780.417	426.75
1784.787	424.75
1789.154	434.75
1793.516	428.75
1797.874	420.75
1802.228	416.75
1806.578	410.75
1810.924	420.75
1815.266	308.75
1819.603	418.75
1823.937	394.75
1828.266	402.75
1832.591	407.75
1836.913	393.75
1841.23	389.75
1845.543	389.75
1849.852	401.75
1854.156	389.75
1858.457	385.75
1862.754	383.75
1867.047	391.75
1871.335	398.75
1875.62	399.75
1879.9	386.75
1884.177	383.75
1888.449	388.75
1892.718	389.75
1896.982	391.75
1901.243	366.75
1905.499	370.75
1909.752	362.75
1914	351.75
1918.245	380.75
1922.485	376.75
1926.722	361.75
1930.954	356.75
1935.183	376.75
1939.408	377.75
1943.628	375.75
1947.845	362.75
1952.058	360.75
1956.267	349.75
1960.472	363.75
1964.673	353.75
1968.87	350.75
1973.063	343.75
1977.252	339.75
1981.438	331.75
1985.619	324.75
1989.797	321.75
1993.971	321.75
1998.14	335.75
2002.306	317.75
2006.469	329.75
2010.627	322.75
2014.781	313.75
2018.932	311.75
2023.078	334.75
2027.221	315.75
2031.36	304.75
2035.495	304.75
2039.627	302.75
2043.754	315.75
2047.878	295.75
2051.998	298.75
2056.114	289.75
2060.226	292.75
2064.334	306.75
2068.439	306.75
2072.54	307.75
2076.637	286.75
2080.73	287.75
2084.82	289.75
2088.906	285.75
2092.988	291.75
2097.066	294.75
2101.14	298.75
2105.211	291.75
2109.278	284.75
2113.342	278.75
2117.401	270.75
2121.457	263.75
2125.509	264.75
2129.558	272.75
2133.602	271.75
2137.643	257.75
2141.681	262.75
2145.714	262.75
2149.744	261.75
2153.77	256.75
2157.793	244.75
2161.812	236.75
2165.827	225.75
2169.838	249.75
2173.846	240.75
2177.851	231.75
2181.851	235.75
2185.848	229.75
2189.841	236.75
2193.831	221.75
2197.817	230.75
2201.799	228.75
2205.778	216.75
2209.753	219.75
2213.725	210.75
2217.693	216.75
2221.657	216.75
2225.618	221.75
2229.575	205.75
2233.529	214.75
2237.479	218.75
2241.425	214.75
2245.368	195.75
2249.307	201.75
2253.243	193.75
2257.175	206.75
2261.104	191.75
2265.029	195.75
2268.95	199.75
2272.868	191.75
2276.783	177.75
2280.694	185.75
2284.601	179.75
2288.505	177.75
2292.405	179.75
2296.302	165.75
2300.195	175.75
2304.085	141.75
2307.971	172.75
2311.854	147.75
2315.734	162.75
2319.609	160.75
2323.482	142.75
2327.351	152.75
2331.216	157.75
2335.078	159.75
2338.937	151.75
2342.792	141.75
2346.643	144.75
2350.492	146.75
2354.336	139.75
2358.178	148.75
2362.015	144.75
2365.85	146.75
2369.681	148.75
2373.508	152.75
2377.333	151.75
2381.153	147.75
2384.971	143.75
2388.785	146.75
2392.595	138.75
2396.402	139.75
2400.206	114.75
2404.007	132.75
2407.804	136.75
2411.597	136.75
2415.388	127.75
2419.174	129.75
2422.958	136.75
2426.738	129.75
2430.515	137.75
2434.289	121.75
2438.059	118.75
2441.825	123.75
2445.589	139.75
2449.349	105.75
2453.106	126.75
2456.859	124.75
2460.61	130.75
2464.356	106.75
2468.1	110.75
2471.84	118.75
2475.577	113.75
2479.311	103.75
2483.041	117.75
2486.768	130.75
2490.492	121.75
2494.213	114.75
2497.93	102.75
2501.644	100.75
2505.355	110.75
2509.062	109.75
2512.766	110.75
2516.467	104.75
2520.165	105.75
2523.859	88.75
2527.551	125.75
2531.239	95.75
2534.923	107.75
2538.605	99.75
2542.283	110.75
2545.958	102.75
2549.63	110.75
2553.299	108.75
2556.964	89.75
2560.626	89.75
2564.285	93.75
2567.941	85.75
2571.594	80.75
2575.243	95.75
2578.89	87.75
2582.533	95.75
2586.173	89.75
2589.809	92.75
2593.443	67.75
2597.073	89.75
2600.701	94.75
2604.325	96.75
2607.946	77.75
2611.564	91.75
2615.178	85.75
2618.79	83.75
2622.398	80.75
2626.004	90.75
2629.606	85.75
2633.205	72.75
2636.801	91.75
2640.394	79.75
2643.983	77.75
2647.57	70.75
2651.153	74.75
2654.734	84.75
2658.311	52.75
2661.885	58.75
2665.456	72.75
2669.025	70.75
2672.589	64.75
2676.151	81.75
2679.71	79.75
2683.266	67.75
2686.819	57.75
2690.368	75.75
2693.915	71.75
2697.458	68.75
2700.999	73.75
2704.536	75.75
2708.071	63.75
2711.602	62.75
2715.13	65.75
2718.656	48.75
2722.178	58.75
2725.697	50.75
2729.214	56.75
2732.727	58.75
2736.237	42.75
2739.744	57.75
2743.249	52.75
2746.75	60.75
2750.248	50.75
2753.743	61.75
2757.236	57.75
2760.725	64.75
2764.211	33.75
2767.695	53.75
2771.175	57.75
2774.652	57.75
2778.127	52.75
2781.598	57.75
2785.067	54.75
2788.532	46.75
2791.995	53.75
2795.455	41.75
2798.911	62.75
2802.365	46.75
2805.816	52.75
2809.264	59.75
2812.709	53.75
2816.151	50.75
2819.59	45.75
2823.026	47.75
2826.46	49.75
2829.89	62.75
2833.318	26.75
2836.742	51.75
2840.164	51.75
2843.583	47.75
2846.999	49.75
2850.412	51.75
2853.822	49.75
2857.229	65.75
2860.634	59.75
2864.035	44.75
2867.434	59.75
2870.83	52.75
2874.223	51.75
2877.613	56.75
2881	51.75
2884.385	46.75
2887.766	51.75
2891.145	53.75
2894.521	51.75
2897.894	48.75
2901.264	59.75
2904.631	59.75
2907.996	61.75
2911.358	69.75
2914.717	65.75
2918.073	57.75
2921.426	57.75
2924.777	46.75
2928.124	61.75
2931.469	68.75
2934.811	55.75
2938.15	77.75
2941.487	62.75
2944.821	83.75
2948.152	68.75
2951.48	73.75
2954.805	56.75
2958.128	74.75
2961.447	63.75
2964.765	85.75
2968.079	63.75
2971.39	73.75
2974.699	72.75
2978.005	71.75
2981.308	75.75
2984.609	65.75
2987.907	74.75
2991.202	82.75
2994.494	65.75
2997.784	81.75
3001.07	70.75
3004.355	72.75
3007.636	75.75
3010.915	78.75
3014.191	73.75
3017.464	79.75
3020.734	81.75
3024.002	76.75
3027.267	81.75
3030.53	81.75
3033.789	85.75
3037.046	77.75
3040.301	78.75
3043.552	90.75
3046.801	96.75
3050.048	102.75
3053.291	116.75
3056.532	104.75
3059.771	83.75
3063.006	105.75
3066.239	105.75
3069.469	111.75
3072.697	100.75
3075.922	106.75
3079.144	108.75
3082.364	129.75
3085.581	109.75
3088.795	129.75
3092.007	133.75
3095.216	145.75
3098.423	128.75
3101.627	107.75
3104.828	134.75
3108.026	124.75
3111.222	147.75
3114.416	160.75
3117.607	147.75
3120.795	153.75
3123.98	156.75
3127.163	171.75
3130.344	227.75
3133.521	160.75
3136.696	178.75
3139.869	174.75
3143.039	159.75
3146.206	195.75
3149.371	185.75
3152.533	182.75
3155.693	166.75
3158.85	186.75
3162.005	189.75
3165.157	192.75
3168.306	180.75
3171.453	194.75
3174.597	189.75
3177.739	181.75
3180.878	193.75
3184.014	193.75
3187.149	192.75
3190.28	189.75
3193.409	193.75
3196.536	192.75
3199.659	202.75
3202.781	208.75
3205.9	188.75
3209.016	198.75
3212.13	191.75
3215.241	186.75
3218.35	196.75
3221.456	182.75
3224.56	179.75
3227.661	182.75
3230.76	177.75
3233.856	177.75
3236.95	173.75
3240.041	170.75
3243.13	186.75
3246.216	175.75
3249.3	184.75
3252.382	172.75
3255.46	176.75
3258.537	122.75
3261.611	162.75
3264.682	169.75
3267.751	166.75
3270.818	159.75
3273.882	181.75
3276.943	163.75
3280.002	175.75
3283.059	156.75
3286.113	161.75
3289.165	156.75
3292.214	150.75
3295.261	166.75
3298.306	138.75
3301.348	158.75
3304.387	148.75
3307.425	152.75
3310.459	143.75
3313.492	154.75
3316.521	144.75
3319.549	147.75
3322.574	148.75
3325.597	146.75
3328.617	138.75
3331.635	137.75
3334.65	118.75
3337.663	140.75
3340.674	134.75
3343.682	138.75
3346.688	146.75
3349.691	124.75
3352.692	128.75
3355.691	141.75
3358.687	131.75
3361.681	135.75
3364.673	120.75
3367.662	136.75
3370.649	134.75
3373.633	121.75
3376.615	127.75
3379.595	108.75
3382.572	119.75
3385.547	103.75
3388.52	103.75
3391.49	110.75
3394.458	115.75
3397.424	116.75
3400.387	94.75
3403.348	104.75
3406.307	110.75
3409.263	103.75
3412.217	118.75
3415.168	107.75
3418.118	115.75
3421.065	100.75
3424.009	108.75
3426.951	93.75
3429.891	91.75
3432.829	95.75
3435.764	93.75
3438.697	81.75
3441.628	98.75
3444.557	74.75
3447.483	72.75
3450.407	85.75
3453.328	72.75
3456.247	73.75
3459.164	67.75
3462.079	80.75
3464.991	68.75
3467.902	67.75
3470.809	73.75
3473.715	70.75
3476.618	58.75
3479.519	56.75
3482.418	34.75
3485.315	47.75
3488.209	46.75
3491.101	42.75
3493.99	35.75
3496.878	38.75
3499.763	39.75
3502.646	42.75
3505.527	27.75
3508.405	21.75
3511.281	16.75
3514.155	30.75
3517.027	22.75
3519.897	16.75
3522.764	25.75
3525.629	1.75
3528.492	23.75
3531.352	19.75
3534.211	16.75
3537.067	7.75
3539.921	18.75
3542.773	19.75
3545.622	5.75
3548.469	-4.25
3551.315	0.75
3554.157	6.75
3556.998	-6.25
3559.837	-0.25
3562.673	3.75
3565.507	-8.25
3568.339	-8.25
3571.169	-6.25
3573.996	-4.25
3576.822	-23.25
3579.645	-16.25
3582.466	-10.25
3585.285	-3.25
3588.101	-11.25
3590.916	-13.25
3593.728	-6.25
3596.538	-10.25
3599.346	-10.25
3602.152	-24.25
3604.956	-5.25
3607.757	-5.25
3610.556	-26.25
3613.354	-5.25
3616.149	-14.25
3618.942	-12.25
3621.732	-16.25
3624.521	-17.25
3627.307	-25.25
3630.092	-24.25
3632.874	-6.25
3635.654	-17.25
3638.432	-21.25
3641.208	-29.25
3643.982	-25.25
3646.753	-12.25
3649.523	-46.25
3652.29	-25.25
3655.055	-19.25
3657.818	-21.25
3660.579	-31.25
3663.338	-32.25
3666.095	-28.25
3668.849	-51.25
3671.602	-17.25
3674.352	-34.25
3677.101	-19.25
3679.847	-18.25
3682.591	-35.25
3685.333	-37.25
3688.073	-29.25
3690.811	-42.25
3693.547	-42.25
3696.281	-37.25
3699.013	-27.25
3701.742	-34.25
3704.47	-42.25
3707.195	-26.25
3709.919	-25.25
3712.64	-34.25
3715.359	-45.25
3718.076	-19.25
3720.792	-26.25
3723.505	-34.25
3726.216	-21.25
3728.925	-31.25
3731.632	-33.25
3734.336	-29.25
3737.039	-31.25
3739.74	-32.25
3742.439	-56.25
3745.136	-25.25
3747.83	-28.25
3750.523	-26.25
3753.213	-88.25
3755.902	-35.25
3758.589	-47.25
3761.273	-38.25
3763.956	-26.25
3766.636	-43.25
3769.315	-27.25
3771.991	-35.25
3774.665	-37.25
3777.338	-34.25
3780.008	-45.25
3782.677	-38.25
3785.343	-58.25
3788.007	-50.25
3790.67	-27.25
3793.33	-46.25
3795.989	-39.25
3798.645	-32.25
3801.299	-44.25
3803.952	-43.25
3806.602	-38.25
3809.251	-28.25
3811.897	-36.25
3814.542	-39.25
3817.184	-38.25
3819.825	-33.25
3822.463	-45.25
3825.1	-38.25
3827.735	-36.25
3830.367	-44.25
3832.998	-25.25
3835.627	-37.25
3838.253	-27.25
3840.878	-31.25
3843.501	-21.25
3846.122	-33.25
3848.741	-28.25
3851.358	-29.25
3853.973	-44.25
3856.586	-24.25
3859.197	-39.25
3861.806	-35.25
3864.414	-44.25
3867.019	-37.25
3869.622	-29.25
3872.224	-23.25
3874.823	-18.25
3877.421	2.75
3880.016	8.75
3882.61	35.75
3885.202	43.75
3887.792	26.75
3890.38	6.75
3892.966	-22.25
3895.55	-36.25
3898.132	-26.25
3900.713	-26.25
3903.291	-31.25
3905.868	-43.25
3908.442	-33.25
3911.015	-36.25
3913.586	-36.25
3916.155	-36.25
3918.722	-40.25
3921.287	-39.25
3923.85	-49.25
3926.411	-42.25
3928.971	-38.25
3931.528	-31.25
3934.084	-39.25
3936.638	-44.25
3939.19	-29.25
3941.74	-34.25
3944.288	-43.25
3946.834	-39.25
3949.378	-20.25
3951.921	-47.25
3954.462	-38.25
3957	-35.25
3959.537	-31.25
3962.072	-39.25
3964.606	-51.25
3967.137	-39.25
3969.667	-43.25
3972.194	-29.25
3974.72	-43.25
3977.244	-62.25
3979.766	-42.25
3982.286	-41.25
3984.805	-30.25
3987.321	-22.25
3989.836	-28.25
3992.349	-40.25
3994.86	-33.25
3997.369	-40.25
3999.877	-42.25
4002.382	-35.25
4004.886	-28.25
4007.388	-35.25
4009.888	-28.25
4012.386	-31.25
4014.883	-33.25
4017.377	-36.25
4019.87	-34.25
4022.361	-40.25
4024.85	-32.25
4027.338	-34.25
4029.823	-38.25
4032.307	-40.25
4034.789	-35.25
4037.269	-37.25
4039.747	-46.25
4042.224	-23.25
4044.699	-40.25
4047.172	-35.25
4049.643	-28.25
4052.112	-58.25
4054.58	-31.25
4057.046	-45.25
4059.51	-34.25
4061.972	-39.25
4064.432	-50.25
4066.891	-21.25
4069.348	-29.25
4071.803	-29.25
4074.256	-37.25
4076.708	-33.25
4079.158	-32.25
4081.606	-23.25
4084.052	-36.25
4086.497	-33.25
4088.939	-37.25
4091.38	-32.25
4093.819	-25.25
4096.257	0.75
4098.693	-3.25
4101.127	-4.25
4103.559	0.75
4105.989	54.75
4108.418	63.75
4110.845	45.75
4113.27	57.75
4115.694	56.75
4118.115	48.75
4120.535	-31.25
4122.954	-34.25
4125.37	-23.25
4127.785	-29.25
4130.198	-23.25
4132.609	-33.25
4135.019	7.75
4137.427	-0.25
4139.833	2.75
4142.237	-4.25
