Data from 2018-3-6_conc=5_n=7_RamanShift_02.txt Node
Date: Tue Mar 06 14:41:48 GMT+02:00 2018
User: LAB3
Spectrometer: QEPB0276
Trigger mode: 0
Integration Time (sec): 3.000000E1
Scans to average: 1
Electric dark correction enabled: true
Nonlinearity correction enabled: false
Boxcar width: 0
XAxis mode: Raman Shifts
Number of Pixels in Spectrum: 1044
>>>>>Begin Spectral Data<<<<<
160.701	49.62
166.742	69.62
172.777	104.62
178.805	197.62
184.826	452.62
190.841	921.62
196.849	1452.62
202.85	1848.62
208.845	1951.62
214.833	1946.62
220.815	1876.62
226.789	1870.62
232.758	1880.62
238.719	1854.62
244.674	1828.62
250.623	1796.62
256.565	1753.62
262.5	1728.62
268.429	1716.62
274.351	1681.62
280.267	1686.62
286.176	1670.62
292.079	1679.62
297.975	1663.62
303.865	1655.62
309.748	1640.62
315.625	1640.62
321.495	1643.62
327.359	1616.62
333.217	1651.62
339.068	1617.62
344.912	1669.62
350.751	1643.62
356.583	1642.62
362.408	1666.62
368.227	1650.62
374.04	1671.62
379.847	1662.62
385.647	1674.62
391.44	1657.62
397.228	1687.62
403.009	1684.62
408.784	1684.62
414.553	1699.62
420.315	1708.62
426.071	1696.62
431.821	1722.62
437.565	1685.62
443.302	1683.62
449.033	1672.62
454.758	1694.62
460.477	1656.62
466.189	1650.62
471.896	1625.62
477.596	1605.62
483.29	1596.62
488.978	1598.62
494.66	1589.62
500.335	1536.62
506.005	1456.62
511.668	1417.62
517.325	1335.62
522.977	1278.62
528.622	1219.62
534.261	1207.62
539.894	1165.62
545.521	1157.62
551.141	1133.62
556.756	1122.62
562.365	1095.62
567.968	1132.62
573.565	1090.62
579.155	1087.62
584.74	1088.62
590.319	1098.62
595.892	1091.62
601.459	1088.62
607.02	1078.62
612.575	1076.62
618.124	1066.62
623.667	1038.62
629.204	1028.62
634.735	1008.62
640.261	1000.62
645.781	951.62
651.294	980.62
656.802	986.62
662.304	991.62
667.8	985.62
673.29	973.62
678.775	968.62
684.254	970.62
689.726	947.62
695.193	968.62
700.655	954.62
706.11	944.62
711.56	926.62
717.004	928.62
722.442	919.62
727.874	921.62
733.301	931.62
738.722	896.62
744.137	911.62
749.547	902.62
754.951	907.62
760.349	905.62
765.741	914.62
771.128	913.62
776.509	928.62
781.885	938.62
787.254	962.62
792.618	970.62
797.977	967.62
803.33	946.62
808.677	947.62
814.019	953.62
819.355	919.62
824.686	915.62
830.011	898.62
835.33	915.62
840.644	921.62
845.952	888.62
851.255	883.62
856.552	886.62
861.844	874.62
867.13	858.62
872.41	840.62
877.686	869.62
882.955	840.62
888.219	831.62
893.478	814.62
898.731	807.62
903.979	807.62
909.221	786.62
914.458	783.62
919.69	781.62
924.916	775.62
930.136	796.62
935.351	783.62
940.561	798.62
945.766	792.62
950.965	799.62
956.158	765.62
961.347	761.62
966.529	761.62
971.707	758.62
976.879	752.62
982.046	732.62
987.208	736.62
992.364	726.62
997.515	726.62
1002.66	738.62
1007.801	739.62
1012.936	745.62
1018.066	733.62
1023.19	762.62
1028.309	763.62
1033.423	758.62
1038.532	757.62
1043.636	751.62
1048.734	747.62
1053.827	727.62
1058.915	732.62
1063.998	727.62
1069.075	715.62
1074.147	725.62
1079.214	709.62
1084.276	734.62
1089.333	731.62
1094.385	737.62
1099.431	724.62
1104.472	718.62
1109.509	698.62
1114.54	697.62
1119.565	692.62
1124.586	681.62
1129.602	668.62
1134.613	646.62
1139.618	659.62
1144.619	662.62
1149.614	664.62
1154.604	666.62
1159.589	654.62
1164.57	677.62
1169.545	676.62
1174.515	678.62
1179.48	650.62
1184.44	663.62
1189.395	678.62
1194.345	646.62
1199.29	647.62
1204.23	645.62
1209.165	645.62
1214.095	660.62
1219.021	648.62
1223.941	627.62
1228.856	647.62
1233.766	659.62
1238.672	667.62
1243.572	662.62
1248.467	661.62
1253.358	640.62
1258.244	627.62
1263.124	636.62
1268	642.62
1272.871	595.62
1277.737	599.62
1282.599	595.62
1287.455	601.62
1292.306	600.62
1297.153	580.62
1301.995	604.62
1306.832	582.62
1311.664	597.62
1316.491	584.62
1321.314	602.62
1326.132	586.62
1330.945	586.62
1335.753	577.62
1340.556	571.62
1345.354	564.62
1350.148	547.62
1354.937	552.62
1359.722	522.62
1364.501	534.62
1369.276	547.62
1374.046	536.62
1378.811	526.62
1383.572	537.62
1388.327	537.62
1393.079	528.62
1397.825	529.62
1402.567	512.62
1407.304	504.62
1412.036	505.62
1416.764	508.62
1421.487	495.62
1426.205	492.62
1430.919	506.62
1435.628	509.62
1440.333	493.62
1445.032	514.62
1449.727	518.62
1454.418	518.62
1459.104	522.62
1463.785	497.62
1468.462	513.62
1473.134	503.62
1477.802	492.62
1482.465	471.62
1487.123	480.62
1491.777	451.62
1496.426	443.62
1501.071	468.62
1505.711	461.62
1510.347	467.62
1514.978	475.62
1519.604	471.62
1524.226	483.62
1528.844	462.62
1533.457	476.62
1538.065	472.62
1542.669	466.62
1547.269	469.62
1551.864	469.62
1556.454	448.62
1561.041	461.62
1565.622	462.62
1570.199	467.62
1574.772	469.62
1579.34	476.62
1583.904	487.62
1588.464	478.62
1593.019	486.62
1597.569	473.62
1602.115	460.62
1606.657	472.62
1611.195	478.62
1615.728	481.62
1620.256	455.62
1624.78	445.62
1629.3	456.62
1633.816	465.62
1638.327	458.62
1642.834	463.62
1647.336	460.62
1651.834	485.62
1656.328	467.62
1660.817	461.62
1665.302	450.62
1669.783	449.62
1674.259	430.62
1678.732	437.62
1683.199	430.62
1687.663	407.62
1692.122	399.62
1696.577	403.62
1701.028	399.62
1705.474	383.62
1709.917	375.62
1714.355	370.62
1718.788	358.62
1723.218	353.62
1727.643	340.62
1732.064	349.62
1736.481	333.62
1740.893	342.62
1745.301	334.62
1749.705	299.62
1754.105	325.62
1758.501	304.62
1762.893	319.62
1767.28	287.62
1771.663	290.62
1776.042	286.62
1780.417	288.62
1784.787	288.62
1789.154	296.62
1793.516	294.62
1797.874	294.62
1802.228	277.62
1806.578	279.62
1810.924	288.62
1815.266	172.62
1819.603	285.62
1823.937	276.62
1828.266	274.62
1832.591	272.62
1836.913	271.62
1841.23	260.62
1845.543	257.62
1849.852	271.62
1854.156	260.62
1858.457	264.62
1862.754	248.62
1867.047	266.62
1871.335	268.62
1875.62	278.62
1879.9	271.62
1884.177	251.62
1888.449	257.62
1892.718	262.62
1896.982	269.62
1901.243	240.62
1905.499	258.62
1909.752	240.62
1914	226.62
1918.245	249.62
1922.485	248.62
1926.722	248.62
1930.954	235.62
1935.183	249.62
1939.408	253.62
1943.628	255.62
1947.845	245.62
1952.058	244.62
1956.267	239.62
1960.472	244.62
1964.673	242.62
1968.87	231.62
1973.063	229.62
1977.252	226.62
1981.438	224.62
1985.619	222.62
1989.797	209.62
1993.971	222.62
1998.14	229.62
2002.306	218.62
2006.469	224.62
2010.627	213.62
2014.781	210.62
2018.932	218.62
2023.078	226.62
2027.221	224.62
2031.36	211.62
2035.495	211.62
2039.627	205.62
2043.754	216.62
2047.878	206.62
2051.998	199.62
2056.114	204.62
2060.226	205.62
2064.334	202.62
2068.439	211.62
2072.54	211.62
2076.637	186.62
2080.73	197.62
2084.82	200.62
2088.906	190.62
2092.988	180.62
2097.066	195.62
2101.14	202.62
2105.211	198.62
2109.278	180.62
2113.342	187.62
2117.401	173.62
2121.457	178.62
2125.509	178.62
2129.558	191.62
2133.602	181.62
2137.643	179.62
2141.681	174.62
2145.714	182.62
2149.744	176.62
2153.77	177.62
2157.793	165.62
2161.812	142.62
2165.827	147.62
2169.838	172.62
2173.846	156.62
2177.851	156.62
2181.851	164.62
2185.848	152.62
2189.841	155.62
2193.831	155.62
2197.817	162.62
2201.799	154.62
2205.778	138.62
2209.753	137.62
2213.725	135.62
2217.693	153.62
2221.657	136.62
2225.618	150.62
2229.575	146.62
2233.529	143.62
2237.479	150.62
2241.425	142.62
2245.368	132.62
2249.307	138.62
2253.243	127.62
2257.175	141.62
2261.104	127.62
2265.029	130.62
2268.95	128.62
2272.868	125.62
2276.783	122.62
2280.694	129.62
2284.601	127.62
2288.505	119.62
2292.405	117.62
2296.302	106.62
2300.195	118.62
2304.085	88.62
2307.971	114.62
2311.854	90.62
2315.734	104.62
2319.609	116.62
2323.482	85.62
2327.351	97.62
2331.216	98.62
2335.078	101.62
2338.937	104.62
2342.792	92.62
2346.643	90.62
2350.492	101.62
2354.336	96.62
2358.178	105.62
2362.015	97.62
2365.85	99.62
2369.681	95.62
2373.508	99.62
2377.333	106.62
2381.153	102.62
2384.971	93.62
2388.785	91.62
2392.595	81.62
2396.402	91.62
2400.206	65.62
2404.007	82.62
2407.804	77.62
2411.597	88.62
2415.388	85.62
2419.174	82.62
2422.958	85.62
2426.738	85.62
2430.515	92.62
2434.289	78.62
2438.059	74.62
2441.825	82.62
2445.589	84.62
2449.349	73.62
2453.106	84.62
2456.859	81.62
2460.61	79.62
2464.356	70.62
2468.1	65.62
2471.84	71.62
2475.577	72.62
2479.311	63.62
2483.041	74.62
2486.768	82.62
2490.492	86.62
2494.213	77.62
2497.93	60.62
2501.644	58.62
2505.355	67.62
2509.062	69.62
2512.766	69.62
2516.467	55.62
2520.165	61.62
2523.859	50.62
2527.551	82.62
2531.239	59.62
2534.923	68.62
2538.605	58.62
2542.283	62.62
2545.958	63.62
2549.63	77.62
2553.299	70.62
2556.964	54.62
2560.626	57.62
2564.285	60.62
2567.941	48.62
2571.594	49.62
2575.243	56.62
2578.89	54.62
2582.533	51.62
2586.173	51.62
2589.809	53.62
2593.443	35.62
2597.073	48.62
2600.701	57.62
2604.325	49.62
2607.946	40.62
2611.564	65.62
2615.178	54.62
2618.79	53.62
2622.398	47.62
2626.004	52.62
2629.606	55.62
2633.205	38.62
2636.801	51.62
2640.394	44.62
2643.983	35.62
2647.57	40.62
2651.153	43.62
2654.734	44.62
2658.311	25.62
2661.885	36.62
2665.456	41.62
2669.025	32.62
2672.589	33.62
2676.151	46.62
2679.71	43.62
2683.266	40.62
2686.819	33.62
2690.368	43.62
2693.915	41.62
2697.458	35.62
2700.999	42.62
2704.536	40.62
2708.071	31.62
2711.602	37.62
2715.13	30.62
2718.656	15.62
2722.178	36.62
2725.697	15.62
2729.214	25.62
2732.727	30.62
2736.237	12.62
2739.744	20.62
2743.249	20.62
2746.75	29.62
2750.248	17.62
2753.743	27.62
2757.236	34.62
2760.725	31.62
2764.211	0.62
2767.695	33.62
2771.175	27.62
2774.652	29.62
2778.127	27.62
2781.598	26.62
2785.067	30.62
2788.532	20.62
2791.995	30.62
2795.455	14.62
2798.911	31.62
2802.365	25.62
2805.816	28.62
2809.264	35.62
2812.709	20.62
2816.151	32.62
2819.59	21.62
2823.026	25.62
2826.46	18.62
2829.89	36.62
2833.318	2.62
2836.742	21.62
2840.164	26.62
2843.583	20.62
2846.999	23.62
2850.412	32.62
2853.822	18.62
2857.229	34.62
2860.634	27.62
2864.035	12.62
2867.434	35.62
2870.83	31.62
2874.223	28.62
2877.613	26.62
2881	24.62
2884.385	32.62
2887.766	22.62
2891.145	30.62
2894.521	26.62
2897.894	21.62
2901.264	33.62
2904.631	33.62
2907.996	31.62
2911.358	40.62
2914.717	30.62
2918.073	26.62
2921.426	26.62
2924.777	12.62
2928.124	22.62
2931.469	40.62
2934.811	25.62
2938.15	49.62
2941.487	34.62
2944.821	51.62
2948.152	34.62
2951.48	46.62
2954.805	24.62
2958.128	51.62
2961.447	23.62
2964.765	51.62
2968.079	39.62
2971.39	41.62
2974.699	46.62
2978.005	43.62
2981.308	35.62
2984.609	29.62
2987.907	45.62
2991.202	53.62
2994.494	36.62
2997.784	50.62
3001.07	46.62
3004.355	44.62
3007.636	47.62
3010.915	45.62
3014.191	42.62
3017.464	54.62
3020.734	49.62
3024.002	49.62
3027.267	53.62
3030.53	52.62
3033.789	47.62
3037.046	52.62
3040.301	48.62
3043.552	62.62
3046.801	60.62
3050.048	69.62
3053.291	82.62
3056.532	73.62
3059.771	53.62
3063.006	73.62
3066.239	66.62
3069.469	83.62
3072.697	68.62
3075.922	73.62
3079.144	76.62
3082.364	94.62
3085.581	79.62
3088.795	94.62
3092.007	95.62
3095.216	95.62
3098.423	91.62
3101.627	74.62
3104.828	94.62
3108.026	90.62
3111.222	111.62
3114.416	115.62
3117.607	108.62
3120.795	106.62
3123.98	116.62
3127.163	107.62
3130.344	114.62
3133.521	107.62
3136.696	128.62
3139.869	123.62
3143.039	110.62
3146.206	140.62
3149.371	134.62
3152.533	125.62
3155.693	120.62
3158.85	136.62
3162.005	142.62
3165.157	138.62
3168.306	138.62
3171.453	140.62
3174.597	123.62
3177.739	121.62
3180.878	141.62
3184.014	136.62
3187.149	139.62
3190.28	136.62
3193.409	148.62
3196.536	144.62
3199.659	151.62
3202.781	155.62
3205.9	126.62
3209.016	148.62
3212.13	136.62
3215.241	145.62
3218.35	139.62
3221.456	132.62
3224.56	126.62
3227.661	134.62
3230.76	132.62
3233.856	128.62
3236.95	134.62
3240.041	122.62
3243.13	136.62
3246.216	132.62
3249.3	138.62
3252.382	127.62
3255.46	119.62
3258.537	82.62
3261.611	118.62
3264.682	125.62
3267.751	120.62
3270.818	114.62
3273.882	127.62
3276.943	125.62
3280.002	129.62
3283.059	117.62
3286.113	124.62
3289.165	108.62
3292.214	101.62
3295.261	124.62
3298.306	98.62
3301.348	125.62
3304.387	108.62
3307.425	114.62
3310.459	105.62
3313.492	112.62
3316.521	105.62
3319.549	111.62
3322.574	111.62
3325.597	103.62
3328.617	96.62
3331.635	100.62
3334.65	80.62
3337.663	104.62
3340.674	101.62
3343.682	99.62
3346.688	106.62
3349.691	96.62
3352.692	89.62
3355.691	105.62
3358.687	96.62
3361.681	102.62
3364.673	92.62
3367.662	95.62
3370.649	99.62
3373.633	80.62
3376.615	99.62
3379.595	75.62
3382.572	81.62
3385.547	75.62
3388.52	68.62
3391.49	75.62
3394.458	77.62
3397.424	80.62
3400.387	71.62
3403.348	76.62
3406.307	76.62
3409.263	68.62
3412.217	82.62
3415.168	77.62
3418.118	85.62
3421.065	70.62
3424.009	76.62
3426.951	68.62
3429.891	65.62
3432.829	72.62
3435.764	67.62
3438.697	62.62
3441.628	72.62
3444.557	45.62
3447.483	52.62
3450.407	60.62
3453.328	51.62
3456.247	53.62
3459.164	39.62
3462.079	56.62
3464.991	51.62
3467.902	46.62
3470.809	48.62
3473.715	51.62
3476.618	37.62
3479.519	43.62
3482.418	16.62
3485.315	23.62
3488.209	29.62
3491.101	26.62
3493.99	13.62
3496.878	20.62
3499.763	21.62
3502.646	25.62
3505.527	15.62
3508.405	14.62
3511.281	8.62
3514.155	18.62
3517.027	12.62
3519.897	-0.38
3522.764	13.62
3525.629	-13.38
3528.492	7.62
3531.352	10.62
3534.211	4.62
3537.067	5.62
3539.921	-2.38
3542.773	1.62
3545.622	-2.38
3548.469	-7.38
3551.315	-8.38
3554.157	-6.38
3556.998	-11.38
3559.837	-9.38
3562.673	-7.38
3565.507	-9.38
3568.339	-16.38
3571.169	-19.38
3573.996	-13.38
3576.822	-28.38
3579.645	-19.38
3582.466	-17.38
3585.285	-15.38
3588.101	-17.38
3590.916	-15.38
3593.728	-13.38
3596.538	-20.38
3599.346	-13.38
3602.152	-22.38
3604.956	-17.38
3607.757	-15.38
3610.556	-31.38
3613.354	-12.38
3616.149	-19.38
3618.942	-14.38
3621.732	-15.38
3624.521	-22.38
3627.307	-32.38
3630.092	-32.38
3632.874	-10.38
3635.654	-19.38
3638.432	-28.38
3641.208	-26.38
3643.982	-26.38
3646.753	-17.38
3649.523	-48.38
3652.29	-31.38
3655.055	-19.38
3657.818	-26.38
3660.579	-27.38
3663.338	-35.38
3666.095	-28.38
3668.849	-50.38
3671.602	-22.38
3674.352	-40.38
3677.101	-21.38
3679.847	-20.38
3682.591	-35.38
3685.333	-42.38
3688.073	-25.38
3690.811	-35.38
3693.547	-47.38
3696.281	-43.38
3699.013	-29.38
3701.742	-36.38
3704.47	-36.38
3707.195	-27.38
3709.919	-31.38
3712.64	-30.38
3715.359	-46.38
3718.076	-22.38
3720.792	-38.38
3723.505	-30.38
3726.216	-23.38
3728.925	-36.38
3731.632	-42.38
3734.336	-34.38
3737.039	-30.38
3739.74	-32.38
3742.439	-55.38
3745.136	-29.38
3747.83	-27.38
3750.523	-26.38
3753.213	-86.38
3755.902	-32.38
3758.589	-46.38
3761.273	-34.38
3763.956	-19.38
3766.636	-42.38
3769.315	-19.38
3771.991	-34.38
3774.665	-39.38
3777.338	-29.38
3780.008	-37.38
3782.677	-37.38
3785.343	-52.38
3788.007	-49.38
3790.67	-24.38
3793.33	-44.38
3795.989	-35.38
3798.645	-28.38
3801.299	-43.38
3803.952	-38.38
3806.602	-36.38
3809.251	-25.38
3811.897	-32.38
3814.542	-33.38
3817.184	-35.38
3819.825	-35.38
3822.463	-45.38
3825.1	-36.38
3827.735	-30.38
3830.367	-44.38
3832.998	-20.38
3835.627	-32.38
3838.253	-25.38
3840.878	-34.38
3843.501	-18.38
3846.122	-29.38
3848.741	-28.38
3851.358	-30.38
3853.973	-41.38
3856.586	-28.38
3859.197	-42.38
3861.806	-28.38
3864.414	-42.38
3867.019	-36.38
3869.622	-22.38
3872.224	-21.38
3874.823	-16.38
3877.421	5.62
3880.016	25.62
3882.61	52.62
3885.202	58.62
3887.792	46.62
3890.38	16.62
3892.966	-16.38
3895.55	-37.38
3898.132	-25.38
3900.713	-23.38
3903.291	-29.38
3905.868	-37.38
3908.442	-34.38
3911.015	-36.38
3913.586	-38.38
3916.155	-32.38
3918.722	-40.38
3921.287	-40.38
3923.85	-47.38
3926.411	-43.38
3928.971	-41.38
3931.528	-30.38
3934.084	-39.38
3936.638	-45.38
3939.19	-35.38
3941.74	-29.38
3944.288	-37.38
3946.834	-36.38
3949.378	-28.38
3951.921	-39.38
3954.462	-35.38
3957	-33.38
3959.537	-25.38
3962.072	-35.38
3964.606	-50.38
3967.137	-34.38
3969.667	-41.38
3972.194	-29.38
3974.72	-37.38
3977.244	-54.38
3979.766	-37.38
3982.286	-41.38
3984.805	-30.38
3987.321	-24.38
3989.836	-32.38
3992.349	-36.38
3994.86	-34.38
3997.369	-41.38
3999.877	-36.38
4002.382	-32.38
4004.886	-29.38
4007.388	-32.38
4009.888	-22.38
4012.386	-26.38
4014.883	-28.38
4017.377	-28.38
4019.87	-28.38
4022.361	-36.38
4024.85	-34.38
4027.338	-29.38
4029.823	-33.38
4032.307	-34.38
4034.789	-33.38
4037.269	-30.38
4039.747	-50.38
4042.224	-22.38
4044.699	-40.38
4047.172	-34.38
4049.643	-27.38
4052.112	-56.38
4054.58	-29.38
4057.046	-45.38
4059.51	-32.38
4061.972	-33.38
4064.432	-51.38
4066.891	-26.38
4069.348	-34.38
4071.803	-31.38
4074.256	-35.38
4076.708	-26.38
4079.158	-33.38
4081.606	-24.38
4084.052	-35.38
4086.497	-28.38
4088.939	-35.38
4091.38	-38.38
4093.819	-30.38
4096.257	3.62
4098.693	-5.38
4101.127	-7.38
4103.559	3.62
4105.989	63.62
4108.418	64.62
4110.845	54.62
4113.27	50.62
4115.694	61.62
4118.115	43.62
4120.535	-32.38
4122.954	-26.38
4125.37	-22.38
4127.785	-29.38
4130.198	-24.38
4132.609	-29.38
4135.019	7.62
4137.427	-3.38
4139.833	5.62
4142.237	-4.38
