Data from 2018-3-6_conc=0_n=10_RamanShift_03.txt Node
Date: Tue Mar 06 12:38:49 GMT+02:00 2018
User: LAB3
Spectrometer: QEPB0276
Trigger mode: 0
Integration Time (sec): 3.000000E1
Scans to average: 1
Electric dark correction enabled: true
Nonlinearity correction enabled: false
Boxcar width: 0
XAxis mode: Raman Shifts
Number of Pixels in Spectrum: 1044
>>>>>Begin Spectral Data<<<<<
160.701	171.5
166.742	218.5
172.777	322.5
178.805	661.5
184.826	1513.5
190.841	3037.5
196.849	4802.5
202.85	6197.5
208.845	6714.5
214.833	6719.5
220.815	6624.5
226.789	6652.5
232.758	6725.5
238.719	6739.5
244.674	6737.5
250.623	6714.5
256.565	6648.5
262.5	6619.5
268.429	6576.5
274.351	6544.5
280.267	6568.5
286.176	6582.5
292.079	6596.5
297.975	6608.5
303.865	6618.5
309.748	6646.5
315.625	6672.5
321.495	6666.5
327.359	6704.5
333.217	6738.5
339.068	6779.5
344.912	6786.5
350.751	6804.5
356.583	6847.5
362.408	6861.5
368.227	6890.5
374.04	6962.5
379.847	6973.5
385.647	7047.5
391.44	7032.5
397.228	7077.5
403.009	7144.5
408.784	7170.5
414.553	7181.5
420.315	7196.5
426.071	7207.5
431.821	7244.5
437.565	7224.5
443.302	7231.5
449.033	7182.5
454.758	7135.5
460.477	7072.5
466.189	7040.5
471.896	6922.5
477.596	6916.5
483.29	6851.5
488.978	6818.5
494.66	6766.5
500.335	6593.5
506.005	6303.5
511.668	5988.5
517.325	5656.5
522.977	5410.5
528.622	5238.5
534.261	5105.5
539.894	5004.5
545.521	4938.5
551.141	4868.5
556.756	4772.5
562.365	4735.5
567.968	4729.5
573.565	4659.5
579.155	4643.5
584.74	4610.5
590.319	4605.5
595.892	4625.5
601.459	4630.5
607.02	4607.5
612.575	4573.5
618.124	4498.5
623.667	4424.5
629.204	4356.5
634.735	4315.5
640.261	4275.5
645.781	4209.5
651.294	4181.5
656.802	4196.5
662.304	4195.5
667.8	4176.5
673.29	4144.5
678.775	4132.5
684.254	4132.5
689.726	4098.5
695.193	4076.5
700.655	4056.5
706.11	4044.5
711.56	4005.5
717.004	4007.5
722.442	3951.5
727.874	3932.5
733.301	3959.5
738.722	3914.5
744.137	3917.5
749.547	3920.5
754.951	3939.5
760.349	3910.5
765.741	3936.5
771.128	3978.5
776.509	4040.5
781.885	4098.5
787.254	4136.5
792.618	4152.5
797.977	4134.5
803.33	4134.5
808.677	4074.5
814.019	4072.5
819.355	4029.5
824.686	3966.5
830.011	3940.5
835.33	3931.5
840.644	3936.5
845.952	3852.5
851.255	3829.5
856.552	3813.5
861.844	3776.5
867.13	3746.5
872.41	3789.5
877.686	3779.5
882.955	3784.5
888.219	3738.5
893.478	3658.5
898.731	3567.5
903.979	3489.5
909.221	3435.5
914.458	3424.5
919.69	3403.5
924.916	3406.5
930.136	3376.5
935.351	3412.5
940.561	3425.5
945.766	3395.5
950.965	3393.5
956.158	3359.5
961.347	3306.5
966.529	3293.5
971.707	3244.5
976.879	3225.5
982.046	3182.5
987.208	3125.5
992.364	3168.5
997.515	3152.5
1002.66	3210.5
1007.801	3215.5
1012.936	3256.5
1018.066	3252.5
1023.19	3288.5
1028.309	3302.5
1033.423	3315.5
1038.532	3335.5
1043.636	3304.5
1048.734	3305.5
1053.827	3246.5
1058.915	3207.5
1063.998	3194.5
1069.075	3178.5
1074.147	3188.5
1079.214	3161.5
1084.276	3214.5
1089.333	3201.5
1094.385	3233.5
1099.431	3204.5
1104.472	3176.5
1109.509	3126.5
1114.54	3046.5
1119.565	3027.5
1124.586	3003.5
1129.602	2949.5
1134.613	2940.5
1139.618	2914.5
1144.619	2901.5
1149.614	2913.5
1154.604	2914.5
1159.589	2916.5
1164.57	2932.5
1169.545	2951.5
1174.515	2915.5
1179.48	2911.5
1184.44	2917.5
1189.395	2911.5
1194.345	2874.5
1199.29	2817.5
1204.23	2862.5
1209.165	2826.5
1214.095	2833.5
1219.021	2857.5
1223.941	2877.5
1228.856	2868.5
1233.766	2882.5
1238.672	2898.5
1243.572	2897.5
1248.467	2868.5
1253.358	2832.5
1258.244	2778.5
1263.124	2750.5
1268	2714.5
1272.871	2646.5
1277.737	2653.5
1282.599	2640.5
1287.455	2610.5
1292.306	2632.5
1297.153	2628.5
1301.995	2635.5
1306.832	2654.5
1311.664	2662.5
1316.491	2668.5
1321.314	2666.5
1326.132	2624.5
1330.945	2584.5
1335.753	2568.5
1340.556	2507.5
1345.354	2443.5
1350.148	2434.5
1354.937	2430.5
1359.722	2379.5
1364.501	2371.5
1369.276	2380.5
1374.046	2382.5
1378.811	2341.5
1383.572	2360.5
1388.327	2351.5
1393.079	2333.5
1397.825	2285.5
1402.567	2302.5
1407.304	2273.5
1412.036	2268.5
1416.764	2272.5
1421.487	2239.5
1426.205	2242.5
1430.919	2277.5
1435.628	2267.5
1440.333	2287.5
1445.032	2320.5
1449.727	2342.5
1454.418	2395.5
1459.104	2397.5
1463.785	2363.5
1468.462	2322.5
1473.134	2256.5
1477.802	2237.5
1482.465	2177.5
1487.123	2194.5
1491.777	2140.5
1496.426	2128.5
1501.071	2160.5
1505.711	2162.5
1510.347	2183.5
1514.978	2170.5
1519.604	2181.5
1524.226	2208.5
1528.844	2159.5
1533.457	2151.5
1538.065	2136.5
1542.669	2112.5
1547.269	2084.5
1551.864	2077.5
1556.454	2060.5
1561.041	2046.5
1565.622	2055.5
1570.199	2058.5
1574.772	2062.5
1579.34	2097.5
1583.904	2111.5
1588.464	2125.5
1593.019	2115.5
1597.569	2108.5
1602.115	2111.5
1606.657	2110.5
1611.195	2096.5
1615.728	2088.5
1620.256	2074.5
1624.78	2064.5
1629.3	2082.5
1633.816	2095.5
1638.327	2106.5
1642.834	2134.5
1647.336	2148.5
1651.834	2147.5
1656.328	2147.5
1660.817	2136.5
1665.302	2126.5
1669.783	2119.5
1674.259	2098.5
1678.732	2041.5
1683.199	2008.5
1687.663	1940.5
1692.122	1919.5
1696.577	1873.5
1701.028	1848.5
1705.474	1812.5
1709.917	1788.5
1714.355	1752.5
1718.788	1737.5
1723.218	1698.5
1727.643	1687.5
1732.064	1681.5
1736.481	1633.5
1740.893	1632.5
1745.301	1587.5
1749.705	1515.5
1754.105	1532.5
1758.501	1491.5
1762.893	1464.5
1767.28	1425.5
1771.663	1424.5
1776.042	1405.5
1780.417	1400.5
1784.787	1410.5
1789.154	1421.5
1793.516	1431.5
1797.874	1410.5
1802.228	1419.5
1806.578	1390.5
1810.924	1411.5
1815.266	1308.5
1819.603	1363.5
1823.937	1345.5
1828.266	1330.5
1832.591	1312.5
1836.913	1290.5
1841.23	1287.5
1845.543	1281.5
1849.852	1291.5
1854.156	1287.5
1858.457	1299.5
1862.754	1298.5
1867.047	1283.5
1871.335	1319.5
1875.62	1315.5
1879.9	1301.5
1884.177	1288.5
1888.449	1290.5
1892.718	1280.5
1896.982	1298.5
1901.243	1260.5
1905.499	1269.5
1909.752	1246.5
1914	1262.5
1918.245	1289.5
1922.485	1296.5
1926.722	1277.5
1930.954	1283.5
1935.183	1299.5
1939.408	1315.5
1943.628	1290.5
1947.845	1289.5
1952.058	1273.5
1956.267	1247.5
1960.472	1235.5
1964.673	1196.5
1968.87	1180.5
1973.063	1159.5
1977.252	1127.5
1981.438	1127.5
1985.619	1112.5
1989.797	1095.5
1993.971	1089.5
1998.14	1103.5
2002.306	1095.5
2006.469	1103.5
2010.627	1080.5
2014.781	1086.5
2018.932	1049.5
2023.078	1076.5
2027.221	1051.5
2031.36	1038.5
2035.495	1025.5
2039.627	1030.5
2043.754	1017.5
2047.878	1010.5
2051.998	1006.5
2056.114	1011.5
2060.226	1000.5
2064.334	1029.5
2068.439	1014.5
2072.54	1032.5
2076.637	1011.5
2080.73	1025.5
2084.82	1032.5
2088.906	1029.5
2092.988	1026.5
2097.066	1022.5
2101.14	1039.5
2105.211	1001.5
2109.278	990.5
2113.342	971.5
2117.401	947.5
2121.457	943.5
2125.509	928.5
2129.558	919.5
2133.602	925.5
2137.643	917.5
2141.681	900.5
2145.714	908.5
2149.744	894.5
2153.77	892.5
2157.793	866.5
2161.812	850.5
2165.827	833.5
2169.838	856.5
2173.846	828.5
2177.851	803.5
2181.851	815.5
2185.848	791.5
2189.841	799.5
2193.831	781.5
2197.817	790.5
2201.799	769.5
2205.778	747.5
2209.753	753.5
2213.725	743.5
2217.693	753.5
2221.657	733.5
2225.618	752.5
2229.575	730.5
2233.529	736.5
2237.479	729.5
2241.425	715.5
2245.368	695.5
2249.307	695.5
2253.243	676.5
2257.175	670.5
2261.104	649.5
2265.029	655.5
2268.95	651.5
2272.868	638.5
2276.783	633.5
2280.694	619.5
2284.601	626.5
2288.505	610.5
2292.405	608.5
2296.302	579.5
2300.195	583.5
2304.085	556.5
2307.971	572.5
2311.854	534.5
2315.734	551.5
2319.609	551.5
2323.482	519.5
2327.351	519.5
2331.216	504.5
2335.078	528.5
2338.937	516.5
2342.792	517.5
2346.643	504.5
2350.492	514.5
2354.336	509.5
2358.178	516.5
2362.015	526.5
2365.85	488.5
2369.681	513.5
2373.508	509.5
2377.333	519.5
2381.153	515.5
2384.971	500.5
2388.785	504.5
2392.595	490.5
2396.402	479.5
2400.206	467.5
2404.007	484.5
2407.804	487.5
2411.597	488.5
2415.388	479.5
2419.174	485.5
2422.958	465.5
2426.738	467.5
2430.515	472.5
2434.289	469.5
2438.059	458.5
2441.825	452.5
2445.589	472.5
2449.349	445.5
2453.106	445.5
2456.859	444.5
2460.61	445.5
2464.356	428.5
2468.1	419.5
2471.84	428.5
2475.577	417.5
2479.311	417.5
2483.041	419.5
2486.768	431.5
2490.492	429.5
2494.213	418.5
2497.93	422.5
2501.644	401.5
2505.355	423.5
2509.062	421.5
2512.766	407.5
2516.467	407.5
2520.165	408.5
2523.859	389.5
2527.551	427.5
2531.239	395.5
2534.923	406.5
2538.605	406.5
2542.283	407.5
2545.958	394.5
2549.63	412.5
2553.299	405.5
2556.964	389.5
2560.626	394.5
2564.285	390.5
2567.941	375.5
2571.594	367.5
2575.243	388.5
2578.89	359.5
2582.533	379.5
2586.173	369.5
2589.809	375.5
2593.443	341.5
2597.073	355.5
2600.701	355.5
2604.325	352.5
2607.946	345.5
2611.564	358.5
2615.178	350.5
2618.79	341.5
2622.398	328.5
2626.004	328.5
2629.606	342.5
2633.205	323.5
2636.801	331.5
2640.394	313.5
2643.983	324.5
2647.57	315.5
2651.153	296.5
2654.734	316.5
2658.311	277.5
2661.885	295.5
2665.456	292.5
2669.025	291.5
2672.589	293.5
2676.151	303.5
2679.71	299.5
2683.266	289.5
2686.819	281.5
2690.368	292.5
2693.915	279.5
2697.458	278.5
2700.999	278.5
2704.536	275.5
2708.071	268.5
2711.602	270.5
2715.13	266.5
2718.656	255.5
2722.178	266.5
2725.697	255.5
2729.214	260.5
2732.727	268.5
2736.237	244.5
2739.744	263.5
2743.249	261.5
2746.75	265.5
2750.248	251.5
2753.743	264.5
2757.236	254.5
2760.725	274.5
2764.211	228.5
2767.695	257.5
2771.175	253.5
2774.652	258.5
2778.127	251.5
2781.598	254.5
2785.067	244.5
2788.532	240.5
2791.995	247.5
2795.455	253.5
2798.911	259.5
2802.365	250.5
2805.816	249.5
2809.264	264.5
2812.709	256.5
2816.151	255.5
2819.59	234.5
2823.026	248.5
2826.46	246.5
2829.89	271.5
2833.318	234.5
2836.742	252.5
2840.164	264.5
2843.583	262.5
2846.999	272.5
2850.412	278.5
2853.822	271.5
2857.229	291.5
2860.634	286.5
2864.035	272.5
2867.434	300.5
2870.83	306.5
2874.223	307.5
2877.613	315.5
2881	302.5
2884.385	321.5
2887.766	322.5
2891.145	318.5
2894.521	316.5
2897.894	305.5
2901.264	327.5
2904.631	317.5
2907.996	323.5
2911.358	335.5
2914.717	324.5
2918.073	322.5
2921.426	325.5
2924.777	320.5
2928.124	335.5
2931.469	356.5
2934.811	362.5
2938.15	389.5
2941.487	381.5
2944.821	399.5
2948.152	372.5
2951.48	367.5
2954.805	355.5
2958.128	374.5
2961.447	344.5
2964.765	361.5
2968.079	356.5
2971.39	356.5
2974.699	353.5
2978.005	360.5
2981.308	374.5
2984.609	360.5
2987.907	379.5
2991.202	380.5
2994.494	368.5
2997.784	375.5
3001.07	370.5
3004.355	374.5
3007.636	370.5
3010.915	370.5
3014.191	364.5
3017.464	369.5
3020.734	370.5
3024.002	364.5
3027.267	364.5
3030.53	372.5
3033.789	375.5
3037.046	374.5
3040.301	378.5
3043.552	384.5
3046.801	396.5
3050.048	410.5
3053.291	429.5
3056.532	422.5
3059.771	422.5
3063.006	440.5
3066.239	455.5
3069.469	469.5
3072.697	460.5
3075.922	482.5
3079.144	486.5
3082.364	519.5
3085.581	505.5
3088.795	544.5
3092.007	538.5
3095.216	551.5
3098.423	542.5
3101.627	531.5
3104.828	572.5
3108.026	579.5
3111.222	609.5
3114.416	628.5
3117.607	630.5
3120.795	632.5
3123.98	640.5
3127.163	649.5
3130.344	670.5
3133.521	662.5
3136.696	711.5
3139.869	710.5
3143.039	713.5
3146.206	758.5
3149.371	742.5
3152.533	749.5
3155.693	746.5
3158.85	773.5
3162.005	761.5
3165.157	761.5
3168.306	766.5
3171.453	768.5
3174.597	758.5
3177.739	757.5
3180.878	776.5
3184.014	768.5
3187.149	773.5
3190.28	777.5
3193.409	784.5
3196.536	788.5
3199.659	783.5
3202.781	796.5
3205.9	789.5
3209.016	795.5
3212.13	784.5
3215.241	778.5
3218.35	779.5
3221.456	758.5
3224.56	755.5
3227.661	763.5
3230.76	750.5
3233.856	734.5
3236.95	756.5
3240.041	720.5
3243.13	748.5
3246.216	728.5
3249.3	736.5
3252.382	720.5
3255.46	732.5
3258.537	681.5
3261.611	716.5
3264.682	711.5
3267.751	715.5
3270.818	709.5
3273.882	721.5
3276.943	708.5
3280.002	717.5
3283.059	679.5
3286.113	679.5
3289.165	660.5
3292.214	649.5
3295.261	666.5
3298.306	639.5
3301.348	640.5
3304.387	627.5
3307.425	622.5
3310.459	614.5
3313.492	612.5
3316.521	612.5
3319.549	602.5
3322.574	594.5
3325.597	598.5
3328.617	584.5
3331.635	588.5
3334.65	566.5
3337.663	589.5
3340.674	573.5
3343.682	580.5
3346.688	566.5
3349.691	560.5
3352.692	574.5
3355.691	570.5
3358.687	562.5
3361.681	565.5
3364.673	543.5
3367.662	562.5
3370.649	549.5
3373.633	536.5
3376.615	543.5
3379.595	516.5
3382.572	519.5
3385.547	496.5
3388.52	481.5
3391.49	493.5
3394.458	492.5
3397.424	498.5
3400.387	477.5
3403.348	477.5
3406.307	479.5
3409.263	472.5
3412.217	474.5
3415.168	472.5
3418.118	473.5
3421.065	458.5
3424.009	466.5
3426.951	448.5
3429.891	437.5
3432.829	430.5
3435.764	445.5
3438.697	416.5
3441.628	423.5
3444.557	392.5
3447.483	382.5
3450.407	401.5
3453.328	378.5
3456.247	361.5
3459.164	348.5
3462.079	357.5
3464.991	343.5
3467.902	335.5
3470.809	331.5
3473.715	327.5
3476.618	310.5
3479.519	308.5
3482.418	275.5
3485.315	281.5
3488.209	281.5
3491.101	273.5
3493.99	253.5
3496.878	254.5
3499.763	263.5
3502.646	247.5
3505.527	237.5
3508.405	232.5
3511.281	214.5
3514.155	220.5
3517.027	204.5
3519.897	191.5
3522.764	198.5
3525.629	176.5
3528.492	175.5
3531.352	169.5
3534.211	161.5
3537.067	157.5
3539.921	154.5
3542.773	154.5
3545.622	139.5
3548.469	126.5
3551.315	116.5
3554.157	122.5
3556.998	112.5
3559.837	110.5
3562.673	118.5
3565.507	94.5
3568.339	90.5
3571.169	89.5
3573.996	90.5
3576.822	71.5
3579.645	79.5
3582.466	73.5
3585.285	82.5
3588.101	73.5
3590.916	67.5
3593.728	75.5
3596.538	60.5
3599.346	58.5
3602.152	57.5
3604.956	52.5
3607.757	56.5
3610.556	34.5
3613.354	55.5
3616.149	48.5
3618.942	45.5
3621.732	47.5
3624.521	32.5
3627.307	18.5
3630.092	28.5
3632.874	42.5
3635.654	26.5
3638.432	27.5
3641.208	20.5
3643.982	18.5
3646.753	33.5
3649.523	-9.5
3652.29	9.5
3655.055	20.5
3657.818	16.5
3660.579	12.5
3663.338	-1.5
3666.095	10.5
3668.849	-18.5
3671.602	4.5
3674.352	-10.5
3677.101	12.5
3679.847	10.5
3682.591	-9.5
3685.333	-14.5
3688.073	0.5
3690.811	-11.5
3693.547	-18.5
3696.281	-19.5
3699.013	-1.5
3701.742	-12.5
3704.47	-20.5
3707.195	-8.5
3709.919	-7.5
3712.64	-14.5
3715.359	-18.5
3718.076	-4.5
3720.792	-17.5
3723.505	-15.5
3726.216	-1.5
3728.925	-16.5
3731.632	-20.5
3734.336	-16.5
3737.039	-15.5
3739.74	-16.5
3742.439	-46.5
3745.136	-11.5
3747.83	-11.5
3750.523	-17.5
3753.213	-83.5
3755.902	-22.5
3758.589	-35.5
3761.273	-25.5
3763.956	-16.5
3766.636	-35.5
3769.315	-10.5
3771.991	-21.5
3774.665	-30.5
3777.338	-27.5
3780.008	-34.5
3782.677	-24.5
3785.343	-38.5
3788.007	-44.5
3790.67	-19.5
3793.33	-36.5
3795.989	-27.5
3798.645	-24.5
3801.299	-38.5
3803.952	-34.5
3806.602	-26.5
3809.251	-23.5
3811.897	-24.5
3814.542	-29.5
3817.184	-29.5
3819.825	-25.5
3822.463	-34.5
3825.1	-28.5
3827.735	-28.5
3830.367	-31.5
3832.998	-15.5
3835.627	-28.5
3838.253	-17.5
3840.878	-28.5
3843.501	-10.5
3846.122	-21.5
3848.741	-15.5
3851.358	-18.5
3853.973	-36.5
3856.586	-20.5
3859.197	-29.5
3861.806	-24.5
3864.414	-31.5
3867.019	-21.5
3869.622	-9.5
3872.224	-5.5
3874.823	9.5
3877.421	43.5
3880.016	68.5
3882.61	109.5
3885.202	134.5
3887.792	100.5
3890.38	54.5
3892.966	10.5
3895.55	-17.5
3898.132	-12.5
3900.713	-14.5
3903.291	-25.5
3905.868	-34.5
3908.442	-26.5
3911.015	-25.5
3913.586	-27.5
3916.155	-28.5
3918.722	-34.5
3921.287	-31.5
3923.85	-38.5
3926.411	-35.5
3928.971	-32.5
3931.528	-28.5
3934.084	-31.5
3936.638	-37.5
3939.19	-21.5
3941.74	-22.5
3944.288	-28.5
3946.834	-27.5
3949.378	-20.5
3951.921	-38.5
3954.462	-26.5
3957	-22.5
3959.537	-13.5
3962.072	-27.5
3964.606	-39.5
3967.137	-32.5
3969.667	-36.5
3972.194	-24.5
3974.72	-33.5
3977.244	-53.5
3979.766	-37.5
3982.286	-34.5
3984.805	-23.5
3987.321	-14.5
3989.836	-22.5
3992.349	-35.5
3994.86	-29.5
3997.369	-31.5
3999.877	-26.5
4002.382	-26.5
4004.886	-22.5
4007.388	-28.5
4009.888	-12.5
4012.386	-21.5
4014.883	-22.5
4017.377	-23.5
4019.87	-20.5
4022.361	-30.5
4024.85	-22.5
4027.338	-19.5
4029.823	-25.5
4032.307	-32.5
4034.789	-27.5
4037.269	-25.5
4039.747	-36.5
4042.224	-17.5
4044.699	-35.5
4047.172	-31.5
4049.643	-22.5
4052.112	-51.5
4054.58	-21.5
4057.046	-37.5
4059.51	-28.5
4061.972	-27.5
4064.432	-40.5
4066.891	-15.5
4069.348	-33.5
4071.803	-20.5
4074.256	-28.5
4076.708	-20.5
4079.158	-28.5
4081.606	-9.5
4084.052	-25.5
4086.497	-24.5
4088.939	-27.5
4091.38	-30.5
4093.819	-17.5
4096.257	-0.5
4098.693	-6.5
4101.127	-3.5
4103.559	-0.5
4105.989	145.5
4108.418	148.5
4110.845	144.5
4113.27	154.5
4115.694	153.5
4118.115	155.5
4120.535	-23.5
4122.954	-19.5
4125.37	-13.5
4127.785	-17.5
4130.198	-19.5
4132.609	-18.5
4135.019	9.5
4137.427	-1.5
4139.833	7.5
4142.237	-4.5
