Data from 2018-3-6_conc=5_n=1_RamanShift_01.txt Node
Date: Tue Mar 06 14:22:18 GMT+02:00 2018
User: LAB3
Spectrometer: QEPB0276
Trigger mode: 0
Integration Time (sec): 3.000000E1
Scans to average: 1
Electric dark correction enabled: true
Nonlinearity correction enabled: false
Boxcar width: 0
XAxis mode: Raman Shifts
Number of Pixels in Spectrum: 1044
>>>>>Begin Spectral Data<<<<<
160.701	73.62
166.742	98.62
172.777	129.62
178.805	258.62
184.826	596.62
190.841	1176.62
196.849	1799.62
202.85	2266.62
208.845	2411.62
214.833	2398.62
220.815	2329.62
226.789	2303.62
232.758	2282.62
238.719	2278.62
244.674	2227.62
250.623	2211.62
256.565	2165.62
262.5	2124.62
268.429	2091.62
274.351	2079.62
280.267	2053.62
286.176	2036.62
292.079	2057.62
297.975	2033.62
303.865	2040.62
309.748	2029.62
315.625	2022.62
321.495	2011.62
327.359	2011.62
333.217	2010.62
339.068	1993.62
344.912	2018.62
350.751	1987.62
356.583	2017.62
362.408	2025.62
368.227	2044.62
374.04	2029.62
379.847	2048.62
385.647	2046.62
391.44	2054.62
397.228	2069.62
403.009	2067.62
408.784	2087.62
414.553	2094.62
420.315	2095.62
426.071	2091.62
431.821	2105.62
437.565	2105.62
443.302	2081.62
449.033	2055.62
454.758	2066.62
460.477	2042.62
466.189	2030.62
471.896	1996.62
477.596	2012.62
483.29	1960.62
488.978	1965.62
494.66	1960.62
500.335	1890.62
506.005	1811.62
511.668	1714.62
517.325	1608.62
522.977	1567.62
528.622	1516.62
534.261	1472.62
539.894	1432.62
545.521	1408.62
551.141	1386.62
556.756	1370.62
562.365	1361.62
567.968	1347.62
573.565	1330.62
579.155	1339.62
584.74	1332.62
590.319	1328.62
595.892	1322.62
601.459	1322.62
607.02	1327.62
612.575	1305.62
618.124	1291.62
623.667	1268.62
629.204	1247.62
634.735	1221.62
640.261	1197.62
645.781	1168.62
651.294	1187.62
656.802	1175.62
662.304	1190.62
667.8	1190.62
673.29	1181.62
678.775	1189.62
684.254	1170.62
689.726	1150.62
695.193	1169.62
700.655	1139.62
706.11	1134.62
711.56	1132.62
717.004	1145.62
722.442	1110.62
727.874	1113.62
733.301	1140.62
738.722	1101.62
744.137	1119.62
749.547	1099.62
754.951	1106.62
760.349	1117.62
765.741	1128.62
771.128	1133.62
776.509	1135.62
781.885	1159.62
787.254	1169.62
792.618	1172.62
797.977	1176.62
803.33	1167.62
808.677	1165.62
814.019	1154.62
819.355	1131.62
824.686	1109.62
830.011	1105.62
835.33	1127.62
840.644	1112.62
845.952	1088.62
851.255	1108.62
856.552	1083.62
861.844	1058.62
867.13	1042.62
872.41	1039.62
877.686	1040.62
882.955	1013.62
888.219	1020.62
893.478	1002.62
898.731	995.62
903.979	990.62
909.221	977.62
914.458	961.62
919.69	969.62
924.916	968.62
930.136	961.62
935.351	965.62
940.561	974.62
945.766	970.62
950.965	950.62
956.158	941.62
961.347	943.62
966.529	920.62
971.707	927.62
976.879	915.62
982.046	902.62
987.208	870.62
992.364	891.62
997.515	886.62
1002.66	895.62
1007.801	909.62
1012.936	914.62
1018.066	888.62
1023.19	908.62
1028.309	923.62
1033.423	913.62
1038.532	933.62
1043.636	900.62
1048.734	896.62
1053.827	890.62
1058.915	884.62
1063.998	874.62
1069.075	867.62
1074.147	875.62
1079.214	861.62
1084.276	892.62
1089.333	875.62
1094.385	883.62
1099.431	870.62
1104.472	875.62
1109.509	844.62
1114.54	838.62
1119.565	832.62
1124.586	816.62
1129.602	832.62
1134.613	793.62
1139.618	807.62
1144.619	800.62
1149.614	817.62
1154.604	813.62
1159.589	805.62
1164.57	824.62
1169.545	821.62
1174.515	829.62
1179.48	821.62
1184.44	820.62
1189.395	812.62
1194.345	795.62
1199.29	805.62
1204.23	788.62
1209.165	785.62
1214.095	802.62
1219.021	796.62
1223.941	794.62
1228.856	789.62
1233.766	809.62
1238.672	810.62
1243.572	804.62
1248.467	818.62
1253.358	792.62
1258.244	770.62
1263.124	782.62
1268	769.62
1272.871	730.62
1277.737	738.62
1282.599	728.62
1287.455	726.62
1292.306	721.62
1297.153	716.62
1301.995	734.62
1306.832	729.62
1311.664	731.62
1316.491	726.62
1321.314	736.62
1326.132	722.62
1330.945	727.62
1335.753	698.62
1340.556	692.62
1345.354	680.62
1350.148	668.62
1354.937	665.62
1359.722	631.62
1364.501	641.62
1369.276	652.62
1374.046	652.62
1378.811	648.62
1383.572	663.62
1388.327	642.62
1393.079	623.62
1397.825	621.62
1402.567	634.62
1407.304	620.62
1412.036	612.62
1416.764	611.62
1421.487	608.62
1426.205	614.62
1430.919	608.62
1435.628	614.62
1440.333	614.62
1445.032	623.62
1449.727	622.62
1454.418	641.62
1459.104	633.62
1463.785	603.62
1468.462	624.62
1473.134	604.62
1477.802	587.62
1482.465	565.62
1487.123	574.62
1491.777	559.62
1496.426	547.62
1501.071	572.62
1505.711	559.62
1510.347	575.62
1514.978	576.62
1519.604	568.62
1524.226	585.62
1528.844	564.62
1533.457	568.62
1538.065	571.62
1542.669	562.62
1547.269	552.62
1551.864	561.62
1556.454	539.62
1561.041	555.62
1565.622	538.62
1570.199	554.62
1574.772	560.62
1579.34	573.62
1583.904	572.62
1588.464	588.62
1593.019	594.62
1597.569	578.62
1602.115	568.62
1606.657	568.62
1611.195	599.62
1615.728	581.62
1620.256	559.62
1624.78	539.62
1629.3	559.62
1633.816	588.62
1638.327	575.62
1642.834	567.62
1647.336	573.62
1651.834	586.62
1656.328	579.62
1660.817	578.62
1665.302	563.62
1669.783	552.62
1674.259	537.62
1678.732	531.62
1683.199	524.62
1687.663	493.62
1692.122	491.62
1696.577	482.62
1701.028	480.62
1705.474	457.62
1709.917	447.62
1714.355	441.62
1718.788	431.62
1723.218	415.62
1727.643	417.62
1732.064	422.62
1736.481	399.62
1740.893	405.62
1745.301	398.62
1749.705	367.62
1754.105	388.62
1758.501	366.62
1762.893	368.62
1767.28	349.62
1771.663	351.62
1776.042	341.62
1780.417	342.62
1784.787	345.62
1789.154	353.62
1793.516	349.62
1797.874	353.62
1802.228	328.62
1806.578	333.62
1810.924	338.62
1815.266	227.62
1819.603	339.62
1823.937	321.62
1828.266	324.62
1832.591	329.62
1836.913	316.62
1841.23	321.62
1845.543	305.62
1849.852	324.62
1854.156	315.62
1858.457	321.62
1862.754	315.62
1867.047	315.62
1871.335	326.62
1875.62	325.62
1879.9	331.62
1884.177	308.62
1888.449	308.62
1892.718	312.62
1896.982	313.62
1901.243	293.62
1905.499	302.62
1909.752	302.62
1914	280.62
1918.245	311.62
1922.485	299.62
1926.722	286.62
1930.954	292.62
1935.183	300.62
1939.408	306.62
1943.628	297.62
1947.845	304.62
1952.058	295.62
1956.267	277.62
1960.472	289.62
1964.673	287.62
1968.87	281.62
1973.063	273.62
1977.252	275.62
1981.438	267.62
1985.619	260.62
1989.797	265.62
1993.971	267.62
1998.14	274.62
2002.306	269.62
2006.469	274.62
2010.627	259.62
2014.781	257.62
2018.932	249.62
2023.078	271.62
2027.221	266.62
2031.36	248.62
2035.495	257.62
2039.627	244.62
2043.754	252.62
2047.878	239.62
2051.998	242.62
2056.114	236.62
2060.226	230.62
2064.334	251.62
2068.439	252.62
2072.54	251.62
2076.637	234.62
2080.73	240.62
2084.82	234.62
2088.906	237.62
2092.988	238.62
2097.066	234.62
2101.14	243.62
2105.211	239.62
2109.278	231.62
2113.342	226.62
2117.401	219.62
2121.457	214.62
2125.509	211.62
2129.558	222.62
2133.602	217.62
2137.643	213.62
2141.681	213.62
2145.714	222.62
2149.744	215.62
2153.77	219.62
2157.793	198.62
2161.812	175.62
2165.827	181.62
2169.838	214.62
2173.846	195.62
2177.851	188.62
2181.851	205.62
2185.848	189.62
2189.841	192.62
2193.831	191.62
2197.817	188.62
2201.799	184.62
2205.778	185.62
2209.753	177.62
2213.725	168.62
2217.693	180.62
2221.657	173.62
2225.618	179.62
2229.575	176.62
2233.529	179.62
2237.479	181.62
2241.425	173.62
2245.368	158.62
2249.307	163.62
2253.243	165.62
2257.175	165.62
2261.104	153.62
2265.029	163.62
2268.95	155.62
2272.868	150.62
2276.783	145.62
2280.694	156.62
2284.601	143.62
2288.505	150.62
2292.405	153.62
2296.302	124.62
2300.195	149.62
2304.085	118.62
2307.971	147.62
2311.854	115.62
2315.734	138.62
2319.609	142.62
2323.482	110.62
2327.351	120.62
2331.216	127.62
2335.078	135.62
2338.937	131.62
2342.792	116.62
2346.643	118.62
2350.492	130.62
2354.336	121.62
2358.178	122.62
2362.015	124.62
2365.85	125.62
2369.681	121.62
2373.508	126.62
2377.333	132.62
2381.153	128.62
2384.971	118.62
2388.785	121.62
2392.595	107.62
2396.402	108.62
2400.206	98.62
2404.007	103.62
2407.804	112.62
2411.597	117.62
2415.388	104.62
2419.174	101.62
2422.958	112.62
2426.738	110.62
2430.515	112.62
2434.289	99.62
2438.059	94.62
2441.825	103.62
2445.589	113.62
2449.349	88.62
2453.106	112.62
2456.859	105.62
2460.61	107.62
2464.356	91.62
2468.1	86.62
2471.84	88.62
2475.577	88.62
2479.311	84.62
2483.041	96.62
2486.768	101.62
2490.492	103.62
2494.213	92.62
2497.93	80.62
2501.644	86.62
2505.355	90.62
2509.062	90.62
2512.766	83.62
2516.467	87.62
2520.165	85.62
2523.859	76.62
2527.551	106.62
2531.239	79.62
2534.923	84.62
2538.605	79.62
2542.283	79.62
2545.958	73.62
2549.63	88.62
2553.299	84.62
2556.964	73.62
2560.626	76.62
2564.285	80.62
2567.941	67.62
2571.594	64.62
2575.243	75.62
2578.89	71.62
2582.533	75.62
2586.173	71.62
2589.809	74.62
2593.443	55.62
2597.073	70.62
2600.701	75.62
2604.325	74.62
2607.946	57.62
2611.564	78.62
2615.178	71.62
2618.79	72.62
2622.398	68.62
2626.004	68.62
2629.606	67.62
2633.205	58.62
2636.801	67.62
2640.394	68.62
2643.983	63.62
2647.57	59.62
2651.153	61.62
2654.734	67.62
2658.311	41.62
2661.885	46.62
2665.456	59.62
2669.025	56.62
2672.589	51.62
2676.151	67.62
2679.71	63.62
2683.266	55.62
2686.819	55.62
2690.368	55.62
2693.915	62.62
2697.458	53.62
2700.999	57.62
2704.536	55.62
2708.071	51.62
2711.602	51.62
2715.13	51.62
2718.656	33.62
2722.178	56.62
2725.697	37.62
2729.214	44.62
2732.727	49.62
2736.237	34.62
2739.744	36.62
2743.249	35.62
2746.75	43.62
2750.248	41.62
2753.743	41.62
2757.236	42.62
2760.725	47.62
2764.211	16.62
2767.695	44.62
2771.175	43.62
2774.652	41.62
2778.127	37.62
2781.598	37.62
2785.067	41.62
2788.532	29.62
2791.995	42.62
2795.455	34.62
2798.911	54.62
2802.365	34.62
2805.816	37.62
2809.264	50.62
2812.709	39.62
2816.151	41.62
2819.59	27.62
2823.026	35.62
2826.46	35.62
2829.89	44.62
2833.318	20.62
2836.742	36.62
2840.164	38.62
2843.583	36.62
2846.999	37.62
2850.412	39.62
2853.822	41.62
2857.229	54.62
2860.634	48.62
2864.035	32.62
2867.434	47.62
2870.83	45.62
2874.223	38.62
2877.613	41.62
2881	39.62
2884.385	39.62
2887.766	44.62
2891.145	38.62
2894.521	42.62
2897.894	34.62
2901.264	46.62
2904.631	52.62
2907.996	50.62
2911.358	58.62
2914.717	50.62
2918.073	49.62
2921.426	46.62
2924.777	33.62
2928.124	46.62
2931.469	56.62
2934.811	40.62
2938.15	62.62
2941.487	56.62
2944.821	72.62
2948.152	58.62
2951.48	60.62
2954.805	44.62
2958.128	70.62
2961.447	53.62
2964.765	72.62
2968.079	56.62
2971.39	64.62
2974.699	64.62
2978.005	57.62
2981.308	62.62
2984.609	51.62
2987.907	64.62
2991.202	67.62
2994.494	54.62
2997.784	60.62
3001.07	65.62
3004.355	55.62
3007.636	67.62
3010.915	71.62
3014.191	65.62
3017.464	74.62
3020.734	68.62
3024.002	80.62
3027.267	71.62
3030.53	76.62
3033.789	73.62
3037.046	73.62
3040.301	67.62
3043.552	78.62
3046.801	83.62
3050.048	90.62
3053.291	109.62
3056.532	88.62
3059.771	73.62
3063.006	92.62
3066.239	91.62
3069.469	99.62
3072.697	95.62
3075.922	96.62
3079.144	100.62
3082.364	117.62
3085.581	100.62
3088.795	119.62
3092.007	121.62
3095.216	124.62
3098.423	115.62
3101.627	104.62
3104.828	126.62
3108.026	126.62
3111.222	140.62
3114.416	147.62
3117.607	134.62
3120.795	142.62
3123.98	146.62
3127.163	130.62
3130.344	143.62
3133.521	143.62
3136.696	166.62
3139.869	159.62
3143.039	147.62
3146.206	176.62
3149.371	175.62
3152.533	170.62
3155.693	160.62
3158.85	169.62
3162.005	173.62
3165.157	169.62
3168.306	177.62
3171.453	183.62
3174.597	170.62
3177.739	165.62
3180.878	177.62
3184.014	172.62
3187.149	178.62
3190.28	181.62
3193.409	183.62
3196.536	179.62
3199.659	190.62
3202.781	183.62
3205.9	182.62
3209.016	177.62
3212.13	176.62
3215.241	175.62
3218.35	174.62
3221.456	175.62
3224.56	168.62
3227.661	175.62
3230.76	171.62
3233.856	164.62
3236.95	170.62
3240.041	166.62
3243.13	162.62
3246.216	167.62
3249.3	168.62
3252.382	170.62
3255.46	154.62
3258.537	107.62
3261.611	145.62
3264.682	162.62
3267.751	154.62
3270.818	152.62
3273.882	161.62
3276.943	163.62
3280.002	171.62
3283.059	152.62
3286.113	158.62
3289.165	141.62
3292.214	140.62
3295.261	165.62
3298.306	136.62
3301.348	153.62
3304.387	136.62
3307.425	146.62
3310.459	137.62
3313.492	153.62
3316.521	138.62
3319.549	141.62
3322.574	143.62
3325.597	134.62
3328.617	126.62
3331.635	129.62
3334.65	117.62
3337.663	131.62
3340.674	127.62
3343.682	132.62
3346.688	145.62
3349.691	123.62
3352.692	129.62
3355.691	135.62
3358.687	124.62
3361.681	129.62
3364.673	128.62
3367.662	129.62
3370.649	135.62
3373.633	111.62
3376.615	121.62
3379.595	109.62
3382.572	114.62
3385.547	100.62
3388.52	101.62
3391.49	106.62
3394.458	103.62
3397.424	108.62
3400.387	103.62
3403.348	105.62
3406.307	106.62
3409.263	102.62
3412.217	106.62
3415.168	102.62
3418.118	106.62
3421.065	93.62
3424.009	113.62
3426.951	96.62
3429.891	87.62
3432.829	89.62
3435.764	93.62
3438.697	77.62
3441.628	93.62
3444.557	71.62
3447.483	74.62
3450.407	84.62
3453.328	68.62
3456.247	69.62
3459.164	60.62
3462.079	80.62
3464.991	66.62
3467.902	57.62
3470.809	61.62
3473.715	62.62
3476.618	50.62
3479.519	59.62
3482.418	36.62
3485.315	37.62
3488.209	36.62
3491.101	43.62
3493.99	31.62
3496.878	35.62
3499.763	40.62
3502.646	39.62
3505.527	27.62
3508.405	26.62
3511.281	17.62
3514.155	28.62
3517.027	30.62
3519.897	14.62
3522.764	25.62
3525.629	6.62
3528.492	21.62
3531.352	18.62
3534.211	12.62
3537.067	8.62
3539.921	14.62
3542.773	19.62
3545.622	7.62
3548.469	-1.38
3551.315	-3.38
3554.157	4.62
3556.998	-5.38
3559.837	-3.38
3562.673	4.62
3565.507	-5.38
3568.339	-10.38
3571.169	-4.38
3573.996	-1.38
3576.822	-18.38
3579.645	-14.38
3582.466	-13.38
3585.285	-5.38
3588.101	-10.38
3590.916	-12.38
3593.728	-1.38
3596.538	-8.38
3599.346	-3.38
3602.152	-18.38
3604.956	-10.38
3607.757	-11.38
3610.556	-25.38
3613.354	-11.38
3616.149	-11.38
3618.942	-8.38
3621.732	-7.38
3624.521	-20.38
3627.307	-29.38
3630.092	-25.38
3632.874	-2.38
3635.654	-14.38
3638.432	-30.38
3641.208	-20.38
3643.982	-20.38
3646.753	-12.38
3649.523	-45.38
3652.29	-23.38
3655.055	-20.38
3657.818	-20.38
3660.579	-28.38
3663.338	-39.38
3666.095	-25.38
3668.849	-50.38
3671.602	-17.38
3674.352	-36.38
3677.101	-20.38
3679.847	-16.38
3682.591	-35.38
3685.333	-36.38
3688.073	-29.38
3690.811	-36.38
3693.547	-36.38
3696.281	-38.38
3699.013	-26.38
3701.742	-29.38
3704.47	-37.38
3707.195	-28.38
3709.919	-29.38
3712.64	-30.38
3715.359	-42.38
3718.076	-19.38
3720.792	-30.38
3723.505	-25.38
3726.216	-22.38
3728.925	-31.38
3731.632	-35.38
3734.336	-28.38
3737.039	-31.38
3739.74	-24.38
3742.439	-50.38
3745.136	-23.38
3747.83	-27.38
3750.523	-22.38
3753.213	-85.38
3755.902	-35.38
3758.589	-51.38
3761.273	-32.38
3763.956	-21.38
3766.636	-41.38
3769.315	-27.38
3771.991	-28.38
3774.665	-34.38
3777.338	-30.38
3780.008	-43.38
3782.677	-35.38
3785.343	-46.38
3788.007	-48.38
3790.67	-27.38
3793.33	-46.38
3795.989	-37.38
3798.645	-30.38
3801.299	-42.38
3803.952	-41.38
3806.602	-36.38
3809.251	-26.38
3811.897	-30.38
3814.542	-35.38
3817.184	-34.38
3819.825	-32.38
3822.463	-45.38
3825.1	-32.38
3827.735	-34.38
3830.367	-43.38
3832.998	-21.38
3835.627	-33.38
3838.253	-23.38
3840.878	-34.38
3843.501	-15.38
3846.122	-30.38
3848.741	-22.38
3851.358	-26.38
3853.973	-38.38
3856.586	-23.38
3859.197	-38.38
3861.806	-31.38
3864.414	-46.38
3867.019	-32.38
3869.622	-23.38
3872.224	-15.38
3874.823	-11.38
3877.421	14.62
3880.016	27.62
3882.61	65.62
3885.202	81.62
3887.792	55.62
3890.38	29.62
3892.966	-12.38
3895.55	-30.38
3898.132	-18.38
3900.713	-19.38
3903.291	-30.38
3905.868	-38.38
3908.442	-33.38
3911.015	-31.38
3913.586	-34.38
3916.155	-35.38
3918.722	-34.38
3921.287	-36.38
3923.85	-45.38
3926.411	-38.38
3928.971	-38.38
3931.528	-29.38
3934.084	-37.38
3936.638	-43.38
3939.19	-29.38
3941.74	-29.38
3944.288	-36.38
3946.834	-31.38
3949.378	-23.38
3951.921	-42.38
3954.462	-32.38
3957	-31.38
3959.537	-19.38
3962.072	-33.38
3964.606	-46.38
3967.137	-35.38
3969.667	-35.38
3972.194	-28.38
3974.72	-35.38
3977.244	-50.38
3979.766	-43.38
3982.286	-39.38
3984.805	-33.38
3987.321	-21.38
3989.836	-29.38
3992.349	-39.38
3994.86	-30.38
3997.369	-38.38
3999.877	-35.38
4002.382	-34.38
4004.886	-29.38
4007.388	-30.38
4009.888	-18.38
4012.386	-25.38
4014.883	-27.38
4017.377	-34.38
4019.87	-28.38
4022.361	-42.38
4024.85	-33.38
4027.338	-29.38
4029.823	-36.38
4032.307	-36.38
4034.789	-33.38
4037.269	-29.38
4039.747	-48.38
4042.224	-22.38
4044.699	-35.38
4047.172	-36.38
4049.643	-25.38
4052.112	-54.38
4054.58	-29.38
4057.046	-39.38
4059.51	-35.38
4061.972	-35.38
4064.432	-50.38
4066.891	-18.38
4069.348	-29.38
4071.803	-26.38
4074.256	-37.38
4076.708	-25.38
4079.158	-27.38
4081.606	-20.38
4084.052	-37.38
4086.497	-28.38
4088.939	-33.38
4091.38	-34.38
4093.819	-28.38
4096.257	0.62
4098.693	-6.38
4101.127	-6.38
4103.559	0.62
4105.989	80.62
4108.418	74.62
4110.845	67.62
4113.27	78.62
4115.694	79.62
4118.115	73.62
4120.535	-28.38
4122.954	-29.38
4125.37	-23.38
4127.785	-27.38
4130.198	-22.38
4132.609	-26.38
4135.019	12.62
4137.427	-1.38
4139.833	3.62
4142.237	-3.38
