Data from 2018-3-6_conc=0_n=3_RamanShift_01.txt Node
Date: Tue Mar 06 12:14:49 GMT+02:00 2018
User: LAB3
Spectrometer: QEPB0276
Trigger mode: 0
Integration Time (sec): 3.000000E1
Scans to average: 1
Electric dark correction enabled: true
Nonlinearity correction enabled: false
Boxcar width: 0
XAxis mode: Raman Shifts
Number of Pixels in Spectrum: 1044
>>>>>Begin Spectral Data<<<<<
160.701	94.38
166.742	129.38
172.777	209.38
178.805	475.38
184.826	1119.38
190.841	2299.38
196.849	3666.38
202.85	4758.38
208.845	5185.38
214.833	5195.38
220.815	5222.38
226.789	5273.38
232.758	5358.38
238.719	5405.38
244.674	5465.38
250.623	5471.38
256.565	5451.38
262.5	5445.38
268.429	5410.38
274.351	5471.38
280.267	5462.38
286.176	5510.38
292.079	5552.38
297.975	5558.38
303.865	5579.38
309.748	5628.38
315.625	5627.38
321.495	5644.38
327.359	5638.38
333.217	5679.38
339.068	5679.38
344.912	5752.38
350.751	5733.38
356.583	5746.38
362.408	5804.38
368.227	5795.38
374.04	5792.38
379.847	5850.38
385.647	5872.38
391.44	5919.38
397.228	5960.38
403.009	5954.38
408.784	6000.38
414.553	6032.38
420.315	6012.38
426.071	6022.38
431.821	6028.38
437.565	6040.38
443.302	6009.38
449.033	5972.38
454.758	5963.38
460.477	5935.38
466.189	5879.38
471.896	5865.38
477.596	5800.38
483.29	5817.38
488.978	5794.38
494.66	5757.38
500.335	5620.38
506.005	5483.38
511.668	5260.38
517.325	5088.38
522.977	4941.38
528.622	4808.38
534.261	4722.38
539.894	4683.38
545.521	4637.38
551.141	4551.38
556.756	4562.38
562.365	4522.38
567.968	4482.38
573.565	4482.38
579.155	4448.38
584.74	4428.38
590.319	4422.38
595.892	4434.38
601.459	4422.38
607.02	4391.38
612.575	4384.38
618.124	4321.38
623.667	4268.38
629.204	4238.38
634.735	4222.38
640.261	4162.38
645.781	4131.38
651.294	4119.38
656.802	4121.38
662.304	4109.38
667.8	4096.38
673.29	4105.38
678.775	4081.38
684.254	4092.38
689.726	4050.38
695.193	4047.38
700.655	3995.38
706.11	4010.38
711.56	3965.38
717.004	3984.38
722.442	3942.38
727.874	3925.38
733.301	3931.38
738.722	3926.38
744.137	3899.38
749.547	3909.38
754.951	3895.38
760.349	3915.38
765.741	3957.38
771.128	3923.38
776.509	3976.38
781.885	4037.38
787.254	4057.38
792.618	4034.38
797.977	4042.38
803.33	4008.38
808.677	3975.38
814.019	3955.38
819.355	3947.38
824.686	3910.38
830.011	3899.38
835.33	3887.38
840.644	3884.38
845.952	3830.38
851.255	3830.38
856.552	3813.38
861.844	3832.38
867.13	3790.38
872.41	3829.38
877.686	3886.38
882.955	3851.38
888.219	3837.38
893.478	3740.38
898.731	3636.38
903.979	3551.38
909.221	3535.38
914.458	3508.38
919.69	3512.38
924.916	3518.38
930.136	3519.38
935.351	3517.38
940.561	3527.38
945.766	3493.38
950.965	3509.38
956.158	3494.38
961.347	3440.38
966.529	3406.38
971.707	3374.38
976.879	3334.38
982.046	3312.38
987.208	3297.38
992.364	3284.38
997.515	3295.38
1002.66	3318.38
1007.801	3382.38
1012.936	3388.38
1018.066	3403.38
1023.19	3412.38
1028.309	3444.38
1033.423	3467.38
1038.532	3444.38
1043.636	3430.38
1048.734	3412.38
1053.827	3416.38
1058.915	3337.38
1063.998	3307.38
1069.075	3289.38
1074.147	3303.38
1079.214	3309.38
1084.276	3355.38
1089.333	3361.38
1094.385	3363.38
1099.431	3367.38
1104.472	3347.38
1109.509	3271.38
1114.54	3257.38
1119.565	3213.38
1124.586	3165.38
1129.602	3117.38
1134.613	3091.38
1139.618	3087.38
1144.619	3070.38
1149.614	3093.38
1154.604	3109.38
1159.589	3098.38
1164.57	3134.38
1169.545	3124.38
1174.515	3136.38
1179.48	3113.38
1184.44	3088.38
1189.395	3093.38
1194.345	3015.38
1199.29	3040.38
1204.23	3014.38
1209.165	3016.38
1214.095	3041.38
1219.021	3037.38
1223.941	3063.38
1228.856	3080.38
1233.766	3082.38
1238.672	3086.38
1243.572	3085.38
1248.467	3048.38
1253.358	3026.38
1258.244	2973.38
1263.124	2939.38
1268	2922.38
1272.871	2872.38
1277.737	2861.38
1282.599	2835.38
1287.455	2850.38
1292.306	2851.38
1297.153	2828.38
1301.995	2880.38
1306.832	2897.38
1311.664	2897.38
1316.491	2896.38
1321.314	2871.38
1326.132	2841.38
1330.945	2803.38
1335.753	2752.38
1340.556	2699.38
1345.354	2650.38
1350.148	2614.38
1354.937	2605.38
1359.722	2555.38
1364.501	2533.38
1369.276	2530.38
1374.046	2544.38
1378.811	2515.38
1383.572	2533.38
1388.327	2523.38
1393.079	2502.38
1397.825	2484.38
1402.567	2486.38
1407.304	2454.38
1412.036	2476.38
1416.764	2440.38
1421.487	2445.38
1426.205	2446.38
1430.919	2493.38
1435.628	2495.38
1440.333	2508.38
1445.032	2545.38
1449.727	2584.38
1454.418	2597.38
1459.104	2627.38
1463.785	2563.38
1468.462	2486.38
1473.134	2420.38
1477.802	2404.38
1482.465	2338.38
1487.123	2346.38
1491.777	2306.38
1496.426	2301.38
1501.071	2312.38
1505.711	2284.38
1510.347	2307.38
1514.978	2300.38
1519.604	2316.38
1524.226	2326.38
1528.844	2261.38
1533.457	2280.38
1538.065	2271.38
1542.669	2234.38
1547.269	2211.38
1551.864	2213.38
1556.454	2202.38
1561.041	2191.38
1565.622	2209.38
1570.199	2193.38
1574.772	2211.38
1579.34	2243.38
1583.904	2254.38
1588.464	2267.38
1593.019	2254.38
1597.569	2258.38
1602.115	2211.38
1606.657	2206.38
1611.195	2188.38
1615.728	2191.38
1620.256	2161.38
1624.78	2142.38
1629.3	2155.38
1633.816	2151.38
1638.327	2157.38
1642.834	2183.38
1647.336	2177.38
1651.834	2206.38
1656.328	2203.38
1660.817	2207.38
1665.302	2159.38
1669.783	2151.38
1674.259	2132.38
1678.732	2095.38
1683.199	2052.38
1687.663	1977.38
1692.122	1964.38
1696.577	1913.38
1701.028	1895.38
1705.474	1848.38
1709.917	1813.38
1714.355	1822.38
1718.788	1800.38
1723.218	1782.38
1727.643	1780.38
1732.064	1773.38
1736.481	1752.38
1740.893	1738.38
1745.301	1689.38
1749.705	1632.38
1754.105	1630.38
1758.501	1602.38
1762.893	1596.38
1767.28	1547.38
1771.663	1539.38
1776.042	1513.38
1780.417	1520.38
1784.787	1517.38
1789.154	1518.38
1793.516	1511.38
1797.874	1520.38
1802.228	1500.38
1806.578	1478.38
1810.924	1483.38
1815.266	1385.38
1819.603	1475.38
1823.937	1429.38
1828.266	1429.38
1832.591	1414.38
1836.913	1408.38
1841.23	1423.38
1845.543	1400.38
1849.852	1404.38
1854.156	1396.38
1858.457	1399.38
1862.754	1415.38
1867.047	1398.38
1871.335	1434.38
1875.62	1423.38
1879.9	1422.38
1884.177	1417.38
1888.449	1402.38
1892.718	1380.38
1896.982	1371.38
1901.243	1363.38
1905.499	1349.38
1909.752	1333.38
1914	1318.38
1918.245	1357.38
1922.485	1338.38
1926.722	1343.38
1930.954	1322.38
1935.183	1348.38
1939.408	1351.38
1943.628	1334.38
1947.845	1315.38
1952.058	1314.38
1956.267	1277.38
1960.472	1270.38
1964.673	1255.38
1968.87	1232.38
1973.063	1208.38
1977.252	1186.38
1981.438	1188.38
1985.619	1169.38
1989.797	1148.38
1993.971	1159.38
1998.14	1156.38
2002.306	1154.38
2006.469	1156.38
2010.627	1145.38
2014.781	1138.38
2018.932	1150.38
2023.078	1153.38
2027.221	1138.38
2031.36	1099.38
2035.495	1086.38
2039.627	1094.38
2043.754	1077.38
2047.878	1073.38
2051.998	1054.38
2056.114	1056.38
2060.226	1059.38
2064.334	1066.38
2068.439	1064.38
2072.54	1080.38
2076.637	1051.38
2080.73	1071.38
2084.82	1059.38
2088.906	1066.38
2092.988	1062.38
2097.066	1058.38
2101.14	1058.38
2105.211	1025.38
2109.278	1015.38
2113.342	1013.38
2117.401	994.38
2121.457	980.38
2125.509	970.38
2129.558	982.38
2133.602	969.38
2137.643	972.38
2141.681	956.38
2145.714	950.38
2149.744	945.38
2153.77	929.38
2157.793	928.38
2161.812	907.38
2165.827	887.38
2169.838	914.38
2173.846	883.38
2177.851	869.38
2181.851	868.38
2185.848	860.38
2189.841	848.38
2193.831	824.38
2197.817	841.38
2201.799	831.38
2205.778	805.38
2209.753	814.38
2213.725	807.38
2217.693	834.38
2221.657	799.38
2225.618	817.38
2229.575	793.38
2233.529	813.38
2237.479	799.38
2241.425	776.38
2245.368	765.38
2249.307	765.38
2253.243	763.38
2257.175	729.38
2261.104	727.38
2265.029	738.38
2268.95	716.38
2272.868	716.38
2276.783	710.38
2280.694	692.38
2284.601	699.38
2288.505	689.38
2292.405	681.38
2296.302	653.38
2300.195	673.38
2304.085	624.38
2307.971	648.38
2311.854	615.38
2315.734	628.38
2319.609	640.38
2323.482	587.38
2327.351	599.38
2331.216	591.38
2335.078	614.38
2338.937	588.38
2342.792	590.38
2346.643	594.38
2350.492	605.38
2354.336	601.38
2358.178	602.38
2362.015	616.38
2365.85	603.38
2369.681	599.38
2373.508	599.38
2377.333	612.38
2381.153	602.38
2384.971	600.38
2388.785	592.38
2392.595	592.38
2396.402	588.38
2400.206	566.38
2404.007	580.38
2407.804	581.38
2411.597	583.38
2415.388	562.38
2419.174	573.38
2422.958	574.38
2426.738	569.38
2430.515	561.38
2434.289	559.38
2438.059	558.38
2441.825	549.38
2445.589	554.38
2449.349	538.38
2453.106	546.38
2456.859	543.38
2460.61	537.38
2464.356	527.38
2468.1	518.38
2471.84	511.38
2475.577	500.38
2479.311	512.38
2483.041	509.38
2486.768	520.38
2490.492	513.38
2494.213	503.38
2497.93	499.38
2501.644	484.38
2505.355	505.38
2509.062	492.38
2512.766	492.38
2516.467	487.38
2520.165	489.38
2523.859	472.38
2527.551	504.38
2531.239	464.38
2534.923	476.38
2538.605	471.38
2542.283	470.38
2545.958	471.38
2549.63	486.38
2553.299	471.38
2556.964	446.38
2560.626	458.38
2564.285	458.38
2567.941	441.38
2571.594	438.38
2575.243	445.38
2578.89	439.38
2582.533	447.38
2586.173	438.38
2589.809	424.38
2593.443	401.38
2597.073	418.38
2600.701	418.38
2604.325	412.38
2607.946	407.38
2611.564	417.38
2615.178	415.38
2618.79	402.38
2622.398	400.38
2626.004	413.38
2629.606	398.38
2633.205	391.38
2636.801	381.38
2640.394	394.38
2643.983	371.38
2647.57	363.38
2651.153	358.38
2654.734	376.38
2658.311	352.38
2661.885	357.38
2665.456	347.38
2669.025	355.38
2672.589	350.38
2676.151	356.38
2679.71	357.38
2683.266	341.38
2686.819	335.38
2690.368	332.38
2693.915	327.38
2697.458	326.38
2700.999	329.38
2704.536	319.38
2708.071	323.38
2711.602	326.38
2715.13	313.38
2718.656	296.38
2722.178	305.38
2725.697	297.38
2729.214	298.38
2732.727	310.38
2736.237	286.38
2739.744	286.38
2743.249	289.38
2746.75	290.38
2750.248	286.38
2753.743	287.38
2757.236	277.38
2760.725	287.38
2764.211	257.38
2767.695	279.38
2771.175	278.38
2774.652	277.38
2778.127	262.38
2781.598	264.38
2785.067	275.38
2788.532	259.38
2791.995	266.38
2795.455	266.38
2798.911	276.38
2802.365	259.38
2805.816	275.38
2809.264	279.38
2812.709	270.38
2816.151	275.38
2819.59	255.38
2823.026	264.38
2826.46	258.38
2829.89	276.38
2833.318	245.38
2836.742	270.38
2840.164	266.38
2843.583	268.38
2846.999	265.38
2850.412	275.38
2853.822	276.38
2857.229	283.38
2860.634	281.38
2864.035	265.38
2867.434	289.38
2870.83	297.38
2874.223	299.38
2877.613	294.38
2881	300.38
2884.385	306.38
2887.766	308.38
2891.145	316.38
2894.521	306.38
2897.894	300.38
2901.264	309.38
2904.631	299.38
2907.996	303.38
2911.358	307.38
2914.717	299.38
2918.073	294.38
2921.426	289.38
2924.777	275.38
2928.124	313.38
2931.469	330.38
2934.811	319.38
2938.15	344.38
2941.487	334.38
2944.821	352.38
2948.152	319.38
2951.48	319.38
2954.805	299.38
2958.128	310.38
2961.447	292.38
2964.765	312.38
2968.079	291.38
2971.39	289.38
2974.699	303.38
2978.005	302.38
2981.308	295.38
2984.609	293.38
2987.907	305.38
2991.202	306.38
2994.494	285.38
2997.784	291.38
3001.07	282.38
3004.355	284.38
3007.636	281.38
3010.915	289.38
3014.191	278.38
3017.464	281.38
3020.734	278.38
3024.002	281.38
3027.267	274.38
3030.53	275.38
3033.789	272.38
3037.046	278.38
3040.301	264.38
3043.552	277.38
3046.801	284.38
3050.048	296.38
3053.291	313.38
3056.532	303.38
3059.771	291.38
3063.006	303.38
3066.239	309.38
3069.469	327.38
3072.697	328.38
3075.922	322.38
3079.144	329.38
3082.364	354.38
3085.581	339.38
3088.795	357.38
3092.007	364.38
3095.216	361.38
3098.423	368.38
3101.627	357.38
3104.828	373.38
3108.026	377.38
3111.222	406.38
3114.416	414.38
3117.607	405.38
3120.795	407.38
3123.98	419.38
3127.163	401.38
3130.344	414.38
3133.521	428.38
3136.696	445.38
3139.869	448.38
3143.039	437.38
3146.206	479.38
3149.371	466.38
3152.533	475.38
3155.693	449.38
3158.85	474.38
3162.005	476.38
3165.157	464.38
3168.306	474.38
3171.453	485.38
3174.597	461.38
3177.739	463.38
3180.878	484.38
3184.014	475.38
3187.149	474.38
3190.28	480.38
3193.409	481.38
3196.536	489.38
3199.659	490.38
3202.781	485.38
3205.9	483.38
3209.016	487.38
3212.13	474.38
3215.241	485.38
3218.35	486.38
3221.456	464.38
3224.56	452.38
3227.661	456.38
3230.76	457.38
3233.856	451.38
3236.95	457.38
3240.041	449.38
3243.13	442.38
3246.216	434.38
3249.3	457.38
3252.382	451.38
3255.46	433.38
3258.537	393.38
3261.611	424.38
3264.682	431.38
3267.751	438.38
3270.818	415.38
3273.882	432.38
3276.943	425.38
3280.002	430.38
3283.059	417.38
3286.113	415.38
3289.165	395.38
3292.214	393.38
3295.261	406.38
3298.306	374.38
3301.348	394.38
3304.387	362.38
3307.425	378.38
3310.459	367.38
3313.492	371.38
3316.521	354.38
3319.549	361.38
3322.574	352.38
3325.597	355.38
3328.617	339.38
3331.635	342.38
3334.65	324.38
3337.663	345.38
3340.674	329.38
3343.682	333.38
3346.688	338.38
3349.691	334.38
3352.692	336.38
3355.691	333.38
3358.687	334.38
3361.681	331.38
3364.673	315.38
3367.662	325.38
3370.649	325.38
3373.633	311.38
3376.615	309.38
3379.595	296.38
3382.572	294.38
3385.547	291.38
3388.52	283.38
3391.49	277.38
3394.458	293.38
3397.424	288.38
3400.387	270.38
3403.348	285.38
3406.307	274.38
3409.263	272.38
3412.217	273.38
3415.168	281.38
3418.118	270.38
3421.065	261.38
3424.009	269.38
3426.951	258.38
3429.891	255.38
3432.829	254.38
3435.764	238.38
3438.697	233.38
3441.628	242.38
3444.557	222.38
3447.483	216.38
3450.407	231.38
3453.328	252.38
3456.247	204.38
3459.164	192.38
3462.079	208.38
3464.991	197.38
3467.902	196.38
3470.809	185.38
3473.715	184.38
3476.618	170.38
3479.519	177.38
3482.418	146.38
3485.315	154.38
3488.209	158.38
3491.101	156.38
3493.99	143.38
3496.878	135.38
3499.763	139.38
3502.646	137.38
3505.527	119.38
3508.405	120.38
3511.281	113.38
3514.155	121.38
3517.027	115.38
3519.897	97.38
3522.764	111.38
3525.629	83.38
3528.492	93.38
3531.352	94.38
3534.211	93.38
3537.067	86.38
3539.921	84.38
3542.773	87.38
3545.622	64.38
3548.469	58.38
3551.315	60.38
3554.157	57.38
3556.998	53.38
3559.837	54.38
3562.673	60.38
3565.507	44.38
3568.339	41.38
3571.169	42.38
3573.996	40.38
3576.822	22.38
3579.645	28.38
3582.466	31.38
3585.285	36.38
3588.101	32.38
3590.916	24.38
3593.728	31.38
3596.538	27.38
3599.346	25.38
3602.152	12.38
3604.956	21.38
3607.757	15.38
3610.556	2.38
3613.354	17.38
3616.149	12.38
3618.942	18.38
3621.732	15.38
3624.521	5.38
3627.307	0.38
3630.092	-5.62
3632.874	15.38
3635.654	3.38
3638.432	-4.62
3641.208	-4.62
3643.982	-5.62
3646.753	5.38
3649.523	-16.62
3652.29	-8.62
3655.055	1.38
3657.818	-4.62
3660.579	-8.62
3663.338	-19.62
3666.095	-14.62
3668.849	-36.62
3671.602	-6.62
3674.352	-23.62
3677.101	-1.62
3679.847	-3.62
3682.591	-21.62
3685.333	-27.62
3688.073	-16.62
3690.811	-26.62
3693.547	-27.62
3696.281	-25.62
3699.013	-13.62
3701.742	-21.62
3704.47	-29.62
3707.195	-16.62
3709.919	-14.62
3712.64	-21.62
3715.359	-36.62
3718.076	-16.62
3720.792	-23.62
3723.505	-21.62
3726.216	-6.62
3728.925	-23.62
3731.632	-33.62
3734.336	-25.62
3737.039	-23.62
3739.74	-24.62
3742.439	-42.62
3745.136	-20.62
3747.83	-16.62
3750.523	-19.62
3753.213	-80.62
3755.902	-25.62
3758.589	-43.62
3761.273	-27.62
3763.956	-15.62
3766.636	-39.62
3769.315	-13.62
3771.991	-26.62
3774.665	-27.62
3777.338	-19.62
3780.008	-32.62
3782.677	-27.62
3785.343	-39.62
3788.007	-45.62
3790.67	-25.62
3793.33	-36.62
3795.989	-31.62
3798.645	-27.62
3801.299	-40.62
3803.952	-36.62
3806.602	-31.62
3809.251	-24.62
3811.897	-27.62
3814.542	-27.62
3817.184	-30.62
3819.825	-27.62
3822.463	-41.62
3825.1	-29.62
3827.735	-29.62
3830.367	-33.62
3832.998	-14.62
3835.627	-29.62
3838.253	-23.62
3840.878	-32.62
3843.501	-11.62
3846.122	-25.62
3848.741	-17.62
3851.358	-19.62
3853.973	-41.62
3856.586	-18.62
3859.197	-39.62
3861.806	-29.62
3864.414	-42.62
3867.019	-30.62
3869.622	-17.62
3872.224	-23.62
3874.823	-14.62
3877.421	-3.62
3880.016	3.38
3882.61	31.38
3885.202	34.38
3887.792	22.38
3890.38	7.38
3892.966	-25.62
3895.55	-32.62
3898.132	-20.62
3900.713	-23.62
3903.291	-26.62
3905.868	-37.62
3908.442	-29.62
3911.015	-30.62
3913.586	-35.62
3916.155	-31.62
3918.722	-35.62
3921.287	-30.62
3923.85	-43.62
3926.411	-36.62
3928.971	-36.62
3931.528	-23.62
3934.084	-37.62
3936.638	-40.62
3939.19	-27.62
3941.74	-30.62
3944.288	-30.62
3946.834	-34.62
3949.378	-19.62
3951.921	-34.62
3954.462	-33.62
3957	-31.62
3959.537	-24.62
3962.072	-33.62
3964.606	-42.62
3967.137	-37.62
3969.667	-36.62
3972.194	-24.62
3974.72	-33.62
3977.244	-51.62
3979.766	-43.62
3982.286	-34.62
3984.805	-25.62
3987.321	-17.62
3989.836	-28.62
3992.349	-37.62
3994.86	-26.62
3997.369	-35.62
3999.877	-30.62
4002.382	-35.62
4004.886	-26.62
4007.388	-27.62
4009.888	-19.62
4012.386	-22.62
4014.883	-24.62
4017.377	-27.62
4019.87	-26.62
4022.361	-36.62
4024.85	-32.62
4027.338	-25.62
4029.823	-32.62
4032.307	-28.62
4034.789	-29.62
4037.269	-29.62
4039.747	-43.62
4042.224	-24.62
4044.699	-34.62
4047.172	-31.62
4049.643	-23.62
4052.112	-52.62
4054.58	-28.62
4057.046	-39.62
4059.51	-29.62
4061.972	-25.62
4064.432	-44.62
4066.891	-15.62
4069.348	-28.62
4071.803	-23.62
4074.256	-34.62
4076.708	-27.62
4079.158	-27.62
4081.606	-17.62
4084.052	-30.62
4086.497	-22.62
4088.939	-28.62
4091.38	-30.62
4093.819	-24.62
4096.257	-0.62
4098.693	-3.62
4101.127	-5.62
4103.559	-0.62
4105.989	60.38
4108.418	62.38
4110.845	51.38
4113.27	75.38
4115.694	74.38
4118.115	69.38
4120.535	-30.62
4122.954	-25.62
4125.37	-19.62
4127.785	-27.62
4130.198	-19.62
4132.609	-25.62
4135.019	8.38
4137.427	3.38
4139.833	4.38
4142.237	-5.62
