Data from 2018-3-6_conc=5_n=5_RamanShift_04.txt Node
Date: Tue Mar 06 14:36:18 GMT+02:00 2018
User: LAB3
Spectrometer: QEPB0276
Trigger mode: 0
Integration Time (sec): 3.000000E1
Scans to average: 1
Electric dark correction enabled: true
Nonlinearity correction enabled: false
Boxcar width: 0
XAxis mode: Raman Shifts
Number of Pixels in Spectrum: 1044
>>>>>Begin Spectral Data<<<<<
160.701	47.12
166.742	69.12
172.777	97.12
178.805	192.12
184.826	470.12
190.841	944.12
196.849	1491.12
202.85	1884.12
208.845	2000.12
214.833	1990.12
220.815	1954.12
226.789	1913.12
232.758	1923.12
238.719	1903.12
244.674	1856.12
250.623	1841.12
256.565	1824.12
262.5	1787.12
268.429	1754.12
274.351	1747.12
280.267	1733.12
286.176	1731.12
292.079	1720.12
297.975	1726.12
303.865	1705.12
309.748	1716.12
315.625	1706.12
321.495	1705.12
327.359	1679.12
333.217	1701.12
339.068	1685.12
344.912	1699.12
350.751	1703.12
356.583	1713.12
362.408	1708.12
368.227	1711.12
374.04	1724.12
379.847	1721.12
385.647	1740.12
391.44	1715.12
397.228	1735.12
403.009	1759.12
408.784	1741.12
414.553	1765.12
420.315	1783.12
426.071	1750.12
431.821	1770.12
437.565	1761.12
443.302	1773.12
449.033	1743.12
454.758	1749.12
460.477	1703.12
466.189	1683.12
471.896	1696.12
477.596	1677.12
483.29	1651.12
488.978	1658.12
494.66	1644.12
500.335	1584.12
506.005	1533.12
511.668	1463.12
517.325	1383.12
522.977	1326.12
528.622	1303.12
534.261	1283.12
539.894	1253.12
545.521	1227.12
551.141	1187.12
556.756	1197.12
562.365	1170.12
567.968	1183.12
573.565	1152.12
579.155	1178.12
584.74	1152.12
590.319	1170.12
595.892	1145.12
601.459	1146.12
607.02	1137.12
612.575	1146.12
618.124	1136.12
623.667	1106.12
629.204	1092.12
634.735	1080.12
640.261	1060.12
645.781	1033.12
651.294	1040.12
656.802	1046.12
662.304	1058.12
667.8	1045.12
673.29	1036.12
678.775	1040.12
684.254	1032.12
689.726	1009.12
695.193	1017.12
700.655	1007.12
706.11	1009.12
711.56	1015.12
717.004	1005.12
722.442	990.12
727.874	980.12
733.301	1002.12
738.722	966.12
744.137	985.12
749.547	966.12
754.951	963.12
760.349	981.12
765.741	999.12
771.128	1000.12
776.509	987.12
781.885	1031.12
787.254	1027.12
792.618	1026.12
797.977	1023.12
803.33	1018.12
808.677	1013.12
814.019	1003.12
819.355	978.12
824.686	998.12
830.011	961.12
835.33	974.12
840.644	980.12
845.952	954.12
851.255	966.12
856.552	951.12
861.844	933.12
867.13	916.12
872.41	927.12
877.686	923.12
882.955	910.12
888.219	895.12
893.478	875.12
898.731	870.12
903.979	865.12
909.221	851.12
914.458	842.12
919.69	850.12
924.916	843.12
930.136	855.12
935.351	846.12
940.561	855.12
945.766	853.12
950.965	862.12
956.158	820.12
961.347	815.12
966.529	819.12
971.707	829.12
976.879	799.12
982.046	777.12
987.208	775.12
992.364	803.12
997.515	799.12
1002.66	795.12
1007.801	793.12
1012.936	796.12
1018.066	798.12
1023.19	811.12
1028.309	821.12
1033.423	825.12
1038.532	820.12
1043.636	814.12
1048.734	803.12
1053.827	801.12
1058.915	779.12
1063.998	779.12
1069.075	765.12
1074.147	774.12
1079.214	763.12
1084.276	773.12
1089.333	777.12
1094.385	784.12
1099.431	765.12
1104.472	776.12
1109.509	768.12
1114.54	751.12
1119.565	751.12
1124.586	738.12
1129.602	732.12
1134.613	684.12
1139.618	706.12
1144.619	714.12
1149.614	714.12
1154.604	704.12
1159.589	717.12
1164.57	735.12
1169.545	742.12
1174.515	737.12
1179.48	719.12
1184.44	732.12
1189.395	725.12
1194.345	708.12
1199.29	700.12
1204.23	705.12
1209.165	685.12
1214.095	712.12
1219.021	705.12
1223.941	697.12
1228.856	699.12
1233.766	732.12
1238.672	720.12
1243.572	719.12
1248.467	709.12
1253.358	693.12
1258.244	681.12
1263.124	693.12
1268	677.12
1272.871	645.12
1277.737	646.12
1282.599	638.12
1287.455	652.12
1292.306	645.12
1297.153	630.12
1301.995	648.12
1306.832	651.12
1311.664	648.12
1316.491	645.12
1321.314	643.12
1326.132	636.12
1330.945	643.12
1335.753	628.12
1340.556	609.12
1345.354	606.12
1350.148	595.12
1354.937	598.12
1359.722	570.12
1364.501	577.12
1369.276	587.12
1374.046	584.12
1378.811	577.12
1383.572	581.12
1388.327	582.12
1393.079	561.12
1397.825	551.12
1402.567	556.12
1407.304	550.12
1412.036	554.12
1416.764	551.12
1421.487	532.12
1426.205	538.12
1430.919	544.12
1435.628	550.12
1440.333	539.12
1445.032	552.12
1449.727	560.12
1454.418	562.12
1459.104	553.12
1463.785	534.12
1468.462	550.12
1473.134	531.12
1477.802	529.12
1482.465	488.12
1487.123	517.12
1491.777	490.12
1496.426	486.12
1501.071	510.12
1505.711	504.12
1510.347	506.12
1514.978	515.12
1519.604	504.12
1524.226	520.12
1528.844	496.12
1533.457	507.12
1538.065	503.12
1542.669	506.12
1547.269	492.12
1551.864	493.12
1556.454	479.12
1561.041	489.12
1565.622	479.12
1570.199	494.12
1574.772	498.12
1579.34	504.12
1583.904	509.12
1588.464	516.12
1593.019	520.12
1597.569	507.12
1602.115	506.12
1606.657	496.12
1611.195	525.12
1615.728	524.12
1620.256	495.12
1624.78	473.12
1629.3	487.12
1633.816	500.12
1638.327	486.12
1642.834	506.12
1647.336	506.12
1651.834	516.12
1656.328	506.12
1660.817	506.12
1665.302	494.12
1669.783	480.12
1674.259	474.12
1678.732	473.12
1683.199	459.12
1687.663	435.12
1692.122	443.12
1696.577	427.12
1701.028	431.12
1705.474	411.12
1709.917	395.12
1714.355	395.12
1718.788	381.12
1723.218	380.12
1727.643	367.12
1732.064	385.12
1736.481	358.12
1740.893	373.12
1745.301	355.12
1749.705	325.12
1754.105	349.12
1758.501	343.12
1762.893	338.12
1767.28	313.12
1771.663	320.12
1776.042	314.12
1780.417	302.12
1784.787	316.12
1789.154	317.12
1793.516	320.12
1797.874	313.12
1802.228	310.12
1806.578	297.12
1810.924	317.12
1815.266	191.12
1819.603	317.12
1823.937	294.12
1828.266	302.12
1832.591	296.12
1836.913	301.12
1841.23	282.12
1845.543	279.12
1849.852	299.12
1854.156	286.12
1858.457	285.12
1862.754	274.12
1867.047	283.12
1871.335	304.12
1875.62	301.12
1879.9	286.12
1884.177	286.12
1888.449	290.12
1892.718	281.12
1896.982	287.12
1901.243	265.12
1905.499	274.12
1909.752	268.12
1914	263.12
1918.245	285.12
1922.485	279.12
1926.722	270.12
1930.954	267.12
1935.183	276.12
1939.408	288.12
1943.628	276.12
1947.845	283.12
1952.058	271.12
1956.267	259.12
1960.472	266.12
1964.673	254.12
1968.87	260.12
1973.063	261.12
1977.252	256.12
1981.438	249.12
1985.619	244.12
1989.797	226.12
1993.971	232.12
1998.14	246.12
2002.306	237.12
2006.469	243.12
2010.627	222.12
2014.781	234.12
2018.932	227.12
2023.078	245.12
2027.221	239.12
2031.36	231.12
2035.495	220.12
2039.627	221.12
2043.754	227.12
2047.878	217.12
2051.998	214.12
2056.114	216.12
2060.226	212.12
2064.334	223.12
2068.439	218.12
2072.54	224.12
2076.637	218.12
2080.73	210.12
2084.82	214.12
2088.906	209.12
2092.988	205.12
2097.066	215.12
2101.14	224.12
2105.211	221.12
2109.278	215.12
2113.342	201.12
2117.401	195.12
2121.457	190.12
2125.509	193.12
2129.558	200.12
2133.602	193.12
2137.643	194.12
2141.681	190.12
2145.714	197.12
2149.744	192.12
2153.77	188.12
2157.793	179.12
2161.812	163.12
2165.827	165.12
2169.838	187.12
2173.846	171.12
2177.851	163.12
2181.851	182.12
2185.848	165.12
2189.841	173.12
2193.831	161.12
2197.817	166.12
2201.799	160.12
2205.778	151.12
2209.753	146.12
2213.725	141.12
2217.693	152.12
2221.657	152.12
2225.618	161.12
2229.575	160.12
2233.529	152.12
2237.479	162.12
2241.425	148.12
2245.368	138.12
2249.307	145.12
2253.243	147.12
2257.175	149.12
2261.104	138.12
2265.029	142.12
2268.95	134.12
2272.868	128.12
2276.783	128.12
2280.694	138.12
2284.601	133.12
2288.505	128.12
2292.405	148.12
2296.302	109.12
2300.195	127.12
2304.085	95.12
2307.971	125.12
2311.854	101.12
2315.734	110.12
2319.609	119.12
2323.482	97.12
2327.351	106.12
2331.216	109.12
2335.078	110.12
2338.937	111.12
2342.792	102.12
2346.643	104.12
2350.492	109.12
2354.336	102.12
2358.178	113.12
2362.015	112.12
2365.85	100.12
2369.681	100.12
2373.508	102.12
2377.333	111.12
2381.153	103.12
2384.971	98.12
2388.785	107.12
2392.595	89.12
2396.402	95.12
2400.206	66.12
2404.007	91.12
2407.804	90.12
2411.597	101.12
2415.388	91.12
2419.174	92.12
2422.958	96.12
2426.738	91.12
2430.515	96.12
2434.289	81.12
2438.059	80.12
2441.825	85.12
2445.589	99.12
2449.349	75.12
2453.106	85.12
2456.859	87.12
2460.61	86.12
2464.356	75.12
2468.1	72.12
2471.84	70.12
2475.577	77.12
2479.311	68.12
2483.041	77.12
2486.768	78.12
2490.492	94.12
2494.213	77.12
2497.93	64.12
2501.644	53.12
2505.355	69.12
2509.062	67.12
2512.766	72.12
2516.467	71.12
2520.165	68.12
2523.859	59.12
2527.551	89.12
2531.239	60.12
2534.923	66.12
2538.605	67.12
2542.283	63.12
2545.958	69.12
2549.63	77.12
2553.299	77.12
2556.964	62.12
2560.626	62.12
2564.285	64.12
2567.941	53.12
2571.594	57.12
2575.243	69.12
2578.89	54.12
2582.533	63.12
2586.173	68.12
2589.809	71.12
2593.443	37.12
2597.073	55.12
2600.701	69.12
2604.325	57.12
2607.946	54.12
2611.564	66.12
2615.178	65.12
2618.79	51.12
2622.398	56.12
2626.004	57.12
2629.606	60.12
2633.205	48.12
2636.801	60.12
2640.394	55.12
2643.983	50.12
2647.57	43.12
2651.153	43.12
2654.734	58.12
2658.311	27.12
2661.885	42.12
2665.456	44.12
2669.025	48.12
2672.589	40.12
2676.151	56.12
2679.71	52.12
2683.266	43.12
2686.819	44.12
2690.368	50.12
2693.915	49.12
2697.458	43.12
2700.999	54.12
2704.536	50.12
2708.071	43.12
2711.602	44.12
2715.13	42.12
2718.656	22.12
2722.178	42.12
2725.697	28.12
2729.214	34.12
2732.727	41.12
2736.237	27.12
2739.744	32.12
2743.249	29.12
2746.75	34.12
2750.248	32.12
2753.743	34.12
2757.236	31.12
2760.725	37.12
2764.211	5.12
2767.695	35.12
2771.175	35.12
2774.652	36.12
2778.127	30.12
2781.598	27.12
2785.067	33.12
2788.532	20.12
2791.995	30.12
2795.455	24.12
2798.911	34.12
2802.365	27.12
2805.816	32.12
2809.264	43.12
2812.709	27.12
2816.151	34.12
2819.59	24.12
2823.026	27.12
2826.46	22.12
2829.89	40.12
2833.318	6.12
2836.742	23.12
2840.164	24.12
2843.583	32.12
2846.999	27.12
2850.412	37.12
2853.822	30.12
2857.229	43.12
2860.634	35.12
2864.035	16.12
2867.434	40.12
2870.83	35.12
2874.223	23.12
2877.613	33.12
2881	22.12
2884.385	24.12
2887.766	25.12
2891.145	26.12
2894.521	30.12
2897.894	20.12
2901.264	41.12
2904.631	35.12
2907.996	47.12
2911.358	38.12
2914.717	38.12
2918.073	28.12
2921.426	30.12
2924.777	20.12
2928.124	33.12
2931.469	46.12
2934.811	25.12
2938.15	54.12
2941.487	37.12
2944.821	57.12
2948.152	44.12
2951.48	56.12
2954.805	37.12
2958.128	60.12
2961.447	35.12
2964.765	55.12
2968.079	41.12
2971.39	42.12
2974.699	45.12
2978.005	49.12
2981.308	46.12
2984.609	38.12
2987.907	52.12
2991.202	55.12
2994.494	37.12
2997.784	48.12
3001.07	48.12
3004.355	43.12
3007.636	50.12
3010.915	49.12
3014.191	40.12
3017.464	51.12
3020.734	50.12
3024.002	50.12
3027.267	51.12
3030.53	60.12
3033.789	49.12
3037.046	53.12
3040.301	46.12
3043.552	56.12
3046.801	63.12
3050.048	71.12
3053.291	80.12
3056.532	65.12
3059.771	56.12
3063.006	80.12
3066.239	69.12
3069.469	79.12
3072.697	68.12
3075.922	76.12
3079.144	72.12
3082.364	102.12
3085.581	74.12
3088.795	102.12
3092.007	96.12
3095.216	104.12
3098.423	96.12
3101.627	73.12
3104.828	100.12
3108.026	94.12
3111.222	111.12
3114.416	117.12
3117.607	112.12
3120.795	107.12
3123.98	114.12
3127.163	105.12
3130.344	117.12
3133.521	112.12
3136.696	136.12
3139.869	135.12
3143.039	112.12
3146.206	150.12
3149.371	134.12
3152.533	140.12
3155.693	122.12
3158.85	146.12
3162.005	138.12
3165.157	139.12
3168.306	140.12
3171.453	158.12
3174.597	137.12
3177.739	131.12
3180.878	146.12
3184.014	148.12
3187.149	152.12
3190.28	155.12
3193.409	158.12
3196.536	153.12
3199.659	160.12
3202.781	161.12
3205.9	140.12
3209.016	156.12
3212.13	146.12
3215.241	142.12
3218.35	150.12
3221.456	146.12
3224.56	132.12
3227.661	132.12
3230.76	141.12
3233.856	129.12
3236.95	143.12
3240.041	130.12
3243.13	141.12
3246.216	138.12
3249.3	144.12
3252.382	131.12
3255.46	121.12
3258.537	86.12
3261.611	124.12
3264.682	124.12
3267.751	125.12
3270.818	116.12
3273.882	131.12
3276.943	120.12
3280.002	138.12
3283.059	114.12
3286.113	127.12
3289.165	116.12
3292.214	109.12
3295.261	124.12
3298.306	103.12
3301.348	121.12
3304.387	105.12
3307.425	114.12
3310.459	103.12
3313.492	120.12
3316.521	106.12
3319.549	122.12
3322.574	114.12
3325.597	102.12
3328.617	98.12
3331.635	106.12
3334.65	86.12
3337.663	102.12
3340.674	100.12
3343.682	102.12
3346.688	105.12
3349.691	94.12
3352.692	96.12
3355.691	103.12
3358.687	92.12
3361.681	98.12
3364.673	99.12
3367.662	100.12
3370.649	101.12
3373.633	88.12
3376.615	95.12
3379.595	79.12
3382.572	82.12
3385.547	84.12
3388.52	78.12
3391.49	81.12
3394.458	81.12
3397.424	84.12
3400.387	74.12
3403.348	79.12
3406.307	75.12
3409.263	74.12
3412.217	85.12
3415.168	80.12
3418.118	86.12
3421.065	69.12
3424.009	82.12
3426.951	68.12
3429.891	71.12
3432.829	66.12
3435.764	73.12
3438.697	58.12
3441.628	77.12
3444.557	52.12
3447.483	51.12
3450.407	58.12
3453.328	48.12
3456.247	53.12
3459.164	46.12
3462.079	63.12
3464.991	46.12
3467.902	45.12
3470.809	41.12
3473.715	47.12
3476.618	34.12
3479.519	39.12
3482.418	25.12
3485.315	30.12
3488.209	28.12
3491.101	28.12
3493.99	22.12
3496.878	17.12
3499.763	29.12
3502.646	27.12
3505.527	17.12
3508.405	11.12
3511.281	6.12
3514.155	22.12
3517.027	10.12
3519.897	-0.88
3522.764	12.12
3525.629	-6.88
3528.492	13.12
3531.352	11.12
3534.211	6.12
3537.067	-4.88
3539.921	1.12
3542.773	8.12
3545.622	-7.88
3548.469	-9.88
3551.315	-10.88
3554.157	1.12
3556.998	-7.88
3559.837	-1.88
3562.673	1.12
3565.507	-10.88
3568.339	-13.88
3571.169	-11.88
3573.996	-2.88
3576.822	-25.88
3579.645	-15.88
3582.466	-19.88
3585.285	-15.88
3588.101	-16.88
3590.916	-14.88
3593.728	-5.88
3596.538	-12.88
3599.346	-15.88
3602.152	-23.88
3604.956	-18.88
3607.757	-9.88
3610.556	-27.88
3613.354	-14.88
3616.149	-14.88
3618.942	-14.88
3621.732	-16.88
3624.521	-29.88
3627.307	-31.88
3630.092	-27.88
3632.874	-11.88
3635.654	-21.88
3638.432	-26.88
3641.208	-26.88
3643.982	-26.88
3646.753	-16.88
3649.523	-47.88
3652.29	-27.88
3655.055	-24.88
3657.818	-24.88
3660.579	-27.88
3663.338	-38.88
3666.095	-28.88
3668.849	-48.88
3671.602	-19.88
3674.352	-37.88
3677.101	-21.88
3679.847	-19.88
3682.591	-37.88
3685.333	-39.88
3688.073	-27.88
3690.811	-37.88
3693.547	-42.88
3696.281	-39.88
3699.013	-30.88
3701.742	-31.88
3704.47	-39.88
3707.195	-22.88
3709.919	-27.88
3712.64	-30.88
3715.359	-39.88
3718.076	-18.88
3720.792	-31.88
3723.505	-29.88
3726.216	-22.88
3728.925	-36.88
3731.632	-43.88
3734.336	-30.88
3737.039	-32.88
3739.74	-24.88
3742.439	-58.88
3745.136	-25.88
3747.83	-28.88
3750.523	-26.88
3753.213	-97.88
3755.902	-33.88
3758.589	-49.88
3761.273	-38.88
3763.956	-23.88
3766.636	-45.88
3769.315	-24.88
3771.991	-35.88
3774.665	-33.88
3777.338	-36.88
3780.008	-41.88
3782.677	-35.88
3785.343	-48.88
3788.007	-53.88
3790.67	-27.88
3793.33	-43.88
3795.989	-40.88
3798.645	-33.88
3801.299	-44.88
3803.952	-43.88
3806.602	-36.88
3809.251	-30.88
3811.897	-36.88
3814.542	-36.88
3817.184	-37.88
3819.825	-33.88
3822.463	-50.88
3825.1	-35.88
3827.735	-34.88
3830.367	-43.88
3832.998	-26.88
3835.627	-37.88
3838.253	-30.88
3840.878	-38.88
3843.501	-24.88
3846.122	-28.88
3848.741	-29.88
3851.358	-26.88
3853.973	-45.88
3856.586	-25.88
3859.197	-43.88
3861.806	-32.88
3864.414	-45.88
3867.019	-35.88
3869.622	-23.88
3872.224	-25.88
3874.823	-16.88
3877.421	1.12
3880.016	5.12
3882.61	36.12
3885.202	39.12
3887.792	24.12
3890.38	-0.88
3892.966	-20.88
3895.55	-38.88
3898.132	-27.88
3900.713	-26.88
3903.291	-31.88
3905.868	-40.88
3908.442	-36.88
3911.015	-30.88
3913.586	-36.88
3916.155	-37.88
3918.722	-38.88
3921.287	-39.88
3923.85	-50.88
3926.411	-45.88
3928.971	-42.88
3931.528	-30.88
3934.084	-40.88
3936.638	-48.88
3939.19	-34.88
3941.74	-36.88
3944.288	-41.88
3946.834	-42.88
3949.378	-27.88
3951.921	-42.88
3954.462	-41.88
3957	-35.88
3959.537	-27.88
3962.072	-42.88
3964.606	-50.88
3967.137	-41.88
3969.667	-39.88
3972.194	-32.88
3974.72	-38.88
3977.244	-63.88
3979.766	-44.88
3982.286	-48.88
3984.805	-31.88
3987.321	-25.88
3989.836	-33.88
3992.349	-43.88
3994.86	-35.88
3997.369	-44.88
3999.877	-43.88
4002.382	-42.88
4004.886	-33.88
4007.388	-35.88
4009.888	-26.88
4012.386	-25.88
4014.883	-32.88
4017.377	-34.88
4019.87	-30.88
4022.361	-48.88
4024.85	-35.88
4027.338	-31.88
4029.823	-38.88
4032.307	-37.88
4034.789	-34.88
4037.269	-31.88
4039.747	-52.88
4042.224	-28.88
4044.699	-43.88
4047.172	-40.88
4049.643	-28.88
4052.112	-57.88
4054.58	-36.88
4057.046	-46.88
4059.51	-36.88
4061.972	-38.88
4064.432	-54.88
4066.891	-24.88
4069.348	-35.88
4071.803	-30.88
4074.256	-39.88
4076.708	-32.88
4079.158	-36.88
4081.606	-22.88
4084.052	-33.88
4086.497	-29.88
4088.939	-33.88
4091.38	-36.88
4093.819	-31.88
4096.257	3.12
4098.693	-4.88
4101.127	-6.88
4103.559	3.12
4105.989	49.12
4108.418	53.12
4110.845	47.12
4113.27	48.12
4115.694	53.12
4118.115	39.12
4120.535	-32.88
4122.954	-27.88
4125.37	-24.88
4127.785	-30.88
4130.198	-30.88
4132.609	-28.88
4135.019	6.12
4137.427	0.12
4139.833	4.12
4142.237	-4.88
