Data from 2018-3-6_conc=4_n=9_RamanShift_05.txt Node
Date: Tue Mar 06 14:17:48 GMT+02:00 2018
User: LAB3
Spectrometer: QEPB0276
Trigger mode: 0
Integration Time (sec): 3.000000E1
Scans to average: 1
Electric dark correction enabled: true
Nonlinearity correction enabled: false
Boxcar width: 0
XAxis mode: Raman Shifts
Number of Pixels in Spectrum: 1044
>>>>>Begin Spectral Data<<<<<
160.701	71.62
166.742	92.62
172.777	127.62
178.805	272.62
184.826	628.62
190.841	1233.62
196.849	1930.62
202.85	2453.62
208.845	2602.62
214.833	2563.62
220.815	2500.62
226.789	2487.62
232.758	2498.62
238.719	2471.62
244.674	2412.62
250.623	2399.62
256.565	2340.62
262.5	2295.62
268.429	2268.62
274.351	2238.62
280.267	2241.62
286.176	2227.62
292.079	2229.62
297.975	2237.62
303.865	2197.62
309.748	2192.62
315.625	2167.62
321.495	2184.62
327.359	2177.62
333.217	2180.62
339.068	2181.62
344.912	2187.62
350.751	2192.62
356.583	2187.62
362.408	2213.62
368.227	2204.62
374.04	2219.62
379.847	2225.62
385.647	2227.62
391.44	2211.62
397.228	2230.62
403.009	2248.62
408.784	2268.62
414.553	2250.62
420.315	2273.62
426.071	2255.62
431.821	2267.62
437.565	2282.62
443.302	2250.62
449.033	2219.62
454.758	2233.62
460.477	2221.62
466.189	2193.62
471.896	2178.62
477.596	2152.62
483.29	2113.62
488.978	2139.62
494.66	2109.62
500.335	2070.62
506.005	1967.62
511.668	1891.62
517.325	1798.62
522.977	1714.62
528.622	1671.62
534.261	1648.62
539.894	1612.62
545.521	1572.62
551.141	1544.62
556.756	1530.62
562.365	1527.62
567.968	1522.62
573.565	1514.62
579.155	1505.62
584.74	1456.62
590.319	1490.62
595.892	1478.62
601.459	1494.62
607.02	1479.62
612.575	1465.62
618.124	1456.62
623.667	1417.62
629.204	1404.62
634.735	1392.62
640.261	1369.62
645.781	1337.62
651.294	1351.62
656.802	1364.62
662.304	1346.62
667.8	1356.62
673.29	1335.62
678.775	1349.62
684.254	1343.62
689.726	1311.62
695.193	1321.62
700.655	1309.62
706.11	1308.62
711.56	1302.62
717.004	1278.62
722.442	1280.62
727.874	1269.62
733.301	1287.62
738.722	1251.62
744.137	1261.62
749.547	1254.62
754.951	1264.62
760.349	1250.62
765.741	1282.62
771.128	1276.62
776.509	1301.62
781.885	1305.62
787.254	1332.62
792.618	1306.62
797.977	1327.62
803.33	1311.62
808.677	1304.62
814.019	1284.62
819.355	1271.62
824.686	1270.62
830.011	1250.62
835.33	1272.62
840.644	1266.62
845.952	1226.62
851.255	1227.62
856.552	1235.62
861.844	1207.62
867.13	1177.62
872.41	1166.62
877.686	1171.62
882.955	1164.62
888.219	1146.62
893.478	1129.62
898.731	1136.62
903.979	1121.62
909.221	1100.62
914.458	1099.62
919.69	1083.62
924.916	1085.62
930.136	1089.62
935.351	1094.62
940.561	1089.62
945.766	1100.62
950.965	1095.62
956.158	1071.62
961.347	1074.62
966.529	1064.62
971.707	1059.62
976.879	1029.62
982.046	1020.62
987.208	994.62
992.364	1015.62
997.515	1015.62
1002.66	1022.62
1007.801	1025.62
1012.936	1036.62
1018.066	1024.62
1023.19	1035.62
1028.309	1042.62
1033.423	1052.62
1038.532	1052.62
1043.636	1045.62
1048.734	1028.62
1053.827	1020.62
1058.915	988.62
1063.998	997.62
1069.075	997.62
1074.147	1055.62
1079.214	993.62
1084.276	1008.62
1089.333	1007.62
1094.385	1007.62
1099.431	1009.62
1104.472	999.62
1109.509	996.62
1114.54	981.62
1119.565	964.62
1124.586	935.62
1129.602	922.62
1134.613	907.62
1139.618	921.62
1144.619	921.62
1149.614	914.62
1154.604	917.62
1159.589	922.62
1164.57	946.62
1169.545	938.62
1174.515	947.62
1179.48	927.62
1184.44	933.62
1189.395	920.62
1194.345	919.62
1199.29	907.62
1204.23	907.62
1209.165	887.62
1214.095	897.62
1219.021	895.62
1223.941	905.62
1228.856	913.62
1233.766	923.62
1238.672	927.62
1243.572	925.62
1248.467	903.62
1253.358	894.62
1258.244	872.62
1263.124	879.62
1268	857.62
1272.871	819.62
1277.737	844.62
1282.599	835.62
1287.455	833.62
1292.306	833.62
1297.153	827.62
1301.995	829.62
1306.832	831.62
1311.664	833.62
1316.491	831.62
1321.314	836.62
1326.132	825.62
1330.945	819.62
1335.753	808.62
1340.556	790.62
1345.354	771.62
1350.148	765.62
1354.937	747.62
1359.722	737.62
1364.501	734.62
1369.276	735.62
1374.046	751.62
1378.811	734.62
1383.572	747.62
1388.327	752.62
1393.079	712.62
1397.825	719.62
1402.567	718.62
1407.304	714.62
1412.036	701.62
1416.764	717.62
1421.487	694.62
1426.205	699.62
1430.919	702.62
1435.628	714.62
1440.333	704.62
1445.032	713.62
1449.727	718.62
1454.418	727.62
1459.104	716.62
1463.785	695.62
1468.462	708.62
1473.134	691.62
1477.802	673.62
1482.465	649.62
1487.123	662.62
1491.777	628.62
1496.426	629.62
1501.071	653.62
1505.711	626.62
1510.347	650.62
1514.978	647.62
1519.604	650.62
1524.226	667.62
1528.844	638.62
1533.457	655.62
1538.065	635.62
1542.669	642.62
1547.269	629.62
1551.864	641.62
1556.454	628.62
1561.041	632.62
1565.622	626.62
1570.199	649.62
1574.772	643.62
1579.34	647.62
1583.904	665.62
1588.464	666.62
1593.019	670.62
1597.569	667.62
1602.115	645.62
1606.657	645.62
1611.195	663.62
1615.728	671.62
1620.256	650.62
1624.78	632.62
1629.3	634.62
1633.816	639.62
1638.327	638.62
1642.834	662.62
1647.336	649.62
1651.834	659.62
1656.328	667.62
1660.817	648.62
1665.302	631.62
1669.783	620.62
1674.259	616.62
1678.732	603.62
1683.199	594.62
1687.663	563.62
1692.122	560.62
1696.577	553.62
1701.028	541.62
1705.474	518.62
1709.917	522.62
1714.355	511.62
1718.788	496.62
1723.218	497.62
1727.643	473.62
1732.064	497.62
1736.481	470.62
1740.893	476.62
1745.301	457.62
1749.705	427.62
1754.105	448.62
1758.501	428.62
1762.893	430.62
1767.28	408.62
1771.663	404.62
1776.042	399.62
1780.417	400.62
1784.787	409.62
1789.154	416.62
1793.516	405.62
1797.874	406.62
1802.228	396.62
1806.578	390.62
1810.924	400.62
1815.266	279.62
1819.603	390.62
1823.937	379.62
1828.266	376.62
1832.591	373.62
1836.913	381.62
1841.23	370.62
1845.543	364.62
1849.852	383.62
1854.156	365.62
1858.457	372.62
1862.754	363.62
1867.047	362.62
1871.335	377.62
1875.62	369.62
1879.9	368.62
1884.177	360.62
1888.449	364.62
1892.718	363.62
1896.982	366.62
1901.243	340.62
1905.499	340.62
1909.752	341.62
1914	326.62
1918.245	353.62
1922.485	353.62
1926.722	343.62
1930.954	335.62
1935.183	347.62
1939.408	355.62
1943.628	343.62
1947.845	347.62
1952.058	340.62
1956.267	329.62
1960.472	340.62
1964.673	332.62
1968.87	325.62
1973.063	319.62
1977.252	324.62
1981.438	320.62
1985.619	311.62
1989.797	297.62
1993.971	304.62
1998.14	313.62
2002.306	308.62
2006.469	321.62
2010.627	294.62
2014.781	306.62
2018.932	290.62
2023.078	315.62
2027.221	295.62
2031.36	292.62
2035.495	288.62
2039.627	289.62
2043.754	286.62
2047.878	281.62
2051.998	274.62
2056.114	272.62
2060.226	276.62
2064.334	290.62
2068.439	286.62
2072.54	286.62
2076.637	270.62
2080.73	274.62
2084.82	282.62
2088.906	269.62
2092.988	281.62
2097.066	272.62
2101.14	286.62
2105.211	274.62
2109.278	267.62
2113.342	262.62
2117.401	258.62
2121.457	251.62
2125.509	249.62
2129.558	258.62
2133.602	252.62
2137.643	260.62
2141.681	239.62
2145.714	248.62
2149.744	250.62
2153.77	237.62
2157.793	240.62
2161.812	214.62
2165.827	219.62
2169.838	237.62
2173.846	220.62
2177.851	225.62
2181.851	228.62
2185.848	219.62
2189.841	224.62
2193.831	212.62
2197.817	211.62
2201.799	217.62
2205.778	194.62
2209.753	200.62
2213.725	199.62
2217.693	206.62
2221.657	196.62
2225.618	212.62
2229.575	201.62
2233.529	216.62
2237.479	212.62
2241.425	192.62
2245.368	181.62
2249.307	193.62
2253.243	184.62
2257.175	193.62
2261.104	170.62
2265.029	184.62
2268.95	181.62
2272.868	174.62
2276.783	161.62
2280.694	174.62
2284.601	175.62
2288.505	163.62
2292.405	170.62
2296.302	149.62
2300.195	159.62
2304.085	133.62
2307.971	164.62
2311.854	138.62
2315.734	145.62
2319.609	152.62
2323.482	133.62
2327.351	137.62
2331.216	135.62
2335.078	147.62
2338.937	138.62
2342.792	132.62
2346.643	126.62
2350.492	145.62
2354.336	138.62
2358.178	143.62
2362.015	138.62
2365.85	136.62
2369.681	140.62
2373.508	140.62
2377.333	145.62
2381.153	147.62
2384.971	137.62
2388.785	142.62
2392.595	124.62
2396.402	129.62
2400.206	109.62
2404.007	123.62
2407.804	127.62
2411.597	135.62
2415.388	128.62
2419.174	121.62
2422.958	127.62
2426.738	123.62
2430.515	129.62
2434.289	115.62
2438.059	118.62
2441.825	117.62
2445.589	125.62
2449.349	107.62
2453.106	124.62
2456.859	116.62
2460.61	125.62
2464.356	103.62
2468.1	103.62
2471.84	100.62
2475.577	108.62
2479.311	105.62
2483.041	106.62
2486.768	114.62
2490.492	117.62
2494.213	106.62
2497.93	92.62
2501.644	87.62
2505.355	101.62
2509.062	102.62
2512.766	106.62
2516.467	95.62
2520.165	96.62
2523.859	90.62
2527.551	118.62
2531.239	90.62
2534.923	101.62
2538.605	91.62
2542.283	98.62
2545.958	92.62
2549.63	103.62
2553.299	104.62
2556.964	83.62
2560.626	91.62
2564.285	91.62
2567.941	82.62
2571.594	73.62
2575.243	89.62
2578.89	79.62
2582.533	85.62
2586.173	82.62
2589.809	89.62
2593.443	62.62
2597.073	87.62
2600.701	89.62
2604.325	83.62
2607.946	67.62
2611.564	90.62
2615.178	78.62
2618.79	83.62
2622.398	74.62
2626.004	81.62
2629.606	72.62
2633.205	63.62
2636.801	74.62
2640.394	78.62
2643.983	68.62
2647.57	67.62
2651.153	67.62
2654.734	74.62
2658.311	48.62
2661.885	64.62
2665.456	61.62
2669.025	65.62
2672.589	61.62
2676.151	70.62
2679.71	72.62
2683.266	56.62
2686.819	55.62
2690.368	64.62
2693.915	68.62
2697.458	59.62
2700.999	64.62
2704.536	72.62
2708.071	55.62
2711.602	60.62
2715.13	58.62
2718.656	36.62
2722.178	49.62
2725.697	45.62
2729.214	44.62
2732.727	55.62
2736.237	38.62
2739.744	44.62
2743.249	41.62
2746.75	51.62
2750.248	43.62
2753.743	48.62
2757.236	42.62
2760.725	57.62
2764.211	24.62
2767.695	55.62
2771.175	39.62
2774.652	51.62
2778.127	43.62
2781.598	47.62
2785.067	49.62
2788.532	38.62
2791.995	46.62
2795.455	44.62
2798.911	54.62
2802.365	46.62
2805.816	51.62
2809.264	50.62
2812.709	38.62
2816.151	48.62
2819.59	37.62
2823.026	41.62
2826.46	37.62
2829.89	56.62
2833.318	24.62
2836.742	42.62
2840.164	45.62
2843.583	43.62
2846.999	46.62
2850.412	46.62
2853.822	34.62
2857.229	54.62
2860.634	43.62
2864.035	37.62
2867.434	58.62
2870.83	51.62
2874.223	48.62
2877.613	50.62
2881	38.62
2884.385	45.62
2887.766	48.62
2891.145	49.62
2894.521	44.62
2897.894	38.62
2901.264	59.62
2904.631	55.62
2907.996	53.62
2911.358	62.62
2914.717	57.62
2918.073	58.62
2921.426	50.62
2924.777	34.62
2928.124	56.62
2931.469	69.62
2934.811	51.62
2938.15	71.62
2941.487	61.62
2944.821	78.62
2948.152	63.62
2951.48	69.62
2954.805	53.62
2958.128	81.62
2961.447	62.62
2964.765	79.62
2968.079	66.62
2971.39	72.62
2974.699	70.62
2978.005	71.62
2981.308	69.62
2984.609	64.62
2987.907	73.62
2991.202	74.62
2994.494	58.62
2997.784	69.62
3001.07	68.62
3004.355	74.62
3007.636	73.62
3010.915	72.62
3014.191	75.62
3017.464	76.62
3020.734	75.62
3024.002	78.62
3027.267	75.62
3030.53	82.62
3033.789	77.62
3037.046	86.62
3040.301	82.62
3043.552	85.62
3046.801	87.62
3050.048	98.62
3053.291	113.62
3056.532	101.62
3059.771	80.62
3063.006	103.62
3066.239	104.62
3069.469	114.62
3072.697	101.62
3075.922	105.62
3079.144	115.62
3082.364	137.62
3085.581	110.62
3088.795	143.62
3092.007	128.62
3095.216	141.62
3098.423	130.62
3101.627	119.62
3104.828	139.62
3108.026	132.62
3111.222	154.62
3114.416	167.62
3117.607	161.62
3120.795	157.62
3123.98	168.62
3127.163	148.62
3130.344	161.62
3133.521	159.62
3136.696	175.62
3139.869	169.62
3143.039	163.62
3146.206	197.62
3149.371	195.62
3152.533	192.62
3155.693	182.62
3158.85	191.62
3162.005	201.62
3165.157	192.62
3168.306	194.62
3171.453	207.62
3174.597	187.62
3177.739	187.62
3180.878	202.62
3184.014	205.62
3187.149	194.62
3190.28	203.62
3193.409	214.62
3196.536	199.62
3199.659	214.62
3202.781	211.62
3205.9	200.62
3209.016	200.62
3212.13	203.62
3215.241	200.62
3218.35	200.62
3221.456	193.62
3224.56	179.62
3227.661	188.62
3230.76	189.62
3233.856	184.62
3236.95	192.62
3240.041	181.62
3243.13	190.62
3246.216	187.62
3249.3	185.62
3252.382	188.62
3255.46	170.62
3258.537	135.62
3261.611	167.62
3264.682	179.62
3267.751	171.62
3270.818	164.62
3273.882	182.62
3276.943	163.62
3280.002	189.62
3283.059	164.62
3286.113	167.62
3289.165	163.62
3292.214	152.62
3295.261	181.62
3298.306	156.62
3301.348	162.62
3304.387	144.62
3307.425	163.62
3310.459	152.62
3313.492	159.62
3316.521	146.62
3319.549	161.62
3322.574	156.62
3325.597	150.62
3328.617	147.62
3331.635	142.62
3334.65	137.62
3337.663	144.62
3340.674	144.62
3343.682	146.62
3346.688	150.62
3349.691	140.62
3352.692	138.62
3355.691	150.62
3358.687	141.62
3361.681	141.62
3364.673	139.62
3367.662	139.62
3370.649	145.62
3373.633	129.62
3376.615	135.62
3379.595	119.62
3382.572	123.62
3385.547	112.62
3388.52	116.62
3391.49	119.62
3394.458	118.62
3397.424	117.62
3400.387	103.62
3403.348	116.62
3406.307	118.62
3409.263	107.62
3412.217	120.62
3415.168	111.62
3418.118	123.62
3421.065	107.62
3424.009	115.62
3426.951	106.62
3429.891	97.62
3432.829	101.62
3435.764	102.62
3438.697	89.62
3441.628	105.62
3444.557	82.62
3447.483	81.62
3450.407	92.62
3453.328	82.62
3456.247	77.62
3459.164	67.62
3462.079	86.62
3464.991	76.62
3467.902	66.62
3470.809	67.62
3473.715	74.62
3476.618	59.62
3479.519	64.62
3482.418	46.62
3485.315	50.62
3488.209	46.62
3491.101	52.62
3493.99	32.62
3496.878	41.62
3499.763	44.62
3502.646	45.62
3505.527	37.62
3508.405	31.62
3511.281	19.62
3514.155	36.62
3517.027	30.62
3519.897	20.62
3522.764	26.62
3525.629	7.62
3528.492	19.62
3531.352	21.62
3534.211	18.62
3537.067	12.62
3539.921	13.62
3542.773	20.62
3545.622	2.62
3548.469	-0.38
3551.315	-1.38
3554.157	4.62
3556.998	0.62
3559.837	1.62
3562.673	3.62
3565.507	-7.38
3568.339	-10.38
3571.169	-1.38
3573.996	-3.38
3576.822	-18.38
3579.645	-11.38
3582.466	-8.38
3585.285	0.62
3588.101	-8.38
3590.916	-13.38
3593.728	-0.38
3596.538	-10.38
3599.346	-10.38
3602.152	-18.38
3604.956	-10.38
3607.757	-2.38
3610.556	-21.38
3613.354	-9.38
3616.149	-13.38
3618.942	-6.38
3621.732	-9.38
3624.521	-17.38
3627.307	-24.38
3630.092	-26.38
3632.874	-8.38
3635.654	-16.38
3638.432	-21.38
3641.208	-24.38
3643.982	-24.38
3646.753	-9.38
3649.523	-45.38
3652.29	-21.38
3655.055	-21.38
3657.818	-23.38
3660.579	-26.38
3663.338	-37.38
3666.095	-25.38
3668.849	-52.38
3671.602	-21.38
3674.352	-38.38
3677.101	-20.38
3679.847	-20.38
3682.591	-36.38
3685.333	-36.38
3688.073	-24.38
3690.811	-34.38
3693.547	-38.38
3696.281	-34.38
3699.013	-25.38
3701.742	-32.38
3704.47	-43.38
3707.195	-26.38
3709.919	-25.38
3712.64	-28.38
3715.359	-40.38
3718.076	-18.38
3720.792	-27.38
3723.505	-27.38
3726.216	-17.38
3728.925	-37.38
3731.632	-41.38
3734.336	-24.38
3737.039	-32.38
3739.74	-25.38
3742.439	-55.38
3745.136	-23.38
3747.83	-26.38
3750.523	-28.38
3753.213	-84.38
3755.902	-33.38
3758.589	-49.38
3761.273	-36.38
3763.956	-25.38
3766.636	-45.38
3769.315	-25.38
3771.991	-34.38
3774.665	-36.38
3777.338	-35.38
3780.008	-45.38
3782.677	-33.38
3785.343	-49.38
3788.007	-49.38
3790.67	-31.38
3793.33	-42.38
3795.989	-39.38
3798.645	-28.38
3801.299	-48.38
3803.952	-41.38
3806.602	-34.38
3809.251	-28.38
3811.897	-33.38
3814.542	-35.38
3817.184	-41.38
3819.825	-34.38
3822.463	-44.38
3825.1	-39.38
3827.735	-34.38
3830.367	-44.38
3832.998	-18.38
3835.627	-38.38
3838.253	-26.38
3840.878	-38.38
3843.501	-21.38
3846.122	-33.38
3848.741	-25.38
3851.358	-26.38
3853.973	-45.38
3856.586	-25.38
3859.197	-36.38
3861.806	-34.38
3864.414	-47.38
3867.019	-35.38
3869.622	-24.38
3872.224	-24.38
3874.823	-12.38
3877.421	17.62
3880.016	85.62
3882.61	67.62
3885.202	70.62
3887.792	46.62
3890.38	19.62
3892.966	-11.38
3895.55	-34.38
3898.132	-24.38
3900.713	-25.38
3903.291	-30.38
3905.868	-39.38
3908.442	-34.38
3911.015	-35.38
3913.586	-39.38
3916.155	-35.38
3918.722	-39.38
3921.287	-46.38
3923.85	-51.38
3926.411	-39.38
3928.971	-38.38
3931.528	-30.38
3934.084	-40.38
3936.638	-45.38
3939.19	-29.38
3941.74	-34.38
3944.288	-38.38
3946.834	-37.38
3949.378	-27.38
3951.921	-35.38
3954.462	-36.38
3957	-31.38
3959.537	-23.38
3962.072	-39.38
3964.606	-49.38
3967.137	-39.38
3969.667	-36.38
3972.194	-29.38
3974.72	-36.38
3977.244	-60.38
3979.766	-37.38
3982.286	-39.38
3984.805	-33.38
3987.321	-25.38
3989.836	-28.38
3992.349	-43.38
3994.86	-34.38
3997.369	-43.38
3999.877	-35.38
4002.382	-38.38
4004.886	-35.38
4007.388	-28.38
4009.888	-25.38
4012.386	-29.38
4014.883	-30.38
4017.377	-36.38
4019.87	-30.38
4022.361	-44.38
4024.85	-35.38
4027.338	-34.38
4029.823	-38.38
4032.307	-36.38
4034.789	-31.38
4037.269	-32.38
4039.747	-50.38
4042.224	-24.38
4044.699	-41.38
4047.172	-39.38
4049.643	-26.38
4052.112	-58.38
4054.58	-34.38
4057.046	-41.38
4059.51	-34.38
4061.972	-36.38
4064.432	-53.38
4066.891	-24.38
4069.348	-34.38
4071.803	-32.38
4074.256	-38.38
4076.708	-32.38
4079.158	-34.38
4081.606	-19.38
4084.052	-35.38
4086.497	-28.38
4088.939	-36.38
4091.38	-37.38
4093.819	-26.38
4096.257	-0.38
4098.693	-8.38
4101.127	-4.38
4103.559	3.62
4105.989	72.62
4108.418	75.62
4110.845	65.62
4113.27	69.62
4115.694	77.62
4118.115	58.62
4120.535	-32.38
4122.954	-27.38
4125.37	-24.38
4127.785	-29.38
4130.198	-27.38
4132.609	-27.38
4135.019	6.62
4137.427	-0.38
4139.833	9.62
4142.237	-6.38
