Data from 2018-3-6_conc=5_n=2_RamanShift_04.txt Node
Date: Tue Mar 06 14:26:48 GMT+02:00 2018
User: LAB3
Spectrometer: QEPB0276
Trigger mode: 0
Integration Time (sec): 3.000000E1
Scans to average: 1
Electric dark correction enabled: true
Nonlinearity correction enabled: false
Boxcar width: 0
XAxis mode: Raman Shifts
Number of Pixels in Spectrum: 1044
>>>>>Begin Spectral Data<<<<<
160.701	51.38
166.742	68.38
172.777	106.38
178.805	228.38
184.826	525.38
190.841	1091.38
196.849	1708.38
202.85	2158.38
208.845	2324.38
214.833	2280.38
220.815	2248.38
226.789	2247.38
232.758	2239.38
238.719	2224.38
244.674	2220.38
250.623	2204.38
256.565	2158.38
262.5	2131.38
268.429	2112.38
274.351	2075.38
280.267	2091.38
286.176	2080.38
292.079	2103.38
297.975	2091.38
303.865	2082.38
309.748	2065.38
315.625	2063.38
321.495	2076.38
327.359	2059.38
333.217	2062.38
339.068	2075.38
344.912	2088.38
350.751	2095.38
356.583	2098.38
362.408	2100.38
368.227	2137.38
374.04	2125.38
379.847	2123.38
385.647	2133.38
391.44	2117.38
397.228	2162.38
403.009	2134.38
408.784	2136.38
414.553	2180.38
420.315	2164.38
426.071	2168.38
431.821	2192.38
437.565	2174.38
443.302	2179.38
449.033	2155.38
454.758	2149.38
460.477	2130.38
466.189	2103.38
471.896	2084.38
477.596	2062.38
483.29	2054.38
488.978	2068.38
494.66	2034.38
500.335	1995.38
506.005	1882.38
511.668	1803.38
517.325	1701.38
522.977	1635.38
528.622	1581.38
534.261	1524.38
539.894	1503.38
545.521	1472.38
551.141	1450.38
556.756	1435.38
562.365	1421.38
567.968	1423.38
573.565	1391.38
579.155	1410.38
584.74	1379.38
590.319	1399.38
595.892	1374.38
601.459	1390.38
607.02	1377.38
612.575	1364.38
618.124	1363.38
623.667	1320.38
629.204	1319.38
634.735	1301.38
640.261	1283.38
645.781	1257.38
651.294	1264.38
656.802	1271.38
662.304	1251.38
667.8	1255.38
673.29	1253.38
678.775	1246.38
684.254	1255.38
689.726	1220.38
695.193	1219.38
700.655	1225.38
706.11	1206.38
711.56	1218.38
717.004	1224.38
722.442	1177.38
727.874	1185.38
733.301	1198.38
738.722	1178.38
744.137	1173.38
749.547	1159.38
754.951	1184.38
760.349	1156.38
765.741	1185.38
771.128	1207.38
776.509	1207.38
781.885	1233.38
787.254	1241.38
792.618	1234.38
797.977	1251.38
803.33	1229.38
808.677	1213.38
814.019	1216.38
819.355	1201.38
824.686	1190.38
830.011	1174.38
835.33	1198.38
840.644	1200.38
845.952	1136.38
851.255	1155.38
856.552	1140.38
861.844	1140.38
867.13	1094.38
872.41	1087.38
877.686	1101.38
882.955	1083.38
888.219	1089.38
893.478	1062.38
898.731	1042.38
903.979	1049.38
909.221	1024.38
914.458	997.38
919.69	1014.38
924.916	1041.38
930.136	1020.38
935.351	1001.38
940.561	1038.38
945.766	1018.38
950.965	1026.38
956.158	1009.38
961.347	990.38
966.529	976.38
971.707	968.38
976.879	970.38
982.046	956.38
987.208	935.38
992.364	956.38
997.515	936.38
1002.66	953.38
1007.801	958.38
1012.936	970.38
1018.066	962.38
1023.19	974.38
1028.309	1001.38
1033.423	976.38
1038.532	991.38
1043.636	962.38
1048.734	963.38
1053.827	942.38
1058.915	940.38
1063.998	937.38
1069.075	938.38
1074.147	952.38
1079.214	926.38
1084.276	950.38
1089.333	933.38
1094.385	956.38
1099.431	920.38
1104.472	942.38
1109.509	916.38
1114.54	906.38
1119.565	894.38
1124.586	885.38
1129.602	875.38
1134.613	864.38
1139.618	858.38
1144.619	860.38
1149.614	863.38
1154.604	871.38
1159.589	860.38
1164.57	879.38
1169.545	886.38
1174.515	883.38
1179.48	874.38
1184.44	861.38
1189.395	869.38
1194.345	859.38
1199.29	856.38
1204.23	854.38
1209.165	835.38
1214.095	850.38
1219.021	838.38
1223.941	857.38
1228.856	845.38
1233.766	865.38
1238.672	871.38
1243.572	858.38
1248.467	850.38
1253.358	837.38
1258.244	815.38
1263.124	831.38
1268	815.38
1272.871	783.38
1277.737	793.38
1282.599	772.38
1287.455	757.38
1292.306	783.38
1297.153	772.38
1301.995	791.38
1306.832	787.38
1311.664	785.38
1316.491	792.38
1321.314	786.38
1326.132	779.38
1330.945	781.38
1335.753	753.38
1340.556	742.38
1345.354	741.38
1350.148	728.38
1354.937	724.38
1359.722	697.38
1364.501	691.38
1369.276	711.38
1374.046	710.38
1378.811	695.38
1383.572	710.38
1388.327	704.38
1393.079	693.38
1397.825	675.38
1402.567	683.38
1407.304	670.38
1412.036	666.38
1416.764	661.38
1421.487	650.38
1426.205	660.38
1430.919	672.38
1435.628	667.38
1440.333	661.38
1445.032	663.38
1449.727	678.38
1454.418	672.38
1459.104	685.38
1463.785	660.38
1468.462	678.38
1473.134	656.38
1477.802	650.38
1482.465	608.38
1487.123	632.38
1491.777	600.38
1496.426	596.38
1501.071	640.38
1505.711	621.38
1510.347	631.38
1514.978	636.38
1519.604	639.38
1524.226	647.38
1528.844	622.38
1533.457	637.38
1538.065	617.38
1542.669	614.38
1547.269	613.38
1551.864	616.38
1556.454	590.38
1561.041	602.38
1565.622	604.38
1570.199	604.38
1574.772	622.38
1579.34	620.38
1583.904	627.38
1588.464	639.38
1593.019	644.38
1597.569	615.38
1602.115	625.38
1606.657	628.38
1611.195	628.38
1615.728	634.38
1620.256	611.38
1624.78	588.38
1629.3	613.38
1633.816	622.38
1638.327	606.38
1642.834	620.38
1647.336	613.38
1651.834	632.38
1656.328	632.38
1660.817	606.38
1665.302	612.38
1669.783	599.38
1674.259	583.38
1678.732	578.38
1683.199	577.38
1687.663	551.38
1692.122	547.38
1696.577	544.38
1701.028	533.38
1705.474	517.38
1709.917	502.38
1714.355	507.38
1718.788	492.38
1723.218	470.38
1727.643	462.38
1732.064	470.38
1736.481	459.38
1740.893	464.38
1745.301	464.38
1749.705	422.38
1754.105	434.38
1758.501	417.38
1762.893	428.38
1767.28	405.38
1771.663	408.38
1776.042	398.38
1780.417	388.38
1784.787	409.38
1789.154	412.38
1793.516	409.38
1797.874	404.38
1802.228	394.38
1806.578	387.38
1810.924	406.38
1815.266	283.38
1819.603	397.38
1823.937	376.38
1828.266	382.38
1832.591	374.38
1836.913	374.38
1841.23	370.38
1845.543	355.38
1849.852	371.38
1854.156	357.38
1858.457	374.38
1862.754	356.38
1867.047	363.38
1871.335	384.38
1875.62	372.38
1879.9	375.38
1884.177	359.38
1888.449	367.38
1892.718	365.38
1896.982	371.38
1901.243	339.38
1905.499	345.38
1909.752	338.38
1914	328.38
1918.245	350.38
1922.485	362.38
1926.722	348.38
1930.954	343.38
1935.183	351.38
1939.408	359.38
1943.628	357.38
1947.845	344.38
1952.058	345.38
1956.267	335.38
1960.472	341.38
1964.673	339.38
1968.87	337.38
1973.063	328.38
1977.252	318.38
1981.438	314.38
1985.619	311.38
1989.797	297.38
1993.971	313.38
1998.14	311.38
2002.306	308.38
2006.469	314.38
2010.627	296.38
2014.781	294.38
2018.932	293.38
2023.078	312.38
2027.221	300.38
2031.36	296.38
2035.495	293.38
2039.627	285.38
2043.754	282.38
2047.878	282.38
2051.998	277.38
2056.114	277.38
2060.226	278.38
2064.334	298.38
2068.439	293.38
2072.54	286.38
2076.637	270.38
2080.73	284.38
2084.82	281.38
2088.906	276.38
2092.988	269.38
2097.066	286.38
2101.14	285.38
2105.211	280.38
2109.278	267.38
2113.342	274.38
2117.401	257.38
2121.457	258.38
2125.509	258.38
2129.558	262.38
2133.602	254.38
2137.643	255.38
2141.681	247.38
2145.714	254.38
2149.744	257.38
2153.77	252.38
2157.793	237.38
2161.812	215.38
2165.827	212.38
2169.838	238.38
2173.846	228.38
2177.851	215.38
2181.851	227.38
2185.848	217.38
2189.841	222.38
2193.831	212.38
2197.817	216.38
2201.799	211.38
2205.778	197.38
2209.753	195.38
2213.725	201.38
2217.693	207.38
2221.657	195.38
2225.618	217.38
2229.575	198.38
2233.529	211.38
2237.479	197.38
2241.425	186.38
2245.368	183.38
2249.307	201.38
2253.243	181.38
2257.175	186.38
2261.104	177.38
2265.029	178.38
2268.95	176.38
2272.868	166.38
2276.783	160.38
2280.694	171.38
2284.601	176.38
2288.505	162.38
2292.405	170.38
2296.302	153.38
2300.195	166.38
2304.085	129.38
2307.971	156.38
2311.854	131.38
2315.734	145.38
2319.609	157.38
2323.482	125.38
2327.351	134.38
2331.216	142.38
2335.078	144.38
2338.937	142.38
2342.792	128.38
2346.643	136.38
2350.492	143.38
2354.336	133.38
2358.178	140.38
2362.015	137.38
2365.85	134.38
2369.681	128.38
2373.508	140.38
2377.333	147.38
2381.153	135.38
2384.971	128.38
2388.785	134.38
2392.595	128.38
2396.402	122.38
2400.206	104.38
2404.007	117.38
2407.804	126.38
2411.597	124.38
2415.388	125.38
2419.174	117.38
2422.958	120.38
2426.738	116.38
2430.515	124.38
2434.289	109.38
2438.059	116.38
2441.825	113.38
2445.589	121.38
2449.349	106.38
2453.106	119.38
2456.859	116.38
2460.61	123.38
2464.356	104.38
2468.1	96.38
2471.84	98.38
2475.577	106.38
2479.311	101.38
2483.041	110.38
2486.768	115.38
2490.492	109.38
2494.213	110.38
2497.93	94.38
2501.644	92.38
2505.355	98.38
2509.062	102.38
2512.766	101.38
2516.467	95.38
2520.165	91.38
2523.859	83.38
2527.551	112.38
2531.239	84.38
2534.923	96.38
2538.605	95.38
2542.283	93.38
2545.958	95.38
2549.63	104.38
2553.299	101.38
2556.964	77.38
2560.626	90.38
2564.285	96.38
2567.941	75.38
2571.594	81.38
2575.243	84.38
2578.89	84.38
2582.533	82.38
2586.173	83.38
2589.809	91.38
2593.443	61.38
2597.073	86.38
2600.701	83.38
2604.325	73.38
2607.946	69.38
2611.564	90.38
2615.178	82.38
2618.79	85.38
2622.398	73.38
2626.004	75.38
2629.606	79.38
2633.205	71.38
2636.801	83.38
2640.394	80.38
2643.983	72.38
2647.57	67.38
2651.153	59.38
2654.734	75.38
2658.311	52.38
2661.885	62.38
2665.456	60.38
2669.025	65.38
2672.589	63.38
2676.151	73.38
2679.71	71.38
2683.266	62.38
2686.819	62.38
2690.368	64.38
2693.915	72.38
2697.458	55.38
2700.999	61.38
2704.536	66.38
2708.071	55.38
2711.602	56.38
2715.13	51.38
2718.656	42.38
2722.178	55.38
2725.697	43.38
2729.214	52.38
2732.727	57.38
2736.237	36.38
2739.744	51.38
2743.249	50.38
2746.75	54.38
2750.248	42.38
2753.743	54.38
2757.236	53.38
2760.725	56.38
2764.211	28.38
2767.695	53.38
2771.175	46.38
2774.652	53.38
2778.127	49.38
2781.598	48.38
2785.067	53.38
2788.532	36.38
2791.995	47.38
2795.455	42.38
2798.911	50.38
2802.365	41.38
2805.816	43.38
2809.264	54.38
2812.709	42.38
2816.151	52.38
2819.59	32.38
2823.026	44.38
2826.46	38.38
2829.89	48.38
2833.318	21.38
2836.742	37.38
2840.164	47.38
2843.583	42.38
2846.999	39.38
2850.412	48.38
2853.822	44.38
2857.229	59.38
2860.634	47.38
2864.035	33.38
2867.434	51.38
2870.83	54.38
2874.223	41.38
2877.613	49.38
2881	44.38
2884.385	44.38
2887.766	41.38
2891.145	52.38
2894.521	41.38
2897.894	34.38
2901.264	55.38
2904.631	56.38
2907.996	57.38
2911.358	58.38
2914.717	49.38
2918.073	49.38
2921.426	43.38
2924.777	30.38
2928.124	46.38
2931.469	64.38
2934.811	50.38
2938.15	67.38
2941.487	61.38
2944.821	71.38
2948.152	52.38
2951.48	62.38
2954.805	47.38
2958.128	72.38
2961.447	54.38
2964.765	72.38
2968.079	61.38
2971.39	66.38
2974.699	67.38
2978.005	62.38
2981.308	63.38
2984.609	59.38
2987.907	71.38
2991.202	69.38
2994.494	63.38
2997.784	70.38
3001.07	68.38
3004.355	64.38
3007.636	69.38
3010.915	64.38
3014.191	63.38
3017.464	75.38
3020.734	76.38
3024.002	73.38
3027.267	72.38
3030.53	83.38
3033.789	76.38
3037.046	74.38
3040.301	72.38
3043.552	87.38
3046.801	85.38
3050.048	89.38
3053.291	101.38
3056.532	98.38
3059.771	79.38
3063.006	98.38
3066.239	98.38
3069.469	98.38
3072.697	98.38
3075.922	94.38
3079.144	104.38
3082.364	117.38
3085.581	107.38
3088.795	127.38
3092.007	119.38
3095.216	119.38
3098.423	115.38
3101.627	97.38
3104.828	128.38
3108.026	117.38
3111.222	141.38
3114.416	149.38
3117.607	137.38
3120.795	139.38
3123.98	148.38
3127.163	135.38
3130.344	147.38
3133.521	144.38
3136.696	161.38
3139.869	162.38
3143.039	147.38
3146.206	188.38
3149.371	176.38
3152.533	172.38
3155.693	153.38
3158.85	177.38
3162.005	185.38
3165.157	171.38
3168.306	169.38
3171.453	182.38
3174.597	167.38
3177.739	169.38
3180.878	173.38
3184.014	174.38
3187.149	170.38
3190.28	183.38
3193.409	183.38
3196.536	183.38
3199.659	188.38
3202.781	189.38
3205.9	173.38
3209.016	187.38
3212.13	185.38
3215.241	178.38
3218.35	180.38
3221.456	174.38
3224.56	165.38
3227.661	172.38
3230.76	172.38
3233.856	159.38
3236.95	164.38
3240.041	163.38
3243.13	168.38
3246.216	164.38
3249.3	170.38
3252.382	171.38
3255.46	152.38
3258.537	105.38
3261.611	151.38
3264.682	159.38
3267.751	160.38
3270.818	150.38
3273.882	157.38
3276.943	157.38
3280.002	169.38
3283.059	151.38
3286.113	156.38
3289.165	148.38
3292.214	136.38
3295.261	164.38
3298.306	123.38
3301.348	142.38
3304.387	135.38
3307.425	146.38
3310.459	136.38
3313.492	146.38
3316.521	137.38
3319.549	145.38
3322.574	139.38
3325.597	137.38
3328.617	127.38
3331.635	124.38
3334.65	107.38
3337.663	131.38
3340.674	122.38
3343.682	131.38
3346.688	136.38
3349.691	119.38
3352.692	124.38
3355.691	130.38
3358.687	123.38
3361.681	130.38
3364.673	119.38
3367.662	128.38
3370.649	132.38
3373.633	103.38
3376.615	123.38
3379.595	102.38
3382.572	114.38
3385.547	97.38
3388.52	99.38
3391.49	102.38
3394.458	105.38
3397.424	109.38
3400.387	88.38
3403.348	104.38
3406.307	104.38
3409.263	105.38
3412.217	109.38
3415.168	106.38
3418.118	110.38
3421.065	88.38
3424.009	103.38
3426.951	94.38
3429.891	87.38
3432.829	88.38
3435.764	93.38
3438.697	81.38
3441.628	94.38
3444.557	70.38
3447.483	68.38
3450.407	85.38
3453.328	71.38
3456.247	70.38
3459.164	64.38
3462.079	70.38
3464.991	63.38
3467.902	61.38
3470.809	63.38
3473.715	61.38
3476.618	54.38
3479.519	49.38
3482.418	38.38
3485.315	34.38
3488.209	40.38
3491.101	42.38
3493.99	28.38
3496.878	35.38
3499.763	40.38
3502.646	40.38
3505.527	27.38
3508.405	28.38
3511.281	15.38
3514.155	22.38
3517.027	29.38
3519.897	10.38
3522.764	25.38
3525.629	5.38
3528.492	14.38
3531.352	10.38
3534.211	14.38
3537.067	10.38
3539.921	12.38
3542.773	15.38
3545.622	-2.62
3548.469	0.38
3551.315	-1.62
3554.157	10.38
3556.998	-10.62
3559.837	0.38
3562.673	2.38
3565.507	-7.62
3568.339	-11.62
3571.169	-8.62
3573.996	-4.62
3576.822	-20.62
3579.645	-20.62
3582.466	-15.62
3585.285	0.38
3588.101	-10.62
3590.916	-12.62
3593.728	-3.62
3596.538	-16.62
3599.346	-13.62
3602.152	-18.62
3604.956	-14.62
3607.757	-12.62
3610.556	-23.62
3613.354	-8.62
3616.149	-13.62
3618.942	-9.62
3621.732	-10.62
3624.521	-20.62
3627.307	-26.62
3630.092	-26.62
3632.874	-2.62
3635.654	-20.62
3638.432	-31.62
3641.208	-30.62
3643.982	-18.62
3646.753	-16.62
3649.523	-47.62
3652.29	-25.62
3655.055	-19.62
3657.818	-24.62
3660.579	-31.62
3663.338	-37.62
3666.095	-33.62
3668.849	-49.62
3671.602	-21.62
3674.352	-37.62
3677.101	-19.62
3679.847	-18.62
3682.591	-36.62
3685.333	-43.62
3688.073	-26.62
3690.811	-40.62
3693.547	-40.62
3696.281	-36.62
3699.013	-31.62
3701.742	-33.62
3704.47	-39.62
3707.195	-31.62
3709.919	-28.62
3712.64	-34.62
3715.359	-38.62
3718.076	-20.62
3720.792	-34.62
3723.505	-32.62
3726.216	-19.62
3728.925	-33.62
3731.632	-37.62
3734.336	-33.62
3737.039	-31.62
3739.74	-26.62
3742.439	-56.62
3745.136	-25.62
3747.83	-26.62
3750.523	-23.62
3753.213	-89.62
3755.902	-33.62
3758.589	-46.62
3761.273	-33.62
3763.956	-21.62
3766.636	-44.62
3769.315	-22.62
3771.991	-29.62
3774.665	-36.62
3777.338	-32.62
3780.008	-40.62
3782.677	-36.62
3785.343	-46.62
3788.007	-51.62
3790.67	-26.62
3793.33	-44.62
3795.989	-37.62
3798.645	-29.62
3801.299	-44.62
3803.952	-43.62
3806.602	-39.62
3809.251	-32.62
3811.897	-34.62
3814.542	-33.62
3817.184	-37.62
3819.825	-36.62
3822.463	-47.62
3825.1	-39.62
3827.735	-32.62
3830.367	-39.62
3832.998	-23.62
3835.627	-36.62
3838.253	-28.62
3840.878	-37.62
3843.501	-15.62
3846.122	-31.62
3848.741	-25.62
3851.358	-26.62
3853.973	-41.62
3856.586	-23.62
3859.197	-43.62
3861.806	-34.62
3864.414	-47.62
3867.019	-31.62
3869.622	-22.62
3872.224	-29.62
3874.823	-20.62
3877.421	-4.62
3880.016	3.38
3882.61	29.38
3885.202	43.38
3887.792	23.38
3890.38	11.38
3892.966	-21.62
3895.55	-38.62
3898.132	-22.62
3900.713	-23.62
3903.291	-34.62
3905.868	-39.62
3908.442	-33.62
3911.015	-30.62
3913.586	-37.62
3916.155	-38.62
3918.722	-39.62
3921.287	-35.62
3923.85	-47.62
3926.411	-36.62
3928.971	-41.62
3931.528	-29.62
3934.084	-38.62
3936.638	-45.62
3939.19	-33.62
3941.74	-31.62
3944.288	-35.62
3946.834	-33.62
3949.378	-26.62
3951.921	-41.62
3954.462	-37.62
3957	-35.62
3959.537	-26.62
3962.072	-41.62
3964.606	-47.62
3967.137	-41.62
3969.667	-39.62
3972.194	-29.62
3974.72	-39.62
3977.244	-55.62
3979.766	-40.62
3982.286	-41.62
3984.805	-27.62
3987.321	-22.62
3989.836	-31.62
3992.349	-44.62
3994.86	-33.62
3997.369	-39.62
3999.877	-35.62
4002.382	-40.62
4004.886	-29.62
4007.388	-31.62
4009.888	-26.62
4012.386	-25.62
4014.883	-33.62
4017.377	-35.62
4019.87	-31.62
4022.361	-39.62
4024.85	-38.62
4027.338	-27.62
4029.823	-39.62
4032.307	-34.62
4034.789	-31.62
4037.269	-32.62
4039.747	-43.62
4042.224	-23.62
4044.699	-42.62
4047.172	-35.62
4049.643	-26.62
4052.112	-58.62
4054.58	-29.62
4057.046	-46.62
4059.51	-36.62
4061.972	-36.62
4064.432	-48.62
4066.891	-19.62
4069.348	-31.62
4071.803	-31.62
4074.256	-36.62
4076.708	-32.62
4079.158	-30.62
4081.606	-23.62
4084.052	-38.62
4086.497	-33.62
4088.939	-36.62
4091.38	-43.62
4093.819	-30.62
4096.257	-1.62
4098.693	-3.62
4101.127	-3.62
4103.559	1.38
4105.989	49.38
4108.418	48.38
4110.845	37.38
4113.27	42.38
4115.694	47.38
4118.115	42.38
4120.535	-29.62
4122.954	-28.62
4125.37	-22.62
4127.785	-28.62
4130.198	-27.62
4132.609	-29.62
4135.019	8.38
4137.427	-2.62
4139.833	5.38
4142.237	-3.62
