Data from 2018-3-6_conc=2_n=9_RamanShift_05.txt Node
Date: Tue Mar 06 13:08:19 GMT+02:00 2018
User: LAB3
Spectrometer: QEPB0276
Trigger mode: 0
Integration Time (sec): 3.000000E1
Scans to average: 1
Electric dark correction enabled: true
Nonlinearity correction enabled: false
Boxcar width: 0
XAxis mode: Raman Shifts
Number of Pixels in Spectrum: 1044
>>>>>Begin Spectral Data<<<<<
160.701	153.5
166.742	188.5
172.777	284.5
178.805	569.5
184.826	1300.5
190.841	2570.5
196.849	4134.5
202.85	5288.5
208.845	5742.5
214.833	5713.5
220.815	5693.5
226.789	5700.5
232.758	5751.5
238.719	5774.5
244.674	5740.5
250.623	5752.5
256.565	5703.5
262.5	5646.5
268.429	5633.5
274.351	5605.5
280.267	5613.5
286.176	5645.5
292.079	5681.5
297.975	5683.5
303.865	5683.5
309.748	5697.5
315.625	5704.5
321.495	5738.5
327.359	5728.5
333.217	5773.5
339.068	5748.5
344.912	5833.5
350.751	5834.5
356.583	5878.5
362.408	5867.5
368.227	5913.5
374.04	5907.5
379.847	5962.5
385.647	6013.5
391.44	6066.5
397.228	6057.5
403.009	6143.5
408.784	6151.5
414.553	6182.5
420.315	6221.5
426.071	6193.5
431.821	6234.5
437.565	6194.5
443.302	6153.5
449.033	6101.5
454.758	6132.5
460.477	6054.5
466.189	6000.5
471.896	5931.5
477.596	5894.5
483.29	5865.5
488.978	5871.5
494.66	5812.5
500.335	5638.5
506.005	5370.5
511.668	5095.5
517.325	4831.5
522.977	4591.5
528.622	4467.5
534.261	4366.5
539.894	4244.5
545.521	4179.5
551.141	4104.5
556.756	4077.5
562.365	4034.5
567.968	4000.5
573.565	3964.5
579.155	3958.5
584.74	3939.5
590.319	3913.5
595.892	3929.5
601.459	3917.5
607.02	3894.5
612.575	3872.5
618.124	3827.5
623.667	3757.5
629.204	3715.5
634.735	3648.5
640.261	3607.5
645.781	3553.5
651.294	3551.5
656.802	3571.5
662.304	3553.5
667.8	3552.5
673.29	3509.5
678.775	3495.5
684.254	3485.5
689.726	3453.5
695.193	3463.5
700.655	3430.5
706.11	3432.5
711.56	3395.5
717.004	3389.5
722.442	3356.5
727.874	3371.5
733.301	3341.5
738.722	3305.5
744.137	3325.5
749.547	3332.5
754.951	3313.5
760.349	3347.5
765.741	3356.5
771.128	3362.5
776.509	3420.5
781.885	3503.5
787.254	3545.5
792.618	3529.5
797.977	3516.5
803.33	3511.5
808.677	3483.5
814.019	3452.5
819.355	3378.5
824.686	3360.5
830.011	3372.5
835.33	3358.5
840.644	3329.5
845.952	3283.5
851.255	3269.5
856.552	3226.5
861.844	3205.5
867.13	3143.5
872.41	3118.5
877.686	3078.5
882.955	3082.5
888.219	3042.5
893.478	3007.5
898.731	2975.5
903.979	2908.5
909.221	2876.5
914.458	2871.5
919.69	2892.5
924.916	2866.5
930.136	2890.5
935.351	2880.5
940.561	2882.5
945.766	2892.5
950.965	2876.5
956.158	2836.5
961.347	2799.5
966.529	2789.5
971.707	2758.5
976.879	2731.5
982.046	2662.5
987.208	2679.5
992.364	2680.5
997.515	2673.5
1002.66	2686.5
1007.801	2723.5
1012.936	2741.5
1018.066	2720.5
1023.19	2763.5
1028.309	2772.5
1033.423	2778.5
1038.532	2780.5
1043.636	2757.5
1048.734	2736.5
1053.827	2713.5
1058.915	2683.5
1063.998	2678.5
1069.075	2681.5
1074.147	2671.5
1079.214	2651.5
1084.276	2688.5
1089.333	2683.5
1094.385	2684.5
1099.431	2662.5
1104.472	2677.5
1109.509	2628.5
1114.54	2592.5
1119.565	2541.5
1124.586	2520.5
1129.602	2486.5
1134.613	2443.5
1139.618	2442.5
1144.619	2447.5
1149.614	2453.5
1154.604	2453.5
1159.589	2458.5
1164.57	2483.5
1169.545	2507.5
1174.515	2502.5
1179.48	2473.5
1184.44	2481.5
1189.395	2448.5
1194.345	2423.5
1199.29	2422.5
1204.23	2418.5
1209.165	2393.5
1214.095	2431.5
1219.021	2429.5
1223.941	2429.5
1228.856	2459.5
1233.766	2458.5
1238.672	2457.5
1243.572	2451.5
1248.467	2428.5
1253.358	2400.5
1258.244	2347.5
1263.124	2313.5
1268	2302.5
1272.871	2246.5
1277.737	2218.5
1282.599	2222.5
1287.455	2199.5
1292.306	2215.5
1297.153	2213.5
1301.995	2225.5
1306.832	2215.5
1311.664	2256.5
1316.491	2247.5
1321.314	2230.5
1326.132	2216.5
1330.945	2179.5
1335.753	2146.5
1340.556	2110.5
1345.354	2070.5
1350.148	2058.5
1354.937	2043.5
1359.722	2002.5
1364.501	1990.5
1369.276	1994.5
1374.046	2001.5
1378.811	1990.5
1383.572	1984.5
1388.327	1979.5
1393.079	1959.5
1397.825	1944.5
1402.567	1915.5
1407.304	1913.5
1412.036	1912.5
1416.764	1894.5
1421.487	1863.5
1426.205	1895.5
1430.919	1916.5
1435.628	1903.5
1440.333	1892.5
1445.032	1924.5
1449.727	1945.5
1454.418	1955.5
1459.104	1949.5
1463.785	1911.5
1468.462	1909.5
1473.134	1870.5
1477.802	1842.5
1482.465	1791.5
1487.123	1801.5
1491.777	1755.5
1496.426	1751.5
1501.071	1807.5
1505.711	1782.5
1510.347	1806.5
1514.978	1815.5
1519.604	1811.5
1524.226	1832.5
1528.844	1789.5
1533.457	1813.5
1538.065	1775.5
1542.669	1751.5
1547.269	1750.5
1551.864	1753.5
1556.454	1737.5
1561.041	1729.5
1565.622	1710.5
1570.199	1735.5
1574.772	1756.5
1579.34	1753.5
1583.904	1785.5
1588.464	1790.5
1593.019	1797.5
1597.569	1788.5
1602.115	1778.5
1606.657	1784.5
1611.195	1782.5
1615.728	1766.5
1620.256	1751.5
1624.78	1734.5
1629.3	1764.5
1633.816	1756.5
1638.327	1773.5
1642.834	1775.5
1647.336	1793.5
1651.834	1827.5
1656.328	1810.5
1660.817	1805.5
1665.302	1779.5
1669.783	1773.5
1674.259	1734.5
1678.732	1709.5
1683.199	1687.5
1687.663	1605.5
1692.122	1587.5
1696.577	1556.5
1701.028	1537.5
1705.474	1496.5
1709.917	1476.5
1714.355	1440.5
1718.788	1450.5
1723.218	1411.5
1727.643	1388.5
1732.064	1396.5
1736.481	1361.5
1740.893	1342.5
1745.301	1299.5
1749.705	1265.5
1754.105	1272.5
1758.501	1221.5
1762.893	1228.5
1767.28	1182.5
1771.663	1167.5
1776.042	1159.5
1780.417	1171.5
1784.787	1169.5
1789.154	1171.5
1793.516	1177.5
1797.874	1185.5
1802.228	1163.5
1806.578	1150.5
1810.924	1166.5
1815.266	1032.5
1819.603	1135.5
1823.937	1102.5
1828.266	1101.5
1832.591	1093.5
1836.913	1084.5
1841.23	1073.5
1845.543	1062.5
1849.852	1078.5
1854.156	1064.5
1858.457	1075.5
1862.754	1072.5
1867.047	1077.5
1871.335	1099.5
1875.62	1088.5
1879.9	1079.5
1884.177	1077.5
1888.449	1061.5
1892.718	1068.5
1896.982	1067.5
1901.243	1036.5
1905.499	1046.5
1909.752	1044.5
1914	1039.5
1918.245	1059.5
1922.485	1060.5
1926.722	1061.5
1930.954	1055.5
1935.183	1066.5
1939.408	1058.5
1943.628	1054.5
1947.845	1052.5
1952.058	1037.5
1956.267	1017.5
1960.472	1012.5
1964.673	988.5
1968.87	979.5
1973.063	948.5
1977.252	959.5
1981.438	933.5
1985.619	917.5
1989.797	912.5
1993.971	907.5
1998.14	921.5
2002.306	905.5
2006.469	909.5
2010.627	902.5
2014.781	887.5
2018.932	877.5
2023.078	904.5
2027.221	897.5
2031.36	866.5
2035.495	865.5
2039.627	861.5
2043.754	846.5
2047.878	831.5
2051.998	831.5
2056.114	832.5
2060.226	833.5
2064.334	832.5
2068.439	841.5
2072.54	846.5
2076.637	837.5
2080.73	839.5
2084.82	853.5
2088.906	841.5
2092.988	831.5
2097.066	840.5
2101.14	844.5
2105.211	832.5
2109.278	822.5
2113.342	814.5
2117.401	788.5
2121.457	779.5
2125.509	774.5
2129.558	773.5
2133.602	757.5
2137.643	768.5
2141.681	750.5
2145.714	745.5
2149.744	759.5
2153.77	743.5
2157.793	724.5
2161.812	691.5
2165.827	678.5
2169.838	706.5
2173.846	693.5
2177.851	685.5
2181.851	679.5
2185.848	664.5
2189.841	676.5
2193.831	643.5
2197.817	649.5
2201.799	652.5
2205.778	628.5
2209.753	616.5
2213.725	612.5
2217.693	627.5
2221.657	619.5
2225.618	625.5
2229.575	618.5
2233.529	616.5
2237.479	604.5
2241.425	591.5
2245.368	582.5
2249.307	586.5
2253.243	571.5
2257.175	569.5
2261.104	559.5
2265.029	550.5
2268.95	537.5
2272.868	533.5
2276.783	529.5
2280.694	523.5
2284.601	511.5
2288.505	511.5
2292.405	515.5
2296.302	484.5
2300.195	485.5
2304.085	466.5
2307.971	486.5
2311.854	457.5
2315.734	461.5
2319.609	459.5
2323.482	444.5
2327.351	439.5
2331.216	445.5
2335.078	455.5
2338.937	429.5
2342.792	440.5
2346.643	432.5
2350.492	438.5
2354.336	431.5
2358.178	443.5
2362.015	431.5
2365.85	430.5
2369.681	424.5
2373.508	429.5
2377.333	443.5
2381.153	435.5
2384.971	437.5
2388.785	435.5
2392.595	410.5
2396.402	413.5
2400.206	391.5
2404.007	414.5
2407.804	419.5
2411.597	417.5
2415.388	407.5
2419.174	397.5
2422.958	403.5
2426.738	390.5
2430.515	404.5
2434.289	390.5
2438.059	387.5
2441.825	384.5
2445.589	393.5
2449.349	366.5
2453.106	386.5
2456.859	380.5
2460.61	377.5
2464.356	351.5
2468.1	353.5
2471.84	365.5
2475.577	353.5
2479.311	352.5
2483.041	357.5
2486.768	369.5
2490.492	362.5
2494.213	350.5
2497.93	342.5
2501.644	342.5
2505.355	349.5
2509.062	350.5
2512.766	343.5
2516.467	340.5
2520.165	343.5
2523.859	334.5
2527.551	364.5
2531.239	322.5
2534.923	333.5
2538.605	338.5
2542.283	331.5
2545.958	332.5
2549.63	339.5
2553.299	337.5
2556.964	324.5
2560.626	324.5
2564.285	326.5
2567.941	308.5
2571.594	308.5
2575.243	331.5
2578.89	309.5
2582.533	299.5
2586.173	309.5
2589.809	302.5
2593.443	274.5
2597.073	292.5
2600.701	305.5
2604.325	297.5
2607.946	281.5
2611.564	286.5
2615.178	290.5
2618.79	288.5
2622.398	275.5
2626.004	283.5
2629.606	276.5
2633.205	264.5
2636.801	273.5
2640.394	272.5
2643.983	263.5
2647.57	254.5
2651.153	250.5
2654.734	260.5
2658.311	226.5
2661.885	238.5
2665.456	243.5
2669.025	245.5
2672.589	237.5
2676.151	255.5
2679.71	255.5
2683.266	237.5
2686.819	230.5
2690.368	234.5
2693.915	236.5
2697.458	228.5
2700.999	224.5
2704.536	229.5
2708.071	224.5
2711.602	224.5
2715.13	209.5
2718.656	201.5
2722.178	213.5
2725.697	204.5
2729.214	208.5
2732.727	212.5
2736.237	198.5
2739.744	212.5
2743.249	207.5
2746.75	204.5
2750.248	196.5
2753.743	203.5
2757.236	208.5
2760.725	208.5
2764.211	173.5
2767.695	215.5
2771.175	206.5
2774.652	210.5
2778.127	198.5
2781.598	203.5
2785.067	212.5
2788.532	189.5
2791.995	205.5
2795.455	190.5
2798.911	209.5
2802.365	191.5
2805.816	199.5
2809.264	209.5
2812.709	197.5
2816.151	203.5
2819.59	184.5
2823.026	202.5
2826.46	199.5
2829.89	209.5
2833.318	177.5
2836.742	198.5
2840.164	203.5
2843.583	208.5
2846.999	209.5
2850.412	202.5
2853.822	208.5
2857.229	221.5
2860.634	216.5
2864.035	199.5
2867.434	225.5
2870.83	231.5
2874.223	220.5
2877.613	227.5
2881	218.5
2884.385	230.5
2887.766	225.5
2891.145	229.5
2894.521	219.5
2897.894	206.5
2901.264	236.5
2904.631	234.5
2907.996	231.5
2911.358	241.5
2914.717	239.5
2918.073	233.5
2921.426	218.5
2924.777	216.5
2928.124	244.5
2931.469	254.5
2934.811	248.5
2938.15	261.5
2941.487	258.5
2944.821	266.5
2948.152	262.5
2951.48	265.5
2954.805	245.5
2958.128	275.5
2961.447	249.5
2964.765	267.5
2968.079	257.5
2971.39	265.5
2974.699	266.5
2978.005	269.5
2981.308	265.5
2984.609	264.5
2987.907	275.5
2991.202	290.5
2994.494	273.5
2997.784	277.5
3001.07	280.5
3004.355	280.5
3007.636	281.5
3010.915	289.5
3014.191	293.5
3017.464	289.5
3020.734	287.5
3024.002	289.5
3027.267	298.5
3030.53	303.5
3033.789	302.5
3037.046	301.5
3040.301	300.5
3043.552	316.5
3046.801	311.5
3050.048	336.5
3053.291	356.5
3056.532	355.5
3059.771	336.5
3063.006	362.5
3066.239	363.5
3069.469	391.5
3072.697	379.5
3075.922	382.5
3079.144	391.5
3082.364	428.5
3085.581	408.5
3088.795	434.5
3092.007	439.5
3095.216	449.5
3098.423	452.5
3101.627	446.5
3104.828	466.5
3108.026	473.5
3111.222	506.5
3114.416	517.5
3117.607	507.5
3120.795	511.5
3123.98	532.5
3127.163	523.5
3130.344	541.5
3133.521	557.5
3136.696	580.5
3139.869	577.5
3143.039	584.5
3146.206	615.5
3149.371	623.5
3152.533	621.5
3155.693	605.5
3158.85	613.5
3162.005	629.5
3165.157	643.5
3168.306	622.5
3171.453	632.5
3174.597	629.5
3177.739	618.5
3180.878	637.5
3184.014	632.5
3187.149	642.5
3190.28	637.5
3193.409	645.5
3196.536	650.5
3199.659	650.5
3202.781	652.5
3205.9	635.5
3209.016	653.5
3212.13	648.5
3215.241	641.5
3218.35	640.5
3221.456	632.5
3224.56	610.5
3227.661	630.5
3230.76	619.5
3233.856	619.5
3236.95	612.5
3240.041	600.5
3243.13	604.5
3246.216	595.5
3249.3	601.5
3252.382	590.5
3255.46	597.5
3258.537	542.5
3261.611	581.5
3264.682	583.5
3267.751	585.5
3270.818	566.5
3273.882	579.5
3276.943	572.5
3280.002	592.5
3283.059	555.5
3286.113	559.5
3289.165	548.5
3292.214	537.5
3295.261	554.5
3298.306	518.5
3301.348	531.5
3304.387	514.5
3307.425	508.5
3310.459	497.5
3313.492	504.5
3316.521	501.5
3319.549	510.5
3322.574	503.5
3325.597	481.5
3328.617	471.5
3331.635	481.5
3334.65	466.5
3337.663	484.5
3340.674	473.5
3343.682	472.5
3346.688	477.5
3349.691	465.5
3352.692	471.5
3355.691	472.5
3358.687	466.5
3361.681	457.5
3364.673	452.5
3367.662	457.5
3370.649	455.5
3373.633	436.5
3376.615	451.5
3379.595	426.5
3382.572	416.5
3385.547	418.5
3388.52	412.5
3391.49	408.5
3394.458	411.5
3397.424	408.5
3400.387	381.5
3403.348	391.5
3406.307	388.5
3409.263	391.5
3412.217	394.5
3415.168	384.5
3418.118	387.5
3421.065	377.5
3424.009	391.5
3426.951	366.5
3429.891	360.5
3432.829	364.5
3435.764	361.5
3438.697	333.5
3441.628	346.5
3444.557	320.5
3447.483	314.5
3450.407	317.5
3453.328	307.5
3456.247	290.5
3459.164	283.5
3462.079	291.5
3464.991	283.5
3467.902	272.5
3470.809	266.5
3473.715	264.5
3476.618	248.5
3479.519	247.5
3482.418	219.5
3485.315	224.5
3488.209	217.5
3491.101	219.5
3493.99	196.5
3496.878	198.5
3499.763	204.5
3502.646	205.5
3505.527	189.5
3508.405	181.5
3511.281	163.5
3514.155	174.5
3517.027	162.5
3519.897	149.5
3522.764	161.5
3525.629	129.5
3528.492	139.5
3531.352	137.5
3534.211	131.5
3537.067	124.5
3539.921	116.5
3542.773	114.5
3545.622	95.5
3548.469	99.5
3551.315	90.5
3554.157	94.5
3556.998	81.5
3559.837	87.5
3562.673	80.5
3565.507	71.5
3568.339	66.5
3571.169	71.5
3573.996	73.5
3576.822	43.5
3579.645	58.5
3582.466	52.5
3585.285	58.5
3588.101	53.5
3590.916	45.5
3593.728	54.5
3596.538	38.5
3599.346	39.5
3602.152	29.5
3604.956	35.5
3607.757	33.5
3610.556	19.5
3613.354	35.5
3616.149	25.5
3618.942	36.5
3621.732	29.5
3624.521	20.5
3627.307	7.5
3630.092	10.5
3632.874	30.5
3635.654	17.5
3638.432	11.5
3641.208	9.5
3643.982	9.5
3646.753	17.5
3649.523	-16.5
3652.29	5.5
3655.055	11.5
3657.818	4.5
3660.579	4.5
3663.338	-7.5
3666.095	-5.5
3668.849	-24.5
3671.602	2.5
3674.352	-15.5
3677.101	7.5
3679.847	4.5
3682.591	-17.5
3685.333	-20.5
3688.073	-7.5
3690.811	-14.5
3693.547	-24.5
3696.281	-22.5
3699.013	-10.5
3701.742	-21.5
3704.47	-26.5
3707.195	-11.5
3709.919	-13.5
3712.64	-16.5
3715.359	-27.5
3718.076	-6.5
3720.792	-14.5
3723.505	-13.5
3726.216	-10.5
3728.925	-22.5
3731.632	-23.5
3734.336	-21.5
3737.039	-17.5
3739.74	-17.5
3742.439	-48.5
3745.136	-16.5
3747.83	-18.5
3750.523	-14.5
3753.213	-83.5
3755.902	-24.5
3758.589	-39.5
3761.273	-29.5
3763.956	-17.5
3766.636	-40.5
3769.315	-22.5
3771.991	-27.5
3774.665	-32.5
3777.338	-23.5
3780.008	-38.5
3782.677	-25.5
3785.343	-43.5
3788.007	-49.5
3790.67	-19.5
3793.33	-40.5
3795.989	-31.5
3798.645	-28.5
3801.299	-36.5
3803.952	-35.5
3806.602	-30.5
3809.251	-24.5
3811.897	-32.5
3814.542	-28.5
3817.184	-35.5
3819.825	-29.5
3822.463	-40.5
3825.1	-36.5
3827.735	-27.5
3830.367	-36.5
3832.998	-21.5
3835.627	-32.5
3838.253	-22.5
3840.878	-32.5
3843.501	-14.5
3846.122	-26.5
3848.741	-26.5
3851.358	-18.5
3853.973	-38.5
3856.586	-21.5
3859.197	-35.5
3861.806	-26.5
3864.414	-42.5
3867.019	-30.5
3869.622	-21.5
3872.224	-15.5
3874.823	5.5
3877.421	39.5
3880.016	50.5
3882.61	104.5
3885.202	107.5
3887.792	78.5
3890.38	38.5
3892.966	-5.5
3895.55	-21.5
3898.132	-22.5
3900.713	-21.5
3903.291	-28.5
3905.868	-33.5
3908.442	-33.5
3911.015	-32.5
3913.586	-35.5
3916.155	-37.5
3918.722	-36.5
3921.287	-35.5
3923.85	-48.5
3926.411	-39.5
3928.971	-37.5
3931.528	-29.5
3934.084	-34.5
3936.638	-43.5
3939.19	-29.5
3941.74	-26.5
3944.288	-38.5
3946.834	-34.5
3949.378	-25.5
3951.921	-39.5
3954.462	-30.5
3957	-26.5
3959.537	-20.5
3962.072	-35.5
3964.606	-41.5
3967.137	-36.5
3969.667	-42.5
3972.194	-30.5
3974.72	-36.5
3977.244	-58.5
3979.766	-40.5
3982.286	-40.5
3984.805	-31.5
3987.321	-25.5
3989.836	-25.5
3992.349	-38.5
3994.86	-30.5
3997.369	-41.5
3999.877	-36.5
4002.382	-35.5
4004.886	-27.5
4007.388	-29.5
4009.888	-23.5
4012.386	-19.5
4014.883	-27.5
4017.377	-30.5
4019.87	-27.5
4022.361	-36.5
4024.85	-30.5
4027.338	-23.5
4029.823	-37.5
4032.307	-30.5
4034.789	-25.5
4037.269	-23.5
4039.747	-43.5
4042.224	-25.5
4044.699	-35.5
4047.172	-30.5
4049.643	-22.5
4052.112	-54.5
4054.58	-33.5
4057.046	-44.5
4059.51	-34.5
4061.972	-30.5
4064.432	-47.5
4066.891	-14.5
4069.348	-28.5
4071.803	-24.5
4074.256	-31.5
4076.708	-28.5
4079.158	-26.5
4081.606	-19.5
4084.052	-27.5
4086.497	-25.5
4088.939	-27.5
4091.38	-32.5
4093.819	-25.5
4096.257	3.5
4098.693	-6.5
4101.127	-2.5
4103.559	1.5
4105.989	143.5
4108.418	147.5
4110.845	127.5
4113.27	136.5
4115.694	149.5
4118.115	136.5
4120.535	-26.5
4122.954	-24.5
4125.37	-20.5
4127.785	-25.5
4130.198	-23.5
4132.609	-24.5
4135.019	5.5
4137.427	-1.5
4139.833	4.5
4142.237	-4.5
