Data from 2018-3-6_conc=3_n=10_RamanShift_05.txt Node
Date: Tue Mar 06 13:45:19 GMT+02:00 2018
User: LAB3
Spectrometer: QEPB0276
Trigger mode: 0
Integration Time (sec): 3.000000E1
Scans to average: 1
Electric dark correction enabled: true
Nonlinearity correction enabled: false
Boxcar width: 0
XAxis mode: Raman Shifts
Number of Pixels in Spectrum: 1044
>>>>>Begin Spectral Data<<<<<
160.701	96.62
166.742	131.62
172.777	187.62
178.805	385.62
184.826	881.62
190.841	1771.62
196.849	2773.62
202.85	3561.62
208.845	3823.62
214.833	3848.62
220.815	3804.62
226.789	3784.62
232.758	3824.62
238.719	3821.62
244.674	3792.62
250.623	3759.62
256.565	3723.62
262.5	3696.62
268.429	3669.62
274.351	3653.62
280.267	3633.62
286.176	3686.62
292.079	3656.62
297.975	3672.62
303.865	3668.62
309.748	3659.62
315.625	3666.62
321.495	3669.62
327.359	3682.62
333.217	3673.62
339.068	3693.62
344.912	3702.62
350.751	3711.62
356.583	3724.62
362.408	3755.62
368.227	3751.62
374.04	3768.62
379.847	3779.62
385.647	3823.62
391.44	3811.62
397.228	3828.62
403.009	3849.62
408.784	3859.62
414.553	3899.62
420.315	3898.62
426.071	3888.62
431.821	3913.62
437.565	3908.62
443.302	3897.62
449.033	3846.62
454.758	3850.62
460.477	3831.62
466.189	3816.62
471.896	3779.62
477.596	3726.62
483.29	3706.62
488.978	3703.62
494.66	3651.62
500.335	3591.62
506.005	3441.62
511.668	3301.62
517.325	3121.62
522.977	3006.62
528.622	2903.62
534.261	2868.62
539.894	2805.62
545.521	2775.62
551.141	2742.62
556.756	2707.62
562.365	2691.62
567.968	2662.62
573.565	2637.62
579.155	2641.62
584.74	2623.62
590.319	2627.62
595.892	2610.62
601.459	2622.62
607.02	2599.62
612.575	2582.62
618.124	2545.62
623.667	2502.62
629.204	2506.62
634.735	2460.62
640.261	2435.62
645.781	2407.62
651.294	2389.62
656.802	2378.62
662.304	2387.62
667.8	2377.62
673.29	2374.62
678.775	2355.62
684.254	2357.62
689.726	2333.62
695.193	2320.62
700.655	2312.62
706.11	2281.62
711.56	2299.62
717.004	2306.62
722.442	2250.62
727.874	2262.62
733.301	2251.62
738.722	2221.62
744.137	2247.62
749.547	2229.62
754.951	2242.62
760.349	2259.62
765.741	2259.62
771.128	2249.62
776.509	2288.62
781.885	2330.62
787.254	2326.62
792.618	2339.62
797.977	2349.62
803.33	2315.62
808.677	2309.62
814.019	2278.62
819.355	2260.62
824.686	2243.62
830.011	2226.62
835.33	2253.62
840.644	2229.62
845.952	2174.62
851.255	2195.62
856.552	2183.62
861.844	2148.62
867.13	2107.62
872.41	2099.62
877.686	2088.62
882.955	2074.62
888.219	2056.62
893.478	2021.62
898.731	2001.62
903.979	1980.62
909.221	1950.62
914.458	1960.62
919.69	1970.62
924.916	1958.62
930.136	1956.62
935.351	1947.62
940.561	1957.62
945.766	1943.62
950.965	1942.62
956.158	1912.62
961.347	1901.62
966.529	1863.62
971.707	1872.62
976.879	1845.62
982.046	1827.62
987.208	1805.62
992.364	1820.62
997.515	1812.62
1002.66	1828.62
1007.801	1849.62
1012.936	1858.62
1018.066	1861.62
1023.19	1854.62
1028.309	1900.62
1033.423	1883.62
1038.532	1872.62
1043.636	1856.62
1048.734	1858.62
1053.827	1821.62
1058.915	1805.62
1063.998	1810.62
1069.075	1781.62
1074.147	1780.62
1079.214	1795.62
1084.276	1792.62
1089.333	1802.62
1094.385	1812.62
1099.431	1801.62
1104.472	1824.62
1109.509	1771.62
1114.54	1752.62
1119.565	1732.62
1124.586	1721.62
1129.602	1688.62
1134.613	1648.62
1139.618	1663.62
1144.619	1654.62
1149.614	1661.62
1154.604	1656.62
1159.589	1676.62
1164.57	1689.62
1169.545	1706.62
1174.515	1694.62
1179.48	1683.62
1184.44	1675.62
1189.395	1674.62
1194.345	1633.62
1199.29	1637.62
1204.23	1638.62
1209.165	1622.62
1214.095	1634.62
1219.021	1657.62
1223.941	1658.62
1228.856	1664.62
1233.766	1664.62
1238.672	1671.62
1243.572	1668.62
1248.467	1655.62
1253.358	1624.62
1258.244	1596.62
1263.124	1578.62
1268	1571.62
1272.871	1509.62
1277.737	1527.62
1282.599	1498.62
1287.455	1488.62
1292.306	1502.62
1297.153	1493.62
1301.995	1506.62
1306.832	1517.62
1311.664	1527.62
1316.491	1492.62
1321.314	1519.62
1326.132	1488.62
1330.945	1480.62
1335.753	1455.62
1340.556	1433.62
1345.354	1409.62
1350.148	1386.62
1354.937	1381.62
1359.722	1346.62
1364.501	1351.62
1369.276	1359.62
1374.046	1350.62
1378.811	1338.62
1383.572	1345.62
1388.327	1344.62
1393.079	1314.62
1397.825	1304.62
1402.567	1310.62
1407.304	1304.62
1412.036	1285.62
1416.764	1287.62
1421.487	1275.62
1426.205	1270.62
1430.919	1279.62
1435.628	1288.62
1440.333	1277.62
1445.032	1297.62
1449.727	1308.62
1454.418	1318.62
1459.104	1297.62
1463.785	1282.62
1468.462	1265.62
1473.134	1254.62
1477.802	1223.62
1482.465	1183.62
1487.123	1200.62
1491.777	1172.62
1496.426	1167.62
1501.071	1217.62
1505.711	1197.62
1510.347	1197.62
1514.978	1204.62
1519.604	1197.62
1524.226	1215.62
1528.844	1176.62
1533.457	1200.62
1538.065	1192.62
1542.669	1181.62
1547.269	1172.62
1551.864	1154.62
1556.454	1148.62
1561.041	1143.62
1565.622	1161.62
1570.199	1174.62
1574.772	1179.62
1579.34	1209.62
1583.904	1199.62
1588.464	1209.62
1593.019	1219.62
1597.569	1196.62
1602.115	1188.62
1606.657	1193.62
1611.195	1194.62
1615.728	1191.62
1620.256	1168.62
1624.78	1158.62
1629.3	1161.62
1633.816	1180.62
1638.327	1184.62
1642.834	1182.62
1647.336	1183.62
1651.834	1206.62
1656.328	1200.62
1660.817	1189.62
1665.302	1164.62
1669.783	1168.62
1674.259	1128.62
1678.732	1116.62
1683.199	1083.62
1687.663	1052.62
1692.122	1041.62
1696.577	1010.62
1701.028	994.62
1705.474	963.62
1709.917	954.62
1714.355	957.62
1718.788	946.62
1723.218	919.62
1727.643	918.62
1732.064	907.62
1736.481	883.62
1740.893	888.62
1745.301	855.62
1749.705	832.62
1754.105	824.62
1758.501	810.62
1762.893	807.62
1767.28	783.62
1771.663	773.62
1776.042	748.62
1780.417	758.62
1784.787	756.62
1789.154	764.62
1793.516	756.62
1797.874	761.62
1802.228	741.62
1806.578	740.62
1810.924	754.62
1815.266	639.62
1819.603	749.62
1823.937	722.62
1828.266	715.62
1832.591	721.62
1836.913	702.62
1841.23	706.62
1845.543	696.62
1849.852	714.62
1854.156	705.62
1858.457	695.62
1862.754	692.62
1867.047	702.62
1871.335	724.62
1875.62	712.62
1879.9	717.62
1884.177	697.62
1888.449	694.62
1892.718	695.62
1896.982	684.62
1901.243	665.62
1905.499	667.62
1909.752	667.62
1914	645.62
1918.245	664.62
1922.485	662.62
1926.722	662.62
1930.954	660.62
1935.183	668.62
1939.408	682.62
1943.628	655.62
1947.845	655.62
1952.058	651.62
1956.267	641.62
1960.472	650.62
1964.673	636.62
1968.87	625.62
1973.063	617.62
1977.252	607.62
1981.438	597.62
1985.619	591.62
1989.797	582.62
1993.971	586.62
1998.14	599.62
2002.306	576.62
2006.469	600.62
2010.627	580.62
2014.781	584.62
2018.932	564.62
2023.078	594.62
2027.221	575.62
2031.36	564.62
2035.495	546.62
2039.627	548.62
2043.754	546.62
2047.878	529.62
2051.998	531.62
2056.114	535.62
2060.226	530.62
2064.334	533.62
2068.439	539.62
2072.54	545.62
2076.637	521.62
2080.73	530.62
2084.82	542.62
2088.906	534.62
2092.988	531.62
2097.066	532.62
2101.14	516.62
2105.211	538.62
2109.278	510.62
2113.342	507.62
2117.401	499.62
2121.457	486.62
2125.509	481.62
2129.558	495.62
2133.602	498.62
2137.643	487.62
2141.681	482.62
2145.714	480.62
2149.744	471.62
2153.77	481.62
2157.793	456.62
2161.812	438.62
2165.827	433.62
2169.838	461.62
2173.846	441.62
2177.851	436.62
2181.851	439.62
2185.848	428.62
2189.841	427.62
2193.831	418.62
2197.817	418.62
2201.799	413.62
2205.778	412.62
2209.753	397.62
2213.725	399.62
2217.693	400.62
2221.657	395.62
2225.618	407.62
2229.575	393.62
2233.529	398.62
2237.479	386.62
2241.425	388.62
2245.368	365.62
2249.307	370.62
2253.243	359.62
2257.175	368.62
2261.104	355.62
2265.029	363.62
2268.95	351.62
2272.868	346.62
2276.783	338.62
2280.694	341.62
2284.601	330.62
2288.505	332.62
2292.405	334.62
2296.302	315.62
2300.195	319.62
2304.085	289.62
2307.971	317.62
2311.854	286.62
2315.734	305.62
2319.609	307.62
2323.482	278.62
2327.351	281.62
2331.216	286.62
2335.078	299.62
2338.937	283.62
2342.792	284.62
2346.643	276.62
2350.492	297.62
2354.336	280.62
2358.178	291.62
2362.015	283.62
2365.85	278.62
2369.681	285.62
2373.508	291.62
2377.333	299.62
2381.153	283.62
2384.971	276.62
2388.785	277.62
2392.595	270.62
2396.402	263.62
2400.206	246.62
2404.007	266.62
2407.804	260.62
2411.597	272.62
2415.388	266.62
2419.174	268.62
2422.958	259.62
2426.738	264.62
2430.515	262.62
2434.289	261.62
2438.059	244.62
2441.825	251.62
2445.589	255.62
2449.349	241.62
2453.106	249.62
2456.859	242.62
2460.61	248.62
2464.356	229.62
2468.1	237.62
2471.84	227.62
2475.577	228.62
2479.311	224.62
2483.041	227.62
2486.768	243.62
2490.492	237.62
2494.213	226.62
2497.93	218.62
2501.644	210.62
2505.355	230.62
2509.062	220.62
2512.766	221.62
2516.467	218.62
2520.165	212.62
2523.859	209.62
2527.551	233.62
2531.239	199.62
2534.923	209.62
2538.605	208.62
2542.283	209.62
2545.958	206.62
2549.63	212.62
2553.299	212.62
2556.964	195.62
2560.626	188.62
2564.285	201.62
2567.941	186.62
2571.594	188.62
2575.243	201.62
2578.89	195.62
2582.533	190.62
2586.173	182.62
2589.809	187.62
2593.443	164.62
2597.073	190.62
2600.701	185.62
2604.325	179.62
2607.946	175.62
2611.564	190.62
2615.178	186.62
2618.79	185.62
2622.398	166.62
2626.004	178.62
2629.606	175.62
2633.205	160.62
2636.801	171.62
2640.394	176.62
2643.983	158.62
2647.57	160.62
2651.153	158.62
2654.734	165.62
2658.311	136.62
2661.885	146.62
2665.456	153.62
2669.025	147.62
2672.589	149.62
2676.151	162.62
2679.71	160.62
2683.266	148.62
2686.819	149.62
2690.368	145.62
2693.915	157.62
2697.458	132.62
2700.999	141.62
2704.536	144.62
2708.071	134.62
2711.602	141.62
2715.13	142.62
2718.656	119.62
2722.178	129.62
2725.697	114.62
2729.214	124.62
2732.727	128.62
2736.237	112.62
2739.744	124.62
2743.249	115.62
2746.75	127.62
2750.248	116.62
2753.743	125.62
2757.236	119.62
2760.725	121.62
2764.211	95.62
2767.695	129.62
2771.175	121.62
2774.652	125.62
2778.127	112.62
2781.598	123.62
2785.067	122.62
2788.532	110.62
2791.995	118.62
2795.455	103.62
2798.911	127.62
2802.365	116.62
2805.816	116.62
2809.264	128.62
2812.709	118.62
2816.151	119.62
2819.59	103.62
2823.026	115.62
2826.46	120.62
2829.89	122.62
2833.318	95.62
2836.742	113.62
2840.164	120.62
2843.583	112.62
2846.999	119.62
2850.412	121.62
2853.822	121.62
2857.229	140.62
2860.634	126.62
2864.035	104.62
2867.434	136.62
2870.83	129.62
2874.223	121.62
2877.613	129.62
2881	123.62
2884.385	130.62
2887.766	127.62
2891.145	133.62
2894.521	131.62
2897.894	127.62
2901.264	140.62
2904.631	131.62
2907.996	139.62
2911.358	145.62
2914.717	145.62
2918.073	136.62
2921.426	127.62
2924.777	128.62
2928.124	141.62
2931.469	159.62
2934.811	142.62
2938.15	160.62
2941.487	155.62
2944.821	174.62
2948.152	154.62
2951.48	152.62
2954.805	144.62
2958.128	168.62
2961.447	152.62
2964.765	172.62
2968.079	150.62
2971.39	155.62
2974.699	160.62
2978.005	159.62
2981.308	157.62
2984.609	155.62
2987.907	168.62
2991.202	171.62
2994.494	160.62
2997.784	168.62
3001.07	173.62
3004.355	163.62
3007.636	179.62
3010.915	172.62
3014.191	172.62
3017.464	180.62
3020.734	171.62
3024.002	177.62
3027.267	179.62
3030.53	191.62
3033.789	178.62
3037.046	184.62
3040.301	180.62
3043.552	192.62
3046.801	201.62
3050.048	212.62
3053.291	220.62
3056.532	213.62
3059.771	206.62
3063.006	221.62
3066.239	222.62
3069.469	234.62
3072.697	227.62
3075.922	240.62
3079.144	235.62
3082.364	267.62
3085.581	250.62
3088.795	276.62
3092.007	272.62
3095.216	287.62
3098.423	267.62
3101.627	258.62
3104.828	286.62
3108.026	289.62
3111.222	309.62
3114.416	322.62
3117.607	307.62
3120.795	320.62
3123.98	326.62
3127.163	326.62
3130.344	336.62
3133.521	341.62
3136.696	358.62
3139.869	357.62
3143.039	349.62
3146.206	388.62
3149.371	387.62
3152.533	373.62
3155.693	374.62
3158.85	389.62
3162.005	384.62
3165.157	386.62
3168.306	383.62
3171.453	392.62
3174.597	380.62
3177.739	369.62
3180.878	398.62
3184.014	401.62
3187.149	394.62
3190.28	399.62
3193.409	398.62
3196.536	401.62
3199.659	415.62
3202.781	405.62
3205.9	394.62
3209.016	406.62
3212.13	390.62
3215.241	402.62
3218.35	397.62
3221.456	385.62
3224.56	382.62
3227.661	387.62
3230.76	377.62
3233.856	365.62
3236.95	374.62
3240.041	361.62
3243.13	374.62
3246.216	364.62
3249.3	374.62
3252.382	363.62
3255.46	350.62
3258.537	308.62
3261.611	355.62
3264.682	368.62
3267.751	357.62
3270.818	338.62
3273.882	365.62
3276.943	353.62
3280.002	362.62
3283.059	340.62
3286.113	341.62
3289.165	330.62
3292.214	329.62
3295.261	344.62
3298.306	316.62
3301.348	323.62
3304.387	312.62
3307.425	314.62
3310.459	306.62
3313.492	317.62
3316.521	304.62
3319.549	308.62
3322.574	312.62
3325.597	301.62
3328.617	288.62
3331.635	297.62
3334.65	273.62
3337.663	292.62
3340.674	292.62
3343.682	291.62
3346.688	293.62
3349.691	291.62
3352.692	280.62
3355.691	291.62
3358.687	292.62
3361.681	291.62
3364.673	273.62
3367.662	289.62
3370.649	289.62
3373.633	270.62
3376.615	275.62
3379.595	260.62
3382.572	263.62
3385.547	257.62
3388.52	241.62
3391.49	239.62
3394.458	258.62
3397.424	250.62
3400.387	235.62
3403.348	241.62
3406.307	233.62
3409.263	230.62
3412.217	241.62
3415.168	227.62
3418.118	244.62
3421.065	224.62
3424.009	235.62
3426.951	217.62
3429.891	218.62
3432.829	218.62
3435.764	209.62
3438.697	198.62
3441.628	213.62
3444.557	184.62
3447.483	184.62
3450.407	187.62
3453.328	179.62
3456.247	179.62
3459.164	165.62
3462.079	182.62
3464.991	160.62
3467.902	155.62
3470.809	153.62
3473.715	154.62
3476.618	138.62
3479.519	146.62
3482.418	123.62
3485.315	122.62
3488.209	124.62
3491.101	126.62
3493.99	108.62
3496.878	110.62
3499.763	112.62
3502.646	108.62
3505.527	93.62
3508.405	95.62
3511.281	87.62
3514.155	96.62
3517.027	88.62
3519.897	74.62
3522.764	86.62
3525.629	58.62
3528.492	77.62
3531.352	70.62
3534.211	67.62
3537.067	57.62
3539.921	56.62
3542.773	64.62
3545.622	50.62
3548.469	37.62
3551.315	42.62
3554.157	43.62
3556.998	36.62
3559.837	34.62
3562.673	42.62
3565.507	29.62
3568.339	22.62
3571.169	27.62
3573.996	28.62
3576.822	9.62
3579.645	15.62
3582.466	12.62
3585.285	26.62
3588.101	18.62
3590.916	11.62
3593.728	28.62
3596.538	13.62
3599.346	16.62
3602.152	4.62
3604.956	10.62
3607.757	10.62
3610.556	-5.38
3613.354	9.62
3616.149	5.62
3618.942	8.62
3621.732	10.62
3624.521	-5.38
3627.307	-10.38
3630.092	-11.38
3632.874	7.62
3635.654	-3.38
3638.432	-4.38
3641.208	-10.38
3643.982	-11.38
3646.753	3.62
3649.523	-34.38
3652.29	-13.38
3655.055	-8.38
3657.818	-12.38
3660.579	-11.38
3663.338	-23.38
3666.095	-18.38
3668.849	-38.38
3671.602	-7.38
3674.352	-24.38
3677.101	-11.38
3679.847	-7.38
3682.591	-27.38
3685.333	-29.38
3688.073	-16.38
3690.811	-29.38
3693.547	-35.38
3696.281	-30.38
3699.013	-25.38
3701.742	-26.38
3704.47	-33.38
3707.195	-23.38
3709.919	-25.38
3712.64	-25.38
3715.359	-38.38
3718.076	-18.38
3720.792	-28.38
3723.505	-26.38
3726.216	-12.38
3728.925	-27.38
3731.632	-31.38
3734.336	-27.38
3737.039	-26.38
3739.74	-24.38
3742.439	-55.38
3745.136	-21.38
3747.83	-21.38
3750.523	-23.38
3753.213	-89.38
3755.902	-31.38
3758.589	-43.38
3761.273	-34.38
3763.956	-21.38
3766.636	-39.38
3769.315	-25.38
3771.991	-26.38
3774.665	-36.38
3777.338	-29.38
3780.008	-35.38
3782.677	-28.38
3785.343	-44.38
3788.007	-47.38
3790.67	-22.38
3793.33	-42.38
3795.989	-32.38
3798.645	-27.38
3801.299	-43.38
3803.952	-37.38
3806.602	-38.38
3809.251	-19.38
3811.897	-30.38
3814.542	-32.38
3817.184	-35.38
3819.825	-27.38
3822.463	-40.38
3825.1	-32.38
3827.735	-28.38
3830.367	-37.38
3832.998	-17.38
3835.627	-36.38
3838.253	-22.38
3840.878	-29.38
3843.501	-19.38
3846.122	-26.38
3848.741	-27.38
3851.358	-27.38
3853.973	-40.38
3856.586	-25.38
3859.197	-40.38
3861.806	-27.38
3864.414	-40.38
3867.019	-30.38
3869.622	-21.38
3872.224	-22.38
3874.823	-11.38
3877.421	13.62
3880.016	17.62
3882.61	47.62
3885.202	63.62
3887.792	46.62
3890.38	18.62
3892.966	-9.38
3895.55	-34.38
3898.132	-24.38
3900.713	-24.38
3903.291	-30.38
3905.868	-34.38
3908.442	-29.38
3911.015	-32.38
3913.586	-36.38
3916.155	-35.38
3918.722	-37.38
3921.287	-37.38
3923.85	-50.38
3926.411	-38.38
3928.971	-40.38
3931.528	-27.38
3934.084	-34.38
3936.638	-42.38
3939.19	-24.38
3941.74	-28.38
3944.288	-36.38
3946.834	-30.38
3949.378	-21.38
3951.921	-43.38
3954.462	-30.38
3957	-29.38
3959.537	-19.38
3962.072	-35.38
3964.606	-45.38
3967.137	-33.38
3969.667	-33.38
3972.194	-29.38
3974.72	-36.38
3977.244	-56.38
3979.766	-35.38
3982.286	-37.38
3984.805	-26.38
3987.321	-19.38
3989.836	-27.38
3992.349	-36.38
3994.86	-28.38
3997.369	-41.38
3999.877	-34.38
4002.382	-31.38
4004.886	-26.38
4007.388	-30.38
4009.888	-21.38
4012.386	-23.38
4014.883	-26.38
4017.377	-33.38
4019.87	-26.38
4022.361	-38.38
4024.85	-30.38
4027.338	-32.38
4029.823	-36.38
4032.307	-33.38
4034.789	-30.38
4037.269	-27.38
4039.747	-39.38
4042.224	-25.38
4044.699	-40.38
4047.172	-38.38
4049.643	-26.38
4052.112	-56.38
4054.58	-28.38
4057.046	-40.38
4059.51	-35.38
4061.972	-32.38
4064.432	-49.38
4066.891	-24.38
4069.348	-33.38
4071.803	-28.38
4074.256	-36.38
4076.708	-29.38
4079.158	-32.38
4081.606	-23.38
4084.052	-31.38
4086.497	-29.38
4088.939	-30.38
4091.38	-31.38
4093.819	-30.38
4096.257	-1.38
4098.693	-4.38
4101.127	-5.38
4103.559	0.62
4105.989	88.62
4108.418	86.62
4110.845	76.62
4113.27	86.62
4115.694	94.62
4118.115	83.62
4120.535	-26.38
4122.954	-26.38
4125.37	-22.38
4127.785	-29.38
4130.198	-24.38
4132.609	-30.38
4135.019	8.62
4137.427	2.62
4139.833	2.62
4142.237	-3.38
