Data from 2018-3-6_conc=2_n=1_RamanShift_03.txt Node
Date: Tue Mar 06 12:42:49 GMT+02:00 2018
User: LAB3
Spectrometer: QEPB0276
Trigger mode: 0
Integration Time (sec): 3.000000E1
Scans to average: 1
Electric dark correction enabled: true
Nonlinearity correction enabled: false
Boxcar width: 0
XAxis mode: Raman Shifts
Number of Pixels in Spectrum: 1044
>>>>>Begin Spectral Data<<<<<
160.701	173.62
166.742	223.62
172.777	328.62
178.805	663.62
184.826	1482.62
190.841	2981.62
196.849	4727.62
202.85	6061.62
208.845	6567.62
214.833	6606.62
220.815	6508.62
226.789	6586.62
232.758	6620.62
238.719	6639.62
244.674	6624.62
250.623	6592.62
256.565	6559.62
262.5	6487.62
268.429	6464.62
274.351	6482.62
280.267	6459.62
286.176	6477.62
292.079	6503.62
297.975	6524.62
303.865	6530.62
309.748	6585.62
315.625	6570.62
321.495	6606.62
327.359	6627.62
333.217	6634.62
339.068	6651.62
344.912	6701.62
350.751	6721.62
356.583	6753.62
362.408	6787.62
368.227	6841.62
374.04	6884.62
379.847	6892.62
385.647	6925.62
391.44	6988.62
397.228	7004.62
403.009	7063.62
408.784	7108.62
414.553	7130.62
420.315	7136.62
426.071	7163.62
431.821	7182.62
437.565	7146.62
443.302	7131.62
449.033	7085.62
454.758	7058.62
460.477	7000.62
466.189	6942.62
471.896	6879.62
477.596	6821.62
483.29	6772.62
488.978	6760.62
494.66	6726.62
500.335	6523.62
506.005	6204.62
511.668	5876.62
517.325	5541.62
522.977	5324.62
528.622	5105.62
534.261	4980.62
539.894	4879.62
545.521	4784.62
551.141	4705.62
556.756	4643.62
562.365	4621.62
567.968	4555.62
573.565	4542.62
579.155	4536.62
584.74	4481.62
590.319	4460.62
595.892	4481.62
601.459	4507.62
607.02	4471.62
612.575	4435.62
618.124	4379.62
623.667	4292.62
629.204	4255.62
634.735	4177.62
640.261	4152.62
645.781	4071.62
651.294	4072.62
656.802	4036.62
662.304	4052.62
667.8	4033.62
673.29	4028.62
678.775	3987.62
684.254	3978.62
689.726	3974.62
695.193	3953.62
700.655	3927.62
706.11	3926.62
711.56	3876.62
717.004	3887.62
722.442	3824.62
727.874	3804.62
733.301	3807.62
738.722	3775.62
744.137	3800.62
749.547	3786.62
754.951	3808.62
760.349	3803.62
765.741	3824.62
771.128	3853.62
776.509	3891.62
781.885	3992.62
787.254	4018.62
792.618	4008.62
797.977	4026.62
803.33	3989.62
808.677	3947.62
814.019	3907.62
819.355	3898.62
824.686	3858.62
830.011	3809.62
835.33	3830.62
840.644	3799.62
845.952	3718.62
851.255	3714.62
856.552	3694.62
861.844	3625.62
867.13	3543.62
872.41	3535.62
877.686	3521.62
882.955	3487.62
888.219	3450.62
893.478	3403.62
898.731	3366.62
903.979	3325.62
909.221	3279.62
914.458	3271.62
919.69	3274.62
924.916	3238.62
930.136	3270.62
935.351	3271.62
940.561	3276.62
945.766	3247.62
950.965	3258.62
956.158	3217.62
961.347	3178.62
966.529	3134.62
971.707	3099.62
976.879	3064.62
982.046	3058.62
987.208	3028.62
992.364	3041.62
997.515	3044.62
1002.66	3064.62
1007.801	3075.62
1012.936	3098.62
1018.066	3096.62
1023.19	3142.62
1028.309	3150.62
1033.423	3169.62
1038.532	3153.62
1043.636	3116.62
1048.734	3094.62
1053.827	3087.62
1058.915	3056.62
1063.998	3049.62
1069.075	3014.62
1074.147	3041.62
1079.214	3008.62
1084.276	3058.62
1089.333	3044.62
1094.385	3059.62
1099.431	3019.62
1104.472	3022.62
1109.509	2961.62
1114.54	2924.62
1119.565	2883.62
1124.586	2835.62
1129.602	2792.62
1134.613	2788.62
1139.618	2765.62
1144.619	2782.62
1149.614	2779.62
1154.604	2793.62
1159.589	2804.62
1164.57	2820.62
1169.545	2813.62
1174.515	2828.62
1179.48	2804.62
1184.44	2769.62
1189.395	2781.62
1194.345	2712.62
1199.29	2734.62
1204.23	2732.62
1209.165	2716.62
1214.095	2740.62
1219.021	2733.62
1223.941	2736.62
1228.856	2760.62
1233.766	2769.62
1238.672	2785.62
1243.572	2759.62
1248.467	2738.62
1253.358	2676.62
1258.244	2654.62
1263.124	2623.62
1268	2583.62
1272.871	2495.62
1277.737	2508.62
1282.599	2480.62
1287.455	2474.62
1292.306	2518.62
1297.153	2509.62
1301.995	2511.62
1306.832	2530.62
1311.664	2531.62
1316.491	2551.62
1321.314	2521.62
1326.132	2496.62
1330.945	2484.62
1335.753	2436.62
1340.556	2393.62
1345.354	2343.62
1350.148	2332.62
1354.937	2314.62
1359.722	2260.62
1364.501	2265.62
1369.276	2257.62
1374.046	2265.62
1378.811	2223.62
1383.572	2229.62
1388.327	2251.62
1393.079	2220.62
1397.825	2181.62
1402.567	2184.62
1407.304	2143.62
1412.036	2142.62
1416.764	2138.62
1421.487	2139.62
1426.205	2126.62
1430.919	2160.62
1435.628	2157.62
1440.333	2171.62
1445.032	2177.62
1449.727	2207.62
1454.418	2210.62
1459.104	2218.62
1463.785	2184.62
1468.462	2170.62
1473.134	2134.62
1477.802	2099.62
1482.465	2025.62
1487.123	2037.62
1491.777	2018.62
1496.426	1995.62
1501.071	2050.62
1505.711	2053.62
1510.347	2056.62
1514.978	2057.62
1519.604	2054.62
1524.226	2084.62
1528.844	2061.62
1533.457	2070.62
1538.065	2042.62
1542.669	2003.62
1547.269	1992.62
1551.864	1975.62
1556.454	1958.62
1561.041	1961.62
1565.622	1956.62
1570.199	1972.62
1574.772	1973.62
1579.34	2008.62
1583.904	2030.62
1588.464	2026.62
1593.019	2050.62
1597.569	2017.62
1602.115	2005.62
1606.657	2014.62
1611.195	2013.62
1615.728	1997.62
1620.256	1985.62
1624.78	1976.62
1629.3	1982.62
1633.816	2014.62
1638.327	2009.62
1642.834	2007.62
1647.336	2045.62
1651.834	2062.62
1656.328	2066.62
1660.817	2051.62
1665.302	2052.62
1669.783	2019.62
1674.259	1992.62
1678.732	1958.62
1683.199	1910.62
1687.663	1868.62
1692.122	1813.62
1696.577	1791.62
1701.028	1762.62
1705.474	1713.62
1709.917	1680.62
1714.355	1671.62
1718.788	1659.62
1723.218	1630.62
1727.643	1605.62
1732.064	1591.62
1736.481	1553.62
1740.893	1556.62
1745.301	1492.62
1749.705	1457.62
1754.105	1451.62
1758.501	1406.62
1762.893	1414.62
1767.28	1363.62
1771.663	1342.62
1776.042	1327.62
1780.417	1340.62
1784.787	1340.62
1789.154	1346.62
1793.516	1355.62
1797.874	1333.62
1802.228	1338.62
1806.578	1313.62
1810.924	1328.62
1815.266	1234.62
1819.603	1290.62
1823.937	1249.62
1828.266	1243.62
1832.591	1237.62
1836.913	1227.62
1841.23	1228.62
1845.543	1212.62
1849.852	1220.62
1854.156	1219.62
1858.457	1223.62
1862.754	1212.62
1867.047	1235.62
1871.335	1242.62
1875.62	1233.62
1879.9	1230.62
1884.177	1229.62
1888.449	1206.62
1892.718	1213.62
1896.982	1233.62
1901.243	1201.62
1905.499	1206.62
1909.752	1190.62
1914	1176.62
1918.245	1202.62
1922.485	1207.62
1926.722	1201.62
1930.954	1216.62
1935.183	1215.62
1939.408	1226.62
1943.628	1223.62
1947.845	1204.62
1952.058	1197.62
1956.267	1163.62
1960.472	1163.62
1964.673	1119.62
1968.87	1107.62
1973.063	1091.62
1977.252	1076.62
1981.438	1058.62
1985.619	1052.62
1989.797	1033.62
1993.971	1029.62
1998.14	1044.62
2002.306	1034.62
2006.469	1034.62
2010.627	1018.62
2014.781	1001.62
2018.932	1002.62
2023.078	1030.62
2027.221	994.62
2031.36	983.62
2035.495	969.62
2039.627	968.62
2043.754	958.62
2047.878	952.62
2051.998	941.62
2056.114	954.62
2060.226	952.62
2064.334	974.62
2068.439	958.62
2072.54	964.62
2076.637	951.62
2080.73	968.62
2084.82	961.62
2088.906	975.62
2092.988	960.62
2097.066	955.62
2101.14	972.62
2105.211	947.62
2109.278	917.62
2113.342	920.62
2117.401	907.62
2121.457	890.62
2125.509	879.62
2129.558	877.62
2133.602	871.62
2137.643	872.62
2141.681	860.62
2145.714	852.62
2149.744	850.62
2153.77	835.62
2157.793	825.62
2161.812	805.62
2165.827	794.62
2169.838	812.62
2173.846	772.62
2177.851	762.62
2181.851	767.62
2185.848	742.62
2189.841	743.62
2193.831	731.62
2197.817	727.62
2201.799	724.62
2205.778	702.62
2209.753	703.62
2213.725	707.62
2217.693	698.62
2221.657	699.62
2225.618	705.62
2229.575	698.62
2233.529	691.62
2237.479	692.62
2241.425	674.62
2245.368	655.62
2249.307	658.62
2253.243	643.62
2257.175	646.62
2261.104	623.62
2265.029	636.62
2268.95	609.62
2272.868	609.62
2276.783	589.62
2280.694	589.62
2284.601	588.62
2288.505	575.62
2292.405	571.62
2296.302	543.62
2300.195	555.62
2304.085	528.62
2307.971	547.62
2311.854	511.62
2315.734	518.62
2319.609	518.62
2323.482	487.62
2327.351	498.62
2331.216	495.62
2335.078	505.62
2338.937	495.62
2342.792	495.62
2346.643	482.62
2350.492	498.62
2354.336	478.62
2358.178	495.62
2362.015	489.62
2365.85	482.62
2369.681	491.62
2373.508	489.62
2377.333	501.62
2381.153	483.62
2384.971	474.62
2388.785	479.62
2392.595	468.62
2396.402	473.62
2400.206	446.62
2404.007	463.62
2407.804	467.62
2411.597	459.62
2415.388	455.62
2419.174	458.62
2422.958	457.62
2426.738	448.62
2430.515	448.62
2434.289	428.62
2438.059	427.62
2441.825	427.62
2445.589	447.62
2449.349	422.62
2453.106	423.62
2456.859	428.62
2460.61	428.62
2464.356	406.62
2468.1	397.62
2471.84	393.62
2475.577	398.62
2479.311	406.62
2483.041	404.62
2486.768	408.62
2490.492	416.62
2494.213	392.62
2497.93	387.62
2501.644	378.62
2505.355	390.62
2509.062	395.62
2512.766	391.62
2516.467	372.62
2520.165	378.62
2523.859	370.62
2527.551	404.62
2531.239	369.62
2534.923	384.62
2538.605	373.62
2542.283	384.62
2545.958	379.62
2549.63	385.62
2553.299	386.62
2556.964	361.62
2560.626	375.62
2564.285	372.62
2567.941	354.62
2571.594	351.62
2575.243	367.62
2578.89	351.62
2582.533	348.62
2586.173	349.62
2589.809	350.62
2593.443	317.62
2597.073	341.62
2600.701	345.62
2604.325	334.62
2607.946	323.62
2611.564	343.62
2615.178	325.62
2618.79	329.62
2622.398	323.62
2626.004	317.62
2629.606	320.62
2633.205	305.62
2636.801	311.62
2640.394	300.62
2643.983	292.62
2647.57	291.62
2651.153	283.62
2654.734	301.62
2658.311	265.62
2661.885	281.62
2665.456	282.62
2669.025	283.62
2672.589	261.62
2676.151	291.62
2679.71	286.62
2683.266	269.62
2686.819	262.62
2690.368	263.62
2693.915	262.62
2697.458	261.62
2700.999	258.62
2704.536	262.62
2708.071	253.62
2711.602	251.62
2715.13	258.62
2718.656	233.62
2722.178	252.62
2725.697	229.62
2729.214	227.62
2732.727	238.62
2736.237	224.62
2739.744	227.62
2743.249	238.62
2746.75	244.62
2750.248	239.62
2753.743	247.62
2757.236	241.62
2760.725	243.62
2764.211	209.62
2767.695	242.62
2771.175	239.62
2774.652	241.62
2778.127	231.62
2781.598	226.62
2785.067	229.62
2788.532	218.62
2791.995	233.62
2795.455	222.62
2798.911	239.62
2802.365	230.62
2805.816	233.62
2809.264	239.62
2812.709	232.62
2816.151	227.62
2819.59	225.62
2823.026	228.62
2826.46	230.62
2829.89	254.62
2833.318	215.62
2836.742	228.62
2840.164	232.62
2843.583	229.62
2846.999	232.62
2850.412	244.62
2853.822	234.62
2857.229	253.62
2860.634	244.62
2864.035	230.62
2867.434	253.62
2870.83	256.62
2874.223	254.62
2877.613	253.62
2881	252.62
2884.385	256.62
2887.766	266.62
2891.145	254.62
2894.521	251.62
2897.894	244.62
2901.264	265.62
2904.631	266.62
2907.996	270.62
2911.358	275.62
2914.717	263.62
2918.073	267.62
2921.426	263.62
2924.777	254.62
2928.124	282.62
2931.469	297.62
2934.811	273.62
2938.15	298.62
2941.487	295.62
2944.821	313.62
2948.152	300.62
2951.48	304.62
2954.805	283.62
2958.128	303.62
2961.447	288.62
2964.765	310.62
2968.079	294.62
2971.39	310.62
2974.699	301.62
2978.005	307.62
2981.308	303.62
2984.609	308.62
2987.907	320.62
2991.202	328.62
2994.494	314.62
2997.784	320.62
3001.07	322.62
3004.355	325.62
3007.636	330.62
3010.915	331.62
3014.191	330.62
3017.464	325.62
3020.734	332.62
3024.002	339.62
3027.267	339.62
3030.53	349.62
3033.789	343.62
3037.046	346.62
3040.301	347.62
3043.552	369.62
3046.801	369.62
3050.048	378.62
3053.291	405.62
3056.532	395.62
3059.771	383.62
3063.006	415.62
3066.239	428.62
3069.469	445.62
3072.697	446.62
3075.922	458.62
3079.144	460.62
3082.364	477.62
3085.581	482.62
3088.795	500.62
3092.007	506.62
3095.216	532.62
3098.423	530.62
3101.627	516.62
3104.828	552.62
3108.026	551.62
3111.222	586.62
3114.416	597.62
3117.607	599.62
3120.795	604.62
3123.98	621.62
3127.163	620.62
3130.344	642.62
3133.521	663.62
3136.696	680.62
3139.869	678.62
3143.039	674.62
3146.206	723.62
3149.371	721.62
3152.533	721.62
3155.693	711.62
3158.85	727.62
3162.005	735.62
3165.157	718.62
3168.306	736.62
3171.453	737.62
3174.597	717.62
3177.739	731.62
3180.878	741.62
3184.014	756.62
3187.149	748.62
3190.28	741.62
3193.409	740.62
3196.536	755.62
3199.659	751.62
3202.781	760.62
3205.9	741.62
3209.016	742.62
3212.13	744.62
3215.241	752.62
3218.35	738.62
3221.456	734.62
3224.56	699.62
3227.661	721.62
3230.76	728.62
3233.856	711.62
3236.95	712.62
3240.041	700.62
3243.13	705.62
3246.216	698.62
3249.3	706.62
3252.382	692.62
3255.46	677.62
3258.537	633.62
3261.611	668.62
3264.682	681.62
3267.751	675.62
3270.818	672.62
3273.882	679.62
3276.943	678.62
3280.002	674.62
3283.059	657.62
3286.113	647.62
3289.165	630.62
3292.214	623.62
3295.261	631.62
3298.306	616.62
3301.348	607.62
3304.387	585.62
3307.425	598.62
3310.459	593.62
3313.492	593.62
3316.521	573.62
3319.549	581.62
3322.574	567.62
3325.597	555.62
3328.617	544.62
3331.635	552.62
3334.65	533.62
3337.663	554.62
3340.674	545.62
3343.682	550.62
3346.688	550.62
3349.691	546.62
3352.692	546.62
3355.691	549.62
3358.687	540.62
3361.681	532.62
3364.673	535.62
3367.662	534.62
3370.649	533.62
3373.633	498.62
3376.615	506.62
3379.595	491.62
3382.572	499.62
3385.547	482.62
3388.52	469.62
3391.49	481.62
3394.458	480.62
3397.424	476.62
3400.387	463.62
3403.348	473.62
3406.307	457.62
3409.263	450.62
3412.217	456.62
3415.168	468.62
3418.118	447.62
3421.065	437.62
3424.009	451.62
3426.951	422.62
3429.891	429.62
3432.829	411.62
3435.764	411.62
3438.697	391.62
3441.628	404.62
3444.557	368.62
3447.483	369.62
3450.407	378.62
3453.328	352.62
3456.247	352.62
3459.164	336.62
3462.079	341.62
3464.991	319.62
3467.902	316.62
3470.809	315.62
3473.715	308.62
3476.618	291.62
3479.519	289.62
3482.418	268.62
3485.315	273.62
3488.209	259.62
3491.101	254.62
3493.99	236.62
3496.878	243.62
3499.763	237.62
3502.646	235.62
3505.527	220.62
3508.405	214.62
3511.281	195.62
3514.155	211.62
3517.027	195.62
3519.897	182.62
3522.764	183.62
3525.629	168.62
3528.492	169.62
3531.352	170.62
3534.211	155.62
3537.067	149.62
3539.921	137.62
3542.773	140.62
3545.622	126.62
3548.469	111.62
3551.315	108.62
3554.157	116.62
3556.998	104.62
3559.837	102.62
3562.673	104.62
3565.507	90.62
3568.339	83.62
3571.169	91.62
3573.996	78.62
3576.822	68.62
3579.645	69.62
3582.466	64.62
3585.285	69.62
3588.101	64.62
3590.916	62.62
3593.728	64.62
3596.538	60.62
3599.346	59.62
3602.152	46.62
3604.956	50.62
3607.757	49.62
3610.556	32.62
3613.354	46.62
3616.149	46.62
3618.942	44.62
3621.732	40.62
3624.521	29.62
3627.307	22.62
3630.092	20.62
3632.874	32.62
3635.654	24.62
3638.432	22.62
3641.208	16.62
3643.982	15.62
3646.753	25.62
3649.523	-11.38
3652.29	11.62
3655.055	12.62
3657.818	12.62
3660.579	4.62
3663.338	-2.38
3666.095	0.62
3668.849	-23.38
3671.602	4.62
3674.352	-10.38
3677.101	13.62
3679.847	3.62
3682.591	-10.38
3685.333	-20.38
3688.073	-4.38
3690.811	-16.38
3693.547	-25.38
3696.281	-17.38
3699.013	-8.38
3701.742	-11.38
3704.47	-23.38
3707.195	-7.38
3709.919	-9.38
3712.64	-12.38
3715.359	-26.38
3718.076	-5.38
3720.792	-19.38
3723.505	-10.38
3726.216	-3.38
3728.925	-21.38
3731.632	-26.38
3734.336	-18.38
3737.039	-19.38
3739.74	-16.38
3742.439	-42.38
3745.136	-13.38
3747.83	-15.38
3750.523	-16.38
3753.213	-82.38
3755.902	-20.38
3758.589	-37.38
3761.273	-23.38
3763.956	-11.38
3766.636	-34.38
3769.315	-12.38
3771.991	-25.38
3774.665	-27.38
3777.338	-20.38
3780.008	-30.38
3782.677	-26.38
3785.343	-39.38
3788.007	-43.38
3790.67	-17.38
3793.33	-36.38
3795.989	-30.38
3798.645	-21.38
3801.299	-36.38
3803.952	-32.38
3806.602	-32.38
3809.251	-21.38
3811.897	-25.38
3814.542	-29.38
3817.184	-29.38
3819.825	-24.38
3822.463	-42.38
3825.1	-29.38
3827.735	-24.38
3830.367	-33.38
3832.998	-12.38
3835.627	-32.38
3838.253	-20.38
3840.878	-26.38
3843.501	-9.38
3846.122	-22.38
3848.741	-20.38
3851.358	-19.38
3853.973	-40.38
3856.586	-19.38
3859.197	-36.38
3861.806	-23.38
3864.414	-35.38
3867.019	-23.38
3869.622	-13.38
3872.224	-5.38
3874.823	14.62
3877.421	53.62
3880.016	79.62
3882.61	138.62
3885.202	152.62
3887.792	110.62
3890.38	61.62
3892.966	12.62
3895.55	-17.38
3898.132	-11.38
3900.713	-19.38
3903.291	-22.38
3905.868	-29.38
3908.442	-29.38
3911.015	-25.38
3913.586	-32.38
3916.155	-30.38
3918.722	-36.38
3921.287	-32.38
3923.85	-45.38
3926.411	-36.38
3928.971	-35.38
3931.528	-29.38
3934.084	-36.38
3936.638	-40.38
3939.19	-28.38
3941.74	-27.38
3944.288	-34.38
3946.834	-31.38
3949.378	-23.38
3951.921	-34.38
3954.462	-31.38
3957	-26.38
3959.537	-11.38
3962.072	-29.38
3964.606	-42.38
3967.137	-31.38
3969.667	-33.38
3972.194	-25.38
3974.72	-37.38
3977.244	-45.38
3979.766	-35.38
3982.286	-34.38
3984.805	-23.38
3987.321	-17.38
3989.836	-24.38
3992.349	-34.38
3994.86	-25.38
3997.369	-35.38
3999.877	-31.38
4002.382	-34.38
4004.886	-23.38
4007.388	-20.38
4009.888	-18.38
4012.386	-23.38
4014.883	-26.38
4017.377	-28.38
4019.87	-25.38
4022.361	-29.38
4024.85	-30.38
4027.338	-22.38
4029.823	-30.38
4032.307	-29.38
4034.789	-29.38
4037.269	-20.38
4039.747	-44.38
4042.224	-11.38
4044.699	-31.38
4047.172	-28.38
4049.643	-20.38
4052.112	-54.38
4054.58	-27.38
4057.046	-39.38
4059.51	-29.38
4061.972	-23.38
4064.432	-42.38
4066.891	-12.38
4069.348	-30.38
4071.803	-28.38
4074.256	-33.38
4076.708	-22.38
4079.158	-26.38
4081.606	-19.38
4084.052	-31.38
4086.497	-19.38
4088.939	-24.38
4091.38	-30.38
4093.819	-24.38
4096.257	5.62
4098.693	-3.38
4101.127	-4.38
4103.559	1.62
4105.989	163.62
4108.418	161.62
4110.845	155.62
4113.27	158.62
4115.694	177.62
4118.115	166.62
4120.535	-25.38
4122.954	-20.38
4125.37	-17.38
4127.785	-28.38
4130.198	-20.38
4132.609	-20.38
4135.019	4.62
4137.427	-1.38
4139.833	3.62
4142.237	-6.38
