Data from 2018-3-6_conc=4_n=3_RamanShift_02.txt Node
Date: Tue Mar 06 13:56:49 GMT+02:00 2018
User: LAB3
Spectrometer: QEPB0276
Trigger mode: 0
Integration Time (sec): 3.000000E1
Scans to average: 1
Electric dark correction enabled: true
Nonlinearity correction enabled: false
Boxcar width: 0
XAxis mode: Raman Shifts
Number of Pixels in Spectrum: 1044
>>>>>Begin Spectral Data<<<<<
160.701	113.25
166.742	137.25
172.777	200.25
178.805	411.25
184.826	892.25
190.841	1771.25
196.849	2766.25
202.85	3543.25
208.845	3822.25
214.833	3799.25
220.815	3714.25
226.789	3732.25
232.758	3733.25
238.719	3716.25
244.674	3682.25
250.623	3659.25
256.565	3619.25
262.5	3583.25
268.429	3556.25
274.351	3529.25
280.267	3499.25
286.176	3505.25
292.079	3533.25
297.975	3507.25
303.865	3521.25
309.748	3520.25
315.625	3504.25
321.495	3498.25
327.359	3526.25
333.217	3552.25
339.068	3532.25
344.912	3533.25
350.751	3558.25
356.583	3574.25
362.408	3575.25
368.227	3604.25
374.04	3601.25
379.847	3629.25
385.647	3649.25
391.44	3655.25
397.228	3684.25
403.009	3689.25
408.784	3657.25
414.553	3744.25
420.315	3733.25
426.071	3698.25
431.821	3741.25
437.565	3687.25
443.302	3727.25
449.033	3695.25
454.758	3691.25
460.477	3626.25
466.189	3630.25
471.896	3583.25
477.596	3576.25
483.29	3549.25
488.978	3535.25
494.66	3511.25
500.335	3412.25
506.005	3278.25
511.668	3135.25
517.325	3003.25
522.977	2893.25
528.622	2786.25
534.261	2740.25
539.894	2671.25
545.521	2642.25
551.141	2599.25
556.756	2592.25
562.365	2562.25
567.968	2545.25
573.565	2498.25
579.155	2514.25
584.74	2490.25
590.319	2510.25
595.892	2507.25
601.459	2491.25
607.02	2462.25
612.575	2453.25
618.124	2437.25
623.667	2399.25
629.204	2360.25
634.735	2329.25
640.261	2307.25
645.781	2257.25
651.294	2257.25
656.802	2262.25
662.304	2266.25
667.8	2259.25
673.29	2226.25
678.775	2265.25
684.254	2237.25
689.726	2203.25
695.193	2208.25
700.655	2211.25
706.11	2181.25
711.56	2182.25
717.004	2178.25
722.442	2133.25
727.874	2146.25
733.301	2146.25
738.722	2117.25
744.137	2130.25
749.547	2106.25
754.951	2118.25
760.349	2125.25
765.741	2130.25
771.128	2132.25
776.509	2175.25
781.885	2189.25
787.254	2209.25
792.618	2218.25
797.977	2206.25
803.33	2186.25
808.677	2182.25
814.019	2158.25
819.355	2135.25
824.686	2129.25
830.011	2103.25
835.33	2110.25
840.644	2112.25
845.952	2084.25
851.255	2084.25
856.552	2066.25
861.844	2034.25
867.13	2012.25
872.41	1987.25
877.686	1999.25
882.955	1970.25
888.219	1951.25
893.478	1921.25
898.731	1897.25
903.979	1855.25
909.221	1847.25
914.458	1845.25
919.69	1843.25
924.916	1852.25
930.136	1845.25
935.351	1837.25
940.561	1847.25
945.766	1859.25
950.965	1843.25
956.158	1823.25
961.347	1801.25
966.529	1779.25
971.707	1770.25
976.879	1744.25
982.046	1710.25
987.208	1715.25
992.364	1716.25
997.515	1735.25
1002.66	1740.25
1007.801	1731.25
1012.936	1749.25
1018.066	1746.25
1023.19	1764.25
1028.309	1770.25
1033.423	1761.25
1038.532	1781.25
1043.636	1741.25
1048.734	1743.25
1053.827	1718.25
1058.915	1704.25
1063.998	1690.25
1069.075	1681.25
1074.147	1693.25
1079.214	1660.25
1084.276	1689.25
1089.333	1694.25
1094.385	1712.25
1099.431	1691.25
1104.472	1694.25
1109.509	1669.25
1114.54	1643.25
1119.565	1627.25
1124.586	1595.25
1129.602	1587.25
1134.613	1568.25
1139.618	1546.25
1144.619	1556.25
1149.614	1565.25
1154.604	1568.25
1159.589	1579.25
1164.57	1580.25
1169.545	1605.25
1174.515	1579.25
1179.48	1578.25
1184.44	1573.25
1189.395	1553.25
1194.345	1555.25
1199.29	1528.25
1204.23	1525.25
1209.165	1513.25
1214.095	1543.25
1219.021	1533.25
1223.941	1531.25
1228.856	1539.25
1233.766	1574.25
1238.672	1557.25
1243.572	1538.25
1248.467	1543.25
1253.358	1516.25
1258.244	1487.25
1263.124	1489.25
1268	1456.25
1272.871	1413.25
1277.737	1412.25
1282.599	1408.25
1287.455	1407.25
1292.306	1402.25
1297.153	1400.25
1301.995	1410.25
1306.832	1413.25
1311.664	1425.25
1316.491	1412.25
1321.314	1414.25
1326.132	1391.25
1330.945	1374.25
1335.753	1358.25
1340.556	1339.25
1345.354	1311.25
1350.148	1306.25
1354.937	1278.25
1359.722	1266.25
1364.501	1255.25
1369.276	1249.25
1374.046	1240.25
1378.811	1247.25
1383.572	1237.25
1388.327	1257.25
1393.079	1231.25
1397.825	1224.25
1402.567	1209.25
1407.304	1222.25
1412.036	1189.25
1416.764	1208.25
1421.487	1195.25
1426.205	1183.25
1430.919	1197.25
1435.628	1198.25
1440.333	1185.25
1445.032	1225.25
1449.727	1223.25
1454.418	1230.25
1459.104	1222.25
1463.785	1180.25
1468.462	1192.25
1473.134	1171.25
1477.802	1162.25
1482.465	1111.25
1487.123	1111.25
1491.777	1092.25
1496.426	1091.25
1501.071	1117.25
1505.711	1104.25
1510.347	1114.25
1514.978	1118.25
1519.604	1127.25
1524.226	1123.25
1528.844	1109.25
1533.457	1116.25
1538.065	1099.25
1542.669	1110.25
1547.269	1090.25
1551.864	1084.25
1556.454	1078.25
1561.041	1076.25
1565.622	1081.25
1570.199	1086.25
1574.772	1102.25
1579.34	1103.25
1583.904	1110.25
1588.464	1135.25
1593.019	1132.25
1597.569	1113.25
1602.115	1115.25
1606.657	1103.25
1611.195	1117.25
1615.728	1126.25
1620.256	1101.25
1624.78	1096.25
1629.3	1103.25
1633.816	1093.25
1638.327	1105.25
1642.834	1116.25
1647.336	1119.25
1651.834	1133.25
1656.328	1129.25
1660.817	1124.25
1665.302	1088.25
1669.783	1081.25
1674.259	1053.25
1678.732	1050.25
1683.199	1018.25
1687.663	991.25
1692.122	974.25
1696.577	938.25
1701.028	933.25
1705.474	907.25
1709.917	891.25
1714.355	871.25
1718.788	876.25
1723.218	852.25
1727.643	848.25
1732.064	841.25
1736.481	823.25
1740.893	824.25
1745.301	802.25
1749.705	759.25
1754.105	773.25
1758.501	758.25
1762.893	748.25
1767.28	702.25
1771.663	719.25
1776.042	710.25
1780.417	698.25
1784.787	710.25
1789.154	714.25
1793.516	702.25
1797.874	692.25
1802.228	686.25
1806.578	680.25
1810.924	695.25
1815.266	576.25
1819.603	687.25
1823.937	659.25
1828.266	666.25
1832.591	672.25
1836.913	662.25
1841.23	640.25
1845.543	636.25
1849.852	660.25
1854.156	635.25
1858.457	635.25
1862.754	637.25
1867.047	658.25
1871.335	654.25
1875.62	653.25
1879.9	648.25
1884.177	628.25
1888.449	644.25
1892.718	634.25
1896.982	636.25
1901.243	613.25
1905.499	615.25
1909.752	616.25
1914	597.25
1918.245	611.25
1922.485	614.25
1926.722	611.25
1930.954	603.25
1935.183	614.25
1939.408	619.25
1943.628	617.25
1947.845	608.25
1952.058	608.25
1956.267	591.25
1960.472	594.25
1964.673	585.25
1968.87	573.25
1973.063	568.25
1977.252	560.25
1981.438	553.25
1985.619	555.25
1989.797	541.25
1993.971	548.25
1998.14	559.25
2002.306	541.25
2006.469	547.25
2010.627	538.25
2014.781	531.25
2018.932	527.25
2023.078	543.25
2027.221	531.25
2031.36	506.25
2035.495	510.25
2039.627	498.25
2043.754	504.25
2047.878	495.25
2051.998	492.25
2056.114	498.25
2060.226	494.25
2064.334	495.25
2068.439	508.25
2072.54	505.25
2076.637	492.25
2080.73	494.25
2084.82	496.25
2088.906	495.25
2092.988	497.25
2097.066	487.25
2101.14	496.25
2105.211	481.25
2109.278	481.25
2113.342	467.25
2117.401	457.25
2121.457	451.25
2125.509	453.25
2129.558	466.25
2133.602	444.25
2137.643	451.25
2141.681	447.25
2145.714	447.25
2149.744	448.25
2153.77	452.25
2157.793	440.25
2161.812	400.25
2165.827	405.25
2169.838	437.25
2173.846	405.25
2177.851	396.25
2181.851	414.25
2185.848	391.25
2189.841	389.25
2193.831	387.25
2197.817	379.25
2201.799	384.25
2205.778	370.25
2209.753	368.25
2213.725	359.25
2217.693	379.25
2221.657	363.25
2225.618	374.25
2229.575	369.25
2233.529	361.25
2237.479	369.25
2241.425	351.25
2245.368	345.25
2249.307	346.25
2253.243	327.25
2257.175	341.25
2261.104	331.25
2265.029	335.25
2268.95	328.25
2272.868	317.25
2276.783	308.25
2280.694	319.25
2284.601	305.25
2288.505	306.25
2292.405	317.25
2296.302	293.25
2300.195	298.25
2304.085	255.25
2307.971	290.25
2311.854	266.25
2315.734	286.25
2319.609	279.25
2323.482	249.25
2327.351	259.25
2331.216	266.25
2335.078	274.25
2338.937	262.25
2342.792	257.25
2346.643	266.25
2350.492	265.25
2354.336	265.25
2358.178	267.25
2362.015	260.25
2365.85	254.25
2369.681	257.25
2373.508	262.25
2377.333	273.25
2381.153	262.25
2384.971	258.25
2388.785	253.25
2392.595	240.25
2396.402	245.25
2400.206	226.25
2404.007	243.25
2407.804	239.25
2411.597	239.25
2415.388	242.25
2419.174	235.25
2422.958	238.25
2426.738	240.25
2430.515	246.25
2434.289	232.25
2438.059	232.25
2441.825	232.25
2445.589	235.25
2449.349	211.25
2453.106	226.25
2456.859	222.25
2460.61	223.25
2464.356	215.25
2468.1	201.25
2471.84	204.25
2475.577	208.25
2479.311	204.25
2483.041	212.25
2486.768	215.25
2490.492	215.25
2494.213	209.25
2497.93	195.25
2501.644	184.25
2505.355	205.25
2509.062	206.25
2512.766	204.25
2516.467	200.25
2520.165	195.25
2523.859	179.25
2527.551	210.25
2531.239	193.25
2534.923	198.25
2538.605	189.25
2542.283	189.25
2545.958	191.25
2549.63	200.25
2553.299	193.25
2556.964	178.25
2560.626	177.25
2564.285	184.25
2567.941	172.25
2571.594	170.25
2575.243	185.25
2578.89	173.25
2582.533	175.25
2586.173	172.25
2589.809	175.25
2593.443	144.25
2597.073	168.25
2600.701	176.25
2604.325	170.25
2607.946	153.25
2611.564	179.25
2615.178	163.25
2618.79	167.25
2622.398	160.25
2626.004	159.25
2629.606	158.25
2633.205	151.25
2636.801	157.25
2640.394	154.25
2643.983	153.25
2647.57	154.25
2651.153	138.25
2654.734	150.25
2658.311	126.25
2661.885	141.25
2665.456	140.25
2669.025	141.25
2672.589	134.25
2676.151	149.25
2679.71	142.25
2683.266	134.25
2686.819	122.25
2690.368	133.25
2693.915	132.25
2697.458	129.25
2700.999	136.25
2704.536	136.25
2708.071	127.25
2711.602	131.25
2715.13	126.25
2718.656	100.25
2722.178	121.25
2725.697	107.25
2729.214	117.25
2732.727	128.25
2736.237	102.25
2739.744	119.25
2743.249	112.25
2746.75	119.25
2750.248	110.25
2753.743	116.25
2757.236	112.25
2760.725	115.25
2764.211	78.25
2767.695	111.25
2771.175	116.25
2774.652	117.25
2778.127	111.25
2781.598	111.25
2785.067	108.25
2788.532	99.25
2791.995	118.25
2795.455	103.25
2798.911	108.25
2802.365	109.25
2805.816	113.25
2809.264	120.25
2812.709	107.25
2816.151	117.25
2819.59	98.25
2823.026	103.25
2826.46	105.25
2829.89	113.25
2833.318	92.25
2836.742	112.25
2840.164	114.25
2843.583	111.25
2846.999	114.25
2850.412	110.25
2853.822	106.25
2857.229	121.25
2860.634	115.25
2864.035	100.25
2867.434	128.25
2870.83	130.25
2874.223	119.25
2877.613	120.25
2881	119.25
2884.385	117.25
2887.766	120.25
2891.145	123.25
2894.521	122.25
2897.894	119.25
2901.264	132.25
2904.631	127.25
2907.996	125.25
2911.358	137.25
2914.717	135.25
2918.073	127.25
2921.426	136.25
2924.777	115.25
2928.124	136.25
2931.469	147.25
2934.811	126.25
2938.15	160.25
2941.487	140.25
2944.821	160.25
2948.152	142.25
2951.48	151.25
2954.805	134.25
2958.128	162.25
2961.447	142.25
2964.765	162.25
2968.079	143.25
2971.39	147.25
2974.699	149.25
2978.005	157.25
2981.308	151.25
2984.609	143.25
2987.907	159.25
2991.202	162.25
2994.494	144.25
2997.784	159.25
3001.07	161.25
3004.355	155.25
3007.636	161.25
3010.915	174.25
3014.191	169.25
3017.464	170.25
3020.734	169.25
3024.002	166.25
3027.267	167.25
3030.53	181.25
3033.789	172.25
3037.046	177.25
3040.301	163.25
3043.552	183.25
3046.801	182.25
3050.048	194.25
3053.291	211.25
3056.532	206.25
3059.771	192.25
3063.006	213.25
3066.239	211.25
3069.469	227.25
3072.697	219.25
3075.922	221.25
3079.144	229.25
3082.364	247.25
3085.581	243.25
3088.795	261.25
3092.007	268.25
3095.216	269.25
3098.423	266.25
3101.627	249.25
3104.828	269.25
3108.026	273.25
3111.222	292.25
3114.416	304.25
3117.607	302.25
3120.795	299.25
3123.98	317.25
3127.163	307.25
3130.344	318.25
3133.521	324.25
3136.696	344.25
3139.869	343.25
3143.039	326.25
3146.206	372.25
3149.371	370.25
3152.533	362.25
3155.693	351.25
3158.85	374.25
3162.005	372.25
3165.157	369.25
3168.306	365.25
3171.453	386.25
3174.597	369.25
3177.739	368.25
3180.878	380.25
3184.014	379.25
3187.149	386.25
3190.28	395.25
3193.409	390.25
3196.536	382.25
3199.659	392.25
3202.781	394.25
3205.9	378.25
3209.016	392.25
3212.13	373.25
3215.241	386.25
3218.35	379.25
3221.456	373.25
3224.56	368.25
3227.661	370.25
3230.76	366.25
3233.856	353.25
3236.95	364.25
3240.041	355.25
3243.13	371.25
3246.216	361.25
3249.3	358.25
3252.382	351.25
3255.46	343.25
3258.537	300.25
3261.611	338.25
3264.682	352.25
3267.751	341.25
3270.818	330.25
3273.882	353.25
3276.943	345.25
3280.002	345.25
3283.059	331.25
3286.113	323.25
3289.165	328.25
3292.214	315.25
3295.261	333.25
3298.306	304.25
3301.348	308.25
3304.387	298.25
3307.425	317.25
3310.459	297.25
3313.492	314.25
3316.521	291.25
3319.549	299.25
3322.574	301.25
3325.597	287.25
3328.617	275.25
3331.635	286.25
3334.65	263.25
3337.663	287.25
3340.674	287.25
3343.682	287.25
3346.688	288.25
3349.691	275.25
3352.692	283.25
3355.691	293.25
3358.687	275.25
3361.681	280.25
3364.673	259.25
3367.662	277.25
3370.649	276.25
3373.633	259.25
3376.615	266.25
3379.595	236.25
3382.572	246.25
3385.547	237.25
3388.52	235.25
3391.49	234.25
3394.458	235.25
3397.424	245.25
3400.387	224.25
3403.348	231.25
3406.307	232.25
3409.263	220.25
3412.217	234.25
3415.168	236.25
3418.118	234.25
3421.065	220.25
3424.009	221.25
3426.951	208.25
3429.891	209.25
3432.829	207.25
3435.764	208.25
3438.697	195.25
3441.628	207.25
3444.557	178.25
3447.483	175.25
3450.407	188.25
3453.328	176.25
3456.247	166.25
3459.164	166.25
3462.079	170.25
3464.991	160.25
3467.902	150.25
3470.809	146.25
3473.715	150.25
3476.618	138.25
3479.519	144.25
3482.418	112.25
3485.315	128.25
3488.209	116.25
3491.101	118.25
3493.99	105.25
3496.878	105.25
3499.763	105.25
3502.646	106.25
3505.527	103.25
3508.405	94.25
3511.281	80.25
3514.155	93.25
3517.027	87.25
3519.897	71.25
3522.764	83.25
3525.629	60.25
3528.492	71.25
3531.352	68.25
3534.211	68.25
3537.067	60.25
3539.921	57.25
3542.773	61.25
3545.622	52.25
3548.469	35.25
3551.315	39.25
3554.157	45.25
3556.998	32.25
3559.837	36.25
3562.673	40.25
3565.507	31.25
3568.339	23.25
3571.169	31.25
3573.996	35.25
3576.822	15.25
3579.645	19.25
3582.466	17.25
3585.285	23.25
3588.101	23.25
3590.916	15.25
3593.728	22.25
3596.538	17.25
3599.346	16.25
3602.152	10.25
3604.956	9.25
3607.757	15.25
3610.556	-5.75
3613.354	13.25
3616.149	9.25
3618.942	10.25
3621.732	10.25
3624.521	-2.75
3627.307	-8.75
3630.092	-8.75
3632.874	10.25
3635.654	2.25
3638.432	-13.75
3641.208	-12.75
3643.982	-8.75
3646.753	4.25
3649.523	-28.75
3652.29	-9.75
3655.055	-6.75
3657.818	-5.75
3660.579	-16.75
3663.338	-21.75
3666.095	-18.75
3668.849	-40.75
3671.602	-9.75
3674.352	-25.75
3677.101	-6.75
3679.847	-8.75
3682.591	-20.75
3685.333	-31.75
3688.073	-19.75
3690.811	-23.75
3693.547	-31.75
3696.281	-29.75
3699.013	-22.75
3701.742	-20.75
3704.47	-31.75
3707.195	-18.75
3709.919	-16.75
3712.64	-24.75
3715.359	-34.75
3718.076	-14.75
3720.792	-24.75
3723.505	-21.75
3726.216	-14.75
3728.925	-29.75
3731.632	-32.75
3734.336	-23.75
3737.039	-19.75
3739.74	-24.75
3742.439	-49.75
3745.136	-22.75
3747.83	-19.75
3750.523	-25.75
3753.213	-87.75
3755.902	-27.75
3758.589	-45.75
3761.273	-31.75
3763.956	-20.75
3766.636	-49.75
3769.315	-19.75
3771.991	-33.75
3774.665	-37.75
3777.338	-27.75
3780.008	-38.75
3782.677	-33.75
3785.343	-46.75
3788.007	-51.75
3790.67	-23.75
3793.33	-40.75
3795.989	-35.75
3798.645	-27.75
3801.299	-45.75
3803.952	-40.75
3806.602	-37.75
3809.251	-24.75
3811.897	-28.75
3814.542	-33.75
3817.184	-35.75
3819.825	-28.75
3822.463	-45.75
3825.1	-35.75
3827.735	-30.75
3830.367	-40.75
3832.998	-20.75
3835.627	-35.75
3838.253	-25.75
3840.878	-35.75
3843.501	-14.75
3846.122	-28.75
3848.741	-27.75
3851.358	-25.75
3853.973	-41.75
3856.586	-24.75
3859.197	-36.75
3861.806	-30.75
3864.414	-42.75
3867.019	-29.75
3869.622	-19.75
3872.224	-18.75
3874.823	-3.75
3877.421	23.25
3880.016	38.25
3882.61	82.25
3885.202	94.25
3887.792	72.25
3890.38	31.25
3892.966	-10.75
3895.55	-27.75
3898.132	-23.75
3900.713	-23.75
3903.291	-26.75
3905.868	-38.75
3908.442	-31.75
3911.015	-27.75
3913.586	-36.75
3916.155	-32.75
3918.722	-38.75
3921.287	-38.75
3923.85	-47.75
3926.411	-41.75
3928.971	-37.75
3931.528	-28.75
3934.084	-35.75
3936.638	-46.75
3939.19	-29.75
3941.74	-29.75
3944.288	-37.75
3946.834	-35.75
3949.378	-24.75
3951.921	-38.75
3954.462	-36.75
3957	-31.75
3959.537	-20.75
3962.072	-32.75
3964.606	-42.75
3967.137	-36.75
3969.667	-35.75
3972.194	-30.75
3974.72	-40.75
3977.244	-59.75
3979.766	-38.75
3982.286	-41.75
3984.805	-27.75
3987.321	-25.75
3989.836	-23.75
3992.349	-38.75
3994.86	-33.75
3997.369	-38.75
3999.877	-37.75
4002.382	-36.75
4004.886	-28.75
4007.388	-31.75
4009.888	-24.75
4012.386	-23.75
4014.883	-32.75
4017.377	-31.75
4019.87	-25.75
4022.361	-40.75
4024.85	-30.75
4027.338	-30.75
4029.823	-32.75
4032.307	-33.75
4034.789	-32.75
4037.269	-33.75
4039.747	-48.75
4042.224	-26.75
4044.699	-38.75
4047.172	-32.75
4049.643	-22.75
4052.112	-53.75
4054.58	-31.75
4057.046	-44.75
4059.51	-26.75
4061.972	-32.75
4064.432	-45.75
4066.891	-20.75
4069.348	-29.75
4071.803	-31.75
4074.256	-35.75
4076.708	-27.75
4079.158	-28.75
4081.606	-19.75
4084.052	-34.75
4086.497	-25.75
4088.939	-33.75
4091.38	-38.75
4093.819	-26.75
4096.257	3.25
4098.693	-7.75
4101.127	-7.75
4103.559	0.25
4105.989	103.25
4108.418	109.25
4110.845	94.25
4113.27	105.25
4115.694	106.25
4118.115	101.25
4120.535	-27.75
4122.954	-21.75
4125.37	-20.75
4127.785	-30.75
4130.198	-25.75
4132.609	-27.75
4135.019	9.25
4137.427	0.25
4139.833	6.25
4142.237	-3.75
