Data from 2018-3-6_conc=0_n=10_RamanShift_02.txt Node
Date: Tue Mar 06 12:38:19 GMT+02:00 2018
User: LAB3
Spectrometer: QEPB0276
Trigger mode: 0
Integration Time (sec): 3.000000E1
Scans to average: 1
Electric dark correction enabled: true
Nonlinearity correction enabled: false
Boxcar width: 0
XAxis mode: Raman Shifts
Number of Pixels in Spectrum: 1044
>>>>>Begin Spectral Data<<<<<
160.701	172.62
166.742	213.62
172.777	324.62
178.805	641.62
184.826	1469.62
190.841	2953.62
196.849	4643.62
202.85	5983.62
208.845	6463.62
214.833	6470.62
220.815	6428.62
226.789	6442.62
232.758	6507.62
238.719	6511.62
244.674	6504.62
250.623	6470.62
256.565	6445.62
262.5	6374.62
268.429	6356.62
274.351	6341.62
280.267	6341.62
286.176	6379.62
292.079	6409.62
297.975	6416.62
303.865	6414.62
309.748	6405.62
315.625	6464.62
321.495	6479.62
327.359	6516.62
333.217	6506.62
339.068	6552.62
344.912	6576.62
350.751	6643.62
356.583	6620.62
362.408	6679.62
368.227	6720.62
374.04	6727.62
379.847	6739.62
385.647	6791.62
391.44	6816.62
397.228	6880.62
403.009	6941.62
408.784	6938.62
414.553	6993.62
420.315	7044.62
426.071	6995.62
431.821	7065.62
437.565	7054.62
443.302	7010.62
449.033	6959.62
454.758	6951.62
460.477	6887.62
466.189	6804.62
471.896	6763.62
477.596	6713.62
483.29	6668.62
488.978	6633.62
494.66	6570.62
500.335	6396.62
506.005	6109.62
511.668	5783.62
517.325	5493.62
522.977	5248.62
528.622	5062.62
534.261	4948.62
539.894	4871.62
545.521	4766.62
551.141	4699.62
556.756	4640.62
562.365	4629.62
567.968	4558.62
573.565	4517.62
579.155	4531.62
584.74	4468.62
590.319	4483.62
595.892	4477.62
601.459	4474.62
607.02	4451.62
612.575	4384.62
618.124	4355.62
623.667	4284.62
629.204	4213.62
634.735	4184.62
640.261	4107.62
645.781	4052.62
651.294	4055.62
656.802	4042.62
662.304	4068.62
667.8	4035.62
673.29	4010.62
678.775	3995.62
684.254	3994.62
689.726	3973.62
695.193	3958.62
700.655	3912.62
706.11	3928.62
711.56	3888.62
717.004	3855.62
722.442	3842.62
727.874	3830.62
733.301	3846.62
738.722	3798.62
744.137	3800.62
749.547	3779.62
754.951	3820.62
760.349	3809.62
765.741	3828.62
771.128	3860.62
776.509	3906.62
781.885	3990.62
787.254	4046.62
792.618	4037.62
797.977	4020.62
803.33	3992.62
808.677	3969.62
814.019	3941.62
819.355	3903.62
824.686	3865.62
830.011	3839.62
835.33	3847.62
840.644	3822.62
845.952	3760.62
851.255	3740.62
856.552	3701.62
861.844	3659.62
867.13	3648.62
872.41	3651.62
877.686	3680.62
882.955	3674.62
888.219	3651.62
893.478	3546.62
898.731	3457.62
903.979	3391.62
909.221	3350.62
914.458	3329.62
919.69	3297.62
924.916	3300.62
930.136	3321.62
935.351	3309.62
940.561	3333.62
945.766	3308.62
950.965	3279.62
956.158	3239.62
961.347	3194.62
966.529	3171.62
971.707	3144.62
976.879	3108.62
982.046	3083.62
987.208	3054.62
992.364	3063.62
997.515	3071.62
1002.66	3100.62
1007.801	3108.62
1012.936	3136.62
1018.066	3130.62
1023.19	3205.62
1028.309	3222.62
1033.423	3242.62
1038.532	3254.62
1043.636	3223.62
1048.734	3197.62
1053.827	3172.62
1058.915	3152.62
1063.998	3092.62
1069.075	3092.62
1074.147	3114.62
1079.214	3089.62
1084.276	3113.62
1089.333	3130.62
1094.385	3135.62
1099.431	3113.62
1104.472	3082.62
1109.509	3028.62
1114.54	3006.62
1119.565	2930.62
1124.586	2916.62
1129.602	2848.62
1134.613	2829.62
1139.618	2804.62
1144.619	2811.62
1149.614	2821.62
1154.604	2819.62
1159.589	2838.62
1164.57	2844.62
1169.545	2896.62
1174.515	2857.62
1179.48	2828.62
1184.44	2812.62
1189.395	2786.62
1194.345	2749.62
1199.29	2758.62
1204.23	2763.62
1209.165	2776.62
1214.095	2775.62
1219.021	2761.62
1223.941	2801.62
1228.856	2797.62
1233.766	2826.62
1238.672	2804.62
1243.572	2798.62
1248.467	2793.62
1253.358	2729.62
1258.244	2673.62
1263.124	2672.62
1268	2623.62
1272.871	2573.62
1277.737	2577.62
1282.599	2547.62
1287.455	2561.62
1292.306	2567.62
1297.153	2567.62
1301.995	2559.62
1306.832	2568.62
1311.664	2578.62
1316.491	2579.62
1321.314	2569.62
1326.132	2558.62
1330.945	2513.62
1335.753	2473.62
1340.556	2455.62
1345.354	2407.62
1350.148	2383.62
1354.937	2358.62
1359.722	2306.62
1364.501	2334.62
1369.276	2323.62
1374.046	2305.62
1378.811	2281.62
1383.572	2284.62
1388.327	2287.62
1393.079	2278.62
1397.825	2249.62
1402.567	2230.62
1407.304	2224.62
1412.036	2196.62
1416.764	2192.62
1421.487	2186.62
1426.205	2203.62
1430.919	2196.62
1435.628	2207.62
1440.333	2218.62
1445.032	2267.62
1449.727	2293.62
1454.418	2336.62
1459.104	2347.62
1463.785	2306.62
1468.462	2264.62
1473.134	2215.62
1477.802	2188.62
1482.465	2125.62
1487.123	2112.62
1491.777	2102.62
1496.426	2094.62
1501.071	2124.62
1505.711	2099.62
1510.347	2135.62
1514.978	2137.62
1519.604	2145.62
1524.226	2151.62
1528.844	2094.62
1533.457	2104.62
1538.065	2080.62
1542.669	2060.62
1547.269	2050.62
1551.864	2019.62
1556.454	1991.62
1561.041	2015.62
1565.622	1988.62
1570.199	2023.62
1574.772	2017.62
1579.34	2043.62
1583.904	2058.62
1588.464	2070.62
1593.019	2073.62
1597.569	2030.62
1602.115	2072.62
1606.657	2049.62
1611.195	2044.62
1615.728	2051.62
1620.256	2011.62
1624.78	2003.62
1629.3	2041.62
1633.816	2029.62
1638.327	2040.62
1642.834	2067.62
1647.336	2073.62
1651.834	2111.62
1656.328	2107.62
1660.817	2094.62
1665.302	2078.62
1669.783	2050.62
1674.259	2033.62
1678.732	2003.62
1683.199	1965.62
1687.663	1902.62
1692.122	1873.62
1696.577	1845.62
1701.028	1800.62
1705.474	1769.62
1709.917	1733.62
1714.355	1738.62
1718.788	1723.62
1723.218	1687.62
1727.643	1646.62
1732.064	1656.62
1736.481	1616.62
1740.893	1581.62
1745.301	1550.62
1749.705	1493.62
1754.105	1480.62
1758.501	1446.62
1762.893	1448.62
1767.28	1400.62
1771.663	1398.62
1776.042	1391.62
1780.417	1386.62
1784.787	1397.62
1789.154	1405.62
1793.516	1393.62
1797.874	1411.62
1802.228	1382.62
1806.578	1367.62
1810.924	1387.62
1815.266	1264.62
1819.603	1342.62
1823.937	1302.62
1828.266	1290.62
1832.591	1279.62
1836.913	1269.62
1841.23	1256.62
1845.543	1257.62
1849.852	1262.62
1854.156	1268.62
1858.457	1267.62
1862.754	1264.62
1867.047	1269.62
1871.335	1289.62
1875.62	1282.62
1879.9	1283.62
1884.177	1273.62
1888.449	1273.62
1892.718	1272.62
1896.982	1270.62
1901.243	1251.62
1905.499	1265.62
1909.752	1252.62
1914	1225.62
1918.245	1266.62
1922.485	1280.62
1926.722	1269.62
1930.954	1268.62
1935.183	1271.62
1939.408	1297.62
1943.628	1270.62
1947.845	1256.62
1952.058	1261.62
1956.267	1224.62
1960.472	1213.62
1964.673	1197.62
1968.87	1177.62
1973.063	1134.62
1977.252	1115.62
1981.438	1105.62
1985.619	1081.62
1989.797	1065.62
1993.971	1075.62
1998.14	1069.62
2002.306	1068.62
2006.469	1080.62
2010.627	1046.62
2014.781	1042.62
2018.932	1037.62
2023.078	1055.62
2027.221	1037.62
2031.36	1021.62
2035.495	1007.62
2039.627	1004.62
2043.754	997.62
2047.878	983.62
2051.998	981.62
2056.114	995.62
2060.226	985.62
2064.334	1001.62
2068.439	999.62
2072.54	1000.62
2076.637	1006.62
2080.73	1018.62
2084.82	1014.62
2088.906	1005.62
2092.988	1010.62
2097.066	1006.62
2101.14	1000.62
2105.211	990.62
2109.278	968.62
2113.342	960.62
2117.401	940.62
2121.457	934.62
2125.509	915.62
2129.558	919.62
2133.602	911.62
2137.643	898.62
2141.681	903.62
2145.714	894.62
2149.744	881.62
2153.77	871.62
2157.793	852.62
2161.812	823.62
2165.827	818.62
2169.838	832.62
2173.846	805.62
2177.851	799.62
2181.851	790.62
2185.848	778.62
2189.841	777.62
2193.831	763.62
2197.817	767.62
2201.799	764.62
2205.778	741.62
2209.753	730.62
2213.725	732.62
2217.693	722.62
2221.657	728.62
2225.618	723.62
2229.575	709.62
2233.529	716.62
2237.479	715.62
2241.425	693.62
2245.368	678.62
2249.307	686.62
2253.243	675.62
2257.175	673.62
2261.104	642.62
2265.029	642.62
2268.95	640.62
2272.868	624.62
2276.783	614.62
2280.694	616.62
2284.601	601.62
2288.505	594.62
2292.405	604.62
2296.302	580.62
2300.195	576.62
2304.085	540.62
2307.971	566.62
2311.854	531.62
2315.734	539.62
2319.609	534.62
2323.482	501.62
2327.351	506.62
2331.216	522.62
2335.078	520.62
2338.937	509.62
2342.792	497.62
2346.643	496.62
2350.492	503.62
2354.336	490.62
2358.178	505.62
2362.015	506.62
2365.85	494.62
2369.681	502.62
2373.508	501.62
2377.333	504.62
2381.153	497.62
2384.971	501.62
2388.785	495.62
2392.595	477.62
2396.402	479.62
2400.206	458.62
2404.007	470.62
2407.804	474.62
2411.597	471.62
2415.388	457.62
2419.174	460.62
2422.958	470.62
2426.738	460.62
2430.515	464.62
2434.289	452.62
2438.059	448.62
2441.825	440.62
2445.589	458.62
2449.349	423.62
2453.106	447.62
2456.859	435.62
2460.61	428.62
2464.356	408.62
2468.1	419.62
2471.84	413.62
2475.577	414.62
2479.311	398.62
2483.041	413.62
2486.768	422.62
2490.492	425.62
2494.213	416.62
2497.93	401.62
2501.644	397.62
2505.355	399.62
2509.062	409.62
2512.766	406.62
2516.467	392.62
2520.165	399.62
2523.859	386.62
2527.551	424.62
2531.239	384.62
2534.923	390.62
2538.605	387.62
2542.283	396.62
2545.958	389.62
2549.63	399.62
2553.299	389.62
2556.964	377.62
2560.626	377.62
2564.285	386.62
2567.941	374.62
2571.594	379.62
2575.243	377.62
2578.89	364.62
2582.533	368.62
2586.173	362.62
2589.809	364.62
2593.443	336.62
2597.073	348.62
2600.701	349.62
2604.325	343.62
2607.946	324.62
2611.564	347.62
2615.178	337.62
2618.79	334.62
2622.398	323.62
2626.004	327.62
2629.606	332.62
2633.205	308.62
2636.801	323.62
2640.394	319.62
2643.983	302.62
2647.57	300.62
2651.153	299.62
2654.734	303.62
2658.311	280.62
2661.885	287.62
2665.456	291.62
2669.025	289.62
2672.589	277.62
2676.151	296.62
2679.71	290.62
2683.266	279.62
2686.819	274.62
2690.368	269.62
2693.915	284.62
2697.458	264.62
2700.999	265.62
2704.536	271.62
2708.071	259.62
2711.602	263.62
2715.13	254.62
2718.656	236.62
2722.178	256.62
2725.697	246.62
2729.214	248.62
2732.727	251.62
2736.237	249.62
2739.744	251.62
2743.249	245.62
2746.75	263.62
2750.248	249.62
2753.743	259.62
2757.236	256.62
2760.725	266.62
2764.211	222.62
2767.695	255.62
2771.175	248.62
2774.652	243.62
2778.127	239.62
2781.598	250.62
2785.067	245.62
2788.532	234.62
2791.995	246.62
2795.455	238.62
2798.911	243.62
2802.365	241.62
2805.816	254.62
2809.264	258.62
2812.709	241.62
2816.151	245.62
2819.59	241.62
2823.026	248.62
2826.46	241.62
2829.89	264.62
2833.318	236.62
2836.742	247.62
2840.164	258.62
2843.583	257.62
2846.999	258.62
2850.412	266.62
2853.822	256.62
2857.229	278.62
2860.634	271.62
2864.035	257.62
2867.434	292.62
2870.83	292.62
2874.223	287.62
2877.613	298.62
2881	300.62
2884.385	313.62
2887.766	317.62
2891.145	320.62
2894.521	321.62
2897.894	309.62
2901.264	322.62
2904.631	311.62
2907.996	316.62
2911.358	321.62
2914.717	318.62
2918.073	314.62
2921.426	309.62
2924.777	300.62
2928.124	338.62
2931.469	351.62
2934.811	339.62
2938.15	379.62
2941.487	365.62
2944.821	387.62
2948.152	363.62
2951.48	362.62
2954.805	338.62
2958.128	361.62
2961.447	335.62
2964.765	360.62
2968.079	335.62
2971.39	349.62
2974.699	347.62
2978.005	346.62
2981.308	354.62
2984.609	338.62
2987.907	357.62
2991.202	367.62
2994.494	351.62
2997.784	361.62
3001.07	365.62
3004.355	357.62
3007.636	351.62
3010.915	366.62
3014.191	356.62
3017.464	358.62
3020.734	346.62
3024.002	353.62
3027.267	356.62
3030.53	359.62
3033.789	359.62
3037.046	372.62
3040.301	360.62
3043.552	380.62
3046.801	387.62
3050.048	401.62
3053.291	410.62
3056.532	402.62
3059.771	399.62
3063.006	439.62
3066.239	446.62
3069.469	465.62
3072.697	456.62
3075.922	462.62
3079.144	476.62
3082.364	507.62
3085.581	498.62
3088.795	519.62
3092.007	530.62
3095.216	543.62
3098.423	542.62
3101.627	531.62
3104.828	570.62
3108.026	570.62
3111.222	599.62
3114.416	606.62
3117.607	607.62
3120.795	617.62
3123.98	639.62
3127.163	629.62
3130.344	645.62
3133.521	662.62
3136.696	699.62
3139.869	692.62
3143.039	685.62
3146.206	735.62
3149.371	735.62
3152.533	721.62
3155.693	735.62
3158.85	734.62
3162.005	747.62
3165.157	742.62
3168.306	737.62
3171.453	763.62
3174.597	740.62
3177.739	729.62
3180.878	760.62
3184.014	758.62
3187.149	767.62
3190.28	756.62
3193.409	756.62
3196.536	752.62
3199.659	783.62
3202.781	775.62
3205.9	761.62
3209.016	784.62
3212.13	770.62
3215.241	756.62
3218.35	748.62
3221.456	757.62
3224.56	740.62
3227.661	747.62
3230.76	741.62
3233.856	727.62
3236.95	727.62
3240.041	712.62
3243.13	730.62
3246.216	714.62
3249.3	714.62
3252.382	721.62
3255.46	703.62
3258.537	672.62
3261.611	706.62
3264.682	712.62
3267.751	705.62
3270.818	691.62
3273.882	697.62
3276.943	702.62
3280.002	701.62
3283.059	675.62
3286.113	682.62
3289.165	655.62
3292.214	640.62
3295.261	645.62
3298.306	624.62
3301.348	640.62
3304.387	604.62
3307.425	609.62
3310.459	596.62
3313.492	598.62
3316.521	592.62
3319.549	588.62
3322.574	578.62
3325.597	575.62
3328.617	567.62
3331.635	568.62
3334.65	551.62
3337.663	571.62
3340.674	561.62
3343.682	553.62
3346.688	559.62
3349.691	551.62
3352.692	550.62
3355.691	556.62
3358.687	547.62
3361.681	549.62
3364.673	541.62
3367.662	532.62
3370.649	538.62
3373.633	511.62
3376.615	519.62
3379.595	499.62
3382.572	498.62
3385.547	495.62
3388.52	484.62
3391.49	476.62
3394.458	478.62
3397.424	492.62
3400.387	471.62
3403.348	468.62
3406.307	465.62
3409.263	458.62
3412.217	456.62
3415.168	458.62
3418.118	464.62
3421.065	448.62
3424.009	453.62
3426.951	436.62
3429.891	426.62
3432.829	418.62
3435.764	418.62
3438.697	408.62
3441.628	408.62
3444.557	380.62
3447.483	381.62
3450.407	383.62
3453.328	359.62
3456.247	363.62
3459.164	339.62
3462.079	345.62
3464.991	334.62
3467.902	321.62
3470.809	309.62
3473.715	315.62
3476.618	300.62
3479.519	295.62
3482.418	266.62
3485.315	267.62
3488.209	260.62
3491.101	269.62
3493.99	254.62
3496.878	242.62
3499.763	245.62
3502.646	239.62
3505.527	224.62
3508.405	220.62
3511.281	198.62
3514.155	212.62
3517.027	199.62
3519.897	187.62
3522.764	192.62
3525.629	160.62
3528.492	179.62
3531.352	167.62
3534.211	157.62
3537.067	152.62
3539.921	148.62
3542.773	149.62
3545.622	127.62
3548.469	116.62
3551.315	115.62
3554.157	120.62
3556.998	107.62
3559.837	104.62
3562.673	112.62
3565.507	97.62
3568.339	84.62
3571.169	88.62
3573.996	88.62
3576.822	70.62
3579.645	69.62
3582.466	71.62
3585.285	76.62
3588.101	73.62
3590.916	59.62
3593.728	71.62
3596.538	68.62
3599.346	61.62
3602.152	44.62
3604.956	54.62
3607.757	49.62
3610.556	29.62
3613.354	43.62
3616.149	36.62
3618.942	39.62
3621.732	39.62
3624.521	32.62
3627.307	22.62
3630.092	20.62
3632.874	42.62
3635.654	27.62
3638.432	16.62
3641.208	18.62
3643.982	15.62
3646.753	31.62
3649.523	-9.38
3652.29	12.62
3655.055	17.62
3657.818	13.62
3660.579	7.62
3663.338	-6.38
3666.095	1.62
3668.849	-21.38
3671.602	11.62
3674.352	-11.38
3677.101	7.62
3679.847	5.62
3682.591	-11.38
3685.333	-12.38
3688.073	-1.38
3690.811	-17.38
3693.547	-15.38
3696.281	-16.38
3699.013	-8.38
3701.742	-12.38
3704.47	-22.38
3707.195	-6.38
3709.919	-13.38
3712.64	-14.38
3715.359	-28.38
3718.076	-7.38
3720.792	-17.38
3723.505	-17.38
3726.216	-2.38
3728.925	-16.38
3731.632	-27.38
3734.336	-17.38
3737.039	-17.38
3739.74	-16.38
3742.439	-40.38
3745.136	-13.38
3747.83	-17.38
3750.523	-17.38
3753.213	-82.38
3755.902	-23.38
3758.589	-36.38
3761.273	-28.38
3763.956	-12.38
3766.636	-35.38
3769.315	-12.38
3771.991	-23.38
3774.665	-27.38
3777.338	-21.38
3780.008	-32.38
3782.677	-22.38
3785.343	-38.38
3788.007	-47.38
3790.67	-21.38
3793.33	-36.38
3795.989	-28.38
3798.645	-24.38
3801.299	-34.38
3803.952	-35.38
3806.602	-34.38
3809.251	-20.38
3811.897	-28.38
3814.542	-27.38
3817.184	-28.38
3819.825	-28.38
3822.463	-40.38
3825.1	-23.38
3827.735	-29.38
3830.367	-37.38
3832.998	-12.38
3835.627	-28.38
3838.253	-20.38
3840.878	-28.38
3843.501	-15.38
3846.122	-25.38
3848.741	-24.38
3851.358	-20.38
3853.973	-42.38
3856.586	-19.38
3859.197	-35.38
3861.806	-31.38
3864.414	-38.38
3867.019	-26.38
3869.622	-16.38
3872.224	-4.38
3874.823	3.62
3877.421	37.62
3880.016	67.62
3882.61	127.62
3885.202	153.62
3887.792	115.62
3890.38	55.62
3892.966	7.62
3895.55	-24.38
3898.132	-15.38
3900.713	-22.38
3903.291	-29.38
3905.868	-33.38
3908.442	-28.38
3911.015	-29.38
3913.586	-37.38
3916.155	-34.38
3918.722	-35.38
3921.287	-33.38
3923.85	-41.38
3926.411	-36.38
3928.971	-36.38
3931.528	-29.38
3934.084	-32.38
3936.638	-44.38
3939.19	-28.38
3941.74	-29.38
3944.288	-31.38
3946.834	-31.38
3949.378	-22.38
3951.921	-41.38
3954.462	-31.38
3957	-29.38
3959.537	-17.38
3962.072	-32.38
3964.606	-46.38
3967.137	-31.38
3969.667	-41.38
3972.194	-27.38
3974.72	-35.38
3977.244	-54.38
3979.766	-36.38
3982.286	-40.38
3984.805	-29.38
3987.321	-22.38
3989.836	-23.38
3992.349	-39.38
3994.86	-27.38
3997.369	-38.38
3999.877	-33.38
4002.382	-29.38
4004.886	-26.38
4007.388	-28.38
4009.888	-14.38
4012.386	-28.38
4014.883	-25.38
4017.377	-27.38
4019.87	-26.38
4022.361	-36.38
4024.85	-30.38
4027.338	-27.38
4029.823	-29.38
4032.307	-31.38
4034.789	-26.38
4037.269	-29.38
4039.747	-43.38
4042.224	-17.38
4044.699	-39.38
4047.172	-29.38
4049.643	-19.38
4052.112	-50.38
4054.58	-25.38
4057.046	-44.38
4059.51	-29.38
4061.972	-28.38
4064.432	-49.38
4066.891	-16.38
4069.348	-31.38
4071.803	-26.38
4074.256	-32.38
4076.708	-24.38
4079.158	-31.38
4081.606	-19.38
4084.052	-27.38
4086.497	-26.38
4088.939	-24.38
4091.38	-33.38
4093.819	-19.38
4096.257	1.62
4098.693	-6.38
4101.127	-3.38
4103.559	-1.38
4105.989	159.62
4108.418	156.62
4110.845	139.62
4113.27	150.62
4115.694	163.62
4118.115	150.62
4120.535	-25.38
4122.954	-22.38
4125.37	-18.38
4127.785	-27.38
4130.198	-17.38
4132.609	-22.38
4135.019	6.62
4137.427	0.62
4139.833	6.62
4142.237	-4.38
