Data from 2018-3-6_conc=6_n=4_RamanShift_03.txt Node
Date: Tue Mar 06 15:03:48 GMT+02:00 2018
User: LAB3
Spectrometer: QEPB0276
Trigger mode: 0
Integration Time (sec): 3.000000E1
Scans to average: 1
Electric dark correction enabled: true
Nonlinearity correction enabled: false
Boxcar width: 0
XAxis mode: Raman Shifts
Number of Pixels in Spectrum: 1044
>>>>>Begin Spectral Data<<<<<
160.701	52.38
166.742	67.38
172.777	91.38
178.805	169.38
184.826	394.38
190.841	807.38
196.849	1254.38
202.85	1620.38
208.845	1704.38
214.833	1672.38
220.815	1656.38
226.789	1628.38
232.758	1620.38
238.719	1595.38
244.674	1581.38
250.623	1562.38
256.565	1507.38
262.5	1490.38
268.429	1482.38
274.351	1440.38
280.267	1445.38
286.176	1435.38
292.079	1442.38
297.975	1441.38
303.865	1427.38
309.748	1421.38
315.625	1410.38
321.495	1417.38
327.359	1397.38
333.217	1389.38
339.068	1381.38
344.912	1399.38
350.751	1401.38
356.583	1393.38
362.408	1425.38
368.227	1406.38
374.04	1419.38
379.847	1444.38
385.647	1452.38
391.44	1425.38
397.228	1443.38
403.009	1448.38
408.784	1445.38
414.553	1463.38
420.315	1470.38
426.071	1439.38
431.821	1472.38
437.565	1461.38
443.302	1460.38
449.033	1436.38
454.758	1444.38
460.477	1426.38
466.189	1406.38
471.896	1391.38
477.596	1402.38
483.29	1360.38
488.978	1378.38
494.66	1353.38
500.335	1316.38
506.005	1262.38
511.668	1202.38
517.325	1129.38
522.977	1072.38
528.622	1040.38
534.261	1013.38
539.894	991.38
545.521	981.38
551.141	947.38
556.756	936.38
562.365	935.38
567.968	921.38
573.565	908.38
579.155	920.38
584.74	899.38
590.319	912.38
595.892	911.38
601.459	905.38
607.02	893.38
612.575	908.38
618.124	889.38
623.667	871.38
629.204	856.38
634.735	834.38
640.261	828.38
645.781	802.38
651.294	815.38
656.802	823.38
662.304	822.38
667.8	830.38
673.29	809.38
678.775	816.38
684.254	802.38
689.726	783.38
695.193	794.38
700.655	793.38
706.11	779.38
711.56	771.38
717.004	779.38
722.442	759.38
727.874	771.38
733.301	774.38
738.722	748.38
744.137	741.38
749.547	755.38
754.951	755.38
760.349	752.38
765.741	772.38
771.128	773.38
776.509	786.38
781.885	801.38
787.254	818.38
792.618	798.38
797.977	811.38
803.33	811.38
808.677	789.38
814.019	802.38
819.355	783.38
824.686	781.38
830.011	765.38
835.33	778.38
840.644	770.38
845.952	736.38
851.255	746.38
856.552	749.38
861.844	738.38
867.13	718.38
872.41	718.38
877.686	705.38
882.955	697.38
888.219	696.38
893.478	673.38
898.731	683.38
903.979	662.38
909.221	662.38
914.458	661.38
919.69	665.38
924.916	653.38
930.136	657.38
935.351	644.38
940.561	667.38
945.766	655.38
950.965	669.38
956.158	641.38
961.347	629.38
966.529	629.38
971.707	634.38
976.879	625.38
982.046	616.38
987.208	608.38
992.364	620.38
997.515	616.38
1002.66	607.38
1007.801	604.38
1012.936	626.38
1018.066	596.38
1023.19	612.38
1028.309	636.38
1033.423	624.38
1038.532	639.38
1043.636	613.38
1048.734	618.38
1053.827	607.38
1058.915	593.38
1063.998	604.38
1069.075	589.38
1074.147	604.38
1079.214	584.38
1084.276	595.38
1089.333	604.38
1094.385	611.38
1099.431	590.38
1104.472	606.38
1109.509	568.38
1114.54	570.38
1119.565	569.38
1124.586	556.38
1129.602	560.38
1134.613	532.38
1139.618	539.38
1144.619	545.38
1149.614	551.38
1154.604	548.38
1159.589	544.38
1164.57	573.38
1169.545	566.38
1174.515	567.38
1179.48	555.38
1184.44	559.38
1189.395	561.38
1194.345	541.38
1199.29	551.38
1204.23	527.38
1209.165	526.38
1214.095	539.38
1219.021	549.38
1223.941	535.38
1228.856	547.38
1233.766	551.38
1238.672	546.38
1243.572	538.38
1248.467	552.38
1253.358	541.38
1258.244	514.38
1263.124	525.38
1268	523.38
1272.871	490.38
1277.737	499.38
1282.599	502.38
1287.455	487.38
1292.306	497.38
1297.153	482.38
1301.995	496.38
1306.832	499.38
1311.664	497.38
1316.491	488.38
1321.314	503.38
1326.132	486.38
1330.945	496.38
1335.753	478.38
1340.556	475.38
1345.354	455.38
1350.148	461.38
1354.937	451.38
1359.722	436.38
1364.501	440.38
1369.276	451.38
1374.046	457.38
1378.811	442.38
1383.572	445.38
1388.327	439.38
1393.079	426.38
1397.825	421.38
1402.567	417.38
1407.304	411.38
1412.036	415.38
1416.764	412.38
1421.487	404.38
1426.205	410.38
1430.919	414.38
1435.628	407.38
1440.333	413.38
1445.032	417.38
1449.727	414.38
1454.418	428.38
1459.104	442.38
1463.785	415.38
1468.462	424.38
1473.134	416.38
1477.802	399.38
1482.465	385.38
1487.123	406.38
1491.777	374.38
1496.426	373.38
1501.071	390.38
1505.711	380.38
1510.347	393.38
1514.978	393.38
1519.604	390.38
1524.226	397.38
1528.844	376.38
1533.457	390.38
1538.065	382.38
1542.669	387.38
1547.269	391.38
1551.864	384.38
1556.454	354.38
1561.041	374.38
1565.622	372.38
1570.199	361.38
1574.772	376.38
1579.34	386.38
1583.904	395.38
1588.464	396.38
1593.019	394.38
1597.569	381.38
1602.115	396.38
1606.657	382.38
1611.195	416.38
1615.728	396.38
1620.256	392.38
1624.78	367.38
1629.3	378.38
1633.816	381.38
1638.327	367.38
1642.834	384.38
1647.336	385.38
1651.834	395.38
1656.328	401.38
1660.817	387.38
1665.302	381.38
1669.783	364.38
1674.259	370.38
1678.732	354.38
1683.199	354.38
1687.663	338.38
1692.122	341.38
1696.577	340.38
1701.028	339.38
1705.474	325.38
1709.917	302.38
1714.355	301.38
1718.788	310.38
1723.218	294.38
1727.643	289.38
1732.064	288.38
1736.481	272.38
1740.893	284.38
1745.301	278.38
1749.705	258.38
1754.105	265.38
1758.501	249.38
1762.893	265.38
1767.28	240.38
1771.663	249.38
1776.042	233.38
1780.417	237.38
1784.787	243.38
1789.154	246.38
1793.516	235.38
1797.874	229.38
1802.228	222.38
1806.578	218.38
1810.924	239.38
1815.266	115.38
1819.603	240.38
1823.937	222.38
1828.266	224.38
1832.591	226.38
1836.913	214.38
1841.23	216.38
1845.543	218.38
1849.852	219.38
1854.156	214.38
1858.457	219.38
1862.754	211.38
1867.047	221.38
1871.335	232.38
1875.62	232.38
1879.9	227.38
1884.177	217.38
1888.449	211.38
1892.718	210.38
1896.982	220.38
1901.243	200.38
1905.499	208.38
1909.752	198.38
1914	190.38
1918.245	208.38
1922.485	215.38
1926.722	194.38
1930.954	206.38
1935.183	208.38
1939.408	207.38
1943.628	209.38
1947.845	202.38
1952.058	199.38
1956.267	189.38
1960.472	199.38
1964.673	201.38
1968.87	199.38
1973.063	192.38
1977.252	187.38
1981.438	187.38
1985.619	177.38
1989.797	173.38
1993.971	179.38
1998.14	191.38
2002.306	175.38
2006.469	185.38
2010.627	169.38
2014.781	168.38
2018.932	163.38
2023.078	189.38
2027.221	175.38
2031.36	167.38
2035.495	174.38
2039.627	171.38
2043.754	170.38
2047.878	166.38
2051.998	165.38
2056.114	156.38
2060.226	163.38
2064.334	165.38
2068.439	171.38
2072.54	167.38
2076.637	153.38
2080.73	160.38
2084.82	165.38
2088.906	166.38
2092.988	167.38
2097.066	169.38
2101.14	174.38
2105.211	170.38
2109.278	163.38
2113.342	155.38
2117.401	142.38
2121.457	138.38
2125.509	141.38
2129.558	151.38
2133.602	146.38
2137.643	148.38
2141.681	147.38
2145.714	151.38
2149.744	150.38
2153.77	149.38
2157.793	131.38
2161.812	117.38
2165.827	113.38
2169.838	143.38
2173.846	134.38
2177.851	127.38
2181.851	141.38
2185.848	128.38
2189.841	129.38
2193.831	118.38
2197.817	130.38
2201.799	125.38
2205.778	116.38
2209.753	113.38
2213.725	107.38
2217.693	120.38
2221.657	113.38
2225.618	115.38
2229.575	113.38
2233.529	114.38
2237.479	120.38
2241.425	102.38
2245.368	103.38
2249.307	108.38
2253.243	101.38
2257.175	114.38
2261.104	98.38
2265.029	107.38
2268.95	101.38
2272.868	102.38
2276.783	87.38
2280.694	108.38
2284.601	98.38
2288.505	99.38
2292.405	103.38
2296.302	75.38
2300.195	92.38
2304.085	59.38
2307.971	89.38
2311.854	71.38
2315.734	86.38
2319.609	91.38
2323.482	67.38
2327.351	78.38
2331.216	74.38
2335.078	80.38
2338.937	78.38
2342.792	72.38
2346.643	64.38
2350.492	86.38
2354.336	78.38
2358.178	85.38
2362.015	78.38
2365.85	74.38
2369.681	76.38
2373.508	77.38
2377.333	80.38
2381.153	77.38
2384.971	72.38
2388.785	83.38
2392.595	65.38
2396.402	67.38
2400.206	39.38
2404.007	62.38
2407.804	70.38
2411.597	72.38
2415.388	63.38
2419.174	62.38
2422.958	69.38
2426.738	62.38
2430.515	72.38
2434.289	56.38
2438.059	55.38
2441.825	57.38
2445.589	66.38
2449.349	47.38
2453.106	59.38
2456.859	63.38
2460.61	65.38
2464.356	48.38
2468.1	54.38
2471.84	45.38
2475.577	50.38
2479.311	49.38
2483.041	56.38
2486.768	67.38
2490.492	63.38
2494.213	57.38
2497.93	46.38
2501.644	38.38
2505.355	56.38
2509.062	56.38
2512.766	45.38
2516.467	50.38
2520.165	44.38
2523.859	30.38
2527.551	67.38
2531.239	36.38
2534.923	42.38
2538.605	46.38
2542.283	44.38
2545.958	39.38
2549.63	51.38
2553.299	54.38
2556.964	36.38
2560.626	45.38
2564.285	46.38
2567.941	34.38
2571.594	32.38
2575.243	48.38
2578.89	40.38
2582.533	42.38
2586.173	42.38
2589.809	46.38
2593.443	19.38
2597.073	38.38
2600.701	41.38
2604.325	36.38
2607.946	27.38
2611.564	47.38
2615.178	37.38
2618.79	37.38
2622.398	28.38
2626.004	41.38
2629.606	36.38
2633.205	30.38
2636.801	34.38
2640.394	34.38
2643.983	25.38
2647.57	27.38
2651.153	23.38
2654.734	42.38
2658.311	9.38
2661.885	23.38
2665.456	24.38
2669.025	27.38
2672.589	25.38
2676.151	38.38
2679.71	42.38
2683.266	24.38
2686.819	21.38
2690.368	30.38
2693.915	34.38
2697.458	22.38
2700.999	31.38
2704.536	29.38
2708.071	23.38
2711.602	47.38
2715.13	179.38
2718.656	12.38
2722.178	23.38
2725.697	9.38
2729.214	14.38
2732.727	16.38
2736.237	12.38
2739.744	14.38
2743.249	12.38
2746.75	12.38
2750.248	5.38
2753.743	19.38
2757.236	14.38
2760.725	24.38
2764.211	-14.62
2767.695	22.38
2771.175	17.38
2774.652	17.38
2778.127	12.38
2781.598	11.38
2785.067	20.38
2788.532	7.38
2791.995	16.38
2795.455	9.38
2798.911	19.38
2802.365	9.38
2805.816	16.38
2809.264	20.38
2812.709	7.38
2816.151	13.38
2819.59	-0.62
2823.026	12.38
2826.46	11.38
2829.89	23.38
2833.318	-4.62
2836.742	10.38
2840.164	15.38
2843.583	17.38
2846.999	20.38
2850.412	22.38
2853.822	16.38
2857.229	23.38
2860.634	19.38
2864.035	5.38
2867.434	30.38
2870.83	22.38
2874.223	13.38
2877.613	18.38
2881	12.38
2884.385	14.38
2887.766	7.38
2891.145	17.38
2894.521	17.38
2897.894	8.38
2901.264	27.38
2904.631	12.38
2907.996	26.38
2911.358	29.38
2914.717	22.38
2918.073	13.38
2921.426	14.38
2924.777	9.38
2928.124	14.38
2931.469	32.38
2934.811	9.38
2938.15	36.38
2941.487	24.38
2944.821	46.38
2948.152	28.38
2951.48	38.38
2954.805	20.38
2958.128	48.38
2961.447	25.38
2964.765	42.38
2968.079	28.38
2971.39	30.38
2974.699	30.38
2978.005	28.38
2981.308	33.38
2984.609	28.38
2987.907	31.38
2991.202	41.38
2994.494	22.38
2997.784	28.38
3001.07	33.38
3004.355	27.38
3007.636	30.38
3010.915	35.38
3014.191	23.38
3017.464	34.38
3020.734	40.38
3024.002	35.38
3027.267	37.38
3030.53	36.38
3033.789	38.38
3037.046	37.38
3040.301	33.38
3043.552	49.38
3046.801	47.38
3050.048	51.38
3053.291	65.38
3056.532	51.38
3059.771	32.38
3063.006	59.38
3066.239	52.38
3069.469	56.38
3072.697	49.38
3075.922	49.38
3079.144	59.38
3082.364	73.38
3085.581	55.38
3088.795	84.38
3092.007	78.38
3095.216	79.38
3098.423	66.38
3101.627	51.38
3104.828	75.38
3108.026	71.38
3111.222	87.38
3114.416	93.38
3117.607	83.38
3120.795	89.38
3123.98	91.38
3127.163	80.38
3130.344	90.38
3133.521	91.38
3136.696	103.38
3139.869	94.38
3143.039	95.38
3146.206	121.38
3149.371	113.38
3152.533	107.38
3155.693	95.38
3158.85	114.38
3162.005	113.38
3165.157	106.38
3168.306	111.38
3171.453	116.38
3174.597	104.38
3177.739	101.38
3180.878	116.38
3184.014	119.38
3187.149	112.38
3190.28	113.38
3193.409	122.38
3196.536	115.38
3199.659	125.38
3202.781	118.38
3205.9	103.38
3209.016	114.38
3212.13	115.38
3215.241	116.38
3218.35	111.38
3221.456	109.38
3224.56	100.38
3227.661	109.38
3230.76	106.38
3233.856	104.38
3236.95	116.38
3240.041	94.38
3243.13	119.38
3246.216	106.38
3249.3	114.38
3252.382	106.38
3255.46	99.38
3258.537	45.38
3261.611	97.38
3264.682	97.38
3267.751	99.38
3270.818	89.38
3273.882	97.38
3276.943	94.38
3280.002	105.38
3283.059	93.38
3286.113	87.38
3289.165	86.38
3292.214	81.38
3295.261	100.38
3298.306	69.38
3301.348	95.38
3304.387	79.38
3307.425	94.38
3310.459	82.38
3313.492	95.38
3316.521	84.38
3319.549	93.38
3322.574	92.38
3325.597	83.38
3328.617	80.38
3331.635	80.38
3334.65	63.38
3337.663	81.38
3340.674	71.38
3343.682	77.38
3346.688	90.38
3349.691	70.38
3352.692	77.38
3355.691	83.38
3358.687	72.38
3361.681	76.38
3364.673	70.38
3367.662	76.38
3370.649	82.38
3373.633	63.38
3376.615	75.38
3379.595	56.38
3382.572	66.38
3385.547	55.38
3388.52	59.38
3391.49	61.38
3394.458	61.38
3397.424	69.38
3400.387	55.38
3403.348	58.38
3406.307	52.38
3409.263	57.38
3412.217	67.38
3415.168	59.38
3418.118	65.38
3421.065	53.38
3424.009	70.38
3426.951	51.38
3429.891	46.38
3432.829	48.38
3435.764	51.38
3438.697	35.38
3441.628	59.38
3444.557	33.38
3447.483	35.38
3450.407	47.38
3453.328	35.38
3456.247	39.38
3459.164	28.38
3462.079	45.38
3464.991	32.38
3467.902	34.38
3470.809	36.38
3473.715	38.38
3476.618	23.38
3479.519	37.38
3482.418	8.38
3485.315	17.38
3488.209	14.38
3491.101	20.38
3493.99	0.38
3496.878	8.38
3499.763	17.38
3502.646	17.38
3505.527	1.38
3508.405	7.38
3511.281	-8.62
3514.155	12.38
3517.027	3.38
3519.897	-7.62
3522.764	3.38
3525.629	-15.62
3528.492	-0.62
3531.352	1.38
3534.211	-0.62
3537.067	-11.62
3539.921	-6.62
3542.773	5.38
3545.622	-6.62
3548.469	-8.62
3551.315	-17.62
3554.157	-4.62
3556.998	-15.62
3559.837	-10.62
3562.673	-8.62
3565.507	-20.62
3568.339	-19.62
3571.169	-14.62
3573.996	-17.62
3576.822	-33.62
3579.645	-25.62
3582.466	-23.62
3585.285	-16.62
3588.101	-12.62
3590.916	-25.62
3593.728	-13.62
3596.538	-21.62
3599.346	-17.62
3602.152	-31.62
3604.956	-18.62
3607.757	-16.62
3610.556	-30.62
3613.354	-11.62
3616.149	-15.62
3618.942	-13.62
3621.732	-19.62
3624.521	-29.62
3627.307	-30.62
3630.092	-30.62
3632.874	-15.62
3635.654	-25.62
3638.432	-30.62
3641.208	-31.62
3643.982	-28.62
3646.753	-18.62
3649.523	-51.62
3652.29	-30.62
3655.055	-22.62
3657.818	-27.62
3660.579	-32.62
3663.338	-37.62
3666.095	-30.62
3668.849	-53.62
3671.602	-23.62
3674.352	-42.62
3677.101	-18.62
3679.847	-25.62
3682.591	-35.62
3685.333	-39.62
3688.073	-26.62
3690.811	-36.62
3693.547	-40.62
3696.281	-45.62
3699.013	-27.62
3701.742	-36.62
3704.47	-42.62
3707.195	-28.62
3709.919	-31.62
3712.64	-29.62
3715.359	-41.62
3718.076	-23.62
3720.792	-33.62
3723.505	-27.62
3726.216	-21.62
3728.925	-36.62
3731.632	-41.62
3734.336	-33.62
3737.039	-37.62
3739.74	-32.62
3742.439	-48.62
3745.136	-24.62
3747.83	-33.62
3750.523	-26.62
3753.213	-95.62
3755.902	-32.62
3758.589	-44.62
3761.273	-35.62
3763.956	-23.62
3766.636	-50.62
3769.315	-25.62
3771.991	-29.62
3774.665	-35.62
3777.338	-32.62
3780.008	-42.62
3782.677	-36.62
3785.343	-53.62
3788.007	-54.62
3790.67	-29.62
3793.33	-46.62
3795.989	-41.62
3798.645	-33.62
3801.299	-44.62
3803.952	-43.62
3806.602	-41.62
3809.251	-33.62
3811.897	-29.62
3814.542	-38.62
3817.184	-37.62
3819.825	-33.62
3822.463	-45.62
3825.1	-37.62
3827.735	-34.62
3830.367	-40.62
3832.998	-21.62
3835.627	-36.62
3838.253	-25.62
3840.878	-37.62
3843.501	-19.62
3846.122	-29.62
3848.741	-29.62
3851.358	-26.62
3853.973	-44.62
3856.586	-27.62
3859.197	-44.62
3861.806	-33.62
3864.414	-46.62
3867.019	-34.62
3869.622	-28.62
3872.224	-24.62
3874.823	-17.62
3877.421	2.38
3880.016	6.38
3882.61	41.38
3885.202	54.38
3887.792	34.38
3890.38	8.38
3892.966	-16.62
3895.55	-34.62
3898.132	-26.62
3900.713	-28.62
3903.291	-28.62
3905.868	-39.62
3908.442	-35.62
3911.015	-35.62
3913.586	-38.62
3916.155	-40.62
3918.722	-43.62
3921.287	-42.62
3923.85	-49.62
3926.411	-41.62
3928.971	-39.62
3931.528	-30.62
3934.084	-36.62
3936.638	-45.62
3939.19	-29.62
3941.74	-31.62
3944.288	-35.62
3946.834	-34.62
3949.378	-25.62
3951.921	-37.62
3954.462	-33.62
3957	-24.62
3959.537	-24.62
3962.072	-36.62
3964.606	-48.62
3967.137	-37.62
3969.667	-38.62
3972.194	-31.62
3974.72	-40.62
3977.244	-62.62
3979.766	-42.62
3982.286	-41.62
3984.805	-32.62
3987.321	-25.62
3989.836	-33.62
3992.349	-39.62
3994.86	-33.62
3997.369	-39.62
3999.877	-39.62
4002.382	-34.62
4004.886	-26.62
4007.388	-32.62
4009.888	-22.62
4012.386	-26.62
4014.883	-30.62
4017.377	-33.62
4019.87	-34.62
4022.361	-45.62
4024.85	-32.62
4027.338	-32.62
4029.823	-34.62
4032.307	-34.62
4034.789	-29.62
4037.269	-33.62
4039.747	-47.62
4042.224	-25.62
4044.699	-45.62
4047.172	-37.62
4049.643	-25.62
4052.112	-53.62
4054.58	-32.62
4057.046	-48.62
4059.51	-35.62
4061.972	-32.62
4064.432	-50.62
4066.891	-22.62
4069.348	-32.62
4071.803	-27.62
4074.256	-37.62
4076.708	-32.62
4079.158	-31.62
4081.606	-21.62
4084.052	-30.62
4086.497	-28.62
4088.939	-32.62
4091.38	-35.62
4093.819	-27.62
4096.257	2.38
4098.693	-7.62
4101.127	-7.62
4103.559	3.38
4105.989	67.38
4108.418	62.38
4110.845	50.38
4113.27	56.38
4115.694	63.38
4118.115	50.38
4120.535	-33.62
4122.954	-28.62
4125.37	-26.62
4127.785	-30.62
4130.198	-29.62
4132.609	-27.62
4135.019	9.38
4137.427	1.38
4139.833	4.38
4142.237	-5.62
