Data from 2018-3-6_conc=3_n=4_RamanShift_01.txt Node
Date: Tue Mar 06 13:23:19 GMT+02:00 2018
User: LAB3
Spectrometer: QEPB0276
Trigger mode: 0
Integration Time (sec): 3.000000E1
Scans to average: 1
Electric dark correction enabled: true
Nonlinearity correction enabled: false
Boxcar width: 0
XAxis mode: Raman Shifts
Number of Pixels in Spectrum: 1044
>>>>>Begin Spectral Data<<<<<
160.701	150.88
166.742	179.88
172.777	271.88
178.805	533.88
184.826	1205.88
190.841	2370.88
196.849	3786.88
202.85	4819.88
208.845	5243.88
214.833	5249.88
220.815	5236.88
226.789	5194.88
232.758	5252.88
238.719	5264.88
244.674	5245.88
250.623	5263.88
256.565	5221.88
262.5	5139.88
268.429	5154.88
274.351	5108.88
280.267	5121.88
286.176	5151.88
292.079	5138.88
297.975	5173.88
303.865	5194.88
309.748	5202.88
315.625	5210.88
321.495	5253.88
327.359	5223.88
333.217	5253.88
339.068	5254.88
344.912	5287.88
350.751	5326.88
356.583	5367.88
362.408	5366.88
368.227	5375.88
374.04	5384.88
379.847	5417.88
385.647	5486.88
391.44	5470.88
397.228	5571.88
403.009	5579.88
408.784	5559.88
414.553	5605.88
420.315	5638.88
426.071	5618.88
431.821	5643.88
437.565	5653.88
443.302	5619.88
449.033	5569.88
454.758	5540.88
460.477	5511.88
466.189	5445.88
471.896	5383.88
477.596	5354.88
483.29	5313.88
488.978	5325.88
494.66	5267.88
500.335	5160.88
506.005	4914.88
511.668	4670.88
517.325	4413.88
522.977	4268.88
528.622	4105.88
534.261	4010.88
539.894	3915.88
545.521	3846.88
551.141	3829.88
556.756	3772.88
562.365	3755.88
567.968	3694.88
573.565	3676.88
579.155	3659.88
584.74	3640.88
590.319	3647.88
595.892	3660.88
601.459	3648.88
607.02	3616.88
612.575	3597.88
618.124	3559.88
623.667	3481.88
629.204	3438.88
634.735	3397.88
640.261	3379.88
645.781	3342.88
651.294	3321.88
656.802	3306.88
662.304	3298.88
667.8	3303.88
673.29	3281.88
678.775	3272.88
684.254	3251.88
689.726	3229.88
695.193	3223.88
700.655	3202.88
706.11	3180.88
711.56	3177.88
717.004	3162.88
722.442	3123.88
727.874	3117.88
733.301	3140.88
738.722	3078.88
744.137	3089.88
749.547	3094.88
754.951	3089.88
760.349	3088.88
765.741	3109.88
771.128	3160.88
776.509	3196.88
781.885	3232.88
787.254	3266.88
792.618	3258.88
797.977	3256.88
803.33	3244.88
808.677	3204.88
814.019	3192.88
819.355	3160.88
824.686	3100.88
830.011	3113.88
835.33	3117.88
840.644	3106.88
845.952	3037.88
851.255	3055.88
856.552	3009.88
861.844	2970.88
867.13	2924.88
872.41	2906.88
877.686	2892.88
882.955	2856.88
888.219	2821.88
893.478	2785.88
898.731	2767.88
903.979	2714.88
909.221	2674.88
914.458	2675.88
919.69	2691.88
924.916	2679.88
930.136	2689.88
935.351	2691.88
940.561	2693.88
945.766	2692.88
950.965	2679.88
956.158	2651.88
961.347	2593.88
966.529	2570.88
971.707	2565.88
976.879	2536.88
982.046	2503.88
987.208	2477.88
992.364	2474.88
997.515	2495.88
1002.66	2509.88
1007.801	2526.88
1012.936	2566.88
1018.066	2563.88
1023.19	2560.88
1028.309	2574.88
1033.423	2579.88
1038.532	2589.88
1043.636	2561.88
1048.734	2527.88
1053.827	2530.88
1058.915	2494.88
1063.998	2494.88
1069.075	2486.88
1074.147	2483.88
1079.214	2458.88
1084.276	2487.88
1089.333	2488.88
1094.385	2485.88
1099.431	2453.88
1104.472	2484.88
1109.509	2439.88
1114.54	2415.88
1119.565	2358.88
1124.586	2337.88
1129.602	2295.88
1134.613	2265.88
1139.618	2267.88
1144.619	2286.88
1149.614	2289.88
1154.604	2295.88
1159.589	2299.88
1164.57	2334.88
1169.545	2334.88
1174.515	2313.88
1179.48	2313.88
1184.44	2312.88
1189.395	2289.88
1194.345	2262.88
1199.29	2274.88
1204.23	2259.88
1209.165	2224.88
1214.095	2248.88
1219.021	2245.88
1223.941	2270.88
1228.856	2266.88
1233.766	2281.88
1238.672	2300.88
1243.572	2276.88
1248.467	2268.88
1253.358	2244.88
1258.244	2188.88
1263.124	2161.88
1268	2130.88
1272.871	2081.88
1277.737	2086.88
1282.599	2048.88
1287.455	2062.88
1292.306	2074.88
1297.153	2078.88
1301.995	2079.88
1306.832	2076.88
1311.664	2095.88
1316.491	2067.88
1321.314	2096.88
1326.132	2063.88
1330.945	2030.88
1335.753	1993.88
1340.556	1961.88
1345.354	1946.88
1350.148	1921.88
1354.937	1913.88
1359.722	1884.88
1364.501	1858.88
1369.276	1865.88
1374.046	1882.88
1378.811	1861.88
1383.572	1841.88
1388.327	1846.88
1393.079	1819.88
1397.825	1802.88
1402.567	1793.88
1407.304	1784.88
1412.036	1771.88
1416.764	1776.88
1421.487	1746.88
1426.205	1760.88
1430.919	1760.88
1435.628	1780.88
1440.333	1767.88
1445.032	1781.88
1449.727	1801.88
1454.418	1833.88
1459.104	1795.88
1463.785	1783.88
1468.462	1776.88
1473.134	1739.88
1477.802	1711.88
1482.465	1666.88
1487.123	1670.88
1491.777	1652.88
1496.426	1630.88
1501.071	1664.88
1505.711	1657.88
1510.347	1688.88
1514.978	1686.88
1519.604	1687.88
1524.226	1696.88
1528.844	1649.88
1533.457	1663.88
1538.065	1656.88
1542.669	1659.88
1547.269	1627.88
1551.864	1612.88
1556.454	1602.88
1561.041	1624.88
1565.622	1606.88
1570.199	1622.88
1574.772	1632.88
1579.34	1646.88
1583.904	1663.88
1588.464	1683.88
1593.019	1687.88
1597.569	1651.88
1602.115	1660.88
1606.657	1645.88
1611.195	1670.88
1615.728	1651.88
1620.256	1627.88
1624.78	1599.88
1629.3	1648.88
1633.816	1644.88
1638.327	1643.88
1642.834	1662.88
1647.336	1670.88
1651.834	1686.88
1656.328	1677.88
1660.817	1673.88
1665.302	1655.88
1669.783	1628.88
1674.259	1594.88
1678.732	1577.88
1683.199	1533.88
1687.663	1487.88
1692.122	1478.88
1696.577	1450.88
1701.028	1424.88
1705.474	1379.88
1709.917	1361.88
1714.355	1342.88
1718.788	1340.88
1723.218	1298.88
1727.643	1295.88
1732.064	1285.88
1736.481	1252.88
1740.893	1248.88
1745.301	1222.88
1749.705	1163.88
1754.105	1156.88
1758.501	1155.88
1762.893	1147.88
1767.28	1085.88
1771.663	1088.88
1776.042	1076.88
1780.417	1067.88
1784.787	1075.88
1789.154	1081.88
1793.516	1081.88
1797.874	1082.88
1802.228	1063.88
1806.578	1060.88
1810.924	1071.88
1815.266	942.88
1819.603	1041.88
1823.937	1024.88
1828.266	1021.88
1832.591	1008.88
1836.913	984.88
1841.23	983.88
1845.543	974.88
1849.852	993.88
1854.156	976.88
1858.457	989.88
1862.754	986.88
1867.047	985.88
1871.335	1008.88
1875.62	1000.88
1879.9	998.88
1884.177	988.88
1888.449	981.88
1892.718	985.88
1896.982	981.88
1901.243	955.88
1905.499	967.88
1909.752	953.88
1914	929.88
1918.245	957.88
1922.485	960.88
1926.722	951.88
1930.954	946.88
1935.183	966.88
1939.408	963.88
1943.628	961.88
1947.845	949.88
1952.058	950.88
1956.267	921.88
1960.472	921.88
1964.673	910.88
1968.87	887.88
1973.063	879.88
1977.252	869.88
1981.438	864.88
1985.619	840.88
1989.797	837.88
1993.971	836.88
1998.14	847.88
2002.306	833.88
2006.469	840.88
2010.627	827.88
2014.781	806.88
2018.932	809.88
2023.078	819.88
2027.221	813.88
2031.36	785.88
2035.495	784.88
2039.627	781.88
2043.754	773.88
2047.878	756.88
2051.998	772.88
2056.114	763.88
2060.226	756.88
2064.334	776.88
2068.439	767.88
2072.54	786.88
2076.637	773.88
2080.73	772.88
2084.82	782.88
2088.906	768.88
2092.988	759.88
2097.066	763.88
2101.14	763.88
2105.211	751.88
2109.278	754.88
2113.342	736.88
2117.401	710.88
2121.457	704.88
2125.509	709.88
2129.558	699.88
2133.602	687.88
2137.643	684.88
2141.681	695.88
2145.714	698.88
2149.744	696.88
2153.77	685.88
2157.793	659.88
2161.812	652.88
2165.827	625.88
2169.838	660.88
2173.846	637.88
2177.851	632.88
2181.851	636.88
2185.848	593.88
2189.841	607.88
2193.831	592.88
2197.817	586.88
2201.799	589.88
2205.778	572.88
2209.753	585.88
2213.725	572.88
2217.693	581.88
2221.657	566.88
2225.618	577.88
2229.575	572.88
2233.529	568.88
2237.479	559.88
2241.425	546.88
2245.368	533.88
2249.307	535.88
2253.243	520.88
2257.175	522.88
2261.104	512.88
2265.029	514.88
2268.95	496.88
2272.868	490.88
2276.783	483.88
2280.694	489.88
2284.601	477.88
2288.505	461.88
2292.405	477.88
2296.302	443.88
2300.195	454.88
2304.085	422.88
2307.971	448.88
2311.854	414.88
2315.734	421.88
2319.609	430.88
2323.482	394.88
2327.351	406.88
2331.216	405.88
2335.078	416.88
2338.937	405.88
2342.792	386.88
2346.643	393.88
2350.492	401.88
2354.336	394.88
2358.178	396.88
2362.015	395.88
2365.85	403.88
2369.681	397.88
2373.508	406.88
2377.333	404.88
2381.153	399.88
2384.971	394.88
2388.785	397.88
2392.595	384.88
2396.402	382.88
2400.206	353.88
2404.007	367.88
2407.804	373.88
2411.597	374.88
2415.388	368.88
2419.174	367.88
2422.958	364.88
2426.738	365.88
2430.515	364.88
2434.289	357.88
2438.059	358.88
2441.825	346.88
2445.589	360.88
2449.349	337.88
2453.106	344.88
2456.859	346.88
2460.61	345.88
2464.356	322.88
2468.1	327.88
2471.84	318.88
2475.577	323.88
2479.311	332.88
2483.041	325.88
2486.768	342.88
2490.492	336.88
2494.213	322.88
2497.93	314.88
2501.644	313.88
2505.355	310.88
2509.062	317.88
2512.766	313.88
2516.467	307.88
2520.165	319.88
2523.859	295.88
2527.551	333.88
2531.239	295.88
2534.923	303.88
2538.605	295.88
2542.283	301.88
2545.958	302.88
2549.63	310.88
2553.299	301.88
2556.964	287.88
2560.626	289.88
2564.285	297.88
2567.941	276.88
2571.594	272.88
2575.243	296.88
2578.89	275.88
2582.533	281.88
2586.173	279.88
2589.809	280.88
2593.443	246.88
2597.073	271.88
2600.701	273.88
2604.325	269.88
2607.946	250.88
2611.564	266.88
2615.178	267.88
2618.79	262.88
2622.398	253.88
2626.004	262.88
2629.606	258.88
2633.205	243.88
2636.801	256.88
2640.394	250.88
2643.983	242.88
2647.57	240.88
2651.153	230.88
2654.734	242.88
2658.311	212.88
2661.885	223.88
2665.456	225.88
2669.025	223.88
2672.589	216.88
2676.151	231.88
2679.71	228.88
2683.266	216.88
2686.819	202.88
2690.368	215.88
2693.915	220.88
2697.458	211.88
2700.999	207.88
2704.536	213.88
2708.071	200.88
2711.602	204.88
2715.13	201.88
2718.656	183.88
2722.178	191.88
2725.697	183.88
2729.214	190.88
2732.727	191.88
2736.237	173.88
2739.744	190.88
2743.249	177.88
2746.75	191.88
2750.248	183.88
2753.743	184.88
2757.236	194.88
2760.725	194.88
2764.211	165.88
2767.695	194.88
2771.175	185.88
2774.652	188.88
2778.127	181.88
2781.598	184.88
2785.067	184.88
2788.532	171.88
2791.995	188.88
2795.455	173.88
2798.911	198.88
2802.365	185.88
2805.816	179.88
2809.264	184.88
2812.709	184.88
2816.151	185.88
2819.59	176.88
2823.026	184.88
2826.46	183.88
2829.89	194.88
2833.318	162.88
2836.742	180.88
2840.164	186.88
2843.583	190.88
2846.999	186.88
2850.412	187.88
2853.822	178.88
2857.229	203.88
2860.634	201.88
2864.035	183.88
2867.434	202.88
2870.83	204.88
2874.223	195.88
2877.613	205.88
2881	192.88
2884.385	201.88
2887.766	205.88
2891.145	202.88
2894.521	200.88
2897.894	199.88
2901.264	210.88
2904.631	212.88
2907.996	215.88
2911.358	216.88
2914.717	208.88
2918.073	210.88
2921.426	212.88
2924.777	202.88
2928.124	214.88
2931.469	232.88
2934.811	215.88
2938.15	235.88
2941.487	228.88
2944.821	250.88
2948.152	227.88
2951.48	240.88
2954.805	227.88
2958.128	244.88
2961.447	232.88
2964.765	241.88
2968.079	236.88
2971.39	235.88
2974.699	239.88
2978.005	248.88
2981.308	240.88
2984.609	236.88
2987.907	256.88
2991.202	262.88
2994.494	241.88
2997.784	256.88
3001.07	258.88
3004.355	255.88
3007.636	269.88
3010.915	272.88
3014.191	258.88
3017.464	270.88
3020.734	265.88
3024.002	266.88
3027.267	272.88
3030.53	271.88
3033.789	284.88
3037.046	286.88
3040.301	275.88
3043.552	290.88
3046.801	291.88
3050.048	300.88
3053.291	326.88
3056.532	321.88
3059.771	299.88
3063.006	338.88
3066.239	335.88
3069.469	345.88
3072.697	349.88
3075.922	356.88
3079.144	357.88
3082.364	391.88
3085.581	387.88
3088.795	403.88
3092.007	402.88
3095.216	412.88
3098.423	418.88
3101.627	402.88
3104.828	433.88
3108.026	435.88
3111.222	469.88
3114.416	474.88
3117.607	469.88
3120.795	471.88
3123.98	491.88
3127.163	480.88
3130.344	499.88
3133.521	506.88
3136.696	531.88
3139.869	524.88
3143.039	527.88
3146.206	570.88
3149.371	562.88
3152.533	562.88
3155.693	550.88
3158.85	579.88
3162.005	579.88
3165.157	573.88
3168.306	576.88
3171.453	591.88
3174.597	562.88
3177.739	571.88
3180.878	589.88
3184.014	587.88
3187.149	594.88
3190.28	591.88
3193.409	602.88
3196.536	594.88
3199.659	600.88
3202.781	603.88
3205.9	591.88
3209.016	607.88
3212.13	597.88
3215.241	596.88
3218.35	590.88
3221.456	568.88
3224.56	572.88
3227.661	574.88
3230.76	563.88
3233.856	572.88
3236.95	560.88
3240.041	549.88
3243.13	566.88
3246.216	550.88
3249.3	556.88
3252.382	549.88
3255.46	535.88
3258.537	496.88
3261.611	531.88
3264.682	526.88
3267.751	539.88
3270.818	524.88
3273.882	537.88
3276.943	531.88
3280.002	542.88
3283.059	516.88
3286.113	519.88
3289.165	500.88
3292.214	499.88
3295.261	511.88
3298.306	483.88
3301.348	487.88
3304.387	466.88
3307.425	480.88
3310.459	466.88
3313.492	467.88
3316.521	462.88
3319.549	468.88
3322.574	455.88
3325.597	450.88
3328.617	452.88
3331.635	444.88
3334.65	427.88
3337.663	441.88
3340.674	427.88
3343.682	439.88
3346.688	446.88
3349.691	423.88
3352.692	435.88
3355.691	445.88
3358.687	441.88
3361.681	435.88
3364.673	425.88
3367.662	423.88
3370.649	415.88
3373.633	400.88
3376.615	409.88
3379.595	378.88
3382.572	402.88
3385.547	388.88
3388.52	381.88
3391.49	375.88
3394.458	372.88
3397.424	371.88
3400.387	363.88
3403.348	364.88
3406.307	359.88
3409.263	357.88
3412.217	367.88
3415.168	359.88
3418.118	359.88
3421.065	342.88
3424.009	345.88
3426.951	341.88
3429.891	335.88
3432.829	322.88
3435.764	332.88
3438.697	314.88
3441.628	318.88
3444.557	292.88
3447.483	287.88
3450.407	299.88
3453.328	292.88
3456.247	274.88
3459.164	259.88
3462.079	270.88
3464.991	248.88
3467.902	246.88
3470.809	238.88
3473.715	246.88
3476.618	223.88
3479.519	225.88
3482.418	196.88
3485.315	204.88
3488.209	201.88
3491.101	199.88
3493.99	183.88
3496.878	180.88
3499.763	181.88
3502.646	179.88
3505.527	165.88
3508.405	162.88
3511.281	150.88
3514.155	156.88
3517.027	144.88
3519.897	136.88
3522.764	140.88
3525.629	116.88
3528.492	129.88
3531.352	125.88
3534.211	118.88
3537.067	105.88
3539.921	112.88
3542.773	105.88
3545.622	88.88
3548.469	79.88
3551.315	79.88
3554.157	84.88
3556.998	80.88
3559.837	67.88
3562.673	82.88
3565.507	67.88
3568.339	62.88
3571.169	66.88
3573.996	58.88
3576.822	42.88
3579.645	45.88
3582.466	42.88
3585.285	55.88
3588.101	45.88
3590.916	39.88
3593.728	50.88
3596.538	39.88
3599.346	39.88
3602.152	24.88
3604.956	36.88
3607.757	35.88
3610.556	12.88
3613.354	26.88
3616.149	22.88
3618.942	25.88
3621.732	24.88
3624.521	16.88
3627.307	6.88
3630.092	14.88
3632.874	22.88
3635.654	9.88
3638.432	2.88
3641.208	4.88
3643.982	5.88
3646.753	14.88
3649.523	-26.12
3652.29	0.88
3655.055	6.88
3657.818	2.88
3660.579	-1.12
3663.338	-14.12
3666.095	-11.12
3668.849	-33.12
3671.602	-1.12
3674.352	-12.12
3677.101	-3.12
3679.847	-5.12
3682.591	-18.12
3685.333	-23.12
3688.073	-13.12
3690.811	-23.12
3693.547	-25.12
3696.281	-27.12
3699.013	-12.12
3701.742	-25.12
3704.47	-29.12
3707.195	-16.12
3709.919	-16.12
3712.64	-20.12
3715.359	-28.12
3718.076	-7.12
3720.792	-20.12
3723.505	-17.12
3726.216	-14.12
3728.925	-22.12
3731.632	-32.12
3734.336	-20.12
3737.039	-21.12
3739.74	-19.12
3742.439	-49.12
3745.136	-19.12
3747.83	-19.12
3750.523	-19.12
3753.213	-80.12
3755.902	-29.12
3758.589	-40.12
3761.273	-27.12
3763.956	-17.12
3766.636	-38.12
3769.315	-16.12
3771.991	-27.12
3774.665	-30.12
3777.338	-24.12
3780.008	-38.12
3782.677	-25.12
3785.343	-47.12
3788.007	-49.12
3790.67	-25.12
3793.33	-39.12
3795.989	-35.12
3798.645	-24.12
3801.299	-41.12
3803.952	-42.12
3806.602	-33.12
3809.251	-24.12
3811.897	-29.12
3814.542	-38.12
3817.184	-32.12
3819.825	-31.12
3822.463	-45.12
3825.1	-35.12
3827.735	-31.12
3830.367	-42.12
3832.998	-18.12
3835.627	-32.12
3838.253	-23.12
3840.878	-33.12
3843.501	-18.12
3846.122	-30.12
3848.741	-24.12
3851.358	-19.12
3853.973	-41.12
3856.586	-21.12
3859.197	-39.12
3861.806	-27.12
3864.414	-40.12
3867.019	-31.12
3869.622	-18.12
3872.224	-10.12
3874.823	-1.12
3877.421	28.88
3880.016	46.88
3882.61	86.88
3885.202	104.88
3887.792	81.88
3890.38	40.88
3892.966	-6.12
3895.55	-21.12
3898.132	-17.12
3900.713	-21.12
3903.291	-31.12
3905.868	-38.12
3908.442	-29.12
3911.015	-33.12
3913.586	-38.12
3916.155	-33.12
3918.722	-32.12
3921.287	-40.12
3923.85	-46.12
3926.411	-37.12
3928.971	-35.12
3931.528	-30.12
3934.084	-30.12
3936.638	-44.12
3939.19	-31.12
3941.74	-32.12
3944.288	-35.12
3946.834	-34.12
3949.378	-24.12
3951.921	-34.12
3954.462	-32.12
3957	-25.12
3959.537	-20.12
3962.072	-33.12
3964.606	-42.12
3967.137	-34.12
3969.667	-41.12
3972.194	-29.12
3974.72	-31.12
3977.244	-57.12
3979.766	-30.12
3982.286	-36.12
3984.805	-26.12
3987.321	-19.12
3989.836	-25.12
3992.349	-33.12
3994.86	-29.12
3997.369	-39.12
3999.877	-35.12
4002.382	-32.12
4004.886	-21.12
4007.388	-29.12
4009.888	-15.12
4012.386	-25.12
4014.883	-21.12
4017.377	-26.12
4019.87	-24.12
4022.361	-37.12
4024.85	-24.12
4027.338	-23.12
4029.823	-28.12
4032.307	-31.12
4034.789	-25.12
4037.269	-27.12
4039.747	-42.12
4042.224	-21.12
4044.699	-36.12
4047.172	-33.12
4049.643	-19.12
4052.112	-54.12
4054.58	-22.12
4057.046	-44.12
4059.51	-30.12
4061.972	-26.12
4064.432	-49.12
4066.891	-13.12
4069.348	-29.12
4071.803	-30.12
4074.256	-37.12
4076.708	-21.12
4079.158	-24.12
4081.606	-17.12
4084.052	-29.12
4086.497	-24.12
4088.939	-29.12
4091.38	-30.12
4093.819	-23.12
4096.257	-2.12
4098.693	-7.12
4101.127	-7.12
4103.559	-1.12
4105.989	131.88
4108.418	139.88
4110.845	129.88
4113.27	135.88
4115.694	139.88
4118.115	131.88
4120.535	-24.12
4122.954	-23.12
4125.37	-17.12
4127.785	-21.12
4130.198	-14.12
4132.609	-22.12
4135.019	9.88
4137.427	2.88
4139.833	5.88
4142.237	-1.12
