Data from 2018-3-6_conc=5_n=8_RamanShift_04.txt Node
Date: Tue Mar 06 14:45:48 GMT+02:00 2018
User: LAB3
Spectrometer: QEPB0276
Trigger mode: 0
Integration Time (sec): 3.000000E1
Scans to average: 1
Electric dark correction enabled: true
Nonlinearity correction enabled: false
Boxcar width: 0
XAxis mode: Raman Shifts
Number of Pixels in Spectrum: 1044
>>>>>Begin Spectral Data<<<<<
160.701	41.62
166.742	51.62
172.777	85.62
178.805	178.62
184.826	416.62
190.841	866.62
196.849	1346.62
202.85	1739.62
208.845	1859.62
214.833	1836.62
220.815	1786.62
226.789	1774.62
232.758	1779.62
238.719	1748.62
244.674	1748.62
250.623	1734.62
256.565	1696.62
262.5	1677.62
268.429	1651.62
274.351	1622.62
280.267	1631.62
286.176	1631.62
292.079	1645.62
297.975	1624.62
303.865	1610.62
309.748	1628.62
315.625	1622.62
321.495	1624.62
327.359	1613.62
333.217	1614.62
339.068	1618.62
344.912	1634.62
350.751	1624.62
356.583	1620.62
362.408	1625.62
368.227	1635.62
374.04	1650.62
379.847	1649.62
385.647	1663.62
391.44	1656.62
397.228	1655.62
403.009	1673.62
408.784	1670.62
414.553	1693.62
420.315	1697.62
426.071	1672.62
431.821	1679.62
437.565	1686.62
443.302	1662.62
449.033	1652.62
454.758	1662.62
460.477	1639.62
466.189	1620.62
471.896	1605.62
477.596	1599.62
483.29	1579.62
488.978	1570.62
494.66	1564.62
500.335	1528.62
506.005	1451.62
511.668	1383.62
517.325	1316.62
522.977	1257.62
528.622	1212.62
534.261	1201.62
539.894	1160.62
545.521	1164.62
551.141	1134.62
556.756	1112.62
562.365	1106.62
567.968	1118.62
573.565	1095.62
579.155	1108.62
584.74	1073.62
590.319	1087.62
595.892	1095.62
601.459	1090.62
607.02	1074.62
612.575	1093.62
618.124	1073.62
623.667	1049.62
629.204	1021.62
634.735	1016.62
640.261	1005.62
645.781	976.62
651.294	973.62
656.802	988.62
662.304	994.62
667.8	988.62
673.29	985.62
678.775	974.62
684.254	979.62
689.726	955.62
695.193	963.62
700.655	950.62
706.11	950.62
711.56	944.62
717.004	949.62
722.442	923.62
727.874	925.62
733.301	935.62
738.722	910.62
744.137	913.62
749.547	924.62
754.951	916.62
760.349	908.62
765.741	926.62
771.128	931.62
776.509	926.62
781.885	969.62
787.254	973.62
792.618	967.62
797.977	982.62
803.33	960.62
808.677	951.62
814.019	956.62
819.355	940.62
824.686	935.62
830.011	910.62
835.33	920.62
840.644	924.62
845.952	890.62
851.255	917.62
856.552	906.62
861.844	892.62
867.13	874.62
872.41	861.62
877.686	862.62
882.955	858.62
888.219	846.62
893.478	821.62
898.731	824.62
903.979	819.62
909.221	808.62
914.458	798.62
919.69	796.62
924.916	795.62
930.136	794.62
935.351	786.62
940.561	808.62
945.766	795.62
950.965	793.62
956.158	778.62
961.347	770.62
966.529	774.62
971.707	770.62
976.879	761.62
982.046	741.62
987.208	731.62
992.364	750.62
997.515	745.62
1002.66	743.62
1007.801	749.62
1012.936	758.62
1018.066	734.62
1023.19	777.62
1028.309	768.62
1033.423	765.62
1038.532	775.62
1043.636	756.62
1048.734	756.62
1053.827	756.62
1058.915	734.62
1063.998	747.62
1069.075	727.62
1074.147	751.62
1079.214	714.62
1084.276	747.62
1089.333	737.62
1094.385	743.62
1099.431	734.62
1104.472	743.62
1109.509	729.62
1114.54	708.62
1119.565	704.62
1124.586	702.62
1129.602	703.62
1134.613	676.62
1139.618	669.62
1144.619	681.62
1149.614	685.62
1154.604	681.62
1159.589	681.62
1164.57	689.62
1169.545	694.62
1174.515	697.62
1179.48	689.62
1184.44	687.62
1189.395	694.62
1194.345	658.62
1199.29	674.62
1204.23	659.62
1209.165	652.62
1214.095	672.62
1219.021	662.62
1223.941	657.62
1228.856	665.62
1233.766	682.62
1238.672	681.62
1243.572	684.62
1248.467	661.62
1253.358	655.62
1258.244	643.62
1263.124	648.62
1268	638.62
1272.871	609.62
1277.737	616.62
1282.599	607.62
1287.455	606.62
1292.306	610.62
1297.153	599.62
1301.995	614.62
1306.832	607.62
1311.664	616.62
1316.491	607.62
1321.314	617.62
1326.132	606.62
1330.945	600.62
1335.753	583.62
1340.556	593.62
1345.354	579.62
1350.148	565.62
1354.937	568.62
1359.722	559.62
1364.501	556.62
1369.276	555.62
1374.046	568.62
1378.811	543.62
1383.572	550.62
1388.327	550.62
1393.079	539.62
1397.825	531.62
1402.567	536.62
1407.304	520.62
1412.036	522.62
1416.764	526.62
1421.487	516.62
1426.205	525.62
1430.919	527.62
1435.628	516.62
1440.333	518.62
1445.032	526.62
1449.727	534.62
1454.418	532.62
1459.104	538.62
1463.785	524.62
1468.462	528.62
1473.134	516.62
1477.802	501.62
1482.465	473.62
1487.123	492.62
1491.777	467.62
1496.426	473.62
1501.071	493.62
1505.711	485.62
1510.347	499.62
1514.978	503.62
1519.604	489.62
1524.226	507.62
1528.844	487.62
1533.457	490.62
1538.065	488.62
1542.669	479.62
1547.269	489.62
1551.864	484.62
1556.454	462.62
1561.041	475.62
1565.622	475.62
1570.199	475.62
1574.772	484.62
1579.34	487.62
1583.904	488.62
1588.464	502.62
1593.019	503.62
1597.569	475.62
1602.115	484.62
1606.657	480.62
1611.195	497.62
1615.728	495.62
1620.256	471.62
1624.78	456.62
1629.3	476.62
1633.816	483.62
1638.327	473.62
1642.834	481.62
1647.336	491.62
1651.834	506.62
1656.328	488.62
1660.817	476.62
1665.302	475.62
1669.783	477.62
1674.259	453.62
1678.732	463.62
1683.199	455.62
1687.663	434.62
1692.122	437.62
1696.577	429.62
1701.028	429.62
1705.474	412.62
1709.917	402.62
1714.355	405.62
1718.788	389.62
1723.218	372.62
1727.643	376.62
1732.064	371.62
1736.481	357.62
1740.893	370.62
1745.301	344.62
1749.705	324.62
1754.105	339.62
1758.501	323.62
1762.893	333.62
1767.28	306.62
1771.663	315.62
1776.042	313.62
1780.417	303.62
1784.787	313.62
1789.154	318.62
1793.516	324.62
1797.874	309.62
1802.228	308.62
1806.578	297.62
1810.924	316.62
1815.266	194.62
1819.603	306.62
1823.937	294.62
1828.266	288.62
1832.591	294.62
1836.913	278.62
1841.23	283.62
1845.543	280.62
1849.852	292.62
1854.156	280.62
1858.457	288.62
1862.754	271.62
1867.047	283.62
1871.335	302.62
1875.62	292.62
1879.9	291.62
1884.177	279.62
1888.449	287.62
1892.718	285.62
1896.982	288.62
1901.243	269.62
1905.499	273.62
1909.752	266.62
1914	258.62
1918.245	277.62
1922.485	283.62
1926.722	268.62
1930.954	263.62
1935.183	271.62
1939.408	281.62
1943.628	267.62
1947.845	270.62
1952.058	272.62
1956.267	269.62
1960.472	266.62
1964.673	254.62
1968.87	257.62
1973.063	247.62
1977.252	244.62
1981.438	239.62
1985.619	239.62
1989.797	228.62
1993.971	232.62
1998.14	246.62
2002.306	239.62
2006.469	240.62
2010.627	229.62
2014.781	230.62
2018.932	226.62
2023.078	248.62
2027.221	238.62
2031.36	226.62
2035.495	223.62
2039.627	227.62
2043.754	227.62
2047.878	218.62
2051.998	212.62
2056.114	204.62
2060.226	218.62
2064.334	227.62
2068.439	232.62
2072.54	234.62
2076.637	207.62
2080.73	220.62
2084.82	215.62
2088.906	213.62
2092.988	208.62
2097.066	218.62
2101.14	233.62
2105.211	228.62
2109.278	213.62
2113.342	202.62
2117.401	198.62
2121.457	192.62
2125.509	196.62
2129.558	202.62
2133.602	191.62
2137.643	196.62
2141.681	192.62
2145.714	195.62
2149.744	189.62
2153.77	190.62
2157.793	175.62
2161.812	148.62
2165.827	160.62
2169.838	193.62
2173.846	173.62
2177.851	166.62
2181.851	177.62
2185.848	168.62
2189.841	169.62
2193.831	169.62
2197.817	172.62
2201.799	154.62
2205.778	148.62
2209.753	154.62
2213.725	153.62
2217.693	159.62
2221.657	149.62
2225.618	165.62
2229.575	159.62
2233.529	160.62
2237.479	159.62
2241.425	153.62
2245.368	140.62
2249.307	155.62
2253.243	140.62
2257.175	145.62
2261.104	126.62
2265.029	144.62
2268.95	135.62
2272.868	133.62
2276.783	125.62
2280.694	135.62
2284.601	136.62
2288.505	130.62
2292.405	136.62
2296.302	110.62
2300.195	122.62
2304.085	94.62
2307.971	119.62
2311.854	107.62
2315.734	117.62
2319.609	121.62
2323.482	94.62
2327.351	101.62
2331.216	103.62
2335.078	108.62
2338.937	107.62
2342.792	98.62
2346.643	94.62
2350.492	112.62
2354.336	97.62
2358.178	109.62
2362.015	108.62
2365.85	97.62
2369.681	104.62
2373.508	107.62
2377.333	113.62
2381.153	105.62
2384.971	98.62
2388.785	107.62
2392.595	88.62
2396.402	95.62
2400.206	76.62
2404.007	85.62
2407.804	92.62
2411.597	97.62
2415.388	93.62
2419.174	88.62
2422.958	87.62
2426.738	86.62
2430.515	100.62
2434.289	84.62
2438.059	75.62
2441.825	85.62
2445.589	92.62
2449.349	75.62
2453.106	88.62
2456.859	88.62
2460.61	93.62
2464.356	77.62
2468.1	67.62
2471.84	71.62
2475.577	69.62
2479.311	70.62
2483.041	75.62
2486.768	79.62
2490.492	84.62
2494.213	77.62
2497.93	64.62
2501.644	59.62
2505.355	72.62
2509.062	66.62
2512.766	71.62
2516.467	59.62
2520.165	65.62
2523.859	53.62
2527.551	87.62
2531.239	53.62
2534.923	70.62
2538.605	65.62
2542.283	67.62
2545.958	71.62
2549.63	75.62
2553.299	73.62
2556.964	61.62
2560.626	63.62
2564.285	68.62
2567.941	51.62
2571.594	57.62
2575.243	66.62
2578.89	57.62
2582.533	59.62
2586.173	56.62
2589.809	64.62
2593.443	36.62
2597.073	55.62
2600.701	64.62
2604.325	59.62
2607.946	44.62
2611.564	62.62
2615.178	59.62
2618.79	58.62
2622.398	51.62
2626.004	59.62
2629.606	51.62
2633.205	39.62
2636.801	52.62
2640.394	56.62
2643.983	50.62
2647.57	42.62
2651.153	34.62
2654.734	55.62
2658.311	23.62
2661.885	44.62
2665.456	37.62
2669.025	41.62
2672.589	38.62
2676.151	49.62
2679.71	53.62
2683.266	44.62
2686.819	38.62
2690.368	45.62
2693.915	44.62
2697.458	43.62
2700.999	49.62
2704.536	44.62
2708.071	34.62
2711.602	42.62
2715.13	37.62
2718.656	20.62
2722.178	42.62
2725.697	27.62
2729.214	29.62
2732.727	36.62
2736.237	22.62
2739.744	35.62
2743.249	32.62
2746.75	27.62
2750.248	32.62
2753.743	37.62
2757.236	28.62
2760.725	38.62
2764.211	7.62
2767.695	40.62
2771.175	28.62
2774.652	34.62
2778.127	28.62
2781.598	28.62
2785.067	31.62
2788.532	18.62
2791.995	36.62
2795.455	25.62
2798.911	37.62
2802.365	23.62
2805.816	31.62
2809.264	39.62
2812.709	23.62
2816.151	37.62
2819.59	21.62
2823.026	24.62
2826.46	26.62
2829.89	30.62
2833.318	7.62
2836.742	24.62
2840.164	30.62
2843.583	22.62
2846.999	25.62
2850.412	28.62
2853.822	18.62
2857.229	40.62
2860.634	33.62
2864.035	16.62
2867.434	37.62
2870.83	30.62
2874.223	25.62
2877.613	22.62
2881	24.62
2884.385	18.62
2887.766	23.62
2891.145	27.62
2894.521	26.62
2897.894	23.62
2901.264	35.62
2904.631	40.62
2907.996	38.62
2911.358	44.62
2914.717	36.62
2918.073	38.62
2921.426	32.62
2924.777	16.62
2928.124	29.62
2931.469	50.62
2934.811	24.62
2938.15	48.62
2941.487	43.62
2944.821	62.62
2948.152	38.62
2951.48	48.62
2954.805	29.62
2958.128	58.62
2961.447	39.62
2964.765	56.62
2968.079	42.62
2971.39	49.62
2974.699	43.62
2978.005	51.62
2981.308	49.62
2984.609	33.62
2987.907	49.62
2991.202	58.62
2994.494	34.62
2997.784	49.62
3001.07	44.62
3004.355	46.62
3007.636	52.62
3010.915	49.62
3014.191	45.62
3017.464	52.62
3020.734	47.62
3024.002	56.62
3027.267	49.62
3030.53	56.62
3033.789	52.62
3037.046	54.62
3040.301	45.62
3043.552	56.62
3046.801	64.62
3050.048	63.62
3053.291	83.62
3056.532	65.62
3059.771	49.62
3063.006	69.62
3066.239	66.62
3069.469	68.62
3072.697	68.62
3075.922	69.62
3079.144	71.62
3082.364	95.62
3085.581	79.62
3088.795	94.62
3092.007	92.62
3095.216	101.62
3098.423	87.62
3101.627	72.62
3104.828	98.62
3108.026	85.62
3111.222	114.62
3114.416	116.62
3117.607	104.62
3120.795	110.62
3123.98	118.62
3127.163	107.62
3130.344	113.62
3133.521	105.62
3136.696	124.62
3139.869	118.62
3143.039	111.62
3146.206	133.62
3149.371	140.62
3152.533	127.62
3155.693	116.62
3158.85	136.62
3162.005	142.62
3165.157	141.62
3168.306	136.62
3171.453	140.62
3174.597	128.62
3177.739	121.62
3180.878	136.62
3184.014	139.62
3187.149	137.62
3190.28	137.62
3193.409	138.62
3196.536	141.62
3199.659	154.62
3202.781	146.62
3205.9	132.62
3209.016	135.62
3212.13	142.62
3215.241	132.62
3218.35	139.62
3221.456	125.62
3224.56	130.62
3227.661	132.62
3230.76	130.62
3233.856	124.62
3236.95	127.62
3240.041	117.62
3243.13	129.62
3246.216	130.62
3249.3	130.62
3252.382	127.62
3255.46	114.62
3258.537	75.62
3261.611	113.62
3264.682	126.62
3267.751	120.62
3270.818	111.62
3273.882	126.62
3276.943	117.62
3280.002	134.62
3283.059	111.62
3286.113	119.62
3289.165	111.62
3292.214	107.62
3295.261	124.62
3298.306	95.62
3301.348	109.62
3304.387	100.62
3307.425	112.62
3310.459	103.62
3313.492	115.62
3316.521	102.62
3319.549	108.62
3322.574	102.62
3325.597	105.62
3328.617	91.62
3331.635	93.62
3334.65	77.62
3337.663	96.62
3340.674	86.62
3343.682	102.62
3346.688	104.62
3349.691	86.62
3352.692	89.62
3355.691	97.62
3358.687	86.62
3361.681	94.62
3364.673	90.62
3367.662	98.62
3370.649	94.62
3373.633	79.62
3376.615	91.62
3379.595	73.62
3382.572	81.62
3385.547	68.62
3388.52	70.62
3391.49	81.62
3394.458	73.62
3397.424	78.62
3400.387	67.62
3403.348	79.62
3406.307	70.62
3409.263	70.62
3412.217	73.62
3415.168	69.62
3418.118	82.62
3421.065	71.62
3424.009	84.62
3426.951	68.62
3429.891	71.62
3432.829	64.62
3435.764	70.62
3438.697	55.62
3441.628	67.62
3444.557	52.62
3447.483	45.62
3450.407	69.62
3453.328	44.62
3456.247	50.62
3459.164	39.62
3462.079	56.62
3464.991	47.62
3467.902	44.62
3470.809	39.62
3473.715	46.62
3476.618	32.62
3479.519	38.62
3482.418	14.62
3485.315	28.62
3488.209	29.62
3491.101	25.62
3493.99	12.62
3496.878	17.62
3499.763	23.62
3502.646	27.62
3505.527	7.62
3508.405	11.62
3511.281	5.62
3514.155	12.62
3517.027	13.62
3519.897	1.62
3522.764	13.62
3525.629	-6.38
3528.492	3.62
3531.352	9.62
3534.211	4.62
3537.067	5.62
3539.921	4.62
3542.773	8.62
3545.622	-1.38
3548.469	-6.38
3551.315	-9.38
3554.157	3.62
3556.998	-12.38
3559.837	-1.38
3562.673	-0.38
3565.507	-11.38
3568.339	-15.38
3571.169	-12.38
3573.996	-12.38
3576.822	-26.38
3579.645	-22.38
3582.466	-17.38
3585.285	-10.38
3588.101	-16.38
3590.916	-22.38
3593.728	-11.38
3596.538	-21.38
3599.346	-17.38
3602.152	-30.38
3604.956	-17.38
3607.757	-16.38
3610.556	-29.38
3613.354	-19.38
3616.149	-19.38
3618.942	-14.38
3621.732	-20.38
3624.521	-25.38
3627.307	-30.38
3630.092	-31.38
3632.874	-11.38
3635.654	-27.38
3638.432	-29.38
3641.208	-27.38
3643.982	-21.38
3646.753	-16.38
3649.523	-47.38
3652.29	-28.38
3655.055	-18.38
3657.818	-20.38
3660.579	-29.38
3663.338	-32.38
3666.095	-28.38
3668.849	-50.38
3671.602	-21.38
3674.352	-35.38
3677.101	-22.38
3679.847	-18.38
3682.591	-34.38
3685.333	-39.38
3688.073	-22.38
3690.811	-38.38
3693.547	-39.38
3696.281	-43.38
3699.013	-29.38
3701.742	-34.38
3704.47	-40.38
3707.195	-30.38
3709.919	-27.38
3712.64	-34.38
3715.359	-44.38
3718.076	-21.38
3720.792	-31.38
3723.505	-31.38
3726.216	-19.38
3728.925	-35.38
3731.632	-38.38
3734.336	-31.38
3737.039	-31.38
3739.74	-32.38
3742.439	-55.38
3745.136	-24.38
3747.83	-30.38
3750.523	-22.38
3753.213	-96.38
3755.902	-31.38
3758.589	-51.38
3761.273	-37.38
3763.956	-23.38
3766.636	-41.38
3769.315	-23.38
3771.991	-32.38
3774.665	-33.38
3777.338	-31.38
3780.008	-46.38
3782.677	-36.38
3785.343	-47.38
3788.007	-51.38
3790.67	-21.38
3793.33	-44.38
3795.989	-37.38
3798.645	-29.38
3801.299	-42.38
3803.952	-41.38
3806.602	-39.38
3809.251	-26.38
3811.897	-30.38
3814.542	-40.38
3817.184	-38.38
3819.825	-34.38
3822.463	-41.38
3825.1	-36.38
3827.735	-31.38
3830.367	-43.38
3832.998	-23.38
3835.627	-37.38
3838.253	-27.38
3840.878	-36.38
3843.501	-14.38
3846.122	-29.38
3848.741	-26.38
3851.358	-28.38
3853.973	-45.38
3856.586	-29.38
3859.197	-36.38
3861.806	-34.38
3864.414	-46.38
3867.019	-37.38
3869.622	-22.38
3872.224	-27.38
3874.823	-14.38
3877.421	7.62
3880.016	10.62
3882.61	47.62
3885.202	50.62
3887.792	36.62
3890.38	10.62
3892.966	-22.38
3895.55	-34.38
3898.132	-27.38
3900.713	-23.38
3903.291	-24.38
3905.868	-38.38
3908.442	-29.38
3911.015	-33.38
3913.586	-41.38
3916.155	-37.38
3918.722	-35.38
3921.287	-40.38
3923.85	-45.38
3926.411	-41.38
3928.971	-38.38
3931.528	-33.38
3934.084	-34.38
3936.638	-47.38
3939.19	-31.38
3941.74	-33.38
3944.288	-38.38
3946.834	-34.38
3949.378	-26.38
3951.921	-39.38
3954.462	-37.38
3957	-35.38
3959.537	-24.38
3962.072	-36.38
3964.606	-51.38
3967.137	-42.38
3969.667	-40.38
3972.194	-29.38
3974.72	-40.38
3977.244	-53.38
3979.766	-40.38
3982.286	-40.38
3984.805	-32.38
3987.321	-24.38
3989.836	-28.38
3992.349	-39.38
3994.86	-36.38
3997.369	-41.38
3999.877	-37.38
4002.382	-38.38
4004.886	-27.38
4007.388	-30.38
4009.888	-21.38
4012.386	-23.38
4014.883	-28.38
4017.377	-33.38
4019.87	-29.38
4022.361	-38.38
4024.85	-31.38
4027.338	-32.38
4029.823	-34.38
4032.307	-32.38
4034.789	-32.38
4037.269	-33.38
4039.747	-50.38
4042.224	-21.38
4044.699	-40.38
4047.172	-32.38
4049.643	-27.38
4052.112	-58.38
4054.58	-28.38
4057.046	-43.38
4059.51	-31.38
4061.972	-31.38
4064.432	-53.38
4066.891	-20.38
4069.348	-31.38
4071.803	-28.38
4074.256	-34.38
4076.708	-26.38
4079.158	-31.38
4081.606	-23.38
4084.052	-31.38
4086.497	-29.38
4088.939	-36.38
4091.38	-35.38
4093.819	-26.38
4096.257	0.62
4098.693	-4.38
4101.127	-8.38
4103.559	2.62
4105.989	40.62
4108.418	47.62
4110.845	33.62
4113.27	41.62
4115.694	42.62
4118.115	32.62
4120.535	-30.38
4122.954	-28.38
4125.37	-22.38
4127.785	-32.38
4130.198	-23.38
4132.609	-28.38
4135.019	7.62
4137.427	1.62
4139.833	4.62
4142.237	-4.38
