Data from 2018-3-6_conc=0_n=8_RamanShift_04.txt Node
Date: Tue Mar 06 12:32:19 GMT+02:00 2018
User: LAB3
Spectrometer: QEPB0276
Trigger mode: 0
Integration Time (sec): 3.000000E1
Scans to average: 1
Electric dark correction enabled: true
Nonlinearity correction enabled: false
Boxcar width: 0
XAxis mode: Raman Shifts
Number of Pixels in Spectrum: 1044
>>>>>Begin Spectral Data<<<<<
160.701	162.88
166.742	212.88
172.777	318.88
178.805	662.88
184.826	1548.88
190.841	3119.88
196.849	4943.88
202.85	6390.88
208.845	6920.88
214.833	6939.88
220.815	6863.88
226.789	6899.88
232.758	6968.88
238.719	7003.88
244.674	7009.88
250.623	7001.88
256.565	6922.88
262.5	6850.88
268.429	6845.88
274.351	6859.88
280.267	6856.88
286.176	6846.88
292.079	6894.88
297.975	6904.88
303.865	6912.88
309.748	6956.88
315.625	6973.88
321.495	7003.88
327.359	6999.88
333.217	7019.88
339.068	7068.88
344.912	7129.88
350.751	7128.88
356.583	7141.88
362.408	7165.88
368.227	7220.88
374.04	7280.88
379.847	7302.88
385.647	7378.88
391.44	7323.88
397.228	7412.88
403.009	7466.88
408.784	7500.88
414.553	7506.88
420.315	7566.88
426.071	7560.88
431.821	7595.88
437.565	7588.88
443.302	7568.88
449.033	7500.88
454.758	7485.88
460.477	7432.88
466.189	7354.88
471.896	7256.88
477.596	7194.88
483.29	7184.88
488.978	7145.88
494.66	7125.88
500.335	6912.88
506.005	6618.88
511.668	6296.88
517.325	5958.88
522.977	5729.88
528.622	5516.88
534.261	5391.88
539.894	5269.88
545.521	5225.88
551.141	5123.88
556.756	5101.88
562.365	5035.88
567.968	4967.88
573.565	4951.88
579.155	4925.88
584.74	4866.88
590.319	4898.88
595.892	4877.88
601.459	4896.88
607.02	4861.88
612.575	4807.88
618.124	4776.88
623.667	4690.88
629.204	4622.88
634.735	4573.88
640.261	4512.88
645.781	4462.88
651.294	4462.88
656.802	4415.88
662.304	4443.88
667.8	4423.88
673.29	4376.88
678.775	4389.88
684.254	4360.88
689.726	4342.88
695.193	4323.88
700.655	4300.88
706.11	4293.88
711.56	4245.88
717.004	4244.88
722.442	4192.88
727.874	4213.88
733.301	4197.88
738.722	4156.88
744.137	4165.88
749.547	4148.88
754.951	4141.88
760.349	4143.88
765.741	4170.88
771.128	4215.88
776.509	4280.88
781.885	4325.88
787.254	4397.88
792.618	4390.88
797.977	4395.88
803.33	4357.88
808.677	4332.88
814.019	4323.88
819.355	4221.88
824.686	4190.88
830.011	4193.88
835.33	4177.88
840.644	4149.88
845.952	4092.88
851.255	4086.88
856.552	4043.88
861.844	4009.88
867.13	3960.88
872.41	4026.88
877.686	4024.88
882.955	4075.88
888.219	4011.88
893.478	3878.88
898.731	3777.88
903.979	3717.88
909.221	3666.88
914.458	3623.88
919.69	3611.88
924.916	3622.88
930.136	3661.88
935.351	3607.88
940.561	3655.88
945.766	3615.88
950.965	3624.88
956.158	3558.88
961.347	3546.88
966.529	3493.88
971.707	3450.88
976.879	3397.88
982.046	3358.88
987.208	3355.88
992.364	3352.88
997.515	3380.88
1002.66	3403.88
1007.801	3416.88
1012.936	3453.88
1018.066	3464.88
1023.19	3490.88
1028.309	3546.88
1033.423	3513.88
1038.532	3547.88
1043.636	3511.88
1048.734	3506.88
1053.827	3458.88
1058.915	3428.88
1063.998	3412.88
1069.075	3375.88
1074.147	3386.88
1079.214	3357.88
1084.276	3418.88
1089.333	3437.88
1094.385	3446.88
1099.431	3420.88
1104.472	3404.88
1109.509	3324.88
1114.54	3259.88
1119.565	3234.88
1124.586	3181.88
1129.602	3158.88
1134.613	3120.88
1139.618	3104.88
1144.619	3093.88
1149.614	3100.88
1154.604	3101.88
1159.589	3097.88
1164.57	3153.88
1169.545	3167.88
1174.515	3140.88
1179.48	3103.88
1184.44	3112.88
1189.395	3116.88
1194.345	3055.88
1199.29	3045.88
1204.23	3039.88
1209.165	3016.88
1214.095	3056.88
1219.021	3073.88
1223.941	3062.88
1228.856	3077.88
1233.766	3089.88
1238.672	3087.88
1243.572	3100.88
1248.467	3058.88
1253.358	3035.88
1258.244	2976.88
1263.124	2954.88
1268	2904.88
1272.871	2840.88
1277.737	2830.88
1282.599	2820.88
1287.455	2811.88
1292.306	2821.88
1297.153	2798.88
1301.995	2820.88
1306.832	2815.88
1311.664	2838.88
1316.491	2838.88
1321.314	2825.88
1326.132	2823.88
1330.945	2782.88
1335.753	2714.88
1340.556	2682.88
1345.354	2632.88
1350.148	2586.88
1354.937	2598.88
1359.722	2560.88
1364.501	2558.88
1369.276	2538.88
1374.046	2539.88
1378.811	2524.88
1383.572	2530.88
1388.327	2514.88
1393.079	2506.88
1397.825	2468.88
1402.567	2462.88
1407.304	2436.88
1412.036	2440.88
1416.764	2442.88
1421.487	2430.88
1426.205	2407.88
1430.919	2422.88
1435.628	2472.88
1440.333	2466.88
1445.032	2489.88
1449.727	2525.88
1454.418	2544.88
1459.104	2565.88
1463.785	2546.88
1468.462	2510.88
1473.134	2444.88
1477.802	2387.88
1482.465	2331.88
1487.123	2320.88
1491.777	2302.88
1496.426	2291.88
1501.071	2328.88
1505.711	2307.88
1510.347	2328.88
1514.978	2333.88
1519.604	2340.88
1524.226	2335.88
1528.844	2309.88
1533.457	2314.88
1538.065	2294.88
1542.669	2258.88
1547.269	2242.88
1551.864	2236.88
1556.454	2189.88
1561.041	2215.88
1565.622	2212.88
1570.199	2211.88
1574.772	2243.88
1579.34	2246.88
1583.904	2270.88
1588.464	2269.88
1593.019	2288.88
1597.569	2266.88
1602.115	2255.88
1606.657	2264.88
1611.195	2243.88
1615.728	2250.88
1620.256	2218.88
1624.78	2199.88
1629.3	2221.88
1633.816	2216.88
1638.327	2241.88
1642.834	2254.88
1647.336	2256.88
1651.834	2295.88
1656.328	2298.88
1660.817	2302.88
1665.302	2259.88
1669.783	2253.88
1674.259	2222.88
1678.732	2188.88
1683.199	2154.88
1687.663	2100.88
1692.122	2037.88
1696.577	2007.88
1701.028	1989.88
1705.474	1938.88
1709.917	1893.88
1714.355	1905.88
1718.788	1855.88
1723.218	1852.88
1727.643	1824.88
1732.064	1811.88
1736.481	1759.88
1740.893	1745.88
1745.301	1698.88
1749.705	1649.88
1754.105	1628.88
1758.501	1586.88
1762.893	1585.88
1767.28	1541.88
1771.663	1527.88
1776.042	1524.88
1780.417	1517.88
1784.787	1523.88
1789.154	1533.88
1793.516	1534.88
1797.874	1528.88
1802.228	1515.88
1806.578	1510.88
1810.924	1496.88
1815.266	1409.88
1819.603	1482.88
1823.937	1433.88
1828.266	1422.88
1832.591	1405.88
1836.913	1396.88
1841.23	1409.88
1845.543	1381.88
1849.852	1389.88
1854.156	1376.88
1858.457	1386.88
1862.754	1381.88
1867.047	1404.88
1871.335	1411.88
1875.62	1432.88
1879.9	1398.88
1884.177	1397.88
1888.449	1397.88
1892.718	1388.88
1896.982	1395.88
1901.243	1366.88
1905.499	1374.88
1909.752	1356.88
1914	1371.88
1918.245	1392.88
1922.485	1393.88
1926.722	1382.88
1930.954	1382.88
1935.183	1377.88
1939.408	1402.88
1943.628	1399.88
1947.845	1383.88
1952.058	1367.88
1956.267	1346.88
1960.472	1328.88
1964.673	1321.88
1968.87	1275.88
1973.063	1249.88
1977.252	1224.88
1981.438	1215.88
1985.619	1193.88
1989.797	1189.88
1993.971	1181.88
1998.14	1193.88
2002.306	1181.88
2006.469	1184.88
2010.627	1157.88
2014.781	1152.88
2018.932	1148.88
2023.078	1164.88
2027.221	1159.88
2031.36	1128.88
2035.495	1116.88
2039.627	1111.88
2043.754	1097.88
2047.878	1087.88
2051.998	1070.88
2056.114	1097.88
2060.226	1070.88
2064.334	1092.88
2068.439	1109.88
2072.54	1105.88
2076.637	1108.88
2080.73	1104.88
2084.82	1106.88
2088.906	1109.88
2092.988	1105.88
2097.066	1101.88
2101.14	1104.88
2105.211	1079.88
2109.278	1054.88
2113.342	1053.88
2117.401	1045.88
2121.457	1020.88
2125.509	991.88
2129.558	1015.88
2133.602	1001.88
2137.643	1000.88
2141.681	972.88
2145.714	986.88
2149.744	980.88
2153.77	957.88
2157.793	937.88
2161.812	917.88
2165.827	900.88
2169.838	914.88
2173.846	888.88
2177.851	880.88
2181.851	876.88
2185.848	864.88
2189.841	841.88
2193.831	828.88
2197.817	846.88
2201.799	838.88
2205.778	820.88
2209.753	812.88
2213.725	794.88
2217.693	803.88
2221.657	801.88
2225.618	805.88
2229.575	788.88
2233.529	791.88
2237.479	793.88
2241.425	770.88
2245.368	752.88
2249.307	760.88
2253.243	734.88
2257.175	736.88
2261.104	713.88
2265.029	717.88
2268.95	705.88
2272.868	687.88
2276.783	676.88
2280.694	675.88
2284.601	674.88
2288.505	663.88
2292.405	668.88
2296.302	635.88
2300.195	641.88
2304.085	604.88
2307.971	618.88
2311.854	589.88
2315.734	595.88
2319.609	596.88
2323.482	561.88
2327.351	575.88
2331.216	569.88
2335.078	573.88
2338.937	566.88
2342.792	555.88
2346.643	555.88
2350.492	568.88
2354.336	560.88
2358.178	562.88
2362.015	569.88
2365.85	552.88
2369.681	560.88
2373.508	560.88
2377.333	572.88
2381.153	568.88
2384.971	552.88
2388.785	563.88
2392.595	533.88
2396.402	537.88
2400.206	505.88
2404.007	521.88
2407.804	517.88
2411.597	528.88
2415.388	521.88
2419.174	531.88
2422.958	518.88
2426.738	518.88
2430.515	525.88
2434.289	501.88
2438.059	500.88
2441.825	507.88
2445.589	504.88
2449.349	480.88
2453.106	493.88
2456.859	499.88
2460.61	486.88
2464.356	459.88
2468.1	464.88
2471.84	458.88
2475.577	464.88
2479.311	463.88
2483.041	463.88
2486.768	468.88
2490.492	473.88
2494.213	459.88
2497.93	438.88
2501.644	449.88
2505.355	449.88
2509.062	447.88
2512.766	449.88
2516.467	444.88
2520.165	447.88
2523.859	427.88
2527.551	455.88
2531.239	425.88
2534.923	439.88
2538.605	432.88
2542.283	425.88
2545.958	437.88
2549.63	445.88
2553.299	444.88
2556.964	428.88
2560.626	416.88
2564.285	428.88
2567.941	414.88
2571.594	410.88
2575.243	415.88
2578.89	404.88
2582.533	398.88
2586.173	410.88
2589.809	407.88
2593.443	377.88
2597.073	398.88
2600.701	392.88
2604.325	383.88
2607.946	365.88
2611.564	396.88
2615.178	377.88
2618.79	371.88
2622.398	364.88
2626.004	377.88
2629.606	362.88
2633.205	352.88
2636.801	355.88
2640.394	351.88
2643.983	354.88
2647.57	347.88
2651.153	334.88
2654.734	345.88
2658.311	311.88
2661.885	316.88
2665.456	321.88
2669.025	326.88
2672.589	314.88
2676.151	328.88
2679.71	318.88
2683.266	312.88
2686.819	315.88
2690.368	316.88
2693.915	309.88
2697.458	304.88
2700.999	305.88
2704.536	308.88
2708.071	290.88
2711.602	292.88
2715.13	287.88
2718.656	273.88
2722.178	287.88
2725.697	279.88
2729.214	290.88
2732.727	286.88
2736.237	279.88
2739.744	280.88
2743.249	290.88
2746.75	286.88
2750.248	280.88
2753.743	285.88
2757.236	289.88
2760.725	288.88
2764.211	257.88
2767.695	279.88
2771.175	279.88
2774.652	285.88
2778.127	266.88
2781.598	263.88
2785.067	271.88
2788.532	258.88
2791.995	268.88
2795.455	261.88
2798.911	287.88
2802.365	263.88
2805.816	270.88
2809.264	286.88
2812.709	265.88
2816.151	278.88
2819.59	268.88
2823.026	278.88
2826.46	272.88
2829.89	286.88
2833.318	259.88
2836.742	287.88
2840.164	283.88
2843.583	288.88
2846.999	296.88
2850.412	287.88
2853.822	288.88
2857.229	307.88
2860.634	300.88
2864.035	285.88
2867.434	313.88
2870.83	313.88
2874.223	323.88
2877.613	321.88
2881	326.88
2884.385	347.88
2887.766	338.88
2891.145	346.88
2894.521	345.88
2897.894	319.88
2901.264	346.88
2904.631	348.88
2907.996	351.88
2911.358	348.88
2914.717	353.88
2918.073	349.88
2921.426	347.88
2924.777	342.88
2928.124	358.88
2931.469	382.88
2934.811	377.88
2938.15	412.88
2941.487	399.88
2944.821	412.88
2948.152	396.88
2951.48	400.88
2954.805	370.88
2958.128	388.88
2961.447	371.88
2964.765	384.88
2968.079	362.88
2971.39	379.88
2974.699	374.88
2978.005	378.88
2981.308	381.88
2984.609	369.88
2987.907	391.88
2991.202	393.88
2994.494	377.88
2997.784	382.88
3001.07	389.88
3004.355	371.88
3007.636	387.88
3010.915	382.88
3014.191	377.88
3017.464	382.88
3020.734	378.88
3024.002	393.88
3027.267	375.88
3030.53	391.88
3033.789	386.88
3037.046	396.88
3040.301	389.88
3043.552	401.88
3046.801	409.88
3050.048	423.88
3053.291	450.88
3056.532	431.88
3059.771	433.88
3063.006	467.88
3066.239	466.88
3069.469	481.88
3072.697	484.88
3075.922	485.88
3079.144	504.88
3082.364	547.88
3085.581	525.88
3088.795	558.88
3092.007	550.88
3095.216	570.88
3098.423	562.88
3101.627	565.88
3104.828	598.88
3108.026	585.88
3111.222	622.88
3114.416	636.88
3117.607	643.88
3120.795	654.88
3123.98	671.88
3127.163	671.88
3130.344	697.88
3133.521	691.88
3136.696	720.88
3139.869	737.88
3143.039	725.88
3146.206	771.88
3149.371	763.88
3152.533	767.88
3155.693	755.88
3158.85	773.88
3162.005	793.88
3165.157	785.88
3168.306	786.88
3171.453	803.88
3174.597	772.88
3177.739	775.88
3180.878	778.88
3184.014	797.88
3187.149	791.88
3190.28	793.88
3193.409	804.88
3196.536	799.88
3199.659	805.88
3202.781	812.88
3205.9	796.88
3209.016	815.88
3212.13	800.88
3215.241	796.88
3218.35	795.88
3221.456	799.88
3224.56	782.88
3227.661	783.88
3230.76	763.88
3233.856	762.88
3236.95	769.88
3240.041	749.88
3243.13	753.88
3246.216	753.88
3249.3	742.88
3252.382	742.88
3255.46	722.88
3258.537	689.88
3261.611	740.88
3264.682	724.88
3267.751	719.88
3270.818	717.88
3273.882	723.88
3276.943	723.88
3280.002	721.88
3283.059	692.88
3286.113	706.88
3289.165	687.88
3292.214	677.88
3295.261	691.88
3298.306	648.88
3301.348	656.88
3304.387	621.88
3307.425	634.88
3310.459	634.88
3313.492	626.88
3316.521	617.88
3319.549	627.88
3322.574	613.88
3325.597	598.88
3328.617	597.88
3331.635	590.88
3334.65	579.88
3337.663	581.88
3340.674	575.88
3343.682	580.88
3346.688	593.88
3349.691	580.88
3352.692	585.88
3355.691	590.88
3358.687	583.88
3361.681	583.88
3364.673	569.88
3367.662	558.88
3370.649	567.88
3373.633	529.88
3376.615	551.88
3379.595	524.88
3382.572	522.88
3385.547	518.88
3388.52	505.88
3391.49	495.88
3394.458	511.88
3397.424	504.88
3400.387	481.88
3403.348	495.88
3406.307	487.88
3409.263	476.88
3412.217	479.88
3415.168	475.88
3418.118	476.88
3421.065	454.88
3424.009	467.88
3426.951	460.88
3429.891	453.88
3432.829	435.88
3435.764	441.88
3438.697	420.88
3441.628	438.88
3444.557	400.88
3447.483	388.88
3450.407	402.88
3453.328	374.88
3456.247	373.88
3459.164	353.88
3462.079	363.88
3464.991	345.88
3467.902	336.88
3470.809	334.88
3473.715	325.88
3476.618	306.88
3479.519	303.88
3482.418	283.88
3485.315	283.88
3488.209	274.88
3491.101	270.88
3493.99	266.88
3496.878	261.88
3499.763	253.88
3502.646	246.88
3505.527	231.88
3508.405	228.88
3511.281	215.88
3514.155	215.88
3517.027	203.88
3519.897	185.88
3522.764	196.88
3525.629	171.88
3528.492	177.88
3531.352	178.88
3534.211	159.88
3537.067	150.88
3539.921	150.88
3542.773	149.88
3545.622	125.88
3548.469	126.88
3551.315	123.88
3554.157	123.88
3556.998	110.88
3559.837	118.88
3562.673	112.88
3565.507	93.88
3568.339	89.88
3571.169	88.88
3573.996	89.88
3576.822	65.88
3579.645	71.88
3582.466	70.88
3585.285	80.88
3588.101	78.88
3590.916	64.88
3593.728	70.88
3596.538	65.88
3599.346	63.88
3602.152	46.88
3604.956	52.88
3607.757	48.88
3610.556	34.88
3613.354	47.88
3616.149	45.88
3618.942	44.88
3621.732	42.88
3624.521	28.88
3627.307	23.88
3630.092	25.88
3632.874	38.88
3635.654	29.88
3638.432	14.88
3641.208	22.88
3643.982	19.88
3646.753	28.88
3649.523	-1.12
3652.29	16.88
3655.055	15.88
3657.818	11.88
3660.579	4.88
3663.338	-0.12
3666.095	3.88
3668.849	-28.12
3671.602	11.88
3674.352	-12.12
3677.101	8.88
3679.847	5.88
3682.591	-10.12
3685.333	-19.12
3688.073	-3.12
3690.811	-17.12
3693.547	-17.12
3696.281	-15.12
3699.013	-4.12
3701.742	-14.12
3704.47	-21.12
3707.195	-12.12
3709.919	-7.12
3712.64	-12.12
3715.359	-20.12
3718.076	0.88
3720.792	-16.12
3723.505	-8.12
3726.216	1.88
3728.925	-15.12
3731.632	-18.12
3734.336	-11.12
3737.039	-15.12
3739.74	-14.12
3742.439	-42.12
3745.136	-11.12
3747.83	-15.12
3750.523	-15.12
3753.213	-85.12
3755.902	-22.12
3758.589	-35.12
3761.273	-23.12
3763.956	-12.12
3766.636	-32.12
3769.315	-13.12
3771.991	-17.12
3774.665	-26.12
3777.338	-22.12
3780.008	-33.12
3782.677	-28.12
3785.343	-41.12
3788.007	-45.12
3790.67	-18.12
3793.33	-32.12
3795.989	-29.12
3798.645	-27.12
3801.299	-38.12
3803.952	-35.12
3806.602	-30.12
3809.251	-18.12
3811.897	-28.12
3814.542	-28.12
3817.184	-33.12
3819.825	-28.12
3822.463	-40.12
3825.1	-29.12
3827.735	-27.12
3830.367	-31.12
3832.998	-16.12
3835.627	-32.12
3838.253	-18.12
3840.878	-30.12
3843.501	-10.12
3846.122	-18.12
3848.741	-17.12
3851.358	-16.12
3853.973	-41.12
3856.586	-17.12
3859.197	-31.12
3861.806	-21.12
3864.414	-36.12
3867.019	-28.12
3869.622	-10.12
3872.224	-17.12
3874.823	7.88
3877.421	37.88
3880.016	58.88
3882.61	98.88
3885.202	126.88
3887.792	97.88
3890.38	47.88
3892.966	-1.12
3895.55	-24.12
3898.132	-16.12
3900.713	-23.12
3903.291	-21.12
3905.868	-32.12
3908.442	-28.12
3911.015	-25.12
3913.586	-30.12
3916.155	-30.12
3918.722	-31.12
3921.287	-30.12
3923.85	-41.12
3926.411	-31.12
3928.971	-35.12
3931.528	-28.12
3934.084	-33.12
3936.638	-39.12
3939.19	-25.12
3941.74	-25.12
3944.288	-33.12
3946.834	-29.12
3949.378	-20.12
3951.921	-32.12
3954.462	-27.12
3957	-28.12
3959.537	-17.12
3962.072	-33.12
3964.606	-40.12
3967.137	-30.12
3969.667	-33.12
3972.194	-26.12
3974.72	-30.12
3977.244	-53.12
3979.766	-37.12
3982.286	-36.12
3984.805	-23.12
3987.321	-16.12
3989.836	-19.12
3992.349	-39.12
3994.86	-21.12
3997.369	-31.12
3999.877	-29.12
4002.382	-25.12
4004.886	-20.12
4007.388	-22.12
4009.888	-11.12
4012.386	-20.12
4014.883	-24.12
4017.377	-25.12
4019.87	-25.12
4022.361	-36.12
4024.85	-26.12
4027.338	-20.12
4029.823	-28.12
4032.307	-31.12
4034.789	-26.12
4037.269	-24.12
4039.747	-41.12
4042.224	-17.12
4044.699	-34.12
4047.172	-29.12
4049.643	-21.12
4052.112	-50.12
4054.58	-24.12
4057.046	-39.12
4059.51	-20.12
4061.972	-28.12
4064.432	-42.12
4066.891	-10.12
4069.348	-30.12
4071.803	-24.12
4074.256	-32.12
4076.708	-21.12
4079.158	-25.12
4081.606	-17.12
4084.052	-25.12
4086.497	-23.12
4088.939	-26.12
4091.38	-32.12
4093.819	-17.12
4096.257	2.88
4098.693	-7.12
4101.127	-6.12
4103.559	0.88
4105.989	129.88
4108.418	134.88
4110.845	130.88
4113.27	137.88
4115.694	147.88
4118.115	147.88
4120.535	-26.12
4122.954	-17.12
4125.37	-14.12
4127.785	-23.12
4130.198	-16.12
4132.609	-20.12
4135.019	7.88
4137.427	0.88
4139.833	6.88
4142.237	-6.12
