Data from 2018-3-6_conc=3_n=8_RamanShift_04.txt Node
Date: Tue Mar 06 13:37:49 GMT+02:00 2018
User: LAB3
Spectrometer: QEPB0276
Trigger mode: 0
Integration Time (sec): 3.000000E1
Scans to average: 1
Electric dark correction enabled: true
Nonlinearity correction enabled: false
Boxcar width: 0
XAxis mode: Raman Shifts
Number of Pixels in Spectrum: 1044
>>>>>Begin Spectral Data<<<<<
160.701	118.75
166.742	149.75
172.777	222.75
178.805	431.75
184.826	990.75
190.841	1956.75
196.849	3099.75
202.85	3963.75
208.845	4280.75
214.833	4287.75
220.815	4245.75
226.789	4219.75
232.758	4277.75
238.719	4267.75
244.674	4242.75
250.623	4214.75
256.565	4175.75
262.5	4151.75
268.429	4119.75
274.351	4090.75
280.267	4091.75
286.176	4113.75
292.079	4092.75
297.975	4122.75
303.865	4143.75
309.748	4115.75
315.625	4090.75
321.495	4122.75
327.359	4136.75
333.217	4154.75
339.068	4178.75
344.912	4212.75
350.751	4213.75
356.583	4192.75
362.408	4232.75
368.227	4256.75
374.04	4293.75
379.847	4301.75
385.647	4303.75
391.44	4306.75
397.228	4390.75
403.009	4428.75
408.784	4384.75
414.553	4444.75
420.315	4436.75
426.071	4422.75
431.821	4453.75
437.565	4425.75
443.302	4437.75
449.033	4408.75
454.758	4373.75
460.477	4345.75
466.189	4287.75
471.896	4260.75
477.596	4251.75
483.29	4202.75
488.978	4201.75
494.66	4163.75
500.335	4065.75
506.005	3871.75
511.668	3693.75
517.325	3511.75
522.977	3367.75
528.622	3269.75
534.261	3176.75
539.894	3106.75
545.521	3075.75
551.141	3021.75
556.756	2995.75
562.365	2981.75
567.968	2930.75
573.565	2924.75
579.155	2914.75
584.74	2894.75
590.319	2893.75
595.892	2882.75
601.459	2895.75
607.02	2872.75
612.575	2855.75
618.124	2826.75
623.667	2760.75
629.204	2730.75
634.735	2707.75
640.261	2671.75
645.781	2639.75
651.294	2621.75
656.802	2627.75
662.304	2639.75
667.8	2631.75
673.29	2607.75
678.775	2605.75
684.254	2604.75
689.726	2555.75
695.193	2580.75
700.655	2555.75
706.11	2550.75
711.56	2534.75
717.004	2524.75
722.442	2485.75
727.874	2470.75
733.301	2482.75
738.722	2466.75
744.137	2451.75
749.547	2475.75
754.951	2474.75
760.349	2456.75
765.741	2498.75
771.128	2489.75
776.509	2519.75
781.885	2571.75
787.254	2583.75
792.618	2600.75
797.977	2598.75
803.33	2584.75
808.677	2550.75
814.019	2545.75
819.355	2504.75
824.686	2463.75
830.011	2449.75
835.33	2479.75
840.644	2461.75
845.952	2395.75
851.255	2420.75
856.552	2399.75
861.844	2376.75
867.13	2344.75
872.41	2313.75
877.686	2293.75
882.955	2260.75
888.219	2242.75
893.478	2222.75
898.731	2199.75
903.979	2158.75
909.221	2156.75
914.458	2144.75
919.69	2146.75
924.916	2136.75
930.136	2139.75
935.351	2114.75
940.561	2143.75
945.766	2134.75
950.965	2126.75
956.158	2103.75
961.347	2066.75
966.529	2047.75
971.707	2050.75
976.879	2009.75
982.046	1986.75
987.208	1981.75
992.364	1983.75
997.515	1986.75
1002.66	2026.75
1007.801	2002.75
1012.936	2021.75
1018.066	2007.75
1023.19	2051.75
1028.309	2054.75
1033.423	2036.75
1038.532	2043.75
1043.636	2038.75
1048.734	2033.75
1053.827	2009.75
1058.915	1989.75
1063.998	1993.75
1069.075	1962.75
1074.147	1989.75
1079.214	1969.75
1084.276	1992.75
1089.333	1975.75
1094.385	1976.75
1099.431	1954.75
1104.472	1987.75
1109.509	1944.75
1114.54	1920.75
1119.565	1873.75
1124.586	1878.75
1129.602	1855.75
1134.613	1814.75
1139.618	1831.75
1144.619	1814.75
1149.614	1833.75
1154.604	1818.75
1159.589	1841.75
1164.57	1863.75
1169.545	1868.75
1174.515	1843.75
1179.48	1830.75
1184.44	1833.75
1189.395	1817.75
1194.345	1801.75
1199.29	1802.75
1204.23	1778.75
1209.165	1764.75
1214.095	1797.75
1219.021	1801.75
1223.941	1786.75
1228.856	1820.75
1233.766	1817.75
1238.672	1832.75
1243.572	1817.75
1248.467	1800.75
1253.358	1771.75
1258.244	1728.75
1263.124	1719.75
1268	1699.75
1272.871	1663.75
1277.737	1638.75
1282.599	1628.75
1287.455	1634.75
1292.306	1651.75
1297.153	1647.75
1301.995	1649.75
1306.832	1660.75
1311.664	1670.75
1316.491	1665.75
1321.314	1665.75
1326.132	1647.75
1330.945	1634.75
1335.753	1601.75
1340.556	1585.75
1345.354	1526.75
1350.148	1527.75
1354.937	1511.75
1359.722	1491.75
1364.501	1482.75
1369.276	1481.75
1374.046	1485.75
1378.811	1468.75
1383.572	1476.75
1388.327	1473.75
1393.079	1460.75
1397.825	1428.75
1402.567	1424.75
1407.304	1409.75
1412.036	1422.75
1416.764	1433.75
1421.487	1406.75
1426.205	1400.75
1430.919	1399.75
1435.628	1407.75
1440.333	1406.75
1445.032	1423.75
1449.727	1437.75
1454.418	1459.75
1459.104	1435.75
1463.785	1418.75
1468.462	1414.75
1473.134	1378.75
1477.802	1351.75
1482.465	1318.75
1487.123	1319.75
1491.777	1297.75
1496.426	1295.75
1501.071	1315.75
1505.711	1308.75
1510.347	1316.75
1514.978	1331.75
1519.604	1316.75
1524.226	1325.75
1528.844	1299.75
1533.457	1316.75
1538.065	1306.75
1542.669	1296.75
1547.269	1290.75
1551.864	1286.75
1556.454	1274.75
1561.041	1270.75
1565.622	1268.75
1570.199	1299.75
1574.772	1297.75
1579.34	1330.75
1583.904	1330.75
1588.464	1341.75
1593.019	1339.75
1597.569	1322.75
1602.115	1323.75
1606.657	1311.75
1611.195	1320.75
1615.728	1331.75
1620.256	1300.75
1624.78	1295.75
1629.3	1290.75
1633.816	1319.75
1638.327	1311.75
1642.834	1330.75
1647.336	1319.75
1651.834	1333.75
1656.328	1323.75
1660.817	1325.75
1665.302	1316.75
1669.783	1287.75
1674.259	1269.75
1678.732	1258.75
1683.199	1220.75
1687.663	1173.75
1692.122	1158.75
1696.577	1132.75
1701.028	1121.75
1705.474	1078.75
1709.917	1059.75
1714.355	1074.75
1718.788	1038.75
1723.218	1032.75
1727.643	1018.75
1732.064	1008.75
1736.481	994.75
1740.893	978.75
1745.301	955.75
1749.705	908.75
1754.105	915.75
1758.501	888.75
1762.893	891.75
1767.28	859.75
1771.663	854.75
1776.042	845.75
1780.417	835.75
1784.787	846.75
1789.154	849.75
1793.516	846.75
1797.874	850.75
1802.228	837.75
1806.578	828.75
1810.924	833.75
1815.266	712.75
1819.603	826.75
1823.937	805.75
1828.266	813.75
1832.591	782.75
1836.913	787.75
1841.23	778.75
1845.543	774.75
1849.852	773.75
1854.156	771.75
1858.457	773.75
1862.754	769.75
1867.047	786.75
1871.335	796.75
1875.62	780.75
1879.9	781.75
1884.177	775.75
1888.449	781.75
1892.718	772.75
1896.982	777.75
1901.243	750.75
1905.499	734.75
1909.752	737.75
1914	723.75
1918.245	751.75
1922.485	761.75
1926.722	748.75
1930.954	749.75
1935.183	756.75
1939.408	751.75
1943.628	752.75
1947.845	747.75
1952.058	741.75
1956.267	719.75
1960.472	718.75
1964.673	729.75
1968.87	704.75
1973.063	702.75
1977.252	674.75
1981.438	673.75
1985.619	660.75
1989.797	648.75
1993.971	645.75
1998.14	670.75
2002.306	661.75
2006.469	668.75
2010.627	636.75
2014.781	651.75
2018.932	647.75
2023.078	647.75
2027.221	640.75
2031.36	624.75
2035.495	629.75
2039.627	612.75
2043.754	607.75
2047.878	595.75
2051.998	592.75
2056.114	601.75
2060.226	592.75
2064.334	610.75
2068.439	610.75
2072.54	609.75
2076.637	602.75
2080.73	613.75
2084.82	608.75
2088.906	614.75
2092.988	600.75
2097.066	596.75
2101.14	609.75
2105.211	601.75
2109.278	589.75
2113.342	570.75
2117.401	556.75
2121.457	543.75
2125.509	542.75
2129.558	560.75
2133.602	556.75
2137.643	548.75
2141.681	547.75
2145.714	554.75
2149.744	547.75
2153.77	543.75
2157.793	534.75
2161.812	496.75
2165.827	507.75
2169.838	515.75
2173.846	503.75
2177.851	500.75
2181.851	499.75
2185.848	485.75
2189.841	479.75
2193.831	472.75
2197.817	462.75
2201.799	477.75
2205.778	446.75
2209.753	446.75
2213.725	451.75
2217.693	452.75
2221.657	439.75
2225.618	447.75
2229.575	441.75
2233.529	443.75
2237.479	446.75
2241.425	440.75
2245.368	421.75
2249.307	433.75
2253.243	410.75
2257.175	412.75
2261.104	399.75
2265.029	406.75
2268.95	402.75
2272.868	382.75
2276.783	374.75
2280.694	386.75
2284.601	379.75
2288.505	381.75
2292.405	374.75
2296.302	350.75
2300.195	359.75
2304.085	340.75
2307.971	353.75
2311.854	324.75
2315.734	340.75
2319.609	338.75
2323.482	310.75
2327.351	321.75
2331.216	335.75
2335.078	330.75
2338.937	324.75
2342.792	312.75
2346.643	316.75
2350.492	326.75
2354.336	322.75
2358.178	317.75
2362.015	316.75
2365.85	318.75
2369.681	311.75
2373.508	319.75
2377.333	327.75
2381.153	315.75
2384.971	301.75
2388.785	320.75
2392.595	300.75
2396.402	296.75
2400.206	277.75
2404.007	288.75
2407.804	302.75
2411.597	294.75
2415.388	298.75
2419.174	292.75
2422.958	299.75
2426.738	289.75
2430.515	300.75
2434.289	282.75
2438.059	281.75
2441.825	276.75
2445.589	287.75
2449.349	263.75
2453.106	283.75
2456.859	268.75
2460.61	277.75
2464.356	262.75
2468.1	259.75
2471.84	256.75
2475.577	251.75
2479.311	256.75
2483.041	259.75
2486.768	272.75
2490.492	265.75
2494.213	253.75
2497.93	243.75
2501.644	244.75
2505.355	252.75
2509.062	248.75
2512.766	250.75
2516.467	238.75
2520.165	238.75
2523.859	238.75
2527.551	268.75
2531.239	237.75
2534.923	234.75
2538.605	236.75
2542.283	238.75
2545.958	243.75
2549.63	248.75
2553.299	240.75
2556.964	221.75
2560.626	231.75
2564.285	240.75
2567.941	219.75
2571.594	220.75
2575.243	226.75
2578.89	213.75
2582.533	220.75
2586.173	217.75
2589.809	222.75
2593.443	196.75
2597.073	208.75
2600.701	215.75
2604.325	206.75
2607.946	196.75
2611.564	210.75
2615.178	208.75
2618.79	212.75
2622.398	194.75
2626.004	210.75
2629.606	197.75
2633.205	187.75
2636.801	200.75
2640.394	198.75
2643.983	190.75
2647.57	185.75
2651.153	180.75
2654.734	192.75
2658.311	155.75
2661.885	173.75
2665.456	172.75
2669.025	174.75
2672.589	169.75
2676.151	190.75
2679.71	182.75
2683.266	169.75
2686.819	159.75
2690.368	163.75
2693.915	176.75
2697.458	164.75
2700.999	165.75
2704.536	167.75
2708.071	157.75
2711.602	159.75
2715.13	153.75
2718.656	133.75
2722.178	151.75
2725.697	138.75
2729.214	141.75
2732.727	148.75
2736.237	131.75
2739.744	141.75
2743.249	139.75
2746.75	147.75
2750.248	133.75
2753.743	143.75
2757.236	150.75
2760.725	148.75
2764.211	109.75
2767.695	145.75
2771.175	138.75
2774.652	148.75
2778.127	137.75
2781.598	132.75
2785.067	146.75
2788.532	128.75
2791.995	140.75
2795.455	134.75
2798.911	142.75
2802.365	141.75
2805.816	139.75
2809.264	149.75
2812.709	133.75
2816.151	142.75
2819.59	135.75
2823.026	142.75
2826.46	135.75
2829.89	146.75
2833.318	118.75
2836.742	135.75
2840.164	135.75
2843.583	145.75
2846.999	146.75
2850.412	144.75
2853.822	141.75
2857.229	155.75
2860.634	149.75
2864.035	132.75
2867.434	163.75
2870.83	162.75
2874.223	148.75
2877.613	155.75
2881	153.75
2884.385	151.75
2887.766	154.75
2891.145	163.75
2894.521	164.75
2897.894	154.75
2901.264	161.75
2904.631	162.75
2907.996	168.75
2911.358	171.75
2914.717	172.75
2918.073	159.75
2921.426	162.75
2924.777	150.75
2928.124	165.75
2931.469	186.75
2934.811	164.75
2938.15	189.75
2941.487	184.75
2944.821	194.75
2948.152	182.75
2951.48	190.75
2954.805	182.75
2958.128	203.75
2961.447	178.75
2964.765	194.75
2968.079	186.75
2971.39	187.75
2974.699	191.75
2978.005	195.75
2981.308	195.75
2984.609	187.75
2987.907	192.75
2991.202	204.75
2994.494	192.75
2997.784	204.75
3001.07	205.75
3004.355	197.75
3007.636	206.75
3010.915	211.75
3014.191	209.75
3017.464	210.75
3020.734	213.75
3024.002	215.75
3027.267	211.75
3030.53	222.75
3033.789	212.75
3037.046	225.75
3040.301	212.75
3043.552	237.75
3046.801	235.75
3050.048	249.75
3053.291	264.75
3056.532	248.75
3059.771	247.75
3063.006	265.75
3066.239	263.75
3069.469	282.75
3072.697	283.75
3075.922	278.75
3079.144	291.75
3082.364	318.75
3085.581	312.75
3088.795	325.75
3092.007	319.75
3095.216	334.75
3098.423	332.75
3101.627	321.75
3104.828	344.75
3108.026	342.75
3111.222	369.75
3114.416	379.75
3117.607	371.75
3120.795	386.75
3123.98	391.75
3127.163	390.75
3130.344	406.75
3133.521	403.75
3136.696	426.75
3139.869	440.75
3143.039	407.75
3146.206	455.75
3149.371	450.75
3152.533	457.75
3155.693	436.75
3158.85	451.75
3162.005	461.75
3165.157	453.75
3168.306	466.75
3171.453	467.75
3174.597	450.75
3177.739	449.75
3180.878	470.75
3184.014	472.75
3187.149	469.75
3190.28	474.75
3193.409	478.75
3196.536	480.75
3199.659	486.75
3202.781	485.75
3205.9	467.75
3209.016	472.75
3212.13	472.75
3215.241	473.75
3218.35	468.75
3221.456	457.75
3224.56	454.75
3227.661	457.75
3230.76	456.75
3233.856	437.75
3236.95	454.75
3240.041	440.75
3243.13	445.75
3246.216	442.75
3249.3	444.75
3252.382	431.75
3255.46	430.75
3258.537	373.75
3261.611	425.75
3264.682	433.75
3267.751	425.75
3270.818	418.75
3273.882	429.75
3276.943	420.75
3280.002	427.75
3283.059	412.75
3286.113	414.75
3289.165	399.75
3292.214	385.75
3295.261	400.75
3298.306	379.75
3301.348	392.75
3304.387	372.75
3307.425	380.75
3310.459	370.75
3313.492	377.75
3316.521	366.75
3319.549	370.75
3322.574	370.75
3325.597	354.75
3328.617	352.75
3331.635	353.75
3334.65	344.75
3337.663	354.75
3340.674	342.75
3343.682	351.75
3346.688	357.75
3349.691	352.75
3352.692	350.75
3355.691	339.75
3358.687	338.75
3361.681	345.75
3364.673	329.75
3367.662	343.75
3370.649	337.75
3373.633	316.75
3376.615	326.75
3379.595	303.75
3382.572	313.75
3385.547	299.75
3388.52	301.75
3391.49	305.75
3394.458	297.75
3397.424	301.75
3400.387	286.75
3403.348	289.75
3406.307	287.75
3409.263	288.75
3412.217	289.75
3415.168	281.75
3418.118	286.75
3421.065	267.75
3424.009	281.75
3426.951	264.75
3429.891	259.75
3432.829	261.75
3435.764	257.75
3438.697	253.75
3441.628	257.75
3444.557	227.75
3447.483	225.75
3450.407	236.75
3453.328	215.75
3456.247	211.75
3459.164	201.75
3462.079	220.75
3464.991	203.75
3467.902	191.75
3470.809	191.75
3473.715	199.75
3476.618	178.75
3479.519	176.75
3482.418	156.75
3485.315	153.75
3488.209	155.75
3491.101	160.75
3493.99	137.75
3496.878	137.75
3499.763	144.75
3502.646	135.75
3505.527	125.75
3508.405	126.75
3511.281	110.75
3514.155	117.75
3517.027	115.75
3519.897	103.75
3522.764	106.75
3525.629	87.75
3528.492	100.75
3531.352	99.75
3534.211	91.75
3537.067	85.75
3539.921	77.75
3542.773	83.75
3545.622	67.75
3548.469	61.75
3551.315	61.75
3554.157	63.75
3556.998	56.75
3559.837	58.75
3562.673	64.75
3565.507	41.75
3568.339	38.75
3571.169	41.75
3573.996	48.75
3576.822	24.75
3579.645	25.75
3582.466	31.75
3585.285	39.75
3588.101	34.75
3590.916	32.75
3593.728	31.75
3596.538	25.75
3599.346	26.75
3602.152	14.75
3604.956	17.75
3607.757	20.75
3610.556	8.75
3613.354	25.75
3616.149	13.75
3618.942	19.75
3621.732	17.75
3624.521	1.75
3627.307	-3.25
3630.092	-1.25
3632.874	19.75
3635.654	7.75
3638.432	-0.25
3641.208	-0.25
3643.982	-0.25
3646.753	12.75
3649.523	-24.25
3652.29	-2.25
3655.055	2.75
3657.818	-4.25
3660.579	-3.25
3663.338	-18.25
3666.095	-12.25
3668.849	-32.25
3671.602	-0.25
3674.352	-20.25
3677.101	-2.25
3679.847	-2.25
3682.591	-17.25
3685.333	-19.25
3688.073	-16.25
3690.811	-21.25
3693.547	-26.25
3696.281	-27.25
3699.013	-17.25
3701.742	-19.25
3704.47	-29.25
3707.195	-17.25
3709.919	-14.25
3712.64	-22.25
3715.359	-30.25
3718.076	-8.25
3720.792	-22.25
3723.505	-16.25
3726.216	-9.25
3728.925	-23.25
3731.632	-26.25
3734.336	-23.25
3737.039	-22.25
3739.74	-23.25
3742.439	-43.25
3745.136	-19.25
3747.83	-27.25
3750.523	-21.25
3753.213	-78.25
3755.902	-25.25
3758.589	-42.25
3761.273	-27.25
3763.956	-19.25
3766.636	-36.25
3769.315	-19.25
3771.991	-29.25
3774.665	-32.25
3777.338	-25.25
3780.008	-33.25
3782.677	-27.25
3785.343	-38.25
3788.007	-44.25
3790.67	-17.25
3793.33	-40.25
3795.989	-33.25
3798.645	-23.25
3801.299	-34.25
3803.952	-36.25
3806.602	-30.25
3809.251	-21.25
3811.897	-27.25
3814.542	-30.25
3817.184	-31.25
3819.825	-30.25
3822.463	-41.25
3825.1	-29.25
3827.735	-23.25
3830.367	-36.25
3832.998	-11.25
3835.627	-29.25
3838.253	-21.25
3840.878	-32.25
3843.501	-13.25
3846.122	-22.25
3848.741	-17.25
3851.358	-23.25
3853.973	-37.25
3856.586	-18.25
3859.197	-37.25
3861.806	-24.25
3864.414	-40.25
3867.019	-28.25
3869.622	-13.25
3872.224	-19.25
3874.823	-8.25
3877.421	14.75
3880.016	38.75
3882.61	83.75
3885.202	99.75
3887.792	77.75
3890.38	39.75
3892.966	-6.25
3895.55	-26.25
3898.132	-17.25
3900.713	-18.25
3903.291	-27.25
3905.868	-38.25
3908.442	-26.25
3911.015	-28.25
3913.586	-31.25
3916.155	-36.25
3918.722	-35.25
3921.287	-32.25
3923.85	-38.25
3926.411	-34.25
3928.971	-36.25
3931.528	-22.25
3934.084	-31.25
3936.638	-40.25
3939.19	-31.25
3941.74	-31.25
3944.288	-31.25
3946.834	-32.25
3949.378	-24.25
3951.921	-34.25
3954.462	-30.25
3957	-24.25
3959.537	-20.25
3962.072	-28.25
3964.606	-42.25
3967.137	-31.25
3969.667	-35.25
3972.194	-23.25
3974.72	-36.25
3977.244	-48.25
3979.766	-44.25
3982.286	-36.25
3984.805	-28.25
3987.321	-22.25
3989.836	-24.25
3992.349	-35.25
3994.86	-27.25
3997.369	-34.25
3999.877	-33.25
4002.382	-29.25
4004.886	-26.25
4007.388	-26.25
4009.888	-21.25
4012.386	-25.25
4014.883	-25.25
4017.377	-30.25
4019.87	-27.25
4022.361	-38.25
4024.85	-32.25
4027.338	-29.25
4029.823	-33.25
4032.307	-29.25
4034.789	-32.25
4037.269	-26.25
4039.747	-45.25
4042.224	-25.25
4044.699	-37.25
4047.172	-34.25
4049.643	-24.25
4052.112	-53.25
4054.58	-28.25
4057.046	-44.25
4059.51	-26.25
4061.972	-32.25
4064.432	-48.25
4066.891	-23.25
4069.348	-30.25
4071.803	-29.25
4074.256	-33.25
4076.708	-27.25
4079.158	-32.25
4081.606	-14.25
4084.052	-29.25
4086.497	-26.25
4088.939	-28.25
4091.38	-33.25
4093.819	-25.25
4096.257	-0.25
4098.693	-6.25
4101.127	-8.25
4103.559	1.75
4105.989	114.75
4108.418	112.75
4110.845	104.75
4113.27	103.75
4115.694	115.75
4118.115	108.75
4120.535	-29.25
4122.954	-24.25
4125.37	-17.25
4127.785	-30.25
4130.198	-24.25
4132.609	-26.25
4135.019	8.75
4137.427	0.75
4139.833	5.75
4142.237	-2.25
