Data from 2018-3-6_conc=0_n=5_RamanShift_02.txt Node
Date: Tue Mar 06 12:21:19 GMT+02:00 2018
User: LAB3
Spectrometer: QEPB0276
Trigger mode: 0
Integration Time (sec): 3.000000E1
Scans to average: 1
Electric dark correction enabled: true
Nonlinearity correction enabled: false
Boxcar width: 0
XAxis mode: Raman Shifts
Number of Pixels in Spectrum: 1044
>>>>>Begin Spectral Data<<<<<
160.701	87.5
166.742	122.5
172.777	215.5
178.805	450.5
184.826	1085.5
190.841	2242.5
196.849	3584.5
202.85	4657.5
208.845	5076.5
214.833	5129.5
220.815	5140.5
226.789	5189.5
232.758	5288.5
238.719	5334.5
244.674	5335.5
250.623	5364.5
256.565	5316.5
262.5	5298.5
268.429	5332.5
274.351	5325.5
280.267	5367.5
286.176	5382.5
292.079	5404.5
297.975	5443.5
303.865	5471.5
309.748	5473.5
315.625	5509.5
321.495	5527.5
327.359	5530.5
333.217	5533.5
339.068	5611.5
344.912	5601.5
350.751	5594.5
356.583	5636.5
362.408	5684.5
368.227	5624.5
374.04	5705.5
379.847	5707.5
385.647	5749.5
391.44	5753.5
397.228	5793.5
403.009	5810.5
408.784	5842.5
414.553	5862.5
420.315	5891.5
426.071	5900.5
431.821	5924.5
437.565	5896.5
443.302	5905.5
449.033	5860.5
454.758	5819.5
460.477	5814.5
466.189	5746.5
471.896	5724.5
477.596	5673.5
483.29	5634.5
488.978	5647.5
494.66	5638.5
500.335	5499.5
506.005	5337.5
511.668	5110.5
517.325	4917.5
522.977	4740.5
528.622	4648.5
534.261	4538.5
539.894	4469.5
545.521	4463.5
551.141	4390.5
556.756	4352.5
562.365	4337.5
567.968	4312.5
573.565	4287.5
579.155	4266.5
584.74	4227.5
590.319	4239.5
595.892	4244.5
601.459	4208.5
607.02	4202.5
612.575	4182.5
618.124	4154.5
623.667	4086.5
629.204	4063.5
634.735	3997.5
640.261	4013.5
645.781	3935.5
651.294	3919.5
656.802	3936.5
662.304	3902.5
667.8	3923.5
673.29	3888.5
678.775	3875.5
684.254	3854.5
689.726	3831.5
695.193	3830.5
700.655	3812.5
706.11	3822.5
711.56	3776.5
717.004	3778.5
722.442	3753.5
727.874	3729.5
733.301	3723.5
738.722	3709.5
744.137	3696.5
749.547	3678.5
754.951	3727.5
760.349	3703.5
765.741	3741.5
771.128	3732.5
776.509	3801.5
781.885	3831.5
787.254	3873.5
792.618	3877.5
797.977	3835.5
803.33	3850.5
808.677	3789.5
814.019	3791.5
819.355	3751.5
824.686	3707.5
830.011	3679.5
835.33	3701.5
840.644	3692.5
845.952	3642.5
851.255	3651.5
856.552	3616.5
861.844	3619.5
867.13	3579.5
872.41	3592.5
877.686	3601.5
882.955	3643.5
888.219	3614.5
893.478	3496.5
898.731	3424.5
903.979	3363.5
909.221	3308.5
914.458	3288.5
919.69	3323.5
924.916	3305.5
930.136	3318.5
935.351	3313.5
940.561	3320.5
945.766	3301.5
950.965	3313.5
956.158	3292.5
961.347	3268.5
966.529	3210.5
971.707	3179.5
976.879	3127.5
982.046	3092.5
987.208	3081.5
992.364	3089.5
997.515	3111.5
1002.66	3129.5
1007.801	3157.5
1012.936	3188.5
1018.066	3200.5
1023.19	3240.5
1028.309	3246.5
1033.423	3246.5
1038.532	3225.5
1043.636	3225.5
1048.734	3222.5
1053.827	3180.5
1058.915	3150.5
1063.998	3114.5
1069.075	3110.5
1074.147	3105.5
1079.214	3107.5
1084.276	3141.5
1089.333	3157.5
1094.385	3153.5
1099.431	3164.5
1104.472	3132.5
1109.509	3070.5
1114.54	3033.5
1119.565	3001.5
1124.586	2961.5
1129.602	2918.5
1134.613	2915.5
1139.618	2889.5
1144.619	2895.5
1149.614	2897.5
1154.604	2907.5
1159.589	2900.5
1164.57	2923.5
1169.545	2923.5
1174.515	2924.5
1179.48	2897.5
1184.44	2882.5
1189.395	2895.5
1194.345	2858.5
1199.29	2823.5
1204.23	2817.5
1209.165	2806.5
1214.095	2850.5
1219.021	2864.5
1223.941	2862.5
1228.856	2876.5
1233.766	2898.5
1238.672	2894.5
1243.572	2908.5
1248.467	2866.5
1253.358	2844.5
1258.244	2805.5
1263.124	2769.5
1268	2738.5
1272.871	2680.5
1277.737	2667.5
1282.599	2654.5
1287.455	2672.5
1292.306	2664.5
1297.153	2658.5
1301.995	2685.5
1306.832	2694.5
1311.664	2695.5
1316.491	2678.5
1321.314	2681.5
1326.132	2666.5
1330.945	2603.5
1335.753	2588.5
1340.556	2523.5
1345.354	2496.5
1350.148	2467.5
1354.937	2443.5
1359.722	2413.5
1364.501	2416.5
1369.276	2370.5
1374.046	2392.5
1378.811	2375.5
1383.572	2366.5
1388.327	2388.5
1393.079	2344.5
1397.825	2338.5
1402.567	2322.5
1407.304	2306.5
1412.036	2302.5
1416.764	2296.5
1421.487	2266.5
1426.205	2284.5
1430.919	2307.5
1435.628	2343.5
1440.333	2342.5
1445.032	2352.5
1449.727	2401.5
1454.418	2407.5
1459.104	2417.5
1463.785	2389.5
1468.462	2352.5
1473.134	2272.5
1477.802	2233.5
1482.465	2209.5
1487.123	2219.5
1491.777	2176.5
1496.426	2158.5
1501.071	2184.5
1505.711	2195.5
1510.347	2194.5
1514.978	2201.5
1519.604	2195.5
1524.226	2217.5
1528.844	2157.5
1533.457	2165.5
1538.065	2145.5
1542.669	2133.5
1547.269	2098.5
1551.864	2094.5
1556.454	2067.5
1561.041	2072.5
1565.622	2080.5
1570.199	2082.5
1574.772	2101.5
1579.34	2119.5
1583.904	2128.5
1588.464	2130.5
1593.019	2152.5
1597.569	2101.5
1602.115	2100.5
1606.657	2081.5
1611.195	2083.5
1615.728	2071.5
1620.256	2044.5
1624.78	2025.5
1629.3	2025.5
1633.816	2017.5
1638.327	2034.5
1642.834	2069.5
1647.336	2059.5
1651.834	2082.5
1656.328	2081.5
1660.817	2093.5
1665.302	2058.5
1669.783	2062.5
1674.259	2032.5
1678.732	1988.5
1683.199	1978.5
1687.663	1908.5
1692.122	1884.5
1696.577	1845.5
1701.028	1813.5
1705.474	1774.5
1709.917	1772.5
1714.355	1750.5
1718.788	1738.5
1723.218	1718.5
1727.643	1723.5
1732.064	1701.5
1736.481	1671.5
1740.893	1657.5
1745.301	1614.5
1749.705	1572.5
1754.105	1567.5
1758.501	1524.5
1762.893	1521.5
1767.28	1466.5
1771.663	1476.5
1776.042	1463.5
1780.417	1455.5
1784.787	1452.5
1789.154	1480.5
1793.516	1466.5
1797.874	1456.5
1802.228	1452.5
1806.578	1436.5
1810.924	1449.5
1815.266	1346.5
1819.603	1400.5
1823.937	1386.5
1828.266	1367.5
1832.591	1358.5
1836.913	1351.5
1841.23	1341.5
1845.543	1336.5
1849.852	1342.5
1854.156	1342.5
1858.457	1349.5
1862.754	1346.5
1867.047	1349.5
1871.335	1373.5
1875.62	1376.5
1879.9	1356.5
1884.177	1346.5
1888.449	1353.5
1892.718	1344.5
1896.982	1344.5
1901.243	1312.5
1905.499	1315.5
1909.752	1307.5
1914	1299.5
1918.245	1321.5
1922.485	1308.5
1926.722	1320.5
1930.954	1319.5
1935.183	1335.5
1939.408	1332.5
1943.628	1338.5
1947.845	1314.5
1952.058	1292.5
1956.267	1265.5
1960.472	1272.5
1964.673	1234.5
1968.87	1201.5
1973.063	1177.5
1977.252	1164.5
1981.438	1164.5
1985.619	1130.5
1989.797	1105.5
1993.971	1116.5
1998.14	1122.5
2002.306	1120.5
2006.469	1118.5
2010.627	1099.5
2014.781	1097.5
2018.932	1102.5
2023.078	1114.5
2027.221	1087.5
2031.36	1075.5
2035.495	1054.5
2039.627	1055.5
2043.754	1035.5
2047.878	1041.5
2051.998	1032.5
2056.114	1020.5
2060.226	1023.5
2064.334	1020.5
2068.439	1036.5
2072.54	1053.5
2076.637	1030.5
2080.73	1047.5
2084.82	1044.5
2088.906	1044.5
2092.988	1037.5
2097.066	1036.5
2101.14	1033.5
2105.211	1012.5
2109.278	1012.5
2113.342	992.5
2117.401	979.5
2121.457	962.5
2125.509	965.5
2129.558	950.5
2133.602	937.5
2137.643	936.5
2141.681	931.5
2145.714	926.5
2149.744	921.5
2153.77	916.5
2157.793	898.5
2161.812	872.5
2165.827	861.5
2169.838	882.5
2173.846	853.5
2177.851	829.5
2181.851	835.5
2185.848	817.5
2189.841	807.5
2193.831	812.5
2197.817	800.5
2201.799	803.5
2205.778	792.5
2209.753	788.5
2213.725	771.5
2217.693	791.5
2221.657	773.5
2225.618	783.5
2229.575	773.5
2233.529	775.5
2237.479	775.5
2241.425	752.5
2245.368	737.5
2249.307	733.5
2253.243	717.5
2257.175	703.5
2261.104	699.5
2265.029	695.5
2268.95	692.5
2272.868	681.5
2276.783	660.5
2280.694	669.5
2284.601	666.5
2288.505	655.5
2292.405	649.5
2296.302	622.5
2300.195	625.5
2304.085	604.5
2307.971	622.5
2311.854	598.5
2315.734	594.5
2319.609	605.5
2323.482	571.5
2327.351	566.5
2331.216	576.5
2335.078	573.5
2338.937	577.5
2342.792	553.5
2346.643	551.5
2350.492	567.5
2354.336	553.5
2358.178	560.5
2362.015	565.5
2365.85	558.5
2369.681	561.5
2373.508	555.5
2377.333	580.5
2381.153	559.5
2384.971	567.5
2388.785	559.5
2392.595	548.5
2396.402	542.5
2400.206	526.5
2404.007	535.5
2407.804	537.5
2411.597	543.5
2415.388	529.5
2419.174	526.5
2422.958	527.5
2426.738	523.5
2430.515	526.5
2434.289	514.5
2438.059	519.5
2441.825	512.5
2445.589	515.5
2449.349	496.5
2453.106	503.5
2456.859	501.5
2460.61	499.5
2464.356	484.5
2468.1	470.5
2471.84	467.5
2475.577	467.5
2479.311	469.5
2483.041	466.5
2486.768	490.5
2490.492	484.5
2494.213	471.5
2497.93	462.5
2501.644	467.5
2505.355	470.5
2509.062	480.5
2512.766	476.5
2516.467	460.5
2520.165	456.5
2523.859	445.5
2527.551	472.5
2531.239	433.5
2534.923	457.5
2538.605	438.5
2542.283	448.5
2545.958	448.5
2549.63	446.5
2553.299	454.5
2556.964	433.5
2560.626	431.5
2564.285	432.5
2567.941	406.5
2571.594	415.5
2575.243	428.5
2578.89	409.5
2582.533	416.5
2586.173	408.5
2589.809	417.5
2593.443	383.5
2597.073	396.5
2600.701	393.5
2604.325	395.5
2607.946	381.5
2611.564	398.5
2615.178	390.5
2618.79	377.5
2622.398	365.5
2626.004	375.5
2629.606	366.5
2633.205	356.5
2636.801	374.5
2640.394	353.5
2643.983	348.5
2647.57	337.5
2651.153	335.5
2654.734	348.5
2658.311	316.5
2661.885	320.5
2665.456	329.5
2669.025	333.5
2672.589	317.5
2676.151	329.5
2679.71	331.5
2683.266	313.5
2686.819	303.5
2690.368	309.5
2693.915	310.5
2697.458	299.5
2700.999	310.5
2704.536	300.5
2708.071	291.5
2711.602	287.5
2715.13	290.5
2718.656	266.5
2722.178	278.5
2725.697	265.5
2729.214	280.5
2732.727	274.5
2736.237	269.5
2739.744	269.5
2743.249	271.5
2746.75	275.5
2750.248	270.5
2753.743	276.5
2757.236	270.5
2760.725	273.5
2764.211	238.5
2767.695	268.5
2771.175	256.5
2774.652	259.5
2778.127	258.5
2781.598	253.5
2785.067	257.5
2788.532	242.5
2791.995	259.5
2795.455	245.5
2798.911	260.5
2802.365	241.5
2805.816	258.5
2809.264	258.5
2812.709	254.5
2816.151	253.5
2819.59	244.5
2823.026	251.5
2826.46	248.5
2829.89	260.5
2833.318	235.5
2836.742	256.5
2840.164	261.5
2843.583	260.5
2846.999	253.5
2850.412	260.5
2853.822	255.5
2857.229	269.5
2860.634	274.5
2864.035	252.5
2867.434	276.5
2870.83	288.5
2874.223	274.5
2877.613	277.5
2881	275.5
2884.385	283.5
2887.766	278.5
2891.145	288.5
2894.521	280.5
2897.894	280.5
2901.264	288.5
2904.631	272.5
2907.996	284.5
2911.358	282.5
2914.717	284.5
2918.073	278.5
2921.426	273.5
2924.777	271.5
2928.124	289.5
2931.469	312.5
2934.811	293.5
2938.15	328.5
2941.487	315.5
2944.821	324.5
2948.152	304.5
2951.48	307.5
2954.805	282.5
2958.128	296.5
2961.447	275.5
2964.765	284.5
2968.079	278.5
2971.39	277.5
2974.699	277.5
2978.005	269.5
2981.308	276.5
2984.609	279.5
2987.907	289.5
2991.202	294.5
2994.494	277.5
2997.784	275.5
3001.07	276.5
3004.355	283.5
3007.636	268.5
3010.915	272.5
3014.191	258.5
3017.464	278.5
3020.734	270.5
3024.002	267.5
3027.267	260.5
3030.53	272.5
3033.789	265.5
3037.046	270.5
3040.301	262.5
3043.552	262.5
3046.801	287.5
3050.048	286.5
3053.291	301.5
3056.532	289.5
3059.771	282.5
3063.006	300.5
3066.239	308.5
3069.469	319.5
3072.697	309.5
3075.922	317.5
3079.144	319.5
3082.364	340.5
3085.581	331.5
3088.795	359.5
3092.007	352.5
3095.216	361.5
3098.423	348.5
3101.627	340.5
3104.828	368.5
3108.026	368.5
3111.222	395.5
3114.416	395.5
3117.607	386.5
3120.795	406.5
3123.98	404.5
3127.163	397.5
3130.344	423.5
3133.521	419.5
3136.696	437.5
3139.869	444.5
3143.039	433.5
3146.206	465.5
3149.371	463.5
3152.533	453.5
3155.693	453.5
3158.85	464.5
3162.005	465.5
3165.157	465.5
3168.306	460.5
3171.453	476.5
3174.597	456.5
3177.739	450.5
3180.878	473.5
3184.014	473.5
3187.149	469.5
3190.28	467.5
3193.409	474.5
3196.536	465.5
3199.659	482.5
3202.781	481.5
3205.9	465.5
3209.016	474.5
3212.13	470.5
3215.241	475.5
3218.35	458.5
3221.456	461.5
3224.56	445.5
3227.661	455.5
3230.76	443.5
3233.856	440.5
3236.95	446.5
3240.041	435.5
3243.13	445.5
3246.216	429.5
3249.3	435.5
3252.382	434.5
3255.46	426.5
3258.537	373.5
3261.611	417.5
3264.682	431.5
3267.751	420.5
3270.818	406.5
3273.882	418.5
3276.943	412.5
3280.002	423.5
3283.059	403.5
3286.113	402.5
3289.165	391.5
3292.214	380.5
3295.261	389.5
3298.306	372.5
3301.348	371.5
3304.387	356.5
3307.425	365.5
3310.459	359.5
3313.492	358.5
3316.521	351.5
3319.549	361.5
3322.574	338.5
3325.597	336.5
3328.617	336.5
3331.635	328.5
3334.65	327.5
3337.663	341.5
3340.674	329.5
3343.682	334.5
3346.688	332.5
3349.691	327.5
3352.692	328.5
3355.691	329.5
3358.687	325.5
3361.681	330.5
3364.673	308.5
3367.662	330.5
3370.649	322.5
3373.633	302.5
3376.615	310.5
3379.595	293.5
3382.572	291.5
3385.547	287.5
3388.52	278.5
3391.49	277.5
3394.458	282.5
3397.424	286.5
3400.387	272.5
3403.348	273.5
3406.307	269.5
3409.263	275.5
3412.217	267.5
3415.168	265.5
3418.118	273.5
3421.065	257.5
3424.009	269.5
3426.951	251.5
3429.891	255.5
3432.829	244.5
3435.764	240.5
3438.697	232.5
3441.628	254.5
3444.557	221.5
3447.483	219.5
3450.407	225.5
3453.328	208.5
3456.247	199.5
3459.164	189.5
3462.079	200.5
3464.991	195.5
3467.902	179.5
3470.809	180.5
3473.715	182.5
3476.618	169.5
3479.519	166.5
3482.418	139.5
3485.315	157.5
3488.209	155.5
3491.101	150.5
3493.99	136.5
3496.878	134.5
3499.763	132.5
3502.646	132.5
3505.527	126.5
3508.405	117.5
3511.281	107.5
3514.155	115.5
3517.027	108.5
3519.897	96.5
3522.764	107.5
3525.629	82.5
3528.492	96.5
3531.352	89.5
3534.211	83.5
3537.067	73.5
3539.921	75.5
3542.773	79.5
3545.622	63.5
3548.469	50.5
3551.315	51.5
3554.157	59.5
3556.998	50.5
3559.837	54.5
3562.673	51.5
3565.507	44.5
3568.339	36.5
3571.169	45.5
3573.996	40.5
3576.822	22.5
3579.645	28.5
3582.466	28.5
3585.285	35.5
3588.101	28.5
3590.916	18.5
3593.728	24.5
3596.538	25.5
3599.346	18.5
3602.152	11.5
3604.956	15.5
3607.757	22.5
3610.556	6.5
3613.354	13.5
3616.149	16.5
3618.942	16.5
3621.732	11.5
3624.521	1.5
3627.307	-0.5
3630.092	2.5
3632.874	11.5
3635.654	3.5
3638.432	-1.5
3641.208	-5.5
3643.982	-1.5
3646.753	4.5
3649.523	-27.5
3652.29	-8.5
3655.055	2.5
3657.818	-2.5
3660.579	-9.5
3663.338	-18.5
3666.095	-12.5
3668.849	-33.5
3671.602	-8.5
3674.352	-24.5
3677.101	-8.5
3679.847	-7.5
3682.591	-20.5
3685.333	-23.5
3688.073	-16.5
3690.811	-27.5
3693.547	-32.5
3696.281	-27.5
3699.013	-11.5
3701.742	-22.5
3704.47	-28.5
3707.195	-18.5
3709.919	-23.5
3712.64	-24.5
3715.359	-37.5
3718.076	-11.5
3720.792	-23.5
3723.505	-19.5
3726.216	-10.5
3728.925	-26.5
3731.632	-32.5
3734.336	-24.5
3737.039	-23.5
3739.74	-22.5
3742.439	-47.5
3745.136	-16.5
3747.83	-18.5
3750.523	-17.5
3753.213	-79.5
3755.902	-27.5
3758.589	-39.5
3761.273	-30.5
3763.956	-20.5
3766.636	-42.5
3769.315	-16.5
3771.991	-27.5
3774.665	-29.5
3777.338	-24.5
3780.008	-33.5
3782.677	-27.5
3785.343	-44.5
3788.007	-44.5
3790.67	-24.5
3793.33	-36.5
3795.989	-32.5
3798.645	-28.5
3801.299	-42.5
3803.952	-40.5
3806.602	-35.5
3809.251	-28.5
3811.897	-29.5
3814.542	-32.5
3817.184	-31.5
3819.825	-31.5
3822.463	-42.5
3825.1	-32.5
3827.735	-29.5
3830.367	-39.5
3832.998	-19.5
3835.627	-31.5
3838.253	-20.5
3840.878	-33.5
3843.501	-15.5
3846.122	-25.5
3848.741	-25.5
3851.358	-21.5
3853.973	-36.5
3856.586	-24.5
3859.197	-36.5
3861.806	-29.5
3864.414	-48.5
3867.019	-35.5
3869.622	-24.5
3872.224	-26.5
3874.823	-18.5
3877.421	3.5
3880.016	10.5
3882.61	37.5
3885.202	45.5
3887.792	28.5
3890.38	4.5
3892.966	-20.5
3895.55	-35.5
3898.132	-25.5
3900.713	-22.5
3903.291	-30.5
3905.868	-36.5
3908.442	-32.5
3911.015	-34.5
3913.586	-34.5
3916.155	-35.5
3918.722	-37.5
3921.287	-40.5
3923.85	-46.5
3926.411	-31.5
3928.971	-34.5
3931.528	-29.5
3934.084	-34.5
3936.638	-44.5
3939.19	-30.5
3941.74	-31.5
3944.288	-32.5
3946.834	-32.5
3949.378	-23.5
3951.921	-39.5
3954.462	-31.5
3957	-28.5
3959.537	-22.5
3962.072	-31.5
3964.606	-46.5
3967.137	-36.5
3969.667	-37.5
3972.194	-24.5
3974.72	-32.5
3977.244	-52.5
3979.766	-40.5
3982.286	-37.5
3984.805	-25.5
3987.321	-19.5
3989.836	-22.5
3992.349	-39.5
3994.86	-26.5
3997.369	-35.5
3999.877	-30.5
4002.382	-32.5
4004.886	-27.5
4007.388	-21.5
4009.888	-19.5
4012.386	-19.5
4014.883	-26.5
4017.377	-26.5
4019.87	-26.5
4022.361	-31.5
4024.85	-26.5
4027.338	-28.5
4029.823	-28.5
4032.307	-32.5
4034.789	-22.5
4037.269	-26.5
4039.747	-44.5
4042.224	-21.5
4044.699	-37.5
4047.172	-29.5
4049.643	-22.5
4052.112	-48.5
4054.58	-27.5
4057.046	-39.5
4059.51	-32.5
4061.972	-23.5
4064.432	-45.5
4066.891	-15.5
4069.348	-24.5
4071.803	-29.5
4074.256	-31.5
4076.708	-21.5
4079.158	-25.5
4081.606	-15.5
4084.052	-27.5
4086.497	-22.5
4088.939	-27.5
4091.38	-30.5
4093.819	-23.5
4096.257	-0.5
4098.693	-4.5
4101.127	-4.5
4103.559	1.5
4105.989	50.5
4108.418	62.5
4110.845	55.5
4113.27	67.5
4115.694	78.5
4118.115	73.5
4120.535	-24.5
4122.954	-24.5
4125.37	-15.5
4127.785	-25.5
4130.198	-18.5
4132.609	-24.5
4135.019	8.5
4137.427	1.5
4139.833	4.5
4142.237	-6.5
