Data from 2018-3-6_conc=3_n=7_RamanShift_02.txt Node
Date: Tue Mar 06 13:33:49 GMT+02:00 2018
User: LAB3
Spectrometer: QEPB0276
Trigger mode: 0
Integration Time (sec): 3.000000E1
Scans to average: 1
Electric dark correction enabled: true
Nonlinearity correction enabled: false
Boxcar width: 0
XAxis mode: Raman Shifts
Number of Pixels in Spectrum: 1044
>>>>>Begin Spectral Data<<<<<
160.701	137.62
166.742	172.62
172.777	255.62
178.805	502.62
184.826	1142.62
190.841	2240.62
196.849	3569.62
202.85	4533.62
208.845	4920.62
214.833	4923.62
220.815	4885.62
226.789	4919.62
232.758	4937.62
238.719	4929.62
244.674	4897.62
250.623	4899.62
256.565	4846.62
262.5	4829.62
268.429	4793.62
274.351	4766.62
280.267	4778.62
286.176	4765.62
292.079	4817.62
297.975	4777.62
303.865	4815.62
309.748	4797.62
315.625	4791.62
321.495	4824.62
327.359	4838.62
333.217	4845.62
339.068	4879.62
344.912	4887.62
350.751	4903.62
356.583	4888.62
362.408	4924.62
368.227	4957.62
374.04	4952.62
379.847	4982.62
385.647	5021.62
391.44	5031.62
397.228	5082.62
403.009	5119.62
408.784	5107.62
414.553	5176.62
420.315	5145.62
426.071	5138.62
431.821	5184.62
437.565	5135.62
443.302	5146.62
449.033	5088.62
454.758	5068.62
460.477	5088.62
466.189	5023.62
471.896	4989.62
477.596	4953.62
483.29	4913.62
488.978	4899.62
494.66	4860.62
500.335	4737.62
506.005	4526.62
511.668	4317.62
517.325	4119.62
522.977	3949.62
528.622	3839.62
534.261	3777.62
539.894	3669.62
545.521	3633.62
551.141	3593.62
556.756	3570.62
562.365	3545.62
567.968	3524.62
573.565	3464.62
579.155	3465.62
584.74	3426.62
590.319	3413.62
595.892	3449.62
601.459	3456.62
607.02	3394.62
612.575	3388.62
618.124	3373.62
623.667	3309.62
629.204	3254.62
634.735	3225.62
640.261	3182.62
645.781	3152.62
651.294	3135.62
656.802	3130.62
662.304	3137.62
667.8	3138.62
673.29	3098.62
678.775	3074.62
684.254	3077.62
689.726	3065.62
695.193	3040.62
700.655	3029.62
706.11	3028.62
711.56	3002.62
717.004	2987.62
722.442	2955.62
727.874	2935.62
733.301	2943.62
738.722	2917.62
744.137	2913.62
749.547	2924.62
754.951	2907.62
760.349	2919.62
765.741	2938.62
771.128	2947.62
776.509	3008.62
781.885	3062.62
787.254	3055.62
792.618	3060.62
797.977	3069.62
803.33	3060.62
808.677	3026.62
814.019	2989.62
819.355	2972.62
824.686	2923.62
830.011	2903.62
835.33	2922.62
840.644	2913.62
845.952	2875.62
851.255	2879.62
856.552	2842.62
861.844	2797.62
867.13	2772.62
872.41	2741.62
877.686	2724.62
882.955	2709.62
888.219	2668.62
893.478	2614.62
898.731	2628.62
903.979	2597.62
909.221	2579.62
914.458	2555.62
919.69	2550.62
924.916	2546.62
930.136	2539.62
935.351	2552.62
940.561	2547.62
945.766	2550.62
950.965	2551.62
956.158	2503.62
961.347	2479.62
966.529	2428.62
971.707	2430.62
976.879	2407.62
982.046	2367.62
987.208	2351.62
992.364	2365.62
997.515	2368.62
1002.66	2388.62
1007.801	2375.62
1012.936	2409.62
1018.066	2414.62
1023.19	2423.62
1028.309	2440.62
1033.423	2437.62
1038.532	2449.62
1043.636	2426.62
1048.734	2422.62
1053.827	2378.62
1058.915	2343.62
1063.998	2345.62
1069.075	2337.62
1074.147	2336.62
1079.214	2318.62
1084.276	2353.62
1089.333	2354.62
1094.385	2348.62
1099.431	2359.62
1104.472	2347.62
1109.509	2312.62
1114.54	2266.62
1119.565	2259.62
1124.586	2209.62
1129.602	2185.62
1134.613	2160.62
1139.618	2173.62
1144.619	2166.62
1149.614	2178.62
1154.604	2162.62
1159.589	2172.62
1164.57	2184.62
1169.545	2205.62
1174.515	2194.62
1179.48	2178.62
1184.44	2165.62
1189.395	2157.62
1194.345	2129.62
1199.29	2120.62
1204.23	2105.62
1209.165	2107.62
1214.095	2133.62
1219.021	2125.62
1223.941	2125.62
1228.856	2150.62
1233.766	2160.62
1238.672	2169.62
1243.572	2159.62
1248.467	2138.62
1253.358	2097.62
1258.244	2074.62
1263.124	2063.62
1268	2030.62
1272.871	1961.62
1277.737	1992.62
1282.599	1953.62
1287.455	1952.62
1292.306	1963.62
1297.153	1953.62
1301.995	1985.62
1306.832	1981.62
1311.664	1971.62
1316.491	1972.62
1321.314	1967.62
1326.132	1942.62
1330.945	1928.62
1335.753	1878.62
1340.556	1855.62
1345.354	1830.62
1350.148	1795.62
1354.937	1796.62
1359.722	1753.62
1364.501	1734.62
1369.276	1724.62
1374.046	1753.62
1378.811	1707.62
1383.572	1737.62
1388.327	1718.62
1393.079	1704.62
1397.825	1694.62
1402.567	1692.62
1407.304	1677.62
1412.036	1682.62
1416.764	1678.62
1421.487	1659.62
1426.205	1664.62
1430.919	1655.62
1435.628	1686.62
1440.333	1660.62
1445.032	1695.62
1449.727	1689.62
1454.418	1709.62
1459.104	1711.62
1463.785	1661.62
1468.462	1657.62
1473.134	1635.62
1477.802	1594.62
1482.465	1558.62
1487.123	1553.62
1491.777	1531.62
1496.426	1509.62
1501.071	1529.62
1505.711	1535.62
1510.347	1547.62
1514.978	1544.62
1519.604	1547.62
1524.226	1564.62
1528.844	1529.62
1533.457	1548.62
1538.065	1524.62
1542.669	1531.62
1547.269	1511.62
1551.864	1509.62
1556.454	1509.62
1561.041	1495.62
1565.622	1489.62
1570.199	1500.62
1574.772	1522.62
1579.34	1517.62
1583.904	1550.62
1588.464	1576.62
1593.019	1577.62
1597.569	1550.62
1602.115	1551.62
1606.657	1540.62
1611.195	1565.62
1615.728	1555.62
1620.256	1524.62
1624.78	1486.62
1629.3	1514.62
1633.816	1517.62
1638.327	1543.62
1642.834	1532.62
1647.336	1537.62
1651.834	1582.62
1656.328	1563.62
1660.817	1555.62
1665.302	1525.62
1669.783	1509.62
1674.259	1482.62
1678.732	1461.62
1683.199	1423.62
1687.663	1362.62
1692.122	1332.62
1696.577	1322.62
1701.028	1290.62
1705.474	1265.62
1709.917	1241.62
1714.355	1239.62
1718.788	1216.62
1723.218	1195.62
1727.643	1173.62
1732.064	1183.62
1736.481	1140.62
1740.893	1139.62
1745.301	1115.62
1749.705	1066.62
1754.105	1073.62
1758.501	1038.62
1762.893	1037.62
1767.28	1001.62
1771.663	995.62
1776.042	973.62
1780.417	953.62
1784.787	979.62
1789.154	970.62
1793.516	977.62
1797.874	964.62
1802.228	965.62
1806.578	943.62
1810.924	972.62
1815.266	842.62
1819.603	949.62
1823.937	936.62
1828.266	926.62
1832.591	923.62
1836.913	910.62
1841.23	900.62
1845.543	900.62
1849.852	898.62
1854.156	899.62
1858.457	899.62
1862.754	896.62
1867.047	896.62
1871.335	917.62
1875.62	909.62
1879.9	914.62
1884.177	891.62
1888.449	883.62
1892.718	884.62
1896.982	884.62
1901.243	864.62
1905.499	862.62
1909.752	861.62
1914	833.62
1918.245	838.62
1922.485	866.62
1926.722	846.62
1930.954	840.62
1935.183	854.62
1939.408	873.62
1943.628	852.62
1947.845	847.62
1952.058	846.62
1956.267	824.62
1960.472	824.62
1964.673	812.62
1968.87	794.62
1973.063	791.62
1977.252	773.62
1981.438	771.62
1985.619	756.62
1989.797	754.62
1993.971	751.62
1998.14	762.62
2002.306	751.62
2006.469	761.62
2010.627	745.62
2014.781	726.62
2018.932	738.62
2023.078	749.62
2027.221	737.62
2031.36	713.62
2035.495	708.62
2039.627	707.62
2043.754	703.62
2047.878	679.62
2051.998	685.62
2056.114	690.62
2060.226	679.62
2064.334	684.62
2068.439	695.62
2072.54	708.62
2076.637	683.62
2080.73	691.62
2084.82	684.62
2088.906	707.62
2092.988	690.62
2097.066	671.62
2101.14	686.62
2105.211	676.62
2109.278	661.62
2113.342	650.62
2117.401	645.62
2121.457	633.62
2125.509	638.62
2129.558	631.62
2133.602	613.62
2137.643	627.62
2141.681	627.62
2145.714	616.62
2149.744	628.62
2153.77	619.62
2157.793	593.62
2161.812	570.62
2165.827	568.62
2169.838	594.62
2173.846	566.62
2177.851	554.62
2181.851	563.62
2185.848	562.62
2189.841	556.62
2193.831	539.62
2197.817	540.62
2201.799	529.62
2205.778	521.62
2209.753	513.62
2213.725	519.62
2217.693	527.62
2221.657	504.62
2225.618	527.62
2229.575	516.62
2233.529	514.62
2237.479	503.62
2241.425	489.62
2245.368	476.62
2249.307	488.62
2253.243	472.62
2257.175	477.62
2261.104	462.62
2265.029	461.62
2268.95	455.62
2272.868	441.62
2276.783	433.62
2280.694	445.62
2284.601	433.62
2288.505	431.62
2292.405	422.62
2296.302	410.62
2300.195	414.62
2304.085	383.62
2307.971	415.62
2311.854	383.62
2315.734	389.62
2319.609	387.62
2323.482	366.62
2327.351	371.62
2331.216	373.62
2335.078	383.62
2338.937	379.62
2342.792	368.62
2346.643	367.62
2350.492	378.62
2354.336	368.62
2358.178	374.62
2362.015	372.62
2365.85	366.62
2369.681	369.62
2373.508	375.62
2377.333	372.62
2381.153	377.62
2384.971	371.62
2388.785	367.62
2392.595	362.62
2396.402	354.62
2400.206	331.62
2404.007	339.62
2407.804	342.62
2411.597	354.62
2415.388	334.62
2419.174	344.62
2422.958	342.62
2426.738	341.62
2430.515	344.62
2434.289	331.62
2438.059	317.62
2441.825	326.62
2445.589	332.62
2449.349	311.62
2453.106	320.62
2456.859	310.62
2460.61	317.62
2464.356	309.62
2468.1	294.62
2471.84	298.62
2475.577	300.62
2479.311	295.62
2483.041	299.62
2486.768	306.62
2490.492	305.62
2494.213	299.62
2497.93	284.62
2501.644	285.62
2505.355	290.62
2509.062	293.62
2512.766	288.62
2516.467	285.62
2520.165	286.62
2523.859	272.62
2527.551	303.62
2531.239	264.62
2534.923	278.62
2538.605	276.62
2542.283	272.62
2545.958	273.62
2549.63	285.62
2553.299	272.62
2556.964	261.62
2560.626	267.62
2564.285	263.62
2567.941	253.62
2571.594	254.62
2575.243	262.62
2578.89	255.62
2582.533	254.62
2586.173	249.62
2589.809	255.62
2593.443	230.62
2597.073	247.62
2600.701	246.62
2604.325	243.62
2607.946	223.62
2611.564	245.62
2615.178	232.62
2618.79	237.62
2622.398	221.62
2626.004	235.62
2629.606	234.62
2633.205	216.62
2636.801	227.62
2640.394	225.62
2643.983	215.62
2647.57	216.62
2651.153	205.62
2654.734	221.62
2658.311	187.62
2661.885	205.62
2665.456	206.62
2669.025	203.62
2672.589	198.62
2676.151	206.62
2679.71	210.62
2683.266	202.62
2686.819	186.62
2690.368	194.62
2693.915	192.62
2697.458	193.62
2700.999	192.62
2704.536	190.62
2708.071	186.62
2711.602	180.62
2715.13	179.62
2718.656	157.62
2722.178	179.62
2725.697	163.62
2729.214	168.62
2732.727	170.62
2736.237	157.62
2739.744	167.62
2743.249	161.62
2746.75	174.62
2750.248	162.62
2753.743	167.62
2757.236	165.62
2760.725	168.62
2764.211	142.62
2767.695	160.62
2771.175	162.62
2774.652	171.62
2778.127	158.62
2781.598	152.62
2785.067	163.62
2788.532	149.62
2791.995	164.62
2795.455	155.62
2798.911	162.62
2802.365	166.62
2805.816	162.62
2809.264	173.62
2812.709	157.62
2816.151	166.62
2819.59	152.62
2823.026	160.62
2826.46	156.62
2829.89	170.62
2833.318	139.62
2836.742	160.62
2840.164	158.62
2843.583	158.62
2846.999	158.62
2850.412	172.62
2853.822	161.62
2857.229	173.62
2860.634	164.62
2864.035	155.62
2867.434	174.62
2870.83	175.62
2874.223	178.62
2877.613	180.62
2881	174.62
2884.385	182.62
2887.766	179.62
2891.145	177.62
2894.521	176.62
2897.894	162.62
2901.264	183.62
2904.631	188.62
2907.996	190.62
2911.358	196.62
2914.717	186.62
2918.073	187.62
2921.426	187.62
2924.777	187.62
2928.124	188.62
2931.469	211.62
2934.811	196.62
2938.15	212.62
2941.487	205.62
2944.821	223.62
2948.152	209.62
2951.48	214.62
2954.805	199.62
2958.128	218.62
2961.447	203.62
2964.765	221.62
2968.079	206.62
2971.39	214.62
2974.699	217.62
2978.005	228.62
2981.308	214.62
2984.609	215.62
2987.907	231.62
2991.202	231.62
2994.494	223.62
2997.784	227.62
3001.07	233.62
3004.355	234.62
3007.636	238.62
3010.915	245.62
3014.191	231.62
3017.464	247.62
3020.734	239.62
3024.002	243.62
3027.267	243.62
3030.53	251.62
3033.789	249.62
3037.046	256.62
3040.301	249.62
3043.552	265.62
3046.801	276.62
3050.048	278.62
3053.291	300.62
3056.532	291.62
3059.771	272.62
3063.006	304.62
3066.239	302.62
3069.469	322.62
3072.697	320.62
3075.922	317.62
3079.144	330.62
3082.364	357.62
3085.581	339.62
3088.795	372.62
3092.007	372.62
3095.216	382.62
3098.423	384.62
3101.627	364.62
3104.828	391.62
3108.026	387.62
3111.222	424.62
3114.416	433.62
3117.607	425.62
3120.795	434.62
3123.98	443.62
3127.163	436.62
3130.344	456.62
3133.521	465.62
3136.696	490.62
3139.869	491.62
3143.039	482.62
3146.206	512.62
3149.371	517.62
3152.533	513.62
3155.693	503.62
3158.85	521.62
3162.005	531.62
3165.157	533.62
3168.306	531.62
3171.453	536.62
3174.597	523.62
3177.739	529.62
3180.878	538.62
3184.014	530.62
3187.149	539.62
3190.28	541.62
3193.409	545.62
3196.536	552.62
3199.659	557.62
3202.781	549.62
3205.9	543.62
3209.016	545.62
3212.13	540.62
3215.241	549.62
3218.35	541.62
3221.456	531.62
3224.56	530.62
3227.661	531.62
3230.76	516.62
3233.856	513.62
3236.95	511.62
3240.041	498.62
3243.13	511.62
3246.216	504.62
3249.3	512.62
3252.382	502.62
3255.46	500.62
3258.537	441.62
3261.611	484.62
3264.682	490.62
3267.751	489.62
3270.818	471.62
3273.882	496.62
3276.943	484.62
3280.002	495.62
3283.059	468.62
3286.113	477.62
3289.165	456.62
3292.214	447.62
3295.261	475.62
3298.306	428.62
3301.348	448.62
3304.387	428.62
3307.425	446.62
3310.459	430.62
3313.492	432.62
3316.521	412.62
3319.549	422.62
3322.574	417.62
3325.597	415.62
3328.617	410.62
3331.635	406.62
3334.65	384.62
3337.663	404.62
3340.674	395.62
3343.682	405.62
3346.688	399.62
3349.691	395.62
3352.692	396.62
3355.691	407.62
3358.687	388.62
3361.681	397.62
3364.673	386.62
3367.662	387.62
3370.649	391.62
3373.633	367.62
3376.615	370.62
3379.595	356.62
3382.572	357.62
3385.547	351.62
3388.52	345.62
3391.49	339.62
3394.458	338.62
3397.424	349.62
3400.387	325.62
3403.348	337.62
3406.307	327.62
3409.263	328.62
3412.217	332.62
3415.168	325.62
3418.118	329.62
3421.065	307.62
3424.009	318.62
3426.951	310.62
3429.891	292.62
3432.829	298.62
3435.764	287.62
3438.697	282.62
3441.628	298.62
3444.557	268.62
3447.483	263.62
3450.407	273.62
3453.328	248.62
3456.247	247.62
3459.164	233.62
3462.079	242.62
3464.991	224.62
3467.902	229.62
3470.809	225.62
3473.715	221.62
3476.618	209.62
3479.519	206.62
3482.418	180.62
3485.315	180.62
3488.209	185.62
3491.101	177.62
3493.99	163.62
3496.878	169.62
3499.763	167.62
3502.646	166.62
3505.527	144.62
3508.405	151.62
3511.281	131.62
3514.155	145.62
3517.027	133.62
3519.897	116.62
3522.764	123.62
3525.629	100.62
3528.492	124.62
3531.352	115.62
3534.211	109.62
3537.067	91.62
3539.921	94.62
3542.773	99.62
3545.622	79.62
3548.469	72.62
3551.315	63.62
3554.157	71.62
3556.998	57.62
3559.837	65.62
3562.673	64.62
3565.507	53.62
3568.339	47.62
3571.169	54.62
3573.996	55.62
3576.822	33.62
3579.645	40.62
3582.466	44.62
3585.285	41.62
3588.101	38.62
3590.916	28.62
3593.728	38.62
3596.538	29.62
3599.346	28.62
3602.152	21.62
3604.956	22.62
3607.757	24.62
3610.556	11.62
3613.354	24.62
3616.149	18.62
3618.942	25.62
3621.732	19.62
3624.521	9.62
3627.307	0.62
3630.092	1.62
3632.874	19.62
3635.654	10.62
3638.432	4.62
3641.208	0.62
3643.982	6.62
3646.753	5.62
3649.523	-22.38
3652.29	-4.38
3655.055	-0.38
3657.818	-2.38
3660.579	-9.38
3663.338	-20.38
3666.095	-9.38
3668.849	-32.38
3671.602	-9.38
3674.352	-24.38
3677.101	-4.38
3679.847	-8.38
3682.591	-19.38
3685.333	-21.38
3688.073	-15.38
3690.811	-27.38
3693.547	-34.38
3696.281	-33.38
3699.013	-12.38
3701.742	-24.38
3704.47	-29.38
3707.195	-18.38
3709.919	-15.38
3712.64	-20.38
3715.359	-29.38
3718.076	-14.38
3720.792	-17.38
3723.505	-18.38
3726.216	-15.38
3728.925	-26.38
3731.632	-33.38
3734.336	-22.38
3737.039	-29.38
3739.74	-23.38
3742.439	-48.38
3745.136	-19.38
3747.83	-22.38
3750.523	-23.38
3753.213	-77.38
3755.902	-26.38
3758.589	-40.38
3761.273	-31.38
3763.956	-20.38
3766.636	-39.38
3769.315	-19.38
3771.991	-29.38
3774.665	-27.38
3777.338	-25.38
3780.008	-36.38
3782.677	-33.38
3785.343	-45.38
3788.007	-45.38
3790.67	-21.38
3793.33	-41.38
3795.989	-32.38
3798.645	-25.38
3801.299	-37.38
3803.952	-39.38
3806.602	-33.38
3809.251	-24.38
3811.897	-30.38
3814.542	-32.38
3817.184	-33.38
3819.825	-33.38
3822.463	-42.38
3825.1	-31.38
3827.735	-29.38
3830.367	-36.38
3832.998	-17.38
3835.627	-35.38
3838.253	-21.38
3840.878	-31.38
3843.501	-14.38
3846.122	-29.38
3848.741	-24.38
3851.358	-27.38
3853.973	-41.38
3856.586	-18.38
3859.197	-36.38
3861.806	-27.38
3864.414	-40.38
3867.019	-30.38
3869.622	-15.38
3872.224	-15.38
3874.823	4.62
3877.421	28.62
3880.016	60.62
3882.61	98.62
3885.202	110.62
3887.792	76.62
3890.38	39.62
3892.966	0.62
3895.55	-25.38
3898.132	-19.38
3900.713	-20.38
3903.291	-29.38
3905.868	-36.38
3908.442	-28.38
3911.015	-28.38
3913.586	-34.38
3916.155	-36.38
3918.722	-39.38
3921.287	-34.38
3923.85	-42.38
3926.411	-36.38
3928.971	-34.38
3931.528	-28.38
3934.084	-35.38
3936.638	-43.38
3939.19	-27.38
3941.74	-29.38
3944.288	-39.38
3946.834	-33.38
3949.378	-28.38
3951.921	-37.38
3954.462	-32.38
3957	-26.38
3959.537	-18.38
3962.072	-32.38
3964.606	-47.38
3967.137	-33.38
3969.667	-39.38
3972.194	-29.38
3974.72	-37.38
3977.244	-54.38
3979.766	-35.38
3982.286	-40.38
3984.805	-29.38
3987.321	-20.38
3989.836	-23.38
3992.349	-41.38
3994.86	-28.38
3997.369	-33.38
3999.877	-33.38
4002.382	-35.38
4004.886	-25.38
4007.388	-26.38
4009.888	-23.38
4012.386	-22.38
4014.883	-29.38
4017.377	-22.38
4019.87	-24.38
4022.361	-41.38
4024.85	-24.38
4027.338	-24.38
4029.823	-34.38
4032.307	-31.38
4034.789	-32.38
4037.269	-33.38
4039.747	-40.38
4042.224	-19.38
4044.699	-37.38
4047.172	-31.38
4049.643	-21.38
4052.112	-55.38
4054.58	-24.38
4057.046	-40.38
4059.51	-30.38
4061.972	-26.38
4064.432	-46.38
4066.891	-17.38
4069.348	-30.38
4071.803	-27.38
4074.256	-36.38
4076.708	-26.38
4079.158	-29.38
4081.606	-22.38
4084.052	-31.38
4086.497	-26.38
4088.939	-32.38
4091.38	-30.38
4093.819	-20.38
4096.257	3.62
4098.693	-7.38
4101.127	-4.38
4103.559	-0.38
4105.989	131.62
4108.418	139.62
4110.845	123.62
4113.27	127.62
4115.694	135.62
4118.115	123.62
4120.535	-26.38
4122.954	-20.38
4125.37	-18.38
4127.785	-28.38
4130.198	-19.38
4132.609	-23.38
4135.019	9.62
4137.427	-1.38
4139.833	4.62
4142.237	-4.38
