Data from 2018-3-6_conc=3_n=3_RamanShift_02.txt Node
Date: Tue Mar 06 13:20:49 GMT+02:00 2018
User: LAB3
Spectrometer: QEPB0276
Trigger mode: 0
Integration Time (sec): 3.000000E1
Scans to average: 1
Electric dark correction enabled: true
Nonlinearity correction enabled: false
Boxcar width: 0
XAxis mode: Raman Shifts
Number of Pixels in Spectrum: 1044
>>>>>Begin Spectral Data<<<<<
160.701	160.88
166.742	187.88
172.777	266.88
178.805	541.88
184.826	1228.88
190.841	2456.88
196.849	3862.88
202.85	4955.88
208.845	5346.88
214.833	5367.88
220.815	5319.88
226.789	5291.88
232.758	5341.88
238.719	5328.88
244.674	5331.88
250.623	5304.88
256.565	5252.88
262.5	5209.88
268.429	5192.88
274.351	5156.88
280.267	5202.88
286.176	5158.88
292.079	5172.88
297.975	5197.88
303.865	5220.88
309.748	5212.88
315.625	5195.88
321.495	5230.88
327.359	5260.88
333.217	5264.88
339.068	5295.88
344.912	5285.88
350.751	5318.88
356.583	5332.88
362.408	5346.88
368.227	5380.88
374.04	5418.88
379.847	5386.88
385.647	5485.88
391.44	5481.88
397.228	5508.88
403.009	5549.88
408.784	5543.88
414.553	5600.88
420.315	5607.88
426.071	5592.88
431.821	5630.88
437.565	5592.88
443.302	5593.88
449.033	5578.88
454.758	5560.88
460.477	5499.88
466.189	5472.88
471.896	5387.88
477.596	5341.88
483.29	5288.88
488.978	5314.88
494.66	5277.88
500.335	5121.88
506.005	4927.88
511.668	4664.88
517.325	4433.88
522.977	4248.88
528.622	4140.88
534.261	4052.88
539.894	3961.88
545.521	3905.88
551.141	3841.88
556.756	3800.88
562.365	3780.88
567.968	3742.88
573.565	3718.88
579.155	3706.88
584.74	3690.88
590.319	3692.88
595.892	3661.88
601.459	3676.88
607.02	3638.88
612.575	3616.88
618.124	3599.88
623.667	3519.88
629.204	3475.88
634.735	3441.88
640.261	3403.88
645.781	3363.88
651.294	3345.88
656.802	3339.88
662.304	3308.88
667.8	3336.88
673.29	3329.88
678.775	3287.88
684.254	3307.88
689.726	3251.88
695.193	3280.88
700.655	3242.88
706.11	3221.88
711.56	3197.88
717.004	3176.88
722.442	3146.88
727.874	3152.88
733.301	3177.88
738.722	3117.88
744.137	3125.88
749.547	3111.88
754.951	3123.88
760.349	3122.88
765.741	3116.88
771.128	3152.88
776.509	3195.88
781.885	3261.88
787.254	3263.88
792.618	3299.88
797.977	3265.88
803.33	3279.88
808.677	3243.88
814.019	3206.88
819.355	3162.88
824.686	3150.88
830.011	3117.88
835.33	3130.88
840.644	3108.88
845.952	3068.88
851.255	3082.88
856.552	3029.88
861.844	2983.88
867.13	2960.88
872.41	2899.88
877.686	2913.88
882.955	2896.88
888.219	2880.88
893.478	2808.88
898.731	2782.88
903.979	2761.88
909.221	2722.88
914.458	2714.88
919.69	2703.88
924.916	2697.88
930.136	2709.88
935.351	2720.88
940.561	2714.88
945.766	2694.88
950.965	2698.88
956.158	2663.88
961.347	2639.88
966.529	2616.88
971.707	2587.88
976.879	2542.88
982.046	2525.88
987.208	2499.88
992.364	2504.88
997.515	2515.88
1002.66	2535.88
1007.801	2539.88
1012.936	2570.88
1018.066	2576.88
1023.19	2600.88
1028.309	2619.88
1033.423	2612.88
1038.532	2593.88
1043.636	2591.88
1048.734	2549.88
1053.827	2515.88
1058.915	2512.88
1063.998	2514.88
1069.075	2492.88
1074.147	2500.88
1079.214	2475.88
1084.276	2494.88
1089.333	2487.88
1094.385	2509.88
1099.431	2507.88
1104.472	2492.88
1109.509	2458.88
1114.54	2421.88
1119.565	2400.88
1124.586	2352.88
1129.602	2328.88
1134.613	2297.88
1139.618	2302.88
1144.619	2314.88
1149.614	2318.88
1154.604	2305.88
1159.589	2323.88
1164.57	2336.88
1169.545	2339.88
1174.515	2338.88
1179.48	2316.88
1184.44	2303.88
1189.395	2313.88
1194.345	2240.88
1199.29	2276.88
1204.23	2245.88
1209.165	2237.88
1214.095	2283.88
1219.021	2266.88
1223.941	2292.88
1228.856	2270.88
1233.766	2284.88
1238.672	2291.88
1243.572	2285.88
1248.467	2277.88
1253.358	2264.88
1258.244	2196.88
1263.124	2194.88
1268	2148.88
1272.871	2100.88
1277.737	2081.88
1282.599	2059.88
1287.455	2060.88
1292.306	2068.88
1297.153	2075.88
1301.995	2087.88
1306.832	2092.88
1311.664	2101.88
1316.491	2118.88
1321.314	2090.88
1326.132	2072.88
1330.945	2037.88
1335.753	2015.88
1340.556	1973.88
1345.354	1951.88
1350.148	1910.88
1354.937	1895.88
1359.722	1870.88
1364.501	1869.88
1369.276	1863.88
1374.046	1873.88
1378.811	1851.88
1383.572	1859.88
1388.327	1848.88
1393.079	1819.88
1397.825	1806.88
1402.567	1812.88
1407.304	1794.88
1412.036	1784.88
1416.764	1769.88
1421.487	1747.88
1426.205	1764.88
1430.919	1766.88
1435.628	1776.88
1440.333	1800.88
1445.032	1796.88
1449.727	1806.88
1454.418	1832.88
1459.104	1801.88
1463.785	1763.88
1468.462	1787.88
1473.134	1735.88
1477.802	1700.88
1482.465	1672.88
1487.123	1652.88
1491.777	1658.88
1496.426	1646.88
1501.071	1653.88
1505.711	1646.88
1510.347	1655.88
1514.978	1678.88
1519.604	1682.88
1524.226	1689.88
1528.844	1644.88
1533.457	1666.88
1538.065	1623.88
1542.669	1646.88
1547.269	1611.88
1551.864	1612.88
1556.454	1598.88
1561.041	1605.88
1565.622	1612.88
1570.199	1604.88
1574.772	1645.88
1579.34	1640.88
1583.904	1650.88
1588.464	1667.88
1593.019	1689.88
1597.569	1653.88
1602.115	1642.88
1606.657	1641.88
1611.195	1661.88
1615.728	1653.88
1620.256	1618.88
1624.78	1628.88
1629.3	1626.88
1633.816	1650.88
1638.327	1635.88
1642.834	1652.88
1647.336	1658.88
1651.834	1686.88
1656.328	1677.88
1660.817	1650.88
1665.302	1647.88
1669.783	1638.88
1674.259	1610.88
1678.732	1577.88
1683.199	1531.88
1687.663	1485.88
1692.122	1465.88
1696.577	1446.88
1701.028	1400.88
1705.474	1377.88
1709.917	1355.88
1714.355	1347.88
1718.788	1324.88
1723.218	1307.88
1727.643	1279.88
1732.064	1281.88
1736.481	1232.88
1740.893	1241.88
1745.301	1192.88
1749.705	1150.88
1754.105	1158.88
1758.501	1126.88
1762.893	1129.88
1767.28	1082.88
1771.663	1076.88
1776.042	1064.88
1780.417	1062.88
1784.787	1062.88
1789.154	1069.88
1793.516	1078.88
1797.874	1065.88
1802.228	1057.88
1806.578	1041.88
1810.924	1045.88
1815.266	936.88
1819.603	1032.88
1823.937	1010.88
1828.266	1016.88
1832.591	1005.88
1836.913	996.88
1841.23	985.88
1845.543	975.88
1849.852	985.88
1854.156	972.88
1858.457	967.88
1862.754	984.88
1867.047	990.88
1871.335	984.88
1875.62	983.88
1879.9	992.88
1884.177	968.88
1888.449	979.88
1892.718	964.88
1896.982	972.88
1901.243	943.88
1905.499	954.88
1909.752	917.88
1914	932.88
1918.245	955.88
1922.485	957.88
1926.722	946.88
1930.954	940.88
1935.183	956.88
1939.408	963.88
1943.628	959.88
1947.845	955.88
1952.058	941.88
1956.267	915.88
1960.472	918.88
1964.673	900.88
1968.87	883.88
1973.063	853.88
1977.252	864.88
1981.438	835.88
1985.619	840.88
1989.797	822.88
1993.971	820.88
1998.14	840.88
2002.306	816.88
2006.469	831.88
2010.627	800.88
2014.781	804.88
2018.932	798.88
2023.078	827.88
2027.221	801.88
2031.36	778.88
2035.495	778.88
2039.627	775.88
2043.754	759.88
2047.878	748.88
2051.998	746.88
2056.114	753.88
2060.226	755.88
2064.334	761.88
2068.439	768.88
2072.54	765.88
2076.637	750.88
2080.73	764.88
2084.82	766.88
2088.906	763.88
2092.988	758.88
2097.066	756.88
2101.14	760.88
2105.211	749.88
2109.278	726.88
2113.342	731.88
2117.401	710.88
2121.457	704.88
2125.509	696.88
2129.558	723.88
2133.602	710.88
2137.643	689.88
2141.681	675.88
2145.714	690.88
2149.744	675.88
2153.77	675.88
2157.793	655.88
2161.812	633.88
2165.827	613.88
2169.838	647.88
2173.846	627.88
2177.851	611.88
2181.851	622.88
2185.848	601.88
2189.841	602.88
2193.831	592.88
2197.817	586.88
2201.799	577.88
2205.778	561.88
2209.753	570.88
2213.725	562.88
2217.693	572.88
2221.657	562.88
2225.618	565.88
2229.575	573.88
2233.529	564.88
2237.479	553.88
2241.425	541.88
2245.368	530.88
2249.307	529.88
2253.243	519.88
2257.175	509.88
2261.104	505.88
2265.029	496.88
2268.95	494.88
2272.868	483.88
2276.783	470.88
2280.694	480.88
2284.601	469.88
2288.505	466.88
2292.405	464.88
2296.302	440.88
2300.195	443.88
2304.085	410.88
2307.971	442.88
2311.854	405.88
2315.734	423.88
2319.609	415.88
2323.482	396.88
2327.351	405.88
2331.216	408.88
2335.078	416.88
2338.937	391.88
2342.792	386.88
2346.643	392.88
2350.492	404.88
2354.336	393.88
2358.178	402.88
2362.015	401.88
2365.85	395.88
2369.681	394.88
2373.508	403.88
2377.333	403.88
2381.153	399.88
2384.971	388.88
2388.785	406.88
2392.595	375.88
2396.402	376.88
2400.206	361.88
2404.007	368.88
2407.804	368.88
2411.597	367.88
2415.388	366.88
2419.174	368.88
2422.958	363.88
2426.738	365.88
2430.515	362.88
2434.289	343.88
2438.059	356.88
2441.825	352.88
2445.589	367.88
2449.349	335.88
2453.106	351.88
2456.859	341.88
2460.61	352.88
2464.356	322.88
2468.1	325.88
2471.84	317.88
2475.577	322.88
2479.311	324.88
2483.041	320.88
2486.768	338.88
2490.492	334.88
2494.213	325.88
2497.93	304.88
2501.644	308.88
2505.355	320.88
2509.062	313.88
2512.766	309.88
2516.467	307.88
2520.165	301.88
2523.859	304.88
2527.551	324.88
2531.239	291.88
2534.923	300.88
2538.605	296.88
2542.283	302.88
2545.958	295.88
2549.63	307.88
2553.299	300.88
2556.964	281.88
2560.626	288.88
2564.285	295.88
2567.941	278.88
2571.594	283.88
2575.243	284.88
2578.89	278.88
2582.533	275.88
2586.173	277.88
2589.809	272.88
2593.443	246.88
2597.073	270.88
2600.701	274.88
2604.325	267.88
2607.946	255.88
2611.564	274.88
2615.178	258.88
2618.79	257.88
2622.398	254.88
2626.004	253.88
2629.606	247.88
2633.205	240.88
2636.801	247.88
2640.394	251.88
2643.983	238.88
2647.57	236.88
2651.153	223.88
2654.734	244.88
2658.311	212.88
2661.885	225.88
2665.456	221.88
2669.025	217.88
2672.589	212.88
2676.151	236.88
2679.71	227.88
2683.266	216.88
2686.819	208.88
2690.368	216.88
2693.915	211.88
2697.458	211.88
2700.999	203.88
2704.536	209.88
2708.071	206.88
2711.602	201.88
2715.13	194.88
2718.656	182.88
2722.178	207.88
2725.697	186.88
2729.214	187.88
2732.727	196.88
2736.237	173.88
2739.744	188.88
2743.249	181.88
2746.75	193.88
2750.248	179.88
2753.743	188.88
2757.236	193.88
2760.725	189.88
2764.211	157.88
2767.695	186.88
2771.175	176.88
2774.652	182.88
2778.127	179.88
2781.598	180.88
2785.067	185.88
2788.532	171.88
2791.995	184.88
2795.455	172.88
2798.911	187.88
2802.365	177.88
2805.816	191.88
2809.264	191.88
2812.709	172.88
2816.151	177.88
2819.59	165.88
2823.026	183.88
2826.46	177.88
2829.89	188.88
2833.318	163.88
2836.742	173.88
2840.164	179.88
2843.583	183.88
2846.999	178.88
2850.412	178.88
2853.822	177.88
2857.229	195.88
2860.634	195.88
2864.035	174.88
2867.434	199.88
2870.83	207.88
2874.223	194.88
2877.613	206.88
2881	192.88
2884.385	192.88
2887.766	205.88
2891.145	199.88
2894.521	200.88
2897.894	194.88
2901.264	200.88
2904.631	203.88
2907.996	210.88
2911.358	212.88
2914.717	205.88
2918.073	205.88
2921.426	205.88
2924.777	197.88
2928.124	211.88
2931.469	230.88
2934.811	209.88
2938.15	231.88
2941.487	232.88
2944.821	241.88
2948.152	234.88
2951.48	242.88
2954.805	228.88
2958.128	247.88
2961.447	228.88
2964.765	249.88
2968.079	228.88
2971.39	239.88
2974.699	235.88
2978.005	244.88
2981.308	232.88
2984.609	229.88
2987.907	253.88
2991.202	264.88
2994.494	249.88
2997.784	253.88
3001.07	263.88
3004.355	253.88
3007.636	264.88
3010.915	265.88
3014.191	264.88
3017.464	271.88
3020.734	268.88
3024.002	271.88
3027.267	265.88
3030.53	281.88
3033.789	272.88
3037.046	284.88
3040.301	275.88
3043.552	291.88
3046.801	295.88
3050.048	310.88
3053.291	331.88
3056.532	324.88
3059.771	316.88
3063.006	333.88
3066.239	337.88
3069.469	358.88
3072.697	339.88
3075.922	363.88
3079.144	366.88
3082.364	404.88
3085.581	377.88
3088.795	412.88
3092.007	410.88
3095.216	425.88
3098.423	417.88
3101.627	408.88
3104.828	436.88
3108.026	432.88
3111.222	468.88
3114.416	472.88
3117.607	476.88
3120.795	479.88
3123.98	495.88
3127.163	490.88
3130.344	505.88
3133.521	506.88
3136.696	542.88
3139.869	537.88
3143.039	536.88
3146.206	577.88
3149.371	570.88
3152.533	570.88
3155.693	571.88
3158.85	572.88
3162.005	581.88
3165.157	590.88
3168.306	587.88
3171.453	582.88
3174.597	578.88
3177.739	573.88
3180.878	584.88
3184.014	592.88
3187.149	600.88
3190.28	591.88
3193.409	613.88
3196.536	607.88
3199.659	626.88
3202.781	619.88
3205.9	588.88
3209.016	602.88
3212.13	609.88
3215.241	599.88
3218.35	602.88
3221.456	592.88
3224.56	574.88
3227.661	588.88
3230.76	578.88
3233.856	568.88
3236.95	563.88
3240.041	553.88
3243.13	580.88
3246.216	560.88
3249.3	571.88
3252.382	557.88
3255.46	536.88
3258.537	495.88
3261.611	540.88
3264.682	542.88
3267.751	543.88
3270.818	530.88
3273.882	540.88
3276.943	539.88
3280.002	555.88
3283.059	532.88
3286.113	523.88
3289.165	516.88
3292.214	502.88
3295.261	515.88
3298.306	488.88
3301.348	493.88
3304.387	483.88
3307.425	489.88
3310.459	465.88
3313.492	475.88
3316.521	471.88
3319.549	475.88
3322.574	469.88
3325.597	455.88
3328.617	444.88
3331.635	451.88
3334.65	436.88
3337.663	444.88
3340.674	434.88
3343.682	449.88
3346.688	445.88
3349.691	435.88
3352.692	437.88
3355.691	441.88
3358.687	437.88
3361.681	441.88
3364.673	438.88
3367.662	429.88
3370.649	429.88
3373.633	400.88
3376.615	418.88
3379.595	393.88
3382.572	397.88
3385.547	388.88
3388.52	379.88
3391.49	387.88
3394.458	377.88
3397.424	379.88
3400.387	358.88
3403.348	363.88
3406.307	364.88
3409.263	365.88
3412.217	367.88
3415.168	361.88
3418.118	368.88
3421.065	347.88
3424.009	353.88
3426.951	339.88
3429.891	332.88
3432.829	329.88
3435.764	332.88
3438.697	314.88
3441.628	325.88
3444.557	303.88
3447.483	291.88
3450.407	294.88
3453.328	274.88
3456.247	277.88
3459.164	265.88
3462.079	277.88
3464.991	260.88
3467.902	249.88
3470.809	242.88
3473.715	243.88
3476.618	228.88
3479.519	232.88
3482.418	207.88
3485.315	207.88
3488.209	204.88
3491.101	198.88
3493.99	177.88
3496.878	189.88
3499.763	183.88
3502.646	180.88
3505.527	203.88
3508.405	261.88
3511.281	155.88
3514.155	158.88
3517.027	148.88
3519.897	136.88
3522.764	142.88
3525.629	112.88
3528.492	133.88
3531.352	127.88
3534.211	113.88
3537.067	111.88
3539.921	107.88
3542.773	110.88
3545.622	90.88
3548.469	78.88
3551.315	82.88
3554.157	83.88
3556.998	68.88
3559.837	77.88
3562.673	82.88
3565.507	63.88
3568.339	60.88
3571.169	56.88
3573.996	62.88
3576.822	38.88
3579.645	45.88
3582.466	48.88
3585.285	51.88
3588.101	42.88
3590.916	43.88
3593.728	46.88
3596.538	39.88
3599.346	40.88
3602.152	25.88
3604.956	34.88
3607.757	33.88
3610.556	8.88
3613.354	30.88
3616.149	24.88
3618.942	31.88
3621.732	31.88
3624.521	17.88
3627.307	8.88
3630.092	8.88
3632.874	21.88
3635.654	13.88
3638.432	3.88
3641.208	4.88
3643.982	8.88
3646.753	10.88
3649.523	-23.12
3652.29	-2.12
3655.055	7.88
3657.818	1.88
3660.579	-5.12
3663.338	-10.12
3666.095	-11.12
3668.849	-28.12
3671.602	0.88
3674.352	-15.12
3677.101	-1.12
3679.847	-2.12
3682.591	-18.12
3685.333	-23.12
3688.073	-9.12
3690.811	-19.12
3693.547	-26.12
3696.281	-25.12
3699.013	-15.12
3701.742	-18.12
3704.47	-28.12
3707.195	-13.12
3709.919	-14.12
3712.64	-17.12
3715.359	-29.12
3718.076	-8.12
3720.792	-13.12
3723.505	-14.12
3726.216	-11.12
3728.925	-21.12
3731.632	-27.12
3734.336	-21.12
3737.039	-22.12
3739.74	-16.12
3742.439	-51.12
3745.136	-13.12
3747.83	-16.12
3750.523	-19.12
3753.213	-81.12
3755.902	-25.12
3758.589	-42.12
3761.273	-29.12
3763.956	-13.12
3766.636	-36.12
3769.315	-17.12
3771.991	-28.12
3774.665	-28.12
3777.338	-23.12
3780.008	-37.12
3782.677	-26.12
3785.343	-39.12
3788.007	-43.12
3790.67	-22.12
3793.33	-34.12
3795.989	-29.12
3798.645	-26.12
3801.299	-39.12
3803.952	-32.12
3806.602	-35.12
3809.251	-22.12
3811.897	-24.12
3814.542	-29.12
3817.184	-30.12
3819.825	-26.12
3822.463	-41.12
3825.1	-29.12
3827.735	-29.12
3830.367	-43.12
3832.998	-19.12
3835.627	-31.12
3838.253	-23.12
3840.878	-31.12
3843.501	-19.12
3846.122	-28.12
3848.741	-24.12
3851.358	-22.12
3853.973	-37.12
3856.586	-18.12
3859.197	-35.12
3861.806	-30.12
3864.414	-38.12
3867.019	-30.12
3869.622	-16.12
3872.224	-15.12
3874.823	0.88
3877.421	29.88
3880.016	54.88
3882.61	95.88
3885.202	111.88
3887.792	83.88
3890.38	44.88
3892.966	0.88
3895.55	-26.12
3898.132	-24.12
3900.713	-21.12
3903.291	-31.12
3905.868	-33.12
3908.442	-26.12
3911.015	-31.12
3913.586	-33.12
3916.155	-33.12
3918.722	-34.12
3921.287	-33.12
3923.85	-43.12
3926.411	-37.12
3928.971	-38.12
3931.528	-30.12
3934.084	-35.12
3936.638	-41.12
3939.19	-24.12
3941.74	-28.12
3944.288	-32.12
3946.834	-35.12
3949.378	-22.12
3951.921	-36.12
3954.462	-31.12
3957	-28.12
3959.537	-16.12
3962.072	-31.12
3964.606	-43.12
3967.137	-33.12
3969.667	-33.12
3972.194	-27.12
3974.72	-38.12
3977.244	-55.12
3979.766	-41.12
3982.286	-39.12
3984.805	-26.12
3987.321	-18.12
3989.836	-27.12
3992.349	-41.12
3994.86	-32.12
3997.369	-40.12
3999.877	-32.12
4002.382	-34.12
4004.886	-27.12
4007.388	-27.12
4009.888	-25.12
4012.386	-25.12
4014.883	-30.12
4017.377	-27.12
4019.87	-25.12
4022.361	-42.12
4024.85	-33.12
4027.338	-28.12
4029.823	-34.12
4032.307	-30.12
4034.789	-34.12
4037.269	-30.12
4039.747	-48.12
4042.224	-27.12
4044.699	-34.12
4047.172	-35.12
4049.643	-27.12
4052.112	-49.12
4054.58	-28.12
4057.046	-40.12
4059.51	-29.12
4061.972	-33.12
4064.432	-48.12
4066.891	-18.12
4069.348	-33.12
4071.803	-29.12
4074.256	-34.12
4076.708	-26.12
4079.158	-30.12
4081.606	-15.12
4084.052	-35.12
4086.497	-24.12
4088.939	-30.12
4091.38	-34.12
4093.819	-24.12
4096.257	-0.12
4098.693	-3.12
4101.127	-2.12
4103.559	5.88
4105.989	140.88
4108.418	137.88
4110.845	133.88
4113.27	134.88
4115.694	145.88
4118.115	130.88
4120.535	-24.12
4122.954	-23.12
4125.37	-17.12
4127.785	-29.12
4130.198	-21.12
4132.609	-28.12
4135.019	4.88
4137.427	1.88
4139.833	1.88
4142.237	-9.12
