Data from 2018-3-6_conc=2_n=6_RamanShift_04.txt Node
Date: Tue Mar 06 12:58:49 GMT+02:00 2018
User: LAB3
Spectrometer: QEPB0276
Trigger mode: 0
Integration Time (sec): 3.000000E1
Scans to average: 1
Electric dark correction enabled: true
Nonlinearity correction enabled: false
Boxcar width: 0
XAxis mode: Raman Shifts
Number of Pixels in Spectrum: 1044
>>>>>Begin Spectral Data<<<<<
160.701	172.88
166.742	204.88
172.777	308.88
178.805	603.88
184.826	1355.88
190.841	2694.88
196.849	4289.88
202.85	5510.88
208.845	5989.88
214.833	5981.88
220.815	5924.88
226.789	5918.88
232.758	5946.88
238.719	5989.88
244.674	5930.88
250.623	5898.88
256.565	5859.88
262.5	5827.88
268.429	5792.88
274.351	5770.88
280.267	5749.88
286.176	5779.88
292.079	5803.88
297.975	5819.88
303.865	5809.88
309.748	5820.88
315.625	5813.88
321.495	5828.88
327.359	5830.88
333.217	5862.88
339.068	5903.88
344.912	5936.88
350.751	5978.88
356.583	5988.88
362.408	5992.88
368.227	6043.88
374.04	6063.88
379.847	6077.88
385.647	6125.88
391.44	6138.88
397.228	6179.88
403.009	6211.88
408.784	6228.88
414.553	6270.88
420.315	6322.88
426.071	6299.88
431.821	6335.88
437.565	6296.88
443.302	6293.88
449.033	6244.88
454.758	6196.88
460.477	6137.88
466.189	6107.88
471.896	6052.88
477.596	6052.88
483.29	5977.88
488.978	6002.88
494.66	5938.88
500.335	5771.88
506.005	5502.88
511.668	5213.88
517.325	4954.88
522.977	4725.88
528.622	4564.88
534.261	4465.88
539.894	4346.88
545.521	4294.88
551.141	4221.88
556.756	4186.88
562.365	4133.88
567.968	4090.88
573.565	4088.88
579.155	4083.88
584.74	4044.88
590.319	4033.88
595.892	4036.88
601.459	4024.88
607.02	4014.88
612.575	3981.88
618.124	3951.88
623.667	3844.88
629.204	3807.88
634.735	3786.88
640.261	3713.88
645.781	3647.88
651.294	3682.88
656.802	3654.88
662.304	3642.88
667.8	3646.88
673.29	3637.88
678.775	3610.88
684.254	3596.88
689.726	3558.88
695.193	3551.88
700.655	3567.88
706.11	3523.88
711.56	3503.88
717.004	3502.88
722.442	3452.88
727.874	3465.88
733.301	3466.88
738.722	3428.88
744.137	3417.88
749.547	3401.88
754.951	3420.88
760.349	3425.88
765.741	3443.88
771.128	3474.88
776.509	3496.88
781.885	3573.88
787.254	3631.88
792.618	3597.88
797.977	3630.88
803.33	3585.88
808.677	3573.88
814.019	3520.88
819.355	3503.88
824.686	3465.88
830.011	3420.88
835.33	3452.88
840.644	3427.88
845.952	3368.88
851.255	3347.88
856.552	3324.88
861.844	3270.88
867.13	3234.88
872.41	3202.88
877.686	3209.88
882.955	3177.88
888.219	3122.88
893.478	3079.88
898.731	3056.88
903.979	2991.88
909.221	2968.88
914.458	2963.88
919.69	2972.88
924.916	2941.88
930.136	2985.88
935.351	2952.88
940.561	2980.88
945.766	2964.88
950.965	2939.88
956.158	2920.88
961.347	2893.88
966.529	2852.88
971.707	2813.88
976.879	2790.88
982.046	2753.88
987.208	2752.88
992.364	2743.88
997.515	2749.88
1002.66	2770.88
1007.801	2824.88
1012.936	2842.88
1018.066	2817.88
1023.19	2836.88
1028.309	2844.88
1033.423	2862.88
1038.532	2866.88
1043.636	2843.88
1048.734	2824.88
1053.827	2793.88
1058.915	2755.88
1063.998	2741.88
1069.075	2717.88
1074.147	2754.88
1079.214	2718.88
1084.276	2764.88
1089.333	2753.88
1094.385	2773.88
1099.431	2762.88
1104.472	2748.88
1109.509	2700.88
1114.54	2660.88
1119.565	2612.88
1124.586	2576.88
1129.602	2568.88
1134.613	2514.88
1139.618	2533.88
1144.619	2508.88
1149.614	2541.88
1154.604	2548.88
1159.589	2537.88
1164.57	2552.88
1169.545	2553.88
1174.515	2558.88
1179.48	2548.88
1184.44	2532.88
1189.395	2520.88
1194.345	2469.88
1199.29	2471.88
1204.23	2483.88
1209.165	2470.88
1214.095	2492.88
1219.021	2495.88
1223.941	2487.88
1228.856	2510.88
1233.766	2528.88
1238.672	2521.88
1243.572	2516.88
1248.467	2490.88
1253.358	2467.88
1258.244	2400.88
1263.124	2387.88
1268	2351.88
1272.871	2292.88
1277.737	2276.88
1282.599	2272.88
1287.455	2258.88
1292.306	2283.88
1297.153	2271.88
1301.995	2288.88
1306.832	2277.88
1311.664	2307.88
1316.491	2299.88
1321.314	2285.88
1326.132	2281.88
1330.945	2250.88
1335.753	2190.88
1340.556	2166.88
1345.354	2133.88
1350.148	2105.88
1354.937	2111.88
1359.722	2053.88
1364.501	2052.88
1369.276	2050.88
1374.046	2048.88
1378.811	2016.88
1383.572	2050.88
1388.327	2039.88
1393.079	1999.88
1397.825	1999.88
1402.567	1994.88
1407.304	1968.88
1412.036	1978.88
1416.764	1967.88
1421.487	1932.88
1426.205	1960.88
1430.919	1947.88
1435.628	1956.88
1440.333	1958.88
1445.032	1975.88
1449.727	2004.88
1454.418	2010.88
1459.104	1999.88
1463.785	1969.88
1468.462	1964.88
1473.134	1921.88
1477.802	1902.88
1482.465	1834.88
1487.123	1853.88
1491.777	1804.88
1496.426	1813.88
1501.071	1825.88
1505.711	1843.88
1510.347	1866.88
1514.978	1850.88
1519.604	1852.88
1524.226	1881.88
1528.844	1842.88
1533.457	1843.88
1538.065	1813.88
1542.669	1806.88
1547.269	1793.88
1551.864	1784.88
1556.454	1780.88
1561.041	1763.88
1565.622	1767.88
1570.199	1785.88
1574.772	1790.88
1579.34	1815.88
1583.904	1829.88
1588.464	1846.88
1593.019	1835.88
1597.569	1834.88
1602.115	1849.88
1606.657	1835.88
1611.195	1823.88
1615.728	1837.88
1620.256	1788.88
1624.78	1772.88
1629.3	1824.88
1633.816	1811.88
1638.327	1816.88
1642.834	1860.88
1647.336	1851.88
1651.834	1875.88
1656.328	1872.88
1660.817	1860.88
1665.302	1846.88
1669.783	1818.88
1674.259	1780.88
1678.732	1756.88
1683.199	1689.88
1687.663	1652.88
1692.122	1647.88
1696.577	1592.88
1701.028	1566.88
1705.474	1543.88
1709.917	1501.88
1714.355	1485.88
1718.788	1472.88
1723.218	1451.88
1727.643	1439.88
1732.064	1430.88
1736.481	1387.88
1740.893	1371.88
1745.301	1354.88
1749.705	1295.88
1754.105	1287.88
1758.501	1259.88
1762.893	1243.88
1767.28	1206.88
1771.663	1202.88
1776.042	1190.88
1780.417	1189.88
1784.787	1206.88
1789.154	1195.88
1793.516	1202.88
1797.874	1193.88
1802.228	1193.88
1806.578	1175.88
1810.924	1189.88
1815.266	1063.88
1819.603	1150.88
1823.937	1110.88
1828.266	1114.88
1832.591	1108.88
1836.913	1096.88
1841.23	1082.88
1845.543	1085.88
1849.852	1088.88
1854.156	1086.88
1858.457	1088.88
1862.754	1088.88
1867.047	1094.88
1871.335	1119.88
1875.62	1103.88
1879.9	1105.88
1884.177	1084.88
1888.449	1086.88
1892.718	1083.88
1896.982	1083.88
1901.243	1058.88
1905.499	1046.88
1909.752	1050.88
1914	1027.88
1918.245	1061.88
1922.485	1066.88
1926.722	1071.88
1930.954	1063.88
1935.183	1077.88
1939.408	1087.88
1943.628	1071.88
1947.845	1071.88
1952.058	1047.88
1956.267	1025.88
1960.472	1020.88
1964.673	1020.88
1968.87	995.88
1973.063	972.88
1977.252	954.88
1981.438	949.88
1985.619	928.88
1989.797	915.88
1993.971	917.88
1998.14	939.88
2002.306	928.88
2006.469	926.88
2010.627	913.88
2014.781	915.88
2018.932	906.88
2023.078	922.88
2027.221	907.88
2031.36	878.88
2035.495	872.88
2039.627	857.88
2043.754	857.88
2047.878	842.88
2051.998	861.88
2056.114	839.88
2060.226	846.88
2064.334	862.88
2068.439	868.88
2072.54	866.88
2076.637	854.88
2080.73	869.88
2084.82	867.88
2088.906	853.88
2092.988	851.88
2097.066	861.88
2101.14	855.88
2105.211	843.88
2109.278	823.88
2113.342	804.88
2117.401	812.88
2121.457	798.88
2125.509	786.88
2129.558	792.88
2133.602	770.88
2137.643	772.88
2141.681	770.88
2145.714	769.88
2149.744	762.88
2153.77	758.88
2157.793	744.88
2161.812	717.88
2165.827	699.88
2169.838	732.88
2173.846	705.88
2177.851	688.88
2181.851	685.88
2185.848	686.88
2189.841	671.88
2193.831	662.88
2197.817	666.88
2201.799	660.88
2205.778	637.88
2209.753	641.88
2213.725	627.88
2217.693	651.88
2221.657	617.88
2225.618	637.88
2229.575	629.88
2233.529	622.88
2237.479	629.88
2241.425	607.88
2245.368	593.88
2249.307	582.88
2253.243	578.88
2257.175	595.88
2261.104	570.88
2265.029	568.88
2268.95	569.88
2272.868	551.88
2276.783	532.88
2280.694	549.88
2284.601	525.88
2288.505	523.88
2292.405	519.88
2296.302	496.88
2300.195	500.88
2304.085	472.88
2307.971	488.88
2311.854	461.88
2315.734	473.88
2319.609	473.88
2323.482	443.88
2327.351	455.88
2331.216	462.88
2335.078	457.88
2338.937	447.88
2342.792	436.88
2346.643	436.88
2350.492	455.88
2354.336	439.88
2358.178	445.88
2362.015	443.88
2365.85	446.88
2369.681	439.88
2373.508	444.88
2377.333	457.88
2381.153	456.88
2384.971	439.88
2388.785	439.88
2392.595	421.88
2396.402	421.88
2400.206	405.88
2404.007	417.88
2407.804	424.88
2411.597	418.88
2415.388	422.88
2419.174	412.88
2422.958	416.88
2426.738	406.88
2430.515	412.88
2434.289	402.88
2438.059	392.88
2441.825	393.88
2445.589	405.88
2449.349	381.88
2453.106	391.88
2456.859	387.88
2460.61	386.88
2464.356	369.88
2468.1	372.88
2471.84	370.88
2475.577	368.88
2479.311	366.88
2483.041	358.88
2486.768	377.88
2490.492	373.88
2494.213	374.88
2497.93	346.88
2501.644	349.88
2505.355	355.88
2509.062	347.88
2512.766	351.88
2516.467	346.88
2520.165	347.88
2523.859	336.88
2527.551	364.88
2531.239	334.88
2534.923	333.88
2538.605	337.88
2542.283	345.88
2545.958	345.88
2549.63	335.88
2553.299	347.88
2556.964	323.88
2560.626	324.88
2564.285	328.88
2567.941	320.88
2571.594	319.88
2575.243	327.88
2578.89	316.88
2582.533	317.88
2586.173	309.88
2589.809	316.88
2593.443	281.88
2597.073	300.88
2600.701	306.88
2604.325	297.88
2607.946	282.88
2611.564	306.88
2615.178	294.88
2618.79	293.88
2622.398	283.88
2626.004	294.88
2629.606	290.88
2633.205	274.88
2636.801	282.88
2640.394	279.88
2643.983	266.88
2647.57	263.88
2651.153	263.88
2654.734	271.88
2658.311	240.88
2661.885	246.88
2665.456	255.88
2669.025	245.88
2672.589	250.88
2676.151	258.88
2679.71	262.88
2683.266	246.88
2686.819	235.88
2690.368	245.88
2693.915	246.88
2697.458	242.88
2700.999	242.88
2704.536	240.88
2708.071	222.88
2711.602	225.88
2715.13	219.88
2718.656	209.88
2722.178	227.88
2725.697	205.88
2729.214	214.88
2732.727	224.88
2736.237	208.88
2739.744	215.88
2743.249	212.88
2746.75	224.88
2750.248	213.88
2753.743	214.88
2757.236	211.88
2760.725	222.88
2764.211	185.88
2767.695	213.88
2771.175	212.88
2774.652	224.88
2778.127	207.88
2781.598	214.88
2785.067	206.88
2788.532	198.88
2791.995	210.88
2795.455	205.88
2798.911	209.88
2802.365	203.88
2805.816	208.88
2809.264	216.88
2812.709	206.88
2816.151	212.88
2819.59	196.88
2823.026	208.88
2826.46	206.88
2829.89	214.88
2833.318	198.88
2836.742	208.88
2840.164	211.88
2843.583	218.88
2846.999	210.88
2850.412	218.88
2853.822	213.88
2857.229	231.88
2860.634	222.88
2864.035	205.88
2867.434	227.88
2870.83	233.88
2874.223	238.88
2877.613	230.88
2881	232.88
2884.385	240.88
2887.766	233.88
2891.145	235.88
2894.521	233.88
2897.894	230.88
2901.264	240.88
2904.631	243.88
2907.996	241.88
2911.358	244.88
2914.717	253.88
2918.073	247.88
2921.426	252.88
2924.777	244.88
2928.124	249.88
2931.469	274.88
2934.811	263.88
2938.15	288.88
2941.487	267.88
2944.821	297.88
2948.152	278.88
2951.48	282.88
2954.805	264.88
2958.128	292.88
2961.447	269.88
2964.765	283.88
2968.079	276.88
2971.39	285.88
2974.699	286.88
2978.005	286.88
2981.308	285.88
2984.609	277.88
2987.907	293.88
2991.202	309.88
2994.494	276.88
2997.784	303.88
3001.07	303.88
3004.355	293.88
3007.636	314.88
3010.915	315.88
3014.191	299.88
3017.464	304.88
3020.734	310.88
3024.002	315.88
3027.267	318.88
3030.53	323.88
3033.789	319.88
3037.046	323.88
3040.301	319.88
3043.552	339.88
3046.801	344.88
3050.048	359.88
3053.291	374.88
3056.532	366.88
3059.771	369.88
3063.006	389.88
3066.239	402.88
3069.469	408.88
3072.697	408.88
3075.922	412.88
3079.144	430.88
3082.364	454.88
3085.581	447.88
3088.795	471.88
3092.007	477.88
3095.216	493.88
3098.423	488.88
3101.627	477.88
3104.828	501.88
3108.026	497.88
3111.222	536.88
3114.416	551.88
3117.607	553.88
3120.795	563.88
3123.98	572.88
3127.163	560.88
3130.344	596.88
3133.521	605.88
3136.696	619.88
3139.869	637.88
3143.039	629.88
3146.206	661.88
3149.371	665.88
3152.533	658.88
3155.693	651.88
3158.85	679.88
3162.005	676.88
3165.157	676.88
3168.306	673.88
3171.453	681.88
3174.597	668.88
3177.739	664.88
3180.878	684.88
3184.014	694.88
3187.149	681.88
3190.28	692.88
3193.409	712.88
3196.536	693.88
3199.659	704.88
3202.781	699.88
3205.9	695.88
3209.016	699.88
3212.13	704.88
3215.241	696.88
3218.35	692.88
3221.456	686.88
3224.56	674.88
3227.661	684.88
3230.76	666.88
3233.856	658.88
3236.95	668.88
3240.041	649.88
3243.13	666.88
3246.216	648.88
3249.3	650.88
3252.382	643.88
3255.46	636.88
3258.537	595.88
3261.611	638.88
3264.682	634.88
3267.751	629.88
3270.818	623.88
3273.882	628.88
3276.943	625.88
3280.002	622.88
3283.059	609.88
3286.113	603.88
3289.165	584.88
3292.214	587.88
3295.261	599.88
3298.306	575.88
3301.348	570.88
3304.387	546.88
3307.425	560.88
3310.459	550.88
3313.492	554.88
3316.521	546.88
3319.549	543.88
3322.574	535.88
3325.597	532.88
3328.617	519.88
3331.635	522.88
3334.65	494.88
3337.663	526.88
3340.674	501.88
3343.682	520.88
3346.688	533.88
3349.691	505.88
3352.692	515.88
3355.691	505.88
3358.687	506.88
3361.681	513.88
3364.673	485.88
3367.662	488.88
3370.649	497.88
3373.633	464.88
3376.615	469.88
3379.595	457.88
3382.572	461.88
3385.547	458.88
3388.52	444.88
3391.49	445.88
3394.458	445.88
3397.424	445.88
3400.387	426.88
3403.348	437.88
3406.307	414.88
3409.263	413.88
3412.217	430.88
3415.168	409.88
3418.118	414.88
3421.065	409.88
3424.009	408.88
3426.951	394.88
3429.891	392.88
3432.829	379.88
3435.764	382.88
3438.697	358.88
3441.628	374.88
3444.557	347.88
3447.483	348.88
3450.407	347.88
3453.328	318.88
3456.247	328.88
3459.164	305.88
3462.079	321.88
3464.991	297.88
3467.902	291.88
3470.809	273.88
3473.715	287.88
3476.618	269.88
3479.519	274.88
3482.418	235.88
3485.315	241.88
3488.209	239.88
3491.101	239.88
3493.99	219.88
3496.878	223.88
3499.763	223.88
3502.646	219.88
3505.527	207.88
3508.405	203.88
3511.281	180.88
3514.155	187.88
3517.027	179.88
3519.897	165.88
3522.764	174.88
3525.629	140.88
3528.492	156.88
3531.352	151.88
3534.211	142.88
3537.067	128.88
3539.921	130.88
3542.773	133.88
3545.622	111.88
3548.469	104.88
3551.315	109.88
3554.157	102.88
3556.998	89.88
3559.837	95.88
3562.673	94.88
3565.507	80.88
3568.339	74.88
3571.169	78.88
3573.996	75.88
3576.822	53.88
3579.645	67.88
3582.466	61.88
3585.285	64.88
3588.101	59.88
3590.916	51.88
3593.728	57.88
3596.538	46.88
3599.346	47.88
3602.152	41.88
3604.956	41.88
3607.757	42.88
3610.556	27.88
3613.354	38.88
3616.149	36.88
3618.942	39.88
3621.732	31.88
3624.521	30.88
3627.307	15.88
3630.092	14.88
3632.874	31.88
3635.654	16.88
3638.432	9.88
3641.208	11.88
3643.982	15.88
3646.753	21.88
3649.523	-13.12
3652.29	8.88
3655.055	13.88
3657.818	4.88
3660.579	1.88
3663.338	-9.12
3666.095	-1.12
3668.849	-24.12
3671.602	0.88
3674.352	-12.12
3677.101	2.88
3679.847	2.88
3682.591	-16.12
3685.333	-22.12
3688.073	-7.12
3690.811	-23.12
3693.547	-24.12
3696.281	-26.12
3699.013	-9.12
3701.742	-18.12
3704.47	-28.12
3707.195	-9.12
3709.919	-15.12
3712.64	-18.12
3715.359	-25.12
3718.076	-9.12
3720.792	-21.12
3723.505	-18.12
3726.216	-7.12
3728.925	-20.12
3731.632	-29.12
3734.336	-20.12
3737.039	-20.12
3739.74	-17.12
3742.439	-46.12
3745.136	-15.12
3747.83	-17.12
3750.523	-19.12
3753.213	-87.12
3755.902	-20.12
3758.589	-38.12
3761.273	-26.12
3763.956	-16.12
3766.636	-39.12
3769.315	-19.12
3771.991	-25.12
3774.665	-32.12
3777.338	-23.12
3780.008	-34.12
3782.677	-25.12
3785.343	-47.12
3788.007	-47.12
3790.67	-20.12
3793.33	-40.12
3795.989	-33.12
3798.645	-22.12
3801.299	-42.12
3803.952	-38.12
3806.602	-33.12
3809.251	-22.12
3811.897	-28.12
3814.542	-32.12
3817.184	-31.12
3819.825	-31.12
3822.463	-40.12
3825.1	-27.12
3827.735	-27.12
3830.367	-40.12
3832.998	-19.12
3835.627	-33.12
3838.253	-24.12
3840.878	-32.12
3843.501	-12.12
3846.122	-26.12
3848.741	-22.12
3851.358	-21.12
3853.973	-39.12
3856.586	-20.12
3859.197	-36.12
3861.806	-27.12
3864.414	-42.12
3867.019	-26.12
3869.622	-12.12
3872.224	-12.12
3874.823	8.88
3877.421	46.88
3880.016	70.88
3882.61	133.88
3885.202	145.88
3887.792	104.88
3890.38	59.88
3892.966	5.88
3895.55	-21.12
3898.132	-16.12
3900.713	-18.12
3903.291	-24.12
3905.868	-37.12
3908.442	-26.12
3911.015	-30.12
3913.586	-29.12
3916.155	-31.12
3918.722	-34.12
3921.287	-31.12
3923.85	-43.12
3926.411	-37.12
3928.971	-32.12
3931.528	-32.12
3934.084	-35.12
3936.638	-40.12
3939.19	-29.12
3941.74	-33.12
3944.288	-36.12
3946.834	-32.12
3949.378	-24.12
3951.921	-38.12
3954.462	-28.12
3957	-29.12
3959.537	-16.12
3962.072	-24.12
3964.606	-42.12
3967.137	-34.12
3969.667	-37.12
3972.194	-30.12
3974.72	-31.12
3977.244	-53.12
3979.766	-37.12
3982.286	-36.12
3984.805	-25.12
3987.321	-21.12
3989.836	-19.12
3992.349	-36.12
3994.86	-31.12
3997.369	-39.12
3999.877	-32.12
4002.382	-32.12
4004.886	-24.12
4007.388	-20.12
4009.888	-18.12
4012.386	-16.12
4014.883	-26.12
4017.377	-30.12
4019.87	-27.12
4022.361	-36.12
4024.85	-32.12
4027.338	-28.12
4029.823	-30.12
4032.307	-30.12
4034.789	-27.12
4037.269	-28.12
4039.747	-39.12
4042.224	-24.12
4044.699	-31.12
4047.172	-32.12
4049.643	-23.12
4052.112	-55.12
4054.58	-28.12
4057.046	-41.12
4059.51	-27.12
4061.972	-27.12
4064.432	-43.12
4066.891	-14.12
4069.348	-26.12
4071.803	-24.12
4074.256	-32.12
4076.708	-24.12
4079.158	-29.12
4081.606	-19.12
4084.052	-30.12
4086.497	-20.12
4088.939	-28.12
4091.38	-33.12
4093.819	-21.12
4096.257	-1.12
4098.693	-7.12
4101.127	-4.12
4103.559	3.88
4105.989	151.88
4108.418	161.88
4110.845	145.88
4113.27	154.88
4115.694	162.88
4118.115	146.88
4120.535	-23.12
4122.954	-22.12
4125.37	-15.12
4127.785	-25.12
4130.198	-20.12
4132.609	-20.12
4135.019	9.88
4137.427	1.88
4139.833	3.88
4142.237	-7.12
