Data from 2018-3-6_conc=3_n=3_RamanShift_03.txt Node
Date: Tue Mar 06 13:21:19 GMT+02:00 2018
User: LAB3
Spectrometer: QEPB0276
Trigger mode: 0
Integration Time (sec): 3.000000E1
Scans to average: 1
Electric dark correction enabled: true
Nonlinearity correction enabled: false
Boxcar width: 0
XAxis mode: Raman Shifts
Number of Pixels in Spectrum: 1044
>>>>>Begin Spectral Data<<<<<
160.701	139.75
166.742	179.75
172.777	269.75
178.805	528.75
184.826	1230.75
190.841	2449.75
196.849	3863.75
202.85	4929.75
208.845	5376.75
214.833	5359.75
220.815	5321.75
226.789	5302.75
232.758	5369.75
238.719	5344.75
244.674	5337.75
250.623	5291.75
256.565	5231.75
262.5	5219.75
268.429	5209.75
274.351	5148.75
280.267	5140.75
286.176	5193.75
292.079	5154.75
297.975	5204.75
303.865	5183.75
309.748	5217.75
315.625	5229.75
321.495	5234.75
327.359	5208.75
333.217	5244.75
339.068	5267.75
344.912	5300.75
350.751	5304.75
356.583	5341.75
362.408	5349.75
368.227	5373.75
374.04	5395.75
379.847	5442.75
385.647	5458.75
391.44	5495.75
397.228	5510.75
403.009	5540.75
408.784	5558.75
414.553	5601.75
420.315	5623.75
426.071	5618.75
431.821	5624.75
437.565	5603.75
443.302	5571.75
449.033	5557.75
454.758	5522.75
460.477	5470.75
466.189	5450.75
471.896	5422.75
477.596	5352.75
483.29	5309.75
488.978	5311.75
494.66	5253.75
500.335	5150.75
506.005	4921.75
511.668	4671.75
517.325	4443.75
522.977	4255.75
528.622	4151.75
534.261	4031.75
539.894	3964.75
545.521	3893.75
551.141	3840.75
556.756	3803.75
562.365	3807.75
567.968	3743.75
573.565	3720.75
579.155	3677.75
584.74	3691.75
590.319	3667.75
595.892	3662.75
601.459	3647.75
607.02	3662.75
612.575	3640.75
618.124	3604.75
623.667	3494.75
629.204	3487.75
634.735	3458.75
640.261	3405.75
645.781	3355.75
651.294	3343.75
656.802	3353.75
662.304	3349.75
667.8	3324.75
673.29	3290.75
678.775	3308.75
684.254	3314.75
689.726	3252.75
695.193	3265.75
700.655	3238.75
706.11	3217.75
711.56	3208.75
717.004	3187.75
722.442	3152.75
727.874	3151.75
733.301	3144.75
738.722	3120.75
744.137	3127.75
749.547	3111.75
754.951	3125.75
760.349	3139.75
765.741	3152.75
771.128	3167.75
776.509	3186.75
781.885	3265.75
787.254	3273.75
792.618	3282.75
797.977	3302.75
803.33	3266.75
808.677	3237.75
814.019	3188.75
819.355	3180.75
824.686	3133.75
830.011	3122.75
835.33	3132.75
840.644	3109.75
845.952	3086.75
851.255	3067.75
856.552	3028.75
861.844	2984.75
867.13	2965.75
872.41	2929.75
877.686	2903.75
882.955	2902.75
888.219	2865.75
893.478	2821.75
898.731	2773.75
903.979	2761.75
909.221	2730.75
914.458	2699.75
919.69	2703.75
924.916	2703.75
930.136	2709.75
935.351	2703.75
940.561	2719.75
945.766	2725.75
950.965	2703.75
956.158	2682.75
961.347	2629.75
966.529	2610.75
971.707	2583.75
976.879	2544.75
982.046	2510.75
987.208	2509.75
992.364	2510.75
997.515	2516.75
1002.66	2534.75
1007.801	2567.75
1012.936	2589.75
1018.066	2579.75
1023.19	2604.75
1028.309	2612.75
1033.423	2603.75
1038.532	2611.75
1043.636	2579.75
1048.734	2564.75
1053.827	2523.75
1058.915	2512.75
1063.998	2500.75
1069.075	2487.75
1074.147	2495.75
1079.214	2474.75
1084.276	2497.75
1089.333	2508.75
1094.385	2505.75
1099.431	2511.75
1104.472	2506.75
1109.509	2448.75
1114.54	2423.75
1119.565	2416.75
1124.586	2353.75
1129.602	2341.75
1134.613	2295.75
1139.618	2299.75
1144.619	2291.75
1149.614	2306.75
1154.604	2316.75
1159.589	2317.75
1164.57	2324.75
1169.545	2337.75
1174.515	2333.75
1179.48	2321.75
1184.44	2310.75
1189.395	2291.75
1194.345	2250.75
1199.29	2269.75
1204.23	2253.75
1209.165	2229.75
1214.095	2274.75
1219.021	2264.75
1223.941	2270.75
1228.856	2314.75
1233.766	2314.75
1238.672	2306.75
1243.572	2290.75
1248.467	2298.75
1253.358	2251.75
1258.244	2203.75
1263.124	2185.75
1268	2153.75
1272.871	2097.75
1277.737	2072.75
1282.599	2071.75
1287.455	2074.75
1292.306	2078.75
1297.153	2070.75
1301.995	2089.75
1306.832	2088.75
1311.664	2099.75
1316.491	2092.75
1321.314	2107.75
1326.132	2070.75
1330.945	2060.75
1335.753	2013.75
1340.556	1969.75
1345.354	1933.75
1350.148	1919.75
1354.937	1916.75
1359.722	1868.75
1364.501	1877.75
1369.276	1857.75
1374.046	1869.75
1378.811	1847.75
1383.572	1849.75
1388.327	1841.75
1393.079	1823.75
1397.825	1813.75
1402.567	1801.75
1407.304	1787.75
1412.036	1798.75
1416.764	1783.75
1421.487	1787.75
1426.205	1771.75
1430.919	1776.75
1435.628	1782.75
1440.333	1760.75
1445.032	1799.75
1449.727	1819.75
1454.418	1827.75
1459.104	1816.75
1463.785	1774.75
1468.462	1766.75
1473.134	1739.75
1477.802	1699.75
1482.465	1684.75
1487.123	1667.75
1491.777	1632.75
1496.426	1620.75
1501.071	1662.75
1505.711	1646.75
1510.347	1684.75
1514.978	1692.75
1519.604	1661.75
1524.226	1697.75
1528.844	1661.75
1533.457	1654.75
1538.065	1641.75
1542.669	1628.75
1547.269	1623.75
1551.864	1632.75
1556.454	1613.75
1561.041	1601.75
1565.622	1619.75
1570.199	1617.75
1574.772	1627.75
1579.34	1639.75
1583.904	1666.75
1588.464	1673.75
1593.019	1671.75
1597.569	1670.75
1602.115	1650.75
1606.657	1660.75
1611.195	1672.75
1615.728	1676.75
1620.256	1624.75
1624.78	1621.75
1629.3	1644.75
1633.816	1646.75
1638.327	1646.75
1642.834	1669.75
1647.336	1661.75
1651.834	1679.75
1656.328	1678.75
1660.817	1680.75
1665.302	1670.75
1669.783	1640.75
1674.259	1601.75
1678.732	1581.75
1683.199	1545.75
1687.663	1491.75
1692.122	1472.75
1696.577	1435.75
1701.028	1432.75
1705.474	1380.75
1709.917	1363.75
1714.355	1333.75
1718.788	1331.75
1723.218	1298.75
1727.643	1288.75
1732.064	1287.75
1736.481	1242.75
1740.893	1253.75
1745.301	1210.75
1749.705	1165.75
1754.105	1162.75
1758.501	1129.75
1762.893	1126.75
1767.28	1087.75
1771.663	1092.75
1776.042	1055.75
1780.417	1066.75
1784.787	1066.75
1789.154	1092.75
1793.516	1081.75
1797.874	1071.75
1802.228	1065.75
1806.578	1057.75
1810.924	1070.75
1815.266	935.75
1819.603	1044.75
1823.937	1009.75
1828.266	1023.75
1832.591	1017.75
1836.913	1011.75
1841.23	993.75
1845.543	977.75
1849.852	984.75
1854.156	990.75
1858.457	987.75
1862.754	983.75
1867.047	987.75
1871.335	998.75
1875.62	982.75
1879.9	992.75
1884.177	966.75
1888.449	985.75
1892.718	975.75
1896.982	977.75
1901.243	957.75
1905.499	947.75
1909.752	951.75
1914	932.75
1918.245	964.75
1922.485	962.75
1926.722	952.75
1930.954	950.75
1935.183	970.75
1939.408	968.75
1943.628	971.75
1947.845	953.75
1952.058	957.75
1956.267	937.75
1960.472	928.75
1964.673	914.75
1968.87	904.75
1973.063	883.75
1977.252	874.75
1981.438	845.75
1985.619	846.75
1989.797	815.75
1993.971	837.75
1998.14	845.75
2002.306	836.75
2006.469	837.75
2010.627	822.75
2014.781	805.75
2018.932	803.75
2023.078	838.75
2027.221	805.75
2031.36	783.75
2035.495	788.75
2039.627	771.75
2043.754	775.75
2047.878	778.75
2051.998	758.75
2056.114	757.75
2060.226	752.75
2064.334	771.75
2068.439	773.75
2072.54	774.75
2076.637	759.75
2080.73	774.75
2084.82	768.75
2088.906	779.75
2092.988	758.75
2097.066	768.75
2101.14	774.75
2105.211	760.75
2109.278	740.75
2113.342	722.75
2117.401	717.75
2121.457	707.75
2125.509	690.75
2129.558	695.75
2133.602	690.75
2137.643	685.75
2141.681	675.75
2145.714	687.75
2149.744	686.75
2153.77	665.75
2157.793	660.75
2161.812	638.75
2165.827	629.75
2169.838	646.75
2173.846	612.75
2177.851	622.75
2181.851	618.75
2185.848	594.75
2189.841	600.75
2193.831	609.75
2197.817	599.75
2201.799	588.75
2205.778	571.75
2209.753	575.75
2213.725	567.75
2217.693	567.75
2221.657	562.75
2225.618	563.75
2229.575	560.75
2233.529	560.75
2237.479	551.75
2241.425	539.75
2245.368	529.75
2249.307	534.75
2253.243	508.75
2257.175	523.75
2261.104	500.75
2265.029	494.75
2268.95	500.75
2272.868	483.75
2276.783	480.75
2280.694	472.75
2284.601	461.75
2288.505	470.75
2292.405	468.75
2296.302	440.75
2300.195	449.75
2304.085	422.75
2307.971	442.75
2311.854	402.75
2315.734	421.75
2319.609	419.75
2323.482	394.75
2327.351	408.75
2331.216	396.75
2335.078	418.75
2338.937	404.75
2342.792	398.75
2346.643	393.75
2350.492	401.75
2354.336	394.75
2358.178	397.75
2362.015	392.75
2365.85	388.75
2369.681	398.75
2373.508	392.75
2377.333	411.75
2381.153	391.75
2384.971	391.75
2388.785	390.75
2392.595	382.75
2396.402	382.75
2400.206	357.75
2404.007	366.75
2407.804	377.75
2411.597	381.75
2415.388	361.75
2419.174	372.75
2422.958	363.75
2426.738	364.75
2430.515	366.75
2434.289	346.75
2438.059	350.75
2441.825	351.75
2445.589	359.75
2449.349	338.75
2453.106	354.75
2456.859	340.75
2460.61	340.75
2464.356	327.75
2468.1	322.75
2471.84	317.75
2475.577	321.75
2479.311	324.75
2483.041	319.75
2486.768	334.75
2490.492	332.75
2494.213	322.75
2497.93	316.75
2501.644	300.75
2505.355	315.75
2509.062	314.75
2512.766	309.75
2516.467	307.75
2520.165	314.75
2523.859	293.75
2527.551	322.75
2531.239	298.75
2534.923	305.75
2538.605	298.75
2542.283	297.75
2545.958	302.75
2549.63	310.75
2553.299	311.75
2556.964	291.75
2560.626	299.75
2564.285	293.75
2567.941	286.75
2571.594	271.75
2575.243	286.75
2578.89	280.75
2582.533	271.75
2586.173	283.75
2589.809	282.75
2593.443	251.75
2597.073	268.75
2600.701	263.75
2604.325	263.75
2607.946	255.75
2611.564	275.75
2615.178	257.75
2618.79	259.75
2622.398	254.75
2626.004	262.75
2629.606	252.75
2633.205	246.75
2636.801	250.75
2640.394	237.75
2643.983	235.75
2647.57	234.75
2651.153	224.75
2654.734	238.75
2658.311	209.75
2661.885	217.75
2665.456	223.75
2669.025	222.75
2672.589	210.75
2676.151	237.75
2679.71	232.75
2683.266	219.75
2686.819	216.75
2690.368	206.75
2693.915	216.75
2697.458	211.75
2700.999	203.75
2704.536	204.75
2708.071	201.75
2711.602	202.75
2715.13	205.75
2718.656	180.75
2722.178	196.75
2725.697	188.75
2729.214	187.75
2732.727	185.75
2736.237	174.75
2739.744	186.75
2743.249	173.75
2746.75	185.75
2750.248	183.75
2753.743	195.75
2757.236	189.75
2760.725	194.75
2764.211	157.75
2767.695	186.75
2771.175	180.75
2774.652	186.75
2778.127	181.75
2781.598	180.75
2785.067	176.75
2788.532	167.75
2791.995	184.75
2795.455	174.75
2798.911	184.75
2802.365	175.75
2805.816	182.75
2809.264	181.75
2812.709	179.75
2816.151	188.75
2819.59	174.75
2823.026	180.75
2826.46	179.75
2829.89	189.75
2833.318	166.75
2836.742	175.75
2840.164	188.75
2843.583	181.75
2846.999	177.75
2850.412	191.75
2853.822	179.75
2857.229	201.75
2860.634	194.75
2864.035	185.75
2867.434	206.75
2870.83	204.75
2874.223	194.75
2877.613	204.75
2881	190.75
2884.385	198.75
2887.766	207.75
2891.145	205.75
2894.521	207.75
2897.894	198.75
2901.264	213.75
2904.631	216.75
2907.996	206.75
2911.358	219.75
2914.717	217.75
2918.073	207.75
2921.426	208.75
2924.777	200.75
2928.124	222.75
2931.469	235.75
2934.811	212.75
2938.15	242.75
2941.487	231.75
2944.821	249.75
2948.152	235.75
2951.48	246.75
2954.805	224.75
2958.128	245.75
2961.447	231.75
2964.765	256.75
2968.079	240.75
2971.39	238.75
2974.699	246.75
2978.005	243.75
2981.308	243.75
2984.609	252.75
2987.907	258.75
2991.202	263.75
2994.494	247.75
2997.784	250.75
3001.07	265.75
3004.355	260.75
3007.636	268.75
3010.915	268.75
3014.191	266.75
3017.464	277.75
3020.734	267.75
3024.002	282.75
3027.267	273.75
3030.53	280.75
3033.789	282.75
3037.046	285.75
3040.301	282.75
3043.552	300.75
3046.801	301.75
3050.048	313.75
3053.291	331.75
3056.532	318.75
3059.771	320.75
3063.006	341.75
3066.239	340.75
3069.469	355.75
3072.697	354.75
3075.922	364.75
3079.144	373.75
3082.364	394.75
3085.581	385.75
3088.795	422.75
3092.007	407.75
3095.216	425.75
3098.423	429.75
3101.627	414.75
3104.828	430.75
3108.026	446.75
3111.222	474.75
3114.416	485.75
3117.607	479.75
3120.795	492.75
3123.98	506.75
3127.163	506.75
3130.344	513.75
3133.521	514.75
3136.696	545.75
3139.869	551.75
3143.039	555.75
3146.206	585.75
3149.371	575.75
3152.533	574.75
3155.693	573.75
3158.85	590.75
3162.005	581.75
3165.157	586.75
3168.306	587.75
3171.453	595.75
3174.597	598.75
3177.739	588.75
3180.878	600.75
3184.014	595.75
3187.149	607.75
3190.28	598.75
3193.409	609.75
3196.536	615.75
3199.659	616.75
3202.781	622.75
3205.9	602.75
3209.016	606.75
3212.13	614.75
3215.241	609.75
3218.35	602.75
3221.456	601.75
3224.56	595.75
3227.661	595.75
3230.76	593.75
3233.856	575.75
3236.95	577.75
3240.041	569.75
3243.13	582.75
3246.216	575.75
3249.3	574.75
3252.382	555.75
3255.46	556.75
3258.537	512.75
3261.611	551.75
3264.682	555.75
3267.751	547.75
3270.818	540.75
3273.882	557.75
3276.943	553.75
3280.002	568.75
3283.059	528.75
3286.113	528.75
3289.165	522.75
3292.214	503.75
3295.261	525.75
3298.306	487.75
3301.348	493.75
3304.387	485.75
3307.425	488.75
3310.459	483.75
3313.492	497.75
3316.521	474.75
3319.549	483.75
3322.574	466.75
3325.597	461.75
3328.617	456.75
3331.635	462.75
3334.65	445.75
3337.663	455.75
3340.674	455.75
3343.682	444.75
3346.688	454.75
3349.691	442.75
3352.692	450.75
3355.691	449.75
3358.687	436.75
3361.681	442.75
3364.673	434.75
3367.662	431.75
3370.649	438.75
3373.633	413.75
3376.615	419.75
3379.595	398.75
3382.572	395.75
3385.547	391.75
3388.52	386.75
3391.49	378.75
3394.458	387.75
3397.424	388.75
3400.387	370.75
3403.348	381.75
3406.307	373.75
3409.263	362.75
3412.217	360.75
3415.168	365.75
3418.118	372.75
3421.065	357.75
3424.009	359.75
3426.951	339.75
3429.891	341.75
3432.829	331.75
3435.764	337.75
3438.697	315.75
3441.628	319.75
3444.557	305.75
3447.483	302.75
3450.407	301.75
3453.328	282.75
3456.247	275.75
3459.164	262.75
3462.079	277.75
3464.991	253.75
3467.902	245.75
3470.809	248.75
3473.715	246.75
3476.618	225.75
3479.519	227.75
3482.418	212.75
3485.315	203.75
3488.209	203.75
3491.101	199.75
3493.99	188.75
3496.878	187.75
3499.763	184.75
3502.646	184.75
3505.527	172.75
3508.405	172.75
3511.281	157.75
3514.155	161.75
3517.027	149.75
3519.897	134.75
3522.764	140.75
3525.629	119.75
3528.492	127.75
3531.352	127.75
3534.211	115.75
3537.067	110.75
3539.921	110.75
3542.773	115.75
3545.622	96.75
3548.469	85.75
3551.315	78.75
3554.157	84.75
3556.998	79.75
3559.837	79.75
3562.673	73.75
3565.507	67.75
3568.339	60.75
3571.169	66.75
3573.996	60.75
3576.822	37.75
3579.645	40.75
3582.466	45.75
3585.285	47.75
3588.101	49.75
3590.916	40.75
3593.728	45.75
3596.538	35.75
3599.346	33.75
3602.152	24.75
3604.956	37.75
3607.757	35.75
3610.556	15.75
3613.354	33.75
3616.149	21.75
3618.942	27.75
3621.732	24.75
3624.521	16.75
3627.307	5.75
3630.092	7.75
3632.874	22.75
3635.654	13.75
3638.432	3.75
3641.208	4.75
3643.982	6.75
3646.753	19.75
3649.523	-19.25
3652.29	-2.25
3655.055	12.75
3657.818	-2.25
3660.579	-5.25
3663.338	-10.25
3666.095	-11.25
3668.849	-30.25
3671.602	3.75
3674.352	-17.25
3677.101	0.75
3679.847	-1.25
3682.591	-15.25
3685.333	-21.25
3688.073	-9.25
3690.811	-23.25
3693.547	-28.25
3696.281	-23.25
3699.013	-12.25
3701.742	-16.25
3704.47	-22.25
3707.195	-14.25
3709.919	-11.25
3712.64	-17.25
3715.359	-25.25
3718.076	-11.25
3720.792	-14.25
3723.505	-14.25
3726.216	-9.25
3728.925	-20.25
3731.632	-27.25
3734.336	-22.25
3737.039	-22.25
3739.74	-19.25
3742.439	-46.25
3745.136	-12.25
3747.83	-19.25
3750.523	-18.25
3753.213	-78.25
3755.902	-24.25
3758.589	-39.25
3761.273	-24.25
3763.956	-14.25
3766.636	-37.25
3769.315	-20.25
3771.991	-25.25
3774.665	-31.25
3777.338	-22.25
3780.008	-39.25
3782.677	-24.25
3785.343	-42.25
3788.007	-44.25
3790.67	-21.25
3793.33	-38.25
3795.989	-26.25
3798.645	-22.25
3801.299	-40.25
3803.952	-37.25
3806.602	-32.25
3809.251	-23.25
3811.897	-27.25
3814.542	-25.25
3817.184	-27.25
3819.825	-27.25
3822.463	-42.25
3825.1	-30.25
3827.735	-27.25
3830.367	-37.25
3832.998	-15.25
3835.627	-29.25
3838.253	-20.25
3840.878	-27.25
3843.501	-12.25
3846.122	-24.25
3848.741	-22.25
3851.358	-22.25
3853.973	-40.25
3856.586	-22.25
3859.197	-30.25
3861.806	-28.25
3864.414	-42.25
3867.019	-25.25
3869.622	-14.25
3872.224	-11.25
3874.823	1.75
3877.421	31.75
3880.016	47.75
3882.61	88.75
3885.202	101.75
3887.792	75.75
3890.38	37.75
3892.966	-3.25
3895.55	-23.25
3898.132	-17.25
3900.713	-19.25
3903.291	-25.25
3905.868	-36.25
3908.442	-28.25
3911.015	-28.25
3913.586	-28.25
3916.155	-33.25
3918.722	-33.25
3921.287	-36.25
3923.85	-47.25
3926.411	-35.25
3928.971	-36.25
3931.528	-26.25
3934.084	-32.25
3936.638	-42.25
3939.19	-27.25
3941.74	-27.25
3944.288	-30.25
3946.834	-37.25
3949.378	-18.25
3951.921	-39.25
3954.462	-27.25
3957	-26.25
3959.537	-11.25
3962.072	-32.25
3964.606	-43.25
3967.137	-30.25
3969.667	-33.25
3972.194	-28.25
3974.72	-32.25
3977.244	-54.25
3979.766	-34.25
3982.286	-34.25
3984.805	-25.25
3987.321	-17.25
3989.836	-22.25
3992.349	-35.25
3994.86	-30.25
3997.369	-35.25
3999.877	-32.25
4002.382	-30.25
4004.886	-24.25
4007.388	-24.25
4009.888	-17.25
4012.386	-21.25
4014.883	-22.25
4017.377	-23.25
4019.87	-21.25
4022.361	-36.25
4024.85	-25.25
4027.338	-23.25
4029.823	-31.25
4032.307	-30.25
4034.789	-28.25
4037.269	-25.25
4039.747	-41.25
4042.224	-22.25
4044.699	-34.25
4047.172	-29.25
4049.643	-21.25
4052.112	-45.25
4054.58	-21.25
4057.046	-39.25
4059.51	-30.25
4061.972	-26.25
4064.432	-48.25
4066.891	-15.25
4069.348	-28.25
4071.803	-20.25
4074.256	-32.25
4076.708	-23.25
4079.158	-25.25
4081.606	-17.25
4084.052	-26.25
4086.497	-23.25
4088.939	-28.25
4091.38	-29.25
4093.819	-24.25
4096.257	-0.25
4098.693	-6.25
4101.127	-7.25
4103.559	-1.25
4105.989	121.75
4108.418	128.75
4110.845	121.75
4113.27	121.75
4115.694	136.75
4118.115	122.75
4120.535	-26.25
4122.954	-22.25
4125.37	-17.25
4127.785	-18.25
4130.198	-17.25
4132.609	-25.25
4135.019	10.75
4137.427	0.75
4139.833	6.75
4142.237	-3.25
