Data from 2018-3-6_conc=2_n=10_RamanShift_03.txt Node
Date: Tue Mar 06 13:11:19 GMT+02:00 2018
User: LAB3
Spectrometer: QEPB0276
Trigger mode: 0
Integration Time (sec): 3.000000E1
Scans to average: 1
Electric dark correction enabled: true
Nonlinearity correction enabled: false
Boxcar width: 0
XAxis mode: Raman Shifts
Number of Pixels in Spectrum: 1044
>>>>>Begin Spectral Data<<<<<
160.701	153.75
166.742	186.75
172.777	286.75
178.805	573.75
184.826	1302.75
190.841	2632.75
196.849	4194.75
202.85	5373.75
208.845	5792.75
214.833	5765.75
220.815	5687.75
226.789	5727.75
232.758	5757.75
238.719	5792.75
244.674	5741.75
250.623	5731.75
256.565	5671.75
262.5	5587.75
268.429	5544.75
274.351	5572.75
280.267	5509.75
286.176	5573.75
292.079	5617.75
297.975	5591.75
303.865	5595.75
309.748	5615.75
315.625	5612.75
321.495	5642.75
327.359	5633.75
333.217	5634.75
339.068	5693.75
344.912	5746.75
350.751	5721.75
356.583	5757.75
362.408	5775.75
368.227	5808.75
374.04	5817.75
379.847	5838.75
385.647	5924.75
391.44	5906.75
397.228	5985.75
403.009	5986.75
408.784	6018.75
414.553	6035.75
420.315	6028.75
426.071	6018.75
431.821	6075.75
437.565	6071.75
443.302	6048.75
449.033	6026.75
454.758	6003.75
460.477	5944.75
466.189	5873.75
471.896	5827.75
477.596	5754.75
483.29	5744.75
488.978	5724.75
494.66	5679.75
500.335	5538.75
506.005	5284.75
511.668	5026.75
517.325	4772.75
522.977	4572.75
528.622	4412.75
534.261	4300.75
539.894	4234.75
545.521	4159.75
551.141	4086.75
556.756	4069.75
562.365	4019.75
567.968	3986.75
573.565	3974.75
579.155	3940.75
584.74	3889.75
590.319	3931.75
595.892	3924.75
601.459	3922.75
607.02	3889.75
612.575	3849.75
618.124	3830.75
623.667	3732.75
629.204	3683.75
634.735	3657.75
640.261	3599.75
645.781	3549.75
651.294	3544.75
656.802	3552.75
662.304	3557.75
667.8	3551.75
673.29	3519.75
678.775	3494.75
684.254	3466.75
689.726	3466.75
695.193	3450.75
700.655	3433.75
706.11	3396.75
711.56	3399.75
717.004	3389.75
722.442	3330.75
727.874	3335.75
733.301	3345.75
738.722	3301.75
744.137	3328.75
749.547	3322.75
754.951	3304.75
760.349	3289.75
765.741	3340.75
771.128	3359.75
776.509	3401.75
781.885	3451.75
787.254	3507.75
792.618	3494.75
797.977	3492.75
803.33	3461.75
808.677	3467.75
814.019	3417.75
819.355	3378.75
824.686	3374.75
830.011	3332.75
835.33	3317.75
840.644	3307.75
845.952	3271.75
851.255	3241.75
856.552	3212.75
861.844	3164.75
867.13	3123.75
872.41	3111.75
877.686	3086.75
882.955	3063.75
888.219	3020.75
893.478	2989.75
898.731	2948.75
903.979	2920.75
909.221	2904.75
914.458	2870.75
919.69	2850.75
924.916	2850.75
930.136	2916.75
935.351	2878.75
940.561	2892.75
945.766	2868.75
950.965	2888.75
956.158	2826.75
961.347	2800.75
966.529	2749.75
971.707	2754.75
976.879	2692.75
982.046	2683.75
987.208	2658.75
992.364	2675.75
997.515	2690.75
1002.66	2712.75
1007.801	2702.75
1012.936	2732.75
1018.066	2730.75
1023.19	2753.75
1028.309	2774.75
1033.423	2783.75
1038.532	2760.75
1043.636	2761.75
1048.734	2729.75
1053.827	2696.75
1058.915	2674.75
1063.998	2648.75
1069.075	2648.75
1074.147	2644.75
1079.214	2649.75
1084.276	2674.75
1089.333	2663.75
1094.385	2655.75
1099.431	2651.75
1104.472	2657.75
1109.509	2602.75
1114.54	2575.75
1119.565	2526.75
1124.586	2491.75
1129.602	2468.75
1134.613	2439.75
1139.618	2439.75
1144.619	2448.75
1149.614	2459.75
1154.604	2458.75
1159.589	2459.75
1164.57	2473.75
1169.545	2473.75
1174.515	2468.75
1179.48	2458.75
1184.44	2458.75
1189.395	2442.75
1194.345	2406.75
1199.29	2400.75
1204.23	2387.75
1209.165	2391.75
1214.095	2419.75
1219.021	2404.75
1223.941	2415.75
1228.856	2412.75
1233.766	2458.75
1238.672	2460.75
1243.572	2439.75
1248.467	2426.75
1253.358	2380.75
1258.244	2329.75
1263.124	2314.75
1268	2277.75
1272.871	2214.75
1277.737	2213.75
1282.599	2202.75
1287.455	2197.75
1292.306	2201.75
1297.153	2192.75
1301.995	2203.75
1306.832	2235.75
1311.664	2201.75
1316.491	2222.75
1321.314	2212.75
1326.132	2204.75
1330.945	2171.75
1335.753	2122.75
1340.556	2088.75
1345.354	2053.75
1350.148	2031.75
1354.937	2007.75
1359.722	1977.75
1364.501	1965.75
1369.276	1990.75
1374.046	1970.75
1378.811	1938.75
1383.572	1944.75
1388.327	1956.75
1393.079	1936.75
1397.825	1924.75
1402.567	1901.75
1407.304	1884.75
1412.036	1874.75
1416.764	1887.75
1421.487	1874.75
1426.205	1857.75
1430.919	1863.75
1435.628	1873.75
1440.333	1889.75
1445.032	1918.75
1449.727	1934.75
1454.418	1922.75
1459.104	1925.75
1463.785	1886.75
1468.462	1869.75
1473.134	1841.75
1477.802	1825.75
1482.465	1756.75
1487.123	1761.75
1491.777	1732.75
1496.426	1729.75
1501.071	1748.75
1505.711	1737.75
1510.347	1748.75
1514.978	1765.75
1519.604	1772.75
1524.226	1779.75
1528.844	1760.75
1533.457	1757.75
1538.065	1752.75
1542.669	1727.75
1547.269	1701.75
1551.864	1695.75
1556.454	1683.75
1561.041	1689.75
1565.622	1701.75
1570.199	1722.75
1574.772	1728.75
1579.34	1744.75
1583.904	1745.75
1588.464	1761.75
1593.019	1771.75
1597.569	1765.75
1602.115	1765.75
1606.657	1754.75
1611.195	1763.75
1615.728	1762.75
1620.256	1745.75
1624.78	1706.75
1629.3	1737.75
1633.816	1757.75
1638.327	1746.75
1642.834	1758.75
1647.336	1757.75
1651.834	1778.75
1656.328	1785.75
1660.817	1783.75
1665.302	1759.75
1669.783	1724.75
1674.259	1696.75
1678.732	1673.75
1683.199	1615.75
1687.663	1568.75
1692.122	1539.75
1696.577	1527.75
1701.028	1482.75
1705.474	1441.75
1709.917	1434.75
1714.355	1414.75
1718.788	1396.75
1723.218	1370.75
1727.643	1358.75
1732.064	1353.75
1736.481	1319.75
1740.893	1306.75
1745.301	1286.75
1749.705	1241.75
1754.105	1229.75
1758.501	1190.75
1762.893	1184.75
1767.28	1143.75
1771.663	1144.75
1776.042	1130.75
1780.417	1112.75
1784.787	1121.75
1789.154	1125.75
1793.516	1142.75
1797.874	1128.75
1802.228	1123.75
1806.578	1098.75
1810.924	1102.75
1815.266	1015.75
1819.603	1092.75
1823.937	1072.75
1828.266	1064.75
1832.591	1047.75
1836.913	1045.75
1841.23	1040.75
1845.543	1036.75
1849.852	1028.75
1854.156	1028.75
1858.457	1038.75
1862.754	1021.75
1867.047	1041.75
1871.335	1049.75
1875.62	1065.75
1879.9	1041.75
1884.177	1025.75
1888.449	1028.75
1892.718	1024.75
1896.982	1026.75
1901.243	990.75
1905.499	993.75
1909.752	999.75
1914	982.75
1918.245	1004.75
1922.485	994.75
1926.722	1015.75
1930.954	996.75
1935.183	1016.75
1939.408	1019.75
1943.628	1011.75
1947.845	1003.75
1952.058	1001.75
1956.267	971.75
1960.472	964.75
1964.673	945.75
1968.87	937.75
1973.063	916.75
1977.252	913.75
1981.438	889.75
1985.619	891.75
1989.797	865.75
1993.971	867.75
1998.14	880.75
2002.306	881.75
2006.469	883.75
2010.627	861.75
2014.781	860.75
2018.932	842.75
2023.078	862.75
2027.221	853.75
2031.36	822.75
2035.495	816.75
2039.627	812.75
2043.754	805.75
2047.878	805.75
2051.998	802.75
2056.114	798.75
2060.226	806.75
2064.334	799.75
2068.439	803.75
2072.54	818.75
2076.637	797.75
2080.73	804.75
2084.82	821.75
2088.906	811.75
2092.988	810.75
2097.066	804.75
2101.14	805.75
2105.211	790.75
2109.278	777.75
2113.342	775.75
2117.401	746.75
2121.457	748.75
2125.509	741.75
2129.558	747.75
2133.602	733.75
2137.643	731.75
2141.681	731.75
2145.714	725.75
2149.744	719.75
2153.77	712.75
2157.793	692.75
2161.812	679.75
2165.827	661.75
2169.838	686.75
2173.846	670.75
2177.851	652.75
2181.851	663.75
2185.848	632.75
2189.841	627.75
2193.831	616.75
2197.817	627.75
2201.799	625.75
2205.778	605.75
2209.753	598.75
2213.725	607.75
2217.693	608.75
2221.657	587.75
2225.618	604.75
2229.575	591.75
2233.529	584.75
2237.479	592.75
2241.425	565.75
2245.368	560.75
2249.307	564.75
2253.243	555.75
2257.175	549.75
2261.104	527.75
2265.029	528.75
2268.95	518.75
2272.868	514.75
2276.783	499.75
2280.694	506.75
2284.601	505.75
2288.505	490.75
2292.405	501.75
2296.302	471.75
2300.195	472.75
2304.085	444.75
2307.971	463.75
2311.854	441.75
2315.734	441.75
2319.609	451.75
2323.482	417.75
2327.351	431.75
2331.216	428.75
2335.078	432.75
2338.937	428.75
2342.792	417.75
2346.643	413.75
2350.492	428.75
2354.336	413.75
2358.178	421.75
2362.015	423.75
2365.85	420.75
2369.681	415.75
2373.508	415.75
2377.333	428.75
2381.153	430.75
2384.971	411.75
2388.785	421.75
2392.595	403.75
2396.402	408.75
2400.206	373.75
2404.007	390.75
2407.804	399.75
2411.597	394.75
2415.388	384.75
2419.174	388.75
2422.958	398.75
2426.738	388.75
2430.515	382.75
2434.289	379.75
2438.059	379.75
2441.825	369.75
2445.589	379.75
2449.349	359.75
2453.106	365.75
2456.859	360.75
2460.61	369.75
2464.356	340.75
2468.1	341.75
2471.84	338.75
2475.577	344.75
2479.311	335.75
2483.041	344.75
2486.768	357.75
2490.492	347.75
2494.213	330.75
2497.93	324.75
2501.644	325.75
2505.355	335.75
2509.062	325.75
2512.766	333.75
2516.467	331.75
2520.165	319.75
2523.859	316.75
2527.551	343.75
2531.239	313.75
2534.923	319.75
2538.605	311.75
2542.283	319.75
2545.958	320.75
2549.63	320.75
2553.299	322.75
2556.964	305.75
2560.626	302.75
2564.285	314.75
2567.941	292.75
2571.594	298.75
2575.243	293.75
2578.89	301.75
2582.533	296.75
2586.173	289.75
2589.809	290.75
2593.443	265.75
2597.073	278.75
2600.701	282.75
2604.325	274.75
2607.946	275.75
2611.564	278.75
2615.178	282.75
2618.79	279.75
2622.398	256.75
2626.004	274.75
2629.606	271.75
2633.205	254.75
2636.801	264.75
2640.394	252.75
2643.983	247.75
2647.57	247.75
2651.153	239.75
2654.734	250.75
2658.311	222.75
2661.885	239.75
2665.456	239.75
2669.025	236.75
2672.589	224.75
2676.151	242.75
2679.71	241.75
2683.266	228.75
2686.819	222.75
2690.368	233.75
2693.915	231.75
2697.458	221.75
2700.999	219.75
2704.536	218.75
2708.071	216.75
2711.602	209.75
2715.13	205.75
2718.656	189.75
2722.178	207.75
2725.697	182.75
2729.214	200.75
2732.727	200.75
2736.237	189.75
2739.744	195.75
2743.249	196.75
2746.75	200.75
2750.248	201.75
2753.743	203.75
2757.236	199.75
2760.725	202.75
2764.211	168.75
2767.695	200.75
2771.175	196.75
2774.652	203.75
2778.127	185.75
2781.598	187.75
2785.067	188.75
2788.532	178.75
2791.995	193.75
2795.455	184.75
2798.911	197.75
2802.365	191.75
2805.816	196.75
2809.264	205.75
2812.709	183.75
2816.151	197.75
2819.59	185.75
2823.026	193.75
2826.46	189.75
2829.89	202.75
2833.318	178.75
2836.742	198.75
2840.164	194.75
2843.583	192.75
2846.999	202.75
2850.412	202.75
2853.822	197.75
2857.229	210.75
2860.634	209.75
2864.035	186.75
2867.434	214.75
2870.83	217.75
2874.223	212.75
2877.613	217.75
2881	210.75
2884.385	217.75
2887.766	222.75
2891.145	221.75
2894.521	218.75
2897.894	212.75
2901.264	224.75
2904.631	230.75
2907.996	229.75
2911.358	235.75
2914.717	227.75
2918.073	224.75
2921.426	227.75
2924.777	223.75
2928.124	228.75
2931.469	251.75
2934.811	240.75
2938.15	260.75
2941.487	250.75
2944.821	276.75
2948.152	249.75
2951.48	258.75
2954.805	240.75
2958.128	269.75
2961.447	256.75
2964.765	268.75
2968.079	247.75
2971.39	262.75
2974.699	272.75
2978.005	272.75
2981.308	271.75
2984.609	263.75
2987.907	281.75
2991.202	276.75
2994.494	263.75
2997.784	282.75
3001.07	286.75
3004.355	273.75
3007.636	285.75
3010.915	294.75
3014.191	289.75
3017.464	287.75
3020.734	291.75
3024.002	301.75
3027.267	296.75
3030.53	306.75
3033.789	305.75
3037.046	301.75
3040.301	306.75
3043.552	317.75
3046.801	315.75
3050.048	327.75
3053.291	364.75
3056.532	338.75
3059.771	340.75
3063.006	368.75
3066.239	369.75
3069.469	374.75
3072.697	385.75
3075.922	387.75
3079.144	393.75
3082.364	431.75
3085.581	417.75
3088.795	440.75
3092.007	440.75
3095.216	457.75
3098.423	449.75
3101.627	444.75
3104.828	479.75
3108.026	476.75
3111.222	502.75
3114.416	509.75
3117.607	522.75
3120.795	519.75
3123.98	534.75
3127.163	534.75
3130.344	560.75
3133.521	558.75
3136.696	580.75
3139.869	598.75
3143.039	592.75
3146.206	625.75
3149.371	618.75
3152.533	618.75
3155.693	604.75
3158.85	633.75
3162.005	642.75
3165.157	638.75
3168.306	625.75
3171.453	645.75
3174.597	640.75
3177.739	627.75
3180.878	646.75
3184.014	650.75
3187.149	648.75
3190.28	649.75
3193.409	647.75
3196.536	653.75
3199.659	663.75
3202.781	663.75
3205.9	643.75
3209.016	657.75
3212.13	653.75
3215.241	652.75
3218.35	650.75
3221.456	643.75
3224.56	638.75
3227.661	636.75
3230.76	629.75
3233.856	621.75
3236.95	615.75
3240.041	601.75
3243.13	617.75
3246.216	617.75
3249.3	616.75
3252.382	608.75
3255.46	596.75
3258.537	553.75
3261.611	591.75
3264.682	598.75
3267.751	597.75
3270.818	575.75
3273.882	595.75
3276.943	577.75
3280.002	594.75
3283.059	566.75
3286.113	571.75
3289.165	556.75
3292.214	549.75
3295.261	567.75
3298.306	517.75
3301.348	541.75
3304.387	523.75
3307.425	527.75
3310.459	510.75
3313.492	513.75
3316.521	498.75
3319.549	512.75
3322.574	504.75
3325.597	498.75
3328.617	484.75
3331.635	497.75
3334.65	467.75
3337.663	481.75
3340.674	478.75
3343.682	479.75
3346.688	494.75
3349.691	472.75
3352.692	479.75
3355.691	485.75
3358.687	473.75
3361.681	472.75
3364.673	462.75
3367.662	464.75
3370.649	456.75
3373.633	438.75
3376.615	449.75
3379.595	428.75
3382.572	435.75
3385.547	413.75
3388.52	409.75
3391.49	413.75
3394.458	412.75
3397.424	417.75
3400.387	398.75
3403.348	396.75
3406.307	397.75
3409.263	398.75
3412.217	396.75
3415.168	380.75
3418.118	391.75
3421.065	375.75
3424.009	376.75
3426.951	368.75
3429.891	368.75
3432.829	365.75
3435.764	349.75
3438.697	340.75
3441.628	352.75
3444.557	331.75
3447.483	314.75
3450.407	317.75
3453.328	307.75
3456.247	295.75
3459.164	285.75
3462.079	291.75
3464.991	281.75
3467.902	273.75
3470.809	271.75
3473.715	266.75
3476.618	240.75
3479.519	252.75
3482.418	216.75
3485.315	223.75
3488.209	222.75
3491.101	224.75
3493.99	204.75
3496.878	199.75
3499.763	197.75
3502.646	202.75
3505.527	185.75
3508.405	177.75
3511.281	164.75
3514.155	169.75
3517.027	166.75
3519.897	144.75
3522.764	163.75
3525.629	131.75
3528.492	139.75
3531.352	138.75
3534.211	130.75
3537.067	119.75
3539.921	124.75
3542.773	121.75
3545.622	100.75
3548.469	92.75
3551.315	93.75
3554.157	94.75
3556.998	87.75
3559.837	85.75
3562.673	87.75
3565.507	75.75
3568.339	65.75
3571.169	74.75
3573.996	68.75
3576.822	46.75
3579.645	49.75
3582.466	53.75
3585.285	62.75
3588.101	52.75
3590.916	43.75
3593.728	55.75
3596.538	42.75
3599.346	46.75
3602.152	34.75
3604.956	38.75
3607.757	45.75
3610.556	18.75
3613.354	35.75
3616.149	31.75
3618.942	33.75
3621.732	33.75
3624.521	25.75
3627.307	13.75
3630.092	15.75
3632.874	31.75
3635.654	25.75
3638.432	9.75
3641.208	5.75
3643.982	8.75
3646.753	21.75
3649.523	-16.25
3652.29	3.75
3655.055	15.75
3657.818	6.75
3660.579	-3.25
3663.338	-7.25
3666.095	-7.25
3668.849	-29.25
3671.602	5.75
3674.352	-11.25
3677.101	4.75
3679.847	-1.25
3682.591	-10.25
3685.333	-21.25
3688.073	-10.25
3690.811	-20.25
3693.547	-25.25
3696.281	-24.25
3699.013	-10.25
3701.742	-13.25
3704.47	-24.25
3707.195	-10.25
3709.919	-15.25
3712.64	-13.25
3715.359	-28.25
3718.076	-4.25
3720.792	-21.25
3723.505	-16.25
3726.216	-10.25
3728.925	-20.25
3731.632	-26.25
3734.336	-22.25
3737.039	-22.25
3739.74	-23.25
3742.439	-49.25
3745.136	-16.25
3747.83	-20.25
3750.523	-17.25
3753.213	-84.25
3755.902	-25.25
3758.589	-35.25
3761.273	-26.25
3763.956	-21.25
3766.636	-40.25
3769.315	-17.25
3771.991	-27.25
3774.665	-33.25
3777.338	-23.25
3780.008	-32.25
3782.677	-26.25
3785.343	-36.25
3788.007	-42.25
3790.67	-16.25
3793.33	-36.25
3795.989	-32.25
3798.645	-20.25
3801.299	-39.25
3803.952	-36.25
3806.602	-31.25
3809.251	-22.25
3811.897	-28.25
3814.542	-31.25
3817.184	-32.25
3819.825	-28.25
3822.463	-40.25
3825.1	-36.25
3827.735	-26.25
3830.367	-38.25
3832.998	-14.25
3835.627	-31.25
3838.253	-22.25
3840.878	-31.25
3843.501	-11.25
3846.122	-25.25
3848.741	-24.25
3851.358	-17.25
3853.973	-40.25
3856.586	-23.25
3859.197	-36.25
3861.806	-33.25
3864.414	-38.25
3867.019	-28.25
3869.622	-18.25
3872.224	-12.25
3874.823	4.75
3877.421	39.75
3880.016	58.75
3882.61	100.75
3885.202	108.75
3887.792	85.75
3890.38	43.75
3892.966	-1.25
3895.55	-24.25
3898.132	-20.25
3900.713	-20.25
3903.291	-26.25
3905.868	-36.25
3908.442	-28.25
3911.015	-34.25
3913.586	-34.25
3916.155	-31.25
3918.722	-33.25
3921.287	-34.25
3923.85	-44.25
3926.411	-35.25
3928.971	-35.25
3931.528	-26.25
3934.084	-37.25
3936.638	-42.25
3939.19	-26.25
3941.74	-29.25
3944.288	-30.25
3946.834	-35.25
3949.378	-23.25
3951.921	-37.25
3954.462	-34.25
3957	-26.25
3959.537	-17.25
3962.072	-32.25
3964.606	-43.25
3967.137	-32.25
3969.667	-37.25
3972.194	-29.25
3974.72	-34.25
3977.244	-51.25
3979.766	-43.25
3982.286	-36.25
3984.805	-23.25
3987.321	-23.25
3989.836	-27.25
3992.349	-37.25
3994.86	-29.25
3997.369	-39.25
3999.877	-33.25
4002.382	-31.25
4004.886	-24.25
4007.388	-28.25
4009.888	-21.25
4012.386	-24.25
4014.883	-25.25
4017.377	-28.25
4019.87	-28.25
4022.361	-37.25
4024.85	-25.25
4027.338	-28.25
4029.823	-32.25
4032.307	-30.25
4034.789	-26.25
4037.269	-24.25
4039.747	-41.25
4042.224	-22.25
4044.699	-35.25
4047.172	-29.25
4049.643	-18.25
4052.112	-53.25
4054.58	-27.25
4057.046	-41.25
4059.51	-31.25
4061.972	-27.25
4064.432	-46.25
4066.891	-17.25
4069.348	-30.25
4071.803	-28.25
4074.256	-34.25
4076.708	-20.25
4079.158	-28.25
4081.606	-14.25
4084.052	-29.25
4086.497	-25.25
4088.939	-24.25
4091.38	-27.25
4093.819	-22.25
4096.257	-0.25
4098.693	-10.25
4101.127	-9.25
4103.559	-1.25
4105.989	136.75
4108.418	141.75
4110.845	121.75
4113.27	134.75
4115.694	135.75
4118.115	128.75
4120.535	-30.25
4122.954	-22.25
4125.37	-15.25
4127.785	-22.25
4130.198	-19.25
4132.609	-21.25
4135.019	10.75
4137.427	3.75
4139.833	6.75
4142.237	-0.25
