Data from 2018-3-6_conc=4_n=8_RamanShift_03.txt Node
Date: Tue Mar 06 14:13:48 GMT+02:00 2018
User: LAB3
Spectrometer: QEPB0276
Trigger mode: 0
Integration Time (sec): 3.000000E1
Scans to average: 1
Electric dark correction enabled: true
Nonlinearity correction enabled: false
Boxcar width: 0
XAxis mode: Raman Shifts
Number of Pixels in Spectrum: 1044
>>>>>Begin Spectral Data<<<<<
160.701	67.75
166.742	91.75
172.777	133.75
178.805	276.75
184.826	638.75
190.841	1286.75
196.849	1998.75
202.85	2514.75
208.845	2695.75
214.833	2650.75
220.815	2604.75
226.789	2567.75
232.758	2565.75
238.719	2545.75
244.674	2507.75
250.623	2482.75
256.565	2428.75
262.5	2378.75
268.429	2371.75
274.351	2334.75
280.267	2315.75
286.176	2323.75
292.079	2302.75
297.975	2296.75
303.865	2280.75
309.748	2275.75
315.625	2283.75
321.495	2264.75
327.359	2272.75
333.217	2242.75
339.068	2255.75
344.912	2301.75
350.751	2254.75
356.583	2252.75
362.408	2284.75
368.227	2278.75
374.04	2296.75
379.847	2294.75
385.647	2323.75
391.44	2302.75
397.228	2315.75
403.009	2331.75
408.784	2342.75
414.553	2342.75
420.315	2355.75
426.071	2324.75
431.821	2342.75
437.565	2354.75
443.302	2301.75
449.033	2301.75
454.758	2308.75
460.477	2295.75
466.189	2265.75
471.896	2256.75
477.596	2245.75
483.29	2210.75
488.978	2226.75
494.66	2182.75
500.335	2149.75
506.005	2066.75
511.668	1956.75
517.325	1881.75
522.977	1792.75
528.622	1742.75
534.261	1698.75
539.894	1669.75
545.521	1648.75
551.141	1613.75
556.756	1594.75
562.365	1599.75
567.968	1589.75
573.565	1570.75
579.155	1558.75
584.74	1553.75
590.319	1566.75
595.892	1544.75
601.459	1551.75
607.02	1554.75
612.575	1527.75
618.124	1510.75
623.667	1492.75
629.204	1470.75
634.735	1466.75
640.261	1435.75
645.781	1400.75
651.294	1409.75
656.802	1410.75
662.304	1399.75
667.8	1418.75
673.29	1399.75
678.775	1399.75
684.254	1403.75
689.726	1362.75
695.193	1383.75
700.655	1363.75
706.11	1352.75
711.56	1350.75
717.004	1354.75
722.442	1334.75
727.874	1342.75
733.301	1346.75
738.722	1324.75
744.137	1320.75
749.547	1317.75
754.951	1319.75
760.349	1324.75
765.741	1331.75
771.128	1329.75
776.509	1350.75
781.885	1366.75
787.254	1389.75
792.618	1363.75
797.977	1390.75
803.33	1378.75
808.677	1348.75
814.019	1348.75
819.355	1341.75
824.686	1322.75
830.011	1319.75
835.33	1325.75
840.644	1301.75
845.952	1291.75
851.255	1287.75
856.552	1268.75
861.844	1284.75
867.13	1255.75
872.41	1232.75
877.686	1235.75
882.955	1211.75
888.219	1198.75
893.478	1186.75
898.731	1184.75
903.979	1161.75
909.221	1142.75
914.458	1152.75
919.69	1149.75
924.916	1151.75
930.136	1135.75
935.351	1144.75
940.561	1156.75
945.766	1143.75
950.965	1156.75
956.158	1122.75
961.347	1120.75
966.529	1098.75
971.707	1102.75
976.879	1079.75
982.046	1064.75
987.208	1051.75
992.364	1081.75
997.515	1054.75
1002.66	1073.75
1007.801	1069.75
1012.936	1090.75
1018.066	1086.75
1023.19	1112.75
1028.309	1082.75
1033.423	1096.75
1038.532	1101.75
1043.636	1081.75
1048.734	1082.75
1053.827	1056.75
1058.915	1046.75
1063.998	1050.75
1069.075	1046.75
1074.147	1060.75
1079.214	1040.75
1084.276	1054.75
1089.333	1041.75
1094.385	1071.75
1099.431	1046.75
1104.472	1041.75
1109.509	1013.75
1114.54	1036.75
1119.565	997.75
1124.586	1006.75
1129.602	975.75
1134.613	958.75
1139.618	962.75
1144.619	965.75
1149.614	971.75
1154.604	962.75
1159.589	959.75
1164.57	989.75
1169.545	991.75
1174.515	980.75
1179.48	963.75
1184.44	973.75
1189.395	973.75
1194.345	965.75
1199.29	953.75
1204.23	937.75
1209.165	936.75
1214.095	951.75
1219.021	957.75
1223.941	949.75
1228.856	964.75
1233.766	962.75
1238.672	977.75
1243.572	964.75
1248.467	958.75
1253.358	937.75
1258.244	918.75
1263.124	924.75
1268	916.75
1272.871	870.75
1277.737	876.75
1282.599	884.75
1287.455	872.75
1292.306	869.75
1297.153	868.75
1301.995	880.75
1306.832	872.75
1311.664	883.75
1316.491	879.75
1321.314	878.75
1326.132	862.75
1330.945	866.75
1335.753	832.75
1340.556	822.75
1345.354	813.75
1350.148	810.75
1354.937	803.75
1359.722	765.75
1364.501	777.75
1369.276	780.75
1374.046	786.75
1378.811	763.75
1383.572	772.75
1388.327	769.75
1393.079	753.75
1397.825	762.75
1402.567	751.75
1407.304	747.75
1412.036	743.75
1416.764	736.75
1421.487	734.75
1426.205	729.75
1430.919	737.75
1435.628	739.75
1440.333	735.75
1445.032	754.75
1449.727	755.75
1454.418	759.75
1459.104	757.75
1463.785	736.75
1468.462	738.75
1473.134	719.75
1477.802	715.75
1482.465	689.75
1487.123	704.75
1491.777	671.75
1496.426	652.75
1501.071	685.75
1505.711	674.75
1510.347	686.75
1514.978	689.75
1519.604	686.75
1524.226	696.75
1528.844	675.75
1533.457	696.75
1538.065	670.75
1542.669	684.75
1547.269	673.75
1551.864	675.75
1556.454	657.75
1561.041	667.75
1565.622	674.75
1570.199	674.75
1574.772	665.75
1579.34	693.75
1583.904	682.75
1588.464	700.75
1593.019	704.75
1597.569	685.75
1602.115	693.75
1606.657	688.75
1611.195	690.75
1615.728	678.75
1620.256	676.75
1624.78	648.75
1629.3	684.75
1633.816	674.75
1638.327	666.75
1642.834	669.75
1647.336	681.75
1651.834	696.75
1656.328	685.75
1660.817	687.75
1665.302	668.75
1669.783	647.75
1674.259	660.75
1678.732	641.75
1683.199	624.75
1687.663	606.75
1692.122	600.75
1696.577	593.75
1701.028	572.75
1705.474	551.75
1709.917	545.75
1714.355	533.75
1718.788	540.75
1723.218	521.75
1727.643	503.75
1732.064	513.75
1736.481	495.75
1740.893	500.75
1745.301	501.75
1749.705	452.75
1754.105	467.75
1758.501	457.75
1762.893	466.75
1767.28	421.75
1771.663	435.75
1776.042	418.75
1780.417	411.75
1784.787	436.75
1789.154	427.75
1793.516	441.75
1797.874	428.75
1802.228	414.75
1806.578	411.75
1810.924	433.75
1815.266	303.75
1819.603	417.75
1823.937	409.75
1828.266	402.75
1832.591	399.75
1836.913	403.75
1841.23	396.75
1845.543	387.75
1849.852	400.75
1854.156	382.75
1858.457	383.75
1862.754	377.75
1867.047	390.75
1871.335	403.75
1875.62	396.75
1879.9	405.75
1884.177	393.75
1888.449	384.75
1892.718	387.75
1896.982	388.75
1901.243	376.75
1905.499	372.75
1909.752	355.75
1914	355.75
1918.245	371.75
1922.485	366.75
1926.722	364.75
1930.954	368.75
1935.183	374.75
1939.408	380.75
1943.628	367.75
1947.845	370.75
1952.058	359.75
1956.267	357.75
1960.472	364.75
1964.673	353.75
1968.87	350.75
1973.063	342.75
1977.252	338.75
1981.438	336.75
1985.619	328.75
1989.797	327.75
1993.971	321.75
1998.14	345.75
2002.306	326.75
2006.469	330.75
2010.627	321.75
2014.781	319.75
2018.932	308.75
2023.078	330.75
2027.221	314.75
2031.36	316.75
2035.495	310.75
2039.627	307.75
2043.754	300.75
2047.878	298.75
2051.998	292.75
2056.114	297.75
2060.226	300.75
2064.334	293.75
2068.439	305.75
2072.54	301.75
2076.637	288.75
2080.73	294.75
2084.82	294.75
2088.906	282.75
2092.988	297.75
2097.066	296.75
2101.14	308.75
2105.211	291.75
2109.278	286.75
2113.342	280.75
2117.401	273.75
2121.457	258.75
2125.509	263.75
2129.558	280.75
2133.602	260.75
2137.643	268.75
2141.681	264.75
2145.714	264.75
2149.744	264.75
2153.77	262.75
2157.793	253.75
2161.812	226.75
2165.827	232.75
2169.838	255.75
2173.846	247.75
2177.851	235.75
2181.851	254.75
2185.848	235.75
2189.841	239.75
2193.831	238.75
2197.817	229.75
2201.799	230.75
2205.778	218.75
2209.753	210.75
2213.725	213.75
2217.693	219.75
2221.657	208.75
2225.618	221.75
2229.575	219.75
2233.529	217.75
2237.479	219.75
2241.425	206.75
2245.368	199.75
2249.307	212.75
2253.243	201.75
2257.175	207.75
2261.104	184.75
2265.029	201.75
2268.95	187.75
2272.868	182.75
2276.783	179.75
2280.694	188.75
2284.601	185.75
2288.505	180.75
2292.405	181.75
2296.302	161.75
2300.195	176.75
2304.085	148.75
2307.971	177.75
2311.854	147.75
2315.734	163.75
2319.609	168.75
2323.482	142.75
2327.351	155.75
2331.216	160.75
2335.078	167.75
2338.937	150.75
2342.792	149.75
2346.643	145.75
2350.492	157.75
2354.336	150.75
2358.178	151.75
2362.015	147.75
2365.85	148.75
2369.681	142.75
2373.508	157.75
2377.333	160.75
2381.153	158.75
2384.971	141.75
2388.785	152.75
2392.595	133.75
2396.402	140.75
2400.206	120.75
2404.007	133.75
2407.804	130.75
2411.597	133.75
2415.388	134.75
2419.174	132.75
2422.958	127.75
2426.738	128.75
2430.515	144.75
2434.289	126.75
2438.059	122.75
2441.825	124.75
2445.589	135.75
2449.349	119.75
2453.106	125.75
2456.859	133.75
2460.61	127.75
2464.356	111.75
2468.1	113.75
2471.84	110.75
2475.577	111.75
2479.311	108.75
2483.041	112.75
2486.768	128.75
2490.492	124.75
2494.213	112.75
2497.93	105.75
2501.644	98.75
2505.355	109.75
2509.062	111.75
2512.766	105.75
2516.467	98.75
2520.165	99.75
2523.859	98.75
2527.551	125.75
2531.239	98.75
2534.923	108.75
2538.605	97.75
2542.283	102.75
2545.958	102.75
2549.63	110.75
2553.299	107.75
2556.964	91.75
2560.626	94.75
2564.285	95.75
2567.941	86.75
2571.594	87.75
2575.243	104.75
2578.89	89.75
2582.533	91.75
2586.173	93.75
2589.809	92.75
2593.443	72.75
2597.073	90.75
2600.701	91.75
2604.325	94.75
2607.946	74.75
2611.564	96.75
2615.178	86.75
2618.79	88.75
2622.398	80.75
2626.004	90.75
2629.606	83.75
2633.205	73.75
2636.801	83.75
2640.394	82.75
2643.983	80.75
2647.57	74.75
2651.153	72.75
2654.734	86.75
2658.311	59.75
2661.885	65.75
2665.456	72.75
2669.025	68.75
2672.589	63.75
2676.151	82.75
2679.71	81.75
2683.266	72.75
2686.819	60.75
2690.368	72.75
2693.915	73.75
2697.458	66.75
2700.999	71.75
2704.536	77.75
2708.071	73.75
2711.602	68.75
2715.13	62.75
2718.656	47.75
2722.178	60.75
2725.697	48.75
2729.214	58.75
2732.727	65.75
2736.237	42.75
2739.744	55.75
2743.249	48.75
2746.75	57.75
2750.248	48.75
2753.743	58.75
2757.236	57.75
2760.725	62.75
2764.211	33.75
2767.695	57.75
2771.175	54.75
2774.652	53.75
2778.127	48.75
2781.598	49.75
2785.067	53.75
2788.532	47.75
2791.995	57.75
2795.455	51.75
2798.911	62.75
2802.365	55.75
2805.816	62.75
2809.264	63.75
2812.709	51.75
2816.151	62.75
2819.59	41.75
2823.026	53.75
2826.46	49.75
2829.89	60.75
2833.318	32.75
2836.742	46.75
2840.164	52.75
2843.583	53.75
2846.999	55.75
2850.412	55.75
2853.822	48.75
2857.229	64.75
2860.634	61.75
2864.035	39.75
2867.434	65.75
2870.83	63.75
2874.223	55.75
2877.613	60.75
2881	51.75
2884.385	56.75
2887.766	54.75
2891.145	57.75
2894.521	50.75
2897.894	47.75
2901.264	71.75
2904.631	57.75
2907.996	66.75
2911.358	72.75
2914.717	67.75
2918.073	60.75
2921.426	61.75
2924.777	51.75
2928.124	60.75
2931.469	77.75
2934.811	58.75
2938.15	80.75
2941.487	65.75
2944.821	92.75
2948.152	68.75
2951.48	80.75
2954.805	62.75
2958.128	87.75
2961.447	69.75
2964.765	82.75
2968.079	76.75
2971.39	78.75
2974.699	80.75
2978.005	83.75
2981.308	76.75
2984.609	72.75
2987.907	79.75
2991.202	87.75
2994.494	66.75
2997.784	83.75
3001.07	81.75
3004.355	80.75
3007.636	80.75
3010.915	86.75
3014.191	81.75
3017.464	86.75
3020.734	88.75
3024.002	88.75
3027.267	85.75
3030.53	92.75
3033.789	89.75
3037.046	89.75
3040.301	81.75
3043.552	90.75
3046.801	99.75
3050.048	107.75
3053.291	127.75
3056.532	103.75
3059.771	101.75
3063.006	115.75
3066.239	117.75
3069.469	122.75
3072.697	118.75
3075.922	112.75
3079.144	120.75
3082.364	146.75
3085.581	124.75
3088.795	146.75
3092.007	141.75
3095.216	151.75
3098.423	146.75
3101.627	126.75
3104.828	157.75
3108.026	140.75
3111.222	168.75
3114.416	177.75
3117.607	163.75
3120.795	166.75
3123.98	166.75
3127.163	169.75
3130.344	175.75
3133.521	175.75
3136.696	202.75
3139.869	185.75
3143.039	174.75
3146.206	212.75
3149.371	199.75
3152.533	196.75
3155.693	185.75
3158.85	201.75
3162.005	205.75
3165.157	213.75
3168.306	206.75
3171.453	213.75
3174.597	203.75
3177.739	202.75
3180.878	206.75
3184.014	221.75
3187.149	212.75
3190.28	213.75
3193.409	218.75
3196.536	214.75
3199.659	220.75
3202.781	225.75
3205.9	205.75
3209.016	212.75
3212.13	217.75
3215.241	208.75
3218.35	202.75
3221.456	193.75
3224.56	196.75
3227.661	206.75
3230.76	202.75
3233.856	197.75
3236.95	202.75
3240.041	186.75
3243.13	202.75
3246.216	196.75
3249.3	204.75
3252.382	198.75
3255.46	187.75
3258.537	144.75
3261.611	186.75
3264.682	195.75
3267.751	185.75
3270.818	178.75
3273.882	188.75
3276.943	182.75
3280.002	199.75
3283.059	174.75
3286.113	188.75
3289.165	165.75
3292.214	170.75
3295.261	194.75
3298.306	164.75
3301.348	181.75
3304.387	161.75
3307.425	175.75
3310.459	157.75
3313.492	179.75
3316.521	161.75
3319.549	174.75
3322.574	166.75
3325.597	159.75
3328.617	150.75
3331.635	157.75
3334.65	143.75
3337.663	160.75
3340.674	153.75
3343.682	148.75
3346.688	157.75
3349.691	147.75
3352.692	150.75
3355.691	157.75
3358.687	146.75
3361.681	152.75
3364.673	145.75
3367.662	149.75
3370.649	154.75
3373.633	136.75
3376.615	143.75
3379.595	118.75
3382.572	131.75
3385.547	120.75
3388.52	127.75
3391.49	128.75
3394.458	131.75
3397.424	127.75
3400.387	114.75
3403.348	126.75
3406.307	119.75
3409.263	115.75
3412.217	129.75
3415.168	121.75
3418.118	125.75
3421.065	110.75
3424.009	123.75
3426.951	105.75
3429.891	105.75
3432.829	102.75
3435.764	110.75
3438.697	103.75
3441.628	112.75
3444.557	87.75
3447.483	90.75
3450.407	96.75
3453.328	86.75
3456.247	85.75
3459.164	81.75
3462.079	90.75
3464.991	73.75
3467.902	78.75
3470.809	75.75
3473.715	80.75
3476.618	62.75
3479.519	66.75
3482.418	45.75
3485.315	52.75
3488.209	50.75
3491.101	54.75
3493.99	38.75
3496.878	41.75
3499.763	44.75
3502.646	45.75
3505.527	37.75
3508.405	42.75
3511.281	26.75
3514.155	35.75
3517.027	37.75
3519.897	21.75
3522.764	30.75
3525.629	15.75
3528.492	28.75
3531.352	25.75
3534.211	24.75
3537.067	15.75
3539.921	19.75
3542.773	27.75
3545.622	8.75
3548.469	3.75
3551.315	4.75
3554.157	10.75
3556.998	-1.25
3559.837	6.75
3562.673	13.75
3565.507	2.75
3568.339	-5.25
3571.169	-7.25
3573.996	4.75
3576.822	-8.25
3579.645	-7.25
3582.466	-1.25
3585.285	-7.25
3588.101	-5.25
3590.916	-10.25
3593.728	2.75
3596.538	-7.25
3599.346	-4.25
3602.152	-12.25
3604.956	-7.25
3607.757	-14.25
3610.556	-22.25
3613.354	-9.25
3616.149	-9.25
3618.942	-6.25
3621.732	-8.25
3624.521	-14.25
3627.307	-20.25
3630.092	-18.25
3632.874	-3.25
3635.654	-17.25
3638.432	-21.25
3641.208	-22.25
3643.982	-19.25
3646.753	-13.25
3649.523	-48.25
3652.29	-21.25
3655.055	-17.25
3657.818	-18.25
3660.579	-24.25
3663.338	-32.25
3666.095	-27.25
3668.849	-48.25
3671.602	-19.25
3674.352	-36.25
3677.101	-13.25
3679.847	-22.25
3682.591	-33.25
3685.333	-35.25
3688.073	-21.25
3690.811	-33.25
3693.547	-37.25
3696.281	-41.25
3699.013	-25.25
3701.742	-32.25
3704.47	-34.25
3707.195	-23.25
3709.919	-25.25
3712.64	-31.25
3715.359	-43.25
3718.076	-16.25
3720.792	-32.25
3723.505	-26.25
3726.216	-17.25
3728.925	-34.25
3731.632	-33.25
3734.336	-25.25
3737.039	-30.25
3739.74	-28.25
3742.439	-51.25
3745.136	-23.25
3747.83	-25.25
3750.523	-25.25
3753.213	-79.25
3755.902	-34.25
3758.589	-49.25
3761.273	-40.25
3763.956	-21.25
3766.636	-43.25
3769.315	-21.25
3771.991	-33.25
3774.665	-35.25
3777.338	-34.25
3780.008	-43.25
3782.677	-29.25
3785.343	-44.25
3788.007	-50.25
3790.67	-25.25
3793.33	-43.25
3795.989	-33.25
3798.645	-30.25
3801.299	-44.25
3803.952	-46.25
3806.602	-34.25
3809.251	-29.25
3811.897	-32.25
3814.542	-35.25
3817.184	-35.25
3819.825	-31.25
3822.463	-46.25
3825.1	-33.25
3827.735	-32.25
3830.367	-41.25
3832.998	-19.25
3835.627	-32.25
3838.253	-22.25
3840.878	-38.25
3843.501	-20.25
3846.122	-30.25
3848.741	-23.25
3851.358	-22.25
3853.973	-42.25
3856.586	-25.25
3859.197	-35.25
3861.806	-33.25
3864.414	-42.25
3867.019	-34.25
3869.622	-22.25
3872.224	-17.25
3874.823	-17.25
3877.421	6.75
3880.016	14.75
3882.61	41.75
3885.202	60.75
3887.792	38.75
3890.38	18.75
3892.966	-16.25
3895.55	-33.25
3898.132	-22.25
3900.713	-20.25
3903.291	-29.25
3905.868	-38.25
3908.442	-31.25
3911.015	-31.25
3913.586	-37.25
3916.155	-37.25
3918.722	-36.25
3921.287	-32.25
3923.85	-44.25
3926.411	-39.25
3928.971	-37.25
3931.528	-29.25
3934.084	-36.25
3936.638	-46.25
3939.19	-29.25
3941.74	-33.25
3944.288	-37.25
3946.834	-32.25
3949.378	-27.25
3951.921	-41.25
3954.462	-33.25
3957	-33.25
3959.537	-20.25
3962.072	-35.25
3964.606	-49.25
3967.137	-36.25
3969.667	-42.25
3972.194	-29.25
3974.72	-37.25
3977.244	-56.25
3979.766	-42.25
3982.286	-39.25
3984.805	-31.25
3987.321	-25.25
3989.836	-25.25
3992.349	-43.25
3994.86	-33.25
3997.369	-44.25
3999.877	-37.25
4002.382	-39.25
4004.886	-31.25
4007.388	-39.25
4009.888	-21.25
4012.386	-24.25
4014.883	-30.25
4017.377	-29.25
4019.87	-30.25
4022.361	-41.25
4024.85	-35.25
4027.338	-29.25
4029.823	-38.25
4032.307	-39.25
4034.789	-32.25
4037.269	-32.25
4039.747	-45.25
4042.224	-31.25
4044.699	-38.25
4047.172	-36.25
4049.643	-27.25
4052.112	-58.25
4054.58	-38.25
4057.046	-47.25
4059.51	-37.25
4061.972	-32.25
4064.432	-54.25
4066.891	-25.25
4069.348	-30.25
4071.803	-30.25
4074.256	-36.25
4076.708	-34.25
4079.158	-31.25
4081.606	-26.25
4084.052	-38.25
4086.497	-34.25
4088.939	-31.25
4091.38	-39.25
4093.819	-33.25
4096.257	1.75
4098.693	-4.25
4101.127	-2.25
4103.559	1.75
4105.989	71.75
4108.418	75.75
4110.845	57.75
4113.27	64.75
4115.694	80.75
4118.115	61.75
4120.535	-30.25
4122.954	-30.25
4125.37	-24.25
4127.785	-34.25
4130.198	-26.25
4132.609	-32.25
4135.019	6.75
4137.427	-2.25
4139.833	5.75
4142.237	-7.25
