Data from 2018-3-6_conc=0_n=8_RamanShift_02.txt Node
Date: Tue Mar 06 12:31:19 GMT+02:00 2018
User: LAB3
Spectrometer: QEPB0276
Trigger mode: 0
Integration Time (sec): 3.000000E1
Scans to average: 1
Electric dark correction enabled: true
Nonlinearity correction enabled: false
Boxcar width: 0
XAxis mode: Raman Shifts
Number of Pixels in Spectrum: 1044
>>>>>Begin Spectral Data<<<<<
160.701	179.5
166.742	228.5
172.777	342.5
178.805	687.5
184.826	1568.5
190.841	3159.5
196.849	5047.5
202.85	6508.5
208.845	7008.5
214.833	7046.5
220.815	6946.5
226.789	6967.5
232.758	7055.5
238.719	7052.5
244.674	7027.5
250.623	6975.5
256.565	6922.5
262.5	6886.5
268.429	6822.5
274.351	6808.5
280.267	6855.5
286.176	6893.5
292.079	6890.5
297.975	6856.5
303.865	6894.5
309.748	6936.5
315.625	6927.5
321.495	6933.5
327.359	6982.5
333.217	6999.5
339.068	7051.5
344.912	7019.5
350.751	7079.5
356.583	7044.5
362.408	7135.5
368.227	7177.5
374.04	7197.5
379.847	7252.5
385.647	7300.5
391.44	7349.5
397.228	7375.5
403.009	7409.5
408.784	7430.5
414.553	7470.5
420.315	7499.5
426.071	7499.5
431.821	7552.5
437.565	7558.5
443.302	7486.5
449.033	7438.5
454.758	7428.5
460.477	7358.5
466.189	7286.5
471.896	7216.5
477.596	7125.5
483.29	7132.5
488.978	7110.5
494.66	7053.5
500.335	6826.5
506.005	6574.5
511.668	6212.5
517.325	5872.5
522.977	5668.5
528.622	5445.5
534.261	5328.5
539.894	5171.5
545.521	5110.5
551.141	5047.5
556.756	5000.5
562.365	4917.5
567.968	4915.5
573.565	4874.5
579.155	4817.5
584.74	4813.5
590.319	4818.5
595.892	4808.5
601.459	4810.5
607.02	4772.5
612.575	4765.5
618.124	4676.5
623.667	4620.5
629.204	4584.5
634.735	4502.5
640.261	4463.5
645.781	4415.5
651.294	4375.5
656.802	4371.5
662.304	4361.5
667.8	4356.5
673.29	4321.5
678.775	4301.5
684.254	4289.5
689.726	4254.5
695.193	4264.5
700.655	4233.5
706.11	4213.5
711.56	4185.5
717.004	4156.5
722.442	4127.5
727.874	4135.5
733.301	4110.5
738.722	4097.5
744.137	4074.5
749.547	4078.5
754.951	4102.5
760.349	4093.5
765.741	4111.5
771.128	4168.5
776.509	4175.5
781.885	4285.5
787.254	4322.5
792.618	4328.5
797.977	4336.5
803.33	4287.5
808.677	4270.5
814.019	4230.5
819.355	4192.5
824.686	4142.5
830.011	4110.5
835.33	4105.5
840.644	4080.5
845.952	4010.5
851.255	4014.5
856.552	3977.5
861.844	3935.5
867.13	3931.5
872.41	3895.5
877.686	3946.5
882.955	3981.5
888.219	3923.5
893.478	3775.5
898.731	3672.5
903.979	3621.5
909.221	3581.5
914.458	3553.5
919.69	3550.5
924.916	3546.5
930.136	3544.5
935.351	3551.5
940.561	3554.5
945.766	3569.5
950.965	3530.5
956.158	3495.5
961.347	3435.5
966.529	3417.5
971.707	3381.5
976.879	3348.5
982.046	3288.5
987.208	3277.5
992.364	3289.5
997.515	3270.5
1002.66	3371.5
1007.801	3355.5
1012.936	3370.5
1018.066	3378.5
1023.19	3421.5
1028.309	3455.5
1033.423	3453.5
1038.532	3458.5
1043.636	3433.5
1048.734	3458.5
1053.827	3396.5
1058.915	3354.5
1063.998	3341.5
1069.075	3349.5
1074.147	3322.5
1079.214	3313.5
1084.276	3337.5
1089.333	3368.5
1094.385	3360.5
1099.431	3344.5
1104.472	3323.5
1109.509	3241.5
1114.54	3217.5
1119.565	3139.5
1124.586	3121.5
1129.602	3067.5
1134.613	3026.5
1139.618	3033.5
1144.619	3028.5
1149.614	3042.5
1154.604	3034.5
1159.589	3040.5
1164.57	3042.5
1169.545	3076.5
1174.515	3066.5
1179.48	3041.5
1184.44	3048.5
1189.395	3022.5
1194.345	2972.5
1199.29	2998.5
1204.23	2972.5
1209.165	2932.5
1214.095	2977.5
1219.021	2969.5
1223.941	2981.5
1228.856	2986.5
1233.766	2995.5
1238.672	2995.5
1243.572	3012.5
1248.467	2969.5
1253.358	2952.5
1258.244	2893.5
1263.124	2850.5
1268	2805.5
1272.871	2769.5
1277.737	2758.5
1282.599	2740.5
1287.455	2737.5
1292.306	2750.5
1297.153	2738.5
1301.995	2751.5
1306.832	2738.5
1311.664	2755.5
1316.491	2771.5
1321.314	2768.5
1326.132	2740.5
1330.945	2724.5
1335.753	2643.5
1340.556	2611.5
1345.354	2565.5
1350.148	2538.5
1354.937	2531.5
1359.722	2478.5
1364.501	2461.5
1369.276	2463.5
1374.046	2482.5
1378.811	2439.5
1383.572	2460.5
1388.327	2444.5
1393.079	2417.5
1397.825	2421.5
1402.567	2371.5
1407.304	2356.5
1412.036	2362.5
1416.764	2379.5
1421.487	2339.5
1426.205	2347.5
1430.919	2351.5
1435.628	2366.5
1440.333	2392.5
1445.032	2414.5
1449.727	2456.5
1454.418	2467.5
1459.104	2497.5
1463.785	2457.5
1468.462	2426.5
1473.134	2344.5
1477.802	2334.5
1482.465	2263.5
1487.123	2260.5
1491.777	2214.5
1496.426	2214.5
1501.071	2246.5
1505.711	2210.5
1510.347	2242.5
1514.978	2271.5
1519.604	2268.5
1524.226	2250.5
1528.844	2223.5
1533.457	2212.5
1538.065	2201.5
1542.669	2183.5
1547.269	2169.5
1551.864	2146.5
1556.454	2122.5
1561.041	2130.5
1565.622	2127.5
1570.199	2121.5
1574.772	2155.5
1579.34	2161.5
1583.904	2194.5
1588.464	2204.5
1593.019	2207.5
1597.569	2192.5
1602.115	2162.5
1606.657	2192.5
1611.195	2175.5
1615.728	2186.5
1620.256	2167.5
1624.78	2118.5
1629.3	2169.5
1633.816	2188.5
1638.327	2162.5
1642.834	2212.5
1647.336	2233.5
1651.834	2226.5
1656.328	2218.5
1660.817	2204.5
1665.302	2198.5
1669.783	2186.5
1674.259	2141.5
1678.732	2094.5
1683.199	2062.5
1687.663	2014.5
1692.122	1969.5
1696.577	1935.5
1701.028	1902.5
1705.474	1851.5
1709.917	1841.5
1714.355	1803.5
1718.788	1804.5
1723.218	1771.5
1727.643	1737.5
1732.064	1742.5
1736.481	1682.5
1740.893	1658.5
1745.301	1628.5
1749.705	1577.5
1754.105	1567.5
1758.501	1533.5
1762.893	1520.5
1767.28	1481.5
1771.663	1459.5
1776.042	1454.5
1780.417	1445.5
1784.787	1450.5
1789.154	1462.5
1793.516	1470.5
1797.874	1458.5
1802.228	1447.5
1806.578	1419.5
1810.924	1436.5
1815.266	1338.5
1819.603	1414.5
1823.937	1363.5
1828.266	1361.5
1832.591	1346.5
1836.913	1341.5
1841.23	1322.5
1845.543	1314.5
1849.852	1331.5
1854.156	1331.5
1858.457	1326.5
1862.754	1328.5
1867.047	1342.5
1871.335	1337.5
1875.62	1343.5
1879.9	1348.5
1884.177	1332.5
1888.449	1320.5
1892.718	1326.5
1896.982	1341.5
1901.243	1296.5
1905.499	1311.5
1909.752	1299.5
1914	1277.5
1918.245	1310.5
1922.485	1307.5
1926.722	1305.5
1930.954	1308.5
1935.183	1331.5
1939.408	1339.5
1943.628	1313.5
1947.845	1311.5
1952.058	1296.5
1956.267	1264.5
1960.472	1265.5
1964.673	1207.5
1968.87	1209.5
1973.063	1179.5
1977.252	1160.5
1981.438	1149.5
1985.619	1132.5
1989.797	1112.5
1993.971	1129.5
1998.14	1135.5
2002.306	1109.5
2006.469	1123.5
2010.627	1093.5
2014.781	1099.5
2018.932	1084.5
2023.078	1107.5
2027.221	1085.5
2031.36	1064.5
2035.495	1054.5
2039.627	1054.5
2043.754	1064.5
2047.878	1049.5
2051.998	1034.5
2056.114	1035.5
2060.226	1025.5
2064.334	1041.5
2068.439	1049.5
2072.54	1044.5
2076.637	1036.5
2080.73	1056.5
2084.82	1052.5
2088.906	1046.5
2092.988	1052.5
2097.066	1042.5
2101.14	1044.5
2105.211	1028.5
2109.278	1001.5
2113.342	994.5
2117.401	981.5
2121.457	965.5
2125.509	959.5
2129.558	961.5
2133.602	949.5
2137.643	940.5
2141.681	940.5
2145.714	945.5
2149.744	929.5
2153.77	923.5
2157.793	896.5
2161.812	865.5
2165.827	860.5
2169.838	882.5
2173.846	854.5
2177.851	834.5
2181.851	838.5
2185.848	822.5
2189.841	825.5
2193.831	804.5
2197.817	805.5
2201.799	793.5
2205.778	786.5
2209.753	773.5
2213.725	767.5
2217.693	767.5
2221.657	766.5
2225.618	778.5
2229.575	757.5
2233.529	760.5
2237.479	756.5
2241.425	731.5
2245.368	714.5
2249.307	718.5
2253.243	712.5
2257.175	705.5
2261.104	671.5
2265.029	676.5
2268.95	667.5
2272.868	666.5
2276.783	658.5
2280.694	655.5
2284.601	644.5
2288.505	627.5
2292.405	626.5
2296.302	592.5
2300.195	600.5
2304.085	574.5
2307.971	595.5
2311.854	552.5
2315.734	568.5
2319.609	573.5
2323.482	542.5
2327.351	549.5
2331.216	544.5
2335.078	538.5
2338.937	545.5
2342.792	519.5
2346.643	534.5
2350.492	542.5
2354.336	534.5
2358.178	544.5
2362.015	540.5
2365.85	521.5
2369.681	529.5
2373.508	535.5
2377.333	552.5
2381.153	540.5
2384.971	527.5
2388.785	520.5
2392.595	523.5
2396.402	519.5
2400.206	487.5
2404.007	508.5
2407.804	505.5
2411.597	500.5
2415.388	496.5
2419.174	492.5
2422.958	502.5
2426.738	486.5
2430.515	497.5
2434.289	485.5
2438.059	489.5
2441.825	480.5
2445.589	493.5
2449.349	457.5
2453.106	479.5
2456.859	462.5
2460.61	462.5
2464.356	451.5
2468.1	442.5
2471.84	434.5
2475.577	439.5
2479.311	442.5
2483.041	441.5
2486.768	439.5
2490.492	449.5
2494.213	432.5
2497.93	426.5
2501.644	413.5
2505.355	437.5
2509.062	430.5
2512.766	418.5
2516.467	424.5
2520.165	422.5
2523.859	412.5
2527.551	446.5
2531.239	413.5
2534.923	419.5
2538.605	407.5
2542.283	414.5
2545.958	412.5
2549.63	416.5
2553.299	421.5
2556.964	399.5
2560.626	396.5
2564.285	401.5
2567.941	386.5
2571.594	392.5
2575.243	397.5
2578.89	392.5
2582.533	389.5
2586.173	380.5
2589.809	378.5
2593.443	354.5
2597.073	369.5
2600.701	370.5
2604.325	365.5
2607.946	350.5
2611.564	365.5
2615.178	361.5
2618.79	351.5
2622.398	345.5
2626.004	353.5
2629.606	345.5
2633.205	333.5
2636.801	349.5
2640.394	339.5
2643.983	332.5
2647.57	324.5
2651.153	319.5
2654.734	326.5
2658.311	304.5
2661.885	313.5
2665.456	312.5
2669.025	309.5
2672.589	296.5
2676.151	312.5
2679.71	308.5
2683.266	297.5
2686.819	284.5
2690.368	294.5
2693.915	302.5
2697.458	275.5
2700.999	287.5
2704.536	282.5
2708.071	273.5
2711.602	282.5
2715.13	272.5
2718.656	266.5
2722.178	278.5
2725.697	255.5
2729.214	264.5
2732.727	276.5
2736.237	260.5
2739.744	261.5
2743.249	261.5
2746.75	266.5
2750.248	262.5
2753.743	270.5
2757.236	266.5
2760.725	274.5
2764.211	238.5
2767.695	264.5
2771.175	264.5
2774.652	266.5
2778.127	252.5
2781.598	261.5
2785.067	261.5
2788.532	246.5
2791.995	260.5
2795.455	247.5
2798.911	264.5
2802.365	255.5
2805.816	264.5
2809.264	264.5
2812.709	256.5
2816.151	275.5
2819.59	253.5
2823.026	258.5
2826.46	257.5
2829.89	280.5
2833.318	245.5
2836.742	270.5
2840.164	270.5
2843.583	267.5
2846.999	272.5
2850.412	281.5
2853.822	273.5
2857.229	295.5
2860.634	289.5
2864.035	276.5
2867.434	307.5
2870.83	309.5
2874.223	315.5
2877.613	327.5
2881	327.5
2884.385	327.5
2887.766	333.5
2891.145	339.5
2894.521	333.5
2897.894	323.5
2901.264	340.5
2904.631	339.5
2907.996	340.5
2911.358	347.5
2914.717	340.5
2918.073	333.5
2921.426	340.5
2924.777	339.5
2928.124	356.5
2931.469	378.5
2934.811	376.5
2938.15	416.5
2941.487	387.5
2944.821	419.5
2948.152	392.5
2951.48	397.5
2954.805	367.5
2958.128	393.5
2961.447	364.5
2964.765	385.5
2968.079	361.5
2971.39	364.5
2974.699	377.5
2978.005	377.5
2981.308	378.5
2984.609	377.5
2987.907	386.5
2991.202	402.5
2994.494	374.5
2997.784	385.5
3001.07	376.5
3004.355	385.5
3007.636	383.5
3010.915	383.5
3014.191	378.5
3017.464	370.5
3020.734	376.5
3024.002	387.5
3027.267	383.5
3030.53	379.5
3033.789	390.5
3037.046	387.5
3040.301	381.5
3043.552	400.5
3046.801	410.5
3050.048	432.5
3053.291	443.5
3056.532	436.5
3059.771	433.5
3063.006	461.5
3066.239	465.5
3069.469	485.5
3072.697	476.5
3075.922	490.5
3079.144	505.5
3082.364	531.5
3085.581	523.5
3088.795	557.5
3092.007	561.5
3095.216	567.5
3098.423	574.5
3101.627	563.5
3104.828	600.5
3108.026	601.5
3111.222	627.5
3114.416	643.5
3117.607	642.5
3120.795	661.5
3123.98	682.5
3127.163	667.5
3130.344	688.5
3133.521	711.5
3136.696	739.5
3139.869	730.5
3143.039	732.5
3146.206	777.5
3149.371	777.5
3152.533	785.5
3155.693	777.5
3158.85	795.5
3162.005	795.5
3165.157	793.5
3168.306	786.5
3171.453	802.5
3174.597	787.5
3177.739	786.5
3180.878	804.5
3184.014	797.5
3187.149	800.5
3190.28	806.5
3193.409	816.5
3196.536	825.5
3199.659	823.5
3202.781	832.5
3205.9	797.5
3209.016	816.5
3212.13	815.5
3215.241	810.5
3218.35	801.5
3221.456	803.5
3224.56	781.5
3227.661	791.5
3230.76	777.5
3233.856	780.5
3236.95	771.5
3240.041	764.5
3243.13	766.5
3246.216	765.5
3249.3	753.5
3252.382	749.5
3255.46	747.5
3258.537	693.5
3261.611	733.5
3264.682	739.5
3267.751	738.5
3270.818	716.5
3273.882	737.5
3276.943	733.5
3280.002	733.5
3283.059	717.5
3286.113	704.5
3289.165	682.5
3292.214	685.5
3295.261	683.5
3298.306	650.5
3301.348	662.5
3304.387	630.5
3307.425	655.5
3310.459	629.5
3313.492	639.5
3316.521	620.5
3319.549	637.5
3322.574	614.5
3325.597	603.5
3328.617	598.5
3331.635	614.5
3334.65	587.5
3337.663	618.5
3340.674	591.5
3343.682	586.5
3346.688	595.5
3349.691	591.5
3352.692	601.5
3355.691	587.5
3358.687	587.5
3361.681	587.5
3364.673	574.5
3367.662	562.5
3370.649	567.5
3373.633	539.5
3376.615	557.5
3379.595	536.5
3382.572	542.5
3385.547	516.5
3388.52	519.5
3391.49	516.5
3394.458	499.5
3397.424	513.5
3400.387	492.5
3403.348	491.5
3406.307	490.5
3409.263	488.5
3412.217	489.5
3415.168	482.5
3418.118	486.5
3421.065	473.5
3424.009	480.5
3426.951	462.5
3429.891	454.5
3432.829	462.5
3435.764	442.5
3438.697	430.5
3441.628	432.5
3444.557	398.5
3447.483	400.5
3450.407	399.5
3453.328	386.5
3456.247	382.5
3459.164	360.5
3462.079	362.5
3464.991	339.5
3467.902	340.5
3470.809	335.5
3473.715	331.5
3476.618	317.5
3479.519	312.5
3482.418	284.5
3485.315	284.5
3488.209	283.5
3491.101	275.5
3493.99	253.5
3496.878	251.5
3499.763	252.5
3502.646	258.5
3505.527	239.5
3508.405	231.5
3511.281	217.5
3514.155	226.5
3517.027	213.5
3519.897	195.5
3522.764	196.5
3525.629	174.5
3528.492	182.5
3531.352	179.5
3534.211	174.5
3537.067	155.5
3539.921	155.5
3542.773	155.5
3545.622	134.5
3548.469	132.5
3551.315	118.5
3554.157	126.5
3556.998	115.5
3559.837	114.5
3562.673	105.5
3565.507	100.5
3568.339	92.5
3571.169	95.5
3573.996	93.5
3576.822	69.5
3579.645	76.5
3582.466	72.5
3585.285	83.5
3588.101	68.5
3590.916	64.5
3593.728	76.5
3596.538	57.5
3599.346	65.5
3602.152	48.5
3604.956	54.5
3607.757	51.5
3610.556	35.5
3613.354	49.5
3616.149	45.5
3618.942	44.5
3621.732	45.5
3624.521	26.5
3627.307	24.5
3630.092	26.5
3632.874	45.5
3635.654	26.5
3638.432	23.5
3641.208	21.5
3643.982	15.5
3646.753	29.5
3649.523	-4.5
3652.29	18.5
3655.055	21.5
3657.818	22.5
3660.579	6.5
3663.338	4.5
3666.095	4.5
3668.849	-20.5
3671.602	9.5
3674.352	-7.5
3677.101	6.5
3679.847	7.5
3682.591	-5.5
3685.333	-12.5
3688.073	-0.5
3690.811	-14.5
3693.547	-19.5
3696.281	-18.5
3699.013	-3.5
3701.742	-12.5
3704.47	-15.5
3707.195	-5.5
3709.919	-8.5
3712.64	-14.5
3715.359	-19.5
3718.076	-0.5
3720.792	-18.5
3723.505	-10.5
3726.216	3.5
3728.925	-17.5
3731.632	-25.5
3734.336	-11.5
3737.039	-20.5
3739.74	-14.5
3742.439	-45.5
3745.136	-12.5
3747.83	-16.5
3750.523	-18.5
3753.213	-81.5
3755.902	-19.5
3758.589	-36.5
3761.273	-26.5
3763.956	-15.5
3766.636	-31.5
3769.315	-13.5
3771.991	-23.5
3774.665	-26.5
3777.338	-21.5
3780.008	-25.5
3782.677	-24.5
3785.343	-37.5
3788.007	-38.5
3790.67	-12.5
3793.33	-34.5
3795.989	-29.5
3798.645	-23.5
3801.299	-37.5
3803.952	-27.5
3806.602	-26.5
3809.251	-22.5
3811.897	-25.5
3814.542	-28.5
3817.184	-28.5
3819.825	-28.5
3822.463	-35.5
3825.1	-33.5
3827.735	-21.5
3830.367	-36.5
3832.998	-12.5
3835.627	-24.5
3838.253	-21.5
3840.878	-33.5
3843.501	-6.5
3846.122	-21.5
3848.741	-14.5
3851.358	-24.5
3853.973	-38.5
3856.586	-15.5
3859.197	-30.5
3861.806	-26.5
3864.414	-33.5
3867.019	-23.5
3869.622	-10.5
3872.224	-7.5
3874.823	13.5
3877.421	39.5
3880.016	74.5
3882.61	135.5
3885.202	154.5
3887.792	111.5
3890.38	65.5
3892.966	11.5
3895.55	-22.5
3898.132	-12.5
3900.713	-18.5
3903.291	-25.5
3905.868	-33.5
3908.442	-24.5
3911.015	-28.5
3913.586	-33.5
3916.155	-25.5
3918.722	-35.5
3921.287	-36.5
3923.85	-44.5
3926.411	-36.5
3928.971	-33.5
3931.528	-27.5
3934.084	-30.5
3936.638	-40.5
3939.19	-25.5
3941.74	-27.5
3944.288	-33.5
3946.834	-35.5
3949.378	-21.5
3951.921	-32.5
3954.462	-29.5
3957	-28.5
3959.537	-15.5
3962.072	-30.5
3964.606	-40.5
3967.137	-29.5
3969.667	-37.5
3972.194	-23.5
3974.72	-36.5
3977.244	-46.5
3979.766	-35.5
3982.286	-34.5
3984.805	-24.5
3987.321	-22.5
3989.836	-15.5
3992.349	-33.5
3994.86	-25.5
3997.369	-36.5
3999.877	-29.5
4002.382	-28.5
4004.886	-23.5
4007.388	-28.5
4009.888	-14.5
4012.386	-20.5
4014.883	-22.5
4017.377	-27.5
4019.87	-24.5
4022.361	-32.5
4024.85	-23.5
4027.338	-25.5
4029.823	-27.5
4032.307	-28.5
4034.789	-24.5
4037.269	-28.5
4039.747	-37.5
4042.224	-21.5
4044.699	-34.5
4047.172	-36.5
4049.643	-17.5
4052.112	-52.5
4054.58	-29.5
4057.046	-37.5
4059.51	-27.5
4061.972	-25.5
4064.432	-41.5
4066.891	-19.5
4069.348	-27.5
4071.803	-24.5
4074.256	-34.5
4076.708	-25.5
4079.158	-26.5
4081.606	-19.5
4084.052	-32.5
4086.497	-23.5
4088.939	-25.5
4091.38	-29.5
4093.819	-22.5
4096.257	3.5
4098.693	-6.5
4101.127	-5.5
4103.559	3.5
4105.989	151.5
4108.418	163.5
4110.845	145.5
4113.27	161.5
4115.694	161.5
4118.115	162.5
4120.535	-23.5
4122.954	-20.5
4125.37	-17.5
4127.785	-24.5
4130.198	-20.5
4132.609	-22.5
4135.019	6.5
4137.427	-2.5
4139.833	3.5
4142.237	-2.5
