Data from 2018-3-6_conc=5_n=10_RamanShift_01.txt Node
Date: Tue Mar 06 14:50:18 GMT+02:00 2018
User: LAB3
Spectrometer: QEPB0276
Trigger mode: 0
Integration Time (sec): 3.000000E1
Scans to average: 1
Electric dark correction enabled: true
Nonlinearity correction enabled: false
Boxcar width: 0
XAxis mode: Raman Shifts
Number of Pixels in Spectrum: 1044
>>>>>Begin Spectral Data<<<<<
160.701	47.75
166.742	68.75
172.777	90.75
178.805	178.75
184.826	429.75
190.841	868.75
196.849	1349.75
202.85	1710.75
208.845	1821.75
214.833	1802.75
220.815	1742.75
226.789	1724.75
232.758	1726.75
238.719	1686.75
244.674	1662.75
250.623	1639.75
256.565	1601.75
262.5	1571.75
268.429	1552.75
274.351	1538.75
280.267	1518.75
286.176	1519.75
292.079	1526.75
297.975	1512.75
303.865	1486.75
309.748	1498.75
315.625	1491.75
321.495	1497.75
327.359	1485.75
333.217	1462.75
339.068	1468.75
344.912	1485.75
350.751	1481.75
356.583	1464.75
362.408	1484.75
368.227	1503.75
374.04	1502.75
379.847	1504.75
385.647	1503.75
391.44	1499.75
397.228	1515.75
403.009	1534.75
408.784	1539.75
414.553	1545.75
420.315	1554.75
426.071	1523.75
431.821	1555.75
437.565	1549.75
443.302	1531.75
449.033	1513.75
454.758	1521.75
460.477	1494.75
466.189	1496.75
471.896	1487.75
477.596	1462.75
483.29	1439.75
488.978	1429.75
494.66	1447.75
500.335	1396.75
506.005	1335.75
511.668	1267.75
517.325	1205.75
522.977	1146.75
528.622	1113.75
534.261	1084.75
539.894	1064.75
545.521	1040.75
551.141	1023.75
556.756	1013.75
562.365	1015.75
567.968	1011.75
573.565	997.75
579.155	1001.75
584.74	976.75
590.319	991.75
595.892	987.75
601.459	994.75
607.02	987.75
612.575	979.75
618.124	971.75
623.667	944.75
629.204	933.75
634.735	919.75
640.261	917.75
645.781	880.75
651.294	883.75
656.802	893.75
662.304	905.75
667.8	907.75
673.29	884.75
678.775	887.75
684.254	882.75
689.726	868.75
695.193	879.75
700.655	866.75
706.11	853.75
711.56	871.75
717.004	859.75
722.442	830.75
727.874	836.75
733.301	841.75
738.722	825.75
744.137	833.75
749.547	831.75
754.951	834.75
760.349	833.75
765.741	839.75
771.128	842.75
776.509	855.75
781.885	866.75
787.254	871.75
792.618	845.75
797.977	868.75
803.33	870.75
808.677	867.75
814.019	857.75
819.355	850.75
824.686	833.75
830.011	834.75
835.33	843.75
840.644	845.75
845.952	808.75
851.255	825.75
856.552	819.75
861.844	792.75
867.13	783.75
872.41	772.75
877.686	791.75
882.955	782.75
888.219	754.75
893.478	753.75
898.731	752.75
903.979	737.75
909.221	716.75
914.458	717.75
919.69	722.75
924.916	719.75
930.136	725.75
935.351	725.75
940.561	726.75
945.766	726.75
950.965	732.75
956.158	707.75
961.347	703.75
966.529	699.75
971.707	699.75
976.879	681.75
982.046	671.75
987.208	647.75
992.364	680.75
997.515	658.75
1002.66	672.75
1007.801	665.75
1012.936	680.75
1018.066	668.75
1023.19	691.75
1028.309	701.75
1033.423	689.75
1038.532	696.75
1043.636	683.75
1048.734	678.75
1053.827	660.75
1058.915	665.75
1063.998	651.75
1069.075	641.75
1074.147	658.75
1079.214	636.75
1084.276	663.75
1089.333	672.75
1094.385	677.75
1099.431	654.75
1104.472	667.75
1109.509	641.75
1114.54	632.75
1119.565	636.75
1124.586	625.75
1129.602	608.75
1134.613	603.75
1139.618	594.75
1144.619	599.75
1149.614	616.75
1154.604	610.75
1159.589	595.75
1164.57	627.75
1169.545	623.75
1174.515	619.75
1179.48	605.75
1184.44	598.75
1189.395	625.75
1194.345	597.75
1199.29	599.75
1204.23	587.75
1209.165	579.75
1214.095	589.75
1219.021	588.75
1223.941	588.75
1228.856	591.75
1233.766	604.75
1238.672	607.75
1243.572	599.75
1248.467	594.75
1253.358	591.75
1258.244	568.75
1263.124	585.75
1268	565.75
1272.871	538.75
1277.737	547.75
1282.599	547.75
1287.455	537.75
1292.306	551.75
1297.153	529.75
1301.995	542.75
1306.832	540.75
1311.664	551.75
1316.491	539.75
1321.314	546.75
1326.132	540.75
1330.945	541.75
1335.753	527.75
1340.556	526.75
1345.354	504.75
1350.148	498.75
1354.937	498.75
1359.722	481.75
1364.501	487.75
1369.276	497.75
1374.046	500.75
1378.811	492.75
1383.572	495.75
1388.327	483.75
1393.079	472.75
1397.825	470.75
1402.567	465.75
1407.304	450.75
1412.036	465.75
1416.764	457.75
1421.487	450.75
1426.205	447.75
1430.919	454.75
1435.628	445.75
1440.333	460.75
1445.032	464.75
1449.727	473.75
1454.418	468.75
1459.104	473.75
1463.785	455.75
1468.462	466.75
1473.134	448.75
1477.802	435.75
1482.465	417.75
1487.123	429.75
1491.777	416.75
1496.426	395.75
1501.071	433.75
1505.711	425.75
1510.347	434.75
1514.978	427.75
1519.604	426.75
1524.226	449.75
1528.844	429.75
1533.457	431.75
1538.065	424.75
1542.669	428.75
1547.269	417.75
1551.864	419.75
1556.454	408.75
1561.041	410.75
1565.622	409.75
1570.199	418.75
1574.772	415.75
1579.34	427.75
1583.904	435.75
1588.464	443.75
1593.019	439.75
1597.569	420.75
1602.115	427.75
1606.657	419.75
1611.195	441.75
1615.728	439.75
1620.256	413.75
1624.78	397.75
1629.3	407.75
1633.816	427.75
1638.327	413.75
1642.834	432.75
1647.336	424.75
1651.834	438.75
1656.328	430.75
1660.817	428.75
1665.302	413.75
1669.783	408.75
1674.259	399.75
1678.732	388.75
1683.199	390.75
1687.663	369.75
1692.122	373.75
1696.577	371.75
1701.028	363.75
1705.474	338.75
1709.917	337.75
1714.355	334.75
1718.788	335.75
1723.218	332.75
1727.643	302.75
1732.064	321.75
1736.481	305.75
1740.893	311.75
1745.301	300.75
1749.705	269.75
1754.105	296.75
1758.501	276.75
1762.893	291.75
1767.28	255.75
1771.663	266.75
1776.042	267.75
1780.417	256.75
1784.787	262.75
1789.154	271.75
1793.516	266.75
1797.874	264.75
1802.228	252.75
1806.578	245.75
1810.924	263.75
1815.266	144.75
1819.603	253.75
1823.937	242.75
1828.266	248.75
1832.591	250.75
1836.913	243.75
1841.23	241.75
1845.543	234.75
1849.852	251.75
1854.156	240.75
1858.457	232.75
1862.754	237.75
1867.047	234.75
1871.335	252.75
1875.62	243.75
1879.9	244.75
1884.177	237.75
1888.449	235.75
1892.718	241.75
1896.982	238.75
1901.243	229.75
1905.499	220.75
1909.752	219.75
1914	211.75
1918.245	237.75
1922.485	234.75
1926.722	229.75
1930.954	215.75
1935.183	231.75
1939.408	231.75
1943.628	230.75
1947.845	220.75
1952.058	216.75
1956.267	208.75
1960.472	222.75
1964.673	222.75
1968.87	216.75
1973.063	215.75
1977.252	210.75
1981.438	200.75
1985.619	204.75
1989.797	194.75
1993.971	197.75
1998.14	207.75
2002.306	202.75
2006.469	211.75
2010.627	185.75
2014.781	193.75
2018.932	185.75
2023.078	210.75
2027.221	195.75
2031.36	187.75
2035.495	185.75
2039.627	186.75
2043.754	189.75
2047.878	176.75
2051.998	174.75
2056.114	179.75
2060.226	183.75
2064.334	188.75
2068.439	188.75
2072.54	192.75
2076.637	173.75
2080.73	176.75
2084.82	182.75
2088.906	171.75
2092.988	175.75
2097.066	177.75
2101.14	187.75
2105.211	185.75
2109.278	177.75
2113.342	168.75
2117.401	163.75
2121.457	163.75
2125.509	159.75
2129.558	158.75
2133.602	166.75
2137.643	159.75
2141.681	153.75
2145.714	162.75
2149.744	158.75
2153.77	159.75
2157.793	154.75
2161.812	132.75
2165.827	134.75
2169.838	158.75
2173.846	148.75
2177.851	135.75
2181.851	142.75
2185.848	140.75
2189.841	144.75
2193.831	132.75
2197.817	137.75
2201.799	134.75
2205.778	130.75
2209.753	118.75
2213.725	126.75
2217.693	131.75
2221.657	119.75
2225.618	137.75
2229.575	122.75
2233.529	129.75
2237.479	137.75
2241.425	119.75
2245.368	108.75
2249.307	120.75
2253.243	112.75
2257.175	121.75
2261.104	111.75
2265.029	124.75
2268.95	111.75
2272.868	109.75
2276.783	104.75
2280.694	110.75
2284.601	111.75
2288.505	106.75
2292.405	111.75
2296.302	95.75
2300.195	106.75
2304.085	70.75
2307.971	104.75
2311.854	78.75
2315.734	98.75
2319.609	100.75
2323.482	78.75
2327.351	85.75
2331.216	87.75
2335.078	98.75
2338.937	89.75
2342.792	85.75
2346.643	79.75
2350.492	88.75
2354.336	83.75
2358.178	84.75
2362.015	86.75
2365.85	85.75
2369.681	79.75
2373.508	86.75
2377.333	91.75
2381.153	88.75
2384.971	81.75
2388.785	87.75
2392.595	68.75
2396.402	70.75
2400.206	55.75
2404.007	63.75
2407.804	72.75
2411.597	77.75
2415.388	75.75
2419.174	72.75
2422.958	75.75
2426.738	68.75
2430.515	82.75
2434.289	61.75
2438.059	62.75
2441.825	66.75
2445.589	80.75
2449.349	59.75
2453.106	77.75
2456.859	71.75
2460.61	71.75
2464.356	60.75
2468.1	63.75
2471.84	62.75
2475.577	60.75
2479.311	55.75
2483.041	58.75
2486.768	80.75
2490.492	73.75
2494.213	60.75
2497.93	48.75
2501.644	51.75
2505.355	55.75
2509.062	53.75
2512.766	56.75
2516.467	50.75
2520.165	56.75
2523.859	43.75
2527.551	77.75
2531.239	42.75
2534.923	55.75
2538.605	52.75
2542.283	54.75
2545.958	57.75
2549.63	62.75
2553.299	58.75
2556.964	41.75
2560.626	47.75
2564.285	52.75
2567.941	38.75
2571.594	40.75
2575.243	52.75
2578.89	41.75
2582.533	42.75
2586.173	51.75
2589.809	50.75
2593.443	25.75
2597.073	42.75
2600.701	43.75
2604.325	41.75
2607.946	28.75
2611.564	52.75
2615.178	44.75
2618.79	46.75
2622.398	42.75
2626.004	44.75
2629.606	45.75
2633.205	34.75
2636.801	50.75
2640.394	45.75
2643.983	37.75
2647.57	37.75
2651.153	35.75
2654.734	41.75
2658.311	16.75
2661.885	27.75
2665.456	33.75
2669.025	31.75
2672.589	30.75
2676.151	41.75
2679.71	49.75
2683.266	29.75
2686.819	30.75
2690.368	34.75
2693.915	32.75
2697.458	34.75
2700.999	36.75
2704.536	29.75
2708.071	29.75
2711.602	31.75
2715.13	30.75
2718.656	13.75
2722.178	32.75
2725.697	19.75
2729.214	26.75
2732.727	26.75
2736.237	11.75
2739.744	20.75
2743.249	19.75
2746.75	25.75
2750.248	20.75
2753.743	24.75
2757.236	23.75
2760.725	30.75
2764.211	-6.25
2767.695	32.75
2771.175	21.75
2774.652	28.75
2778.127	19.75
2781.598	26.75
2785.067	22.75
2788.532	15.75
2791.995	24.75
2795.455	12.75
2798.911	31.75
2802.365	14.75
2805.816	24.75
2809.264	27.75
2812.709	16.75
2816.151	24.75
2819.59	5.75
2823.026	20.75
2826.46	17.75
2829.89	26.75
2833.318	4.75
2836.742	14.75
2840.164	18.75
2843.583	20.75
2846.999	18.75
2850.412	21.75
2853.822	14.75
2857.229	27.75
2860.634	24.75
2864.035	4.75
2867.434	29.75
2870.83	21.75
2874.223	14.75
2877.613	21.75
2881	15.75
2884.385	14.75
2887.766	22.75
2891.145	18.75
2894.521	24.75
2897.894	9.75
2901.264	22.75
2904.631	29.75
2907.996	28.75
2911.358	30.75
2914.717	26.75
2918.073	23.75
2921.426	20.75
2924.777	11.75
2928.124	26.75
2931.469	39.75
2934.811	16.75
2938.15	41.75
2941.487	30.75
2944.821	47.75
2948.152	29.75
2951.48	38.75
2954.805	24.75
2958.128	43.75
2961.447	26.75
2964.765	44.75
2968.079	35.75
2971.39	40.75
2974.699	36.75
2978.005	43.75
2981.308	40.75
2984.609	34.75
2987.907	40.75
2991.202	44.75
2994.494	27.75
2997.784	39.75
3001.07	34.75
3004.355	34.75
3007.636	39.75
3010.915	42.75
3014.191	34.75
3017.464	39.75
3020.734	39.75
3024.002	42.75
3027.267	37.75
3030.53	40.75
3033.789	42.75
3037.046	50.75
3040.301	38.75
3043.552	54.75
3046.801	51.75
3050.048	57.75
3053.291	72.75
3056.532	57.75
3059.771	44.75
3063.006	66.75
3066.239	54.75
3069.469	77.75
3072.697	58.75
3075.922	60.75
3079.144	65.75
3082.364	89.75
3085.581	68.75
3088.795	90.75
3092.007	78.75
3095.216	85.75
3098.423	81.75
3101.627	59.75
3104.828	84.75
3108.026	73.75
3111.222	98.75
3114.416	105.75
3117.607	95.75
3120.795	95.75
3123.98	94.75
3127.163	88.75
3130.344	94.75
3133.521	85.75
3136.696	115.75
3139.869	108.75
3143.039	92.75
3146.206	118.75
3149.371	128.75
3152.533	120.75
3155.693	105.75
3158.85	116.75
3162.005	121.75
3165.157	112.75
3168.306	122.75
3171.453	127.75
3174.597	109.75
3177.739	111.75
3180.878	126.75
3184.014	133.75
3187.149	124.75
3190.28	126.75
3193.409	138.75
3196.536	122.75
3199.659	129.75
3202.781	134.75
3205.9	117.75
3209.016	130.75
3212.13	126.75
3215.241	121.75
3218.35	117.75
3221.456	119.75
3224.56	102.75
3227.661	117.75
3230.76	107.75
3233.856	109.75
3236.95	114.75
3240.041	105.75
3243.13	117.75
3246.216	111.75
3249.3	117.75
3252.382	106.75
3255.46	106.75
3258.537	57.75
3261.611	101.75
3264.682	109.75
3267.751	103.75
3270.818	100.75
3273.882	111.75
3276.943	105.75
3280.002	120.75
3283.059	97.75
3286.113	95.75
3289.165	103.75
3292.214	94.75
3295.261	110.75
3298.306	86.75
3301.348	103.75
3304.387	85.75
3307.425	98.75
3310.459	95.75
3313.492	101.75
3316.521	94.75
3319.549	100.75
3322.574	99.75
3325.597	91.75
3328.617	85.75
3331.635	87.75
3334.65	72.75
3337.663	83.75
3340.674	78.75
3343.682	91.75
3346.688	94.75
3349.691	77.75
3352.692	80.75
3355.691	86.75
3358.687	76.75
3361.681	85.75
3364.673	80.75
3367.662	83.75
3370.649	91.75
3373.633	68.75
3376.615	82.75
3379.595	58.75
3382.572	73.75
3385.547	68.75
3388.52	65.75
3391.49	68.75
3394.458	78.75
3397.424	80.75
3400.387	62.75
3403.348	74.75
3406.307	75.75
3409.263	70.75
3412.217	73.75
3415.168	74.75
3418.118	81.75
3421.065	60.75
3424.009	66.75
3426.951	59.75
3429.891	49.75
3432.829	57.75
3435.764	61.75
3438.697	46.75
3441.628	64.75
3444.557	46.75
3447.483	40.75
3450.407	53.75
3453.328	40.75
3456.247	36.75
3459.164	36.75
3462.079	51.75
3464.991	40.75
3467.902	41.75
3470.809	34.75
3473.715	40.75
3476.618	24.75
3479.519	33.75
3482.418	17.75
3485.315	23.75
3488.209	22.75
3491.101	27.75
3493.99	9.75
3496.878	10.75
3499.763	22.75
3502.646	17.75
3505.527	14.75
3508.405	18.75
3511.281	0.75
3514.155	14.75
3517.027	8.75
3519.897	-5.25
3522.764	13.75
3525.629	-12.25
3528.492	11.75
3531.352	2.75
3534.211	7.75
3537.067	-1.25
3539.921	-0.25
3542.773	2.75
3545.622	-5.25
3548.469	-10.25
3551.315	-17.25
3554.157	-9.25
3556.998	-20.25
3559.837	-13.25
3562.673	-5.25
3565.507	-16.25
3568.339	-20.25
3571.169	-15.25
3573.996	-14.25
3576.822	-30.25
3579.645	-23.25
3582.466	-20.25
3585.285	-17.25
3588.101	-12.25
3590.916	-23.25
3593.728	-7.25
3596.538	-21.25
3599.346	-11.25
3602.152	-19.25
3604.956	-21.25
3607.757	-10.25
3610.556	-29.25
3613.354	-18.25
3616.149	-16.25
3618.942	-15.25
3621.732	-19.25
3624.521	-22.25
3627.307	-33.25
3630.092	-33.25
3632.874	-17.25
3635.654	-20.25
3638.432	-29.25
3641.208	-28.25
3643.982	-25.25
3646.753	-15.25
3649.523	-56.25
3652.29	-33.25
3655.055	-18.25
3657.818	-22.25
3660.579	-32.25
3663.338	-37.25
3666.095	-28.25
3668.849	-50.25
3671.602	-24.25
3674.352	-42.25
3677.101	-22.25
3679.847	-23.25
3682.591	-30.25
3685.333	-41.25
3688.073	-24.25
3690.811	-40.25
3693.547	-45.25
3696.281	-40.25
3699.013	-28.25
3701.742	-31.25
3704.47	-43.25
3707.195	-27.25
3709.919	-28.25
3712.64	-30.25
3715.359	-37.25
3718.076	-17.25
3720.792	-31.25
3723.505	-26.25
3726.216	-16.25
3728.925	-33.25
3731.632	-42.25
3734.336	-29.25
3737.039	-31.25
3739.74	-33.25
3742.439	-56.25
3745.136	-25.25
3747.83	-29.25
3750.523	-29.25
3753.213	-97.25
3755.902	-32.25
3758.589	-46.25
3761.273	-35.25
3763.956	-27.25
3766.636	-47.25
3769.315	-24.25
3771.991	-36.25
3774.665	-38.25
3777.338	-34.25
3780.008	-44.25
3782.677	-33.25
3785.343	-52.25
3788.007	-50.25
3790.67	-25.25
3793.33	-45.25
3795.989	-34.25
3798.645	-32.25
3801.299	-42.25
3803.952	-40.25
3806.602	-35.25
3809.251	-29.25
3811.897	-33.25
3814.542	-38.25
3817.184	-34.25
3819.825	-32.25
3822.463	-46.25
3825.1	-33.25
3827.735	-28.25
3830.367	-40.25
3832.998	-21.25
3835.627	-33.25
3838.253	-23.25
3840.878	-38.25
3843.501	-19.25
3846.122	-27.25
3848.741	-23.25
3851.358	-26.25
3853.973	-39.25
3856.586	-22.25
3859.197	-42.25
3861.806	-31.25
3864.414	-47.25
3867.019	-31.25
3869.622	-22.25
3872.224	-21.25
3874.823	-15.25
3877.421	11.75
3880.016	21.75
3882.61	61.75
3885.202	69.75
3887.792	50.75
3890.38	22.75
3892.966	-18.25
3895.55	-37.25
3898.132	-33.25
3900.713	-29.25
3903.291	-28.25
3905.868	-43.25
3908.442	-31.25
3911.015	-33.25
3913.586	-40.25
3916.155	-31.25
3918.722	-33.25
3921.287	-39.25
3923.85	-47.25
3926.411	-41.25
3928.971	-35.25
3931.528	-26.25
3934.084	-33.25
3936.638	-44.25
3939.19	-29.25
3941.74	-30.25
3944.288	-38.25
3946.834	-31.25
3949.378	-23.25
3951.921	-38.25
3954.462	-35.25
3957	-29.25
3959.537	-23.25
3962.072	-37.25
3964.606	-46.25
3967.137	-37.25
3969.667	-37.25
3972.194	-27.25
3974.72	-36.25
3977.244	-56.25
3979.766	-37.25
3982.286	-38.25
3984.805	-34.25
3987.321	-28.25
3989.836	-28.25
3992.349	-41.25
3994.86	-35.25
3997.369	-45.25
3999.877	-38.25
4002.382	-41.25
4004.886	-27.25
4007.388	-31.25
4009.888	-25.25
4012.386	-29.25
4014.883	-34.25
4017.377	-35.25
4019.87	-32.25
4022.361	-46.25
4024.85	-34.25
4027.338	-32.25
4029.823	-36.25
4032.307	-33.25
4034.789	-32.25
4037.269	-28.25
4039.747	-45.25
4042.224	-24.25
4044.699	-35.25
4047.172	-33.25
4049.643	-25.25
4052.112	-59.25
4054.58	-33.25
4057.046	-45.25
4059.51	-31.25
4061.972	-29.25
4064.432	-51.25
4066.891	-15.25
4069.348	-32.25
4071.803	-32.25
4074.256	-39.25
4076.708	-28.25
4079.158	-31.25
4081.606	-23.25
4084.052	-32.25
4086.497	-26.25
4088.939	-32.25
4091.38	-40.25
4093.819	-24.25
4096.257	2.75
4098.693	-7.25
4101.127	-5.25
4103.559	1.75
4105.989	56.75
4108.418	57.75
4110.845	43.75
4113.27	47.75
4115.694	59.75
4118.115	43.75
4120.535	-35.25
4122.954	-27.25
4125.37	-25.25
4127.785	-31.25
4130.198	-26.25
4132.609	-29.25
4135.019	8.75
4137.427	-1.25
4139.833	5.75
4142.237	-5.25
