Data from 2018-3-6_conc=6_n=7_RamanShift_05.txt Node
Date: Tue Mar 06 15:15:18 GMT+02:00 2018
User: LAB3
Spectrometer: QEPB0276
Trigger mode: 0
Integration Time (sec): 3.000000E1
Scans to average: 1
Electric dark correction enabled: true
Nonlinearity correction enabled: false
Boxcar width: 0
XAxis mode: Raman Shifts
Number of Pixels in Spectrum: 1044
>>>>>Begin Spectral Data<<<<<
160.701	36.12
166.742	53.12
172.777	78.12
178.805	154.12
184.826	368.12
190.841	753.12
196.849	1167.12
202.85	1453.12
208.845	1563.12
214.833	1533.12
220.815	1519.12
226.789	1502.12
232.758	1485.12
238.719	1476.12
244.674	1453.12
250.623	1426.12
256.565	1401.12
262.5	1391.12
268.429	1377.12
274.351	1368.12
280.267	1352.12
286.176	1381.12
292.079	1346.12
297.975	1367.12
303.865	1340.12
309.748	1344.12
315.625	1332.12
321.495	1345.12
327.359	1334.12
333.217	1307.12
339.068	1333.12
344.912	1338.12
350.751	1341.12
356.583	1340.12
362.408	1347.12
368.227	1368.12
374.04	1361.12
379.847	1363.12
385.647	1378.12
391.44	1356.12
397.228	1373.12
403.009	1378.12
408.784	1375.12
414.553	1392.12
420.315	1395.12
426.071	1365.12
431.821	1392.12
437.565	1399.12
443.302	1374.12
449.033	1357.12
454.758	1369.12
460.477	1363.12
466.189	1345.12
471.896	1342.12
477.596	1315.12
483.29	1300.12
488.978	1293.12
494.66	1288.12
500.335	1259.12
506.005	1208.12
511.668	1144.12
517.325	1088.12
522.977	1024.12
528.622	1012.12
534.261	980.12
539.894	956.12
545.521	945.12
551.141	915.12
556.756	900.12
562.365	905.12
567.968	895.12
573.565	877.12
579.155	907.12
584.74	875.12
590.319	879.12
595.892	884.12
601.459	886.12
607.02	886.12
612.575	863.12
618.124	862.12
623.667	831.12
629.204	835.12
634.735	822.12
640.261	813.12
645.781	779.12
651.294	784.12
656.802	786.12
662.304	807.12
667.8	802.12
673.29	803.12
678.775	804.12
684.254	789.12
689.726	764.12
695.193	787.12
700.655	756.12
706.11	760.12
711.56	759.12
717.004	767.12
722.442	743.12
727.874	755.12
733.301	760.12
738.722	733.12
744.137	744.12
749.547	736.12
754.951	727.12
760.349	736.12
765.741	750.12
771.128	744.12
776.509	758.12
781.885	777.12
787.254	782.12
792.618	771.12
797.977	785.12
803.33	786.12
808.677	758.12
814.019	769.12
819.355	763.12
824.686	737.12
830.011	727.12
835.33	753.12
840.644	750.12
845.952	732.12
851.255	740.12
856.552	717.12
861.844	717.12
867.13	695.12
872.41	695.12
877.686	690.12
882.955	695.12
888.219	681.12
893.478	655.12
898.731	666.12
903.979	658.12
909.221	654.12
914.458	640.12
919.69	644.12
924.916	645.12
930.136	639.12
935.351	633.12
940.561	641.12
945.766	643.12
950.965	646.12
956.158	617.12
961.347	615.12
966.529	613.12
971.707	630.12
976.879	612.12
982.046	596.12
987.208	588.12
992.364	593.12
997.515	600.12
1002.66	598.12
1007.801	590.12
1012.936	602.12
1018.066	592.12
1023.19	607.12
1028.309	621.12
1033.423	620.12
1038.532	627.12
1043.636	593.12
1048.734	600.12
1053.827	588.12
1058.915	585.12
1063.998	588.12
1069.075	582.12
1074.147	601.12
1079.214	564.12
1084.276	589.12
1089.333	579.12
1094.385	592.12
1099.431	580.12
1104.472	581.12
1109.509	568.12
1114.54	562.12
1119.565	561.12
1124.586	567.12
1129.602	536.12
1134.613	521.12
1139.618	529.12
1144.619	536.12
1149.614	542.12
1154.604	539.12
1159.589	535.12
1164.57	554.12
1169.545	562.12
1174.515	561.12
1179.48	554.12
1184.44	540.12
1189.395	555.12
1194.345	532.12
1199.29	535.12
1204.23	524.12
1209.165	509.12
1214.095	531.12
1219.021	539.12
1223.941	528.12
1228.856	531.12
1233.766	536.12
1238.672	535.12
1243.572	544.12
1248.467	531.12
1253.358	529.12
1258.244	502.12
1263.124	511.12
1268	522.12
1272.871	487.12
1277.737	479.12
1282.599	484.12
1287.455	472.12
1292.306	477.12
1297.153	462.12
1301.995	488.12
1306.832	473.12
1311.664	486.12
1316.491	482.12
1321.314	490.12
1326.132	471.12
1330.945	484.12
1335.753	473.12
1340.556	455.12
1345.354	457.12
1350.148	445.12
1354.937	444.12
1359.722	430.12
1364.501	433.12
1369.276	445.12
1374.046	441.12
1378.811	428.12
1383.572	443.12
1388.327	440.12
1393.079	421.12
1397.825	418.12
1402.567	423.12
1407.304	408.12
1412.036	410.12
1416.764	409.12
1421.487	393.12
1426.205	397.12
1430.919	404.12
1435.628	413.12
1440.333	406.12
1445.032	419.12
1449.727	420.12
1454.418	423.12
1459.104	421.12
1463.785	407.12
1468.462	423.12
1473.134	403.12
1477.802	398.12
1482.465	373.12
1487.123	389.12
1491.777	367.12
1496.426	362.12
1501.071	392.12
1505.711	371.12
1510.347	388.12
1514.978	385.12
1519.604	398.12
1524.226	397.12
1528.844	370.12
1533.457	398.12
1538.065	387.12
1542.669	390.12
1547.269	379.12
1551.864	375.12
1556.454	363.12
1561.041	367.12
1565.622	368.12
1570.199	372.12
1574.772	376.12
1579.34	385.12
1583.904	386.12
1588.464	395.12
1593.019	399.12
1597.569	379.12
1602.115	383.12
1606.657	391.12
1611.195	395.12
1615.728	391.12
1620.256	376.12
1624.78	353.12
1629.3	375.12
1633.816	372.12
1638.327	370.12
1642.834	376.12
1647.336	377.12
1651.834	400.12
1656.328	384.12
1660.817	370.12
1665.302	364.12
1669.783	373.12
1674.259	369.12
1678.732	354.12
1683.199	347.12
1687.663	331.12
1692.122	345.12
1696.577	338.12
1701.028	326.12
1705.474	315.12
1709.917	308.12
1714.355	309.12
1718.788	305.12
1723.218	284.12
1727.643	280.12
1732.064	287.12
1736.481	273.12
1740.893	279.12
1745.301	269.12
1749.705	248.12
1754.105	270.12
1758.501	259.12
1762.893	257.12
1767.28	233.12
1771.663	243.12
1776.042	230.12
1780.417	237.12
1784.787	238.12
1789.154	249.12
1793.516	239.12
1797.874	238.12
1802.228	234.12
1806.578	219.12
1810.924	238.12
1815.266	124.12
1819.603	238.12
1823.937	221.12
1828.266	219.12
1832.591	226.12
1836.913	222.12
1841.23	211.12
1845.543	214.12
1849.852	221.12
1854.156	214.12
1858.457	211.12
1862.754	211.12
1867.047	212.12
1871.335	224.12
1875.62	224.12
1879.9	224.12
1884.177	210.12
1888.449	212.12
1892.718	214.12
1896.982	225.12
1901.243	204.12
1905.499	208.12
1909.752	205.12
1914	190.12
1918.245	209.12
1922.485	207.12
1926.722	199.12
1930.954	205.12
1935.183	205.12
1939.408	214.12
1943.628	207.12
1947.845	210.12
1952.058	204.12
1956.267	190.12
1960.472	207.12
1964.673	196.12
1968.87	190.12
1973.063	187.12
1977.252	190.12
1981.438	181.12
1985.619	180.12
1989.797	168.12
1993.971	174.12
1998.14	188.12
2002.306	178.12
2006.469	186.12
2010.627	164.12
2014.781	175.12
2018.932	163.12
2023.078	182.12
2027.221	179.12
2031.36	158.12
2035.495	171.12
2039.627	170.12
2043.754	168.12
2047.878	154.12
2051.998	161.12
2056.114	164.12
2060.226	167.12
2064.334	172.12
2068.439	168.12
2072.54	173.12
2076.637	157.12
2080.73	157.12
2084.82	161.12
2088.906	154.12
2092.988	156.12
2097.066	163.12
2101.14	171.12
2105.211	167.12
2109.278	160.12
2113.342	150.12
2117.401	148.12
2121.457	138.12
2125.509	139.12
2129.558	148.12
2133.602	144.12
2137.643	152.12
2141.681	145.12
2145.714	135.12
2149.744	143.12
2153.77	146.12
2157.793	129.12
2161.812	110.12
2165.827	117.12
2169.838	144.12
2173.846	129.12
2177.851	116.12
2181.851	134.12
2185.848	129.12
2189.841	123.12
2193.831	117.12
2197.817	125.12
2201.799	118.12
2205.778	114.12
2209.753	113.12
2213.725	113.12
2217.693	121.12
2221.657	110.12
2225.618	119.12
2229.575	121.12
2233.529	120.12
2237.479	125.12
2241.425	105.12
2245.368	109.12
2249.307	113.12
2253.243	99.12
2257.175	114.12
2261.104	101.12
2265.029	104.12
2268.95	105.12
2272.868	102.12
2276.783	91.12
2280.694	97.12
2284.601	93.12
2288.505	102.12
2292.405	99.12
2296.302	80.12
2300.195	84.12
2304.085	58.12
2307.971	85.12
2311.854	66.12
2315.734	79.12
2319.609	85.12
2323.482	62.12
2327.351	68.12
2331.216	74.12
2335.078	85.12
2338.937	77.12
2342.792	71.12
2346.643	72.12
2350.492	81.12
2354.336	66.12
2358.178	74.12
2362.015	82.12
2365.85	72.12
2369.681	77.12
2373.508	77.12
2377.333	81.12
2381.153	81.12
2384.971	73.12
2388.785	71.12
2392.595	63.12
2396.402	65.12
2400.206	42.12
2404.007	57.12
2407.804	65.12
2411.597	64.12
2415.388	63.12
2419.174	57.12
2422.958	57.12
2426.738	56.12
2430.515	67.12
2434.289	59.12
2438.059	50.12
2441.825	55.12
2445.589	65.12
2449.349	37.12
2453.106	63.12
2456.859	59.12
2460.61	64.12
2464.356	51.12
2468.1	48.12
2471.84	49.12
2475.577	50.12
2479.311	39.12
2483.041	48.12
2486.768	60.12
2490.492	65.12
2494.213	56.12
2497.93	42.12
2501.644	37.12
2505.355	49.12
2509.062	46.12
2512.766	47.12
2516.467	42.12
2520.165	46.12
2523.859	32.12
2527.551	62.12
2531.239	34.12
2534.923	47.12
2538.605	43.12
2542.283	46.12
2545.958	42.12
2549.63	57.12
2553.299	52.12
2556.964	32.12
2560.626	36.12
2564.285	48.12
2567.941	30.12
2571.594	22.12
2575.243	45.12
2578.89	33.12
2582.533	44.12
2586.173	37.12
2589.809	32.12
2593.443	20.12
2597.073	36.12
2600.701	39.12
2604.325	34.12
2607.946	26.12
2611.564	41.12
2615.178	40.12
2618.79	32.12
2622.398	29.12
2626.004	38.12
2629.606	31.12
2633.205	22.12
2636.801	37.12
2640.394	33.12
2643.983	26.12
2647.57	24.12
2651.153	23.12
2654.734	35.12
2658.311	7.12
2661.885	22.12
2665.456	25.12
2669.025	27.12
2672.589	19.12
2676.151	33.12
2679.71	34.12
2683.266	23.12
2686.819	20.12
2690.368	26.12
2693.915	34.12
2697.458	25.12
2700.999	33.12
2704.536	30.12
2708.071	20.12
2711.602	27.12
2715.13	23.12
2718.656	6.12
2722.178	22.12
2725.697	12.12
2729.214	17.12
2732.727	20.12
2736.237	9.12
2739.744	14.12
2743.249	13.12
2746.75	16.12
2750.248	8.12
2753.743	17.12
2757.236	20.12
2760.725	14.12
2764.211	-13.88
2767.695	20.12
2771.175	13.12
2774.652	20.12
2778.127	12.12
2781.598	13.12
2785.067	20.12
2788.532	1.12
2791.995	13.12
2795.455	4.12
2798.911	23.12
2802.365	7.12
2805.816	15.12
2809.264	21.12
2812.709	10.12
2816.151	16.12
2819.59	6.12
2823.026	13.12
2826.46	11.12
2829.89	20.12
2833.318	-3.88
2836.742	11.12
2840.164	11.12
2843.583	14.12
2846.999	8.12
2850.412	15.12
2853.822	11.12
2857.229	26.12
2860.634	18.12
2864.035	3.12
2867.434	19.12
2870.83	21.12
2874.223	10.12
2877.613	16.12
2881	5.12
2884.385	11.12
2887.766	11.12
2891.145	15.12
2894.521	12.12
2897.894	1.12
2901.264	22.12
2904.631	21.12
2907.996	20.12
2911.358	25.12
2914.717	20.12
2918.073	17.12
2921.426	13.12
2924.777	-0.88
2928.124	6.12
2931.469	28.12
2934.811	9.12
2938.15	33.12
2941.487	18.12
2944.821	39.12
2948.152	17.12
2951.48	30.12
2954.805	16.12
2958.128	38.12
2961.447	22.12
2964.765	37.12
2968.079	21.12
2971.39	31.12
2974.699	31.12
2978.005	27.12
2981.308	27.12
2984.609	20.12
2987.907	31.12
2991.202	34.12
2994.494	22.12
2997.784	31.12
3001.07	30.12
3004.355	26.12
3007.636	25.12
3010.915	32.12
3014.191	31.12
3017.464	35.12
3020.734	28.12
3024.002	33.12
3027.267	32.12
3030.53	33.12
3033.789	32.12
3037.046	32.12
3040.301	25.12
3043.552	36.12
3046.801	45.12
3050.048	46.12
3053.291	59.12
3056.532	43.12
3059.771	30.12
3063.006	48.12
3066.239	42.12
3069.469	51.12
3072.697	46.12
3075.922	37.12
3079.144	49.12
3082.364	64.12
3085.581	52.12
3088.795	74.12
3092.007	71.12
3095.216	74.12
3098.423	70.12
3101.627	40.12
3104.828	73.12
3108.026	65.12
3111.222	84.12
3114.416	93.12
3117.607	75.12
3120.795	80.12
3123.98	87.12
3127.163	70.12
3130.344	85.12
3133.521	78.12
3136.696	96.12
3139.869	91.12
3143.039	74.12
3146.206	106.12
3149.371	101.12
3152.533	92.12
3155.693	90.12
3158.85	100.12
3162.005	99.12
3165.157	100.12
3168.306	94.12
3171.453	107.12
3174.597	85.12
3177.739	93.12
3180.878	102.12
3184.014	106.12
3187.149	99.12
3190.28	104.12
3193.409	115.12
3196.536	99.12
3199.659	109.12
3202.781	114.12
3205.9	100.12
3209.016	103.12
3212.13	106.12
3215.241	96.12
3218.35	106.12
3221.456	95.12
3224.56	87.12
3227.661	101.12
3230.76	95.12
3233.856	94.12
3236.95	104.12
3240.041	87.12
3243.13	106.12
3246.216	96.12
3249.3	104.12
3252.382	95.12
3255.46	86.12
3258.537	42.12
3261.611	80.12
3264.682	93.12
3267.751	89.12
3270.818	78.12
3273.882	93.12
3276.943	84.12
3280.002	100.12
3283.059	79.12
3286.113	84.12
3289.165	74.12
3292.214	74.12
3295.261	95.12
3298.306	66.12
3301.348	75.12
3304.387	62.12
3307.425	76.12
3310.459	76.12
3313.492	83.12
3316.521	73.12
3319.549	83.12
3322.574	79.12
3325.597	72.12
3328.617	70.12
3331.635	75.12
3334.65	51.12
3337.663	70.12
3340.674	62.12
3343.682	78.12
3346.688	77.12
3349.691	72.12
3352.692	66.12
3355.691	70.12
3358.687	72.12
3361.681	75.12
3364.673	65.12
3367.662	68.12
3370.649	72.12
3373.633	58.12
3376.615	71.12
3379.595	43.12
3382.572	56.12
3385.547	51.12
3388.52	49.12
3391.49	48.12
3394.458	48.12
3397.424	55.12
3400.387	39.12
3403.348	46.12
3406.307	50.12
3409.263	45.12
3412.217	60.12
3415.168	52.12
3418.118	55.12
3421.065	45.12
3424.009	53.12
3426.951	45.12
3429.891	47.12
3432.829	43.12
3435.764	47.12
3438.697	34.12
3441.628	52.12
3444.557	25.12
3447.483	31.12
3450.407	45.12
3453.328	37.12
3456.247	29.12
3459.164	27.12
3462.079	38.12
3464.991	35.12
3467.902	23.12
3470.809	34.12
3473.715	32.12
3476.618	18.12
3479.519	25.12
3482.418	5.12
3485.315	10.12
3488.209	10.12
3491.101	13.12
3493.99	0.12
3496.878	5.12
3499.763	12.12
3502.646	15.12
3505.527	0.12
3508.405	2.12
3511.281	-8.88
3514.155	0.12
3517.027	-0.88
3519.897	-8.88
3522.764	0.12
3525.629	-22.88
3528.492	-4.88
3531.352	-5.88
3534.211	0.12
3537.067	-9.88
3539.921	-5.88
3542.773	0.12
3545.622	-14.88
3548.469	-19.88
3551.315	-17.88
3554.157	-8.88
3556.998	-21.88
3559.837	-12.88
3562.673	-10.88
3565.507	-23.88
3568.339	-25.88
3571.169	-18.88
3573.996	-14.88
3576.822	-31.88
3579.645	-26.88
3582.466	-28.88
3585.285	-15.88
3588.101	-19.88
3590.916	-30.88
3593.728	-17.88
3596.538	-25.88
3599.346	-23.88
3602.152	-26.88
3604.956	-24.88
3607.757	-18.88
3610.556	-37.88
3613.354	-24.88
3616.149	-23.88
3618.942	-19.88
3621.732	-21.88
3624.521	-30.88
3627.307	-36.88
3630.092	-30.88
3632.874	-17.88
3635.654	-29.88
3638.432	-31.88
3641.208	-33.88
3643.982	-30.88
3646.753	-21.88
3649.523	-50.88
3652.29	-34.88
3655.055	-20.88
3657.818	-29.88
3660.579	-37.88
3663.338	-40.88
3666.095	-35.88
3668.849	-56.88
3671.602	-26.88
3674.352	-44.88
3677.101	-20.88
3679.847	-26.88
3682.591	-35.88
3685.333	-41.88
3688.073	-27.88
3690.811	-40.88
3693.547	-46.88
3696.281	-45.88
3699.013	-33.88
3701.742	-39.88
3704.47	-43.88
3707.195	-27.88
3709.919	-30.88
3712.64	-33.88
3715.359	-48.88
3718.076	-23.88
3720.792	-31.88
3723.505	-30.88
3726.216	-22.88
3728.925	-34.88
3731.632	-36.88
3734.336	-30.88
3737.039	-29.88
3739.74	-28.88
3742.439	-53.88
3745.136	-24.88
3747.83	-25.88
3750.523	-24.88
3753.213	-100.88
3755.902	-36.88
3758.589	-46.88
3761.273	9.12
3763.956	67.12
3766.636	-34.88
3769.315	-21.88
3771.991	-36.88
3774.665	-43.88
3777.338	-35.88
3780.008	-39.88
3782.677	-36.88
3785.343	-45.88
3788.007	-55.88
3790.67	-28.88
3793.33	-46.88
3795.989	-39.88
3798.645	-34.88
3801.299	-43.88
3803.952	-44.88
3806.602	-39.88
3809.251	-28.88
3811.897	-38.88
3814.542	-34.88
3817.184	-36.88
3819.825	-33.88
3822.463	-45.88
3825.1	-36.88
3827.735	-33.88
3830.367	-40.88
3832.998	-22.88
3835.627	-36.88
3838.253	-25.88
3840.878	-30.88
3843.501	-17.88
3846.122	-28.88
3848.741	-29.88
3851.358	-23.88
3853.973	-44.88
3856.586	-26.88
3859.197	-41.88
3861.806	-33.88
3864.414	-47.88
3867.019	-36.88
3869.622	-33.88
3872.224	-30.88
3874.823	-25.88
3877.421	-4.88
3880.016	-0.88
3882.61	28.12
3885.202	38.12
3887.792	25.12
3890.38	0.12
3892.966	-26.88
3895.55	-39.88
3898.132	-27.88
3900.713	-26.88
3903.291	-31.88
3905.868	-47.88
3908.442	-33.88
3911.015	-36.88
3913.586	-40.88
3916.155	-33.88
3918.722	-42.88
3921.287	-39.88
3923.85	-50.88
3926.411	-34.88
3928.971	-37.88
3931.528	-34.88
3934.084	-36.88
3936.638	-45.88
3939.19	-28.88
3941.74	-27.88
3944.288	-39.88
3946.834	-34.88
3949.378	-27.88
3951.921	-36.88
3954.462	-35.88
3957	-33.88
3959.537	-26.88
3962.072	-39.88
3964.606	-50.88
3967.137	-40.88
3969.667	-44.88
3972.194	-35.88
3974.72	-39.88
3977.244	-59.88
3979.766	-45.88
3982.286	-45.88
3984.805	-32.88
3987.321	-22.88
3989.836	-33.88
3992.349	-40.88
3994.86	-34.88
3997.369	-41.88
3999.877	-36.88
4002.382	-37.88
4004.886	-30.88
4007.388	-30.88
4009.888	-24.88
4012.386	-26.88
4014.883	-30.88
4017.377	-31.88
4019.87	-33.88
4022.361	-45.88
4024.85	-34.88
4027.338	-32.88
4029.823	-39.88
4032.307	-42.88
4034.789	-34.88
4037.269	-39.88
4039.747	-48.88
4042.224	-30.88
4044.699	-41.88
4047.172	-41.88
4049.643	-30.88
4052.112	-61.88
4054.58	-36.88
4057.046	-47.88
4059.51	-40.88
4061.972	-36.88
4064.432	-47.88
4066.891	-21.88
4069.348	-37.88
4071.803	-34.88
4074.256	-37.88
4076.708	-30.88
4079.158	-36.88
4081.606	-22.88
4084.052	-33.88
4086.497	-32.88
4088.939	-29.88
4091.38	-37.88
4093.819	-28.88
4096.257	2.12
4098.693	-4.88
4101.127	-5.88
4103.559	5.12
4105.989	40.12
4108.418	44.12
4110.845	28.12
4113.27	37.12
4115.694	48.12
4118.115	29.12
4120.535	-34.88
4122.954	-23.88
4125.37	-22.88
4127.785	-31.88
4130.198	-27.88
4132.609	-27.88
4135.019	7.12
4137.427	-1.88
4139.833	4.12
4142.237	-5.88
