Data from 2018-3-6_conc=6_n=1_RamanShift_02.txt Node
Date: Tue Mar 06 14:54:18 GMT+02:00 2018
User: LAB3
Spectrometer: QEPB0276
Trigger mode: 0
Integration Time (sec): 3.000000E1
Scans to average: 1
Electric dark correction enabled: true
Nonlinearity correction enabled: false
Boxcar width: 0
XAxis mode: Raman Shifts
Number of Pixels in Spectrum: 1044
>>>>>Begin Spectral Data<<<<<
160.701	52.88
166.742	74.88
172.777	98.88
178.805	194.88
184.826	457.88
190.841	911.88
196.849	1428.88
202.85	1809.88
208.845	1908.88
214.833	1894.88
220.815	1841.88
226.789	1812.88
232.758	1784.88
238.719	1758.88
244.674	1711.88
250.623	1699.88
256.565	1661.88
262.5	1643.88
268.429	1596.88
274.351	1575.88
280.267	1560.88
286.176	1559.88
292.079	1563.88
297.975	1549.88
303.865	1524.88
309.748	1519.88
315.625	1506.88
321.495	1508.88
327.359	1489.88
333.217	1504.88
339.068	1481.88
344.912	1512.88
350.751	1491.88
356.583	1497.88
362.408	1508.88
368.227	1510.88
374.04	1506.88
379.847	1505.88
385.647	1528.88
391.44	1519.88
397.228	1536.88
403.009	1547.88
408.784	1553.88
414.553	1545.88
420.315	1570.88
426.071	1547.88
431.821	1550.88
437.565	1557.88
443.302	1546.88
449.033	1516.88
454.758	1529.88
460.477	1519.88
466.189	1502.88
471.896	1483.88
477.596	1480.88
483.29	1457.88
488.978	1460.88
494.66	1449.88
500.335	1418.88
506.005	1356.88
511.668	1272.88
517.325	1187.88
522.977	1148.88
528.622	1111.88
534.261	1096.88
539.894	1064.88
545.521	1047.88
551.141	1028.88
556.756	1003.88
562.365	1001.88
567.968	992.88
573.565	993.88
579.155	992.88
584.74	975.88
590.319	978.88
595.892	982.88
601.459	973.88
607.02	974.88
612.575	968.88
618.124	960.88
623.667	917.88
629.204	924.88
634.735	900.88
640.261	903.88
645.781	867.88
651.294	871.88
656.802	873.88
662.304	887.88
667.8	879.88
673.29	877.88
678.775	879.88
684.254	870.88
689.726	848.88
695.193	858.88
700.655	841.88
706.11	834.88
711.56	843.88
717.004	839.88
722.442	808.88
727.874	821.88
733.301	830.88
738.722	797.88
744.137	812.88
749.547	806.88
754.951	810.88
760.349	823.88
765.741	831.88
771.128	826.88
776.509	824.88
781.885	861.88
787.254	859.88
792.618	863.88
797.977	878.88
803.33	858.88
808.677	858.88
814.019	845.88
819.355	842.88
824.686	826.88
830.011	828.88
835.33	840.88
840.644	826.88
845.952	793.88
851.255	821.88
856.552	804.88
861.844	784.88
867.13	774.88
872.41	766.88
877.686	773.88
882.955	743.88
888.219	752.88
893.478	736.88
898.731	728.88
903.979	727.88
909.221	709.88
914.458	698.88
919.69	701.88
924.916	706.88
930.136	711.88
935.351	696.88
940.561	713.88
945.766	719.88
950.965	729.88
956.158	703.88
961.347	689.88
966.529	685.88
971.707	688.88
976.879	676.88
982.046	660.88
987.208	647.88
992.364	672.88
997.515	653.88
1002.66	653.88
1007.801	660.88
1012.936	676.88
1018.066	644.88
1023.19	670.88
1028.309	680.88
1033.423	693.88
1038.532	684.88
1043.636	671.88
1048.734	674.88
1053.827	652.88
1058.915	635.88
1063.998	646.88
1069.075	640.88
1074.147	653.88
1079.214	623.88
1084.276	656.88
1089.333	642.88
1094.385	658.88
1099.431	634.88
1104.472	632.88
1109.509	639.88
1114.54	622.88
1119.565	618.88
1124.586	624.88
1129.602	600.88
1134.613	583.88
1139.618	585.88
1144.619	586.88
1149.614	593.88
1154.604	586.88
1159.589	600.88
1164.57	614.88
1169.545	614.88
1174.515	611.88
1179.48	597.88
1184.44	602.88
1189.395	609.88
1194.345	580.88
1199.29	588.88
1204.23	572.88
1209.165	563.88
1214.095	586.88
1219.021	583.88
1223.941	570.88
1228.856	583.88
1233.766	591.88
1238.672	594.88
1243.572	600.88
1248.467	596.88
1253.358	586.88
1258.244	561.88
1263.124	575.88
1268	572.88
1272.871	537.88
1277.737	530.88
1282.599	536.88
1287.455	531.88
1292.306	530.88
1297.153	522.88
1301.995	544.88
1306.832	529.88
1311.664	540.88
1316.491	535.88
1321.314	539.88
1326.132	535.88
1330.945	525.88
1335.753	515.88
1340.556	503.88
1345.354	488.88
1350.148	491.88
1354.937	486.88
1359.722	459.88
1364.501	477.88
1369.276	480.88
1374.046	491.88
1378.811	475.88
1383.572	477.88
1388.327	486.88
1393.079	459.88
1397.825	452.88
1402.567	457.88
1407.304	461.88
1412.036	448.88
1416.764	445.88
1421.487	430.88
1426.205	444.88
1430.919	452.88
1435.628	442.88
1440.333	445.88
1445.032	455.88
1449.727	465.88
1454.418	470.88
1459.104	458.88
1463.785	444.88
1468.462	457.88
1473.134	441.88
1477.802	443.88
1482.465	414.88
1487.123	425.88
1491.777	406.88
1496.426	396.88
1501.071	433.88
1505.711	405.88
1510.347	427.88
1514.978	428.88
1519.604	414.88
1524.226	435.88
1528.844	418.88
1533.457	429.88
1538.065	423.88
1542.669	424.88
1547.269	420.88
1551.864	413.88
1556.454	397.88
1561.041	408.88
1565.622	401.88
1570.199	405.88
1574.772	415.88
1579.34	422.88
1583.904	422.88
1588.464	437.88
1593.019	440.88
1597.569	417.88
1602.115	419.88
1606.657	409.88
1611.195	436.88
1615.728	441.88
1620.256	422.88
1624.78	393.88
1629.3	409.88
1633.816	423.88
1638.327	410.88
1642.834	421.88
1647.336	426.88
1651.834	432.88
1656.328	426.88
1660.817	426.88
1665.302	410.88
1669.783	414.88
1674.259	394.88
1678.732	393.88
1683.199	380.88
1687.663	365.88
1692.122	371.88
1696.577	359.88
1701.028	360.88
1705.474	341.88
1709.917	332.88
1714.355	329.88
1718.788	333.88
1723.218	318.88
1727.643	306.88
1732.064	306.88
1736.481	291.88
1740.893	305.88
1745.301	295.88
1749.705	262.88
1754.105	286.88
1758.501	269.88
1762.893	285.88
1767.28	246.88
1771.663	266.88
1776.042	252.88
1780.417	267.88
1784.787	255.88
1789.154	263.88
1793.516	253.88
1797.874	257.88
1802.228	240.88
1806.578	241.88
1810.924	258.88
1815.266	141.88
1819.603	251.88
1823.937	245.88
1828.266	252.88
1832.591	250.88
1836.913	242.88
1841.23	243.88
1845.543	235.88
1849.852	252.88
1854.156	240.88
1858.457	239.88
1862.754	221.88
1867.047	223.88
1871.335	245.88
1875.62	239.88
1879.9	233.88
1884.177	229.88
1888.449	235.88
1892.718	234.88
1896.982	240.88
1901.243	220.88
1905.499	219.88
1909.752	215.88
1914	205.88
1918.245	225.88
1922.485	232.88
1926.722	213.88
1930.954	206.88
1935.183	233.88
1939.408	227.88
1943.628	231.88
1947.845	221.88
1952.058	219.88
1956.267	211.88
1960.472	218.88
1964.673	216.88
1968.87	214.88
1973.063	208.88
1977.252	215.88
1981.438	195.88
1985.619	197.88
1989.797	190.88
1993.971	195.88
1998.14	197.88
2002.306	202.88
2006.469	202.88
2010.627	190.88
2014.781	188.88
2018.932	184.88
2023.078	207.88
2027.221	197.88
2031.36	183.88
2035.495	190.88
2039.627	189.88
2043.754	186.88
2047.878	175.88
2051.998	183.88
2056.114	176.88
2060.226	179.88
2064.334	181.88
2068.439	186.88
2072.54	181.88
2076.637	169.88
2080.73	175.88
2084.82	175.88
2088.906	169.88
2092.988	177.88
2097.066	176.88
2101.14	177.88
2105.211	177.88
2109.278	164.88
2113.342	160.88
2117.401	165.88
2121.457	153.88
2125.509	155.88
2129.558	166.88
2133.602	159.88
2137.643	156.88
2141.681	156.88
2145.714	161.88
2149.744	164.88
2153.77	152.88
2157.793	146.88
2161.812	129.88
2165.827	129.88
2169.838	148.88
2173.846	140.88
2177.851	134.88
2181.851	152.88
2185.848	137.88
2189.841	140.88
2193.831	130.88
2197.817	138.88
2201.799	134.88
2205.778	123.88
2209.753	118.88
2213.725	119.88
2217.693	125.88
2221.657	120.88
2225.618	129.88
2229.575	126.88
2233.529	127.88
2237.479	128.88
2241.425	119.88
2245.368	113.88
2249.307	123.88
2253.243	110.88
2257.175	123.88
2261.104	109.88
2265.029	115.88
2268.95	110.88
2272.868	104.88
2276.783	94.88
2280.694	115.88
2284.601	109.88
2288.505	100.88
2292.405	118.88
2296.302	91.88
2300.195	105.88
2304.085	74.88
2307.971	101.88
2311.854	78.88
2315.734	94.88
2319.609	93.88
2323.482	70.88
2327.351	82.88
2331.216	83.88
2335.078	85.88
2338.937	90.88
2342.792	72.88
2346.643	82.88
2350.492	86.88
2354.336	78.88
2358.178	83.88
2362.015	86.88
2365.85	78.88
2369.681	78.88
2373.508	83.88
2377.333	91.88
2381.153	86.88
2384.971	80.88
2388.785	86.88
2392.595	72.88
2396.402	75.88
2400.206	54.88
2404.007	65.88
2407.804	71.88
2411.597	84.88
2415.388	69.88
2419.174	69.88
2422.958	73.88
2426.738	74.88
2430.515	76.88
2434.289	62.88
2438.059	63.88
2441.825	70.88
2445.589	73.88
2449.349	56.88
2453.106	63.88
2456.859	60.88
2460.61	69.88
2464.356	52.88
2468.1	55.88
2471.84	55.88
2475.577	60.88
2479.311	57.88
2483.041	56.88
2486.768	75.88
2490.492	71.88
2494.213	55.88
2497.93	52.88
2501.644	39.88
2505.355	56.88
2509.062	57.88
2512.766	57.88
2516.467	48.88
2520.165	50.88
2523.859	42.88
2527.551	73.88
2531.239	49.88
2534.923	58.88
2538.605	51.88
2542.283	54.88
2545.958	48.88
2549.63	58.88
2553.299	56.88
2556.964	43.88
2560.626	49.88
2564.285	46.88
2567.941	31.88
2571.594	31.88
2575.243	45.88
2578.89	38.88
2582.533	36.88
2586.173	44.88
2589.809	49.88
2593.443	23.88
2597.073	40.88
2600.701	48.88
2604.325	45.88
2607.946	37.88
2611.564	48.88
2615.178	47.88
2618.79	40.88
2622.398	37.88
2626.004	48.88
2629.606	42.88
2633.205	28.88
2636.801	42.88
2640.394	44.88
2643.983	35.88
2647.57	32.88
2651.153	30.88
2654.734	41.88
2658.311	17.88
2661.885	30.88
2665.456	35.88
2669.025	36.88
2672.589	30.88
2676.151	43.88
2679.71	43.88
2683.266	32.88
2686.819	24.88
2690.368	29.88
2693.915	36.88
2697.458	33.88
2700.999	38.88
2704.536	31.88
2708.071	28.88
2711.602	34.88
2715.13	30.88
2718.656	13.88
2722.178	29.88
2725.697	15.88
2729.214	22.88
2732.727	28.88
2736.237	10.88
2739.744	19.88
2743.249	20.88
2746.75	18.88
2750.248	18.88
2753.743	24.88
2757.236	26.88
2760.725	26.88
2764.211	-1.12
2767.695	24.88
2771.175	21.88
2774.652	27.88
2778.127	14.88
2781.598	16.88
2785.067	25.88
2788.532	11.88
2791.995	20.88
2795.455	8.88
2798.911	25.88
2802.365	10.88
2805.816	18.88
2809.264	27.88
2812.709	10.88
2816.151	17.88
2819.59	6.88
2823.026	15.88
2826.46	16.88
2829.89	28.88
2833.318	2.88
2836.742	18.88
2840.164	24.88
2843.583	22.88
2846.999	22.88
2850.412	19.88
2853.822	19.88
2857.229	27.88
2860.634	25.88
2864.035	12.88
2867.434	28.88
2870.83	32.88
2874.223	16.88
2877.613	17.88
2881	15.88
2884.385	15.88
2887.766	22.88
2891.145	26.88
2894.521	16.88
2897.894	9.88
2901.264	21.88
2904.631	23.88
2907.996	22.88
2911.358	31.88
2914.717	23.88
2918.073	21.88
2921.426	21.88
2924.777	8.88
2928.124	19.88
2931.469	30.88
2934.811	15.88
2938.15	36.88
2941.487	27.88
2944.821	43.88
2948.152	32.88
2951.48	37.88
2954.805	21.88
2958.128	42.88
2961.447	34.88
2964.765	43.88
2968.079	38.88
2971.39	38.88
2974.699	34.88
2978.005	38.88
2981.308	37.88
2984.609	21.88
2987.907	39.88
2991.202	47.88
2994.494	31.88
2997.784	41.88
3001.07	36.88
3004.355	32.88
3007.636	39.88
3010.915	41.88
3014.191	37.88
3017.464	36.88
3020.734	39.88
3024.002	43.88
3027.267	35.88
3030.53	45.88
3033.789	38.88
3037.046	40.88
3040.301	34.88
3043.552	45.88
3046.801	51.88
3050.048	58.88
3053.291	69.88
3056.532	58.88
3059.771	44.88
3063.006	62.88
3066.239	59.88
3069.469	63.88
3072.697	50.88
3075.922	52.88
3079.144	57.88
3082.364	84.88
3085.581	63.88
3088.795	83.88
3092.007	78.88
3095.216	87.88
3098.423	72.88
3101.627	57.88
3104.828	86.88
3108.026	75.88
3111.222	98.88
3114.416	99.88
3117.607	94.88
3120.795	99.88
3123.98	97.88
3127.163	85.88
3130.344	98.88
3133.521	92.88
3136.696	114.88
3139.869	109.88
3143.039	89.88
3146.206	122.88
3149.371	122.88
3152.533	114.88
3155.693	101.88
3158.85	115.88
3162.005	126.88
3165.157	119.88
3168.306	115.88
3171.453	128.88
3174.597	107.88
3177.739	112.88
3180.878	120.88
3184.014	127.88
3187.149	114.88
3190.28	116.88
3193.409	127.88
3196.536	121.88
3199.659	132.88
3202.781	134.88
3205.9	113.88
3209.016	125.88
3212.13	124.88
3215.241	116.88
3218.35	123.88
3221.456	120.88
3224.56	111.88
3227.661	110.88
3230.76	113.88
3233.856	105.88
3236.95	115.88
3240.041	104.88
3243.13	116.88
3246.216	110.88
3249.3	121.88
3252.382	110.88
3255.46	102.88
3258.537	61.88
3261.611	98.88
3264.682	105.88
3267.751	102.88
3270.818	94.88
3273.882	111.88
3276.943	103.88
3280.002	118.88
3283.059	93.88
3286.113	104.88
3289.165	99.88
3292.214	90.88
3295.261	101.88
3298.306	83.88
3301.348	100.88
3304.387	83.88
3307.425	96.88
3310.459	89.88
3313.492	98.88
3316.521	87.88
3319.549	105.88
3322.574	98.88
3325.597	86.88
3328.617	80.88
3331.635	94.88
3334.65	69.88
3337.663	88.88
3340.674	84.88
3343.682	90.88
3346.688	91.88
3349.691	83.88
3352.692	80.88
3355.691	91.88
3358.687	81.88
3361.681	80.88
3364.673	78.88
3367.662	82.88
3370.649	89.88
3373.633	70.88
3376.615	82.88
3379.595	59.88
3382.572	71.88
3385.547	57.88
3388.52	57.88
3391.49	61.88
3394.458	64.88
3397.424	69.88
3400.387	55.88
3403.348	63.88
3406.307	65.88
3409.263	67.88
3412.217	67.88
3415.168	66.88
3418.118	73.88
3421.065	55.88
3424.009	73.88
3426.951	56.88
3429.891	55.88
3432.829	58.88
3435.764	69.88
3438.697	51.88
3441.628	61.88
3444.557	44.88
3447.483	38.88
3450.407	51.88
3453.328	38.88
3456.247	38.88
3459.164	38.88
3462.079	52.88
3464.991	39.88
3467.902	37.88
3470.809	38.88
3473.715	37.88
3476.618	28.88
3479.519	37.88
3482.418	9.88
3485.315	17.88
3488.209	18.88
3491.101	20.88
3493.99	6.88
3496.878	10.88
3499.763	20.88
3502.646	14.88
3505.527	4.88
3508.405	10.88
3511.281	-0.12
3514.155	6.88
3517.027	2.88
3519.897	1.88
3522.764	10.88
3525.629	-12.12
3528.492	-0.12
3531.352	5.88
3534.211	3.88
3537.067	-6.12
3539.921	0.88
3542.773	3.88
3545.622	-10.12
3548.469	-16.12
3551.315	-12.12
3554.157	-4.12
3556.998	-12.12
3559.837	-11.12
3562.673	-3.12
3565.507	-12.12
3568.339	-19.12
3571.169	-17.12
3573.996	-14.12
3576.822	-32.12
3579.645	-23.12
3582.466	-23.12
3585.285	-13.12
3588.101	-22.12
3590.916	-21.12
3593.728	-13.12
3596.538	-23.12
3599.346	-20.12
3602.152	-34.12
3604.956	-17.12
3607.757	-18.12
3610.556	-36.12
3613.354	-11.12
3616.149	-19.12
3618.942	-14.12
3621.732	-16.12
3624.521	-25.12
3627.307	-32.12
3630.092	-25.12
3632.874	-13.12
3635.654	-24.12
3638.432	-28.12
3641.208	-28.12
3643.982	-23.12
3646.753	-16.12
3649.523	-51.12
3652.29	-30.12
3655.055	-22.12
3657.818	-23.12
3660.579	-27.12
3663.338	-41.12
3666.095	-28.12
3668.849	-55.12
3671.602	-24.12
3674.352	-35.12
3677.101	-25.12
3679.847	-20.12
3682.591	-38.12
3685.333	-44.12
3688.073	-31.12
3690.811	-41.12
3693.547	-39.12
3696.281	-44.12
3699.013	-31.12
3701.742	-35.12
3704.47	-40.12
3707.195	-32.12
3709.919	-32.12
3712.64	-34.12
3715.359	-35.12
3718.076	-21.12
3720.792	-31.12
3723.505	-26.12
3726.216	-22.12
3728.925	-30.12
3731.632	-36.12
3734.336	-30.12
3737.039	-31.12
3739.74	-31.12
3742.439	-56.12
3745.136	-25.12
3747.83	-34.12
3750.523	-27.12
3753.213	-90.12
3755.902	-38.12
3758.589	-47.12
3761.273	-40.12
3763.956	-25.12
3766.636	-47.12
3769.315	-24.12
3771.991	-33.12
3774.665	-36.12
3777.338	-33.12
3780.008	-42.12
3782.677	-36.12
3785.343	-50.12
3788.007	-54.12
3790.67	-28.12
3793.33	-48.12
3795.989	-39.12
3798.645	-32.12
3801.299	-44.12
3803.952	-41.12
3806.602	-36.12
3809.251	-30.12
3811.897	-34.12
3814.542	-36.12
3817.184	-38.12
3819.825	-33.12
3822.463	-45.12
3825.1	-39.12
3827.735	-34.12
3830.367	-41.12
3832.998	-21.12
3835.627	-36.12
3838.253	-23.12
3840.878	-35.12
3843.501	-19.12
3846.122	-32.12
3848.741	-31.12
3851.358	-27.12
3853.973	-43.12
3856.586	-25.12
3859.197	-41.12
3861.806	-36.12
3864.414	-44.12
3867.019	-35.12
3869.622	-28.12
3872.224	-22.12
3874.823	-11.12
3877.421	10.88
3880.016	27.88
3882.61	57.88
3885.202	71.88
3887.792	39.88
3890.38	12.88
3892.966	-14.12
3895.55	-37.12
3898.132	-25.12
3900.713	-27.12
3903.291	-33.12
3905.868	-42.12
3908.442	-35.12
3911.015	-36.12
3913.586	-39.12
3916.155	-39.12
3918.722	-38.12
3921.287	-38.12
3923.85	-53.12
3926.411	-41.12
3928.971	-42.12
3931.528	-34.12
3934.084	-37.12
3936.638	-41.12
3939.19	-31.12
3941.74	-35.12
3944.288	-39.12
3946.834	-36.12
3949.378	-25.12
3951.921	-41.12
3954.462	-32.12
3957	-30.12
3959.537	-23.12
3962.072	-35.12
3964.606	-50.12
3967.137	-35.12
3969.667	-38.12
3972.194	-27.12
3974.72	-35.12
3977.244	-59.12
3979.766	-38.12
3982.286	-42.12
3984.805	-32.12
3987.321	-25.12
3989.836	-28.12
3992.349	-37.12
3994.86	-34.12
3997.369	-46.12
3999.877	-40.12
4002.382	-42.12
4004.886	-28.12
4007.388	-33.12
4009.888	-29.12
4012.386	-29.12
4014.883	-32.12
4017.377	-37.12
4019.87	-30.12
4022.361	-45.12
4024.85	-35.12
4027.338	-30.12
4029.823	-37.12
4032.307	-35.12
4034.789	-32.12
4037.269	-32.12
4039.747	-46.12
4042.224	-25.12
4044.699	-41.12
4047.172	-41.12
4049.643	-24.12
4052.112	-58.12
4054.58	-34.12
4057.046	-46.12
4059.51	-32.12
4061.972	-36.12
4064.432	-50.12
4066.891	-25.12
4069.348	-32.12
4071.803	-29.12
4074.256	-43.12
4076.708	-30.12
4079.158	-34.12
4081.606	-22.12
4084.052	-36.12
4086.497	-31.12
4088.939	-37.12
4091.38	-39.12
4093.819	-29.12
4096.257	2.88
4098.693	-2.12
4101.127	-5.12
4103.559	-0.12
4105.989	68.88
4108.418	64.88
4110.845	53.88
4113.27	57.88
4115.694	65.88
4118.115	44.88
4120.535	-31.12
4122.954	-31.12
4125.37	-26.12
4127.785	-33.12
4130.198	-28.12
4132.609	-33.12
4135.019	4.88
4137.427	2.88
4139.833	1.88
4142.237	-5.12
