Data from 2018-3-6_conc=0_n=7_RamanShift_03.txt Node
Date: Tue Mar 06 12:28:19 GMT+02:00 2018
User: LAB3
Spectrometer: QEPB0276
Trigger mode: 0
Integration Time (sec): 3.000000E1
Scans to average: 1
Electric dark correction enabled: true
Nonlinearity correction enabled: false
Boxcar width: 0
XAxis mode: Raman Shifts
Number of Pixels in Spectrum: 1044
>>>>>Begin Spectral Data<<<<<
160.701	164.88
166.742	208.88
172.777	333.88
178.805	680.88
184.826	1579.88
190.841	3168.88
196.849	5025.88
202.85	6464.88
208.845	6990.88
214.833	6997.88
220.815	6926.88
226.789	6922.88
232.758	7011.88
238.719	7005.88
244.674	6996.88
250.623	6978.88
256.565	6908.88
262.5	6889.88
268.429	6807.88
274.351	6817.88
280.267	6821.88
286.176	6817.88
292.079	6802.88
297.975	6847.88
303.865	6847.88
309.748	6883.88
315.625	6895.88
321.495	6879.88
327.359	6943.88
333.217	6912.88
339.068	6946.88
344.912	7004.88
350.751	7014.88
356.583	7029.88
362.408	7068.88
368.227	7104.88
374.04	7149.88
379.847	7153.88
385.647	7205.88
391.44	7223.88
397.228	7240.88
403.009	7338.88
408.784	7337.88
414.553	7404.88
420.315	7399.88
426.071	7418.88
431.821	7434.88
437.565	7417.88
443.302	7397.88
449.033	7361.88
454.758	7347.88
460.477	7275.88
466.189	7210.88
471.896	7148.88
477.596	7108.88
483.29	7035.88
488.978	7031.88
494.66	6985.88
500.335	6800.88
506.005	6515.88
511.668	6232.88
517.325	5905.88
522.977	5657.88
528.622	5504.88
534.261	5376.88
539.894	5282.88
545.521	5213.88
551.141	5137.88
556.756	5061.88
562.365	5021.88
567.968	4959.88
573.565	4952.88
579.155	4918.88
584.74	4882.88
590.319	4891.88
595.892	4896.88
601.459	4892.88
607.02	4874.88
612.575	4802.88
618.124	4743.88
623.667	4704.88
629.204	4602.88
634.735	4577.88
640.261	4518.88
645.781	4491.88
651.294	4478.88
656.802	4476.88
662.304	4473.88
667.8	4432.88
673.29	4398.88
678.775	4419.88
684.254	4379.88
689.726	4371.88
695.193	4344.88
700.655	4334.88
706.11	4276.88
711.56	4295.88
717.004	4257.88
722.442	4242.88
727.874	4216.88
733.301	4213.88
738.722	4188.88
744.137	4183.88
749.547	4159.88
754.951	4196.88
760.349	4183.88
765.741	4214.88
771.128	4244.88
776.509	4268.88
781.885	4359.88
787.254	4411.88
792.618	4401.88
797.977	4390.88
803.33	4353.88
808.677	4339.88
814.019	4307.88
819.355	4255.88
824.686	4210.88
830.011	4178.88
835.33	4156.88
840.644	4175.88
845.952	4107.88
851.255	4081.88
856.552	4067.88
861.844	4033.88
867.13	3974.88
872.41	4025.88
877.686	4059.88
882.955	4069.88
888.219	4027.88
893.478	3891.88
898.731	3790.88
903.979	3713.88
909.221	3673.88
914.458	3650.88
919.69	3668.88
924.916	3651.88
930.136	3639.88
935.351	3637.88
940.561	3642.88
945.766	3618.88
950.965	3644.88
956.158	3592.88
961.347	3552.88
966.529	3542.88
971.707	3472.88
976.879	3403.88
982.046	3374.88
987.208	3375.88
992.364	3383.88
997.515	3389.88
1002.66	3425.88
1007.801	3466.88
1012.936	3474.88
1018.066	3484.88
1023.19	3504.88
1028.309	3542.88
1033.423	3528.88
1038.532	3534.88
1043.636	3518.88
1048.734	3527.88
1053.827	3491.88
1058.915	3437.88
1063.998	3410.88
1069.075	3382.88
1074.147	3395.88
1079.214	3395.88
1084.276	3442.88
1089.333	3437.88
1094.385	3456.88
1099.431	3436.88
1104.472	3389.88
1109.509	3321.88
1114.54	3295.88
1119.565	3229.88
1124.586	3183.88
1129.602	3156.88
1134.613	3128.88
1139.618	3107.88
1144.619	3099.88
1149.614	3099.88
1154.604	3101.88
1159.589	3097.88
1164.57	3139.88
1169.545	3167.88
1174.515	3123.88
1179.48	3114.88
1184.44	3108.88
1189.395	3104.88
1194.345	3055.88
1199.29	3057.88
1204.23	3033.88
1209.165	3028.88
1214.095	3070.88
1219.021	3051.88
1223.941	3080.88
1228.856	3090.88
1233.766	3087.88
1238.672	3114.88
1243.572	3090.88
1248.467	3076.88
1253.358	3010.88
1258.244	2962.88
1263.124	2936.88
1268	2906.88
1272.871	2823.88
1277.737	2841.88
1282.599	2827.88
1287.455	2810.88
1292.306	2818.88
1297.153	2817.88
1301.995	2842.88
1306.832	2851.88
1311.664	2847.88
1316.491	2847.88
1321.314	2822.88
1326.132	2812.88
1330.945	2764.88
1335.753	2717.88
1340.556	2670.88
1345.354	2639.88
1350.148	2591.88
1354.937	2591.88
1359.722	2555.88
1364.501	2531.88
1369.276	2526.88
1374.046	2513.88
1378.811	2506.88
1383.572	2520.88
1388.327	2510.88
1393.079	2501.88
1397.825	2481.88
1402.567	2450.88
1407.304	2451.88
1412.036	2427.88
1416.764	2409.88
1421.487	2412.88
1426.205	2405.88
1430.919	2425.88
1435.628	2448.88
1440.333	2446.88
1445.032	2505.88
1449.727	2529.88
1454.418	2565.88
1459.104	2583.88
1463.785	2530.88
1468.462	2472.88
1473.134	2403.88
1477.802	2370.88
1482.465	2309.88
1487.123	2323.88
1491.777	2284.88
1496.426	2267.88
1501.071	2280.88
1505.711	2275.88
1510.347	2301.88
1514.978	2301.88
1519.604	2308.88
1524.226	2326.88
1528.844	2272.88
1533.457	2278.88
1538.065	2261.88
1542.669	2230.88
1547.269	2215.88
1551.864	2212.88
1556.454	2180.88
1561.041	2177.88
1565.622	2191.88
1570.199	2210.88
1574.772	2204.88
1579.34	2232.88
1583.904	2241.88
1588.464	2261.88
1593.019	2265.88
1597.569	2248.88
1602.115	2254.88
1606.657	2227.88
1611.195	2234.88
1615.728	2220.88
1620.256	2204.88
1624.78	2183.88
1629.3	2220.88
1633.816	2216.88
1638.327	2234.88
1642.834	2239.88
1647.336	2271.88
1651.834	2279.88
1656.328	2275.88
1660.817	2267.88
1665.302	2259.88
1669.783	2221.88
1674.259	2199.88
1678.732	2156.88
1683.199	2118.88
1687.663	2053.88
1692.122	1998.88
1696.577	1975.88
1701.028	1941.88
1705.474	1888.88
1709.917	1862.88
1714.355	1854.88
1718.788	1823.88
1723.218	1803.88
1727.643	1790.88
1732.064	1764.88
1736.481	1737.88
1740.893	1700.88
1745.301	1671.88
1749.705	1604.88
1754.105	1601.88
1758.501	1564.88
1762.893	1542.88
1767.28	1509.88
1771.663	1501.88
1776.042	1480.88
1780.417	1473.88
1784.787	1488.88
1789.154	1500.88
1793.516	1493.88
1797.874	1474.88
1802.228	1474.88
1806.578	1454.88
1810.924	1465.88
1815.266	1355.88
1819.603	1445.88
1823.937	1411.88
1828.266	1383.88
1832.591	1365.88
1836.913	1370.88
1841.23	1368.88
1845.543	1362.88
1849.852	1354.88
1854.156	1357.88
1858.457	1366.88
1862.754	1339.88
1867.047	1351.88
1871.335	1380.88
1875.62	1378.88
1879.9	1368.88
1884.177	1359.88
1888.449	1363.88
1892.718	1359.88
1896.982	1339.88
1901.243	1320.88
1905.499	1329.88
1909.752	1316.88
1914	1299.88
1918.245	1319.88
1922.485	1343.88
1926.722	1331.88
1930.954	1318.88
1935.183	1332.88
1939.408	1358.88
1943.628	1319.88
1947.845	1333.88
1952.058	1303.88
1956.267	1288.88
1960.472	1295.88
1964.673	1242.88
1968.87	1222.88
1973.063	1196.88
1977.252	1191.88
1981.438	1170.88
1985.619	1169.88
1989.797	1147.88
1993.971	1150.88
1998.14	1139.88
2002.306	1146.88
2006.469	1135.88
2010.627	1130.88
2014.781	1116.88
2018.932	1105.88
2023.078	1133.88
2027.221	1111.88
2031.36	1080.88
2035.495	1083.88
2039.627	1071.88
2043.754	1065.88
2047.878	1049.88
2051.998	1060.88
2056.114	1050.88
2060.226	1031.88
2064.334	1058.88
2068.439	1077.88
2072.54	1062.88
2076.637	1053.88
2080.73	1069.88
2084.82	1066.88
2088.906	1056.88
2092.988	1066.88
2097.066	1039.88
2101.14	1063.88
2105.211	1038.88
2109.278	1015.88
2113.342	1004.88
2117.401	986.88
2121.457	978.88
2125.509	958.88
2129.558	977.88
2133.602	976.88
2137.643	954.88
2141.681	950.88
2145.714	940.88
2149.744	955.88
2153.77	945.88
2157.793	904.88
2161.812	893.88
2165.827	886.88
2169.838	895.88
2173.846	860.88
2177.851	861.88
2181.851	864.88
2185.848	849.88
2189.841	827.88
2193.831	823.88
2197.817	822.88
2201.799	809.88
2205.778	796.88
2209.753	784.88
2213.725	781.88
2217.693	795.88
2221.657	772.88
2225.618	794.88
2229.575	774.88
2233.529	780.88
2237.479	768.88
2241.425	753.88
2245.368	740.88
2249.307	729.88
2253.243	729.88
2257.175	727.88
2261.104	688.88
2265.029	698.88
2268.95	696.88
2272.868	680.88
2276.783	666.88
2280.694	660.88
2284.601	654.88
2288.505	644.88
2292.405	654.88
2296.302	621.88
2300.195	626.88
2304.085	594.88
2307.971	606.88
2311.854	577.88
2315.734	589.88
2319.609	587.88
2323.482	555.88
2327.351	553.88
2331.216	557.88
2335.078	565.88
2338.937	557.88
2342.792	542.88
2346.643	542.88
2350.492	547.88
2354.336	546.88
2358.178	551.88
2362.015	556.88
2365.85	540.88
2369.681	554.88
2373.508	552.88
2377.333	554.88
2381.153	543.88
2384.971	540.88
2388.785	545.88
2392.595	532.88
2396.402	526.88
2400.206	503.88
2404.007	513.88
2407.804	517.88
2411.597	514.88
2415.388	517.88
2419.174	504.88
2422.958	509.88
2426.738	505.88
2430.515	519.88
2434.289	495.88
2438.059	481.88
2441.825	487.88
2445.589	487.88
2449.349	482.88
2453.106	494.88
2456.859	475.88
2460.61	479.88
2464.356	460.88
2468.1	450.88
2471.84	451.88
2475.577	443.88
2479.311	451.88
2483.041	454.88
2486.768	458.88
2490.492	459.88
2494.213	448.88
2497.93	435.88
2501.644	433.88
2505.355	439.88
2509.062	453.88
2512.766	438.88
2516.467	434.88
2520.165	432.88
2523.859	408.88
2527.551	453.88
2531.239	420.88
2534.923	411.88
2538.605	410.88
2542.283	415.88
2545.958	412.88
2549.63	428.88
2553.299	426.88
2556.964	401.88
2560.626	406.88
2564.285	409.88
2567.941	393.88
2571.594	392.88
2575.243	407.88
2578.89	396.88
2582.533	394.88
2586.173	386.88
2589.809	381.88
2593.443	363.88
2597.073	387.88
2600.701	381.88
2604.325	369.88
2607.946	358.88
2611.564	371.88
2615.178	364.88
2618.79	372.88
2622.398	357.88
2626.004	367.88
2629.606	358.88
2633.205	335.88
2636.801	346.88
2640.394	342.88
2643.983	333.88
2647.57	335.88
2651.153	324.88
2654.734	335.88
2658.311	304.88
2661.885	320.88
2665.456	320.88
2669.025	319.88
2672.589	315.88
2676.151	328.88
2679.71	321.88
2683.266	304.88
2686.819	305.88
2690.368	299.88
2693.915	300.88
2697.458	295.88
2700.999	301.88
2704.536	303.88
2708.071	283.88
2711.602	288.88
2715.13	284.88
2718.656	267.88
2722.178	277.88
2725.697	268.88
2729.214	274.88
2732.727	290.88
2736.237	265.88
2739.744	274.88
2743.249	267.88
2746.75	272.88
2750.248	271.88
2753.743	275.88
2757.236	274.88
2760.725	273.88
2764.211	238.88
2767.695	274.88
2771.175	259.88
2774.652	270.88
2778.127	253.88
2781.598	257.88
2785.067	261.88
2788.532	252.88
2791.995	263.88
2795.455	250.88
2798.911	270.88
2802.365	262.88
2805.816	268.88
2809.264	280.88
2812.709	255.88
2816.151	269.88
2819.59	255.88
2823.026	270.88
2826.46	270.88
2829.89	284.88
2833.318	255.88
2836.742	275.88
2840.164	279.88
2843.583	273.88
2846.999	277.88
2850.412	287.88
2853.822	283.88
2857.229	304.88
2860.634	294.88
2864.035	286.88
2867.434	310.88
2870.83	317.88
2874.223	319.88
2877.613	322.88
2881	329.88
2884.385	337.88
2887.766	343.88
2891.145	339.88
2894.521	336.88
2897.894	323.88
2901.264	343.88
2904.631	339.88
2907.996	343.88
2911.358	356.88
2914.717	344.88
2918.073	346.88
2921.426	356.88
2924.777	340.88
2928.124	363.88
2931.469	393.88
2934.811	380.88
2938.15	414.88
2941.487	401.88
2944.821	421.88
2948.152	395.88
2951.48	395.88
2954.805	370.88
2958.128	384.88
2961.447	355.88
2964.765	390.88
2968.079	367.88
2971.39	367.88
2974.699	369.88
2978.005	380.88
2981.308	379.88
2984.609	372.88
2987.907	384.88
2991.202	390.88
2994.494	372.88
2997.784	382.88
3001.07	372.88
3004.355	376.88
3007.636	378.88
3010.915	382.88
3014.191	381.88
3017.464	381.88
3020.734	381.88
3024.002	379.88
3027.267	380.88
3030.53	378.88
3033.789	388.88
3037.046	389.88
3040.301	389.88
3043.552	404.88
3046.801	403.88
3050.048	424.88
3053.291	448.88
3056.532	438.88
3059.771	438.88
3063.006	464.88
3066.239	467.88
3069.469	477.88
3072.697	486.88
3075.922	499.88
3079.144	502.88
3082.364	533.88
3085.581	519.88
3088.795	544.88
3092.007	564.88
3095.216	567.88
3098.423	564.88
3101.627	562.88
3104.828	594.88
3108.026	594.88
3111.222	631.88
3114.416	637.88
3117.607	643.88
3120.795	665.88
3123.98	666.88
3127.163	677.88
3130.344	684.88
3133.521	701.88
3136.696	734.88
3139.869	728.88
3143.039	730.88
3146.206	772.88
3149.371	773.88
3152.533	753.88
3155.693	772.88
3158.85	770.88
3162.005	786.88
3165.157	781.88
3168.306	785.88
3171.453	781.88
3174.597	778.88
3177.739	769.88
3180.878	795.88
3184.014	792.88
3187.149	780.88
3190.28	796.88
3193.409	810.88
3196.536	807.88
3199.659	834.88
3202.781	813.88
3205.9	787.88
3209.016	799.88
3212.13	810.88
3215.241	807.88
3218.35	806.88
3221.456	799.88
3224.56	770.88
3227.661	781.88
3230.76	763.88
3233.856	760.88
3236.95	758.88
3240.041	745.88
3243.13	761.88
3246.216	760.88
3249.3	757.88
3252.382	748.88
3255.46	742.88
3258.537	692.88
3261.611	731.88
3264.682	734.88
3267.751	724.88
3270.818	720.88
3273.882	724.88
3276.943	713.88
3280.002	718.88
3283.059	696.88
3286.113	697.88
3289.165	688.88
3292.214	670.88
3295.261	688.88
3298.306	650.88
3301.348	660.88
3304.387	645.88
3307.425	634.88
3310.459	624.88
3313.492	630.88
3316.521	613.88
3319.549	623.88
3322.574	612.88
3325.597	600.88
3328.617	593.88
3331.635	591.88
3334.65	585.88
3337.663	594.88
3340.674	584.88
3343.682	587.88
3346.688	588.88
3349.691	565.88
3352.692	584.88
3355.691	581.88
3358.687	597.88
3361.681	592.88
3364.673	562.88
3367.662	569.88
3370.649	565.88
3373.633	544.88
3376.615	545.88
3379.595	528.88
3382.572	527.88
3385.547	522.88
3388.52	504.88
3391.49	513.88
3394.458	501.88
3397.424	508.88
3400.387	487.88
3403.348	492.88
3406.307	490.88
3409.263	487.88
3412.217	495.88
3415.168	492.88
3418.118	491.88
3421.065	464.88
3424.009	476.88
3426.951	455.88
3429.891	450.88
3432.829	444.88
3435.764	433.88
3438.697	433.88
3441.628	433.88
3444.557	401.88
3447.483	407.88
3450.407	396.88
3453.328	385.88
3456.247	372.88
3459.164	354.88
3462.079	368.88
3464.991	347.88
3467.902	330.88
3470.809	329.88
3473.715	324.88
3476.618	312.88
3479.519	314.88
3482.418	283.88
3485.315	282.88
3488.209	281.88
3491.101	273.88
3493.99	260.88
3496.878	248.88
3499.763	256.88
3502.646	249.88
3505.527	231.88
3508.405	227.88
3511.281	214.88
3514.155	221.88
3517.027	208.88
3519.897	192.88
3522.764	193.88
3525.629	172.88
3528.492	182.88
3531.352	171.88
3534.211	166.88
3537.067	154.88
3539.921	156.88
3542.773	156.88
3545.622	122.88
3548.469	123.88
3551.315	114.88
3554.157	117.88
3556.998	104.88
3559.837	112.88
3562.673	117.88
3565.507	95.88
3568.339	97.88
3571.169	96.88
3573.996	94.88
3576.822	74.88
3579.645	77.88
3582.466	77.88
3585.285	79.88
3588.101	73.88
3590.916	64.88
3593.728	73.88
3596.538	63.88
3599.346	59.88
3602.152	54.88
3604.956	47.88
3607.757	52.88
3610.556	33.88
3613.354	46.88
3616.149	43.88
3618.942	45.88
3621.732	45.88
3624.521	33.88
3627.307	25.88
3630.092	25.88
3632.874	42.88
3635.654	27.88
3638.432	12.88
3641.208	22.88
3643.982	18.88
3646.753	29.88
3649.523	-6.12
3652.29	9.88
3655.055	17.88
3657.818	15.88
3660.579	12.88
3663.338	-2.12
3666.095	1.88
3668.849	-22.12
3671.602	6.88
3674.352	-13.12
3677.101	5.88
3679.847	6.88
3682.591	-10.12
3685.333	-15.12
3688.073	-2.12
3690.811	-10.12
3693.547	-21.12
3696.281	-18.12
3699.013	-7.12
3701.742	-17.12
3704.47	-25.12
3707.195	-8.12
3709.919	-14.12
3712.64	-17.12
3715.359	-27.12
3718.076	-3.12
3720.792	-18.12
3723.505	-18.12
3726.216	-4.12
3728.925	-20.12
3731.632	-26.12
3734.336	-18.12
3737.039	-18.12
3739.74	-16.12
3742.439	-46.12
3745.136	-17.12
3747.83	-17.12
3750.523	-16.12
3753.213	-89.12
3755.902	-21.12
3758.589	-37.12
3761.273	-25.12
3763.956	-14.12
3766.636	-37.12
3769.315	-13.12
3771.991	-20.12
3774.665	-31.12
3777.338	-23.12
3780.008	-33.12
3782.677	-27.12
3785.343	-39.12
3788.007	-46.12
3790.67	-24.12
3793.33	-38.12
3795.989	-33.12
3798.645	-23.12
3801.299	-37.12
3803.952	-31.12
3806.602	-25.12
3809.251	-18.12
3811.897	-27.12
3814.542	-30.12
3817.184	-26.12
3819.825	-25.12
3822.463	-40.12
3825.1	-34.12
3827.735	-28.12
3830.367	-38.12
3832.998	-13.12
3835.627	-29.12
3838.253	-22.12
3840.878	-30.12
3843.501	-14.12
3846.122	-24.12
3848.741	-17.12
3851.358	-20.12
3853.973	-34.12
3856.586	-23.12
3859.197	-36.12
3861.806	-24.12
3864.414	-34.12
3867.019	-25.12
3869.622	-15.12
3872.224	-7.12
3874.823	5.88
3877.421	40.88
3880.016	71.88
3882.61	132.88
3885.202	155.88
3887.792	109.88
3890.38	56.88
3892.966	3.88
3895.55	-26.12
3898.132	-20.12
3900.713	-17.12
3903.291	-21.12
3905.868	-36.12
3908.442	-29.12
3911.015	-30.12
3913.586	-35.12
3916.155	-33.12
3918.722	-35.12
3921.287	-34.12
3923.85	-39.12
3926.411	-36.12
3928.971	-34.12
3931.528	-27.12
3934.084	-29.12
3936.638	-40.12
3939.19	-27.12
3941.74	-29.12
3944.288	-34.12
3946.834	-35.12
3949.378	-19.12
3951.921	-38.12
3954.462	-31.12
3957	-30.12
3959.537	-20.12
3962.072	-31.12
3964.606	-46.12
3967.137	-32.12
3969.667	-37.12
3972.194	-25.12
3974.72	-32.12
3977.244	-53.12
3979.766	-32.12
3982.286	-32.12
3984.805	-24.12
3987.321	-22.12
3989.836	-28.12
3992.349	-34.12
3994.86	-27.12
3997.369	-33.12
3999.877	-31.12
4002.382	-31.12
4004.886	-26.12
4007.388	-30.12
4009.888	-21.12
4012.386	-15.12
4014.883	-26.12
4017.377	-26.12
4019.87	-24.12
4022.361	-35.12
4024.85	-28.12
4027.338	-28.12
4029.823	-34.12
4032.307	-31.12
4034.789	-32.12
4037.269	-32.12
4039.747	-38.12
4042.224	-19.12
4044.699	-34.12
4047.172	-29.12
4049.643	-23.12
4052.112	-54.12
4054.58	-26.12
4057.046	-44.12
4059.51	-25.12
4061.972	-31.12
4064.432	-46.12
4066.891	-17.12
4069.348	-26.12
4071.803	-26.12
4074.256	-34.12
4076.708	-21.12
4079.158	-22.12
4081.606	-18.12
4084.052	-28.12
4086.497	-22.12
4088.939	-31.12
4091.38	-29.12
4093.819	-25.12
4096.257	4.88
4098.693	-4.12
4101.127	-4.12
4103.559	1.88
4105.989	145.88
4108.418	146.88
4110.845	130.88
4113.27	145.88
4115.694	152.88
4118.115	146.88
4120.535	-21.12
4122.954	-20.12
4125.37	-21.12
4127.785	-22.12
4130.198	-19.12
4132.609	-23.12
4135.019	6.88
4137.427	-3.12
4139.833	3.88
4142.237	-6.12
