Data from 2018-3-6_conc=3_n=1_RamanShift_01.txt Node
Date: Tue Mar 06 13:14:19 GMT+02:00 2018
User: LAB3
Spectrometer: QEPB0276
Trigger mode: 0
Integration Time (sec): 3.000000E1
Scans to average: 1
Electric dark correction enabled: true
Nonlinearity correction enabled: false
Boxcar width: 0
XAxis mode: Raman Shifts
Number of Pixels in Spectrum: 1044
>>>>>Begin Spectral Data<<<<<
160.701	168.38
166.742	199.38
172.777	302.38
178.805	597.38
184.826	1345.38
190.841	2641.38
196.849	4211.38
202.85	5425.38
208.845	5854.38
214.833	5864.38
220.815	5779.38
226.789	5808.38
232.758	5837.38
238.719	5852.38
244.674	5832.38
250.623	5818.38
256.565	5777.38
262.5	5733.38
268.429	5701.38
274.351	5669.38
280.267	5684.38
286.176	5664.38
292.079	5687.38
297.975	5709.38
303.865	5707.38
309.748	5742.38
315.625	5767.38
321.495	5786.38
327.359	5746.38
333.217	5778.38
339.068	5803.38
344.912	5841.38
350.751	5863.38
356.583	5869.38
362.408	5905.38
368.227	5915.38
374.04	5954.38
379.847	5986.38
385.647	6037.38
391.44	6067.38
397.228	6093.38
403.009	6106.38
408.784	6143.38
414.553	6194.38
420.315	6208.38
426.071	6194.38
431.821	6213.38
437.565	6226.38
443.302	6174.38
449.033	6154.38
454.758	6143.38
460.477	6042.38
466.189	6001.38
471.896	5961.38
477.596	5922.38
483.29	5861.38
488.978	5853.38
494.66	5827.38
500.335	5659.38
506.005	5400.38
511.668	5153.38
517.325	4842.38
522.977	4659.38
528.622	4505.38
534.261	4412.38
539.894	4295.38
545.521	4225.38
551.141	4186.38
556.756	4108.38
562.365	4093.38
567.968	4038.38
573.565	4012.38
579.155	3988.38
584.74	3963.38
590.319	3976.38
595.892	3995.38
601.459	3983.38
607.02	3940.38
612.575	3929.38
618.124	3881.38
623.667	3813.38
629.204	3746.38
634.735	3710.38
640.261	3644.38
645.781	3619.38
651.294	3597.38
656.802	3579.38
662.304	3579.38
667.8	3582.38
673.29	3571.38
678.775	3580.38
684.254	3542.38
689.726	3520.38
695.193	3537.38
700.655	3486.38
706.11	3443.38
711.56	3425.38
717.004	3418.38
722.442	3402.38
727.874	3413.38
733.301	3393.38
738.722	3361.38
744.137	3382.38
749.547	3369.38
754.951	3350.38
760.349	3378.38
765.741	3391.38
771.128	3401.38
776.509	3462.38
781.885	3512.38
787.254	3551.38
792.618	3555.38
797.977	3568.38
803.33	3530.38
808.677	3505.38
814.019	3482.38
819.355	3441.38
824.686	3418.38
830.011	3380.38
835.33	3403.38
840.644	3391.38
845.952	3312.38
851.255	3301.38
856.552	3275.38
861.844	3220.38
867.13	3195.38
872.41	3148.38
877.686	3128.38
882.955	3095.38
888.219	3065.38
893.478	3026.38
898.731	3021.38
903.979	2961.38
909.221	2927.38
914.458	2916.38
919.69	2904.38
924.916	2915.38
930.136	2925.38
935.351	2921.38
940.561	2936.38
945.766	2903.38
950.965	2909.38
956.158	2869.38
961.347	2836.38
966.529	2819.38
971.707	2792.38
976.879	2748.38
982.046	2712.38
987.208	2683.38
992.364	2696.38
997.515	2702.38
1002.66	2740.38
1007.801	2746.38
1012.936	2773.38
1018.066	2756.38
1023.19	2794.38
1028.309	2800.38
1033.423	2816.38
1038.532	2786.38
1043.636	2791.38
1048.734	2737.38
1053.827	2733.38
1058.915	2697.38
1063.998	2697.38
1069.075	2677.38
1074.147	2695.38
1079.214	2677.38
1084.276	2703.38
1089.333	2690.38
1094.385	2704.38
1099.431	2687.38
1104.472	2701.38
1109.509	2633.38
1114.54	2622.38
1119.565	2558.38
1124.586	2532.38
1129.602	2518.38
1134.613	2469.38
1139.618	2459.38
1144.619	2472.38
1149.614	2487.38
1154.604	2494.38
1159.589	2503.38
1164.57	2512.38
1169.545	2532.38
1174.515	2510.38
1179.48	2503.38
1184.44	2497.38
1189.395	2475.38
1194.345	2432.38
1199.29	2435.38
1204.23	2427.38
1209.165	2420.38
1214.095	2468.38
1219.021	2463.38
1223.941	2461.38
1228.856	2456.38
1233.766	2487.38
1238.672	2472.38
1243.572	2461.38
1248.467	2439.38
1253.358	2427.38
1258.244	2368.38
1263.124	2368.38
1268	2320.38
1272.871	2255.38
1277.737	2252.38
1282.599	2242.38
1287.455	2207.38
1292.306	2227.38
1297.153	2235.38
1301.995	2258.38
1306.832	2265.38
1311.664	2258.38
1316.491	2253.38
1321.314	2250.38
1326.132	2230.38
1330.945	2211.38
1335.753	2186.38
1340.556	2135.38
1345.354	2104.38
1350.148	2079.38
1354.937	2045.38
1359.722	2010.38
1364.501	2005.38
1369.276	1997.38
1374.046	2005.38
1378.811	1986.38
1383.572	2004.38
1388.327	1979.38
1393.079	1961.38
1397.825	1961.38
1402.567	1939.38
1407.304	1927.38
1412.036	1924.38
1416.764	1927.38
1421.487	1912.38
1426.205	1905.38
1430.919	1895.38
1435.628	1931.38
1440.333	1914.38
1445.032	1928.38
1449.727	1952.38
1454.418	1965.38
1459.104	1954.38
1463.785	1922.38
1468.462	1890.38
1473.134	1873.38
1477.802	1830.38
1482.465	1796.38
1487.123	1784.38
1491.777	1751.38
1496.426	1745.38
1501.071	1801.38
1505.711	1765.38
1510.347	1804.38
1514.978	1812.38
1519.604	1820.38
1524.226	1806.38
1528.844	1782.38
1533.457	1800.38
1538.065	1771.38
1542.669	1777.38
1547.269	1765.38
1551.864	1727.38
1556.454	1726.38
1561.041	1739.38
1565.622	1739.38
1570.199	1747.38
1574.772	1747.38
1579.34	1770.38
1583.904	1788.38
1588.464	1810.38
1593.019	1782.38
1597.569	1784.38
1602.115	1797.38
1606.657	1766.38
1611.195	1796.38
1615.728	1779.38
1620.256	1761.38
1624.78	1739.38
1629.3	1760.38
1633.816	1787.38
1638.327	1777.38
1642.834	1783.38
1647.336	1786.38
1651.834	1807.38
1656.328	1817.38
1660.817	1797.38
1665.302	1788.38
1669.783	1768.38
1674.259	1747.38
1678.732	1687.38
1683.199	1659.38
1687.663	1609.38
1692.122	1576.38
1696.577	1552.38
1701.028	1529.38
1705.474	1481.38
1709.917	1466.38
1714.355	1445.38
1718.788	1423.38
1723.218	1404.38
1727.643	1382.38
1732.064	1374.38
1736.481	1336.38
1740.893	1324.38
1745.301	1305.38
1749.705	1251.38
1754.105	1240.38
1758.501	1206.38
1762.893	1200.38
1767.28	1160.38
1771.663	1156.38
1776.042	1159.38
1780.417	1148.38
1784.787	1152.38
1789.154	1156.38
1793.516	1153.38
1797.874	1156.38
1802.228	1140.38
1806.578	1142.38
1810.924	1148.38
1815.266	1051.38
1819.603	1098.38
1823.937	1094.38
1828.266	1080.38
1832.591	1072.38
1836.913	1068.38
1841.23	1053.38
1845.543	1039.38
1849.852	1063.38
1854.156	1040.38
1858.457	1046.38
1862.754	1050.38
1867.047	1042.38
1871.335	1074.38
1875.62	1072.38
1879.9	1066.38
1884.177	1053.38
1888.449	1052.38
1892.718	1057.38
1896.982	1056.38
1901.243	1013.38
1905.499	1033.38
1909.752	1032.38
1914	1004.38
1918.245	1022.38
1922.485	1026.38
1926.722	1021.38
1930.954	1014.38
1935.183	1034.38
1939.408	1027.38
1943.628	1033.38
1947.845	1041.38
1952.058	1018.38
1956.267	990.38
1960.472	978.38
1964.673	973.38
1968.87	947.38
1973.063	942.38
1977.252	922.38
1981.438	924.38
1985.619	906.38
1989.797	895.38
1993.971	885.38
1998.14	899.38
2002.306	888.38
2006.469	887.38
2010.627	895.38
2014.781	873.38
2018.932	856.38
2023.078	896.38
2027.221	862.38
2031.36	847.38
2035.495	843.38
2039.627	833.38
2043.754	839.38
2047.878	817.38
2051.998	828.38
2056.114	812.38
2060.226	805.38
2064.334	827.38
2068.439	824.38
2072.54	822.38
2076.637	815.38
2080.73	829.38
2084.82	825.38
2088.906	820.38
2092.988	825.38
2097.066	814.38
2101.14	829.38
2105.211	812.38
2109.278	793.38
2113.342	786.38
2117.401	776.38
2121.457	760.38
2125.509	750.38
2129.558	760.38
2133.602	761.38
2137.643	750.38
2141.681	741.38
2145.714	729.38
2149.744	738.38
2153.77	719.38
2157.793	703.38
2161.812	693.38
2165.827	680.38
2169.838	700.38
2173.846	681.38
2177.851	664.38
2181.851	670.38
2185.848	646.38
2189.841	660.38
2193.831	644.38
2197.817	636.38
2201.799	636.38
2205.778	610.38
2209.753	613.38
2213.725	614.38
2217.693	615.38
2221.657	603.38
2225.618	610.38
2229.575	604.38
2233.529	600.38
2237.479	598.38
2241.425	582.38
2245.368	562.38
2249.307	572.38
2253.243	560.38
2257.175	570.38
2261.104	533.38
2265.029	542.38
2268.95	531.38
2272.868	525.38
2276.783	512.38
2280.694	514.38
2284.601	519.38
2288.505	502.38
2292.405	502.38
2296.302	481.38
2300.195	486.38
2304.085	450.38
2307.971	476.38
2311.854	441.38
2315.734	453.38
2319.609	462.38
2323.482	418.38
2327.351	429.38
2331.216	434.38
2335.078	438.38
2338.937	430.38
2342.792	427.38
2346.643	418.38
2350.492	429.38
2354.336	425.38
2358.178	431.38
2362.015	430.38
2365.85	422.38
2369.681	434.38
2373.508	432.38
2377.333	425.38
2381.153	421.38
2384.971	420.38
2388.785	431.38
2392.595	408.38
2396.402	396.38
2400.206	385.38
2404.007	398.38
2407.804	392.38
2411.597	409.38
2415.388	385.38
2419.174	392.38
2422.958	390.38
2426.738	388.38
2430.515	400.38
2434.289	380.38
2438.059	376.38
2441.825	382.38
2445.589	389.38
2449.349	356.38
2453.106	366.38
2456.859	372.38
2460.61	368.38
2464.356	357.38
2468.1	354.38
2471.84	347.38
2475.577	350.38
2479.311	338.38
2483.041	346.38
2486.768	361.38
2490.492	356.38
2494.213	347.38
2497.93	337.38
2501.644	342.38
2505.355	336.38
2509.062	340.38
2512.766	339.38
2516.467	335.38
2520.165	331.38
2523.859	322.38
2527.551	351.38
2531.239	313.38
2534.923	335.38
2538.605	319.38
2542.283	317.38
2545.958	323.38
2549.63	332.38
2553.299	336.38
2556.964	310.38
2560.626	316.38
2564.285	306.38
2567.941	300.38
2571.594	304.38
2575.243	310.38
2578.89	301.38
2582.533	298.38
2586.173	295.38
2589.809	303.38
2593.443	273.38
2597.073	289.38
2600.701	294.38
2604.325	290.38
2607.946	270.38
2611.564	294.38
2615.178	286.38
2618.79	287.38
2622.398	265.38
2626.004	272.38
2629.606	267.38
2633.205	252.38
2636.801	270.38
2640.394	259.38
2643.983	265.38
2647.57	254.38
2651.153	248.38
2654.734	263.38
2658.311	234.38
2661.885	231.38
2665.456	247.38
2669.025	236.38
2672.589	232.38
2676.151	250.38
2679.71	238.38
2683.266	236.38
2686.819	227.38
2690.368	232.38
2693.915	234.38
2697.458	226.38
2700.999	230.38
2704.536	228.38
2708.071	206.38
2711.602	217.38
2715.13	213.38
2718.656	195.38
2722.178	213.38
2725.697	196.38
2729.214	209.38
2732.727	211.38
2736.237	183.38
2739.744	199.38
2743.249	200.38
2746.75	204.38
2750.248	196.38
2753.743	198.38
2757.236	205.38
2760.725	210.38
2764.211	177.38
2767.695	204.38
2771.175	195.38
2774.652	200.38
2778.127	199.38
2781.598	192.38
2785.067	192.38
2788.532	188.38
2791.995	197.38
2795.455	189.38
2798.911	195.38
2802.365	191.38
2805.816	195.38
2809.264	203.38
2812.709	198.38
2816.151	200.38
2819.59	187.38
2823.026	197.38
2826.46	198.38
2829.89	205.38
2833.318	184.38
2836.742	193.38
2840.164	197.38
2843.583	203.38
2846.999	198.38
2850.412	206.38
2853.822	205.38
2857.229	218.38
2860.634	200.38
2864.035	190.38
2867.434	224.38
2870.83	213.38
2874.223	211.38
2877.613	223.38
2881	211.38
2884.385	218.38
2887.766	221.38
2891.145	233.38
2894.521	222.38
2897.894	207.38
2901.264	225.38
2904.631	230.38
2907.996	225.38
2911.358	232.38
2914.717	234.38
2918.073	236.38
2921.426	225.38
2924.777	216.38
2928.124	233.38
2931.469	252.38
2934.811	236.38
2938.15	256.38
2941.487	250.38
2944.821	269.38
2948.152	252.38
2951.48	262.38
2954.805	235.38
2958.128	262.38
2961.447	252.38
2964.765	270.38
2968.079	258.38
2971.39	261.38
2974.699	262.38
2978.005	265.38
2981.308	269.38
2984.609	267.38
2987.907	277.38
2991.202	277.38
2994.494	269.38
2997.784	284.38
3001.07	282.38
3004.355	292.38
3007.636	295.38
3010.915	295.38
3014.191	289.38
3017.464	294.38
3020.734	298.38
3024.002	298.38
3027.267	304.38
3030.53	304.38
3033.789	297.38
3037.046	305.38
3040.301	307.38
3043.552	322.38
3046.801	320.38
3050.048	342.38
3053.291	370.38
3056.532	357.38
3059.771	346.38
3063.006	372.38
3066.239	380.38
3069.469	387.38
3072.697	386.38
3075.922	393.38
3079.144	411.38
3082.364	431.38
3085.581	417.38
3088.795	450.38
3092.007	456.38
3095.216	458.38
3098.423	452.38
3101.627	443.38
3104.828	486.38
3108.026	472.38
3111.222	511.38
3114.416	515.38
3117.607	520.38
3120.795	536.38
3123.98	546.38
3127.163	549.38
3130.344	554.38
3133.521	565.38
3136.696	596.38
3139.869	593.38
3143.039	589.38
3146.206	631.38
3149.371	630.38
3152.533	619.38
3155.693	630.38
3158.85	635.38
3162.005	640.38
3165.157	654.38
3168.306	649.38
3171.453	659.38
3174.597	632.38
3177.739	643.38
3180.878	656.38
3184.014	642.38
3187.149	646.38
3190.28	652.38
3193.409	656.38
3196.536	661.38
3199.659	679.38
3202.781	668.38
3205.9	665.38
3209.016	674.38
3212.13	659.38
3215.241	660.38
3218.35	659.38
3221.456	649.38
3224.56	646.38
3227.661	638.38
3230.76	636.38
3233.856	634.38
3236.95	638.38
3240.041	619.38
3243.13	627.38
3246.216	619.38
3249.3	614.38
3252.382	615.38
3255.46	607.38
3258.537	552.38
3261.611	601.38
3264.682	597.38
3267.751	595.38
3270.818	584.38
3273.882	605.38
3276.943	592.38
3280.002	598.38
3283.059	580.38
3286.113	580.38
3289.165	560.38
3292.214	568.38
3295.261	571.38
3298.306	544.38
3301.348	534.38
3304.387	526.38
3307.425	532.38
3310.459	514.38
3313.492	523.38
3316.521	519.38
3319.549	515.38
3322.574	507.38
3325.597	513.38
3328.617	503.38
3331.635	498.38
3334.65	483.38
3337.663	495.38
3340.674	489.38
3343.682	489.38
3346.688	493.38
3349.691	475.38
3352.692	492.38
3355.691	487.38
3358.687	483.38
3361.681	484.38
3364.673	469.38
3367.662	465.38
3370.649	469.38
3373.633	449.38
3376.615	463.38
3379.595	428.38
3382.572	435.38
3385.547	427.38
3388.52	423.38
3391.49	427.38
3394.458	424.38
3397.424	422.38
3400.387	405.38
3403.348	408.38
3406.307	408.38
3409.263	401.38
3412.217	401.38
3415.168	397.38
3418.118	402.38
3421.065	384.38
3424.009	391.38
3426.951	381.38
3429.891	364.38
3432.829	364.38
3435.764	366.38
3438.697	348.38
3441.628	364.38
3444.557	332.38
3447.483	325.38
3450.407	328.38
3453.328	309.38
3456.247	300.38
3459.164	288.38
3462.079	308.38
3464.991	285.38
3467.902	273.38
3470.809	269.38
3473.715	276.38
3476.618	252.38
3479.519	250.38
3482.418	233.38
3485.315	231.38
3488.209	226.38
3491.101	223.38
3493.99	205.38
3496.878	216.38
3499.763	211.38
3502.646	205.38
3505.527	189.38
3508.405	192.38
3511.281	175.38
3514.155	181.38
3517.027	173.38
3519.897	156.38
3522.764	159.38
3525.629	141.38
3528.492	150.38
3531.352	139.38
3534.211	130.38
3537.067	125.38
3539.921	122.38
3542.773	125.38
3545.622	106.38
3548.469	100.38
3551.315	93.38
3554.157	101.38
3556.998	80.38
3559.837	85.38
3562.673	90.38
3565.507	77.38
3568.339	69.38
3571.169	74.38
3573.996	70.38
3576.822	52.38
3579.645	57.38
3582.466	62.38
3585.285	62.38
3588.101	57.38
3590.916	50.38
3593.728	59.38
3596.538	48.38
3599.346	46.38
3602.152	38.38
3604.956	43.38
3607.757	47.38
3610.556	23.38
3613.354	41.38
3616.149	31.38
3618.942	34.38
3621.732	27.38
3624.521	25.38
3627.307	12.38
3630.092	15.38
3632.874	24.38
3635.654	16.38
3638.432	12.38
3641.208	11.38
3643.982	11.38
3646.753	19.38
3649.523	-14.62
3652.29	5.38
3655.055	10.38
3657.818	10.38
3660.579	2.38
3663.338	-11.62
3666.095	0.38
3668.849	-23.62
3671.602	7.38
3674.352	-12.62
3677.101	1.38
3679.847	2.38
3682.591	-14.62
3685.333	-20.62
3688.073	-7.62
3690.811	-23.62
3693.547	-21.62
3696.281	-17.62
3699.013	-8.62
3701.742	-16.62
3704.47	-27.62
3707.195	-14.62
3709.919	-13.62
3712.64	-14.62
3715.359	-29.62
3718.076	-7.62
3720.792	-17.62
3723.505	-15.62
3726.216	-14.62
3728.925	-19.62
3731.632	-30.62
3734.336	-18.62
3737.039	-20.62
3739.74	-21.62
3742.439	-42.62
3745.136	-16.62
3747.83	-15.62
3750.523	-17.62
3753.213	-84.62
3755.902	-23.62
3758.589	-37.62
3761.273	-28.62
3763.956	-11.62
3766.636	-36.62
3769.315	-14.62
3771.991	-29.62
3774.665	-26.62
3777.338	-20.62
3780.008	-33.62
3782.677	-30.62
3785.343	-44.62
3788.007	-44.62
3790.67	-17.62
3793.33	-35.62
3795.989	-29.62
3798.645	-27.62
3801.299	-38.62
3803.952	-37.62
3806.602	-33.62
3809.251	-18.62
3811.897	-29.62
3814.542	-29.62
3817.184	-31.62
3819.825	-23.62
3822.463	-42.62
3825.1	-30.62
3827.735	-29.62
3830.367	-39.62
3832.998	-17.62
3835.627	-30.62
3838.253	-24.62
3840.878	-29.62
3843.501	-15.62
3846.122	-20.62
3848.741	-20.62
3851.358	-25.62
3853.973	-40.62
3856.586	-24.62
3859.197	-33.62
3861.806	-30.62
3864.414	-36.62
3867.019	-25.62
3869.622	-14.62
3872.224	-8.62
3874.823	7.38
3877.421	43.38
3880.016	65.38
3882.61	103.38
3885.202	124.38
3887.792	94.38
3890.38	52.38
3892.966	-0.62
3895.55	-25.62
3898.132	-18.62
3900.713	-20.62
3903.291	-26.62
3905.868	-33.62
3908.442	-25.62
3911.015	-27.62
3913.586	-34.62
3916.155	-36.62
3918.722	-36.62
3921.287	-36.62
3923.85	-44.62
3926.411	-34.62
3928.971	-38.62
3931.528	-30.62
3934.084	-35.62
3936.638	-43.62
3939.19	-30.62
3941.74	-24.62
3944.288	-32.62
3946.834	-30.62
3949.378	-25.62
3951.921	-36.62
3954.462	-31.62
3957	-28.62
3959.537	-15.62
3962.072	-30.62
3964.606	-44.62
3967.137	-40.62
3969.667	-39.62
3972.194	-26.62
3974.72	-36.62
3977.244	-53.62
3979.766	-37.62
3982.286	-34.62
3984.805	-30.62
3987.321	-21.62
3989.836	-21.62
3992.349	-38.62
3994.86	-31.62
3997.369	-36.62
3999.877	-28.62
4002.382	-33.62
4004.886	-23.62
4007.388	-27.62
4009.888	-13.62
4012.386	-21.62
4014.883	-26.62
4017.377	-30.62
4019.87	-27.62
4022.361	-37.62
4024.85	-31.62
4027.338	-16.62
4029.823	34.38
4032.307	-24.62
4034.789	-30.62
4037.269	-32.62
4039.747	-40.62
4042.224	-18.62
4044.699	-32.62
4047.172	-32.62
4049.643	-20.62
4052.112	-49.62
4054.58	-23.62
4057.046	-39.62
4059.51	-30.62
4061.972	-32.62
4064.432	-48.62
4066.891	-18.62
4069.348	-26.62
4071.803	-28.62
4074.256	-35.62
4076.708	-24.62
4079.158	-25.62
4081.606	-15.62
4084.052	-28.62
4086.497	-23.62
4088.939	-26.62
4091.38	-31.62
4093.819	-25.62
4096.257	0.38
4098.693	-8.62
4101.127	-1.62
4103.559	2.38
4105.989	159.38
4108.418	158.38
4110.845	138.38
4113.27	153.38
4115.694	153.38
4118.115	154.38
4120.535	-26.62
4122.954	-19.62
4125.37	-13.62
4127.785	-26.62
4130.198	-16.62
4132.609	-28.62
4135.019	6.38
4137.427	2.38
4139.833	4.38
4142.237	-5.62
