Data from 2018-3-6_conc=2_n=4_RamanShift_02.txt Node
Date: Tue Mar 06 12:51:49 GMT+02:00 2018
User: LAB3
Spectrometer: QEPB0276
Trigger mode: 0
Integration Time (sec): 3.000000E1
Scans to average: 1
Electric dark correction enabled: true
Nonlinearity correction enabled: false
Boxcar width: 0
XAxis mode: Raman Shifts
Number of Pixels in Spectrum: 1044
>>>>>Begin Spectral Data<<<<<
160.701	174.12
166.742	222.12
172.777	326.12
178.805	642.12
184.826	1472.12
190.841	2950.12
196.849	4688.12
202.85	6022.12
208.845	6530.12
214.833	6536.12
220.815	6470.12
226.789	6459.12
232.758	6515.12
238.719	6547.12
244.674	6486.12
250.623	6457.12
256.565	6443.12
262.5	6362.12
268.429	6352.12
274.351	6340.12
280.267	6321.12
286.176	6322.12
292.079	6354.12
297.975	6404.12
303.865	6377.12
309.748	6374.12
315.625	6381.12
321.495	6395.12
327.359	6456.12
333.217	6430.12
339.068	6460.12
344.912	6528.12
350.751	6520.12
356.583	6548.12
362.408	6586.12
368.227	6629.12
374.04	6603.12
379.847	6706.12
385.647	6755.12
391.44	6759.12
397.228	6800.12
403.009	6811.12
408.784	6877.12
414.553	6887.12
420.315	6910.12
426.071	6904.12
431.821	6913.12
437.565	6895.12
443.302	6876.12
449.033	6873.12
454.758	6815.12
460.477	6786.12
466.189	6671.12
471.896	6652.12
477.596	6583.12
483.29	6556.12
488.978	6557.12
494.66	6481.12
500.335	6301.12
506.005	6069.12
511.668	5742.12
517.325	5457.12
522.977	5231.12
528.622	5052.12
534.261	4899.12
539.894	4818.12
545.521	4780.12
551.141	4682.12
556.756	4643.12
562.365	4592.12
567.968	4555.12
573.565	4531.12
579.155	4510.12
584.74	4447.12
590.319	4467.12
595.892	4473.12
601.459	4474.12
607.02	4442.12
612.575	4388.12
618.124	4368.12
623.667	4270.12
629.204	4233.12
634.735	4164.12
640.261	4132.12
645.781	4085.12
651.294	4064.12
656.802	4069.12
662.304	4037.12
667.8	4026.12
673.29	4027.12
678.775	4039.12
684.254	3980.12
689.726	3987.12
695.193	3983.12
700.655	3927.12
706.11	3916.12
711.56	3894.12
717.004	3872.12
722.442	3849.12
727.874	3849.12
733.301	3818.12
738.722	3771.12
744.137	3789.12
749.547	3805.12
754.951	3801.12
760.349	3804.12
765.741	3812.12
771.128	3845.12
776.509	3902.12
781.885	3963.12
787.254	3987.12
792.618	4011.12
797.977	4000.12
803.33	3981.12
808.677	3950.12
814.019	3916.12
819.355	3866.12
824.686	3818.12
830.011	3805.12
835.33	3823.12
840.644	3799.12
845.952	3728.12
851.255	3717.12
856.552	3699.12
861.844	3649.12
867.13	3586.12
872.41	3577.12
877.686	3561.12
882.955	3538.12
888.219	3509.12
893.478	3438.12
898.731	3407.12
903.979	3325.12
909.221	3308.12
914.458	3303.12
919.69	3292.12
924.916	3293.12
930.136	3333.12
935.351	3283.12
940.561	3323.12
945.766	3307.12
950.965	3297.12
956.158	3235.12
961.347	3195.12
966.529	3162.12
971.707	3143.12
976.879	3102.12
982.046	3046.12
987.208	3060.12
992.364	3055.12
997.515	3070.12
1002.66	3092.12
1007.801	3140.12
1012.936	3118.12
1018.066	3136.12
1023.19	3181.12
1028.309	3202.12
1033.423	3212.12
1038.532	3201.12
1043.636	3172.12
1048.734	3149.12
1053.827	3114.12
1058.915	3079.12
1063.998	3055.12
1069.075	3039.12
1074.147	3051.12
1079.214	3019.12
1084.276	3071.12
1089.333	3071.12
1094.385	3072.12
1099.431	3060.12
1104.472	3058.12
1109.509	3002.12
1114.54	2949.12
1119.565	2922.12
1124.586	2887.12
1129.602	2847.12
1134.613	2815.12
1139.618	2804.12
1144.619	2826.12
1149.614	2808.12
1154.604	2827.12
1159.589	2802.12
1164.57	2836.12
1169.545	2863.12
1174.515	2874.12
1179.48	2816.12
1184.44	2819.12
1189.395	2790.12
1194.345	2776.12
1199.29	2774.12
1204.23	2758.12
1209.165	2739.12
1214.095	2771.12
1219.021	2789.12
1223.941	2791.12
1228.856	2800.12
1233.766	2800.12
1238.672	2807.12
1243.572	2795.12
1248.467	2796.12
1253.358	2751.12
1258.244	2696.12
1263.124	2672.12
1268	2634.12
1272.871	2563.12
1277.737	2546.12
1282.599	2512.12
1287.455	2510.12
1292.306	2532.12
1297.153	2527.12
1301.995	2572.12
1306.832	2567.12
1311.664	2572.12
1316.491	2579.12
1321.314	2580.12
1326.132	2515.12
1330.945	2534.12
1335.753	2464.12
1340.556	2423.12
1345.354	2381.12
1350.148	2349.12
1354.937	2321.12
1359.722	2303.12
1364.501	2285.12
1369.276	2304.12
1374.046	2289.12
1378.811	2271.12
1383.572	2254.12
1388.327	2256.12
1393.079	2239.12
1397.825	2226.12
1402.567	2216.12
1407.304	2191.12
1412.036	2183.12
1416.764	2190.12
1421.487	2171.12
1426.205	2173.12
1430.919	2184.12
1435.628	2188.12
1440.333	2206.12
1445.032	2236.12
1449.727	2245.12
1454.418	2243.12
1459.104	2262.12
1463.785	2226.12
1468.462	2219.12
1473.134	2162.12
1477.802	2129.12
1482.465	2089.12
1487.123	2068.12
1491.777	2046.12
1496.426	2049.12
1501.071	2055.12
1505.711	2048.12
1510.347	2080.12
1514.978	2098.12
1519.604	2096.12
1524.226	2101.12
1528.844	2073.12
1533.457	2065.12
1538.065	2026.12
1542.669	2030.12
1547.269	2014.12
1551.864	2009.12
1556.454	1972.12
1561.041	1987.12
1565.622	1987.12
1570.199	1979.12
1574.772	2014.12
1579.34	2045.12
1583.904	2048.12
1588.464	2051.12
1593.019	2062.12
1597.569	2053.12
1602.115	2039.12
1606.657	2030.12
1611.195	2055.12
1615.728	2055.12
1620.256	2008.12
1624.78	2012.12
1629.3	2032.12
1633.816	2051.12
1638.327	2038.12
1642.834	2049.12
1647.336	2079.12
1651.834	2101.12
1656.328	2086.12
1660.817	2088.12
1665.302	2054.12
1669.783	2030.12
1674.259	2025.12
1678.732	1954.12
1683.199	1945.12
1687.663	1861.12
1692.122	1834.12
1696.577	1798.12
1701.028	1769.12
1705.474	1718.12
1709.917	1704.12
1714.355	1683.12
1718.788	1666.12
1723.218	1624.12
1727.643	1618.12
1732.064	1594.12
1736.481	1556.12
1740.893	1536.12
1745.301	1519.12
1749.705	1466.12
1754.105	1451.12
1758.501	1412.12
1762.893	1389.12
1767.28	1365.12
1771.663	1359.12
1776.042	1338.12
1780.417	1342.12
1784.787	1350.12
1789.154	1336.12
1793.516	1353.12
1797.874	1351.12
1802.228	1335.12
1806.578	1322.12
1810.924	1325.12
1815.266	1242.12
1819.603	1296.12
1823.937	1266.12
1828.266	1261.12
1832.591	1239.12
1836.913	1243.12
1841.23	1222.12
1845.543	1218.12
1849.852	1230.12
1854.156	1220.12
1858.457	1224.12
1862.754	1218.12
1867.047	1230.12
1871.335	1253.12
1875.62	1255.12
1879.9	1235.12
1884.177	1231.12
1888.449	1231.12
1892.718	1219.12
1896.982	1218.12
1901.243	1210.12
1905.499	1198.12
1909.752	1202.12
1914	1171.12
1918.245	1203.12
1922.485	1209.12
1926.722	1209.12
1930.954	1210.12
1935.183	1226.12
1939.408	1234.12
1943.628	1222.12
1947.845	1201.12
1952.058	1192.12
1956.267	1189.12
1960.472	1163.12
1964.673	1132.12
1968.87	1116.12
1973.063	1089.12
1977.252	1075.12
1981.438	1059.12
1985.619	1061.12
1989.797	1043.12
1993.971	1047.12
1998.14	1063.12
2002.306	1046.12
2006.469	1043.12
2010.627	1021.12
2014.781	1022.12
2018.932	1022.12
2023.078	1010.12
2027.221	1020.12
2031.36	986.12
2035.495	987.12
2039.627	965.12
2043.754	956.12
2047.878	957.12
2051.998	950.12
2056.114	952.12
2060.226	945.12
2064.334	949.12
2068.439	968.12
2072.54	976.12
2076.637	968.12
2080.73	959.12
2084.82	957.12
2088.906	974.12
2092.988	969.12
2097.066	960.12
2101.14	982.12
2105.211	955.12
2109.278	920.12
2113.342	921.12
2117.401	913.12
2121.457	893.12
2125.509	887.12
2129.558	887.12
2133.602	878.12
2137.643	867.12
2141.681	868.12
2145.714	872.12
2149.744	871.12
2153.77	851.12
2157.793	830.12
2161.812	811.12
2165.827	781.12
2169.838	813.12
2173.846	798.12
2177.851	767.12
2181.851	781.12
2185.848	767.12
2189.841	762.12
2193.831	747.12
2197.817	731.12
2201.799	747.12
2205.778	718.12
2209.753	716.12
2213.725	714.12
2217.693	719.12
2221.657	707.12
2225.618	710.12
2229.575	698.12
2233.529	718.12
2237.479	696.12
2241.425	689.12
2245.368	659.12
2249.307	682.12
2253.243	653.12
2257.175	649.12
2261.104	632.12
2265.029	630.12
2268.95	624.12
2272.868	612.12
2276.783	595.12
2280.694	595.12
2284.601	592.12
2288.505	597.12
2292.405	589.12
2296.302	550.12
2300.195	560.12
2304.085	530.12
2307.971	553.12
2311.854	518.12
2315.734	524.12
2319.609	534.12
2323.482	501.12
2327.351	505.12
2331.216	506.12
2335.078	513.12
2338.937	507.12
2342.792	493.12
2346.643	492.12
2350.492	500.12
2354.336	498.12
2358.178	505.12
2362.015	508.12
2365.85	491.12
2369.681	505.12
2373.508	503.12
2377.333	507.12
2381.153	494.12
2384.971	491.12
2388.785	489.12
2392.595	474.12
2396.402	480.12
2400.206	451.12
2404.007	468.12
2407.804	470.12
2411.597	473.12
2415.388	469.12
2419.174	459.12
2422.958	460.12
2426.738	455.12
2430.515	461.12
2434.289	440.12
2438.059	442.12
2441.825	450.12
2445.589	443.12
2449.349	434.12
2453.106	435.12
2456.859	430.12
2460.61	428.12
2464.356	417.12
2468.1	409.12
2471.84	398.12
2475.577	411.12
2479.311	410.12
2483.041	417.12
2486.768	429.12
2490.492	427.12
2494.213	416.12
2497.93	394.12
2501.644	394.12
2505.355	400.12
2509.062	400.12
2512.766	401.12
2516.467	388.12
2520.165	390.12
2523.859	381.12
2527.551	415.12
2531.239	374.12
2534.923	387.12
2538.605	376.12
2542.283	391.12
2545.958	386.12
2549.63	388.12
2553.299	388.12
2556.964	373.12
2560.626	382.12
2564.285	381.12
2567.941	363.12
2571.594	359.12
2575.243	381.12
2578.89	357.12
2582.533	360.12
2586.173	358.12
2589.809	358.12
2593.443	331.12
2597.073	350.12
2600.701	350.12
2604.325	346.12
2607.946	329.12
2611.564	340.12
2615.178	342.12
2618.79	334.12
2622.398	323.12
2626.004	337.12
2629.606	326.12
2633.205	310.12
2636.801	320.12
2640.394	311.12
2643.983	308.12
2647.57	294.12
2651.153	293.12
2654.734	307.12
2658.311	281.12
2661.885	288.12
2665.456	287.12
2669.025	286.12
2672.589	279.12
2676.151	292.12
2679.71	292.12
2683.266	268.12
2686.819	276.12
2690.368	275.12
2693.915	275.12
2697.458	274.12
2700.999	268.12
2704.536	263.12
2708.071	262.12
2711.602	260.12
2715.13	252.12
2718.656	241.12
2722.178	256.12
2725.697	238.12
2729.214	243.12
2732.727	254.12
2736.237	232.12
2739.744	246.12
2743.249	244.12
2746.75	250.12
2750.248	248.12
2753.743	244.12
2757.236	244.12
2760.725	253.12
2764.211	223.12
2767.695	243.12
2771.175	240.12
2774.652	247.12
2778.127	235.12
2781.598	235.12
2785.067	243.12
2788.532	227.12
2791.995	235.12
2795.455	228.12
2798.911	244.12
2802.365	230.12
2805.816	235.12
2809.264	246.12
2812.709	235.12
2816.151	242.12
2819.59	223.12
2823.026	229.12
2826.46	241.12
2829.89	244.12
2833.318	214.12
2836.742	232.12
2840.164	239.12
2843.583	243.12
2846.999	243.12
2850.412	250.12
2853.822	248.12
2857.229	260.12
2860.634	256.12
2864.035	244.12
2867.434	267.12
2870.83	266.12
2874.223	267.12
2877.613	264.12
2881	263.12
2884.385	267.12
2887.766	270.12
2891.145	271.12
2894.521	276.12
2897.894	262.12
2901.264	284.12
2904.631	275.12
2907.996	276.12
2911.358	292.12
2914.717	286.12
2918.073	277.12
2921.426	277.12
2924.777	272.12
2928.124	286.12
2931.469	306.12
2934.811	297.12
2938.15	319.12
2941.487	302.12
2944.821	323.12
2948.152	312.12
2951.48	316.12
2954.805	304.12
2958.128	327.12
2961.447	304.12
2964.765	327.12
2968.079	305.12
2971.39	316.12
2974.699	318.12
2978.005	318.12
2981.308	321.12
2984.609	317.12
2987.907	319.12
2991.202	339.12
2994.494	326.12
2997.784	338.12
3001.07	334.12
3004.355	338.12
3007.636	346.12
3010.915	338.12
3014.191	350.12
3017.464	352.12
3020.734	352.12
3024.002	357.12
3027.267	351.12
3030.53	364.12
3033.789	359.12
3037.046	366.12
3040.301	358.12
3043.552	384.12
3046.801	389.12
3050.048	398.12
3053.291	423.12
3056.532	413.12
3059.771	402.12
3063.006	430.12
3066.239	446.12
3069.469	450.12
3072.697	456.12
3075.922	463.12
3079.144	476.12
3082.364	509.12
3085.581	494.12
3088.795	531.12
3092.007	521.12
3095.216	542.12
3098.423	544.12
3101.627	537.12
3104.828	568.12
3108.026	575.12
3111.222	595.12
3114.416	610.12
3117.607	617.12
3120.795	626.12
3123.98	634.12
3127.163	637.12
3130.344	661.12
3133.521	676.12
3136.696	699.12
3139.869	701.12
3143.039	703.12
3146.206	738.12
3149.371	741.12
3152.533	748.12
3155.693	728.12
3158.85	750.12
3162.005	761.12
3165.157	749.12
3168.306	740.12
3171.453	766.12
3174.597	762.12
3177.739	740.12
3180.878	748.12
3184.014	766.12
3187.149	772.12
3190.28	761.12
3193.409	775.12
3196.536	776.12
3199.659	788.12
3202.781	775.12
3205.9	764.12
3209.016	769.12
3212.13	764.12
3215.241	761.12
3218.35	769.12
3221.456	750.12
3224.56	750.12
3227.661	751.12
3230.76	734.12
3233.856	730.12
3236.95	737.12
3240.041	724.12
3243.13	727.12
3246.216	720.12
3249.3	727.12
3252.382	715.12
3255.46	707.12
3258.537	661.12
3261.611	695.12
3264.682	711.12
3267.751	714.12
3270.818	686.12
3273.882	709.12
3276.943	713.12
3280.002	703.12
3283.059	681.12
3286.113	670.12
3289.165	656.12
3292.214	649.12
3295.261	664.12
3298.306	634.12
3301.348	628.12
3304.387	614.12
3307.425	620.12
3310.459	611.12
3313.492	620.12
3316.521	593.12
3319.549	593.12
3322.574	601.12
3325.597	578.12
3328.617	577.12
3331.635	581.12
3334.65	568.12
3337.663	577.12
3340.674	552.12
3343.682	575.12
3346.688	580.12
3349.691	561.12
3352.692	564.12
3355.691	573.12
3358.687	558.12
3361.681	563.12
3364.673	560.12
3367.662	550.12
3370.649	547.12
3373.633	534.12
3376.615	537.12
3379.595	504.12
3382.572	513.12
3385.547	499.12
3388.52	501.12
3391.49	499.12
3394.458	498.12
3397.424	496.12
3400.387	466.12
3403.348	473.12
3406.307	482.12
3409.263	473.12
3412.217	480.12
3415.168	471.12
3418.118	459.12
3421.065	456.12
3424.009	458.12
3426.951	436.12
3429.891	432.12
3432.829	432.12
3435.764	426.12
3438.697	411.12
3441.628	422.12
3444.557	388.12
3447.483	383.12
3450.407	394.12
3453.328	363.12
3456.247	366.12
3459.164	344.12
3462.079	360.12
3464.991	339.12
3467.902	320.12
3470.809	315.12
3473.715	321.12
3476.618	304.12
3479.519	303.12
3482.418	273.12
3485.315	277.12
3488.209	275.12
3491.101	271.12
3493.99	254.12
3496.878	247.12
3499.763	253.12
3502.646	246.12
3505.527	235.12
3508.405	223.12
3511.281	215.12
3514.155	215.12
3517.027	209.12
3519.897	195.12
3522.764	195.12
3525.629	171.12
3528.492	178.12
3531.352	173.12
3534.211	166.12
3537.067	151.12
3539.921	146.12
3542.773	148.12
3545.622	136.12
3548.469	123.12
3551.315	115.12
3554.157	128.12
3556.998	108.12
3559.837	108.12
3562.673	112.12
3565.507	104.12
3568.339	88.12
3571.169	99.12
3573.996	86.12
3576.822	69.12
3579.645	81.12
3582.466	75.12
3585.285	77.12
3588.101	75.12
3590.916	68.12
3593.728	79.12
3596.538	62.12
3599.346	65.12
3602.152	49.12
3604.956	59.12
3607.757	56.12
3610.556	33.12
3613.354	54.12
3616.149	44.12
3618.942	48.12
3621.732	44.12
3624.521	32.12
3627.307	26.12
3630.092	26.12
3632.874	43.12
3635.654	31.12
3638.432	20.12
3641.208	26.12
3643.982	24.12
3646.753	26.12
3649.523	0.12
3652.29	17.12
3655.055	18.12
3657.818	18.12
3660.579	12.12
3663.338	1.12
3666.095	10.12
3668.849	-17.88
3671.602	11.12
3674.352	-6.88
3677.101	8.12
3679.847	7.12
3682.591	-9.88
3685.333	-14.88
3688.073	-0.88
3690.811	-15.88
3693.547	-17.88
3696.281	-13.88
3699.013	-3.88
3701.742	-9.88
3704.47	-20.88
3707.195	-3.88
3709.919	-9.88
3712.64	-12.88
3715.359	-21.88
3718.076	-2.88
3720.792	-15.88
3723.505	-9.88
3726.216	-0.88
3728.925	-9.88
3731.632	-19.88
3734.336	-10.88
3737.039	-10.88
3739.74	-15.88
3742.439	-38.88
3745.136	-12.88
3747.83	-12.88
3750.523	-9.88
3753.213	-76.88
3755.902	-18.88
3758.589	-38.88
3761.273	-18.88
3763.956	-14.88
3766.636	-38.88
3769.315	-10.88
3771.991	-17.88
3774.665	-24.88
3777.338	-24.88
3780.008	-30.88
3782.677	-23.88
3785.343	-36.88
3788.007	-39.88
3790.67	-15.88
3793.33	-35.88
3795.989	-27.88
3798.645	-22.88
3801.299	-33.88
3803.952	-37.88
3806.602	-25.88
3809.251	-19.88
3811.897	-30.88
3814.542	-31.88
3817.184	-29.88
3819.825	-25.88
3822.463	-36.88
3825.1	-28.88
3827.735	-26.88
3830.367	-31.88
3832.998	-12.88
3835.627	-27.88
3838.253	-17.88
3840.878	-26.88
3843.501	-12.88
3846.122	-22.88
3848.741	-18.88
3851.358	-15.88
3853.973	-37.88
3856.586	-18.88
3859.197	-29.88
3861.806	-20.88
3864.414	-36.88
3867.019	-18.88
3869.622	-9.88
3872.224	-8.88
3874.823	16.12
3877.421	40.12
3880.016	66.12
3882.61	121.12
3885.202	146.12
3887.792	103.12
3890.38	49.12
3892.966	5.12
3895.55	-19.88
3898.132	-10.88
3900.713	-17.88
3903.291	-21.88
3905.868	-32.88
3908.442	-26.88
3911.015	-25.88
3913.586	-35.88
3916.155	-28.88
3918.722	-34.88
3921.287	-34.88
3923.85	-40.88
3926.411	-33.88
3928.971	-32.88
3931.528	-21.88
3934.084	-29.88
3936.638	-39.88
3939.19	-23.88
3941.74	-27.88
3944.288	-26.88
3946.834	-30.88
3949.378	-20.88
3951.921	-32.88
3954.462	-29.88
3957	-22.88
3959.537	-22.88
3962.072	-29.88
3964.606	-40.88
3967.137	-28.88
3969.667	-30.88
3972.194	-25.88
3974.72	-31.88
3977.244	-53.88
3979.766	-36.88
3982.286	-34.88
3984.805	-21.88
3987.321	-17.88
3989.836	-19.88
3992.349	-31.88
3994.86	-23.88
3997.369	-30.88
3999.877	-27.88
4002.382	-29.88
4004.886	-21.88
4007.388	-23.88
4009.888	-13.88
4012.386	-16.88
4014.883	-26.88
4017.377	-25.88
4019.87	-15.88
4022.361	-37.88
4024.85	-27.88
4027.338	-20.88
4029.823	-33.88
4032.307	-24.88
4034.789	-23.88
4037.269	-23.88
4039.747	-37.88
4042.224	-21.88
4044.699	-32.88
4047.172	-27.88
4049.643	-21.88
4052.112	-50.88
4054.58	-23.88
4057.046	-33.88
4059.51	-25.88
4061.972	-22.88
4064.432	-41.88
4066.891	-13.88
4069.348	-23.88
4071.803	-25.88
4074.256	-29.88
4076.708	-20.88
4079.158	-24.88
4081.606	-10.88
4084.052	-22.88
4086.497	-18.88
4088.939	-23.88
4091.38	-28.88
4093.819	-17.88
4096.257	0.12
4098.693	-5.88
4101.127	-7.88
4103.559	1.12
4105.989	149.12
4108.418	153.12
4110.845	143.12
4113.27	153.12
4115.694	160.12
4118.115	155.12
4120.535	-22.88
4122.954	-19.88
4125.37	-11.88
4127.785	-21.88
4130.198	-15.88
4132.609	-15.88
4135.019	9.12
4137.427	3.12
4139.833	6.12
4142.237	-5.88
