Data from 2018-3-6_conc=6_n=2_RamanShift_03.txt Node
Date: Tue Mar 06 14:57:48 GMT+02:00 2018
User: LAB3
Spectrometer: QEPB0276
Trigger mode: 0
Integration Time (sec): 3.000000E1
Scans to average: 1
Electric dark correction enabled: true
Nonlinearity correction enabled: false
Boxcar width: 0
XAxis mode: Raman Shifts
Number of Pixels in Spectrum: 1044
>>>>>Begin Spectral Data<<<<<
160.701	42.88
166.742	57.88
172.777	85.88
178.805	165.88
184.826	396.88
190.841	801.88
196.849	1259.88
202.85	1613.88
208.845	1719.88
214.833	1693.88
220.815	1670.88
226.789	1630.88
232.758	1628.88
238.719	1624.88
244.674	1599.88
250.623	1570.88
256.565	1556.88
262.5	1527.88
268.429	1505.88
274.351	1489.88
280.267	1477.88
286.176	1474.88
292.079	1488.88
297.975	1477.88
303.865	1468.88
309.748	1471.88
315.625	1462.88
321.495	1455.88
327.359	1446.88
333.217	1444.88
339.068	1444.88
344.912	1469.88
350.751	1446.88
356.583	1443.88
362.408	1460.88
368.227	1480.88
374.04	1465.88
379.847	1467.88
385.647	1484.88
391.44	1453.88
397.228	1496.88
403.009	1499.88
408.784	1477.88
414.553	1493.88
420.315	1503.88
426.071	1490.88
431.821	1504.88
437.565	1513.88
443.302	1482.88
449.033	1459.88
454.758	1481.88
460.477	1463.88
466.189	1444.88
471.896	1445.88
477.596	1430.88
483.29	1394.88
488.978	1419.88
494.66	1397.88
500.335	1367.88
506.005	1293.88
511.668	1241.88
517.325	1183.88
522.977	1124.88
528.622	1092.88
534.261	1078.88
539.894	1044.88
545.521	1030.88
551.141	1009.88
556.756	996.88
562.365	995.88
567.968	987.88
573.565	976.88
579.155	984.88
584.74	973.88
590.319	983.88
595.892	976.88
601.459	973.88
607.02	958.88
612.575	961.88
618.124	945.88
623.667	919.88
629.204	924.88
634.735	902.88
640.261	896.88
645.781	865.88
651.294	864.88
656.802	895.88
662.304	883.88
667.8	882.88
673.29	874.88
678.775	876.88
684.254	870.88
689.726	853.88
695.193	867.88
700.655	856.88
706.11	843.88
711.56	855.88
717.004	838.88
722.442	824.88
727.874	837.88
733.301	838.88
738.722	812.88
744.137	827.88
749.547	820.88
754.951	807.88
760.349	816.88
765.741	819.88
771.128	826.88
776.509	822.88
781.885	859.88
787.254	868.88
792.618	861.88
797.977	862.88
803.33	863.88
808.677	841.88
814.019	834.88
819.355	825.88
824.686	812.88
830.011	817.88
835.33	841.88
840.644	831.88
845.952	787.88
851.255	806.88
856.552	794.88
861.844	795.88
867.13	774.88
872.41	772.88
877.686	776.88
882.955	755.88
888.219	756.88
893.478	725.88
898.731	731.88
903.979	723.88
909.221	714.88
914.458	711.88
919.69	712.88
924.916	705.88
930.136	705.88
935.351	708.88
940.561	728.88
945.766	708.88
950.965	720.88
956.158	697.88
961.347	694.88
966.529	692.88
971.707	682.88
976.879	681.88
982.046	665.88
987.208	648.88
992.364	664.88
997.515	655.88
1002.66	662.88
1007.801	652.88
1012.936	668.88
1018.066	656.88
1023.19	678.88
1028.309	680.88
1033.423	683.88
1038.532	691.88
1043.636	689.88
1048.734	676.88
1053.827	655.88
1058.915	654.88
1063.998	655.88
1069.075	653.88
1074.147	663.88
1079.214	638.88
1084.276	658.88
1089.333	649.88
1094.385	659.88
1099.431	655.88
1104.472	647.88
1109.509	642.88
1114.54	627.88
1119.565	608.88
1124.586	628.88
1129.602	604.88
1134.613	591.88
1139.618	587.88
1144.619	595.88
1149.614	600.88
1154.604	598.88
1159.589	584.88
1164.57	614.88
1169.545	617.88
1174.515	609.88
1179.48	607.88
1184.44	602.88
1189.395	606.88
1194.345	584.88
1199.29	590.88
1204.23	585.88
1209.165	582.88
1214.095	587.88
1219.021	580.88
1223.941	583.88
1228.856	596.88
1233.766	611.88
1238.672	599.88
1243.572	597.88
1248.467	605.88
1253.358	585.88
1258.244	576.88
1263.124	578.88
1268	565.88
1272.871	541.88
1277.737	552.88
1282.599	538.88
1287.455	536.88
1292.306	539.88
1297.153	516.88
1301.995	538.88
1306.832	533.88
1311.664	545.88
1316.491	537.88
1321.314	533.88
1326.132	532.88
1330.945	536.88
1335.753	515.88
1340.556	506.88
1345.354	494.88
1350.148	493.88
1354.937	495.88
1359.722	471.88
1364.501	479.88
1369.276	489.88
1374.046	485.88
1378.811	476.88
1383.572	484.88
1388.327	483.88
1393.079	468.88
1397.825	461.88
1402.567	467.88
1407.304	457.88
1412.036	447.88
1416.764	461.88
1421.487	435.88
1426.205	445.88
1430.919	455.88
1435.628	450.88
1440.333	445.88
1445.032	464.88
1449.727	471.88
1454.418	468.88
1459.104	469.88
1463.785	447.88
1468.462	457.88
1473.134	451.88
1477.802	441.88
1482.465	407.88
1487.123	430.88
1491.777	411.88
1496.426	403.88
1501.071	432.88
1505.711	410.88
1510.347	432.88
1514.978	427.88
1519.604	413.88
1524.226	431.88
1528.844	410.88
1533.457	428.88
1538.065	424.88
1542.669	417.88
1547.269	426.88
1551.864	423.88
1556.454	413.88
1561.041	404.88
1565.622	411.88
1570.199	412.88
1574.772	414.88
1579.34	418.88
1583.904	426.88
1588.464	437.88
1593.019	434.88
1597.569	420.88
1602.115	421.88
1606.657	420.88
1611.195	436.88
1615.728	432.88
1620.256	419.88
1624.78	400.88
1629.3	407.88
1633.816	427.88
1638.327	409.88
1642.834	424.88
1647.336	424.88
1651.834	434.88
1656.328	420.88
1660.817	420.88
1665.302	407.88
1669.783	393.88
1674.259	409.88
1678.732	394.88
1683.199	379.88
1687.663	357.88
1692.122	370.88
1696.577	364.88
1701.028	352.88
1705.474	339.88
1709.917	326.88
1714.355	322.88
1718.788	323.88
1723.218	321.88
1727.643	314.88
1732.064	316.88
1736.481	295.88
1740.893	305.88
1745.301	299.88
1749.705	272.88
1754.105	292.88
1758.501	280.88
1762.893	287.88
1767.28	257.88
1771.663	268.88
1776.042	259.88
1780.417	256.88
1784.787	263.88
1789.154	270.88
1793.516	266.88
1797.874	256.88
1802.228	242.88
1806.578	247.88
1810.924	260.88
1815.266	146.88
1819.603	257.88
1823.937	236.88
1828.266	247.88
1832.591	246.88
1836.913	244.88
1841.23	232.88
1845.543	232.88
1849.852	247.88
1854.156	231.88
1858.457	235.88
1862.754	229.88
1867.047	236.88
1871.335	245.88
1875.62	245.88
1879.9	245.88
1884.177	232.88
1888.449	236.88
1892.718	240.88
1896.982	241.88
1901.243	225.88
1905.499	221.88
1909.752	218.88
1914	199.88
1918.245	233.88
1922.485	236.88
1926.722	220.88
1930.954	213.88
1935.183	229.88
1939.408	231.88
1943.628	225.88
1947.845	219.88
1952.058	216.88
1956.267	210.88
1960.472	222.88
1964.673	211.88
1968.87	206.88
1973.063	205.88
1977.252	198.88
1981.438	190.88
1985.619	191.88
1989.797	183.88
1993.971	191.88
1998.14	203.88
2002.306	201.88
2006.469	202.88
2010.627	185.88
2014.781	193.88
2018.932	189.88
2023.078	202.88
2027.221	194.88
2031.36	181.88
2035.495	190.88
2039.627	183.88
2043.754	192.88
2047.878	180.88
2051.998	176.88
2056.114	171.88
2060.226	181.88
2064.334	190.88
2068.439	187.88
2072.54	185.88
2076.637	169.88
2080.73	174.88
2084.82	172.88
2088.906	172.88
2092.988	168.88
2097.066	173.88
2101.14	179.88
2105.211	180.88
2109.278	160.88
2113.342	164.88
2117.401	158.88
2121.457	151.88
2125.509	155.88
2129.558	168.88
2133.602	160.88
2137.643	169.88
2141.681	155.88
2145.714	160.88
2149.744	168.88
2153.77	160.88
2157.793	145.88
2161.812	127.88
2165.827	130.88
2169.838	158.88
2173.846	136.88
2177.851	136.88
2181.851	147.88
2185.848	138.88
2189.841	139.88
2193.831	133.88
2197.817	131.88
2201.799	137.88
2205.778	123.88
2209.753	126.88
2213.725	126.88
2217.693	126.88
2221.657	120.88
2225.618	131.88
2229.575	124.88
2233.529	134.88
2237.479	131.88
2241.425	116.88
2245.368	107.88
2249.307	123.88
2253.243	115.88
2257.175	124.88
2261.104	108.88
2265.029	119.88
2268.95	110.88
2272.868	107.88
2276.783	105.88
2280.694	114.88
2284.601	113.88
2288.505	109.88
2292.405	110.88
2296.302	94.88
2300.195	102.88
2304.085	77.88
2307.971	100.88
2311.854	83.88
2315.734	96.88
2319.609	95.88
2323.482	75.88
2327.351	80.88
2331.216	85.88
2335.078	94.88
2338.937	91.88
2342.792	77.88
2346.643	84.88
2350.492	95.88
2354.336	78.88
2358.178	88.88
2362.015	88.88
2365.85	73.88
2369.681	85.88
2373.508	85.88
2377.333	87.88
2381.153	86.88
2384.971	89.88
2388.785	85.88
2392.595	75.88
2396.402	71.88
2400.206	49.88
2404.007	69.88
2407.804	76.88
2411.597	77.88
2415.388	74.88
2419.174	72.88
2422.958	77.88
2426.738	73.88
2430.515	85.88
2434.289	73.88
2438.059	74.88
2441.825	65.88
2445.589	78.88
2449.349	56.88
2453.106	79.88
2456.859	73.88
2460.61	77.88
2464.356	56.88
2468.1	54.88
2471.84	53.88
2475.577	59.88
2479.311	47.88
2483.041	63.88
2486.768	70.88
2490.492	72.88
2494.213	59.88
2497.93	47.88
2501.644	50.88
2505.355	60.88
2509.062	55.88
2512.766	54.88
2516.467	53.88
2520.165	54.88
2523.859	46.88
2527.551	74.88
2531.239	51.88
2534.923	58.88
2538.605	54.88
2542.283	54.88
2545.958	50.88
2549.63	61.88
2553.299	62.88
2556.964	40.88
2560.626	45.88
2564.285	51.88
2567.941	39.88
2571.594	35.88
2575.243	49.88
2578.89	45.88
2582.533	48.88
2586.173	46.88
2589.809	47.88
2593.443	22.88
2597.073	48.88
2600.701	45.88
2604.325	45.88
2607.946	32.88
2611.564	46.88
2615.178	40.88
2618.79	47.88
2622.398	34.88
2626.004	43.88
2629.606	38.88
2633.205	26.88
2636.801	45.88
2640.394	38.88
2643.983	37.88
2647.57	37.88
2651.153	36.88
2654.734	47.88
2658.311	12.88
2661.885	26.88
2665.456	33.88
2669.025	37.88
2672.589	28.88
2676.151	39.88
2679.71	44.88
2683.266	36.88
2686.819	25.88
2690.368	37.88
2693.915	39.88
2697.458	36.88
2700.999	40.88
2704.536	39.88
2708.071	31.88
2711.602	32.88
2715.13	26.88
2718.656	11.88
2722.178	29.88
2725.697	12.88
2729.214	21.88
2732.727	26.88
2736.237	9.88
2739.744	13.88
2743.249	18.88
2746.75	18.88
2750.248	18.88
2753.743	19.88
2757.236	22.88
2760.725	25.88
2764.211	-3.12
2767.695	28.88
2771.175	22.88
2774.652	28.88
2778.127	20.88
2781.598	16.88
2785.067	18.88
2788.532	10.88
2791.995	22.88
2795.455	18.88
2798.911	28.88
2802.365	15.88
2805.816	23.88
2809.264	27.88
2812.709	15.88
2816.151	25.88
2819.59	5.88
2823.026	15.88
2826.46	17.88
2829.89	24.88
2833.318	-4.12
2836.742	17.88
2840.164	22.88
2843.583	10.88
2846.999	15.88
2850.412	20.88
2853.822	15.88
2857.229	34.88
2860.634	23.88
2864.035	8.88
2867.434	23.88
2870.83	22.88
2874.223	17.88
2877.613	27.88
2881	10.88
2884.385	16.88
2887.766	18.88
2891.145	21.88
2894.521	22.88
2897.894	13.88
2901.264	27.88
2904.631	23.88
2907.996	23.88
2911.358	38.88
2914.717	25.88
2918.073	24.88
2921.426	23.88
2924.777	7.88
2928.124	18.88
2931.469	36.88
2934.811	16.88
2938.15	40.88
2941.487	19.88
2944.821	35.88
2948.152	29.88
2951.48	34.88
2954.805	19.88
2958.128	36.88
2961.447	22.88
2964.765	44.88
2968.079	31.88
2971.39	33.88
2974.699	36.88
2978.005	41.88
2981.308	33.88
2984.609	27.88
2987.907	37.88
2991.202	43.88
2994.494	30.88
2997.784	44.88
3001.07	35.88
3004.355	37.88
3007.636	39.88
3010.915	41.88
3014.191	36.88
3017.464	38.88
3020.734	39.88
3024.002	41.88
3027.267	37.88
3030.53	43.88
3033.789	36.88
3037.046	45.88
3040.301	37.88
3043.552	40.88
3046.801	49.88
3050.048	52.88
3053.291	65.88
3056.532	51.88
3059.771	38.88
3063.006	64.88
3066.239	54.88
3069.469	61.88
3072.697	62.88
3075.922	55.88
3079.144	55.88
3082.364	82.88
3085.581	57.88
3088.795	84.88
3092.007	73.88
3095.216	78.88
3098.423	69.88
3101.627	59.88
3104.828	85.88
3108.026	75.88
3111.222	92.88
3114.416	97.88
3117.607	88.88
3120.795	85.88
3123.98	95.88
3127.163	81.88
3130.344	88.88
3133.521	87.88
3136.696	110.88
3139.869	103.88
3143.039	90.88
3146.206	112.88
3149.371	116.88
3152.533	108.88
3155.693	95.88
3158.85	109.88
3162.005	118.88
3165.157	113.88
3168.306	109.88
3171.453	128.88
3174.597	112.88
3177.739	107.88
3180.878	115.88
3184.014	116.88
3187.149	116.88
3190.28	119.88
3193.409	120.88
3196.536	122.88
3199.659	126.88
3202.781	127.88
3205.9	100.88
3209.016	114.88
3212.13	116.88
3215.241	113.88
3218.35	116.88
3221.456	105.88
3224.56	101.88
3227.661	112.88
3230.76	105.88
3233.856	104.88
3236.95	107.88
3240.041	96.88
3243.13	114.88
3246.216	98.88
3249.3	109.88
3252.382	109.88
3255.46	102.88
3258.537	62.88
3261.611	91.88
3264.682	101.88
3267.751	105.88
3270.818	93.88
3273.882	109.88
3276.943	97.88
3280.002	111.88
3283.059	91.88
3286.113	97.88
3289.165	94.88
3292.214	85.88
3295.261	108.88
3298.306	75.88
3301.348	94.88
3304.387	78.88
3307.425	91.88
3310.459	86.88
3313.492	95.88
3316.521	82.88
3319.549	94.88
3322.574	88.88
3325.597	85.88
3328.617	73.88
3331.635	77.88
3334.65	60.88
3337.663	77.88
3340.674	76.88
3343.682	79.88
3346.688	87.88
3349.691	74.88
3352.692	79.88
3355.691	90.88
3358.687	74.88
3361.681	80.88
3364.673	70.88
3367.662	80.88
3370.649	84.88
3373.633	65.88
3376.615	74.88
3379.595	55.88
3382.572	64.88
3385.547	58.88
3388.52	57.88
3391.49	62.88
3394.458	57.88
3397.424	63.88
3400.387	45.88
3403.348	59.88
3406.307	56.88
3409.263	54.88
3412.217	68.88
3415.168	53.88
3418.118	62.88
3421.065	49.88
3424.009	64.88
3426.951	53.88
3429.891	57.88
3432.829	59.88
3435.764	51.88
3438.697	43.88
3441.628	61.88
3444.557	40.88
3447.483	37.88
3450.407	50.88
3453.328	35.88
3456.247	36.88
3459.164	23.88
3462.079	45.88
3464.991	40.88
3467.902	31.88
3470.809	34.88
3473.715	42.88
3476.618	21.88
3479.519	25.88
3482.418	1.88
3485.315	9.88
3488.209	14.88
3491.101	23.88
3493.99	0.88
3496.878	8.88
3499.763	17.88
3502.646	11.88
3505.527	1.88
3508.405	10.88
3511.281	-3.12
3514.155	8.88
3517.027	4.88
3519.897	-0.12
3522.764	9.88
3525.629	-17.12
3528.492	3.88
3531.352	2.88
3534.211	-1.12
3537.067	-9.12
3539.921	-1.12
3542.773	-0.12
3545.622	-18.12
3548.469	-20.12
3551.315	-16.12
3554.157	-7.12
3556.998	-16.12
3559.837	-11.12
3562.673	-11.12
3565.507	-20.12
3568.339	-21.12
3571.169	-15.12
3573.996	-16.12
3576.822	-31.12
3579.645	-23.12
3582.466	-24.12
3585.285	-19.12
3588.101	-14.12
3590.916	-26.12
3593.728	-17.12
3596.538	-22.12
3599.346	-16.12
3602.152	-27.12
3604.956	-18.12
3607.757	-17.12
3610.556	-32.12
3613.354	-16.12
3616.149	-19.12
3618.942	-16.12
3621.732	-13.12
3624.521	-22.12
3627.307	-30.12
3630.092	-31.12
3632.874	-13.12
3635.654	-22.12
3638.432	-26.12
3641.208	-27.12
3643.982	-25.12
3646.753	-20.12
3649.523	-53.12
3652.29	-29.12
3655.055	-24.12
3657.818	-28.12
3660.579	-29.12
3663.338	-39.12
3666.095	-36.12
3668.849	-56.12
3671.602	-24.12
3674.352	-41.12
3677.101	-21.12
3679.847	-25.12
3682.591	-40.12
3685.333	-41.12
3688.073	-33.12
3690.811	-43.12
3693.547	-47.12
3696.281	-45.12
3699.013	-28.12
3701.742	-36.12
3704.47	-38.12
3707.195	-24.12
3709.919	-30.12
3712.64	-28.12
3715.359	-44.12
3718.076	-21.12
3720.792	-32.12
3723.505	-29.12
3726.216	-24.12
3728.925	-34.12
3731.632	-39.12
3734.336	-36.12
3737.039	-31.12
3739.74	-28.12
3742.439	-55.12
3745.136	-25.12
3747.83	-29.12
3750.523	-32.12
3753.213	-85.12
3755.902	-34.12
3758.589	-47.12
3761.273	-40.12
3763.956	-27.12
3766.636	-48.12
3769.315	-24.12
3771.991	-32.12
3774.665	-41.12
3777.338	-36.12
3780.008	-37.12
3782.677	-40.12
3785.343	-50.12
3788.007	-54.12
3790.67	-26.12
3793.33	-46.12
3795.989	-33.12
3798.645	-30.12
3801.299	-45.12
3803.952	-40.12
3806.602	-38.12
3809.251	-28.12
3811.897	-36.12
3814.542	-37.12
3817.184	-42.12
3819.825	-36.12
3822.463	-45.12
3825.1	-37.12
3827.735	-32.12
3830.367	-48.12
3832.998	-19.12
3835.627	-40.12
3838.253	-23.12
3840.878	-37.12
3843.501	-18.12
3846.122	-34.12
3848.741	-29.12
3851.358	-26.12
3853.973	-47.12
3856.586	-31.12
3859.197	-37.12
3861.806	-37.12
3864.414	-49.12
3867.019	-36.12
3869.622	-25.12
3872.224	-26.12
3874.823	-19.12
3877.421	-2.12
3880.016	2.88
3882.61	34.88
3885.202	37.88
3887.792	25.88
3890.38	5.88
3892.966	-21.12
3895.55	-40.12
3898.132	-27.12
3900.713	-23.12
3903.291	-32.12
3905.868	-37.12
3908.442	-35.12
3911.015	-35.12
3913.586	-35.12
3916.155	-42.12
3918.722	-44.12
3921.287	-39.12
3923.85	-53.12
3926.411	-41.12
3928.971	-42.12
3931.528	-33.12
3934.084	-35.12
3936.638	-48.12
3939.19	-35.12
3941.74	-33.12
3944.288	-41.12
3946.834	-37.12
3949.378	-29.12
3951.921	-42.12
3954.462	-36.12
3957	-31.12
3959.537	-22.12
3962.072	-34.12
3964.606	-50.12
3967.137	-38.12
3969.667	-37.12
3972.194	-31.12
3974.72	-36.12
3977.244	-52.12
3979.766	-45.12
3982.286	-42.12
3984.805	-26.12
3987.321	-22.12
3989.836	-31.12
3992.349	-38.12
3994.86	-34.12
3997.369	-43.12
3999.877	-39.12
4002.382	-37.12
4004.886	-34.12
4007.388	-33.12
4009.888	-28.12
4012.386	-30.12
4014.883	-30.12
4017.377	-36.12
4019.87	-36.12
4022.361	-44.12
4024.85	-34.12
4027.338	-30.12
4029.823	-50.12
4032.307	-37.12
4034.789	-38.12
4037.269	-31.12
4039.747	-47.12
4042.224	-24.12
4044.699	-35.12
4047.172	-32.12
4049.643	-25.12
4052.112	-53.12
4054.58	-32.12
4057.046	-44.12
4059.51	-35.12
4061.972	-35.12
4064.432	-50.12
4066.891	-23.12
4069.348	-32.12
4071.803	-27.12
4074.256	-40.12
4076.708	-32.12
4079.158	-35.12
4081.606	-27.12
4084.052	-34.12
4086.497	-29.12
4088.939	-37.12
4091.38	-41.12
4093.819	-35.12
4096.257	0.88
4098.693	-6.12
4101.127	-7.12
4103.559	-0.12
4105.989	49.88
4108.418	51.88
4110.845	35.88
4113.27	44.88
4115.694	51.88
4118.115	35.88
4120.535	-35.12
4122.954	-31.12
4125.37	-25.12
4127.785	-36.12
4130.198	-24.12
4132.609	-29.12
4135.019	10.88
4137.427	0.88
4139.833	4.88
4142.237	-4.12
