Data from 2018-3-6_conc=3_n=7_RamanShift_04.txt Node
Date: Tue Mar 06 13:34:49 GMT+02:00 2018
User: LAB3
Spectrometer: QEPB0276
Trigger mode: 0
Integration Time (sec): 3.000000E1
Scans to average: 1
Electric dark correction enabled: true
Nonlinearity correction enabled: false
Boxcar width: 0
XAxis mode: Raman Shifts
Number of Pixels in Spectrum: 1044
>>>>>Begin Spectral Data<<<<<
160.701	120.5
166.742	158.5
172.777	224.5
178.805	449.5
184.826	1011.5
190.841	2043.5
196.849	3211.5
202.85	4121.5
208.845	4428.5
214.833	4422.5
220.815	4375.5
226.789	4383.5
232.758	4409.5
238.719	4407.5
244.674	4393.5
250.623	4370.5
256.565	4311.5
262.5	4300.5
268.429	4278.5
274.351	4221.5
280.267	4248.5
286.176	4249.5
292.079	4256.5
297.975	4247.5
303.865	4244.5
309.748	4277.5
315.625	4261.5
321.495	4269.5
327.359	4269.5
333.217	4265.5
339.068	4298.5
344.912	4306.5
350.751	4333.5
356.583	4355.5
362.408	4360.5
368.227	4368.5
374.04	4387.5
379.847	4398.5
385.647	4458.5
391.44	4464.5
397.228	4503.5
403.009	4518.5
408.784	4547.5
414.553	4540.5
420.315	4600.5
426.071	4532.5
431.821	4569.5
437.565	4565.5
443.302	4554.5
449.033	4529.5
454.758	4528.5
460.477	4489.5
466.189	4425.5
471.896	4423.5
477.596	4360.5
483.29	4342.5
488.978	4353.5
494.66	4280.5
500.335	4186.5
506.005	4033.5
511.668	3820.5
517.325	3636.5
522.977	3485.5
528.622	3380.5
534.261	3318.5
539.894	3245.5
545.521	3193.5
551.141	3139.5
556.756	3122.5
562.365	3086.5
567.968	3047.5
573.565	3031.5
579.155	3033.5
584.74	2998.5
590.319	3026.5
595.892	2994.5
601.459	3011.5
607.02	2992.5
612.575	2967.5
618.124	2962.5
623.667	2892.5
629.204	2858.5
634.735	2837.5
640.261	2792.5
645.781	2733.5
651.294	2742.5
656.802	2743.5
662.304	2752.5
667.8	2730.5
673.29	2715.5
678.775	2703.5
684.254	2676.5
689.726	2657.5
695.193	2695.5
700.655	2669.5
706.11	2638.5
711.56	2652.5
717.004	2618.5
722.442	2580.5
727.874	2602.5
733.301	2602.5
738.722	2576.5
744.137	2575.5
749.547	2551.5
754.951	2564.5
760.349	2549.5
765.741	2587.5
771.128	2601.5
776.509	2628.5
781.885	2657.5
787.254	2685.5
792.618	2680.5
797.977	2680.5
803.33	2678.5
808.677	2650.5
814.019	2637.5
819.355	2617.5
824.686	2547.5
830.011	2556.5
835.33	2569.5
840.644	2550.5
845.952	2517.5
851.255	2515.5
856.552	2484.5
861.844	2448.5
867.13	2425.5
872.41	2379.5
877.686	2362.5
882.955	2373.5
888.219	2336.5
893.478	2306.5
898.731	2317.5
903.979	2265.5
909.221	2235.5
914.458	2212.5
919.69	2216.5
924.916	2228.5
930.136	2233.5
935.351	2218.5
940.561	2251.5
945.766	2215.5
950.965	2249.5
956.158	2182.5
961.347	2166.5
966.529	2136.5
971.707	2129.5
976.879	2099.5
982.046	2073.5
987.208	2046.5
992.364	2071.5
997.515	2077.5
1002.66	2090.5
1007.801	2101.5
1012.936	2112.5
1018.066	2109.5
1023.19	2116.5
1028.309	2146.5
1033.423	2147.5
1038.532	2146.5
1043.636	2117.5
1048.734	2103.5
1053.827	2090.5
1058.915	2076.5
1063.998	2052.5
1069.075	2034.5
1074.147	2055.5
1079.214	2030.5
1084.276	2041.5
1089.333	2051.5
1094.385	2066.5
1099.431	2034.5
1104.472	2037.5
1109.509	2011.5
1114.54	1981.5
1119.565	1963.5
1124.586	1931.5
1129.602	1914.5
1134.613	1876.5
1139.618	1892.5
1144.619	1896.5
1149.614	1898.5
1154.604	1887.5
1159.589	1906.5
1164.57	1915.5
1169.545	1919.5
1174.515	1908.5
1179.48	1909.5
1184.44	1894.5
1189.395	1886.5
1194.345	1872.5
1199.29	1860.5
1204.23	1841.5
1209.165	1843.5
1214.095	1870.5
1219.021	1863.5
1223.941	1864.5
1228.856	1872.5
1233.766	1878.5
1238.672	1886.5
1243.572	1883.5
1248.467	1856.5
1253.358	1845.5
1258.244	1801.5
1263.124	1798.5
1268	1754.5
1272.871	1716.5
1277.737	1729.5
1282.599	1691.5
1287.455	1687.5
1292.306	1712.5
1297.153	1695.5
1301.995	1711.5
1306.832	1716.5
1311.664	1723.5
1316.491	1713.5
1321.314	1712.5
1326.132	1691.5
1330.945	1674.5
1335.753	1651.5
1340.556	1619.5
1345.354	1587.5
1350.148	1565.5
1354.937	1540.5
1359.722	1534.5
1364.501	1519.5
1369.276	1530.5
1374.046	1535.5
1378.811	1523.5
1383.572	1504.5
1388.327	1513.5
1393.079	1491.5
1397.825	1490.5
1402.567	1474.5
1407.304	1458.5
1412.036	1465.5
1416.764	1466.5
1421.487	1445.5
1426.205	1436.5
1430.919	1453.5
1435.628	1452.5
1440.333	1438.5
1445.032	1469.5
1449.727	1479.5
1454.418	1494.5
1459.104	1490.5
1463.785	1452.5
1468.462	1449.5
1473.134	1424.5
1477.802	1401.5
1482.465	1358.5
1487.123	1365.5
1491.777	1328.5
1496.426	1322.5
1501.071	1360.5
1505.711	1336.5
1510.347	1362.5
1514.978	1369.5
1519.604	1353.5
1524.226	1369.5
1528.844	1367.5
1533.457	1357.5
1538.065	1343.5
1542.669	1341.5
1547.269	1323.5
1551.864	1318.5
1556.454	1306.5
1561.041	1319.5
1565.622	1308.5
1570.199	1325.5
1574.772	1341.5
1579.34	1333.5
1583.904	1362.5
1588.464	1379.5
1593.019	1372.5
1597.569	1356.5
1602.115	1354.5
1606.657	1344.5
1611.195	1354.5
1615.728	1364.5
1620.256	1337.5
1624.78	1316.5
1629.3	1329.5
1633.816	1337.5
1638.327	1331.5
1642.834	1350.5
1647.336	1350.5
1651.834	1379.5
1656.328	1363.5
1660.817	1359.5
1665.302	1345.5
1669.783	1317.5
1674.259	1299.5
1678.732	1262.5
1683.199	1258.5
1687.663	1198.5
1692.122	1188.5
1696.577	1157.5
1701.028	1130.5
1705.474	1109.5
1709.917	1083.5
1714.355	1093.5
1718.788	1064.5
1723.218	1052.5
1727.643	1036.5
1732.064	1034.5
1736.481	1015.5
1740.893	1001.5
1745.301	978.5
1749.705	945.5
1754.105	939.5
1758.501	920.5
1762.893	915.5
1767.28	866.5
1771.663	875.5
1776.042	854.5
1780.417	844.5
1784.787	865.5
1789.154	866.5
1793.516	868.5
1797.874	852.5
1802.228	842.5
1806.578	842.5
1810.924	843.5
1815.266	727.5
1819.603	840.5
1823.937	819.5
1828.266	808.5
1832.591	821.5
1836.913	799.5
1841.23	798.5
1845.543	789.5
1849.852	785.5
1854.156	779.5
1858.457	799.5
1862.754	785.5
1867.047	786.5
1871.335	797.5
1875.62	795.5
1879.9	785.5
1884.177	771.5
1888.449	775.5
1892.718	779.5
1896.982	784.5
1901.243	753.5
1905.499	748.5
1909.752	753.5
1914	732.5
1918.245	753.5
1922.485	765.5
1926.722	748.5
1930.954	747.5
1935.183	759.5
1939.408	752.5
1943.628	761.5
1947.845	753.5
1952.058	738.5
1956.267	731.5
1960.472	730.5
1964.673	722.5
1968.87	699.5
1973.063	686.5
1977.252	691.5
1981.438	678.5
1985.619	678.5
1989.797	654.5
1993.971	669.5
1998.14	664.5
2002.306	667.5
2006.469	675.5
2010.627	651.5
2014.781	648.5
2018.932	644.5
2023.078	658.5
2027.221	642.5
2031.36	628.5
2035.495	617.5
2039.627	613.5
2043.754	607.5
2047.878	599.5
2051.998	600.5
2056.114	599.5
2060.226	602.5
2064.334	613.5
2068.439	609.5
2072.54	615.5
2076.637	604.5
2080.73	609.5
2084.82	599.5
2088.906	597.5
2092.988	607.5
2097.066	604.5
2101.14	608.5
2105.211	599.5
2109.278	581.5
2113.342	574.5
2117.401	571.5
2121.457	556.5
2125.509	554.5
2129.558	563.5
2133.602	563.5
2137.643	545.5
2141.681	548.5
2145.714	549.5
2149.744	545.5
2153.77	546.5
2157.793	519.5
2161.812	495.5
2165.827	499.5
2169.838	528.5
2173.846	505.5
2177.851	490.5
2181.851	485.5
2185.848	479.5
2189.841	487.5
2193.831	470.5
2197.817	474.5
2201.799	471.5
2205.778	453.5
2209.753	455.5
2213.725	449.5
2217.693	464.5
2221.657	448.5
2225.618	459.5
2229.575	452.5
2233.529	450.5
2237.479	447.5
2241.425	433.5
2245.368	418.5
2249.307	423.5
2253.243	414.5
2257.175	408.5
2261.104	404.5
2265.029	411.5
2268.95	393.5
2272.868	383.5
2276.783	377.5
2280.694	383.5
2284.601	382.5
2288.505	369.5
2292.405	377.5
2296.302	354.5
2300.195	364.5
2304.085	334.5
2307.971	348.5
2311.854	322.5
2315.734	335.5
2319.609	340.5
2323.482	316.5
2327.351	330.5
2331.216	336.5
2335.078	331.5
2338.937	318.5
2342.792	325.5
2346.643	310.5
2350.492	329.5
2354.336	323.5
2358.178	327.5
2362.015	324.5
2365.85	318.5
2369.681	320.5
2373.508	316.5
2377.333	322.5
2381.153	315.5
2384.971	314.5
2388.785	323.5
2392.595	308.5
2396.402	303.5
2400.206	286.5
2404.007	298.5
2407.804	291.5
2411.597	311.5
2415.388	293.5
2419.174	299.5
2422.958	295.5
2426.738	295.5
2430.515	303.5
2434.289	276.5
2438.059	281.5
2441.825	274.5
2445.589	295.5
2449.349	268.5
2453.106	281.5
2456.859	274.5
2460.61	281.5
2464.356	263.5
2468.1	260.5
2471.84	257.5
2475.577	256.5
2479.311	252.5
2483.041	260.5
2486.768	273.5
2490.492	269.5
2494.213	257.5
2497.93	237.5
2501.644	236.5
2505.355	251.5
2509.062	246.5
2512.766	249.5
2516.467	238.5
2520.165	242.5
2523.859	236.5
2527.551	262.5
2531.239	234.5
2534.923	239.5
2538.605	232.5
2542.283	239.5
2545.958	232.5
2549.63	245.5
2553.299	240.5
2556.964	227.5
2560.626	228.5
2564.285	234.5
2567.941	216.5
2571.594	210.5
2575.243	230.5
2578.89	220.5
2582.533	218.5
2586.173	214.5
2589.809	217.5
2593.443	189.5
2597.073	208.5
2600.701	208.5
2604.325	209.5
2607.946	190.5
2611.564	216.5
2615.178	211.5
2618.79	212.5
2622.398	197.5
2626.004	207.5
2629.606	199.5
2633.205	192.5
2636.801	195.5
2640.394	194.5
2643.983	188.5
2647.57	181.5
2651.153	181.5
2654.734	191.5
2658.311	160.5
2661.885	174.5
2665.456	172.5
2669.025	174.5
2672.589	166.5
2676.151	185.5
2679.71	184.5
2683.266	165.5
2686.819	164.5
2690.368	166.5
2693.915	169.5
2697.458	166.5
2700.999	170.5
2704.536	159.5
2708.071	163.5
2711.602	161.5
2715.13	147.5
2718.656	138.5
2722.178	157.5
2725.697	133.5
2729.214	148.5
2732.727	144.5
2736.237	129.5
2739.744	144.5
2743.249	133.5
2746.75	145.5
2750.248	139.5
2753.743	146.5
2757.236	146.5
2760.725	142.5
2764.211	111.5
2767.695	142.5
2771.175	137.5
2774.652	144.5
2778.127	133.5
2781.598	135.5
2785.067	142.5
2788.532	134.5
2791.995	138.5
2795.455	124.5
2798.911	135.5
2802.365	132.5
2805.816	139.5
2809.264	145.5
2812.709	134.5
2816.151	139.5
2819.59	125.5
2823.026	133.5
2826.46	133.5
2829.89	146.5
2833.318	116.5
2836.742	137.5
2840.164	142.5
2843.583	139.5
2846.999	135.5
2850.412	151.5
2853.822	135.5
2857.229	158.5
2860.634	155.5
2864.035	135.5
2867.434	151.5
2870.83	156.5
2874.223	145.5
2877.613	156.5
2881	142.5
2884.385	152.5
2887.766	154.5
2891.145	157.5
2894.521	150.5
2897.894	146.5
2901.264	165.5
2904.631	163.5
2907.996	165.5
2911.358	163.5
2914.717	163.5
2918.073	160.5
2921.426	160.5
2924.777	152.5
2928.124	164.5
2931.469	174.5
2934.811	166.5
2938.15	186.5
2941.487	171.5
2944.821	198.5
2948.152	176.5
2951.48	181.5
2954.805	168.5
2958.128	192.5
2961.447	178.5
2964.765	192.5
2968.079	182.5
2971.39	184.5
2974.699	186.5
2978.005	187.5
2981.308	184.5
2984.609	183.5
2987.907	192.5
2991.202	200.5
2994.494	196.5
2997.784	196.5
3001.07	198.5
3004.355	194.5
3007.636	206.5
3010.915	208.5
3014.191	203.5
3017.464	209.5
3020.734	201.5
3024.002	213.5
3027.267	213.5
3030.53	218.5
3033.789	213.5
3037.046	215.5
3040.301	208.5
3043.552	224.5
3046.801	232.5
3050.048	248.5
3053.291	266.5
3056.532	254.5
3059.771	246.5
3063.006	264.5
3066.239	267.5
3069.469	276.5
3072.697	280.5
3075.922	282.5
3079.144	293.5
3082.364	311.5
3085.581	302.5
3088.795	320.5
3092.007	327.5
3095.216	341.5
3098.423	332.5
3101.627	321.5
3104.828	348.5
3108.026	348.5
3111.222	376.5
3114.416	376.5
3117.607	379.5
3120.795	383.5
3123.98	394.5
3127.163	390.5
3130.344	407.5
3133.521	400.5
3136.696	433.5
3139.869	431.5
3143.039	426.5
3146.206	456.5
3149.371	455.5
3152.533	454.5
3155.693	446.5
3158.85	452.5
3162.005	460.5
3165.157	456.5
3168.306	461.5
3171.453	477.5
3174.597	453.5
3177.739	455.5
3180.878	474.5
3184.014	472.5
3187.149	470.5
3190.28	468.5
3193.409	482.5
3196.536	471.5
3199.659	483.5
3202.781	493.5
3205.9	476.5
3209.016	474.5
3212.13	478.5
3215.241	482.5
3218.35	474.5
3221.456	470.5
3224.56	458.5
3227.661	460.5
3230.76	458.5
3233.856	446.5
3236.95	450.5
3240.041	448.5
3243.13	449.5
3246.216	434.5
3249.3	441.5
3252.382	440.5
3255.46	427.5
3258.537	383.5
3261.611	420.5
3264.682	430.5
3267.751	428.5
3270.818	413.5
3273.882	438.5
3276.943	420.5
3280.002	435.5
3283.059	420.5
3286.113	417.5
3289.165	407.5
3292.214	408.5
3295.261	418.5
3298.306	395.5
3301.348	400.5
3304.387	385.5
3307.425	386.5
3310.459	369.5
3313.492	382.5
3316.521	370.5
3319.549	368.5
3322.574	380.5
3325.597	368.5
3328.617	348.5
3331.635	359.5
3334.65	338.5
3337.663	359.5
3340.674	352.5
3343.682	355.5
3346.688	366.5
3349.691	341.5
3352.692	346.5
3355.691	356.5
3358.687	344.5
3361.681	345.5
3364.673	337.5
3367.662	350.5
3370.649	344.5
3373.633	322.5
3376.615	332.5
3379.595	305.5
3382.572	311.5
3385.547	301.5
3388.52	299.5
3391.49	303.5
3394.458	298.5
3397.424	304.5
3400.387	282.5
3403.348	291.5
3406.307	295.5
3409.263	291.5
3412.217	283.5
3415.168	280.5
3418.118	284.5
3421.065	271.5
3424.009	291.5
3426.951	275.5
3429.891	258.5
3432.829	262.5
3435.764	253.5
3438.697	242.5
3441.628	255.5
3444.557	232.5
3447.483	233.5
3450.407	236.5
3453.328	213.5
3456.247	218.5
3459.164	206.5
3462.079	213.5
3464.991	200.5
3467.902	193.5
3470.809	192.5
3473.715	193.5
3476.618	173.5
3479.519	179.5
3482.418	149.5
3485.315	158.5
3488.209	151.5
3491.101	153.5
3493.99	136.5
3496.878	134.5
3499.763	139.5
3502.646	140.5
3505.527	118.5
3508.405	123.5
3511.281	105.5
3514.155	116.5
3517.027	110.5
3519.897	98.5
3522.764	109.5
3525.629	84.5
3528.492	91.5
3531.352	97.5
3534.211	86.5
3537.067	80.5
3539.921	81.5
3542.773	83.5
3545.622	67.5
3548.469	53.5
3551.315	52.5
3554.157	58.5
3556.998	52.5
3559.837	54.5
3562.673	56.5
3565.507	46.5
3568.339	41.5
3571.169	42.5
3573.996	47.5
3576.822	18.5
3579.645	29.5
3582.466	28.5
3585.285	36.5
3588.101	29.5
3590.916	22.5
3593.728	27.5
3596.538	19.5
3599.346	22.5
3602.152	14.5
3604.956	18.5
3607.757	18.5
3610.556	0.5
3613.354	17.5
3616.149	13.5
3618.942	16.5
3621.732	16.5
3624.521	1.5
3627.307	-8.5
3630.092	0.5
3632.874	18.5
3635.654	-3.5
3638.432	-10.5
3641.208	-4.5
3643.982	-0.5
3646.753	6.5
3649.523	-28.5
3652.29	-8.5
3655.055	-3.5
3657.818	-5.5
3660.579	-10.5
3663.338	-19.5
3666.095	-19.5
3668.849	-35.5
3671.602	-10.5
3674.352	-26.5
3677.101	-4.5
3679.847	-9.5
3682.591	-21.5
3685.333	-35.5
3688.073	-16.5
3690.811	-29.5
3693.547	-28.5
3696.281	-32.5
3699.013	-17.5
3701.742	-23.5
3704.47	-32.5
3707.195	-22.5
3709.919	-20.5
3712.64	-21.5
3715.359	-34.5
3718.076	-14.5
3720.792	-21.5
3723.505	-23.5
3726.216	-14.5
3728.925	-25.5
3731.632	-34.5
3734.336	-27.5
3737.039	-22.5
3739.74	-27.5
3742.439	-52.5
3745.136	-22.5
3747.83	-22.5
3750.523	-19.5
3753.213	-75.5
3755.902	-28.5
3758.589	-41.5
3761.273	-31.5
3763.956	-19.5
3766.636	-40.5
3769.315	-20.5
3771.991	-25.5
3774.665	-34.5
3777.338	-27.5
3780.008	-39.5
3782.677	-27.5
3785.343	-44.5
3788.007	-52.5
3790.67	-25.5
3793.33	-40.5
3795.989	-29.5
3798.645	-26.5
3801.299	-42.5
3803.952	-39.5
3806.602	-27.5
3809.251	-25.5
3811.897	-29.5
3814.542	-34.5
3817.184	-31.5
3819.825	-31.5
3822.463	-42.5
3825.1	-36.5
3827.735	-28.5
3830.367	-38.5
3832.998	-18.5
3835.627	-33.5
3838.253	-25.5
3840.878	-28.5
3843.501	-13.5
3846.122	-26.5
3848.741	-23.5
3851.358	-25.5
3853.973	-39.5
3856.586	-22.5
3859.197	-36.5
3861.806	-28.5
3864.414	-42.5
3867.019	-33.5
3869.622	-15.5
3872.224	-15.5
3874.823	-4.5
3877.421	21.5
3880.016	39.5
3882.61	81.5
3885.202	99.5
3887.792	74.5
3890.38	41.5
3892.966	-5.5
3895.55	-25.5
3898.132	-18.5
3900.713	-18.5
3903.291	-31.5
3905.868	-35.5
3908.442	-30.5
3911.015	-26.5
3913.586	-36.5
3916.155	-33.5
3918.722	-36.5
3921.287	-38.5
3923.85	-42.5
3926.411	-38.5
3928.971	-36.5
3931.528	-26.5
3934.084	-31.5
3936.638	-41.5
3939.19	-27.5
3941.74	-27.5
3944.288	-36.5
3946.834	-32.5
3949.378	-23.5
3951.921	-35.5
3954.462	-37.5
3957	-27.5
3959.537	-18.5
3962.072	-34.5
3964.606	-46.5
3967.137	-33.5
3969.667	-37.5
3972.194	-27.5
3974.72	-36.5
3977.244	-51.5
3979.766	-34.5
3982.286	-37.5
3984.805	-25.5
3987.321	-19.5
3989.836	-30.5
3992.349	-37.5
3994.86	-32.5
3997.369	-38.5
3999.877	-31.5
4002.382	-35.5
4004.886	-23.5
4007.388	-28.5
4009.888	-21.5
4012.386	-23.5
4014.883	-24.5
4017.377	-28.5
4019.87	-26.5
4022.361	-35.5
4024.85	-31.5
4027.338	-29.5
4029.823	-34.5
4032.307	-31.5
4034.789	-32.5
4037.269	-27.5
4039.747	-39.5
4042.224	-19.5
4044.699	-35.5
4047.172	-33.5
4049.643	-23.5
4052.112	-53.5
4054.58	-29.5
4057.046	-43.5
4059.51	-35.5
4061.972	-28.5
4064.432	-45.5
4066.891	-18.5
4069.348	-28.5
4071.803	-29.5
4074.256	-33.5
4076.708	-29.5
4079.158	-29.5
4081.606	-23.5
4084.052	-27.5
4086.497	-24.5
4088.939	-24.5
4091.38	-35.5
4093.819	-20.5
4096.257	-1.5
4098.693	-5.5
4101.127	-6.5
4103.559	0.5
4105.989	120.5
4108.418	129.5
4110.845	103.5
4113.27	111.5
4115.694	117.5
4118.115	106.5
4120.535	-21.5
4122.954	-22.5
4125.37	-22.5
4127.785	-27.5
4130.198	-20.5
4132.609	-23.5
4135.019	10.5
4137.427	1.5
4139.833	4.5
4142.237	-3.5
