Data from 2018-3-6_conc=4_n=4_RamanShift_03.txt Node
Date: Tue Mar 06 14:00:19 GMT+02:00 2018
User: LAB3
Spectrometer: QEPB0276
Trigger mode: 0
Integration Time (sec): 3.000000E1
Scans to average: 1
Electric dark correction enabled: true
Nonlinearity correction enabled: false
Boxcar width: 0
XAxis mode: Raman Shifts
Number of Pixels in Spectrum: 1044
>>>>>Begin Spectral Data<<<<<
160.701	76.25
166.742	106.25
172.777	158.25
178.805	327.25
184.826	768.25
190.841	1534.25
196.849	2408.25
202.85	3067.25
208.845	3283.25
214.833	3279.25
220.815	3245.25
226.789	3234.25
232.758	3228.25
238.719	3249.25
244.674	3211.25
250.623	3166.25
256.565	3136.25
262.5	3103.25
268.429	3062.25
274.351	3060.25
280.267	3063.25
286.176	3050.25
292.079	3046.25
297.975	3058.25
303.865	3038.25
309.748	3042.25
315.625	3017.25
321.495	3033.25
327.359	3035.25
333.217	3033.25
339.068	3040.25
344.912	3076.25
350.751	3048.25
356.583	3056.25
362.408	3073.25
368.227	3078.25
374.04	3070.25
379.847	3093.25
385.647	3124.25
391.44	3107.25
397.228	3132.25
403.009	3169.25
408.784	3148.25
414.553	3195.25
420.315	3195.25
426.071	3168.25
431.821	3178.25
437.565	3191.25
443.302	3147.25
449.033	3159.25
454.758	3162.25
460.477	3098.25
466.189	3098.25
471.896	3049.25
477.596	3040.25
483.29	2988.25
488.978	3012.25
494.66	2983.25
500.335	2922.25
506.005	2833.25
511.668	2681.25
517.325	2583.25
522.977	2474.25
528.622	2395.25
534.261	2355.25
539.894	2315.25
545.521	2288.25
551.141	2252.25
556.756	2220.25
562.365	2222.25
567.968	2213.25
573.565	2183.25
579.155	2178.25
584.74	2150.25
590.319	2156.25
595.892	2158.25
601.459	2157.25
607.02	2145.25
612.575	2131.25
618.124	2113.25
623.667	2068.25
629.204	2032.25
634.735	2032.25
640.261	2010.25
645.781	1961.25
651.294	1983.25
656.802	1983.25
662.304	1972.25
667.8	1967.25
673.29	1966.25
678.775	1945.25
684.254	1930.25
689.726	1933.25
695.193	1944.25
700.655	1905.25
706.11	1907.25
711.56	1890.25
717.004	1888.25
722.442	1855.25
727.874	1861.25
733.301	1853.25
738.722	1838.25
744.137	1861.25
749.547	1864.25
754.951	1850.25
760.349	1843.25
765.741	1857.25
771.128	1863.25
776.509	1880.25
781.885	1909.25
787.254	1919.25
792.618	1929.25
797.977	1920.25
803.33	1908.25
808.677	1886.25
814.019	1897.25
819.355	1865.25
824.686	1848.25
830.011	1826.25
835.33	1840.25
840.644	1853.25
845.952	1811.25
851.255	1804.25
856.552	1777.25
861.844	1778.25
867.13	1755.25
872.41	1742.25
877.686	1727.25
882.955	1730.25
888.219	1704.25
893.478	1671.25
898.731	1661.25
903.979	1641.25
909.221	1622.25
914.458	1625.25
919.69	1613.25
924.916	1617.25
930.136	1624.25
935.351	1610.25
940.561	1622.25
945.766	1622.25
950.965	1590.25
956.158	1592.25
961.347	1573.25
966.529	1548.25
971.707	1555.25
976.879	1531.25
982.046	1522.25
987.208	1490.25
992.364	1497.25
997.515	1495.25
1002.66	1513.25
1007.801	1524.25
1012.936	1535.25
1018.066	1533.25
1023.19	1548.25
1028.309	1551.25
1033.423	1554.25
1038.532	1565.25
1043.636	1542.25
1048.734	1527.25
1053.827	1505.25
1058.915	1488.25
1063.998	1490.25
1069.075	1482.25
1074.147	1483.25
1079.214	1475.25
1084.276	1492.25
1089.333	1481.25
1094.385	1507.25
1099.431	1488.25
1104.472	1482.25
1109.509	1459.25
1114.54	1472.25
1119.565	1417.25
1124.586	1415.25
1129.602	1387.25
1134.613	1359.25
1139.618	1367.25
1144.619	1394.25
1149.614	1447.25
1154.604	1382.25
1159.589	1380.25
1164.57	1401.25
1169.545	1399.25
1174.515	1409.25
1179.48	1384.25
1184.44	1385.25
1189.395	1380.25
1194.345	1346.25
1199.29	1340.25
1204.23	1331.25
1209.165	1321.25
1214.095	1354.25
1219.021	1353.25
1223.941	1359.25
1228.856	1377.25
1233.766	1385.25
1238.672	1376.25
1243.572	1373.25
1248.467	1369.25
1253.358	1341.25
1258.244	1314.25
1263.124	1310.25
1268	1298.25
1272.871	1245.25
1277.737	1250.25
1282.599	1231.25
1287.455	1231.25
1292.306	1237.25
1297.153	1250.25
1301.995	1233.25
1306.832	1265.25
1311.664	1267.25
1316.491	1250.25
1321.314	1249.25
1326.132	1251.25
1330.945	1232.25
1335.753	1192.25
1340.556	1180.25
1345.354	1148.25
1350.148	1161.25
1354.937	1135.25
1359.722	1115.25
1364.501	1114.25
1369.276	1111.25
1374.046	1120.25
1378.811	1103.25
1383.572	1125.25
1388.327	1115.25
1393.079	1102.25
1397.825	1074.25
1402.567	1079.25
1407.304	1068.25
1412.036	1061.25
1416.764	1072.25
1421.487	1049.25
1426.205	1040.25
1430.919	1043.25
1435.628	1055.25
1440.333	1057.25
1445.032	1075.25
1449.727	1080.25
1454.418	1084.25
1459.104	1071.25
1463.785	1061.25
1468.462	1073.25
1473.134	1035.25
1477.802	1012.25
1482.465	980.25
1487.123	983.25
1491.777	959.25
1496.426	956.25
1501.071	981.25
1505.711	986.25
1510.347	981.25
1514.978	988.25
1519.604	982.25
1524.226	997.25
1528.844	977.25
1533.457	990.25
1538.065	990.25
1542.669	969.25
1547.269	977.25
1551.864	969.25
1556.454	948.25
1561.041	943.25
1565.622	964.25
1570.199	958.25
1574.772	974.25
1579.34	985.25
1583.904	979.25
1588.464	999.25
1593.019	1001.25
1597.569	992.25
1602.115	981.25
1606.657	980.25
1611.195	991.25
1615.728	987.25
1620.256	967.25
1624.78	952.25
1629.3	964.25
1633.816	960.25
1638.327	965.25
1642.834	991.25
1647.336	984.25
1651.834	1002.25
1656.328	984.25
1660.817	985.25
1665.302	965.25
1669.783	945.25
1674.259	933.25
1678.732	908.25
1683.199	900.25
1687.663	856.25
1692.122	848.25
1696.577	837.25
1701.028	825.25
1705.474	795.25
1709.917	791.25
1714.355	773.25
1718.788	770.25
1723.218	751.25
1727.643	755.25
1732.064	751.25
1736.481	725.25
1740.893	722.25
1745.301	708.25
1749.705	671.25
1754.105	676.25
1758.501	664.25
1762.893	664.25
1767.28	630.25
1771.663	634.25
1776.042	620.25
1780.417	626.25
1784.787	612.25
1789.154	629.25
1793.516	623.25
1797.874	619.25
1802.228	608.25
1806.578	601.25
1810.924	612.25
1815.266	492.25
1819.603	607.25
1823.937	591.25
1828.266	589.25
1832.591	585.25
1836.913	591.25
1841.23	571.25
1845.543	573.25
1849.852	581.25
1854.156	568.25
1858.457	574.25
1862.754	566.25
1867.047	576.25
1871.335	583.25
1875.62	588.25
1879.9	578.25
1884.177	564.25
1888.449	570.25
1892.718	564.25
1896.982	570.25
1901.243	540.25
1905.499	549.25
1909.752	537.25
1914	520.25
1918.245	550.25
1922.485	547.25
1926.722	545.25
1930.954	534.25
1935.183	541.25
1939.408	534.25
1943.628	541.25
1947.845	529.25
1952.058	530.25
1956.267	520.25
1960.472	524.25
1964.673	520.25
1968.87	495.25
1973.063	504.25
1977.252	498.25
1981.438	491.25
1985.619	484.25
1989.797	464.25
1993.971	483.25
1998.14	486.25
2002.306	478.25
2006.469	489.25
2010.627	477.25
2014.781	466.25
2018.932	470.25
2023.078	480.25
2027.221	461.25
2031.36	451.25
2035.495	453.25
2039.627	454.25
2043.754	440.25
2047.878	443.25
2051.998	439.25
2056.114	437.25
2060.226	437.25
2064.334	439.25
2068.439	447.25
2072.54	458.25
2076.637	430.25
2080.73	435.25
2084.82	438.25
2088.906	426.25
2092.988	424.25
2097.066	425.25
2101.14	435.25
2105.211	434.25
2109.278	418.25
2113.342	421.25
2117.401	408.25
2121.457	398.25
2125.509	399.25
2129.558	405.25
2133.602	405.25
2137.643	402.25
2141.681	401.25
2145.714	390.25
2149.744	389.25
2153.77	393.25
2157.793	374.25
2161.812	343.25
2165.827	349.25
2169.838	374.25
2173.846	359.25
2177.851	346.25
2181.851	358.25
2185.848	346.25
2189.841	343.25
2193.831	335.25
2197.817	340.25
2201.799	332.25
2205.778	327.25
2209.753	320.25
2213.725	319.25
2217.693	326.25
2221.657	313.25
2225.618	331.25
2229.575	323.25
2233.529	330.25
2237.479	323.25
2241.425	310.25
2245.368	299.25
2249.307	307.25
2253.243	298.25
2257.175	304.25
2261.104	288.25
2265.029	288.25
2268.95	284.25
2272.868	283.25
2276.783	265.25
2280.694	280.25
2284.601	271.25
2288.505	270.25
2292.405	280.25
2296.302	252.25
2300.195	266.25
2304.085	233.25
2307.971	264.25
2311.854	230.25
2315.734	248.25
2319.609	244.25
2323.482	221.25
2327.351	234.25
2331.216	230.25
2335.078	236.25
2338.937	234.25
2342.792	231.25
2346.643	226.25
2350.492	239.25
2354.336	222.25
2358.178	238.25
2362.015	233.25
2365.85	234.25
2369.681	230.25
2373.508	229.25
2377.333	242.25
2381.153	231.25
2384.971	226.25
2388.785	231.25
2392.595	216.25
2396.402	218.25
2400.206	198.25
2404.007	216.25
2407.804	216.25
2411.597	220.25
2415.388	211.25
2419.174	210.25
2422.958	214.25
2426.738	211.25
2430.515	220.25
2434.289	204.25
2438.059	194.25
2441.825	204.25
2445.589	212.25
2449.349	186.25
2453.106	200.25
2456.859	197.25
2460.61	202.25
2464.356	190.25
2468.1	187.25
2471.84	176.25
2475.577	181.25
2479.311	181.25
2483.041	177.25
2486.768	197.25
2490.492	192.25
2494.213	180.25
2497.93	166.25
2501.644	170.25
2505.355	182.25
2509.062	178.25
2512.766	172.25
2516.467	172.25
2520.165	173.25
2523.859	153.25
2527.551	197.25
2531.239	157.25
2534.923	163.25
2538.605	159.25
2542.283	171.25
2545.958	163.25
2549.63	176.25
2553.299	171.25
2556.964	155.25
2560.626	156.25
2564.285	162.25
2567.941	153.25
2571.594	148.25
2575.243	164.25
2578.89	151.25
2582.533	153.25
2586.173	156.25
2589.809	147.25
2593.443	128.25
2597.073	145.25
2600.701	152.25
2604.325	148.25
2607.946	132.25
2611.564	152.25
2615.178	148.25
2618.79	140.25
2622.398	137.25
2626.004	143.25
2629.606	137.25
2633.205	125.25
2636.801	136.25
2640.394	137.25
2643.983	127.25
2647.57	123.25
2651.153	126.25
2654.734	134.25
2658.311	104.25
2661.885	113.25
2665.456	119.25
2669.025	120.25
2672.589	113.25
2676.151	124.25
2679.71	133.25
2683.266	116.25
2686.819	109.25
2690.368	116.25
2693.915	119.25
2697.458	117.25
2700.999	118.25
2704.536	113.25
2708.071	110.25
2711.602	114.25
2715.13	112.25
2718.656	95.25
2722.178	106.25
2725.697	93.25
2729.214	93.25
2732.727	99.25
2736.237	89.25
2739.744	92.25
2743.249	89.25
2746.75	99.25
2750.248	87.25
2753.743	97.25
2757.236	95.25
2760.725	105.25
2764.211	71.25
2767.695	97.25
2771.175	93.25
2774.652	95.25
2778.127	91.25
2781.598	88.25
2785.067	95.25
2788.532	81.25
2791.995	98.25
2795.455	152.25
2798.911	135.25
2802.365	95.25
2805.816	97.25
2809.264	104.25
2812.709	87.25
2816.151	97.25
2819.59	85.25
2823.026	86.25
2826.46	87.25
2829.89	101.25
2833.318	72.25
2836.742	84.25
2840.164	96.25
2843.583	92.25
2846.999	91.25
2850.412	96.25
2853.822	89.25
2857.229	105.25
2860.634	97.25
2864.035	82.25
2867.434	104.25
2870.83	102.25
2874.223	98.25
2877.613	98.25
2881	88.25
2884.385	102.25
2887.766	94.25
2891.145	100.25
2894.521	99.25
2897.894	90.25
2901.264	109.25
2904.631	103.25
2907.996	114.25
2911.358	118.25
2914.717	109.25
2918.073	104.25
2921.426	105.25
2924.777	90.25
2928.124	109.25
2931.469	119.25
2934.811	105.25
2938.15	128.25
2941.487	115.25
2944.821	135.25
2948.152	117.25
2951.48	129.25
2954.805	109.25
2958.128	133.25
2961.447	114.25
2964.765	132.25
2968.079	111.25
2971.39	119.25
2974.699	122.25
2978.005	123.25
2981.308	122.25
2984.609	112.25
2987.907	125.25
2991.202	132.25
2994.494	118.25
2997.784	137.25
3001.07	128.25
3004.355	130.25
3007.636	132.25
3010.915	132.25
3014.191	131.25
3017.464	139.25
3020.734	140.25
3024.002	138.25
3027.267	140.25
3030.53	144.25
3033.789	146.25
3037.046	141.25
3040.301	135.25
3043.552	149.25
3046.801	159.25
3050.048	162.25
3053.291	180.25
3056.532	170.25
3059.771	156.25
3063.006	177.25
3066.239	175.25
3069.469	185.25
3072.697	177.25
3075.922	180.25
3079.144	190.25
3082.364	209.25
3085.581	195.25
3088.795	218.25
3092.007	213.25
3095.216	222.25
3098.423	215.25
3101.627	200.25
3104.828	225.25
3108.026	227.25
3111.222	255.25
3114.416	252.25
3117.607	247.25
3120.795	251.25
3123.98	253.25
3127.163	252.25
3130.344	262.25
3133.521	263.25
3136.696	282.25
3139.869	283.25
3143.039	268.25
3146.206	303.25
3149.371	311.25
3152.533	300.25
3155.693	291.25
3158.85	299.25
3162.005	309.25
3165.157	300.25
3168.306	304.25
3171.453	321.25
3174.597	302.25
3177.739	290.25
3180.878	315.25
3184.014	314.25
3187.149	313.25
3190.28	308.25
3193.409	319.25
3196.536	328.25
3199.659	322.25
3202.781	328.25
3205.9	310.25
3209.016	322.25
3212.13	311.25
3215.241	323.25
3218.35	312.25
3221.456	308.25
3224.56	306.25
3227.661	309.25
3230.76	297.25
3233.856	285.25
3236.95	292.25
3240.041	279.25
3243.13	295.25
3246.216	297.25
3249.3	292.25
3252.382	299.25
3255.46	283.25
3258.537	234.25
3261.611	266.25
3264.682	280.25
3267.751	273.25
3270.818	265.25
3273.882	275.25
3276.943	271.25
3280.002	291.25
3283.059	267.25
3286.113	267.25
3289.165	263.25
3292.214	254.25
3295.261	276.25
3298.306	254.25
3301.348	258.25
3304.387	238.25
3307.425	254.25
3310.459	243.25
3313.492	259.25
3316.521	244.25
3319.549	245.25
3322.574	250.25
3325.597	230.25
3328.617	234.25
3331.635	240.25
3334.65	214.25
3337.663	229.25
3340.674	231.25
3343.682	226.25
3346.688	242.25
3349.691	224.25
3352.692	221.25
3355.691	228.25
3358.687	226.25
3361.681	228.25
3364.673	216.25
3367.662	219.25
3370.649	224.25
3373.633	215.25
3376.615	218.25
3379.595	196.25
3382.572	199.25
3385.547	197.25
3388.52	195.25
3391.49	199.25
3394.458	195.25
3397.424	191.25
3400.387	176.25
3403.348	188.25
3406.307	187.25
3409.263	183.25
3412.217	188.25
3415.168	186.25
3418.118	190.25
3421.065	178.25
3424.009	185.25
3426.951	167.25
3429.891	167.25
3432.829	162.25
3435.764	171.25
3438.697	148.25
3441.628	168.25
3444.557	145.25
3447.483	136.25
3450.407	150.25
3453.328	135.25
3456.247	126.25
3459.164	124.25
3462.079	136.25
3464.991	132.25
3467.902	125.25
3470.809	116.25
3473.715	125.25
3476.618	105.25
3479.519	109.25
3482.418	83.25
3485.315	97.25
3488.209	90.25
3491.101	90.25
3493.99	79.25
3496.878	92.25
3499.763	85.25
3502.646	78.25
3505.527	68.25
3508.405	69.25
3511.281	64.25
3514.155	72.25
3517.027	67.25
3519.897	51.25
3522.764	65.25
3525.629	37.25
3528.492	55.25
3531.352	50.25
3534.211	46.25
3537.067	44.25
3539.921	40.25
3542.773	50.25
3545.622	33.25
3548.469	23.25
3551.315	23.25
3554.157	34.25
3556.998	14.25
3559.837	22.25
3562.673	21.25
3565.507	15.25
3568.339	16.25
3571.169	17.25
3573.996	19.25
3576.822	-0.75
3579.645	3.25
3582.466	7.25
3585.285	10.25
3588.101	11.25
3590.916	1.25
3593.728	11.25
3596.538	5.25
3599.346	0.25
3602.152	-7.75
3604.956	1.25
3607.757	2.25
3610.556	-6.75
3613.354	4.25
3616.149	2.25
3618.942	4.25
3621.732	2.25
3624.521	-11.75
3627.307	-17.75
3630.092	-10.75
3632.874	4.25
3635.654	-3.75
3638.432	-12.75
3641.208	-11.75
3643.982	-14.75
3646.753	-3.75
3649.523	-38.75
3652.29	-15.75
3655.055	-6.75
3657.818	-8.75
3660.579	-14.75
3663.338	-28.75
3666.095	-17.75
3668.849	-40.75
3671.602	-15.75
3674.352	-31.75
3677.101	-15.75
3679.847	-15.75
3682.591	-34.75
3685.333	-31.75
3688.073	-21.75
3690.811	-34.75
3693.547	-39.75
3696.281	-31.75
3699.013	-20.75
3701.742	-30.75
3704.47	-36.75
3707.195	-19.75
3709.919	-24.75
3712.64	-26.75
3715.359	-33.75
3718.076	-16.75
3720.792	-32.75
3723.505	-21.75
3726.216	-16.75
3728.925	-31.75
3731.632	-35.75
3734.336	-29.75
3737.039	-27.75
3739.74	-25.75
3742.439	-52.75
3745.136	-20.75
3747.83	-24.75
3750.523	-21.75
3753.213	-92.75
3755.902	-34.75
3758.589	-48.75
3761.273	-35.75
3763.956	-21.75
3766.636	-41.75
3769.315	-22.75
3771.991	-30.75
3774.665	-33.75
3777.338	-31.75
3780.008	-38.75
3782.677	-33.75
3785.343	-50.75
3788.007	-42.75
3790.67	-27.75
3793.33	-38.75
3795.989	-32.75
3798.645	-28.75
3801.299	-45.75
3803.952	-35.75
3806.602	-35.75
3809.251	-24.75
3811.897	-34.75
3814.542	-36.75
3817.184	-33.75
3819.825	-32.75
3822.463	-43.75
3825.1	-35.75
3827.735	-30.75
3830.367	-38.75
3832.998	-22.75
3835.627	-34.75
3838.253	-22.75
3840.878	-33.75
3843.501	-19.75
3846.122	-28.75
3848.741	-25.75
3851.358	-25.75
3853.973	-41.75
3856.586	-20.75
3859.197	-38.75
3861.806	-27.75
3864.414	-42.75
3867.019	-33.75
3869.622	-25.75
3872.224	-22.75
3874.823	-15.75
3877.421	5.25
3880.016	18.25
3882.61	41.25
3885.202	62.25
3887.792	43.25
3890.38	18.25
3892.966	-12.75
3895.55	-31.75
3898.132	-26.75
3900.713	-21.75
3903.291	-26.75
3905.868	-35.75
3908.442	-33.75
3911.015	-33.75
3913.586	-34.75
3916.155	-35.75
3918.722	-39.75
3921.287	-40.75
3923.85	-43.75
3926.411	-38.75
3928.971	-37.75
3931.528	-27.75
3934.084	-37.75
3936.638	-43.75
3939.19	-29.75
3941.74	-29.75
3944.288	-37.75
3946.834	-35.75
3949.378	-28.75
3951.921	-37.75
3954.462	-34.75
3957	-33.75
3959.537	-21.75
3962.072	-33.75
3964.606	-42.75
3967.137	-41.75
3969.667	-38.75
3972.194	-29.75
3974.72	-39.75
3977.244	-57.75
3979.766	-39.75
3982.286	-42.75
3984.805	-30.75
3987.321	-22.75
3989.836	-23.75
3992.349	-35.75
3994.86	-32.75
3997.369	-39.75
3999.877	-37.75
4002.382	-38.75
4004.886	-25.75
4007.388	-32.75
4009.888	-27.75
4012.386	-27.75
4014.883	-23.75
4017.377	-30.75
4019.87	-30.75
4022.361	-42.75
4024.85	-31.75
4027.338	-36.75
4029.823	-33.75
4032.307	-36.75
4034.789	-29.75
4037.269	-27.75
4039.747	-41.75
4042.224	-25.75
4044.699	-37.75
4047.172	-36.75
4049.643	-25.75
4052.112	-56.75
4054.58	-29.75
4057.046	-41.75
4059.51	-35.75
4061.972	-31.75
4064.432	-47.75
4066.891	-17.75
4069.348	-27.75
4071.803	-28.75
4074.256	-38.75
4076.708	-25.75
4079.158	-25.75
4081.606	-19.75
4084.052	-29.75
4086.497	-26.75
4088.939	-33.75
4091.38	-36.75
4093.819	-21.75
4096.257	-1.75
4098.693	-2.75
4101.127	-5.75
4103.559	-0.75
4105.989	72.25
4108.418	75.25
4110.845	63.25
4113.27	72.25
4115.694	71.25
4118.115	67.25
4120.535	-30.75
4122.954	-23.75
4125.37	-24.75
4127.785	-27.75
4130.198	-22.75
4132.609	-25.75
4135.019	6.25
4137.427	3.25
4139.833	4.25
4142.237	-2.75
