Data from 2018-3-6_conc=2_n=9_RamanShift_04.txt Node
Date: Tue Mar 06 13:07:49 GMT+02:00 2018
User: LAB3
Spectrometer: QEPB0276
Trigger mode: 0
Integration Time (sec): 3.000000E1
Scans to average: 1
Electric dark correction enabled: true
Nonlinearity correction enabled: false
Boxcar width: 0
XAxis mode: Raman Shifts
Number of Pixels in Spectrum: 1044
>>>>>Begin Spectral Data<<<<<
160.701	145.12
166.742	186.12
172.777	285.12
178.805	559.12
184.826	1307.12
190.841	2603.12
196.849	4143.12
202.85	5277.12
208.845	5777.12
214.833	5763.12
220.815	5713.12
226.789	5727.12
232.758	5784.12
238.719	5786.12
244.674	5806.12
250.623	5762.12
256.565	5716.12
262.5	5699.12
268.429	5683.12
274.351	5611.12
280.267	5662.12
286.176	5657.12
292.079	5679.12
297.975	5705.12
303.865	5735.12
309.748	5765.12
315.625	5785.12
321.495	5778.12
327.359	5784.12
333.217	5795.12
339.068	5857.12
344.912	5870.12
350.751	5881.12
356.583	5890.12
362.408	5934.12
368.227	5964.12
374.04	5978.12
379.847	6030.12
385.647	6062.12
391.44	6128.12
397.228	6143.12
403.009	6155.12
408.784	6196.12
414.553	6232.12
420.315	6274.12
426.071	6228.12
431.821	6255.12
437.565	6241.12
443.302	6232.12
449.033	6190.12
454.758	6174.12
460.477	6091.12
466.189	6069.12
471.896	5962.12
477.596	5962.12
483.29	5906.12
488.978	5905.12
494.66	5841.12
500.335	5754.12
506.005	5439.12
511.668	5159.12
517.325	4885.12
522.977	4646.12
528.622	4515.12
534.261	4395.12
539.894	4279.12
545.521	4226.12
551.141	4143.12
556.756	4094.12
562.365	4097.12
567.968	4058.12
573.565	4037.12
579.155	4002.12
584.74	3962.12
590.319	3974.12
595.892	3952.12
601.459	3971.12
607.02	3954.12
612.575	3917.12
618.124	3877.12
623.667	3821.12
629.204	3735.12
634.735	3680.12
640.261	3649.12
645.781	3619.12
651.294	3610.12
656.802	3574.12
662.304	3609.12
667.8	3571.12
673.29	3563.12
678.775	3547.12
684.254	3521.12
689.726	3520.12
695.193	3493.12
700.655	3481.12
706.11	3467.12
711.56	3463.12
717.004	3415.12
722.442	3376.12
727.874	3391.12
733.301	3423.12
738.722	3363.12
744.137	3367.12
749.547	3363.12
754.951	3364.12
760.349	3345.12
765.741	3382.12
771.128	3433.12
776.509	3458.12
781.885	3521.12
787.254	3576.12
792.618	3554.12
797.977	3563.12
803.33	3535.12
808.677	3510.12
814.019	3502.12
819.355	3438.12
824.686	3408.12
830.011	3408.12
835.33	3400.12
840.644	3366.12
845.952	3305.12
851.255	3293.12
856.552	3256.12
861.844	3230.12
867.13	3191.12
872.41	3137.12
877.686	3120.12
882.955	3111.12
888.219	3075.12
893.478	3067.12
898.731	2999.12
903.979	2961.12
909.221	2929.12
914.458	2902.12
919.69	2932.12
924.916	2918.12
930.136	2939.12
935.351	2902.12
940.561	2909.12
945.766	2941.12
950.965	2928.12
956.158	2892.12
961.347	2831.12
966.529	2794.12
971.707	2792.12
976.879	2753.12
982.046	2713.12
987.208	2698.12
992.364	2730.12
997.515	2717.12
1002.66	2753.12
1007.801	2770.12
1012.936	2776.12
1018.066	2768.12
1023.19	2804.12
1028.309	2799.12
1033.423	2813.12
1038.532	2840.12
1043.636	2804.12
1048.734	2776.12
1053.827	2741.12
1058.915	2728.12
1063.998	2722.12
1069.075	2693.12
1074.147	2710.12
1079.214	2668.12
1084.276	2732.12
1089.333	2713.12
1094.385	2717.12
1099.431	2710.12
1104.472	2685.12
1109.509	2659.12
1114.54	2634.12
1119.565	2578.12
1124.586	2563.12
1129.602	2527.12
1134.613	2490.12
1139.618	2477.12
1144.619	2486.12
1149.614	2491.12
1154.604	2495.12
1159.589	2497.12
1164.57	2530.12
1169.545	2547.12
1174.515	2528.12
1179.48	2524.12
1184.44	2503.12
1189.395	2500.12
1194.345	2457.12
1199.29	2462.12
1204.23	2430.12
1209.165	2424.12
1214.095	2460.12
1219.021	2462.12
1223.941	2442.12
1228.856	2470.12
1233.766	2497.12
1238.672	2489.12
1243.572	2488.12
1248.467	2456.12
1253.358	2415.12
1258.244	2391.12
1263.124	2366.12
1268	2327.12
1272.871	2285.12
1277.737	2266.12
1282.599	2246.12
1287.455	2230.12
1292.306	2245.12
1297.153	2238.12
1301.995	2260.12
1306.832	2271.12
1311.664	2274.12
1316.491	2269.12
1321.314	2262.12
1326.132	2260.12
1330.945	2224.12
1335.753	2169.12
1340.556	2139.12
1345.354	2106.12
1350.148	2093.12
1354.937	2076.12
1359.722	2030.12
1364.501	2042.12
1369.276	2019.12
1374.046	2040.12
1378.811	2007.12
1383.572	2021.12
1388.327	2025.12
1393.079	1989.12
1397.825	1973.12
1402.567	1963.12
1407.304	1941.12
1412.036	1930.12
1416.764	1919.12
1421.487	1912.12
1426.205	1916.12
1430.919	1914.12
1435.628	1936.12
1440.333	1947.12
1445.032	1973.12
1449.727	1973.12
1454.418	1991.12
1459.104	1972.12
1463.785	1960.12
1468.462	1937.12
1473.134	1900.12
1477.802	1872.12
1482.465	1835.12
1487.123	1824.12
1491.777	1802.12
1496.426	1796.12
1501.071	1830.12
1505.711	1820.12
1510.347	1838.12
1514.978	1832.12
1519.604	1839.12
1524.226	1857.12
1528.844	1834.12
1533.457	1816.12
1538.065	1817.12
1542.669	1806.12
1547.269	1784.12
1551.864	1767.12
1556.454	1755.12
1561.041	1765.12
1565.622	1756.12
1570.199	1759.12
1574.772	1789.12
1579.34	1790.12
1583.904	1815.12
1588.464	1835.12
1593.019	1845.12
1597.569	1808.12
1602.115	1820.12
1606.657	1796.12
1611.195	1803.12
1615.728	1794.12
1620.256	1780.12
1624.78	1769.12
1629.3	1787.12
1633.816	1799.12
1638.327	1790.12
1642.834	1807.12
1647.336	1830.12
1651.834	1841.12
1656.328	1845.12
1660.817	1833.12
1665.302	1813.12
1669.783	1775.12
1674.259	1763.12
1678.732	1721.12
1683.199	1703.12
1687.663	1652.12
1692.122	1614.12
1696.577	1588.12
1701.028	1563.12
1705.474	1538.12
1709.917	1499.12
1714.355	1501.12
1718.788	1484.12
1723.218	1443.12
1727.643	1433.12
1732.064	1428.12
1736.481	1383.12
1740.893	1376.12
1745.301	1335.12
1749.705	1291.12
1754.105	1291.12
1758.501	1260.12
1762.893	1252.12
1767.28	1216.12
1771.663	1211.12
1776.042	1184.12
1780.417	1192.12
1784.787	1184.12
1789.154	1206.12
1793.516	1197.12
1797.874	1208.12
1802.228	1189.12
1806.578	1183.12
1810.924	1180.12
1815.266	1065.12
1819.603	1165.12
1823.937	1132.12
1828.266	1138.12
1832.591	1121.12
1836.913	1107.12
1841.23	1087.12
1845.543	1093.12
1849.852	1094.12
1854.156	1097.12
1858.457	1089.12
1862.754	1090.12
1867.047	1100.12
1871.335	1107.12
1875.62	1118.12
1879.9	1103.12
1884.177	1098.12
1888.449	1093.12
1892.718	1096.12
1896.982	1090.12
1901.243	1081.12
1905.499	1069.12
1909.752	1069.12
1914	1034.12
1918.245	1071.12
1922.485	1072.12
1926.722	1091.12
1930.954	1079.12
1935.183	1085.12
1939.408	1117.12
1943.628	1089.12
1947.845	1080.12
1952.058	1081.12
1956.267	1040.12
1960.472	1044.12
1964.673	1016.12
1968.87	1001.12
1973.063	982.12
1977.252	966.12
1981.438	953.12
1985.619	944.12
1989.797	932.12
1993.971	940.12
1998.14	939.12
2002.306	928.12
2006.469	934.12
2010.627	910.12
2014.781	902.12
2018.932	900.12
2023.078	923.12
2027.221	904.12
2031.36	886.12
2035.495	877.12
2039.627	866.12
2043.754	881.12
2047.878	852.12
2051.998	851.12
2056.114	850.12
2060.226	854.12
2064.334	878.12
2068.439	867.12
2072.54	874.12
2076.637	867.12
2080.73	863.12
2084.82	865.12
2088.906	868.12
2092.988	860.12
2097.066	855.12
2101.14	853.12
2105.211	849.12
2109.278	824.12
2113.342	826.12
2117.401	804.12
2121.457	792.12
2125.509	789.12
2129.558	798.12
2133.602	782.12
2137.643	773.12
2141.681	778.12
2145.714	775.12
2149.744	768.12
2153.77	759.12
2157.793	736.12
2161.812	718.12
2165.827	718.12
2169.838	736.12
2173.846	705.12
2177.851	689.12
2181.851	701.12
2185.848	684.12
2189.841	684.12
2193.831	661.12
2197.817	671.12
2201.799	655.12
2205.778	639.12
2209.753	646.12
2213.725	632.12
2217.693	640.12
2221.657	632.12
2225.618	637.12
2229.575	636.12
2233.529	641.12
2237.479	633.12
2241.425	613.12
2245.368	595.12
2249.307	592.12
2253.243	582.12
2257.175	582.12
2261.104	573.12
2265.029	554.12
2268.95	552.12
2272.868	548.12
2276.783	535.12
2280.694	543.12
2284.601	535.12
2288.505	524.12
2292.405	530.12
2296.302	502.12
2300.195	515.12
2304.085	470.12
2307.971	494.12
2311.854	472.12
2315.734	471.12
2319.609	473.12
2323.482	445.12
2327.351	444.12
2331.216	451.12
2335.078	452.12
2338.937	444.12
2342.792	444.12
2346.643	442.12
2350.492	450.12
2354.336	432.12
2358.178	444.12
2362.015	439.12
2365.85	429.12
2369.681	446.12
2373.508	446.12
2377.333	452.12
2381.153	439.12
2384.971	440.12
2388.785	438.12
2392.595	421.12
2396.402	428.12
2400.206	407.12
2404.007	419.12
2407.804	416.12
2411.597	420.12
2415.388	405.12
2419.174	417.12
2422.958	409.12
2426.738	405.12
2430.515	408.12
2434.289	401.12
2438.059	396.12
2441.825	399.12
2445.589	410.12
2449.349	382.12
2453.106	389.12
2456.859	375.12
2460.61	390.12
2464.356	370.12
2468.1	366.12
2471.84	358.12
2475.577	367.12
2479.311	369.12
2483.041	359.12
2486.768	375.12
2490.492	379.12
2494.213	365.12
2497.93	349.12
2501.644	345.12
2505.355	357.12
2509.062	361.12
2512.766	349.12
2516.467	356.12
2520.165	351.12
2523.859	335.12
2527.551	364.12
2531.239	332.12
2534.923	342.12
2538.605	339.12
2542.283	345.12
2545.958	350.12
2549.63	349.12
2553.299	335.12
2556.964	324.12
2560.626	337.12
2564.285	337.12
2567.941	317.12
2571.594	312.12
2575.243	322.12
2578.89	318.12
2582.533	319.12
2586.173	328.12
2589.809	325.12
2593.443	285.12
2597.073	302.12
2600.701	308.12
2604.325	298.12
2607.946	292.12
2611.564	304.12
2615.178	298.12
2618.79	293.12
2622.398	279.12
2626.004	301.12
2629.606	292.12
2633.205	268.12
2636.801	286.12
2640.394	282.12
2643.983	277.12
2647.57	259.12
2651.153	261.12
2654.734	271.12
2658.311	239.12
2661.885	254.12
2665.456	252.12
2669.025	257.12
2672.589	254.12
2676.151	267.12
2679.71	257.12
2683.266	244.12
2686.819	239.12
2690.368	240.12
2693.915	252.12
2697.458	230.12
2700.999	228.12
2704.536	232.12
2708.071	232.12
2711.602	226.12
2715.13	225.12
2718.656	210.12
2722.178	224.12
2725.697	207.12
2729.214	213.12
2732.727	224.12
2736.237	207.12
2739.744	213.12
2743.249	223.12
2746.75	218.12
2750.248	208.12
2753.743	219.12
2757.236	217.12
2760.725	230.12
2764.211	182.12
2767.695	212.12
2771.175	210.12
2774.652	211.12
2778.127	204.12
2781.598	207.12
2785.067	202.12
2788.532	189.12
2791.995	212.12
2795.455	199.12
2798.911	222.12
2802.365	204.12
2805.816	201.12
2809.264	218.12
2812.709	202.12
2816.151	208.12
2819.59	203.12
2823.026	211.12
2826.46	201.12
2829.89	216.12
2833.318	193.12
2836.742	194.12
2840.164	206.12
2843.583	218.12
2846.999	203.12
2850.412	220.12
2853.822	209.12
2857.229	226.12
2860.634	221.12
2864.035	205.12
2867.434	233.12
2870.83	224.12
2874.223	227.12
2877.613	223.12
2881	223.12
2884.385	237.12
2887.766	222.12
2891.145	241.12
2894.521	231.12
2897.894	234.12
2901.264	234.12
2904.631	234.12
2907.996	238.12
2911.358	241.12
2914.717	237.12
2918.073	234.12
2921.426	234.12
2924.777	222.12
2928.124	247.12
2931.469	265.12
2934.811	252.12
2938.15	274.12
2941.487	259.12
2944.821	275.12
2948.152	260.12
2951.48	272.12
2954.805	256.12
2958.128	271.12
2961.447	252.12
2964.765	273.12
2968.079	266.12
2971.39	276.12
2974.699	266.12
2978.005	266.12
2981.308	274.12
2984.609	268.12
2987.907	284.12
2991.202	292.12
2994.494	280.12
2997.784	290.12
3001.07	291.12
3004.355	283.12
3007.636	297.12
3010.915	300.12
3014.191	294.12
3017.464	295.12
3020.734	299.12
3024.002	299.12
3027.267	298.12
3030.53	302.12
3033.789	307.12
3037.046	301.12
3040.301	299.12
3043.552	315.12
3046.801	325.12
3050.048	336.12
3053.291	357.12
3056.532	351.12
3059.771	346.12
3063.006	374.12
3066.239	372.12
3069.469	382.12
3072.697	385.12
3075.922	387.12
3079.144	395.12
3082.364	435.12
3085.581	418.12
3088.795	438.12
3092.007	442.12
3095.216	456.12
3098.423	452.12
3101.627	440.12
3104.828	476.12
3108.026	469.12
3111.222	503.12
3114.416	512.12
3117.607	509.12
3120.795	526.12
3123.98	534.12
3127.163	529.12
3130.344	545.12
3133.521	555.12
3136.696	582.12
3139.869	582.12
3143.039	569.12
3146.206	621.12
3149.371	609.12
3152.533	618.12
3155.693	608.12
3158.85	627.12
3162.005	630.12
3165.157	624.12
3168.306	619.12
3171.453	637.12
3174.597	620.12
3177.739	618.12
3180.878	639.12
3184.014	637.12
3187.149	652.12
3190.28	626.12
3193.409	652.12
3196.536	656.12
3199.659	646.12
3202.781	653.12
3205.9	645.12
3209.016	641.12
3212.13	650.12
3215.241	656.12
3218.35	640.12
3221.456	640.12
3224.56	609.12
3227.661	635.12
3230.76	611.12
3233.856	616.12
3236.95	605.12
3240.041	607.12
3243.13	614.12
3246.216	596.12
3249.3	607.12
3252.382	600.12
3255.46	592.12
3258.537	541.12
3261.611	584.12
3264.682	586.12
3267.751	586.12
3270.818	577.12
3273.882	585.12
3276.943	577.12
3280.002	592.12
3283.059	548.12
3286.113	565.12
3289.165	544.12
3292.214	536.12
3295.261	551.12
3298.306	531.12
3301.348	523.12
3304.387	513.12
3307.425	516.12
3310.459	501.12
3313.492	510.12
3316.521	496.12
3319.549	500.12
3322.574	495.12
3325.597	481.12
3328.617	484.12
3331.635	480.12
3334.65	465.12
3337.663	469.12
3340.674	472.12
3343.682	482.12
3346.688	483.12
3349.691	466.12
3352.692	470.12
3355.691	465.12
3358.687	464.12
3361.681	463.12
3364.673	449.12
3367.662	448.12
3370.649	448.12
3373.633	431.12
3376.615	446.12
3379.595	414.12
3382.572	423.12
3385.547	420.12
3388.52	411.12
3391.49	403.12
3394.458	399.12
3397.424	404.12
3400.387	387.12
3403.348	392.12
3406.307	394.12
3409.263	391.12
3412.217	388.12
3415.168	385.12
3418.118	394.12
3421.065	381.12
3424.009	377.12
3426.951	370.12
3429.891	359.12
3432.829	352.12
3435.764	351.12
3438.697	337.12
3441.628	342.12
3444.557	318.12
3447.483	313.12
3450.407	324.12
3453.328	299.12
3456.247	296.12
3459.164	286.12
3462.079	287.12
3464.991	277.12
3467.902	272.12
3470.809	263.12
3473.715	260.12
3476.618	245.12
3479.519	245.12
3482.418	220.12
3485.315	216.12
3488.209	212.12
3491.101	212.12
3493.99	196.12
3496.878	205.12
3499.763	200.12
3502.646	201.12
3505.527	181.12
3508.405	176.12
3511.281	158.12
3514.155	174.12
3517.027	157.12
3519.897	144.12
3522.764	155.12
3525.629	130.12
3528.492	146.12
3531.352	138.12
3534.211	132.12
3537.067	116.12
3539.921	116.12
3542.773	119.12
3545.622	99.12
3548.469	94.12
3551.315	91.12
3554.157	92.12
3556.998	83.12
3559.837	88.12
3562.673	81.12
3565.507	69.12
3568.339	64.12
3571.169	69.12
3573.996	68.12
3576.822	50.12
3579.645	56.12
3582.466	56.12
3585.285	63.12
3588.101	53.12
3590.916	46.12
3593.728	53.12
3596.538	42.12
3599.346	44.12
3602.152	33.12
3604.956	40.12
3607.757	39.12
3610.556	19.12
3613.354	37.12
3616.149	29.12
3618.942	25.12
3621.732	23.12
3624.521	18.12
3627.307	11.12
3630.092	16.12
3632.874	30.12
3635.654	20.12
3638.432	7.12
3641.208	6.12
3643.982	4.12
3646.753	18.12
3649.523	-10.88
3652.29	2.12
3655.055	7.12
3657.818	8.12
3660.579	-2.88
3663.338	-6.88
3666.095	-4.88
3668.849	-31.88
3671.602	2.12
3674.352	-11.88
3677.101	7.12
3679.847	-2.88
3682.591	-12.88
3685.333	-18.88
3688.073	-3.88
3690.811	-15.88
3693.547	-23.88
3696.281	-24.88
3699.013	-13.88
3701.742	-11.88
3704.47	-24.88
3707.195	-8.88
3709.919	-14.88
3712.64	-13.88
3715.359	-26.88
3718.076	-6.88
3720.792	-19.88
3723.505	-13.88
3726.216	-3.88
3728.925	-21.88
3731.632	-25.88
3734.336	-21.88
3737.039	-17.88
3739.74	-19.88
3742.439	-43.88
3745.136	-11.88
3747.83	-18.88
3750.523	-16.88
3753.213	-87.88
3755.902	-22.88
3758.589	-37.88
3761.273	-31.88
3763.956	-11.88
3766.636	-37.88
3769.315	-14.88
3771.991	-23.88
3774.665	-28.88
3777.338	-29.88
3780.008	-31.88
3782.677	-23.88
3785.343	-40.88
3788.007	-48.88
3790.67	-20.88
3793.33	-38.88
3795.989	-31.88
3798.645	-25.88
3801.299	-38.88
3803.952	-37.88
3806.602	-34.88
3809.251	-22.88
3811.897	-27.88
3814.542	-25.88
3817.184	-30.88
3819.825	-28.88
3822.463	-40.88
3825.1	-27.88
3827.735	-30.88
3830.367	-36.88
3832.998	-19.88
3835.627	-29.88
3838.253	-19.88
3840.878	-28.88
3843.501	-11.88
3846.122	-28.88
3848.741	-19.88
3851.358	-21.88
3853.973	-36.88
3856.586	-15.88
3859.197	-36.88
3861.806	-29.88
3864.414	-36.88
3867.019	-23.88
3869.622	-18.88
3872.224	-10.88
3874.823	6.12
3877.421	28.12
3880.016	50.12
3882.61	87.12
3885.202	99.12
3887.792	66.12
3890.38	45.12
3892.966	-0.88
3895.55	-27.88
3898.132	-21.88
3900.713	-20.88
3903.291	-21.88
3905.868	-37.88
3908.442	-26.88
3911.015	-30.88
3913.586	-33.88
3916.155	-34.88
3918.722	-34.88
3921.287	-36.88
3923.85	-43.88
3926.411	-34.88
3928.971	-35.88
3931.528	-28.88
3934.084	-32.88
3936.638	-38.88
3939.19	-29.88
3941.74	-23.88
3944.288	-30.88
3946.834	-32.88
3949.378	-25.88
3951.921	-34.88
3954.462	-28.88
3957	-28.88
3959.537	-18.88
3962.072	-31.88
3964.606	-40.88
3967.137	-31.88
3969.667	-36.88
3972.194	-25.88
3974.72	-35.88
3977.244	-49.88
3979.766	-39.88
3982.286	-37.88
3984.805	-24.88
3987.321	-18.88
3989.836	-22.88
3992.349	-34.88
3994.86	-25.88
3997.369	-35.88
3999.877	-30.88
4002.382	-28.88
4004.886	-24.88
4007.388	-27.88
4009.888	-18.88
4012.386	-17.88
4014.883	-23.88
4017.377	-23.88
4019.87	-25.88
4022.361	-35.88
4024.85	-24.88
4027.338	-24.88
4029.823	-32.88
4032.307	-30.88
4034.789	-24.88
4037.269	-25.88
4039.747	-37.88
4042.224	-18.88
4044.699	-30.88
4047.172	-30.88
4049.643	-20.88
4052.112	-52.88
4054.58	-28.88
4057.046	-36.88
4059.51	-25.88
4061.972	-26.88
4064.432	-44.88
4066.891	-11.88
4069.348	-25.88
4071.803	-24.88
4074.256	-31.88
4076.708	-18.88
4079.158	-25.88
4081.606	-15.88
4084.052	-30.88
4086.497	-23.88
4088.939	-26.88
4091.38	-29.88
4093.819	-21.88
4096.257	1.12
4098.693	-5.88
4101.127	-7.88
4103.559	0.12
4105.989	119.12
4108.418	137.12
4110.845	114.12
4113.27	127.12
4115.694	136.12
4118.115	125.12
4120.535	-24.88
4122.954	-21.88
4125.37	-11.88
4127.785	-25.88
4130.198	-18.88
4132.609	-24.88
4135.019	6.12
4137.427	3.12
4139.833	6.12
4142.237	-2.88
