Data from 2018-3-6_conc=2_n=3_RamanShift_03.txt Node
Date: Tue Mar 06 12:49:19 GMT+02:00 2018
User: LAB3
Spectrometer: QEPB0276
Trigger mode: 0
Integration Time (sec): 3.000000E1
Scans to average: 1
Electric dark correction enabled: true
Nonlinearity correction enabled: false
Boxcar width: 0
XAxis mode: Raman Shifts
Number of Pixels in Spectrum: 1044
>>>>>Begin Spectral Data<<<<<
160.701	159.12
166.742	207.12
172.777	301.12
178.805	636.12
184.826	1456.12
190.841	2918.12
196.849	4626.12
202.85	5948.12
208.845	6452.12
214.833	6456.12
220.815	6384.12
226.789	6394.12
232.758	6426.12
238.719	6467.12
244.674	6449.12
250.623	6413.12
256.565	6344.12
262.5	6308.12
268.429	6266.12
274.351	6256.12
280.267	6257.12
286.176	6283.12
292.079	6266.12
297.975	6331.12
303.865	6301.12
309.748	6296.12
315.625	6315.12
321.495	6322.12
327.359	6338.12
333.217	6366.12
339.068	6400.12
344.912	6419.12
350.751	6438.12
356.583	6440.12
362.408	6502.12
368.227	6539.12
374.04	6550.12
379.847	6591.12
385.647	6654.12
391.44	6659.12
397.228	6733.12
403.009	6735.12
408.784	6744.12
414.553	6811.12
420.315	6825.12
426.071	6798.12
431.821	6821.12
437.565	6818.12
443.302	6819.12
449.033	6774.12
454.758	6727.12
460.477	6694.12
466.189	6587.12
471.896	6563.12
477.596	6469.12
483.29	6439.12
488.978	6471.12
494.66	6409.12
500.335	6223.12
506.005	5968.12
511.668	5689.12
517.325	5402.12
522.977	5149.12
528.622	5003.12
534.261	4871.12
539.894	4802.12
545.521	4737.12
551.141	4654.12
556.756	4624.12
562.365	4558.12
567.968	4523.12
573.565	4487.12
579.155	4478.12
584.74	4431.12
590.319	4459.12
595.892	4444.12
601.459	4419.12
607.02	4418.12
612.575	4363.12
618.124	4314.12
623.667	4251.12
629.204	4190.12
634.735	4151.12
640.261	4125.12
645.781	4043.12
651.294	4060.12
656.802	4048.12
662.304	4034.12
667.8	4023.12
673.29	4012.12
678.775	3981.12
684.254	3968.12
689.726	3970.12
695.193	3949.12
700.655	3888.12
706.11	3890.12
711.56	3888.12
717.004	3848.12
722.442	3816.12
727.874	3830.12
733.301	3790.12
738.722	3780.12
744.137	3779.12
749.547	3761.12
754.951	3806.12
760.349	3776.12
765.741	3811.12
771.128	3837.12
776.509	3866.12
781.885	3935.12
787.254	3970.12
792.618	3980.12
797.977	3973.12
803.33	3943.12
808.677	3927.12
814.019	3892.12
819.355	3863.12
824.686	3842.12
830.011	3762.12
835.33	3793.12
840.644	3746.12
845.952	3711.12
851.255	3709.12
856.552	3670.12
861.844	3624.12
867.13	3596.12
872.41	3547.12
877.686	3555.12
882.955	3548.12
888.219	3467.12
893.478	3449.12
898.731	3374.12
903.979	3354.12
909.221	3300.12
914.458	3277.12
919.69	3286.12
924.916	3269.12
930.136	3283.12
935.351	3286.12
940.561	3302.12
945.766	3286.12
950.965	3278.12
956.158	3243.12
961.347	3183.12
966.529	3166.12
971.707	3133.12
976.879	3086.12
982.046	3076.12
987.208	3031.12
992.364	3025.12
997.515	3048.12
1002.66	3097.12
1007.801	3094.12
1012.936	3109.12
1018.066	3118.12
1023.19	3156.12
1028.309	3178.12
1033.423	3161.12
1038.532	3153.12
1043.636	3145.12
1048.734	3122.12
1053.827	3108.12
1058.915	3061.12
1063.998	3060.12
1069.075	3030.12
1074.147	3045.12
1079.214	3026.12
1084.276	3059.12
1089.333	3057.12
1094.385	3073.12
1099.431	3032.12
1104.472	3027.12
1109.509	3000.12
1114.54	2948.12
1119.565	2931.12
1124.586	2888.12
1129.602	2838.12
1134.613	2809.12
1139.618	2811.12
1144.619	2792.12
1149.614	2807.12
1154.604	2811.12
1159.589	2815.12
1164.57	2840.12
1169.545	2850.12
1174.515	2835.12
1179.48	2827.12
1184.44	2803.12
1189.395	2786.12
1194.345	2749.12
1199.29	2745.12
1204.23	2727.12
1209.165	2745.12
1214.095	2755.12
1219.021	2755.12
1223.941	2769.12
1228.856	2789.12
1233.766	2804.12
1238.672	2780.12
1243.572	2797.12
1248.467	2762.12
1253.358	2725.12
1258.244	2691.12
1263.124	2670.12
1268	2615.12
1272.871	2559.12
1277.737	2549.12
1282.599	2523.12
1287.455	2517.12
1292.306	2531.12
1297.153	2523.12
1301.995	2551.12
1306.832	2539.12
1311.664	2560.12
1316.491	2574.12
1321.314	2566.12
1326.132	2522.12
1330.945	2498.12
1335.753	2463.12
1340.556	2408.12
1345.354	2372.12
1350.148	2336.12
1354.937	2325.12
1359.722	2303.12
1364.501	2284.12
1369.276	2283.12
1374.046	2295.12
1378.811	2271.12
1383.572	2273.12
1388.327	2252.12
1393.079	2236.12
1397.825	2216.12
1402.567	2221.12
1407.304	2180.12
1412.036	2156.12
1416.764	2163.12
1421.487	2174.12
1426.205	2154.12
1430.919	2175.12
1435.628	2193.12
1440.333	2185.12
1445.032	2230.12
1449.727	2235.12
1454.418	2259.12
1459.104	2243.12
1463.785	2207.12
1468.462	2187.12
1473.134	2149.12
1477.802	2112.12
1482.465	2070.12
1487.123	2074.12
1491.777	2041.12
1496.426	2021.12
1501.071	2060.12
1505.711	2054.12
1510.347	2087.12
1514.978	2083.12
1519.604	2085.12
1524.226	2096.12
1528.844	2048.12
1533.457	2052.12
1538.065	2069.12
1542.669	2031.12
1547.269	2010.12
1551.864	1990.12
1556.454	1970.12
1561.041	1974.12
1565.622	1968.12
1570.199	1994.12
1574.772	2001.12
1579.34	2023.12
1583.904	2052.12
1588.464	2043.12
1593.019	2072.12
1597.569	2040.12
1602.115	2051.12
1606.657	2046.12
1611.195	2038.12
1615.728	2029.12
1620.256	1992.12
1624.78	1995.12
1629.3	2021.12
1633.816	2033.12
1638.327	2030.12
1642.834	2051.12
1647.336	2073.12
1651.834	2079.12
1656.328	2077.12
1660.817	2061.12
1665.302	2042.12
1669.783	2022.12
1674.259	2003.12
1678.732	1953.12
1683.199	1912.12
1687.663	1853.12
1692.122	1830.12
1696.577	1807.12
1701.028	1762.12
1705.474	1732.12
1709.917	1708.12
1714.355	1676.12
1718.788	1663.12
1723.218	1648.12
1727.643	1619.12
1732.064	1602.12
1736.481	1565.12
1740.893	1554.12
1745.301	1507.12
1749.705	1449.12
1754.105	1459.12
1758.501	1416.12
1762.893	1388.12
1767.28	1377.12
1771.663	1358.12
1776.042	1342.12
1780.417	1350.12
1784.787	1355.12
1789.154	1347.12
1793.516	1362.12
1797.874	1353.12
1802.228	1348.12
1806.578	1351.12
1810.924	1335.12
1815.266	1233.12
1819.603	1316.12
1823.937	1265.12
1828.266	1264.12
1832.591	1249.12
1836.913	1245.12
1841.23	1239.12
1845.543	1229.12
1849.852	1242.12
1854.156	1214.12
1858.457	1234.12
1862.754	1234.12
1867.047	1246.12
1871.335	1243.12
1875.62	1248.12
1879.9	1245.12
1884.177	1239.12
1888.449	1227.12
1892.718	1228.12
1896.982	1228.12
1901.243	1208.12
1905.499	1214.12
1909.752	1207.12
1914	1195.12
1918.245	1223.12
1922.485	1227.12
1926.722	1214.12
1930.954	1201.12
1935.183	1240.12
1939.408	1234.12
1943.628	1227.12
1947.845	1224.12
1952.058	1205.12
1956.267	1172.12
1960.472	1169.12
1964.673	1141.12
1968.87	1118.12
1973.063	1100.12
1977.252	1098.12
1981.438	1074.12
1985.619	1054.12
1989.797	1046.12
1993.971	1049.12
1998.14	1051.12
2002.306	1031.12
2006.469	1049.12
2010.627	1031.12
2014.781	1019.12
2018.932	1018.12
2023.078	1037.12
2027.221	1005.12
2031.36	998.12
2035.495	984.12
2039.627	978.12
2043.754	977.12
2047.878	948.12
2051.998	958.12
2056.114	964.12
2060.226	957.12
2064.334	966.12
2068.439	973.12
2072.54	984.12
2076.637	968.12
2080.73	979.12
2084.82	982.12
2088.906	980.12
2092.988	975.12
2097.066	978.12
2101.14	973.12
2105.211	954.12
2109.278	927.12
2113.342	933.12
2117.401	912.12
2121.457	897.12
2125.509	890.12
2129.558	903.12
2133.602	886.12
2137.643	890.12
2141.681	860.12
2145.714	870.12
2149.744	864.12
2153.77	843.12
2157.793	835.12
2161.812	816.12
2165.827	797.12
2169.838	832.12
2173.846	805.12
2177.851	782.12
2181.851	777.12
2185.848	753.12
2189.841	754.12
2193.831	754.12
2197.817	741.12
2201.799	731.12
2205.778	712.12
2209.753	719.12
2213.725	713.12
2217.693	734.12
2221.657	707.12
2225.618	713.12
2229.575	708.12
2233.529	706.12
2237.479	705.12
2241.425	690.12
2245.368	656.12
2249.307	671.12
2253.243	642.12
2257.175	653.12
2261.104	629.12
2265.029	636.12
2268.95	626.12
2272.868	613.12
2276.783	593.12
2280.694	606.12
2284.601	588.12
2288.505	577.12
2292.405	584.12
2296.302	552.12
2300.195	560.12
2304.085	540.12
2307.971	554.12
2311.854	518.12
2315.734	534.12
2319.609	530.12
2323.482	499.12
2327.351	499.12
2331.216	506.12
2335.078	498.12
2338.937	509.12
2342.792	482.12
2346.643	488.12
2350.492	484.12
2354.336	494.12
2358.178	496.12
2362.015	490.12
2365.85	496.12
2369.681	498.12
2373.508	493.12
2377.333	511.12
2381.153	499.12
2384.971	497.12
2388.785	484.12
2392.595	469.12
2396.402	462.12
2400.206	455.12
2404.007	461.12
2407.804	463.12
2411.597	465.12
2415.388	464.12
2419.174	451.12
2422.958	465.12
2426.738	455.12
2430.515	474.12
2434.289	448.12
2438.059	444.12
2441.825	438.12
2445.589	447.12
2449.349	427.12
2453.106	436.12
2456.859	440.12
2460.61	439.12
2464.356	421.12
2468.1	410.12
2471.84	401.12
2475.577	402.12
2479.311	414.12
2483.041	404.12
2486.768	425.12
2490.492	414.12
2494.213	409.12
2497.93	393.12
2501.644	383.12
2505.355	399.12
2509.062	403.12
2512.766	389.12
2516.467	399.12
2520.165	390.12
2523.859	372.12
2527.551	415.12
2531.239	379.12
2534.923	388.12
2538.605	384.12
2542.283	379.12
2545.958	377.12
2549.63	397.12
2553.299	388.12
2556.964	371.12
2560.626	380.12
2564.285	369.12
2567.941	360.12
2571.594	365.12
2575.243	373.12
2578.89	355.12
2582.533	352.12
2586.173	357.12
2589.809	353.12
2593.443	316.12
2597.073	342.12
2600.701	350.12
2604.325	334.12
2607.946	329.12
2611.564	341.12
2615.178	342.12
2618.79	341.12
2622.398	324.12
2626.004	338.12
2629.606	329.12
2633.205	318.12
2636.801	319.12
2640.394	310.12
2643.983	301.12
2647.57	306.12
2651.153	292.12
2654.734	300.12
2658.311	270.12
2661.885	280.12
2665.456	282.12
2669.025	275.12
2672.589	277.12
2676.151	294.12
2679.71	276.12
2683.266	276.12
2686.819	266.12
2690.368	271.12
2693.915	275.12
2697.458	269.12
2700.999	267.12
2704.536	268.12
2708.071	255.12
2711.602	256.12
2715.13	255.12
2718.656	241.12
2722.178	251.12
2725.697	236.12
2729.214	242.12
2732.727	248.12
2736.237	238.12
2739.744	246.12
2743.249	238.12
2746.75	246.12
2750.248	231.12
2753.743	249.12
2757.236	250.12
2760.725	256.12
2764.211	220.12
2767.695	253.12
2771.175	241.12
2774.652	247.12
2778.127	234.12
2781.598	240.12
2785.067	236.12
2788.532	216.12
2791.995	245.12
2795.455	220.12
2798.911	238.12
2802.365	222.12
2805.816	244.12
2809.264	247.12
2812.709	238.12
2816.151	245.12
2819.59	220.12
2823.026	237.12
2826.46	240.12
2829.89	254.12
2833.318	214.12
2836.742	237.12
2840.164	248.12
2843.583	247.12
2846.999	249.12
2850.412	244.12
2853.822	245.12
2857.229	254.12
2860.634	257.12
2864.035	236.12
2867.434	264.12
2870.83	277.12
2874.223	275.12
2877.613	264.12
2881	260.12
2884.385	275.12
2887.766	274.12
2891.145	267.12
2894.521	273.12
2897.894	264.12
2901.264	287.12
2904.631	276.12
2907.996	272.12
2911.358	287.12
2914.717	285.12
2918.073	280.12
2921.426	287.12
2924.777	265.12
2928.124	285.12
2931.469	307.12
2934.811	293.12
2938.15	334.12
2941.487	310.12
2944.821	331.12
2948.152	304.12
2951.48	318.12
2954.805	298.12
2958.128	319.12
2961.447	310.12
2964.765	323.12
2968.079	307.12
2971.39	317.12
2974.699	315.12
2978.005	317.12
2981.308	323.12
2984.609	326.12
2987.907	334.12
2991.202	345.12
2994.494	329.12
2997.784	343.12
3001.07	331.12
3004.355	336.12
3007.636	334.12
3010.915	339.12
3014.191	348.12
3017.464	341.12
3020.734	350.12
3024.002	342.12
3027.267	356.12
3030.53	355.12
3033.789	346.12
3037.046	353.12
3040.301	349.12
3043.552	373.12
3046.801	380.12
3050.048	393.12
3053.291	406.12
3056.532	397.12
3059.771	400.12
3063.006	425.12
3066.239	428.12
3069.469	443.12
3072.697	453.12
3075.922	450.12
3079.144	460.12
3082.364	494.12
3085.581	483.12
3088.795	509.12
3092.007	510.12
3095.216	528.12
3098.423	525.12
3101.627	523.12
3104.828	551.12
3108.026	554.12
3111.222	582.12
3114.416	592.12
3117.607	590.12
3120.795	604.12
3123.98	622.12
3127.163	609.12
3130.344	636.12
3133.521	652.12
3136.696	681.12
3139.869	691.12
3143.039	667.12
3146.206	709.12
3149.371	718.12
3152.533	723.12
3155.693	703.12
3158.85	731.12
3162.005	728.12
3165.157	726.12
3168.306	724.12
3171.453	736.12
3174.597	727.12
3177.739	722.12
3180.878	738.12
3184.014	740.12
3187.149	733.12
3190.28	746.12
3193.409	748.12
3196.536	754.12
3199.659	759.12
3202.781	749.12
3205.9	743.12
3209.016	751.12
3212.13	744.12
3215.241	756.12
3218.35	742.12
3221.456	729.12
3224.56	720.12
3227.661	735.12
3230.76	722.12
3233.856	712.12
3236.95	725.12
3240.041	699.12
3243.13	713.12
3246.216	707.12
3249.3	718.12
3252.382	696.12
3255.46	677.12
3258.537	645.12
3261.611	692.12
3264.682	679.12
3267.751	680.12
3270.818	667.12
3273.882	690.12
3276.943	686.12
3280.002	688.12
3283.059	661.12
3286.113	648.12
3289.165	639.12
3292.214	632.12
3295.261	645.12
3298.306	601.12
3301.348	611.12
3304.387	607.12
3307.425	610.12
3310.459	586.12
3313.492	586.12
3316.521	578.12
3319.549	574.12
3322.574	576.12
3325.597	560.12
3328.617	547.12
3331.635	551.12
3334.65	535.12
3337.663	554.12
3340.674	550.12
3343.682	546.12
3346.688	553.12
3349.691	539.12
3352.692	548.12
3355.691	546.12
3358.687	542.12
3361.681	538.12
3364.673	526.12
3367.662	534.12
3370.649	530.12
3373.633	509.12
3376.615	508.12
3379.595	486.12
3382.572	499.12
3385.547	495.12
3388.52	476.12
3391.49	476.12
3394.458	477.12
3397.424	474.12
3400.387	459.12
3403.348	457.12
3406.307	461.12
3409.263	458.12
3412.217	451.12
3415.168	453.12
3418.118	451.12
3421.065	435.12
3424.009	439.12
3426.951	428.12
3429.891	431.12
3432.829	428.12
3435.764	419.12
3438.697	396.12
3441.628	409.12
3444.557	377.12
3447.483	365.12
3450.407	381.12
3453.328	358.12
3456.247	347.12
3459.164	332.12
3462.079	348.12
3464.991	327.12
3467.902	312.12
3470.809	317.12
3473.715	306.12
3476.618	285.12
3479.519	288.12
3482.418	262.12
3485.315	260.12
3488.209	261.12
3491.101	262.12
3493.99	248.12
3496.878	247.12
3499.763	243.12
3502.646	230.12
3505.527	213.12
3508.405	216.12
3511.281	204.12
3514.155	207.12
3517.027	205.12
3519.897	185.12
3522.764	189.12
3525.629	164.12
3528.492	173.12
3531.352	164.12
3534.211	158.12
3537.067	147.12
3539.921	142.12
3542.773	143.12
3545.622	124.12
3548.469	121.12
3551.315	114.12
3554.157	117.12
3556.998	113.12
3559.837	106.12
3562.673	107.12
3565.507	97.12
3568.339	81.12
3571.169	92.12
3573.996	90.12
3576.822	68.12
3579.645	70.12
3582.466	76.12
3585.285	77.12
3588.101	71.12
3590.916	65.12
3593.728	69.12
3596.538	60.12
3599.346	62.12
3602.152	43.12
3604.956	50.12
3607.757	58.12
3610.556	36.12
3613.354	52.12
3616.149	44.12
3618.942	47.12
3621.732	38.12
3624.521	33.12
3627.307	19.12
3630.092	19.12
3632.874	43.12
3635.654	31.12
3638.432	18.12
3641.208	15.12
3643.982	22.12
3646.753	28.12
3649.523	-2.88
3652.29	13.12
3655.055	21.12
3657.818	16.12
3660.579	2.12
3663.338	-0.88
3666.095	5.12
3668.849	-20.88
3671.602	8.12
3674.352	-10.88
3677.101	10.12
3679.847	9.12
3682.591	-9.88
3685.333	-12.88
3688.073	-4.88
3690.811	-13.88
3693.547	-15.88
3696.281	-19.88
3699.013	-5.88
3701.742	-12.88
3704.47	-23.88
3707.195	-5.88
3709.919	-5.88
3712.64	-9.88
3715.359	-24.88
3718.076	0.12
3720.792	-14.88
3723.505	-9.88
3726.216	-1.88
3728.925	-16.88
3731.632	-23.88
3734.336	-16.88
3737.039	-16.88
3739.74	-20.88
3742.439	-38.88
3745.136	-14.88
3747.83	-15.88
3750.523	-13.88
3753.213	-77.88
3755.902	-24.88
3758.589	-30.88
3761.273	-30.88
3763.956	-15.88
3766.636	-39.88
3769.315	-13.88
3771.991	-22.88
3774.665	-30.88
3777.338	-25.88
3780.008	-36.88
3782.677	-23.88
3785.343	-37.88
3788.007	-41.88
3790.67	-16.88
3793.33	-36.88
3795.989	-33.88
3798.645	-21.88
3801.299	-36.88
3803.952	-29.88
3806.602	-28.88
3809.251	-20.88
3811.897	-29.88
3814.542	-33.88
3817.184	-31.88
3819.825	-31.88
3822.463	-38.88
3825.1	-30.88
3827.735	-26.88
3830.367	-32.88
3832.998	-17.88
3835.627	-30.88
3838.253	-19.88
3840.878	-29.88
3843.501	-8.88
3846.122	-22.88
3848.741	-18.88
3851.358	-21.88
3853.973	-38.88
3856.586	-21.88
3859.197	-33.88
3861.806	-20.88
3864.414	-39.88
3867.019	-26.88
3869.622	-15.88
3872.224	-9.88
3874.823	8.12
3877.421	35.12
3880.016	61.12
3882.61	113.12
3885.202	120.12
3887.792	90.12
3890.38	47.12
3892.966	8.12
3895.55	-20.88
3898.132	-8.88
3900.713	-15.88
3903.291	-26.88
3905.868	-37.88
3908.442	-29.88
3911.015	-27.88
3913.586	-35.88
3916.155	-34.88
3918.722	-34.88
3921.287	-35.88
3923.85	-44.88
3926.411	-39.88
3928.971	-30.88
3931.528	-27.88
3934.084	-34.88
3936.638	-41.88
3939.19	-23.88
3941.74	-26.88
3944.288	-31.88
3946.834	-33.88
3949.378	-21.88
3951.921	-35.88
3954.462	-32.88
3957	-29.88
3959.537	-14.88
3962.072	-29.88
3964.606	-43.88
3967.137	-32.88
3969.667	-35.88
3972.194	-21.88
3974.72	-36.88
3977.244	-55.88
3979.766	-34.88
3982.286	-36.88
3984.805	-21.88
3987.321	-18.88
3989.836	-22.88
3992.349	-36.88
3994.86	-31.88
3997.369	-31.88
3999.877	-33.88
4002.382	-34.88
4004.886	-24.88
4007.388	-29.88
4009.888	-16.88
4012.386	-20.88
4014.883	-23.88
4017.377	-25.88
4019.87	-26.88
4022.361	-34.88
4024.85	-28.88
4027.338	-25.88
4029.823	-28.88
4032.307	-31.88
4034.789	-24.88
4037.269	-27.88
4039.747	-42.88
4042.224	-19.88
4044.699	-37.88
4047.172	-27.88
4049.643	-21.88
4052.112	-50.88
4054.58	-23.88
4057.046	-38.88
4059.51	-27.88
4061.972	-24.88
4064.432	-45.88
4066.891	-14.88
4069.348	-29.88
4071.803	-26.88
4074.256	-30.88
4076.708	-24.88
4079.158	-24.88
4081.606	-17.88
4084.052	-28.88
4086.497	-25.88
4088.939	-24.88
4091.38	-28.88
4093.819	-16.88
4096.257	-0.88
4098.693	-5.88
4101.127	-2.88
4103.559	2.12
4105.989	138.12
4108.418	148.12
4110.845	139.12
4113.27	143.12
4115.694	150.12
4118.115	141.12
4120.535	-25.88
4122.954	-18.88
4125.37	-16.88
4127.785	-22.88
4130.198	-16.88
4132.609	-21.88
4135.019	4.12
4137.427	-1.88
4139.833	9.12
4142.237	-3.88
