Data from 2018-3-6_conc=0_n=9_RamanShift_01.txt Node
Date: Tue Mar 06 12:34:19 GMT+02:00 2018
User: LAB3
Spectrometer: QEPB0276
Trigger mode: 0
Integration Time (sec): 3.000000E1
Scans to average: 1
Electric dark correction enabled: true
Nonlinearity correction enabled: false
Boxcar width: 0
XAxis mode: Raman Shifts
Number of Pixels in Spectrum: 1044
>>>>>Begin Spectral Data<<<<<
160.701	177.5
166.742	230.5
172.777	346.5
178.805	675.5
184.826	1574.5
190.841	3143.5
196.849	4967.5
202.85	6416.5
208.845	6929.5
214.833	6958.5
220.815	6935.5
226.789	6900.5
232.758	6954.5
238.719	6981.5
244.674	6990.5
250.623	6960.5
256.565	6923.5
262.5	6888.5
268.429	6843.5
274.351	6800.5
280.267	6828.5
286.176	6862.5
292.079	6871.5
297.975	6870.5
303.865	6830.5
309.748	6900.5
315.625	6932.5
321.495	6917.5
327.359	6932.5
333.217	6952.5
339.068	6993.5
344.912	7050.5
350.751	7059.5
356.583	7111.5
362.408	7123.5
368.227	7153.5
374.04	7201.5
379.847	7223.5
385.647	7273.5
391.44	7283.5
397.228	7382.5
403.009	7415.5
408.784	7397.5
414.553	7461.5
420.315	7502.5
426.071	7500.5
431.821	7489.5
437.565	7504.5
443.302	7481.5
449.033	7431.5
454.758	7404.5
460.477	7379.5
466.189	7261.5
471.896	7220.5
477.596	7145.5
483.29	7119.5
488.978	7102.5
494.66	7022.5
500.335	6875.5
506.005	6529.5
511.668	6213.5
517.325	5911.5
522.977	5660.5
528.622	5448.5
534.261	5333.5
539.894	5219.5
545.521	5154.5
551.141	5059.5
556.756	5048.5
562.365	4980.5
567.968	4920.5
573.565	4905.5
579.155	4849.5
584.74	4819.5
590.319	4802.5
595.892	4843.5
601.459	4856.5
607.02	4829.5
612.575	4779.5
618.124	4720.5
623.667	4628.5
629.204	4563.5
634.735	4537.5
640.261	4473.5
645.781	4403.5
651.294	4399.5
656.802	4437.5
662.304	4392.5
667.8	4378.5
673.29	4346.5
678.775	4350.5
684.254	4322.5
689.726	4300.5
695.193	4304.5
700.655	4280.5
706.11	4242.5
711.56	4202.5
717.004	4184.5
722.442	4177.5
727.874	4146.5
733.301	4159.5
738.722	4092.5
744.137	4098.5
749.547	4100.5
754.951	4114.5
760.349	4130.5
765.741	4161.5
771.128	4168.5
776.509	4218.5
781.885	4288.5
787.254	4335.5
792.618	4355.5
797.977	4354.5
803.33	4325.5
808.677	4258.5
814.019	4252.5
819.355	4213.5
824.686	4189.5
830.011	4119.5
835.33	4134.5
840.644	4122.5
845.952	4049.5
851.255	4074.5
856.552	4008.5
861.844	3967.5
867.13	3923.5
872.41	3938.5
877.686	3971.5
882.955	4004.5
888.219	3960.5
893.478	3820.5
898.731	3739.5
903.979	3678.5
909.221	3613.5
914.458	3586.5
919.69	3574.5
924.916	3593.5
930.136	3596.5
935.351	3600.5
940.561	3599.5
945.766	3575.5
950.965	3557.5
956.158	3526.5
961.347	3501.5
966.529	3439.5
971.707	3423.5
976.879	3370.5
982.046	3321.5
987.208	3318.5
992.364	3325.5
997.515	3336.5
1002.66	3360.5
1007.801	3392.5
1012.936	3427.5
1018.066	3416.5
1023.19	3450.5
1028.309	3478.5
1033.423	3479.5
1038.532	3492.5
1043.636	3475.5
1048.734	3464.5
1053.827	3425.5
1058.915	3391.5
1063.998	3347.5
1069.075	3350.5
1074.147	3364.5
1079.214	3339.5
1084.276	3387.5
1089.333	3382.5
1094.385	3407.5
1099.431	3367.5
1104.472	3319.5
1109.509	3288.5
1114.54	3220.5
1119.565	3175.5
1124.586	3143.5
1129.602	3098.5
1134.613	3070.5
1139.618	3063.5
1144.619	3041.5
1149.614	3071.5
1154.604	3075.5
1159.589	3066.5
1164.57	3091.5
1169.545	3086.5
1174.515	3095.5
1179.48	3083.5
1184.44	3052.5
1189.395	3028.5
1194.345	2994.5
1199.29	3006.5
1204.23	2972.5
1209.165	2984.5
1214.095	3007.5
1219.021	3007.5
1223.941	2982.5
1228.856	3033.5
1233.766	3023.5
1238.672	3058.5
1243.572	3025.5
1248.467	3022.5
1253.358	2975.5
1258.244	2921.5
1263.124	2879.5
1268	2854.5
1272.871	2810.5
1277.737	2783.5
1282.599	2773.5
1287.455	2764.5
1292.306	2779.5
1297.153	2771.5
1301.995	2786.5
1306.832	2785.5
1311.664	2814.5
1316.491	2804.5
1321.314	2817.5
1326.132	2745.5
1330.945	2750.5
1335.753	2695.5
1340.556	2637.5
1345.354	2597.5
1350.148	2578.5
1354.937	2556.5
1359.722	2534.5
1364.501	2496.5
1369.276	2493.5
1374.046	2503.5
1378.811	2491.5
1383.572	2508.5
1388.327	2479.5
1393.079	2463.5
1397.825	2440.5
1402.567	2436.5
1407.304	2405.5
1412.036	2405.5
1416.764	2393.5
1421.487	2391.5
1426.205	2374.5
1430.919	2402.5
1435.628	2396.5
1440.333	2437.5
1445.032	2452.5
1449.727	2514.5
1454.418	2524.5
1459.104	2547.5
1463.785	2497.5
1468.462	2477.5
1473.134	2389.5
1477.802	2349.5
1482.465	2318.5
1487.123	2322.5
1491.777	2277.5
1496.426	2289.5
1501.071	2312.5
1505.711	2279.5
1510.347	2327.5
1514.978	2331.5
1519.604	2338.5
1524.226	2335.5
1528.844	2324.5
1533.457	2295.5
1538.065	2277.5
1542.669	2236.5
1547.269	2230.5
1551.864	2210.5
1556.454	2175.5
1561.041	2190.5
1565.622	2183.5
1570.199	2198.5
1574.772	2224.5
1579.34	2235.5
1583.904	2224.5
1588.464	2238.5
1593.019	2250.5
1597.569	2239.5
1602.115	2212.5
1606.657	2239.5
1611.195	2220.5
1615.728	2213.5
1620.256	2208.5
1624.78	2183.5
1629.3	2209.5
1633.816	2206.5
1638.327	2248.5
1642.834	2269.5
1647.336	2250.5
1651.834	2288.5
1656.328	2285.5
1660.817	2289.5
1665.302	2273.5
1669.783	2237.5
1674.259	2204.5
1678.732	2188.5
1683.199	2130.5
1687.663	2059.5
1692.122	2025.5
1696.577	2009.5
1701.028	1986.5
1705.474	1925.5
1709.917	1896.5
1714.355	1872.5
1718.788	1876.5
1723.218	1832.5
1727.643	1781.5
1732.064	1785.5
1736.481	1750.5
1740.893	1730.5
1745.301	1696.5
1749.705	1645.5
1754.105	1615.5
1758.501	1591.5
1762.893	1562.5
1767.28	1527.5
1771.663	1510.5
1776.042	1515.5
1780.417	1516.5
1784.787	1515.5
1789.154	1527.5
1793.516	1533.5
1797.874	1513.5
1802.228	1499.5
1806.578	1498.5
1810.924	1509.5
1815.266	1398.5
1819.603	1466.5
1823.937	1441.5
1828.266	1425.5
1832.591	1414.5
1836.913	1377.5
1841.23	1368.5
1845.543	1366.5
1849.852	1387.5
1854.156	1382.5
1858.457	1378.5
1862.754	1363.5
1867.047	1385.5
1871.335	1390.5
1875.62	1373.5
1879.9	1387.5
1884.177	1380.5
1888.449	1384.5
1892.718	1393.5
1896.982	1369.5
1901.243	1364.5
1905.499	1350.5
1909.752	1370.5
1914	1335.5
1918.245	1374.5
1922.485	1376.5
1926.722	1371.5
1930.954	1375.5
1935.183	1396.5
1939.408	1390.5
1943.628	1391.5
1947.845	1374.5
1952.058	1349.5
1956.267	1320.5
1960.472	1310.5
1964.673	1296.5
1968.87	1256.5
1973.063	1230.5
1977.252	1223.5
1981.438	1210.5
1985.619	1181.5
1989.797	1151.5
1993.971	1167.5
1998.14	1176.5
2002.306	1165.5
2006.469	1174.5
2010.627	1167.5
2014.781	1156.5
2018.932	1150.5
2023.078	1154.5
2027.221	1135.5
2031.36	1104.5
2035.495	1110.5
2039.627	1087.5
2043.754	1102.5
2047.878	1078.5
2051.998	1072.5
2056.114	1076.5
2060.226	1070.5
2064.334	1089.5
2068.439	1093.5
2072.54	1092.5
2076.637	1077.5
2080.73	1095.5
2084.82	1097.5
2088.906	1077.5
2092.988	1101.5
2097.066	1084.5
2101.14	1086.5
2105.211	1083.5
2109.278	1040.5
2113.342	1053.5
2117.401	1001.5
2121.457	1014.5
2125.509	1007.5
2129.558	998.5
2133.602	983.5
2137.643	987.5
2141.681	976.5
2145.714	965.5
2149.744	964.5
2153.77	960.5
2157.793	938.5
2161.812	911.5
2165.827	896.5
2169.838	908.5
2173.846	881.5
2177.851	863.5
2181.851	878.5
2185.848	851.5
2189.841	840.5
2193.831	830.5
2197.817	824.5
2201.799	818.5
2205.778	811.5
2209.753	799.5
2213.725	801.5
2217.693	801.5
2221.657	790.5
2225.618	792.5
2229.575	800.5
2233.529	779.5
2237.479	774.5
2241.425	777.5
2245.368	737.5
2249.307	739.5
2253.243	729.5
2257.175	728.5
2261.104	706.5
2265.029	701.5
2268.95	696.5
2272.868	677.5
2276.783	677.5
2280.694	671.5
2284.601	669.5
2288.505	655.5
2292.405	654.5
2296.302	616.5
2300.195	633.5
2304.085	598.5
2307.971	603.5
2311.854	583.5
2315.734	577.5
2319.609	573.5
2323.482	548.5
2327.351	548.5
2331.216	562.5
2335.078	560.5
2338.937	552.5
2342.792	534.5
2346.643	535.5
2350.492	540.5
2354.336	545.5
2358.178	551.5
2362.015	539.5
2365.85	540.5
2369.681	548.5
2373.508	543.5
2377.333	551.5
2381.153	542.5
2384.971	539.5
2388.785	533.5
2392.595	518.5
2396.402	508.5
2400.206	488.5
2404.007	523.5
2407.804	518.5
2411.597	521.5
2415.388	501.5
2419.174	502.5
2422.958	494.5
2426.738	499.5
2430.515	511.5
2434.289	490.5
2438.059	476.5
2441.825	492.5
2445.589	485.5
2449.349	462.5
2453.106	475.5
2456.859	463.5
2460.61	469.5
2464.356	447.5
2468.1	445.5
2471.84	444.5
2475.577	452.5
2479.311	454.5
2483.041	439.5
2486.768	465.5
2490.492	458.5
2494.213	448.5
2497.93	429.5
2501.644	435.5
2505.355	435.5
2509.062	445.5
2512.766	438.5
2516.467	431.5
2520.165	428.5
2523.859	414.5
2527.551	451.5
2531.239	423.5
2534.923	423.5
2538.605	422.5
2542.283	434.5
2545.958	423.5
2549.63	441.5
2553.299	424.5
2556.964	405.5
2560.626	411.5
2564.285	417.5
2567.941	396.5
2571.594	398.5
2575.243	418.5
2578.89	396.5
2582.533	385.5
2586.173	392.5
2589.809	388.5
2593.443	367.5
2597.073	375.5
2600.701	381.5
2604.325	379.5
2607.946	353.5
2611.564	381.5
2615.178	372.5
2618.79	368.5
2622.398	348.5
2626.004	372.5
2629.606	351.5
2633.205	339.5
2636.801	349.5
2640.394	349.5
2643.983	329.5
2647.57	329.5
2651.153	330.5
2654.734	336.5
2658.311	305.5
2661.885	321.5
2665.456	307.5
2669.025	310.5
2672.589	312.5
2676.151	322.5
2679.71	319.5
2683.266	301.5
2686.819	295.5
2690.368	302.5
2693.915	314.5
2697.458	290.5
2700.999	295.5
2704.536	292.5
2708.071	288.5
2711.602	290.5
2715.13	281.5
2718.656	262.5
2722.178	280.5
2725.697	256.5
2729.214	276.5
2732.727	274.5
2736.237	270.5
2739.744	280.5
2743.249	276.5
2746.75	279.5
2750.248	273.5
2753.743	272.5
2757.236	275.5
2760.725	280.5
2764.211	251.5
2767.695	288.5
2771.175	269.5
2774.652	271.5
2778.127	260.5
2781.598	264.5
2785.067	270.5
2788.532	251.5
2791.995	275.5
2795.455	266.5
2798.911	271.5
2802.365	259.5
2805.816	266.5
2809.264	280.5
2812.709	271.5
2816.151	284.5
2819.59	263.5
2823.026	271.5
2826.46	279.5
2829.89	284.5
2833.318	259.5
2836.742	272.5
2840.164	284.5
2843.583	274.5
2846.999	284.5
2850.412	296.5
2853.822	286.5
2857.229	301.5
2860.634	305.5
2864.035	291.5
2867.434	312.5
2870.83	317.5
2874.223	327.5
2877.613	324.5
2881	326.5
2884.385	336.5
2887.766	349.5
2891.145	353.5
2894.521	341.5
2897.894	332.5
2901.264	343.5
2904.631	337.5
2907.996	352.5
2911.358	349.5
2914.717	350.5
2918.073	345.5
2921.426	344.5
2924.777	346.5
2928.124	362.5
2931.469	394.5
2934.811	378.5
2938.15	407.5
2941.487	406.5
2944.821	417.5
2948.152	405.5
2951.48	398.5
2954.805	376.5
2958.128	392.5
2961.447	374.5
2964.765	392.5
2968.079	378.5
2971.39	377.5
2974.699	390.5
2978.005	384.5
2981.308	387.5
2984.609	378.5
2987.907	400.5
2991.202	410.5
2994.494	395.5
2997.784	395.5
3001.07	393.5
3004.355	384.5
3007.636	391.5
3010.915	387.5
3014.191	393.5
3017.464	394.5
3020.734	385.5
3024.002	390.5
3027.267	382.5
3030.53	401.5
3033.789	392.5
3037.046	395.5
3040.301	395.5
3043.552	403.5
3046.801	413.5
3050.048	426.5
3053.291	455.5
3056.532	452.5
3059.771	449.5
3063.006	470.5
3066.239	483.5
3069.469	482.5
3072.697	500.5
3075.922	496.5
3079.144	508.5
3082.364	548.5
3085.581	541.5
3088.795	568.5
3092.007	565.5
3095.216	569.5
3098.423	572.5
3101.627	575.5
3104.828	606.5
3108.026	611.5
3111.222	634.5
3114.416	662.5
3117.607	659.5
3120.795	675.5
3123.98	691.5
3127.163	687.5
3130.344	712.5
3133.521	714.5
3136.696	755.5
3139.869	750.5
3143.039	748.5
3146.206	791.5
3149.371	785.5
3152.533	793.5
3155.693	778.5
3158.85	807.5
3162.005	810.5
3165.157	801.5
3168.306	813.5
3171.453	819.5
3174.597	804.5
3177.739	803.5
3180.878	821.5
3184.014	813.5
3187.149	826.5
3190.28	820.5
3193.409	821.5
3196.536	831.5
3199.659	850.5
3202.781	832.5
3205.9	809.5
3209.016	824.5
3212.13	822.5
3215.241	811.5
3218.35	826.5
3221.456	811.5
3224.56	798.5
3227.661	802.5
3230.76	794.5
3233.856	784.5
3236.95	783.5
3240.041	768.5
3243.13	783.5
3246.216	770.5
3249.3	760.5
3252.382	770.5
3255.46	762.5
3258.537	701.5
3261.611	745.5
3264.682	752.5
3267.751	745.5
3270.818	740.5
3273.882	758.5
3276.943	744.5
3280.002	759.5
3283.059	727.5
3286.113	724.5
3289.165	720.5
3292.214	696.5
3295.261	712.5
3298.306	658.5
3301.348	678.5
3304.387	657.5
3307.425	660.5
3310.459	654.5
3313.492	647.5
3316.521	638.5
3319.549	642.5
3322.574	628.5
3325.597	629.5
3328.617	605.5
3331.635	606.5
3334.65	594.5
3337.663	610.5
3340.674	610.5
3343.682	612.5
3346.688	606.5
3349.691	590.5
3352.692	595.5
3355.691	594.5
3358.687	595.5
3361.681	597.5
3364.673	587.5
3367.662	588.5
3370.649	580.5
3373.633	550.5
3376.615	568.5
3379.595	543.5
3382.572	546.5
3385.547	537.5
3388.52	529.5
3391.49	522.5
3394.458	526.5
3397.424	532.5
3400.387	502.5
3403.348	505.5
3406.307	505.5
3409.263	496.5
3412.217	502.5
3415.168	495.5
3418.118	501.5
3421.065	485.5
3424.009	482.5
3426.951	467.5
3429.891	468.5
3432.829	470.5
3435.764	456.5
3438.697	444.5
3441.628	442.5
3444.557	413.5
3447.483	409.5
3450.407	411.5
3453.328	390.5
3456.247	385.5
3459.164	366.5
3462.079	376.5
3464.991	362.5
3467.902	349.5
3470.809	348.5
3473.715	337.5
3476.618	319.5
3479.519	317.5
3482.418	292.5
3485.315	297.5
3488.209	296.5
3491.101	291.5
3493.99	276.5
3496.878	269.5
3499.763	267.5
3502.646	260.5
3505.527	253.5
3508.405	245.5
3511.281	224.5
3514.155	237.5
3517.027	225.5
3519.897	200.5
3522.764	213.5
3525.629	180.5
3528.492	191.5
3531.352	189.5
3534.211	174.5
3537.067	164.5
3539.921	163.5
3542.773	166.5
3545.622	145.5
3548.469	136.5
3551.315	124.5
3554.157	135.5
3556.998	113.5
3559.837	117.5
3562.673	117.5
3565.507	103.5
3568.339	95.5
3571.169	97.5
3573.996	98.5
3576.822	74.5
3579.645	86.5
3582.466	83.5
3585.285	84.5
3588.101	82.5
3590.916	69.5
3593.728	83.5
3596.538	68.5
3599.346	68.5
3602.152	54.5
3604.956	56.5
3607.757	55.5
3610.556	41.5
3613.354	55.5
3616.149	50.5
3618.942	47.5
3621.732	51.5
3624.521	36.5
3627.307	27.5
3630.092	33.5
3632.874	45.5
3635.654	26.5
3638.432	31.5
3641.208	21.5
3643.982	29.5
3646.753	31.5
3649.523	4.5
3652.29	12.5
3655.055	26.5
3657.818	15.5
3660.579	9.5
3663.338	3.5
3666.095	6.5
3668.849	-14.5
3671.602	9.5
3674.352	-2.5
3677.101	11.5
3679.847	8.5
3682.591	-3.5
3685.333	-11.5
3688.073	1.5
3690.811	-6.5
3693.547	-19.5
3696.281	-22.5
3699.013	-2.5
3701.742	-8.5
3704.47	-17.5
3707.195	-5.5
3709.919	-8.5
3712.64	-11.5
3715.359	-26.5
3718.076	1.5
3720.792	-10.5
3723.505	-16.5
3726.216	2.5
3728.925	-14.5
3731.632	-21.5
3734.336	-18.5
3737.039	-18.5
3739.74	-10.5
3742.439	-41.5
3745.136	-6.5
3747.83	-11.5
3750.523	-10.5
3753.213	-82.5
3755.902	-23.5
3758.589	-31.5
3761.273	-19.5
3763.956	-12.5
3766.636	-32.5
3769.315	-7.5
3771.991	-19.5
3774.665	-27.5
3777.338	-20.5
3780.008	-27.5
3782.677	-23.5
3785.343	-37.5
3788.007	-37.5
3790.67	-18.5
3793.33	-34.5
3795.989	-26.5
3798.645	-21.5
3801.299	-35.5
3803.952	-34.5
3806.602	-27.5
3809.251	-14.5
3811.897	-26.5
3814.542	-28.5
3817.184	-28.5
3819.825	-23.5
3822.463	-35.5
3825.1	-26.5
3827.735	-20.5
3830.367	-32.5
3832.998	-17.5
3835.627	-24.5
3838.253	-16.5
3840.878	-28.5
3843.501	-13.5
3846.122	-22.5
3848.741	-18.5
3851.358	-12.5
3853.973	-35.5
3856.586	-13.5
3859.197	-30.5
3861.806	-22.5
3864.414	-35.5
3867.019	-28.5
3869.622	-10.5
3872.224	-5.5
3874.823	13.5
3877.421	51.5
3880.016	81.5
3882.61	154.5
3885.202	168.5
3887.792	124.5
3890.38	72.5
3892.966	15.5
3895.55	-15.5
3898.132	-11.5
3900.713	-19.5
3903.291	-24.5
3905.868	-32.5
3908.442	-26.5
3911.015	-24.5
3913.586	-28.5
3916.155	-29.5
3918.722	-37.5
3921.287	-31.5
3923.85	-42.5
3926.411	-32.5
3928.971	-34.5
3931.528	-25.5
3934.084	-32.5
3936.638	-40.5
3939.19	-26.5
3941.74	-27.5
3944.288	-31.5
3946.834	-32.5
3949.378	-23.5
3951.921	-30.5
3954.462	-30.5
3957	-23.5
3959.537	-17.5
3962.072	-31.5
3964.606	-45.5
3967.137	-33.5
3969.667	-32.5
3972.194	-23.5
3974.72	-33.5
3977.244	-49.5
3979.766	-37.5
3982.286	-36.5
3984.805	-22.5
3987.321	-17.5
3989.836	-21.5
3992.349	-35.5
3994.86	-23.5
3997.369	-37.5
3999.877	-26.5
4002.382	-31.5
4004.886	-21.5
4007.388	-27.5
4009.888	-14.5
4012.386	-24.5
4014.883	-20.5
4017.377	-30.5
4019.87	-20.5
4022.361	-37.5
4024.85	-29.5
4027.338	-23.5
4029.823	-31.5
4032.307	-31.5
4034.789	-27.5
4037.269	-24.5
4039.747	-39.5
4042.224	-18.5
4044.699	-34.5
4047.172	-30.5
4049.643	-23.5
4052.112	-48.5
4054.58	-25.5
4057.046	-34.5
4059.51	-25.5
4061.972	-26.5
4064.432	-42.5
4066.891	-16.5
4069.348	-26.5
4071.803	-26.5
4074.256	-31.5
4076.708	-21.5
4079.158	-22.5
4081.606	-14.5
4084.052	-29.5
4086.497	-23.5
4088.939	-29.5
4091.38	-27.5
4093.819	-21.5
4096.257	1.5
4098.693	-3.5
4101.127	-5.5
4103.559	1.5
4105.989	158.5
4108.418	162.5
4110.845	150.5
4113.27	162.5
4115.694	164.5
4118.115	163.5
4120.535	-25.5
4122.954	-21.5
4125.37	-18.5
4127.785	-22.5
4130.198	-18.5
4132.609	-22.5
4135.019	7.5
4137.427	-1.5
4139.833	5.5
4142.237	-5.5
