Data from 2018-3-6_conc=5_n=4_RamanShift_03.txt Node
Date: Tue Mar 06 14:32:48 GMT+02:00 2018
User: LAB3
Spectrometer: QEPB0276
Trigger mode: 0
Integration Time (sec): 3.000000E1
Scans to average: 1
Electric dark correction enabled: true
Nonlinearity correction enabled: false
Boxcar width: 0
XAxis mode: Raman Shifts
Number of Pixels in Spectrum: 1044
>>>>>Begin Spectral Data<<<<<
160.701	65.5
166.742	82.5
172.777	123.5
178.805	231.5
184.826	528.5
190.841	1083.5
196.849	1667.5
202.85	2112.5
208.845	2227.5
214.833	2217.5
220.815	2143.5
226.789	2138.5
232.758	2094.5
238.719	2082.5
244.674	2050.5
250.623	2030.5
256.565	1998.5
262.5	1958.5
268.429	1924.5
274.351	1896.5
280.267	1883.5
286.176	1894.5
292.079	1881.5
297.975	1868.5
303.865	1854.5
309.748	1866.5
315.625	1829.5
321.495	1857.5
327.359	1823.5
333.217	1833.5
339.068	1828.5
344.912	1860.5
350.751	1842.5
356.583	1847.5
362.408	1851.5
368.227	1839.5
374.04	1865.5
379.847	1865.5
385.647	1879.5
391.44	1864.5
397.228	1881.5
403.009	1905.5
408.784	1897.5
414.553	1912.5
420.315	1922.5
426.071	1906.5
431.821	1910.5
437.565	1896.5
443.302	1892.5
449.033	1883.5
454.758	1893.5
460.477	1851.5
466.189	1839.5
471.896	1833.5
477.596	1817.5
483.29	1801.5
488.978	1795.5
494.66	1793.5
500.335	1735.5
506.005	1660.5
511.668	1597.5
517.325	1487.5
522.977	1430.5
528.622	1383.5
534.261	1352.5
539.894	1332.5
545.521	1299.5
551.141	1267.5
556.756	1256.5
562.365	1245.5
567.968	1248.5
573.565	1219.5
579.155	1246.5
584.74	1224.5
590.319	1227.5
595.892	1222.5
601.459	1236.5
607.02	1208.5
612.575	1207.5
618.124	1189.5
623.667	1162.5
629.204	1147.5
634.735	1145.5
640.261	1123.5
645.781	1108.5
651.294	1103.5
656.802	1116.5
662.304	1117.5
667.8	1112.5
673.29	1100.5
678.775	1096.5
684.254	1081.5
689.726	1079.5
695.193	1084.5
700.655	1074.5
706.11	1065.5
711.56	1059.5
717.004	1061.5
722.442	1039.5
727.874	1037.5
733.301	1049.5
738.722	1029.5
744.137	1044.5
749.547	1028.5
754.951	1024.5
760.349	1026.5
765.741	1049.5
771.128	1025.5
776.509	1067.5
781.885	1090.5
787.254	1088.5
792.618	1090.5
797.977	1099.5
803.33	1088.5
808.677	1069.5
814.019	1060.5
819.355	1061.5
824.686	1040.5
830.011	1028.5
835.33	1035.5
840.644	1031.5
845.952	1018.5
851.255	1015.5
856.552	988.5
861.844	988.5
867.13	970.5
872.41	953.5
877.686	957.5
882.955	957.5
888.219	934.5
893.478	919.5
898.731	921.5
903.979	918.5
909.221	905.5
914.458	879.5
919.69	884.5
924.916	886.5
930.136	897.5
935.351	889.5
940.561	910.5
945.766	894.5
950.965	900.5
956.158	868.5
961.347	861.5
966.529	859.5
971.707	863.5
976.879	843.5
982.046	811.5
987.208	821.5
992.364	824.5
997.515	823.5
1002.66	824.5
1007.801	825.5
1012.936	834.5
1018.066	819.5
1023.19	837.5
1028.309	856.5
1033.423	839.5
1038.532	839.5
1043.636	845.5
1048.734	838.5
1053.827	826.5
1058.915	815.5
1063.998	812.5
1069.075	807.5
1074.147	819.5
1079.214	790.5
1084.276	820.5
1089.333	814.5
1094.385	821.5
1099.431	798.5
1104.472	810.5
1109.509	798.5
1114.54	783.5
1119.565	773.5
1124.586	768.5
1129.602	763.5
1134.613	732.5
1139.618	732.5
1144.619	739.5
1149.614	749.5
1154.604	737.5
1159.589	750.5
1164.57	761.5
1169.545	764.5
1174.515	772.5
1179.48	749.5
1184.44	748.5
1189.395	759.5
1194.345	729.5
1199.29	751.5
1204.23	728.5
1209.165	709.5
1214.095	742.5
1219.021	733.5
1223.941	728.5
1228.856	750.5
1233.766	752.5
1238.672	749.5
1243.572	746.5
1248.467	732.5
1253.358	727.5
1258.244	713.5
1263.124	713.5
1268	704.5
1272.871	675.5
1277.737	678.5
1282.599	669.5
1287.455	666.5
1292.306	672.5
1297.153	661.5
1301.995	664.5
1306.832	670.5
1311.664	676.5
1316.491	674.5
1321.314	671.5
1326.132	657.5
1330.945	663.5
1335.753	647.5
1340.556	639.5
1345.354	625.5
1350.148	612.5
1354.937	608.5
1359.722	600.5
1364.501	594.5
1369.276	603.5
1374.046	598.5
1378.811	591.5
1383.572	602.5
1388.327	592.5
1393.079	580.5
1397.825	578.5
1402.567	576.5
1407.304	580.5
1412.036	576.5
1416.764	567.5
1421.487	556.5
1426.205	557.5
1430.919	570.5
1435.628	566.5
1440.333	564.5
1445.032	568.5
1449.727	573.5
1454.418	584.5
1459.104	588.5
1463.785	568.5
1468.462	570.5
1473.134	548.5
1477.802	554.5
1482.465	520.5
1487.123	529.5
1491.777	511.5
1496.426	501.5
1501.071	526.5
1505.711	513.5
1510.347	525.5
1514.978	537.5
1519.604	523.5
1524.226	544.5
1528.844	522.5
1533.457	532.5
1538.065	520.5
1542.669	526.5
1547.269	516.5
1551.864	514.5
1556.454	505.5
1561.041	513.5
1565.622	518.5
1570.199	511.5
1574.772	521.5
1579.34	531.5
1583.904	526.5
1588.464	535.5
1593.019	545.5
1597.569	533.5
1602.115	529.5
1606.657	528.5
1611.195	526.5
1615.728	547.5
1620.256	528.5
1624.78	499.5
1629.3	509.5
1633.816	523.5
1638.327	510.5
1642.834	531.5
1647.336	518.5
1651.834	542.5
1656.328	528.5
1660.817	517.5
1665.302	528.5
1669.783	505.5
1674.259	490.5
1678.732	490.5
1683.199	472.5
1687.663	454.5
1692.122	455.5
1696.577	447.5
1701.028	445.5
1705.474	425.5
1709.917	413.5
1714.355	411.5
1718.788	403.5
1723.218	386.5
1727.643	386.5
1732.064	393.5
1736.481	369.5
1740.893	375.5
1745.301	371.5
1749.705	339.5
1754.105	355.5
1758.501	340.5
1762.893	352.5
1767.28	320.5
1771.663	321.5
1776.042	321.5
1780.417	322.5
1784.787	332.5
1789.154	335.5
1793.516	320.5
1797.874	321.5
1802.228	318.5
1806.578	301.5
1810.924	324.5
1815.266	205.5
1819.603	317.5
1823.937	299.5
1828.266	308.5
1832.591	308.5
1836.913	302.5
1841.23	291.5
1845.543	294.5
1849.852	304.5
1854.156	289.5
1858.457	300.5
1862.754	285.5
1867.047	292.5
1871.335	319.5
1875.62	301.5
1879.9	301.5
1884.177	285.5
1888.449	286.5
1892.718	289.5
1896.982	292.5
1901.243	274.5
1905.499	280.5
1909.752	278.5
1914	256.5
1918.245	286.5
1922.485	282.5
1926.722	275.5
1930.954	271.5
1935.183	278.5
1939.408	293.5
1943.628	279.5
1947.845	274.5
1952.058	274.5
1956.267	267.5
1960.472	272.5
1964.673	262.5
1968.87	266.5
1973.063	257.5
1977.252	256.5
1981.438	246.5
1985.619	241.5
1989.797	232.5
1993.971	246.5
1998.14	254.5
2002.306	243.5
2006.469	253.5
2010.627	235.5
2014.781	233.5
2018.932	232.5
2023.078	251.5
2027.221	241.5
2031.36	230.5
2035.495	232.5
2039.627	232.5
2043.754	222.5
2047.878	223.5
2051.998	226.5
2056.114	221.5
2060.226	218.5
2064.334	228.5
2068.439	232.5
2072.54	227.5
2076.637	216.5
2080.73	219.5
2084.82	221.5
2088.906	208.5
2092.988	215.5
2097.066	219.5
2101.14	229.5
2105.211	216.5
2109.278	211.5
2113.342	211.5
2117.401	199.5
2121.457	188.5
2125.509	191.5
2129.558	206.5
2133.602	194.5
2137.643	203.5
2141.681	192.5
2145.714	199.5
2149.744	206.5
2153.77	199.5
2157.793	189.5
2161.812	172.5
2165.827	164.5
2169.838	194.5
2173.846	176.5
2177.851	172.5
2181.851	185.5
2185.848	176.5
2189.841	170.5
2193.831	173.5
2197.817	174.5
2201.799	160.5
2205.778	157.5
2209.753	160.5
2213.725	151.5
2217.693	170.5
2221.657	152.5
2225.618	167.5
2229.575	162.5
2233.529	168.5
2237.479	165.5
2241.425	149.5
2245.368	141.5
2249.307	152.5
2253.243	146.5
2257.175	158.5
2261.104	134.5
2265.029	149.5
2268.95	144.5
2272.868	139.5
2276.783	133.5
2280.694	134.5
2284.601	140.5
2288.505	130.5
2292.405	139.5
2296.302	120.5
2300.195	132.5
2304.085	101.5
2307.971	129.5
2311.854	110.5
2315.734	112.5
2319.609	126.5
2323.482	103.5
2327.351	110.5
2331.216	108.5
2335.078	118.5
2338.937	115.5
2342.792	108.5
2346.643	106.5
2350.492	120.5
2354.336	112.5
2358.178	113.5
2362.015	110.5
2365.85	109.5
2369.681	107.5
2373.508	106.5
2377.333	114.5
2381.153	116.5
2384.971	102.5
2388.785	110.5
2392.595	102.5
2396.402	99.5
2400.206	75.5
2404.007	94.5
2407.804	97.5
2411.597	108.5
2415.388	97.5
2419.174	97.5
2422.958	99.5
2426.738	95.5
2430.515	100.5
2434.289	88.5
2438.059	86.5
2441.825	86.5
2445.589	98.5
2449.349	76.5
2453.106	96.5
2456.859	93.5
2460.61	91.5
2464.356	77.5
2468.1	77.5
2471.84	78.5
2475.577	81.5
2479.311	77.5
2483.041	77.5
2486.768	92.5
2490.492	89.5
2494.213	80.5
2497.93	67.5
2501.644	68.5
2505.355	76.5
2509.062	83.5
2512.766	70.5
2516.467	67.5
2520.165	68.5
2523.859	57.5
2527.551	90.5
2531.239	57.5
2534.923	78.5
2538.605	70.5
2542.283	74.5
2545.958	69.5
2549.63	79.5
2553.299	79.5
2556.964	62.5
2560.626	68.5
2564.285	64.5
2567.941	58.5
2571.594	52.5
2575.243	75.5
2578.89	56.5
2582.533	66.5
2586.173	56.5
2589.809	62.5
2593.443	40.5
2597.073	53.5
2600.701	61.5
2604.325	60.5
2607.946	43.5
2611.564	69.5
2615.178	64.5
2618.79	60.5
2622.398	50.5
2626.004	57.5
2629.606	58.5
2633.205	44.5
2636.801	57.5
2640.394	58.5
2643.983	55.5
2647.57	51.5
2651.153	51.5
2654.734	58.5
2658.311	30.5
2661.885	43.5
2665.456	45.5
2669.025	41.5
2672.589	39.5
2676.151	56.5
2679.71	53.5
2683.266	40.5
2686.819	33.5
2690.368	46.5
2693.915	52.5
2697.458	44.5
2700.999	50.5
2704.536	49.5
2708.071	47.5
2711.602	40.5
2715.13	36.5
2718.656	25.5
2722.178	39.5
2725.697	24.5
2729.214	36.5
2732.727	37.5
2736.237	17.5
2739.744	31.5
2743.249	24.5
2746.75	38.5
2750.248	27.5
2753.743	35.5
2757.236	38.5
2760.725	36.5
2764.211	6.5
2767.695	42.5
2771.175	29.5
2774.652	29.5
2778.127	25.5
2781.598	31.5
2785.067	39.5
2788.532	22.5
2791.995	30.5
2795.455	25.5
2798.911	35.5
2802.365	24.5
2805.816	30.5
2809.264	38.5
2812.709	22.5
2816.151	30.5
2819.59	16.5
2823.026	31.5
2826.46	26.5
2829.89	40.5
2833.318	11.5
2836.742	35.5
2840.164	25.5
2843.583	26.5
2846.999	30.5
2850.412	33.5
2853.822	26.5
2857.229	41.5
2860.634	32.5
2864.035	13.5
2867.434	39.5
2870.83	41.5
2874.223	31.5
2877.613	35.5
2881	28.5
2884.385	24.5
2887.766	32.5
2891.145	32.5
2894.521	26.5
2897.894	24.5
2901.264	41.5
2904.631	41.5
2907.996	41.5
2911.358	45.5
2914.717	38.5
2918.073	38.5
2921.426	32.5
2924.777	26.5
2928.124	35.5
2931.469	55.5
2934.811	28.5
2938.15	54.5
2941.487	38.5
2944.821	63.5
2948.152	38.5
2951.48	53.5
2954.805	30.5
2958.128	58.5
2961.447	47.5
2964.765	60.5
2968.079	45.5
2971.39	53.5
2974.699	53.5
2978.005	56.5
2981.308	48.5
2984.609	44.5
2987.907	61.5
2991.202	62.5
2994.494	49.5
2997.784	55.5
3001.07	58.5
3004.355	57.5
3007.636	63.5
3010.915	59.5
3014.191	54.5
3017.464	60.5
3020.734	57.5
3024.002	61.5
3027.267	60.5
3030.53	63.5
3033.789	61.5
3037.046	62.5
3040.301	50.5
3043.552	69.5
3046.801	74.5
3050.048	81.5
3053.291	91.5
3056.532	76.5
3059.771	61.5
3063.006	81.5
3066.239	83.5
3069.469	92.5
3072.697	79.5
3075.922	88.5
3079.144	86.5
3082.364	117.5
3085.581	91.5
3088.795	112.5
3092.007	104.5
3095.216	116.5
3098.423	104.5
3101.627	88.5
3104.828	118.5
3108.026	106.5
3111.222	123.5
3114.416	139.5
3117.607	128.5
3120.795	123.5
3123.98	127.5
3127.163	116.5
3130.344	129.5
3133.521	130.5
3136.696	139.5
3139.869	150.5
3143.039	128.5
3146.206	155.5
3149.371	157.5
3152.533	151.5
3155.693	136.5
3158.85	152.5
3162.005	162.5
3165.157	153.5
3168.306	159.5
3171.453	164.5
3174.597	151.5
3177.739	153.5
3180.878	157.5
3184.014	159.5
3187.149	163.5
3190.28	164.5
3193.409	175.5
3196.536	167.5
3199.659	178.5
3202.781	169.5
3205.9	157.5
3209.016	167.5
3212.13	163.5
3215.241	165.5
3218.35	161.5
3221.456	156.5
3224.56	150.5
3227.661	153.5
3230.76	154.5
3233.856	152.5
3236.95	153.5
3240.041	139.5
3243.13	155.5
3246.216	152.5
3249.3	157.5
3252.382	146.5
3255.46	144.5
3258.537	97.5
3261.611	137.5
3264.682	142.5
3267.751	144.5
3270.818	132.5
3273.882	144.5
3276.943	142.5
3280.002	154.5
3283.059	134.5
3286.113	145.5
3289.165	135.5
3292.214	123.5
3295.261	139.5
3298.306	115.5
3301.348	127.5
3304.387	118.5
3307.425	132.5
3310.459	121.5
3313.492	131.5
3316.521	126.5
3319.549	130.5
3322.574	123.5
3325.597	124.5
3328.617	114.5
3331.635	117.5
3334.65	100.5
3337.663	117.5
3340.674	106.5
3343.682	113.5
3346.688	117.5
3349.691	109.5
3352.692	105.5
3355.691	122.5
3358.687	114.5
3361.681	116.5
3364.673	106.5
3367.662	115.5
3370.649	113.5
3373.633	98.5
3376.615	111.5
3379.595	81.5
3382.572	99.5
3385.547	86.5
3388.52	93.5
3391.49	92.5
3394.458	93.5
3397.424	97.5
3400.387	87.5
3403.348	92.5
3406.307	92.5
3409.263	91.5
3412.217	103.5
3415.168	88.5
3418.118	99.5
3421.065	85.5
3424.009	92.5
3426.951	86.5
3429.891	75.5
3432.829	82.5
3435.764	86.5
3438.697	64.5
3441.628	88.5
3444.557	63.5
3447.483	61.5
3450.407	73.5
3453.328	64.5
3456.247	60.5
3459.164	50.5
3462.079	64.5
3464.991	61.5
3467.902	53.5
3470.809	50.5
3473.715	52.5
3476.618	45.5
3479.519	46.5
3482.418	29.5
3485.315	29.5
3488.209	31.5
3491.101	34.5
3493.99	18.5
3496.878	28.5
3499.763	30.5
3502.646	29.5
3505.527	21.5
3508.405	23.5
3511.281	10.5
3514.155	18.5
3517.027	16.5
3519.897	5.5
3522.764	17.5
3525.629	-4.5
3528.492	13.5
3531.352	12.5
3534.211	13.5
3537.067	4.5
3539.921	7.5
3542.773	9.5
3545.622	-5.5
3548.469	-8.5
3551.315	-8.5
3554.157	1.5
3556.998	-7.5
3559.837	-8.5
3562.673	-4.5
3565.507	-15.5
3568.339	-15.5
3571.169	-8.5
3573.996	-8.5
3576.822	-28.5
3579.645	-18.5
3582.466	-19.5
3585.285	-12.5
3588.101	-14.5
3590.916	-18.5
3593.728	-13.5
3596.538	-20.5
3599.346	-15.5
3602.152	-25.5
3604.956	-19.5
3607.757	-19.5
3610.556	-31.5
3613.354	-14.5
3616.149	-16.5
3618.942	-15.5
3621.732	-16.5
3624.521	-26.5
3627.307	-33.5
3630.092	-28.5
3632.874	-13.5
3635.654	-18.5
3638.432	-28.5
3641.208	-29.5
3643.982	-25.5
3646.753	-21.5
3649.523	-50.5
3652.29	-26.5
3655.055	-22.5
3657.818	-27.5
3660.579	-30.5
3663.338	-42.5
3666.095	-32.5
3668.849	-57.5
3671.602	-23.5
3674.352	-41.5
3677.101	-22.5
3679.847	-26.5
3682.591	-38.5
3685.333	-42.5
3688.073	-30.5
3690.811	-39.5
3693.547	-43.5
3696.281	-45.5
3699.013	-33.5
3701.742	-37.5
3704.47	-44.5
3707.195	-25.5
3709.919	-33.5
3712.64	-34.5
3715.359	-41.5
3718.076	-24.5
3720.792	-31.5
3723.505	-27.5
3726.216	-17.5
3728.925	-36.5
3731.632	-40.5
3734.336	-35.5
3737.039	-30.5
3739.74	-34.5
3742.439	-60.5
3745.136	-28.5
3747.83	-29.5
3750.523	-25.5
3753.213	-101.5
3755.902	-34.5
3758.589	-52.5
3761.273	-38.5
3763.956	-24.5
3766.636	-45.5
3769.315	-27.5
3771.991	-30.5
3774.665	-40.5
3777.338	-36.5
3780.008	-41.5
3782.677	-36.5
3785.343	-56.5
3788.007	-54.5
3790.67	-23.5
3793.33	-51.5
3795.989	-43.5
3798.645	-32.5
3801.299	-49.5
3803.952	-47.5
3806.602	-40.5
3809.251	-29.5
3811.897	-35.5
3814.542	-42.5
3817.184	-39.5
3819.825	-37.5
3822.463	-47.5
3825.1	-41.5
3827.735	-34.5
3830.367	-46.5
3832.998	-23.5
3835.627	-39.5
3838.253	-26.5
3840.878	-37.5
3843.501	-19.5
3846.122	-28.5
3848.741	-29.5
3851.358	-28.5
3853.973	-47.5
3856.586	-26.5
3859.197	-40.5
3861.806	-33.5
3864.414	-45.5
3867.019	-34.5
3869.622	-26.5
3872.224	-23.5
3874.823	-16.5
3877.421	7.5
3880.016	15.5
3882.61	51.5
3885.202	61.5
3887.792	41.5
3890.38	16.5
3892.966	-21.5
3895.55	-33.5
3898.132	-25.5
3900.713	-21.5
3903.291	-36.5
3905.868	-40.5
3908.442	-31.5
3911.015	-33.5
3913.586	-40.5
3916.155	-39.5
3918.722	-42.5
3921.287	-40.5
3923.85	-51.5
3926.411	-41.5
3928.971	-40.5
3931.528	-34.5
3934.084	-37.5
3936.638	-42.5
3939.19	-32.5
3941.74	-35.5
3944.288	-38.5
3946.834	-40.5
3949.378	-27.5
3951.921	-42.5
3954.462	-41.5
3957	-35.5
3959.537	-24.5
3962.072	-37.5
3964.606	-50.5
3967.137	-39.5
3969.667	-44.5
3972.194	-28.5
3974.72	-37.5
3977.244	-60.5
3979.766	-39.5
3982.286	-42.5
3984.805	-37.5
3987.321	-22.5
3989.836	-30.5
3992.349	-37.5
3994.86	-33.5
3997.369	-42.5
3999.877	-39.5
4002.382	-38.5
4004.886	-32.5
4007.388	-32.5
4009.888	-24.5
4012.386	-26.5
4014.883	-34.5
4017.377	-33.5
4019.87	-31.5
4022.361	-43.5
4024.85	-32.5
4027.338	-35.5
4029.823	-37.5
4032.307	-38.5
4034.789	-31.5
4037.269	-30.5
4039.747	-48.5
4042.224	-23.5
4044.699	-40.5
4047.172	-40.5
4049.643	-27.5
4052.112	-57.5
4054.58	-34.5
4057.046	-40.5
4059.51	-34.5
4061.972	-35.5
4064.432	-51.5
4066.891	-19.5
4069.348	-30.5
4071.803	-28.5
4074.256	-39.5
4076.708	-28.5
4079.158	-33.5
4081.606	-22.5
4084.052	-33.5
4086.497	-30.5
4088.939	-35.5
4091.38	-34.5
4093.819	-27.5
4096.257	0.5
4098.693	-4.5
4101.127	-4.5
4103.559	1.5
4105.989	70.5
4108.418	71.5
4110.845	58.5
4113.27	65.5
4115.694	69.5
4118.115	54.5
4120.535	-29.5
4122.954	-29.5
4125.37	-21.5
4127.785	-34.5
4130.198	-25.5
4132.609	-28.5
4135.019	7.5
4137.427	-0.5
4139.833	5.5
4142.237	-5.5
