Data from 2018-3-6_conc=5_n=2_RamanShift_02.txt Node
Date: Tue Mar 06 14:25:48 GMT+02:00 2018
User: LAB3
Spectrometer: QEPB0276
Trigger mode: 0
Integration Time (sec): 3.000000E1
Scans to average: 1
Electric dark correction enabled: true
Nonlinearity correction enabled: false
Boxcar width: 0
XAxis mode: Raman Shifts
Number of Pixels in Spectrum: 1044
>>>>>Begin Spectral Data<<<<<
160.701	54.75
166.742	75.75
172.777	116.75
178.805	230.75
184.826	544.75
190.841	1082.75
196.849	1702.75
202.85	2156.75
208.845	2274.75
214.833	2252.75
220.815	2200.75
226.789	2193.75
232.758	2166.75
238.719	2145.75
244.674	2110.75
250.623	2087.75
256.565	2058.75
262.5	2042.75
268.429	2016.75
274.351	1976.75
280.267	1968.75
286.176	1970.75
292.079	1964.75
297.975	1963.75
303.865	1946.75
309.748	1940.75
315.625	1930.75
321.495	1950.75
327.359	1917.75
333.217	1932.75
339.068	1914.75
344.912	1955.75
350.751	1927.75
356.583	1932.75
362.408	1946.75
368.227	1940.75
374.04	1968.75
379.847	1952.75
385.647	1978.75
391.44	1949.75
397.228	1981.75
403.009	1996.75
408.784	1988.75
414.553	2011.75
420.315	2014.75
426.071	1993.75
431.821	2008.75
437.565	1998.75
443.302	1993.75
449.033	1978.75
454.758	1986.75
460.477	1962.75
466.189	1957.75
471.896	1911.75
477.596	1925.75
483.29	1895.75
488.978	1896.75
494.66	1863.75
500.335	1808.75
506.005	1731.75
511.668	1661.75
517.325	1573.75
522.977	1477.75
528.622	1445.75
534.261	1431.75
539.894	1381.75
545.521	1384.75
551.141	1353.75
556.756	1325.75
562.365	1334.75
567.968	1293.75
573.565	1288.75
579.155	1305.75
584.74	1282.75
590.319	1296.75
595.892	1300.75
601.459	1299.75
607.02	1283.75
612.575	1275.75
618.124	1264.75
623.667	1226.75
629.204	1208.75
634.735	1191.75
640.261	1176.75
645.781	1153.75
651.294	1166.75
656.802	1158.75
662.304	1166.75
667.8	1170.75
673.29	1147.75
678.775	1155.75
684.254	1155.75
689.726	1123.75
695.193	1134.75
700.655	1128.75
706.11	1116.75
711.56	1117.75
717.004	1123.75
722.442	1080.75
727.874	1096.75
733.301	1103.75
738.722	1083.75
744.137	1081.75
749.547	1082.75
754.951	1081.75
760.349	1098.75
765.741	1100.75
771.128	1101.75
776.509	1103.75
781.885	1130.75
787.254	1140.75
792.618	1150.75
797.977	1157.75
803.33	1140.75
808.677	1129.75
814.019	1132.75
819.355	1118.75
824.686	1090.75
830.011	1080.75
835.33	1086.75
840.644	1085.75
845.952	1058.75
851.255	1066.75
856.552	1060.75
861.844	1045.75
867.13	1019.75
872.41	1002.75
877.686	1012.75
882.955	1002.75
888.219	999.75
893.478	969.75
898.731	976.75
903.979	959.75
909.221	946.75
914.458	933.75
919.69	926.75
924.916	933.75
930.136	948.75
935.351	941.75
940.561	958.75
945.766	944.75
950.965	946.75
956.158	914.75
961.347	903.75
966.529	906.75
971.707	911.75
976.879	895.75
982.046	864.75
987.208	868.75
992.364	876.75
997.515	866.75
1002.66	873.75
1007.801	875.75
1012.936	898.75
1018.066	878.75
1023.19	898.75
1028.309	903.75
1033.423	896.75
1038.532	922.75
1043.636	885.75
1048.734	890.75
1053.827	877.75
1058.915	866.75
1063.998	866.75
1069.075	853.75
1074.147	867.75
1079.214	847.75
1084.276	873.75
1089.333	870.75
1094.385	875.75
1099.431	860.75
1104.472	858.75
1109.509	844.75
1114.54	823.75
1119.565	813.75
1124.586	816.75
1129.602	793.75
1134.613	780.75
1139.618	789.75
1144.619	785.75
1149.614	793.75
1154.604	785.75
1159.589	794.75
1164.57	812.75
1169.545	813.75
1174.515	803.75
1179.48	797.75
1184.44	800.75
1189.395	817.75
1194.345	773.75
1199.29	770.75
1204.23	772.75
1209.165	766.75
1214.095	788.75
1219.021	769.75
1223.941	775.75
1228.856	789.75
1233.766	781.75
1238.672	812.75
1243.572	792.75
1248.467	780.75
1253.358	770.75
1258.244	735.75
1263.124	757.75
1268	747.75
1272.871	721.75
1277.737	711.75
1282.599	716.75
1287.455	698.75
1292.306	705.75
1297.153	706.75
1301.995	720.75
1306.832	724.75
1311.664	718.75
1316.491	718.75
1321.314	719.75
1326.132	705.75
1330.945	709.75
1335.753	678.75
1340.556	684.75
1345.354	673.75
1350.148	648.75
1354.937	657.75
1359.722	645.75
1364.501	630.75
1369.276	637.75
1374.046	645.75
1378.811	619.75
1383.572	626.75
1388.327	632.75
1393.079	618.75
1397.825	614.75
1402.567	608.75
1407.304	618.75
1412.036	605.75
1416.764	611.75
1421.487	594.75
1426.205	587.75
1430.919	601.75
1435.628	610.75
1440.333	600.75
1445.032	612.75
1449.727	615.75
1454.418	626.75
1459.104	623.75
1463.785	597.75
1468.462	605.75
1473.134	600.75
1477.802	574.75
1482.465	547.75
1487.123	573.75
1491.777	533.75
1496.426	529.75
1501.071	553.75
1505.711	556.75
1510.347	560.75
1514.978	569.75
1519.604	560.75
1524.226	569.75
1528.844	548.75
1533.457	548.75
1538.065	554.75
1542.669	560.75
1547.269	548.75
1551.864	543.75
1556.454	535.75
1561.041	534.75
1565.622	538.75
1570.199	552.75
1574.772	552.75
1579.34	558.75
1583.904	557.75
1588.464	574.75
1593.019	574.75
1597.569	548.75
1602.115	568.75
1606.657	561.75
1611.195	568.75
1615.728	561.75
1620.256	549.75
1624.78	538.75
1629.3	545.75
1633.816	553.75
1638.327	543.75
1642.834	554.75
1647.336	554.75
1651.834	570.75
1656.328	561.75
1660.817	563.75
1665.302	539.75
1669.783	537.75
1674.259	524.75
1678.732	519.75
1683.199	502.75
1687.663	481.75
1692.122	484.75
1696.577	471.75
1701.028	467.75
1705.474	449.75
1709.917	425.75
1714.355	425.75
1718.788	435.75
1723.218	410.75
1727.643	403.75
1732.064	414.75
1736.481	394.75
1740.893	402.75
1745.301	394.75
1749.705	362.75
1754.105	383.75
1758.501	364.75
1762.893	375.75
1767.28	345.75
1771.663	351.75
1776.042	339.75
1780.417	337.75
1784.787	346.75
1789.154	351.75
1793.516	335.75
1797.874	341.75
1802.228	320.75
1806.578	315.75
1810.924	339.75
1815.266	211.75
1819.603	338.75
1823.937	309.75
1828.266	323.75
1832.591	326.75
1836.913	316.75
1841.23	311.75
1845.543	312.75
1849.852	323.75
1854.156	311.75
1858.457	314.75
1862.754	313.75
1867.047	307.75
1871.335	322.75
1875.62	327.75
1879.9	320.75
1884.177	310.75
1888.449	308.75
1892.718	300.75
1896.982	317.75
1901.243	289.75
1905.499	300.75
1909.752	293.75
1914	260.75
1918.245	298.75
1922.485	297.75
1926.722	289.75
1930.954	278.75
1935.183	295.75
1939.408	299.75
1943.628	283.75
1947.845	288.75
1952.058	286.75
1956.267	275.75
1960.472	290.75
1964.673	282.75
1968.87	270.75
1973.063	270.75
1977.252	267.75
1981.438	257.75
1985.619	256.75
1989.797	252.75
1993.971	263.75
1998.14	264.75
2002.306	255.75
2006.469	258.75
2010.627	246.75
2014.781	251.75
2018.932	250.75
2023.078	267.75
2027.221	258.75
2031.36	243.75
2035.495	245.75
2039.627	240.75
2043.754	242.75
2047.878	235.75
2051.998	242.75
2056.114	233.75
2060.226	224.75
2064.334	235.75
2068.439	243.75
2072.54	251.75
2076.637	220.75
2080.73	233.75
2084.82	228.75
2088.906	226.75
2092.988	233.75
2097.066	236.75
2101.14	238.75
2105.211	232.75
2109.278	223.75
2113.342	221.75
2117.401	211.75
2121.457	202.75
2125.509	209.75
2129.558	215.75
2133.602	217.75
2137.643	208.75
2141.681	211.75
2145.714	206.75
2149.744	207.75
2153.77	212.75
2157.793	197.75
2161.812	175.75
2165.827	182.75
2169.838	206.75
2173.846	188.75
2177.851	183.75
2181.851	197.75
2185.848	181.75
2189.841	187.75
2193.831	184.75
2197.817	181.75
2201.799	179.75
2205.778	170.75
2209.753	163.75
2213.725	167.75
2217.693	172.75
2221.657	161.75
2225.618	177.75
2229.575	174.75
2233.529	173.75
2237.479	173.75
2241.425	158.75
2245.368	153.75
2249.307	164.75
2253.243	161.75
2257.175	163.75
2261.104	147.75
2265.029	156.75
2268.95	154.75
2272.868	146.75
2276.783	139.75
2280.694	146.75
2284.601	144.75
2288.505	142.75
2292.405	145.75
2296.302	126.75
2300.195	134.75
2304.085	108.75
2307.971	130.75
2311.854	117.75
2315.734	129.75
2319.609	129.75
2323.482	107.75
2327.351	116.75
2331.216	118.75
2335.078	121.75
2338.937	122.75
2342.792	112.75
2346.643	112.75
2350.492	121.75
2354.336	122.75
2358.178	120.75
2362.015	118.75
2365.85	116.75
2369.681	119.75
2373.508	121.75
2377.333	122.75
2381.153	121.75
2384.971	113.75
2388.785	118.75
2392.595	111.75
2396.402	105.75
2400.206	90.75
2404.007	102.75
2407.804	101.75
2411.597	110.75
2415.388	99.75
2419.174	98.75
2422.958	107.75
2426.738	104.75
2430.515	108.75
2434.289	102.75
2438.059	92.75
2441.825	99.75
2445.589	103.75
2449.349	86.75
2453.106	101.75
2456.859	97.75
2460.61	104.75
2464.356	87.75
2468.1	86.75
2471.84	86.75
2475.577	83.75
2479.311	79.75
2483.041	87.75
2486.768	99.75
2490.492	99.75
2494.213	84.75
2497.93	72.75
2501.644	72.75
2505.355	89.75
2509.062	76.75
2512.766	80.75
2516.467	77.75
2520.165	78.75
2523.859	65.75
2527.551	103.75
2531.239	70.75
2534.923	77.75
2538.605	77.75
2542.283	81.75
2545.958	86.75
2549.63	87.75
2553.299	83.75
2556.964	67.75
2560.626	68.75
2564.285	75.75
2567.941	63.75
2571.594	66.75
2575.243	72.75
2578.89	68.75
2582.533	65.75
2586.173	68.75
2589.809	68.75
2593.443	45.75
2597.073	64.75
2600.701	67.75
2604.325	67.75
2607.946	53.75
2611.564	75.75
2615.178	72.75
2618.79	71.75
2622.398	61.75
2626.004	65.75
2629.606	65.75
2633.205	53.75
2636.801	66.75
2640.394	61.75
2643.983	57.75
2647.57	51.75
2651.153	49.75
2654.734	60.75
2658.311	33.75
2661.885	46.75
2665.456	52.75
2669.025	54.75
2672.589	45.75
2676.151	63.75
2679.71	59.75
2683.266	52.75
2686.819	44.75
2690.368	54.75
2693.915	57.75
2697.458	53.75
2700.999	58.75
2704.536	52.75
2708.071	51.75
2711.602	53.75
2715.13	45.75
2718.656	27.75
2722.178	40.75
2725.697	34.75
2729.214	37.75
2732.727	45.75
2736.237	26.75
2739.744	34.75
2743.249	32.75
2746.75	32.75
2750.248	31.75
2753.743	38.75
2757.236	42.75
2760.725	44.75
2764.211	14.75
2767.695	43.75
2771.175	37.75
2774.652	37.75
2778.127	31.75
2781.598	37.75
2785.067	43.75
2788.532	29.75
2791.995	40.75
2795.455	25.75
2798.911	43.75
2802.365	26.75
2805.816	41.75
2809.264	42.75
2812.709	31.75
2816.151	43.75
2819.59	23.75
2823.026	34.75
2826.46	28.75
2829.89	43.75
2833.318	19.75
2836.742	28.75
2840.164	38.75
2843.583	36.75
2846.999	39.75
2850.412	39.75
2853.822	31.75
2857.229	50.75
2860.634	39.75
2864.035	20.75
2867.434	49.75
2870.83	47.75
2874.223	36.75
2877.613	37.75
2881	31.75
2884.385	37.75
2887.766	36.75
2891.145	43.75
2894.521	29.75
2897.894	27.75
2901.264	46.75
2904.631	42.75
2907.996	48.75
2911.358	53.75
2914.717	46.75
2918.073	48.75
2921.426	43.75
2924.777	27.75
2928.124	46.75
2931.469	60.75
2934.811	44.75
2938.15	65.75
2941.487	54.75
2944.821	64.75
2948.152	52.75
2951.48	64.75
2954.805	36.75
2958.128	63.75
2961.447	39.75
2964.765	69.75
2968.079	54.75
2971.39	56.75
2974.699	60.75
2978.005	53.75
2981.308	56.75
2984.609	47.75
2987.907	59.75
2991.202	70.75
2994.494	49.75
2997.784	61.75
3001.07	63.75
3004.355	59.75
3007.636	67.75
3010.915	68.75
3014.191	62.75
3017.464	66.75
3020.734	64.75
3024.002	66.75
3027.267	69.75
3030.53	71.75
3033.789	69.75
3037.046	72.75
3040.301	61.75
3043.552	80.75
3046.801	79.75
3050.048	85.75
3053.291	100.75
3056.532	86.75
3059.771	72.75
3063.006	87.75
3066.239	85.75
3069.469	96.75
3072.697	89.75
3075.922	93.75
3079.144	89.75
3082.364	114.75
3085.581	98.75
3088.795	115.75
3092.007	115.75
3095.216	123.75
3098.423	114.75
3101.627	88.75
3104.828	126.75
3108.026	110.75
3111.222	135.75
3114.416	146.75
3117.607	135.75
3120.795	129.75
3123.98	131.75
3127.163	131.75
3130.344	139.75
3133.521	134.75
3136.696	156.75
3139.869	153.75
3143.039	139.75
3146.206	170.75
3149.371	165.75
3152.533	166.75
3155.693	151.75
3158.85	167.75
3162.005	167.75
3165.157	170.75
3168.306	162.75
3171.453	181.75
3174.597	161.75
3177.739	159.75
3180.878	173.75
3184.014	179.75
3187.149	170.75
3190.28	169.75
3193.409	177.75
3196.536	178.75
3199.659	178.75
3202.781	188.75
3205.9	165.75
3209.016	176.75
3212.13	171.75
3215.241	176.75
3218.35	175.75
3221.456	165.75
3224.56	153.75
3227.661	161.75
3230.76	159.75
3233.856	154.75
3236.95	169.75
3240.041	156.75
3243.13	164.75
3246.216	161.75
3249.3	164.75
3252.382	158.75
3255.46	146.75
3258.537	102.75
3261.611	137.75
3264.682	150.75
3267.751	144.75
3270.818	133.75
3273.882	150.75
3276.943	148.75
3280.002	157.75
3283.059	139.75
3286.113	136.75
3289.165	138.75
3292.214	132.75
3295.261	142.75
3298.306	126.75
3301.348	136.75
3304.387	122.75
3307.425	138.75
3310.459	132.75
3313.492	142.75
3316.521	132.75
3319.549	138.75
3322.574	136.75
3325.597	122.75
3328.617	119.75
3331.635	129.75
3334.65	108.75
3337.663	125.75
3340.674	122.75
3343.682	120.75
3346.688	125.75
3349.691	115.75
3352.692	117.75
3355.691	122.75
3358.687	121.75
3361.681	116.75
3364.673	112.75
3367.662	120.75
3370.649	127.75
3373.633	111.75
3376.615	117.75
3379.595	94.75
3382.572	107.75
3385.547	97.75
3388.52	97.75
3391.49	104.75
3394.458	103.75
3397.424	106.75
3400.387	88.75
3403.348	103.75
3406.307	96.75
3409.263	92.75
3412.217	101.75
3415.168	96.75
3418.118	99.75
3421.065	87.75
3424.009	100.75
3426.951	83.75
3429.891	87.75
3432.829	86.75
3435.764	84.75
3438.697	78.75
3441.628	90.75
3444.557	66.75
3447.483	64.75
3450.407	78.75
3453.328	64.75
3456.247	66.75
3459.164	50.75
3462.079	77.75
3464.991	55.75
3467.902	58.75
3470.809	55.75
3473.715	57.75
3476.618	46.75
3479.519	48.75
3482.418	30.75
3485.315	35.75
3488.209	42.75
3491.101	36.75
3493.99	24.75
3496.878	32.75
3499.763	34.75
3502.646	27.75
3505.527	20.75
3508.405	23.75
3511.281	12.75
3514.155	22.75
3517.027	16.75
3519.897	6.75
3522.764	21.75
3525.629	-1.25
3528.492	11.75
3531.352	16.75
3534.211	10.75
3537.067	3.75
3539.921	8.75
3542.773	10.75
3545.622	-2.25
3548.469	-11.25
3551.315	-11.25
3554.157	1.75
3556.998	-10.25
3559.837	-4.25
3562.673	-0.25
3565.507	-10.25
3568.339	-21.25
3571.169	-11.25
3573.996	-10.25
3576.822	-23.25
3579.645	-22.25
3582.466	-18.25
3585.285	-7.25
3588.101	-14.25
3590.916	-23.25
3593.728	-14.25
3596.538	-20.25
3599.346	-11.25
3602.152	-27.25
3604.956	-18.25
3607.757	-13.25
3610.556	-27.25
3613.354	-14.25
3616.149	-18.25
3618.942	-16.25
3621.732	-12.25
3624.521	-21.25
3627.307	-29.25
3630.092	-26.25
3632.874	-12.25
3635.654	-26.25
3638.432	-30.25
3641.208	-27.25
3643.982	-26.25
3646.753	-17.25
3649.523	-48.25
3652.29	-30.25
3655.055	-24.25
3657.818	-25.25
3660.579	-27.25
3663.338	-37.25
3666.095	-33.25
3668.849	-57.25
3671.602	-21.25
3674.352	-40.25
3677.101	-26.25
3679.847	-24.25
3682.591	-37.25
3685.333	-41.25
3688.073	-24.25
3690.811	-39.25
3693.547	-41.25
3696.281	-44.25
3699.013	-34.25
3701.742	-39.25
3704.47	-45.25
3707.195	-25.25
3709.919	-31.25
3712.64	-33.25
3715.359	-42.25
3718.076	-29.25
3720.792	-33.25
3723.505	-28.25
3726.216	-24.25
3728.925	-37.25
3731.632	-45.25
3734.336	-35.25
3737.039	-38.25
3739.74	-30.25
3742.439	-61.25
3745.136	-32.25
3747.83	-29.25
3750.523	-29.25
3753.213	-89.25
3755.902	-34.25
3758.589	-48.25
3761.273	-34.25
3763.956	-27.25
3766.636	-53.25
3769.315	-27.25
3771.991	-37.25
3774.665	-39.25
3777.338	-35.25
3780.008	-43.25
3782.677	-37.25
3785.343	-52.25
3788.007	-53.25
3790.67	-29.25
3793.33	-49.25
3795.989	-36.25
3798.645	-33.25
3801.299	-47.25
3803.952	-48.25
3806.602	-37.25
3809.251	-28.25
3811.897	-37.25
3814.542	-40.25
3817.184	-41.25
3819.825	-39.25
3822.463	-45.25
3825.1	-42.25
3827.735	-37.25
3830.367	-46.25
3832.998	-21.25
3835.627	-38.25
3838.253	-30.25
3840.878	-39.25
3843.501	-24.25
3846.122	-33.25
3848.741	-24.25
3851.358	-28.25
3853.973	-49.25
3856.586	-26.25
3859.197	-42.25
3861.806	-35.25
3864.414	-49.25
3867.019	-37.25
3869.622	-25.25
3872.224	-24.25
3874.823	-15.25
3877.421	3.75
3880.016	9.75
3882.61	46.75
3885.202	50.75
3887.792	38.75
3890.38	10.75
3892.966	-21.25
3895.55	-36.25
3898.132	-26.25
3900.713	-25.25
3903.291	-30.25
3905.868	-35.25
3908.442	-35.25
3911.015	-33.25
3913.586	-41.25
3916.155	-36.25
3918.722	-42.25
3921.287	-44.25
3923.85	-47.25
3926.411	-43.25
3928.971	-42.25
3931.528	-29.25
3934.084	-39.25
3936.638	-44.25
3939.19	-29.25
3941.74	-34.25
3944.288	-37.25
3946.834	-32.25
3949.378	-30.25
3951.921	-39.25
3954.462	-35.25
3957	-32.25
3959.537	-22.25
3962.072	-38.25
3964.606	-45.25
3967.137	-37.25
3969.667	-42.25
3972.194	-34.25
3974.72	-40.25
3977.244	-58.25
3979.766	-40.25
3982.286	-40.25
3984.805	-30.25
3987.321	-25.25
3989.836	-32.25
3992.349	-43.25
3994.86	-32.25
3997.369	-41.25
3999.877	-39.25
4002.382	-41.25
4004.886	-31.25
4007.388	-35.25
4009.888	-25.25
4012.386	-29.25
4014.883	-34.25
4017.377	-34.25
4019.87	-32.25
4022.361	-38.25
4024.85	-30.25
4027.338	-31.25
4029.823	-42.25
4032.307	-34.25
4034.789	-31.25
4037.269	-32.25
4039.747	-43.25
4042.224	-22.25
4044.699	-37.25
4047.172	-39.25
4049.643	-20.25
4052.112	-59.25
4054.58	-31.25
4057.046	-41.25
4059.51	-32.25
4061.972	-37.25
4064.432	-54.25
4066.891	-22.25
4069.348	-32.25
4071.803	-29.25
4074.256	-38.25
4076.708	-32.25
4079.158	-34.25
4081.606	-21.25
4084.052	-33.25
4086.497	-33.25
4088.939	-32.25
4091.38	-35.25
4093.819	-26.25
4096.257	-1.25
4098.693	-7.25
4101.127	-4.25
4103.559	-0.25
4105.989	57.75
4108.418	63.75
4110.845	54.75
4113.27	60.75
4115.694	61.75
4118.115	51.75
4120.535	-23.25
4122.954	-33.25
4125.37	-25.25
4127.785	-32.25
4130.198	-24.25
4132.609	-32.25
4135.019	7.75
4137.427	1.75
4139.833	6.75
4142.237	-3.25
