Data from 2018-3-6_conc=2_n=5_RamanShift_04.txt Node
Date: Tue Mar 06 12:55:49 GMT+02:00 2018
User: LAB3
Spectrometer: QEPB0276
Trigger mode: 0
Integration Time (sec): 3.000000E1
Scans to average: 1
Electric dark correction enabled: true
Nonlinearity correction enabled: false
Boxcar width: 0
XAxis mode: Raman Shifts
Number of Pixels in Spectrum: 1044
>>>>>Begin Spectral Data<<<<<
160.701	153.62
166.742	193.62
172.777	301.62
178.805	607.62
184.826	1368.62
190.841	2757.62
196.849	4373.62
202.85	5646.62
208.845	6109.62
214.833	6097.62
220.815	6050.62
226.789	6055.62
232.758	6112.62
238.719	6111.62
244.674	6099.62
250.623	6042.62
256.565	5990.62
262.5	5962.62
268.429	5915.62
274.351	5893.62
280.267	5924.62
286.176	5929.62
292.079	5918.62
297.975	5952.62
303.865	5957.62
309.748	5974.62
315.625	5970.62
321.495	6005.62
327.359	5984.62
333.217	6044.62
339.068	6051.62
344.912	6093.62
350.751	6105.62
356.583	6127.62
362.408	6136.62
368.227	6198.62
374.04	6201.62
379.847	6250.62
385.647	6286.62
391.44	6320.62
397.228	6345.62
403.009	6407.62
408.784	6418.62
414.553	6456.62
420.315	6486.62
426.071	6448.62
431.821	6450.62
437.565	6455.62
443.302	6439.62
449.033	6382.62
454.758	6388.62
460.477	6298.62
466.189	6238.62
471.896	6208.62
477.596	6158.62
483.29	6141.62
488.978	6089.62
494.66	6063.62
500.335	5929.62
506.005	5661.62
511.668	5353.62
517.325	5091.62
522.977	4860.62
528.622	4708.62
534.261	4587.62
539.894	4473.62
545.521	4444.62
551.141	4337.62
556.756	4328.62
562.365	4278.62
567.968	4245.62
573.565	4197.62
579.155	4185.62
584.74	4146.62
590.319	4150.62
595.892	4144.62
601.459	4169.62
607.02	4134.62
612.575	4112.62
618.124	4066.62
623.667	3981.62
629.204	3926.62
634.735	3876.62
640.261	3838.62
645.781	3787.62
651.294	3790.62
656.802	3774.62
662.304	3768.62
667.8	3773.62
673.29	3754.62
678.775	3726.62
684.254	3678.62
689.726	3687.62
695.193	3679.62
700.655	3670.62
706.11	3615.62
711.56	3594.62
717.004	3588.62
722.442	3556.62
727.874	3580.62
733.301	3542.62
738.722	3530.62
744.137	3538.62
749.547	3512.62
754.951	3526.62
760.349	3538.62
765.741	3568.62
771.128	3567.62
776.509	3620.62
781.885	3703.62
787.254	3719.62
792.618	3724.62
797.977	3723.62
803.33	3705.62
808.677	3648.62
814.019	3657.62
819.355	3579.62
824.686	3562.62
830.011	3546.62
835.33	3538.62
840.644	3528.62
845.952	3454.62
851.255	3462.62
856.552	3395.62
861.844	3393.62
867.13	3358.62
872.41	3322.62
877.686	3285.62
882.955	3268.62
888.219	3239.62
893.478	3203.62
898.731	3185.62
903.979	3094.62
909.221	3075.62
914.458	3034.62
919.69	3027.62
924.916	3049.62
930.136	3050.62
935.351	3055.62
940.561	3081.62
945.766	3058.62
950.965	3028.62
956.158	3012.62
961.347	2975.62
966.529	2943.62
971.707	2895.62
976.879	2881.62
982.046	2848.62
987.208	2816.62
992.364	2842.62
997.515	2837.62
1002.66	2862.62
1007.801	2904.62
1012.936	2908.62
1018.066	2914.62
1023.19	2939.62
1028.309	2962.62
1033.423	2952.62
1038.532	2977.62
1043.636	2951.62
1048.734	2898.62
1053.827	2882.62
1058.915	2853.62
1063.998	2829.62
1069.075	2819.62
1074.147	2807.62
1079.214	2828.62
1084.276	2858.62
1089.333	2837.62
1094.385	2842.62
1099.431	2819.62
1104.472	2844.62
1109.509	2770.62
1114.54	2763.62
1119.565	2714.62
1124.586	2661.62
1129.602	2634.62
1134.613	2612.62
1139.618	2582.62
1144.619	2613.62
1149.614	2604.62
1154.604	2591.62
1159.589	2595.62
1164.57	2614.62
1169.545	2640.62
1174.515	2625.62
1179.48	2620.62
1184.44	2602.62
1189.395	2593.62
1194.345	2551.62
1199.29	2538.62
1204.23	2525.62
1209.165	2552.62
1214.095	2554.62
1219.021	2582.62
1223.941	2595.62
1228.856	2571.62
1233.766	2604.62
1238.672	2588.62
1243.572	2573.62
1248.467	2546.62
1253.358	2522.62
1258.244	2476.62
1263.124	2451.62
1268	2422.62
1272.871	2369.62
1277.737	2343.62
1282.599	2328.62
1287.455	2330.62
1292.306	2335.62
1297.153	2318.62
1301.995	2357.62
1306.832	2343.62
1311.664	2379.62
1316.491	2347.62
1321.314	2365.62
1326.132	2335.62
1330.945	2314.62
1335.753	2259.62
1340.556	2229.62
1345.354	2187.62
1350.148	2169.62
1354.937	2141.62
1359.722	2120.62
1364.501	2087.62
1369.276	2127.62
1374.046	2114.62
1378.811	2094.62
1383.572	2074.62
1388.327	2079.62
1393.079	2062.62
1397.825	2032.62
1402.567	2033.62
1407.304	2022.62
1412.036	2011.62
1416.764	2019.62
1421.487	2000.62
1426.205	2008.62
1430.919	2011.62
1435.628	1986.62
1440.333	1999.62
1445.032	2043.62
1449.727	2055.62
1454.418	2066.62
1459.104	2068.62
1463.785	2027.62
1468.462	1992.62
1473.134	1960.62
1477.802	1952.62
1482.465	1890.62
1487.123	1879.62
1491.777	1856.62
1496.426	1866.62
1501.071	1873.62
1505.711	1883.62
1510.347	1902.62
1514.978	1898.62
1519.604	1908.62
1524.226	1917.62
1528.844	1902.62
1533.457	1888.62
1538.065	1891.62
1542.669	1832.62
1547.269	1833.62
1551.864	1822.62
1556.454	1803.62
1561.041	1816.62
1565.622	1818.62
1570.199	1838.62
1574.772	1846.62
1579.34	1868.62
1583.904	1888.62
1588.464	1892.62
1593.019	1877.62
1597.569	1878.62
1602.115	1865.62
1606.657	1869.62
1611.195	1867.62
1615.728	1855.62
1620.256	1849.62
1624.78	1820.62
1629.3	1842.62
1633.816	1849.62
1638.327	1859.62
1642.834	1864.62
1647.336	1886.62
1651.834	1904.62
1656.328	1901.62
1660.817	1886.62
1665.302	1879.62
1669.783	1839.62
1674.259	1821.62
1678.732	1782.62
1683.199	1753.62
1687.663	1689.62
1692.122	1670.62
1696.577	1646.62
1701.028	1618.62
1705.474	1570.62
1709.917	1538.62
1714.355	1531.62
1718.788	1530.62
1723.218	1476.62
1727.643	1454.62
1732.064	1463.62
1736.481	1425.62
1740.893	1410.62
1745.301	1377.62
1749.705	1326.62
1754.105	1324.62
1758.501	1289.62
1762.893	1283.62
1767.28	1231.62
1771.663	1240.62
1776.042	1208.62
1780.417	1222.62
1784.787	1222.62
1789.154	1238.62
1793.516	1219.62
1797.874	1231.62
1802.228	1216.62
1806.578	1218.62
1810.924	1213.62
1815.266	1107.62
1819.603	1188.62
1823.937	1154.62
1828.266	1137.62
1832.591	1138.62
1836.913	1122.62
1841.23	1117.62
1845.543	1112.62
1849.852	1129.62
1854.156	1110.62
1858.457	1100.62
1862.754	1115.62
1867.047	1140.62
1871.335	1124.62
1875.62	1129.62
1879.9	1128.62
1884.177	1121.62
1888.449	1114.62
1892.718	1105.62
1896.982	1131.62
1901.243	1091.62
1905.499	1093.62
1909.752	1082.62
1914	1071.62
1918.245	1097.62
1922.485	1100.62
1926.722	1102.62
1930.954	1092.62
1935.183	1104.62
1939.408	1105.62
1943.628	1109.62
1947.845	1090.62
1952.058	1092.62
1956.267	1059.62
1960.472	1056.62
1964.673	1033.62
1968.87	1006.62
1973.063	1004.62
1977.252	983.62
1981.438	977.62
1985.619	956.62
1989.797	934.62
1993.971	939.62
1998.14	951.62
2002.306	952.62
2006.469	944.62
2010.627	942.62
2014.781	923.62
2018.932	930.62
2023.078	944.62
2027.221	922.62
2031.36	901.62
2035.495	893.62
2039.627	888.62
2043.754	877.62
2047.878	864.62
2051.998	869.62
2056.114	868.62
2060.226	874.62
2064.334	867.62
2068.439	884.62
2072.54	880.62
2076.637	864.62
2080.73	875.62
2084.82	878.62
2088.906	876.62
2092.988	876.62
2097.066	872.62
2101.14	870.62
2105.211	866.62
2109.278	846.62
2113.342	831.62
2117.401	821.62
2121.457	806.62
2125.509	805.62
2129.558	817.62
2133.602	781.62
2137.643	798.62
2141.681	782.62
2145.714	787.62
2149.744	776.62
2153.77	777.62
2157.793	751.62
2161.812	739.62
2165.827	725.62
2169.838	739.62
2173.846	705.62
2177.851	703.62
2181.851	713.62
2185.848	703.62
2189.841	687.62
2193.831	683.62
2197.817	673.62
2201.799	678.62
2205.778	653.62
2209.753	642.62
2213.725	650.62
2217.693	652.62
2221.657	653.62
2225.618	657.62
2229.575	651.62
2233.529	634.62
2237.479	631.62
2241.425	609.62
2245.368	602.62
2249.307	601.62
2253.243	595.62
2257.175	597.62
2261.104	569.62
2265.029	576.62
2268.95	563.62
2272.868	552.62
2276.783	538.62
2280.694	554.62
2284.601	539.62
2288.505	537.62
2292.405	531.62
2296.302	513.62
2300.195	518.62
2304.085	477.62
2307.971	504.62
2311.854	476.62
2315.734	484.62
2319.609	485.62
2323.482	449.62
2327.351	457.62
2331.216	465.62
2335.078	468.62
2338.937	463.62
2342.792	452.62
2346.643	431.62
2350.492	465.62
2354.336	451.62
2358.178	448.62
2362.015	462.62
2365.85	455.62
2369.681	447.62
2373.508	450.62
2377.333	457.62
2381.153	454.62
2384.971	450.62
2388.785	444.62
2392.595	429.62
2396.402	433.62
2400.206	413.62
2404.007	420.62
2407.804	430.62
2411.597	428.62
2415.388	421.62
2419.174	420.62
2422.958	424.62
2426.738	421.62
2430.515	414.62
2434.289	405.62
2438.059	406.62
2441.825	396.62
2445.589	415.62
2449.349	393.62
2453.106	396.62
2456.859	393.62
2460.61	398.62
2464.356	371.62
2468.1	375.62
2471.84	373.62
2475.577	364.62
2479.311	362.62
2483.041	359.62
2486.768	380.62
2490.492	375.62
2494.213	366.62
2497.93	359.62
2501.644	356.62
2505.355	366.62
2509.062	361.62
2512.766	361.62
2516.467	352.62
2520.165	358.62
2523.859	337.62
2527.551	370.62
2531.239	345.62
2534.923	339.62
2538.605	341.62
2542.283	349.62
2545.958	345.62
2549.63	353.62
2553.299	353.62
2556.964	328.62
2560.626	339.62
2564.285	333.62
2567.941	311.62
2571.594	322.62
2575.243	333.62
2578.89	322.62
2582.533	320.62
2586.173	311.62
2589.809	323.62
2593.443	289.62
2597.073	308.62
2600.701	310.62
2604.325	306.62
2607.946	294.62
2611.564	310.62
2615.178	297.62
2618.79	294.62
2622.398	288.62
2626.004	294.62
2629.606	294.62
2633.205	279.62
2636.801	284.62
2640.394	285.62
2643.983	269.62
2647.57	264.62
2651.153	260.62
2654.734	274.62
2658.311	243.62
2661.885	255.62
2665.456	263.62
2669.025	256.62
2672.589	247.62
2676.151	269.62
2679.71	261.62
2683.266	249.62
2686.819	241.62
2690.368	247.62
2693.915	250.62
2697.458	241.62
2700.999	242.62
2704.536	236.62
2708.071	226.62
2711.602	238.62
2715.13	224.62
2718.656	208.62
2722.178	231.62
2725.697	217.62
2729.214	219.62
2732.727	217.62
2736.237	210.62
2739.744	216.62
2743.249	215.62
2746.75	221.62
2750.248	214.62
2753.743	211.62
2757.236	218.62
2760.725	220.62
2764.211	190.62
2767.695	224.62
2771.175	207.62
2774.652	209.62
2778.127	205.62
2781.598	208.62
2785.067	209.62
2788.532	199.62
2791.995	210.62
2795.455	202.62
2798.911	219.62
2802.365	201.62
2805.816	213.62
2809.264	220.62
2812.709	207.62
2816.151	219.62
2819.59	203.62
2823.026	207.62
2826.46	216.62
2829.89	223.62
2833.318	188.62
2836.742	212.62
2840.164	215.62
2843.583	208.62
2846.999	217.62
2850.412	217.62
2853.822	213.62
2857.229	228.62
2860.634	225.62
2864.035	207.62
2867.434	234.62
2870.83	244.62
2874.223	233.62
2877.613	238.62
2881	235.62
2884.385	235.62
2887.766	235.62
2891.145	243.62
2894.521	252.62
2897.894	230.62
2901.264	255.62
2904.631	233.62
2907.996	249.62
2911.358	252.62
2914.717	247.62
2918.073	243.62
2921.426	248.62
2924.777	237.62
2928.124	254.62
2931.469	273.62
2934.811	259.62
2938.15	285.62
2941.487	279.62
2944.821	303.62
2948.152	268.62
2951.48	283.62
2954.805	266.62
2958.128	289.62
2961.447	272.62
2964.765	286.62
2968.079	275.62
2971.39	285.62
2974.699	278.62
2978.005	286.62
2981.308	283.62
2984.609	280.62
2987.907	300.62
2991.202	297.62
2994.494	284.62
2997.784	295.62
3001.07	314.62
3004.355	298.62
3007.636	304.62
3010.915	313.62
3014.191	304.62
3017.464	311.62
3020.734	310.62
3024.002	312.62
3027.267	312.62
3030.53	315.62
3033.789	323.62
3037.046	316.62
3040.301	319.62
3043.552	346.62
3046.801	337.62
3050.048	355.62
3053.291	374.62
3056.532	360.62
3059.771	360.62
3063.006	394.62
3066.239	390.62
3069.469	417.62
3072.697	408.62
3075.922	413.62
3079.144	419.62
3082.364	453.62
3085.581	441.62
3088.795	468.62
3092.007	473.62
3095.216	467.62
3098.423	488.62
3101.627	470.62
3104.828	503.62
3108.026	500.62
3111.222	536.62
3114.416	543.62
3117.607	547.62
3120.795	555.62
3123.98	562.62
3127.163	561.62
3130.344	590.62
3133.521	590.62
3136.696	633.62
3139.869	626.62
3143.039	628.62
3146.206	649.62
3149.371	659.62
3152.533	660.62
3155.693	657.62
3158.85	675.62
3162.005	682.62
3165.157	666.62
3168.306	673.62
3171.453	687.62
3174.597	670.62
3177.739	661.62
3180.878	682.62
3184.014	687.62
3187.149	680.62
3190.28	694.62
3193.409	703.62
3196.536	688.62
3199.659	692.62
3202.781	704.62
3205.9	685.62
3209.016	686.62
3212.13	683.62
3215.241	683.62
3218.35	691.62
3221.456	678.62
3224.56	667.62
3227.661	662.62
3230.76	668.62
3233.856	657.62
3236.95	662.62
3240.041	645.62
3243.13	652.62
3246.216	651.62
3249.3	644.62
3252.382	641.62
3255.46	627.62
3258.537	587.62
3261.611	621.62
3264.682	639.62
3267.751	617.62
3270.818	620.62
3273.882	625.62
3276.943	622.62
3280.002	631.62
3283.059	595.62
3286.113	589.62
3289.165	600.62
3292.214	592.62
3295.261	589.62
3298.306	558.62
3301.348	571.62
3304.387	547.62
3307.425	557.62
3310.459	549.62
3313.492	542.62
3316.521	534.62
3319.549	538.62
3322.574	530.62
3325.597	525.62
3328.617	518.62
3331.635	510.62
3334.65	499.62
3337.663	505.62
3340.674	502.62
3343.682	504.62
3346.688	524.62
3349.691	496.62
3352.692	506.62
3355.691	511.62
3358.687	495.62
3361.681	497.62
3364.673	480.62
3367.662	496.62
3370.649	499.62
3373.633	470.62
3376.615	479.62
3379.595	443.62
3382.572	456.62
3385.547	451.62
3388.52	441.62
3391.49	444.62
3394.458	435.62
3397.424	430.62
3400.387	418.62
3403.348	437.62
3406.307	424.62
3409.263	421.62
3412.217	422.62
3415.168	412.62
3418.118	414.62
3421.065	409.62
3424.009	407.62
3426.951	403.62
3429.891	388.62
3432.829	385.62
3435.764	380.62
3438.697	368.62
3441.628	372.62
3444.557	340.62
3447.483	329.62
3450.407	341.62
3453.328	325.62
3456.247	317.62
3459.164	300.62
3462.079	315.62
3464.991	299.62
3467.902	289.62
3470.809	280.62
3473.715	278.62
3476.618	260.62
3479.519	263.62
3482.418	244.62
3485.315	242.62
3488.209	238.62
3491.101	244.62
3493.99	214.62
3496.878	219.62
3499.763	220.62
3502.646	210.62
3505.527	201.62
3508.405	192.62
3511.281	175.62
3514.155	190.62
3517.027	178.62
3519.897	164.62
3522.764	165.62
3525.629	146.62
3528.492	156.62
3531.352	146.62
3534.211	141.62
3537.067	129.62
3539.921	130.62
3542.773	129.62
3545.622	113.62
3548.469	105.62
3551.315	100.62
3554.157	101.62
3556.998	88.62
3559.837	90.62
3562.673	94.62
3565.507	81.62
3568.339	75.62
3571.169	75.62
3573.996	76.62
3576.822	57.62
3579.645	55.62
3582.466	59.62
3585.285	64.62
3588.101	62.62
3590.916	54.62
3593.728	54.62
3596.538	51.62
3599.346	47.62
3602.152	37.62
3604.956	42.62
3607.757	36.62
3610.556	26.62
3613.354	42.62
3616.149	34.62
3618.942	37.62
3621.732	37.62
3624.521	27.62
3627.307	13.62
3630.092	16.62
3632.874	30.62
3635.654	16.62
3638.432	14.62
3641.208	13.62
3643.982	13.62
3646.753	15.62
3649.523	-17.38
3652.29	1.62
3655.055	13.62
3657.818	7.62
3660.579	3.62
3663.338	-8.38
3666.095	-2.38
3668.849	-25.38
3671.602	7.62
3674.352	-11.38
3677.101	6.62
3679.847	0.62
3682.591	-11.38
3685.333	-21.38
3688.073	-6.38
3690.811	-19.38
3693.547	-24.38
3696.281	-21.38
3699.013	-10.38
3701.742	-16.38
3704.47	-22.38
3707.195	-7.38
3709.919	-13.38
3712.64	-20.38
3715.359	-29.38
3718.076	-6.38
3720.792	-20.38
3723.505	-14.38
3726.216	-4.38
3728.925	-20.38
3731.632	-22.38
3734.336	-24.38
3737.039	-20.38
3739.74	-19.38
3742.439	-45.38
3745.136	-14.38
3747.83	-16.38
3750.523	-17.38
3753.213	-85.38
3755.902	-23.38
3758.589	-37.38
3761.273	-30.38
3763.956	-13.38
3766.636	-38.38
3769.315	-10.38
3771.991	-17.38
3774.665	-26.38
3777.338	-21.38
3780.008	-36.38
3782.677	-26.38
3785.343	-43.38
3788.007	-45.38
3790.67	-16.38
3793.33	-34.38
3795.989	-35.38
3798.645	-24.38
3801.299	-35.38
3803.952	-34.38
3806.602	-33.38
3809.251	-18.38
3811.897	-22.38
3814.542	-34.38
3817.184	-32.38
3819.825	-24.38
3822.463	-40.38
3825.1	-32.38
3827.735	-28.38
3830.367	-35.38
3832.998	-13.38
3835.627	-32.38
3838.253	-20.38
3840.878	-25.38
3843.501	-15.38
3846.122	-25.38
3848.741	-22.38
3851.358	-15.38
3853.973	-37.38
3856.586	-20.38
3859.197	-32.38
3861.806	-27.38
3864.414	-39.38
3867.019	-30.38
3869.622	-20.38
3872.224	-11.38
3874.823	2.62
3877.421	35.62
3880.016	57.62
3882.61	111.62
3885.202	135.62
3887.792	93.62
3890.38	47.62
3892.966	2.62
3895.55	-20.38
3898.132	-20.38
3900.713	-19.38
3903.291	-26.38
3905.868	-36.38
3908.442	-28.38
3911.015	-31.38
3913.586	-35.38
3916.155	-33.38
3918.722	-39.38
3921.287	-39.38
3923.85	-43.38
3926.411	-34.38
3928.971	-35.38
3931.528	-24.38
3934.084	-33.38
3936.638	-44.38
3939.19	-31.38
3941.74	-26.38
3944.288	-33.38
3946.834	-35.38
3949.378	-25.38
3951.921	-36.38
3954.462	-33.38
3957	-30.38
3959.537	-15.38
3962.072	-33.38
3964.606	-48.38
3967.137	-31.38
3969.667	-35.38
3972.194	-26.38
3974.72	-35.38
3977.244	-50.38
3979.766	-37.38
3982.286	-39.38
3984.805	-29.38
3987.321	-21.38
3989.836	-26.38
3992.349	-39.38
3994.86	-29.38
3997.369	-35.38
3999.877	-37.38
4002.382	-33.38
4004.886	-26.38
4007.388	-30.38
4009.888	-20.38
4012.386	-25.38
4014.883	-28.38
4017.377	-30.38
4019.87	-24.38
4022.361	-39.38
4024.85	-27.38
4027.338	-24.38
4029.823	-35.38
4032.307	-29.38
4034.789	-29.38
4037.269	-27.38
4039.747	-42.38
4042.224	-24.38
4044.699	-40.38
4047.172	-28.38
4049.643	-27.38
4052.112	-55.38
4054.58	-28.38
4057.046	-41.38
4059.51	-28.38
4061.972	-23.38
4064.432	-49.38
4066.891	-17.38
4069.348	-25.38
4071.803	-24.38
4074.256	-35.38
4076.708	-25.38
4079.158	-29.38
4081.606	-18.38
4084.052	-30.38
4086.497	-20.38
4088.939	-28.38
4091.38	-29.38
4093.819	-25.38
4096.257	3.62
4098.693	-6.38
4101.127	-5.38
4103.559	-2.38
4105.989	140.62
4108.418	150.62
4110.845	130.62
4113.27	138.62
4115.694	150.62
4118.115	146.62
4120.535	-25.38
4122.954	-20.38
4125.37	-18.38
4127.785	-26.38
4130.198	-20.38
4132.609	-27.38
4135.019	10.62
4137.427	0.62
4139.833	2.62
4142.237	-3.38
