Data from 2018-3-6_conc=2_n=4_RamanShift_03.txt Node
Date: Tue Mar 06 12:52:19 GMT+02:00 2018
User: LAB3
Spectrometer: QEPB0276
Trigger mode: 0
Integration Time (sec): 3.000000E1
Scans to average: 1
Electric dark correction enabled: true
Nonlinearity correction enabled: false
Boxcar width: 0
XAxis mode: Raman Shifts
Number of Pixels in Spectrum: 1044
>>>>>Begin Spectral Data<<<<<
160.701	153.25
166.742	206.25
172.777	309.25
178.805	644.25
184.826	1476.25
190.841	2955.25
196.849	4709.25
202.85	6047.25
208.845	6574.25
214.833	6595.25
220.815	6497.25
226.789	6518.25
232.758	6557.25
238.719	6607.25
244.674	6569.25
250.623	6520.25
256.565	6491.25
262.5	6433.25
268.429	6436.25
274.351	6402.25
280.267	6403.25
286.176	6433.25
292.079	6429.25
297.975	6462.25
303.865	6459.25
309.748	6470.25
315.625	6492.25
321.495	6528.25
327.359	6537.25
333.217	6510.25
339.068	6576.25
344.912	6566.25
350.751	6620.25
356.583	6630.25
362.408	6659.25
368.227	6661.25
374.04	6748.25
379.847	6775.25
385.647	6809.25
391.44	6823.25
397.228	6893.25
403.009	6947.25
408.784	6925.25
414.553	6990.25
420.315	7015.25
426.071	7004.25
431.821	6997.25
437.565	6999.25
443.302	6978.25
449.033	6951.25
454.758	6897.25
460.477	6883.25
466.189	6794.25
471.896	6716.25
477.596	6678.25
483.29	6660.25
488.978	6634.25
494.66	6589.25
500.335	6390.25
506.005	6130.25
511.668	5834.25
517.325	5536.25
522.977	5314.25
528.622	5137.25
534.261	5021.25
539.894	4930.25
545.521	4851.25
551.141	4798.25
556.756	4742.25
562.365	4661.25
567.968	4682.25
573.565	4617.25
579.155	4599.25
584.74	4568.25
590.319	4565.25
595.892	4560.25
601.459	4550.25
607.02	4548.25
612.575	4512.25
618.124	4459.25
623.667	4392.25
629.204	4316.25
634.735	4274.25
640.261	4222.25
645.781	4178.25
651.294	4164.25
656.802	4171.25
662.304	4139.25
667.8	4161.25
673.29	4125.25
678.775	4099.25
684.254	4107.25
689.726	4063.25
695.193	4080.25
700.655	4005.25
706.11	4041.25
711.56	3994.25
717.004	3965.25
722.442	3929.25
727.874	3927.25
733.301	3934.25
738.722	3905.25
744.137	3900.25
749.547	3879.25
754.951	3909.25
760.349	3914.25
765.741	3930.25
771.128	3967.25
776.509	3980.25
781.885	4042.25
787.254	4098.25
792.618	4117.25
797.977	4082.25
803.33	4052.25
808.677	4019.25
814.019	4027.25
819.355	3950.25
824.686	3906.25
830.011	3890.25
835.33	3889.25
840.644	3900.25
845.952	3818.25
851.255	3820.25
856.552	3787.25
861.844	3737.25
867.13	3685.25
872.41	3673.25
877.686	3659.25
882.955	3629.25
888.219	3591.25
893.478	3544.25
898.731	3474.25
903.979	3455.25
909.221	3387.25
914.458	3399.25
919.69	3378.25
924.916	3387.25
930.136	3370.25
935.351	3369.25
940.561	3388.25
945.766	3364.25
950.965	3380.25
956.158	3348.25
961.347	3296.25
966.529	3262.25
971.707	3229.25
976.879	3177.25
982.046	3161.25
987.208	3139.25
992.364	3134.25
997.515	3151.25
1002.66	3187.25
1007.801	3194.25
1012.936	3224.25
1018.066	3233.25
1023.19	3239.25
1028.309	3275.25
1033.423	3262.25
1038.532	3266.25
1043.636	3244.25
1048.734	3228.25
1053.827	3181.25
1058.915	3170.25
1063.998	3139.25
1069.075	3134.25
1074.147	3129.25
1079.214	3139.25
1084.276	3178.25
1089.333	3131.25
1094.385	3155.25
1099.431	3136.25
1104.472	3125.25
1109.509	3086.25
1114.54	3040.25
1119.565	3010.25
1124.586	2948.25
1129.602	2929.25
1134.613	2889.25
1139.618	2898.25
1144.619	2870.25
1149.614	2913.25
1154.604	2884.25
1159.589	2895.25
1164.57	2920.25
1169.545	2933.25
1174.515	2938.25
1179.48	2912.25
1184.44	2885.25
1189.395	2898.25
1194.345	2855.25
1199.29	2842.25
1204.23	2803.25
1209.165	2828.25
1214.095	2851.25
1219.021	2869.25
1223.941	2857.25
1228.856	2871.25
1233.766	2890.25
1238.672	2889.25
1243.572	2876.25
1248.467	2847.25
1253.358	2819.25
1258.244	2747.25
1263.124	2730.25
1268	2691.25
1272.871	2620.25
1277.737	2646.25
1282.599	2612.25
1287.455	2601.25
1292.306	2597.25
1297.153	2588.25
1301.995	2619.25
1306.832	2631.25
1311.664	2631.25
1316.491	2637.25
1321.314	2620.25
1326.132	2608.25
1330.945	2568.25
1335.753	2531.25
1340.556	2475.25
1345.354	2435.25
1350.148	2434.25
1354.937	2384.25
1359.722	2366.25
1364.501	2356.25
1369.276	2367.25
1374.046	2349.25
1378.811	2333.25
1383.572	2329.25
1388.327	2349.25
1393.079	2311.25
1397.825	2277.25
1402.567	2265.25
1407.304	2256.25
1412.036	2258.25
1416.764	2241.25
1421.487	2212.25
1426.205	2244.25
1430.919	2230.25
1435.628	2260.25
1440.333	2263.25
1445.032	2293.25
1449.727	2311.25
1454.418	2296.25
1459.104	2306.25
1463.785	2258.25
1468.462	2269.25
1473.134	2225.25
1477.802	2194.25
1482.465	2114.25
1487.123	2135.25
1491.777	2110.25
1496.426	2096.25
1501.071	2106.25
1505.711	2126.25
1510.347	2137.25
1514.978	2140.25
1519.604	2129.25
1524.226	2142.25
1528.844	2133.25
1533.457	2130.25
1538.065	2097.25
1542.669	2073.25
1547.269	2072.25
1551.864	2057.25
1556.454	2030.25
1561.041	2032.25
1565.622	2036.25
1570.199	2049.25
1574.772	2056.25
1579.34	2083.25
1583.904	2095.25
1588.464	2110.25
1593.019	2132.25
1597.569	2117.25
1602.115	2099.25
1606.657	2087.25
1611.195	2095.25
1615.728	2101.25
1620.256	2075.25
1624.78	2050.25
1629.3	2071.25
1633.816	2084.25
1638.327	2071.25
1642.834	2098.25
1647.336	2115.25
1651.834	2124.25
1656.328	2134.25
1660.817	2128.25
1665.302	2080.25
1669.783	2103.25
1674.259	2051.25
1678.732	2002.25
1683.199	1973.25
1687.663	1916.25
1692.122	1865.25
1696.577	1830.25
1701.028	1812.25
1705.474	1775.25
1709.917	1749.25
1714.355	1733.25
1718.788	1709.25
1723.218	1678.25
1727.643	1650.25
1732.064	1653.25
1736.481	1610.25
1740.893	1610.25
1745.301	1560.25
1749.705	1503.25
1754.105	1495.25
1758.501	1466.25
1762.893	1429.25
1767.28	1398.25
1771.663	1395.25
1776.042	1378.25
1780.417	1364.25
1784.787	1387.25
1789.154	1386.25
1793.516	1393.25
1797.874	1394.25
1802.228	1369.25
1806.578	1360.25
1810.924	1365.25
1815.266	1256.25
1819.603	1336.25
1823.937	1292.25
1828.266	1285.25
1832.591	1290.25
1836.913	1276.25
1841.23	1269.25
1845.543	1249.25
1849.852	1279.25
1854.156	1264.25
1858.457	1263.25
1862.754	1258.25
1867.047	1265.25
1871.335	1282.25
1875.62	1283.25
1879.9	1279.25
1884.177	1265.25
1888.449	1271.25
1892.718	1263.25
1896.982	1260.25
1901.243	1239.25
1905.499	1231.25
1909.752	1236.25
1914	1210.25
1918.245	1257.25
1922.485	1252.25
1926.722	1245.25
1930.954	1251.25
1935.183	1262.25
1939.408	1256.25
1943.628	1251.25
1947.845	1254.25
1952.058	1226.25
1956.267	1199.25
1960.472	1189.25
1964.673	1175.25
1968.87	1150.25
1973.063	1120.25
1977.252	1116.25
1981.438	1099.25
1985.619	1093.25
1989.797	1060.25
1993.971	1081.25
1998.14	1083.25
2002.306	1064.25
2006.469	1060.25
2010.627	1045.25
2014.781	1053.25
2018.932	1035.25
2023.078	1039.25
2027.221	1037.25
2031.36	1015.25
2035.495	1015.25
2039.627	993.25
2043.754	999.25
2047.878	985.25
2051.998	965.25
2056.114	987.25
2060.226	978.25
2064.334	983.25
2068.439	995.25
2072.54	1013.25
2076.637	982.25
2080.73	996.25
2084.82	1001.25
2088.906	1003.25
2092.988	991.25
2097.066	991.25
2101.14	983.25
2105.211	982.25
2109.278	970.25
2113.342	950.25
2117.401	936.25
2121.457	915.25
2125.509	899.25
2129.558	917.25
2133.602	894.25
2137.643	904.25
2141.681	891.25
2145.714	889.25
2149.744	887.25
2153.77	873.25
2157.793	853.25
2161.812	833.25
2165.827	818.25
2169.838	832.25
2173.846	812.25
2177.851	786.25
2181.851	796.25
2185.848	786.25
2189.841	773.25
2193.831	755.25
2197.817	755.25
2201.799	755.25
2205.778	735.25
2209.753	739.25
2213.725	726.25
2217.693	739.25
2221.657	725.25
2225.618	730.25
2229.575	723.25
2233.529	715.25
2237.479	710.25
2241.425	679.25
2245.368	678.25
2249.307	684.25
2253.243	657.25
2257.175	677.25
2261.104	648.25
2265.029	652.25
2268.95	638.25
2272.868	620.25
2276.783	615.25
2280.694	606.25
2284.601	615.25
2288.505	591.25
2292.405	595.25
2296.302	572.25
2300.195	581.25
2304.085	545.25
2307.971	558.25
2311.854	523.25
2315.734	543.25
2319.609	537.25
2323.482	507.25
2327.351	509.25
2331.216	525.25
2335.078	523.25
2338.937	511.25
2342.792	498.25
2346.643	508.25
2350.492	510.25
2354.336	511.25
2358.178	509.25
2362.015	506.25
2365.85	502.25
2369.681	514.25
2373.508	501.25
2377.333	516.25
2381.153	502.25
2384.971	507.25
2388.785	508.25
2392.595	483.25
2396.402	489.25
2400.206	455.25
2404.007	471.25
2407.804	486.25
2411.597	474.25
2415.388	473.25
2419.174	475.25
2422.958	474.25
2426.738	466.25
2430.515	460.25
2434.289	454.25
2438.059	458.25
2441.825	452.25
2445.589	465.25
2449.349	435.25
2453.106	440.25
2456.859	431.25
2460.61	434.25
2464.356	419.25
2468.1	418.25
2471.84	415.25
2475.577	416.25
2479.311	423.25
2483.041	417.25
2486.768	439.25
2490.492	423.25
2494.213	420.25
2497.93	404.25
2501.644	390.25
2505.355	406.25
2509.062	403.25
2512.766	402.25
2516.467	398.25
2520.165	393.25
2523.859	383.25
2527.551	422.25
2531.239	384.25
2534.923	407.25
2538.605	382.25
2542.283	389.25
2545.958	388.25
2549.63	398.25
2553.299	398.25
2556.964	370.25
2560.626	383.25
2564.285	384.25
2567.941	371.25
2571.594	379.25
2575.243	378.25
2578.89	359.25
2582.533	361.25
2586.173	356.25
2589.809	362.25
2593.443	339.25
2597.073	350.25
2600.701	357.25
2604.325	352.25
2607.946	337.25
2611.564	355.25
2615.178	347.25
2618.79	338.25
2622.398	323.25
2626.004	338.25
2629.606	333.25
2633.205	319.25
2636.801	319.25
2640.394	324.25
2643.983	312.25
2647.57	311.25
2651.153	301.25
2654.734	308.25
2658.311	279.25
2661.885	293.25
2665.456	302.25
2669.025	298.25
2672.589	282.25
2676.151	295.25
2679.71	297.25
2683.266	277.25
2686.819	277.25
2690.368	278.25
2693.915	279.25
2697.458	275.25
2700.999	278.25
2704.536	278.25
2708.071	262.25
2711.602	260.25
2715.13	255.25
2718.656	240.25
2722.178	257.25
2725.697	250.25
2729.214	246.25
2732.727	252.25
2736.237	243.25
2739.744	250.25
2743.249	249.25
2746.75	250.25
2750.248	244.25
2753.743	255.25
2757.236	251.25
2760.725	256.25
2764.211	233.25
2767.695	255.25
2771.175	246.25
2774.652	245.25
2778.127	247.25
2781.598	241.25
2785.067	254.25
2788.532	237.25
2791.995	245.25
2795.455	229.25
2798.911	250.25
2802.365	241.25
2805.816	243.25
2809.264	253.25
2812.709	238.25
2816.151	251.25
2819.59	235.25
2823.026	234.25
2826.46	242.25
2829.89	258.25
2833.318	222.25
2836.742	241.25
2840.164	245.25
2843.583	240.25
2846.999	247.25
2850.412	253.25
2853.822	247.25
2857.229	266.25
2860.634	257.25
2864.035	241.25
2867.434	273.25
2870.83	274.25
2874.223	274.25
2877.613	282.25
2881	275.25
2884.385	273.25
2887.766	280.25
2891.145	279.25
2894.521	283.25
2897.894	273.25
2901.264	285.25
2904.631	271.25
2907.996	292.25
2911.358	284.25
2914.717	289.25
2918.073	281.25
2921.426	282.25
2924.777	275.25
2928.124	299.25
2931.469	315.25
2934.811	300.25
2938.15	338.25
2941.487	313.25
2944.821	337.25
2948.152	318.25
2951.48	325.25
2954.805	302.25
2958.128	327.25
2961.447	312.25
2964.765	322.25
2968.079	311.25
2971.39	324.25
2974.699	322.25
2978.005	336.25
2981.308	320.25
2984.609	317.25
2987.907	341.25
2991.202	342.25
2994.494	325.25
2997.784	340.25
3001.07	344.25
3004.355	339.25
3007.636	349.25
3010.915	344.25
3014.191	348.25
3017.464	354.25
3020.734	352.25
3024.002	354.25
3027.267	350.25
3030.53	359.25
3033.789	354.25
3037.046	364.25
3040.301	361.25
3043.552	374.25
3046.801	387.25
3050.048	397.25
3053.291	425.25
3056.532	413.25
3059.771	411.25
3063.006	434.25
3066.239	448.25
3069.469	470.25
3072.697	461.25
3075.922	464.25
3079.144	478.25
3082.364	502.25
3085.581	498.25
3088.795	528.25
3092.007	531.25
3095.216	546.25
3098.423	548.25
3101.627	538.25
3104.828	558.25
3108.026	575.25
3111.222	602.25
3114.416	605.25
3117.607	622.25
3120.795	620.25
3123.98	646.25
3127.163	636.25
3130.344	658.25
3133.521	669.25
3136.696	706.25
3139.869	703.25
3143.039	697.25
3146.206	727.25
3149.371	746.25
3152.533	734.25
3155.693	737.25
3158.85	750.25
3162.005	749.25
3165.157	758.25
3168.306	753.25
3171.453	771.25
3174.597	749.25
3177.739	740.25
3180.878	764.25
3184.014	762.25
3187.149	763.25
3190.28	765.25
3193.409	776.25
3196.536	782.25
3199.659	780.25
3202.781	772.25
3205.9	775.25
3209.016	775.25
3212.13	780.25
3215.241	768.25
3218.35	762.25
3221.456	760.25
3224.56	762.25
3227.661	753.25
3230.76	751.25
3233.856	734.25
3236.95	737.25
3240.041	717.25
3243.13	719.25
3246.216	714.25
3249.3	727.25
3252.382	703.25
3255.46	705.25
3258.537	656.25
3261.611	693.25
3264.682	700.25
3267.751	696.25
3270.818	678.25
3273.882	702.25
3276.943	690.25
3280.002	699.25
3283.059	671.25
3286.113	678.25
3289.165	644.25
3292.214	635.25
3295.261	670.25
3298.306	619.25
3301.348	630.25
3304.387	609.25
3307.425	618.25
3310.459	596.25
3313.492	607.25
3316.521	602.25
3319.549	600.25
3322.574	590.25
3325.597	576.25
3328.617	570.25
3331.635	562.25
3334.65	550.25
3337.663	569.25
3340.674	571.25
3343.682	569.25
3346.688	569.25
3349.691	546.25
3352.692	570.25
3355.691	563.25
3358.687	556.25
3361.681	563.25
3364.673	542.25
3367.662	546.25
3370.649	547.25
3373.633	516.25
3376.615	523.25
3379.595	504.25
3382.572	519.25
3385.547	507.25
3388.52	488.25
3391.49	483.25
3394.458	486.25
3397.424	492.25
3400.387	474.25
3403.348	488.25
3406.307	482.25
3409.263	475.25
3412.217	466.25
3415.168	457.25
3418.118	467.25
3421.065	451.25
3424.009	457.25
3426.951	445.25
3429.891	432.25
3432.829	433.25
3435.764	424.25
3438.697	407.25
3441.628	415.25
3444.557	382.25
3447.483	378.25
3450.407	380.25
3453.328	362.25
3456.247	369.25
3459.164	349.25
3462.079	348.25
3464.991	339.25
3467.902	327.25
3470.809	320.25
3473.715	317.25
3476.618	303.25
3479.519	301.25
3482.418	273.25
3485.315	279.25
3488.209	269.25
3491.101	261.25
3493.99	250.25
3496.878	239.25
3499.763	242.25
3502.646	244.25
3505.527	219.25
3508.405	225.25
3511.281	206.25
3514.155	210.25
3517.027	204.25
3519.897	187.25
3522.764	188.25
3525.629	151.25
3528.492	172.25
3531.352	165.25
3534.211	157.25
3537.067	153.25
3539.921	146.25
3542.773	139.25
3545.622	133.25
3548.469	113.25
3551.315	115.25
3554.157	116.25
3556.998	110.25
3559.837	105.25
3562.673	106.25
3565.507	95.25
3568.339	84.25
3571.169	89.25
3573.996	83.25
3576.822	54.25
3579.645	65.25
3582.466	71.25
3585.285	77.25
3588.101	70.25
3590.916	56.25
3593.728	71.25
3596.538	61.25
3599.346	54.25
3602.152	49.25
3604.956	47.25
3607.757	52.25
3610.556	31.25
3613.354	47.25
3616.149	47.25
3618.942	38.25
3621.732	39.25
3624.521	34.25
3627.307	22.25
3630.092	22.25
3632.874	37.25
3635.654	29.25
3638.432	12.25
3641.208	17.25
3643.982	14.25
3646.753	23.25
3649.523	-9.75
3652.29	14.25
3655.055	20.25
3657.818	9.25
3660.579	6.25
3663.338	-2.75
3666.095	-1.75
3668.849	-19.75
3671.602	4.25
3674.352	-8.75
3677.101	6.25
3679.847	7.25
3682.591	-7.75
3685.333	-11.75
3688.073	-2.75
3690.811	-10.75
3693.547	-17.75
3696.281	-20.75
3699.013	-7.75
3701.742	-15.75
3704.47	-20.75
3707.195	-7.75
3709.919	-12.75
3712.64	-19.75
3715.359	-29.75
3718.076	-8.75
3720.792	-18.75
3723.505	-18.75
3726.216	-3.75
3728.925	-18.75
3731.632	-23.75
3734.336	-16.75
3737.039	-22.75
3739.74	-17.75
3742.439	-44.75
3745.136	-14.75
3747.83	-14.75
3750.523	-17.75
3753.213	-88.75
3755.902	-25.75
3758.589	-36.75
3761.273	-28.75
3763.956	-13.75
3766.636	-28.75
3769.315	-16.75
3771.991	-23.75
3774.665	-30.75
3777.338	-23.75
3780.008	-31.75
3782.677	-31.75
3785.343	-41.75
3788.007	-44.75
3790.67	-22.75
3793.33	-36.75
3795.989	-28.75
3798.645	-24.75
3801.299	-36.75
3803.952	-34.75
3806.602	-30.75
3809.251	-20.75
3811.897	-28.75
3814.542	-27.75
3817.184	-30.75
3819.825	-25.75
3822.463	-40.75
3825.1	-32.75
3827.735	-31.75
3830.367	-37.75
3832.998	-16.75
3835.627	-28.75
3838.253	-21.75
3840.878	-29.75
3843.501	-12.75
3846.122	-26.75
3848.741	-22.75
3851.358	-21.75
3853.973	-34.75
3856.586	-19.75
3859.197	-30.75
3861.806	-27.75
3864.414	-36.75
3867.019	-26.75
3869.622	-13.75
3872.224	-10.75
3874.823	0.25
3877.421	26.25
3880.016	51.25
3882.61	98.25
3885.202	113.25
3887.792	82.25
3890.38	45.25
3892.966	1.25
3895.55	-23.75
3898.132	-14.75
3900.713	-18.75
3903.291	-20.75
3905.868	-33.75
3908.442	-25.75
3911.015	-24.75
3913.586	-34.75
3916.155	-29.75
3918.722	-33.75
3921.287	-34.75
3923.85	-41.75
3926.411	-32.75
3928.971	-34.75
3931.528	-31.75
3934.084	-35.75
3936.638	-39.75
3939.19	-29.75
3941.74	-21.75
3944.288	-32.75
3946.834	-36.75
3949.378	-21.75
3951.921	-32.75
3954.462	-32.75
3957	-27.75
3959.537	-15.75
3962.072	-30.75
3964.606	-46.75
3967.137	-32.75
3969.667	-33.75
3972.194	-23.75
3974.72	-29.75
3977.244	-51.75
3979.766	-37.75
3982.286	-38.75
3984.805	-26.75
3987.321	-14.75
3989.836	-20.75
3992.349	-34.75
3994.86	-27.75
3997.369	-32.75
3999.877	-31.75
4002.382	-27.75
4004.886	-23.75
4007.388	-21.75
4009.888	-14.75
4012.386	-18.75
4014.883	-23.75
4017.377	-24.75
4019.87	-24.75
4022.361	-30.75
4024.85	-23.75
4027.338	-25.75
4029.823	-31.75
4032.307	-29.75
4034.789	-25.75
4037.269	-23.75
4039.747	-39.75
4042.224	-18.75
4044.699	-30.75
4047.172	-25.75
4049.643	-20.75
4052.112	-47.75
4054.58	-23.75
4057.046	-36.75
4059.51	-26.75
4061.972	-21.75
4064.432	-41.75
4066.891	-13.75
4069.348	-24.75
4071.803	-19.75
4074.256	-29.75
4076.708	-18.75
4079.158	-24.75
4081.606	-12.75
4084.052	-25.75
4086.497	-18.75
4088.939	-23.75
4091.38	-28.75
4093.819	-18.75
4096.257	-2.75
4098.693	-4.75
4101.127	-5.75
4103.559	2.25
4105.989	133.25
4108.418	131.25
4110.845	121.25
4113.27	131.25
4115.694	149.25
4118.115	141.25
4120.535	-22.75
4122.954	-16.75
4125.37	-12.75
4127.785	-19.75
4130.198	-17.75
4132.609	-18.75
4135.019	12.25
4137.427	0.25
4139.833	4.25
4142.237	-5.75
