Data from 2018-3-6_conc=6_n=1_RamanShift_05.txt Node
Date: Tue Mar 06 14:55:48 GMT+02:00 2018
User: LAB3
Spectrometer: QEPB0276
Trigger mode: 0
Integration Time (sec): 3.000000E1
Scans to average: 1
Electric dark correction enabled: true
Nonlinearity correction enabled: false
Boxcar width: 0
XAxis mode: Raman Shifts
Number of Pixels in Spectrum: 1044
>>>>>Begin Spectral Data<<<<<
160.701	46.88
166.742	65.88
172.777	92.88
178.805	184.88
184.826	438.88
190.841	892.88
196.849	1410.88
202.85	1804.88
208.845	1941.88
214.833	1903.88
220.815	1851.88
226.789	1849.88
232.758	1860.88
238.719	1832.88
244.674	1801.88
250.623	1789.88
256.565	1738.88
262.5	1724.88
268.429	1722.88
274.351	1674.88
280.267	1690.88
286.176	1687.88
292.079	1691.88
297.975	1665.88
303.865	1674.88
309.748	1683.88
315.625	1662.88
321.495	1666.88
327.359	1657.88
333.217	1650.88
339.068	1654.88
344.912	1675.88
350.751	1651.88
356.583	1664.88
362.408	1671.88
368.227	1678.88
374.04	1686.88
379.847	1686.88
385.647	1717.88
391.44	1685.88
397.228	1715.88
403.009	1727.88
408.784	1709.88
414.553	1725.88
420.315	1731.88
426.071	1726.88
431.821	1737.88
437.565	1716.88
443.302	1707.88
449.033	1710.88
454.758	1705.88
460.477	1660.88
466.189	1659.88
471.896	1651.88
477.596	1627.88
483.29	1608.88
488.978	1605.88
494.66	1586.88
500.335	1549.88
506.005	1465.88
511.668	1410.88
517.325	1332.88
522.977	1241.88
528.622	1226.88
534.261	1184.88
539.894	1152.88
545.521	1132.88
551.141	1115.88
556.756	1102.88
562.365	1084.88
567.968	1079.88
573.565	1060.88
579.155	1068.88
584.74	1068.88
590.319	1071.88
595.892	1063.88
601.459	1069.88
607.02	1068.88
612.575	1063.88
618.124	1055.88
623.667	1018.88
629.204	992.88
634.735	991.88
640.261	951.88
645.781	938.88
651.294	951.88
656.802	962.88
662.304	965.88
667.8	965.88
673.29	953.88
678.775	954.88
684.254	947.88
689.726	929.88
695.193	926.88
700.655	920.88
706.11	922.88
711.56	907.88
717.004	919.88
722.442	889.88
727.874	902.88
733.301	909.88
738.722	875.88
744.137	891.88
749.547	875.88
754.951	884.88
760.349	893.88
765.741	896.88
771.128	886.88
776.509	916.88
781.885	935.88
787.254	946.88
792.618	960.88
797.977	960.88
803.33	943.88
808.677	931.88
814.019	930.88
819.355	913.88
824.686	906.88
830.011	907.88
835.33	910.88
840.644	904.88
845.952	865.88
851.255	877.88
856.552	862.88
861.844	857.88
867.13	836.88
872.41	832.88
877.686	827.88
882.955	818.88
888.219	814.88
893.478	797.88
898.731	794.88
903.979	795.88
909.221	771.88
914.458	765.88
919.69	771.88
924.916	768.88
930.136	763.88
935.351	768.88
940.561	778.88
945.766	763.88
950.965	783.88
956.158	750.88
961.347	750.88
966.529	726.88
971.707	747.88
976.879	734.88
982.046	725.88
987.208	718.88
992.364	717.88
997.515	716.88
1002.66	720.88
1007.801	720.88
1012.936	731.88
1018.066	696.88
1023.19	738.88
1028.309	735.88
1033.423	732.88
1038.532	748.88
1043.636	726.88
1048.734	725.88
1053.827	704.88
1058.915	709.88
1063.998	699.88
1069.075	706.88
1074.147	712.88
1079.214	689.88
1084.276	713.88
1089.333	712.88
1094.385	713.88
1099.431	700.88
1104.472	705.88
1109.509	694.88
1114.54	683.88
1119.565	675.88
1124.586	673.88
1129.602	648.88
1134.613	630.88
1139.618	633.88
1144.619	651.88
1149.614	654.88
1154.604	661.88
1159.589	649.88
1164.57	668.88
1169.545	672.88
1174.515	659.88
1179.48	657.88
1184.44	657.88
1189.395	660.88
1194.345	640.88
1199.29	644.88
1204.23	637.88
1209.165	624.88
1214.095	644.88
1219.021	626.88
1223.941	635.88
1228.856	637.88
1233.766	640.88
1238.672	652.88
1243.572	663.88
1248.467	649.88
1253.358	630.88
1258.244	618.88
1263.124	621.88
1268	617.88
1272.871	585.88
1277.737	590.88
1282.599	579.88
1287.455	577.88
1292.306	587.88
1297.153	568.88
1301.995	581.88
1306.832	591.88
1311.664	584.88
1316.491	585.88
1321.314	595.88
1326.132	577.88
1330.945	589.88
1335.753	559.88
1340.556	551.88
1345.354	538.88
1350.148	541.88
1354.937	538.88
1359.722	519.88
1364.501	527.88
1369.276	528.88
1374.046	531.88
1378.811	519.88
1383.572	531.88
1388.327	515.88
1393.079	515.88
1397.825	506.88
1402.567	505.88
1407.304	500.88
1412.036	498.88
1416.764	490.88
1421.487	483.88
1426.205	487.88
1430.919	494.88
1435.628	494.88
1440.333	486.88
1445.032	506.88
1449.727	515.88
1454.418	510.88
1459.104	513.88
1463.785	489.88
1468.462	503.88
1473.134	484.88
1477.802	475.88
1482.465	455.88
1487.123	472.88
1491.777	434.88
1496.426	455.88
1501.071	472.88
1505.711	450.88
1510.347	471.88
1514.978	478.88
1519.604	467.88
1524.226	483.88
1528.844	468.88
1533.457	478.88
1538.065	471.88
1542.669	458.88
1547.269	459.88
1551.864	460.88
1556.454	450.88
1561.041	454.88
1565.622	453.88
1570.199	464.88
1574.772	456.88
1579.34	459.88
1583.904	470.88
1588.464	476.88
1593.019	480.88
1597.569	463.88
1602.115	459.88
1606.657	448.88
1611.195	486.88
1615.728	474.88
1620.256	451.88
1624.78	437.88
1629.3	445.88
1633.816	456.88
1638.327	442.88
1642.834	461.88
1647.336	463.88
1651.834	476.88
1656.328	461.88
1660.817	467.88
1665.302	448.88
1669.783	433.88
1674.259	441.88
1678.732	433.88
1683.199	426.88
1687.663	409.88
1692.122	413.88
1696.577	409.88
1701.028	400.88
1705.474	384.88
1709.917	368.88
1714.355	365.88
1718.788	366.88
1723.218	350.88
1727.643	344.88
1732.064	361.88
1736.481	344.88
1740.893	348.88
1745.301	338.88
1749.705	303.88
1754.105	321.88
1758.501	315.88
1762.893	319.88
1767.28	287.88
1771.663	290.88
1776.042	286.88
1780.417	291.88
1784.787	303.88
1789.154	308.88
1793.516	297.88
1797.874	288.88
1802.228	287.88
1806.578	273.88
1810.924	293.88
1815.266	179.88
1819.603	288.88
1823.937	270.88
1828.266	273.88
1832.591	277.88
1836.913	279.88
1841.23	269.88
1845.543	263.88
1849.852	274.88
1854.156	261.88
1858.457	268.88
1862.754	270.88
1867.047	269.88
1871.335	280.88
1875.62	266.88
1879.9	272.88
1884.177	261.88
1888.449	264.88
1892.718	273.88
1896.982	275.88
1901.243	256.88
1905.499	267.88
1909.752	245.88
1914	239.88
1918.245	252.88
1922.485	271.88
1926.722	253.88
1930.954	247.88
1935.183	266.88
1939.408	261.88
1943.628	245.88
1947.845	251.88
1952.058	251.88
1956.267	233.88
1960.472	249.88
1964.673	243.88
1968.87	241.88
1973.063	233.88
1977.252	241.88
1981.438	228.88
1985.619	216.88
1989.797	211.88
1993.971	222.88
1998.14	243.88
2002.306	220.88
2006.469	235.88
2010.627	217.88
2014.781	213.88
2018.932	217.88
2023.078	238.88
2027.221	226.88
2031.36	208.88
2035.495	220.88
2039.627	214.88
2043.754	219.88
2047.878	206.88
2051.998	202.88
2056.114	199.88
2060.226	205.88
2064.334	212.88
2068.439	216.88
2072.54	219.88
2076.637	205.88
2080.73	213.88
2084.82	195.88
2088.906	200.88
2092.988	199.88
2097.066	201.88
2101.14	212.88
2105.211	200.88
2109.278	195.88
2113.342	189.88
2117.401	178.88
2121.457	177.88
2125.509	173.88
2129.558	188.88
2133.602	182.88
2137.643	181.88
2141.681	178.88
2145.714	180.88
2149.744	180.88
2153.77	181.88
2157.793	167.88
2161.812	143.88
2165.827	157.88
2169.838	177.88
2173.846	158.88
2177.851	158.88
2181.851	173.88
2185.848	165.88
2189.841	157.88
2193.831	153.88
2197.817	149.88
2201.799	153.88
2205.778	147.88
2209.753	144.88
2213.725	142.88
2217.693	147.88
2221.657	130.88
2225.618	149.88
2229.575	145.88
2233.529	139.88
2237.479	146.88
2241.425	134.88
2245.368	133.88
2249.307	137.88
2253.243	123.88
2257.175	138.88
2261.104	125.88
2265.029	131.88
2268.95	126.88
2272.868	128.88
2276.783	111.88
2280.694	125.88
2284.601	122.88
2288.505	120.88
2292.405	119.88
2296.302	103.88
2300.195	113.88
2304.085	85.88
2307.971	115.88
2311.854	95.88
2315.734	106.88
2319.609	114.88
2323.482	91.88
2327.351	97.88
2331.216	102.88
2335.078	109.88
2338.937	105.88
2342.792	85.88
2346.643	95.88
2350.492	99.88
2354.336	98.88
2358.178	95.88
2362.015	95.88
2365.85	91.88
2369.681	90.88
2373.508	97.88
2377.333	98.88
2381.153	100.88
2384.971	93.88
2388.785	92.88
2392.595	81.88
2396.402	79.88
2400.206	66.88
2404.007	78.88
2407.804	87.88
2411.597	80.88
2415.388	80.88
2419.174	80.88
2422.958	87.88
2426.738	82.88
2430.515	88.88
2434.289	75.88
2438.059	74.88
2441.825	80.88
2445.589	82.88
2449.349	64.88
2453.106	78.88
2456.859	74.88
2460.61	86.88
2464.356	65.88
2468.1	62.88
2471.84	62.88
2475.577	71.88
2479.311	66.88
2483.041	72.88
2486.768	85.88
2490.492	81.88
2494.213	67.88
2497.93	57.88
2501.644	52.88
2505.355	65.88
2509.062	67.88
2512.766	67.88
2516.467	58.88
2520.165	63.88
2523.859	50.88
2527.551	81.88
2531.239	56.88
2534.923	63.88
2538.605	59.88
2542.283	63.88
2545.958	57.88
2549.63	73.88
2553.299	72.88
2556.964	54.88
2560.626	59.88
2564.285	55.88
2567.941	47.88
2571.594	47.88
2575.243	60.88
2578.89	54.88
2582.533	46.88
2586.173	54.88
2589.809	56.88
2593.443	24.88
2597.073	47.88
2600.701	54.88
2604.325	51.88
2607.946	37.88
2611.564	52.88
2615.178	45.88
2618.79	52.88
2622.398	37.88
2626.004	49.88
2629.606	49.88
2633.205	35.88
2636.801	48.88
2640.394	50.88
2643.983	41.88
2647.57	34.88
2651.153	36.88
2654.734	49.88
2658.311	19.88
2661.885	38.88
2665.456	36.88
2669.025	37.88
2672.589	33.88
2676.151	53.88
2679.71	48.88
2683.266	38.88
2686.819	25.88
2690.368	41.88
2693.915	40.88
2697.458	34.88
2700.999	41.88
2704.536	39.88
2708.071	36.88
2711.602	36.88
2715.13	35.88
2718.656	12.88
2722.178	32.88
2725.697	19.88
2729.214	27.88
2732.727	27.88
2736.237	18.88
2739.744	26.88
2743.249	19.88
2746.75	30.88
2750.248	21.88
2753.743	25.88
2757.236	31.88
2760.725	39.88
2764.211	7.88
2767.695	33.88
2771.175	28.88
2774.652	32.88
2778.127	23.88
2781.598	23.88
2785.067	33.88
2788.532	24.88
2791.995	30.88
2795.455	18.88
2798.911	28.88
2802.365	16.88
2805.816	24.88
2809.264	35.88
2812.709	21.88
2816.151	25.88
2819.59	12.88
2823.026	21.88
2826.46	18.88
2829.89	34.88
2833.318	0.88
2836.742	24.88
2840.164	24.88
2843.583	23.88
2846.999	23.88
2850.412	28.88
2853.822	16.88
2857.229	36.88
2860.634	32.88
2864.035	11.88
2867.434	32.88
2870.83	29.88
2874.223	25.88
2877.613	23.88
2881	19.88
2884.385	22.88
2887.766	23.88
2891.145	30.88
2894.521	24.88
2897.894	15.88
2901.264	35.88
2904.631	25.88
2907.996	33.88
2911.358	40.88
2914.717	31.88
2918.073	23.88
2921.426	23.88
2924.777	11.88
2928.124	26.88
2931.469	39.88
2934.811	21.88
2938.15	41.88
2941.487	36.88
2944.821	48.88
2948.152	31.88
2951.48	40.88
2954.805	25.88
2958.128	48.88
2961.447	30.88
2964.765	52.88
2968.079	39.88
2971.39	40.88
2974.699	39.88
2978.005	47.88
2981.308	41.88
2984.609	33.88
2987.907	43.88
2991.202	53.88
2994.494	28.88
2997.784	42.88
3001.07	42.88
3004.355	36.88
3007.636	39.88
3010.915	42.88
3014.191	39.88
3017.464	43.88
3020.734	43.88
3024.002	47.88
3027.267	47.88
3030.53	46.88
3033.789	45.88
3037.046	45.88
3040.301	42.88
3043.552	54.88
3046.801	54.88
3050.048	65.88
3053.291	77.88
3056.532	58.88
3059.771	48.88
3063.006	75.88
3066.239	63.88
3069.469	70.88
3072.697	60.88
3075.922	65.88
3079.144	70.88
3082.364	89.88
3085.581	69.88
3088.795	92.88
3092.007	84.88
3095.216	92.88
3098.423	83.88
3101.627	57.88
3104.828	94.88
3108.026	83.88
3111.222	103.88
3114.416	107.88
3117.607	97.88
3120.795	99.88
3123.98	103.88
3127.163	95.88
3130.344	100.88
3133.521	92.88
3136.696	116.88
3139.869	118.88
3143.039	103.88
3146.206	130.88
3149.371	126.88
3152.533	112.88
3155.693	109.88
3158.85	119.88
3162.005	128.88
3165.157	123.88
3168.306	125.88
3171.453	131.88
3174.597	116.88
3177.739	117.88
3180.878	130.88
3184.014	135.88
3187.149	133.88
3190.28	121.88
3193.409	131.88
3196.536	133.88
3199.659	137.88
3202.781	149.88
3205.9	119.88
3209.016	139.88
3212.13	129.88
3215.241	135.88
3218.35	126.88
3221.456	128.88
3224.56	115.88
3227.661	121.88
3230.76	119.88
3233.856	116.88
3236.95	117.88
3240.041	113.88
3243.13	121.88
3246.216	118.88
3249.3	117.88
3252.382	119.88
3255.46	105.88
3258.537	60.88
3261.611	94.88
3264.682	109.88
3267.751	107.88
3270.818	100.88
3273.882	115.88
3276.943	104.88
3280.002	113.88
3283.059	101.88
3286.113	104.88
3289.165	98.88
3292.214	88.88
3295.261	111.88
3298.306	92.88
3301.348	101.88
3304.387	86.88
3307.425	101.88
3310.459	91.88
3313.492	107.88
3316.521	89.88
3319.549	103.88
3322.574	99.88
3325.597	93.88
3328.617	89.88
3331.635	92.88
3334.65	73.88
3337.663	88.88
3340.674	83.88
3343.682	92.88
3346.688	98.88
3349.691	86.88
3352.692	84.88
3355.691	86.88
3358.687	86.88
3361.681	90.88
3364.673	85.88
3367.662	84.88
3370.649	92.88
3373.633	75.88
3376.615	82.88
3379.595	64.88
3382.572	71.88
3385.547	61.88
3388.52	70.88
3391.49	64.88
3394.458	69.88
3397.424	78.88
3400.387	65.88
3403.348	76.88
3406.307	71.88
3409.263	66.88
3412.217	75.88
3415.168	71.88
3418.118	79.88
3421.065	67.88
3424.009	75.88
3426.951	58.88
3429.891	60.88
3432.829	56.88
3435.764	66.88
3438.697	51.88
3441.628	68.88
3444.557	45.88
3447.483	47.88
3450.407	56.88
3453.328	43.88
3456.247	41.88
3459.164	33.88
3462.079	48.88
3464.991	41.88
3467.902	33.88
3470.809	39.88
3473.715	39.88
3476.618	27.88
3479.519	37.88
3482.418	12.88
3485.315	17.88
3488.209	20.88
3491.101	27.88
3493.99	8.88
3496.878	16.88
3499.763	22.88
3502.646	15.88
3505.527	5.88
3508.405	14.88
3511.281	1.88
3514.155	14.88
3517.027	14.88
3519.897	-3.12
3522.764	12.88
3525.629	-4.12
3528.492	4.88
3531.352	3.88
3534.211	2.88
3537.067	-4.12
3539.921	1.88
3542.773	5.88
3545.622	-12.12
3548.469	-15.12
3551.315	-12.12
3554.157	-14.12
3556.998	-19.12
3559.837	-9.12
3562.673	-8.12
3565.507	-16.12
3568.339	-25.12
3571.169	-19.12
3573.996	-16.12
3576.822	-34.12
3579.645	-25.12
3582.466	-28.12
3585.285	-14.12
3588.101	-18.12
3590.916	-25.12
3593.728	-12.12
3596.538	-21.12
3599.346	-18.12
3602.152	-33.12
3604.956	-22.12
3607.757	-19.12
3610.556	-27.12
3613.354	-11.12
3616.149	-18.12
3618.942	-16.12
3621.732	-14.12
3624.521	-29.12
3627.307	-30.12
3630.092	-29.12
3632.874	-15.12
3635.654	-25.12
3638.432	-29.12
3641.208	-27.12
3643.982	-28.12
3646.753	-18.12
3649.523	-50.12
3652.29	-27.12
3655.055	-22.12
3657.818	-27.12
3660.579	-31.12
3663.338	-42.12
3666.095	-35.12
3668.849	-54.12
3671.602	-26.12
3674.352	-44.12
3677.101	-20.12
3679.847	-21.12
3682.591	-36.12
3685.333	-42.12
3688.073	-35.12
3690.811	-38.12
3693.547	-46.12
3696.281	-44.12
3699.013	-30.12
3701.742	-34.12
3704.47	-41.12
3707.195	-24.12
3709.919	-29.12
3712.64	-34.12
3715.359	-42.12
3718.076	-24.12
3720.792	-35.12
3723.505	-33.12
3726.216	-21.12
3728.925	-37.12
3731.632	-40.12
3734.336	-34.12
3737.039	-28.12
3739.74	-33.12
3742.439	-57.12
3745.136	-29.12
3747.83	-31.12
3750.523	-29.12
3753.213	-96.12
3755.902	-39.12
3758.589	-51.12
3761.273	-38.12
3763.956	-29.12
3766.636	-48.12
3769.315	-25.12
3771.991	-34.12
3774.665	-36.12
3777.338	-33.12
3780.008	-48.12
3782.677	-39.12
3785.343	-45.12
3788.007	-56.12
3790.67	-25.12
3793.33	-41.12
3795.989	-34.12
3798.645	-26.12
3801.299	-44.12
3803.952	-43.12
3806.602	-40.12
3809.251	-29.12
3811.897	-35.12
3814.542	-42.12
3817.184	-34.12
3819.825	-36.12
3822.463	-48.12
3825.1	-39.12
3827.735	-34.12
3830.367	-45.12
3832.998	-24.12
3835.627	-42.12
3838.253	-28.12
3840.878	-34.12
3843.501	-20.12
3846.122	-34.12
3848.741	-34.12
3851.358	-26.12
3853.973	-45.12
3856.586	-25.12
3859.197	-41.12
3861.806	-35.12
3864.414	-46.12
3867.019	-33.12
3869.622	-26.12
3872.224	-21.12
3874.823	-14.12
3877.421	5.88
3880.016	13.88
3882.61	43.88
3885.202	55.88
3887.792	43.88
3890.38	8.88
3892.966	-24.12
3895.55	-39.12
3898.132	-30.12
3900.713	-26.12
3903.291	-34.12
3905.868	-38.12
3908.442	-34.12
3911.015	-35.12
3913.586	-38.12
3916.155	-41.12
3918.722	-47.12
3921.287	-40.12
3923.85	-51.12
3926.411	-42.12
3928.971	-39.12
3931.528	-32.12
3934.084	-36.12
3936.638	-50.12
3939.19	-34.12
3941.74	-31.12
3944.288	-37.12
3946.834	-36.12
3949.378	-27.12
3951.921	-39.12
3954.462	-35.12
3957	-31.12
3959.537	-21.12
3962.072	-35.12
3964.606	-51.12
3967.137	-39.12
3969.667	-43.12
3972.194	-32.12
3974.72	-40.12
3977.244	-60.12
3979.766	-44.12
3982.286	-43.12
3984.805	-31.12
3987.321	-31.12
3989.836	-32.12
3992.349	-41.12
3994.86	-38.12
3997.369	-42.12
3999.877	-46.12
4002.382	-42.12
4004.886	-28.12
4007.388	-30.12
4009.888	-26.12
4012.386	-28.12
4014.883	-32.12
4017.377	-32.12
4019.87	-32.12
4022.361	-40.12
4024.85	-37.12
4027.338	-31.12
4029.823	-40.12
4032.307	-38.12
4034.789	-33.12
4037.269	-32.12
4039.747	-48.12
4042.224	-26.12
4044.699	-42.12
4047.172	-37.12
4049.643	-28.12
4052.112	-61.12
4054.58	-35.12
4057.046	-44.12
4059.51	-34.12
4061.972	-34.12
4064.432	-55.12
4066.891	-22.12
4069.348	-37.12
4071.803	-31.12
4074.256	-39.12
4076.708	-30.12
4079.158	-37.12
4081.606	-30.12
4084.052	-37.12
4086.497	-31.12
4088.939	-36.12
4091.38	-38.12
4093.819	-27.12
4096.257	2.88
4098.693	-8.12
4101.127	-5.12
4103.559	-2.12
4105.989	56.88
4108.418	56.88
4110.845	44.88
4113.27	53.88
4115.694	58.88
4118.115	46.88
4120.535	-28.12
4122.954	-26.12
4125.37	-20.12
4127.785	-31.12
4130.198	-21.12
4132.609	-29.12
4135.019	11.88
4137.427	-1.12
4139.833	4.88
4142.237	-3.12
