Data from 2018-3-6_conc=3_n=1_RamanShift_05.txt Node
Date: Tue Mar 06 13:16:19 GMT+02:00 2018
User: LAB3
Spectrometer: QEPB0276
Trigger mode: 0
Integration Time (sec): 3.000000E1
Scans to average: 1
Electric dark correction enabled: true
Nonlinearity correction enabled: false
Boxcar width: 0
XAxis mode: Raman Shifts
Number of Pixels in Spectrum: 1044
>>>>>Begin Spectral Data<<<<<
160.701	143.75
166.742	181.75
172.777	281.75
178.805	552.75
184.826	1261.75
190.841	2536.75
196.849	4004.75
202.85	5171.75
208.845	5579.75
214.833	5595.75
220.815	5545.75
226.789	5553.75
232.758	5592.75
238.719	5606.75
244.674	5574.75
250.623	5590.75
256.565	5514.75
262.5	5486.75
268.429	5442.75
274.351	5416.75
280.267	5414.75
286.176	5435.75
292.079	5455.75
297.975	5441.75
303.865	5436.75
309.748	5466.75
315.625	5491.75
321.495	5510.75
327.359	5531.75
333.217	5541.75
339.068	5572.75
344.912	5587.75
350.751	5637.75
356.583	5602.75
362.408	5632.75
368.227	5672.75
374.04	5689.75
379.847	5744.75
385.647	5774.75
391.44	5801.75
397.228	5812.75
403.009	5881.75
408.784	5883.75
414.553	5934.75
420.315	5917.75
426.071	5913.75
431.821	5931.75
437.565	5899.75
443.302	5934.75
449.033	5873.75
454.758	5862.75
460.477	5779.75
466.189	5746.75
471.896	5708.75
477.596	5637.75
483.29	5617.75
488.978	5614.75
494.66	5556.75
500.335	5429.75
506.005	5190.75
511.668	4923.75
517.325	4690.75
522.977	4486.75
528.622	4336.75
534.261	4231.75
539.894	4145.75
545.521	4064.75
551.141	4017.75
556.756	3989.75
562.365	3943.75
567.968	3922.75
573.565	3877.75
579.155	3860.75
584.74	3840.75
590.319	3818.75
595.892	3832.75
601.459	3845.75
607.02	3845.75
612.575	3782.75
618.124	3720.75
623.667	3670.75
629.204	3614.75
634.735	3564.75
640.261	3504.75
645.781	3466.75
651.294	3469.75
656.802	3498.75
662.304	3471.75
667.8	3464.75
673.29	3433.75
678.775	3414.75
684.254	3399.75
689.726	3384.75
695.193	3381.75
700.655	3354.75
706.11	3359.75
711.56	3316.75
717.004	3305.75
722.442	3271.75
727.874	3297.75
733.301	3275.75
738.722	3227.75
744.137	3247.75
749.547	3260.75
754.951	3242.75
760.349	3242.75
765.741	3285.75
771.128	3300.75
776.509	3345.75
781.885	3404.75
787.254	3409.75
792.618	3446.75
797.977	3447.75
803.33	3393.75
808.677	3376.75
814.019	3356.75
819.355	3335.75
824.686	3308.75
830.011	3264.75
835.33	3249.75
840.644	3247.75
845.952	3187.75
851.255	3191.75
856.552	3152.75
861.844	3126.75
867.13	3076.75
872.41	3035.75
877.686	3006.75
882.955	3010.75
888.219	2977.75
893.478	2923.75
898.731	2882.75
903.979	2863.75
909.221	2817.75
914.458	2797.75
919.69	2813.75
924.916	2817.75
930.136	2812.75
935.351	2816.75
940.561	2835.75
945.766	2833.75
950.965	2795.75
956.158	2777.75
961.347	2744.75
966.529	2726.75
971.707	2702.75
976.879	2652.75
982.046	2626.75
987.208	2605.75
992.364	2613.75
997.515	2637.75
1002.66	2622.75
1007.801	2662.75
1012.936	2699.75
1018.066	2685.75
1023.19	2702.75
1028.309	2717.75
1033.423	2717.75
1038.532	2724.75
1043.636	2698.75
1048.734	2681.75
1053.827	2649.75
1058.915	2598.75
1063.998	2620.75
1069.075	2600.75
1074.147	2599.75
1079.214	2580.75
1084.276	2601.75
1089.333	2610.75
1094.385	2619.75
1099.431	2591.75
1104.472	2596.75
1109.509	2578.75
1114.54	2538.75
1119.565	2476.75
1124.586	2480.75
1129.602	2436.75
1134.613	2388.75
1139.618	2388.75
1144.619	2389.75
1149.614	2414.75
1154.604	2423.75
1159.589	2418.75
1164.57	2440.75
1169.545	2444.75
1174.515	2437.75
1179.48	2405.75
1184.44	2404.75
1189.395	2393.75
1194.345	2367.75
1199.29	2374.75
1204.23	2337.75
1209.165	2343.75
1214.095	2363.75
1219.021	2369.75
1223.941	2371.75
1228.856	2391.75
1233.766	2390.75
1238.672	2393.75
1243.572	2384.75
1248.467	2387.75
1253.358	2327.75
1258.244	2298.75
1263.124	2257.75
1268	2227.75
1272.871	2166.75
1277.737	2176.75
1282.599	2143.75
1287.455	2149.75
1292.306	2165.75
1297.153	2145.75
1301.995	2174.75
1306.832	2173.75
1311.664	2175.75
1316.491	2168.75
1321.314	2186.75
1326.132	2145.75
1330.945	2139.75
1335.753	2092.75
1340.556	2050.75
1345.354	2021.75
1350.148	2004.75
1354.937	1995.75
1359.722	1976.75
1364.501	1943.75
1369.276	1954.75
1374.046	1957.75
1378.811	1937.75
1383.572	1946.75
1388.327	1912.75
1393.079	1908.75
1397.825	1881.75
1402.567	1883.75
1407.304	1867.75
1412.036	1838.75
1416.764	1869.75
1421.487	1834.75
1426.205	1825.75
1430.919	1858.75
1435.628	1852.75
1440.333	1861.75
1445.032	1884.75
1449.727	1880.75
1454.418	1893.75
1459.104	1907.75
1463.785	1856.75
1468.462	1851.75
1473.134	1807.75
1477.802	1780.75
1482.465	1746.75
1487.123	1767.75
1491.777	1716.75
1496.426	1718.75
1501.071	1740.75
1505.711	1734.75
1510.347	1749.75
1514.978	1762.75
1519.604	1759.75
1524.226	1774.75
1528.844	1734.75
1533.457	1749.75
1538.065	1721.75
1542.669	1709.75
1547.269	1711.75
1551.864	1694.75
1556.454	1687.75
1561.041	1661.75
1565.622	1683.75
1570.199	1674.75
1574.772	1713.75
1579.34	1731.75
1583.904	1733.75
1588.464	1753.75
1593.019	1746.75
1597.569	1731.75
1602.115	1732.75
1606.657	1716.75
1611.195	1742.75
1615.728	1712.75
1620.256	1714.75
1624.78	1693.75
1629.3	1706.75
1633.816	1737.75
1638.327	1719.75
1642.834	1747.75
1647.336	1736.75
1651.834	1768.75
1656.328	1754.75
1660.817	1740.75
1665.302	1752.75
1669.783	1709.75
1674.259	1690.75
1678.732	1671.75
1683.199	1626.75
1687.663	1565.75
1692.122	1559.75
1696.577	1517.75
1701.028	1496.75
1705.474	1441.75
1709.917	1437.75
1714.355	1406.75
1718.788	1415.75
1723.218	1379.75
1727.643	1361.75
1732.064	1353.75
1736.481	1324.75
1740.893	1299.75
1745.301	1272.75
1749.705	1238.75
1754.105	1225.75
1758.501	1194.75
1762.893	1185.75
1767.28	1149.75
1771.663	1157.75
1776.042	1116.75
1780.417	1119.75
1784.787	1134.75
1789.154	1141.75
1793.516	1142.75
1797.874	1124.75
1802.228	1131.75
1806.578	1111.75
1810.924	1113.75
1815.266	1029.75
1819.603	1104.75
1823.937	1070.75
1828.266	1077.75
1832.591	1051.75
1836.913	1036.75
1841.23	1037.75
1845.543	1031.75
1849.852	1060.75
1854.156	1041.75
1858.457	1038.75
1862.754	1038.75
1867.047	1035.75
1871.335	1059.75
1875.62	1051.75
1879.9	1048.75
1884.177	1030.75
1888.449	1032.75
1892.718	1034.75
1896.982	1019.75
1901.243	1003.75
1905.499	1019.75
1909.752	1008.75
1914	980.75
1918.245	1013.75
1922.485	1027.75
1926.722	1001.75
1930.954	1002.75
1935.183	1024.75
1939.408	1031.75
1943.628	1036.75
1947.845	1013.75
1952.058	1002.75
1956.267	979.75
1960.472	967.75
1964.673	956.75
1968.87	951.75
1973.063	919.75
1977.252	924.75
1981.438	911.75
1985.619	891.75
1989.797	872.75
1993.971	884.75
1998.14	876.75
2002.306	876.75
2006.469	871.75
2010.627	865.75
2014.781	853.75
2018.932	857.75
2023.078	868.75
2027.221	864.75
2031.36	821.75
2035.495	824.75
2039.627	814.75
2043.754	816.75
2047.878	808.75
2051.998	800.75
2056.114	801.75
2060.226	817.75
2064.334	811.75
2068.439	819.75
2072.54	820.75
2076.637	816.75
2080.73	805.75
2084.82	822.75
2088.906	805.75
2092.988	805.75
2097.066	800.75
2101.14	811.75
2105.211	805.75
2109.278	785.75
2113.342	776.75
2117.401	762.75
2121.457	747.75
2125.509	730.75
2129.558	751.75
2133.602	732.75
2137.643	739.75
2141.681	734.75
2145.714	724.75
2149.744	735.75
2153.77	716.75
2157.793	697.75
2161.812	673.75
2165.827	666.75
2169.838	675.75
2173.846	666.75
2177.851	652.75
2181.851	653.75
2185.848	643.75
2189.841	640.75
2193.831	623.75
2197.817	611.75
2201.799	628.75
2205.778	612.75
2209.753	594.75
2213.725	591.75
2217.693	597.75
2221.657	594.75
2225.618	614.75
2229.575	599.75
2233.529	598.75
2237.479	595.75
2241.425	573.75
2245.368	559.75
2249.307	556.75
2253.243	546.75
2257.175	555.75
2261.104	529.75
2265.029	518.75
2268.95	518.75
2272.868	512.75
2276.783	506.75
2280.694	515.75
2284.601	508.75
2288.505	498.75
2292.405	494.75
2296.302	467.75
2300.195	475.75
2304.085	442.75
2307.971	468.75
2311.854	442.75
2315.734	437.75
2319.609	448.75
2323.482	418.75
2327.351	431.75
2331.216	430.75
2335.078	433.75
2338.937	424.75
2342.792	408.75
2346.643	408.75
2350.492	420.75
2354.336	411.75
2358.178	416.75
2362.015	415.75
2365.85	419.75
2369.681	431.75
2373.508	418.75
2377.333	430.75
2381.153	412.75
2384.971	411.75
2388.785	408.75
2392.595	393.75
2396.402	399.75
2400.206	370.75
2404.007	382.75
2407.804	388.75
2411.597	394.75
2415.388	388.75
2419.174	373.75
2422.958	392.75
2426.738	387.75
2430.515	388.75
2434.289	373.75
2438.059	368.75
2441.825	377.75
2445.589	382.75
2449.349	347.75
2453.106	366.75
2456.859	360.75
2460.61	366.75
2464.356	339.75
2468.1	339.75
2471.84	340.75
2475.577	344.75
2479.311	343.75
2483.041	342.75
2486.768	352.75
2490.492	355.75
2494.213	333.75
2497.93	329.75
2501.644	326.75
2505.355	341.75
2509.062	331.75
2512.766	332.75
2516.467	331.75
2520.165	326.75
2523.859	309.75
2527.551	351.75
2531.239	313.75
2534.923	318.75
2538.605	320.75
2542.283	314.75
2545.958	321.75
2549.63	325.75
2553.299	318.75
2556.964	312.75
2560.626	307.75
2564.285	305.75
2567.941	295.75
2571.594	294.75
2575.243	303.75
2578.89	286.75
2582.533	292.75
2586.173	296.75
2589.809	285.75
2593.443	272.75
2597.073	277.75
2600.701	284.75
2604.325	275.75
2607.946	267.75
2611.564	284.75
2615.178	274.75
2618.79	278.75
2622.398	263.75
2626.004	281.75
2629.606	262.75
2633.205	250.75
2636.801	254.75
2640.394	253.75
2643.983	248.75
2647.57	249.75
2651.153	240.75
2654.734	259.75
2658.311	216.75
2661.885	222.75
2665.456	229.75
2669.025	239.75
2672.589	222.75
2676.151	242.75
2679.71	241.75
2683.266	226.75
2686.819	223.75
2690.368	222.75
2693.915	219.75
2697.458	216.75
2700.999	218.75
2704.536	220.75
2708.071	211.75
2711.602	216.75
2715.13	212.75
2718.656	187.75
2722.178	202.75
2725.697	188.75
2729.214	188.75
2732.727	208.75
2736.237	189.75
2739.744	194.75
2743.249	204.75
2746.75	206.75
2750.248	193.75
2753.743	201.75
2757.236	204.75
2760.725	198.75
2764.211	172.75
2767.695	203.75
2771.175	195.75
2774.652	195.75
2778.127	177.75
2781.598	188.75
2785.067	193.75
2788.532	181.75
2791.995	194.75
2795.455	178.75
2798.911	196.75
2802.365	178.75
2805.816	193.75
2809.264	196.75
2812.709	185.75
2816.151	194.75
2819.59	180.75
2823.026	187.75
2826.46	186.75
2829.89	198.75
2833.318	177.75
2836.742	189.75
2840.164	200.75
2843.583	195.75
2846.999	194.75
2850.412	201.75
2853.822	187.75
2857.229	207.75
2860.634	203.75
2864.035	186.75
2867.434	209.75
2870.83	209.75
2874.223	209.75
2877.613	199.75
2881	203.75
2884.385	203.75
2887.766	217.75
2891.145	210.75
2894.521	213.75
2897.894	201.75
2901.264	224.75
2904.631	210.75
2907.996	224.75
2911.358	224.75
2914.717	226.75
2918.073	216.75
2921.426	221.75
2924.777	213.75
2928.124	227.75
2931.469	239.75
2934.811	224.75
2938.15	254.75
2941.487	235.75
2944.821	256.75
2948.152	246.75
2951.48	253.75
2954.805	236.75
2958.128	249.75
2961.447	250.75
2964.765	261.75
2968.079	250.75
2971.39	253.75
2974.699	252.75
2978.005	256.75
2981.308	256.75
2984.609	249.75
2987.907	267.75
2991.202	282.75
2994.494	263.75
2997.784	272.75
3001.07	277.75
3004.355	270.75
3007.636	267.75
3010.915	280.75
3014.191	282.75
3017.464	281.75
3020.734	283.75
3024.002	290.75
3027.267	280.75
3030.53	283.75
3033.789	284.75
3037.046	300.75
3040.301	281.75
3043.552	304.75
3046.801	309.75
3050.048	326.75
3053.291	344.75
3056.532	337.75
3059.771	334.75
3063.006	355.75
3066.239	355.75
3069.469	374.75
3072.697	369.75
3075.922	376.75
3079.144	381.75
3082.364	416.75
3085.581	397.75
3088.795	426.75
3092.007	430.75
3095.216	452.75
3098.423	439.75
3101.627	426.75
3104.828	460.75
3108.026	449.75
3111.222	493.75
3114.416	494.75
3117.607	503.75
3120.795	515.75
3123.98	521.75
3127.163	518.75
3130.344	531.75
3133.521	542.75
3136.696	566.75
3139.869	573.75
3143.039	559.75
3146.206	616.75
3149.371	600.75
3152.533	609.75
3155.693	604.75
3158.85	613.75
3162.005	612.75
3165.157	611.75
3168.306	612.75
3171.453	625.75
3174.597	608.75
3177.739	606.75
3180.878	633.75
3184.014	625.75
3187.149	620.75
3190.28	627.75
3193.409	632.75
3196.536	635.75
3199.659	651.75
3202.781	634.75
3205.9	628.75
3209.016	632.75
3212.13	631.75
3215.241	644.75
3218.35	632.75
3221.456	616.75
3224.56	607.75
3227.661	617.75
3230.76	603.75
3233.856	590.75
3236.95	610.75
3240.041	583.75
3243.13	607.75
3246.216	590.75
3249.3	600.75
3252.382	588.75
3255.46	575.75
3258.537	542.75
3261.611	577.75
3264.682	585.75
3267.751	576.75
3270.818	556.75
3273.882	588.75
3276.943	562.75
3280.002	570.75
3283.059	551.75
3286.113	555.75
3289.165	546.75
3292.214	526.75
3295.261	553.75
3298.306	518.75
3301.348	525.75
3304.387	499.75
3307.425	509.75
3310.459	499.75
3313.492	511.75
3316.521	484.75
3319.549	497.75
3322.574	486.75
3325.597	481.75
3328.617	478.75
3331.635	475.75
3334.65	448.75
3337.663	474.75
3340.674	462.75
3343.682	467.75
3346.688	465.75
3349.691	461.75
3352.692	457.75
3355.691	473.75
3358.687	463.75
3361.681	452.75
3364.673	443.75
3367.662	448.75
3370.649	452.75
3373.633	427.75
3376.615	441.75
3379.595	416.75
3382.572	415.75
3385.547	407.75
3388.52	398.75
3391.49	401.75
3394.458	400.75
3397.424	400.75
3400.387	385.75
3403.348	389.75
3406.307	393.75
3409.263	391.75
3412.217	385.75
3415.168	368.75
3418.118	382.75
3421.065	366.75
3424.009	376.75
3426.951	360.75
3429.891	351.75
3432.829	345.75
3435.764	344.75
3438.697	330.75
3441.628	346.75
3444.557	310.75
3447.483	312.75
3450.407	307.75
3453.328	297.75
3456.247	289.75
3459.164	279.75
3462.079	292.75
3464.991	273.75
3467.902	260.75
3470.809	259.75
3473.715	259.75
3476.618	240.75
3479.519	234.75
3482.418	213.75
3485.315	217.75
3488.209	214.75
3491.101	207.75
3493.99	189.75
3496.878	200.75
3499.763	189.75
3502.646	193.75
3505.527	173.75
3508.405	178.75
3511.281	160.75
3514.155	169.75
3517.027	163.75
3519.897	149.75
3522.764	158.75
3525.629	124.75
3528.492	140.75
3531.352	126.75
3534.211	119.75
3537.067	112.75
3539.921	117.75
3542.773	125.75
3545.622	95.75
3548.469	93.75
3551.315	84.75
3554.157	91.75
3556.998	78.75
3559.837	79.75
3562.673	83.75
3565.507	68.75
3568.339	63.75
3571.169	67.75
3573.996	67.75
3576.822	49.75
3579.645	49.75
3582.466	54.75
3585.285	46.75
3588.101	51.75
3590.916	37.75
3593.728	49.75
3596.538	41.75
3599.346	38.75
3602.152	26.75
3604.956	33.75
3607.757	33.75
3610.556	13.75
3613.354	40.75
3616.149	26.75
3618.942	25.75
3621.732	29.75
3624.521	15.75
3627.307	10.75
3630.092	12.75
3632.874	20.75
3635.654	10.75
3638.432	8.75
3641.208	7.75
3643.982	8.75
3646.753	8.75
3649.523	-21.25
3652.29	2.75
3655.055	5.75
3657.818	4.75
3660.579	-1.25
3663.338	-5.25
3666.095	-3.25
3668.849	-26.25
3671.602	-1.25
3674.352	-18.25
3677.101	-1.25
3679.847	-0.25
3682.591	-14.25
3685.333	-26.25
3688.073	-13.25
3690.811	-22.25
3693.547	-29.25
3696.281	-25.25
3699.013	-13.25
3701.742	-17.25
3704.47	-23.25
3707.195	-17.25
3709.919	-16.25
3712.64	-19.25
3715.359	-34.25
3718.076	-9.25
3720.792	-23.25
3723.505	-16.25
3726.216	-10.25
3728.925	-23.25
3731.632	-29.25
3734.336	-26.25
3737.039	-23.25
3739.74	-18.25
3742.439	-49.25
3745.136	-17.25
3747.83	-16.25
3750.523	-21.25
3753.213	-82.25
3755.902	-30.25
3758.589	-41.25
3761.273	-32.25
3763.956	-18.25
3766.636	-40.25
3769.315	-15.25
3771.991	-29.25
3774.665	-26.25
3777.338	-23.25
3780.008	-38.25
3782.677	-31.25
3785.343	-41.25
3788.007	-44.25
3790.67	-20.25
3793.33	-39.25
3795.989	-33.25
3798.645	-26.25
3801.299	-45.25
3803.952	-39.25
3806.602	-32.25
3809.251	-24.25
3811.897	-27.25
3814.542	-27.25
3817.184	-29.25
3819.825	-25.25
3822.463	-42.25
3825.1	-28.25
3827.735	-28.25
3830.367	-36.25
3832.998	-18.25
3835.627	-31.25
3838.253	-22.25
3840.878	-29.25
3843.501	-13.25
3846.122	-23.25
3848.741	-19.25
3851.358	-20.25
3853.973	-41.25
3856.586	-21.25
3859.197	-34.25
3861.806	-25.25
3864.414	-39.25
3867.019	-31.25
3869.622	-19.25
3872.224	-8.25
3874.823	-4.25
3877.421	27.75
3880.016	43.75
3882.61	88.75
3885.202	109.75
3887.792	69.75
3890.38	31.75
3892.966	-4.25
3895.55	-27.25
3898.132	-22.25
3900.713	-22.25
3903.291	-31.25
3905.868	-43.25
3908.442	-31.25
3911.015	-30.25
3913.586	-33.25
3916.155	-34.25
3918.722	-37.25
3921.287	-36.25
3923.85	-40.25
3926.411	-38.25
3928.971	-42.25
3931.528	-31.25
3934.084	-34.25
3936.638	-43.25
3939.19	-26.25
3941.74	-31.25
3944.288	-33.25
3946.834	-30.25
3949.378	-26.25
3951.921	-39.25
3954.462	-32.25
3957	-30.25
3959.537	-17.25
3962.072	-31.25
3964.606	-44.25
3967.137	-34.25
3969.667	-36.25
3972.194	-28.25
3974.72	-35.25
3977.244	-52.25
3979.766	-35.25
3982.286	-35.25
3984.805	-27.25
3987.321	-19.25
3989.836	-21.25
3992.349	-40.25
3994.86	-33.25
3997.369	-40.25
3999.877	-32.25
4002.382	-33.25
4004.886	-23.25
4007.388	-29.25
4009.888	-18.25
4012.386	-20.25
4014.883	-22.25
4017.377	-29.25
4019.87	-21.25
4022.361	-37.25
4024.85	-26.25
4027.338	-27.25
4029.823	-35.25
4032.307	-30.25
4034.789	-31.25
4037.269	-29.25
4039.747	-41.25
4042.224	-16.25
4044.699	-30.25
4047.172	-32.25
4049.643	-19.25
4052.112	-55.25
4054.58	-26.25
4057.046	-42.25
4059.51	-25.25
4061.972	-27.25
4064.432	-46.25
4066.891	-15.25
4069.348	-32.25
4071.803	-27.25
4074.256	-30.25
4076.708	-27.25
4079.158	-24.25
4081.606	-17.25
4084.052	-30.25
4086.497	-25.25
4088.939	-24.25
4091.38	-34.25
4093.819	-23.25
4096.257	2.75
4098.693	-5.25
4101.127	-5.25
4103.559	-0.25
4105.989	126.75
4108.418	130.75
4110.845	123.75
4113.27	136.75
4115.694	131.75
4118.115	128.75
4120.535	-24.25
4122.954	-18.25
4125.37	-18.25
4127.785	-22.25
4130.198	-22.25
4132.609	-22.25
4135.019	7.75
4137.427	0.75
4139.833	5.75
4142.237	-6.25
