Data from 2018-3-6_conc=5_n=6_RamanShift_01.txt Node
Date: Tue Mar 06 14:38:18 GMT+02:00 2018
User: LAB3
Spectrometer: QEPB0276
Trigger mode: 0
Integration Time (sec): 3.000000E1
Scans to average: 1
Electric dark correction enabled: true
Nonlinearity correction enabled: false
Boxcar width: 0
XAxis mode: Raman Shifts
Number of Pixels in Spectrum: 1044
>>>>>Begin Spectral Data<<<<<
160.701	60.38
166.742	85.38
172.777	112.38
178.805	224.38
184.826	499.38
190.841	1013.38
196.849	1568.38
202.85	1981.38
208.845	2081.38
214.833	2056.38
220.815	1981.38
226.789	1957.38
232.758	1982.38
238.719	1935.38
244.674	1902.38
250.623	1868.38
256.565	1823.38
262.5	1784.38
268.429	1757.38
274.351	1749.38
280.267	1718.38
286.176	1708.38
292.079	1728.38
297.975	1720.38
303.865	1683.38
309.748	1701.38
315.625	1651.38
321.495	1672.38
327.359	1646.38
333.217	1675.38
339.068	1658.38
344.912	1672.38
350.751	1665.38
356.583	1663.38
362.408	1690.38
368.227	1675.38
374.04	1687.38
379.847	1676.38
385.647	1693.38
391.44	1687.38
397.228	1699.38
403.009	1724.38
408.784	1704.38
414.553	1723.38
420.315	1744.38
426.071	1716.38
431.821	1736.38
437.565	1731.38
443.302	1713.38
449.033	1699.38
454.758	1698.38
460.477	1691.38
466.189	1664.38
471.896	1660.38
477.596	1654.38
483.29	1621.38
488.978	1635.38
494.66	1598.38
500.335	1571.38
506.005	1488.38
511.668	1424.38
517.325	1349.38
522.977	1282.38
528.622	1253.38
534.261	1231.38
539.894	1178.38
545.521	1163.38
551.141	1141.38
556.756	1141.38
562.365	1115.38
567.968	1113.38
573.565	1089.38
579.155	1110.38
584.74	1072.38
590.319	1093.38
595.892	1106.38
601.459	1097.38
607.02	1085.38
612.575	1079.38
618.124	1081.38
623.667	1021.38
629.204	1043.38
634.735	1016.38
640.261	988.38
645.781	973.38
651.294	978.38
656.802	973.38
662.304	992.38
667.8	987.38
673.29	971.38
678.775	981.38
684.254	973.38
689.726	956.38
695.193	957.38
700.655	933.38
706.11	943.38
711.56	951.38
717.004	943.38
722.442	922.38
727.874	924.38
733.301	933.38
738.722	895.38
744.137	902.38
749.547	903.38
754.951	907.38
760.349	907.38
765.741	925.38
771.128	920.38
776.509	932.38
781.885	946.38
787.254	958.38
792.618	963.38
797.977	971.38
803.33	968.38
808.677	943.38
814.019	940.38
819.355	936.38
824.686	905.38
830.011	916.38
835.33	934.38
840.644	921.38
845.952	900.38
851.255	905.38
856.552	898.38
861.844	886.38
867.13	861.38
872.41	846.38
877.686	855.38
882.955	860.38
888.219	845.38
893.478	823.38
898.731	812.38
903.979	814.38
909.221	795.38
914.458	790.38
919.69	789.38
924.916	796.38
930.136	806.38
935.351	785.38
940.561	787.38
945.766	794.38
950.965	787.38
956.158	776.38
961.347	748.38
966.529	761.38
971.707	758.38
976.879	755.38
982.046	736.38
987.208	726.38
992.364	738.38
997.515	729.38
1002.66	736.38
1007.801	737.38
1012.936	756.38
1018.066	730.38
1023.19	753.38
1028.309	756.38
1033.423	764.38
1038.532	764.38
1043.636	748.38
1048.734	733.38
1053.827	738.38
1058.915	721.38
1063.998	734.38
1069.075	713.38
1074.147	719.38
1079.214	707.38
1084.276	727.38
1089.333	728.38
1094.385	738.38
1099.431	723.38
1104.472	725.38
1109.509	701.38
1114.54	700.38
1119.565	690.38
1124.586	686.38
1129.602	677.38
1134.613	660.38
1139.618	643.38
1144.619	659.38
1149.614	661.38
1154.604	657.38
1159.589	654.38
1164.57	680.38
1169.545	690.38
1174.515	683.38
1179.48	660.38
1184.44	681.38
1189.395	676.38
1194.345	658.38
1199.29	668.38
1204.23	648.38
1209.165	630.38
1214.095	655.38
1219.021	652.38
1223.941	648.38
1228.856	663.38
1233.766	666.38
1238.672	662.38
1243.572	678.38
1248.467	655.38
1253.358	649.38
1258.244	621.38
1263.124	635.38
1268	636.38
1272.871	595.38
1277.737	606.38
1282.599	593.38
1287.455	595.38
1292.306	605.38
1297.153	590.38
1301.995	594.38
1306.832	603.38
1311.664	604.38
1316.491	594.38
1321.314	607.38
1326.132	579.38
1330.945	593.38
1335.753	570.38
1340.556	558.38
1345.354	551.38
1350.148	547.38
1354.937	544.38
1359.722	530.38
1364.501	528.38
1369.276	527.38
1374.046	549.38
1378.811	527.38
1383.572	530.38
1388.327	539.38
1393.079	512.38
1397.825	507.38
1402.567	521.38
1407.304	508.38
1412.036	507.38
1416.764	492.38
1421.487	487.38
1426.205	492.38
1430.919	501.38
1435.628	504.38
1440.333	500.38
1445.032	507.38
1449.727	519.38
1454.418	520.38
1459.104	514.38
1463.785	498.38
1468.462	504.38
1473.134	496.38
1477.802	485.38
1482.465	460.38
1487.123	471.38
1491.777	453.38
1496.426	432.38
1501.071	473.38
1505.711	461.38
1510.347	469.38
1514.978	466.38
1519.604	460.38
1524.226	475.38
1528.844	455.38
1533.457	469.38
1538.065	460.38
1542.669	457.38
1547.269	467.38
1551.864	458.38
1556.454	458.38
1561.041	460.38
1565.622	452.38
1570.199	467.38
1574.772	463.38
1579.34	461.38
1583.904	473.38
1588.464	487.38
1593.019	475.38
1597.569	469.38
1602.115	467.38
1606.657	466.38
1611.195	478.38
1615.728	475.38
1620.256	465.38
1624.78	442.38
1629.3	471.38
1633.816	461.38
1638.327	460.38
1642.834	468.38
1647.336	465.38
1651.834	479.38
1656.328	471.38
1660.817	476.38
1665.302	456.38
1669.783	456.38
1674.259	445.38
1678.732	434.38
1683.199	430.38
1687.663	409.38
1692.122	411.38
1696.577	409.38
1701.028	404.38
1705.474	378.38
1709.917	379.38
1714.355	362.38
1718.788	368.38
1723.218	350.38
1727.643	339.38
1732.064	352.38
1736.481	341.38
1740.893	338.38
1745.301	329.38
1749.705	305.38
1754.105	322.38
1758.501	304.38
1762.893	311.38
1767.28	291.38
1771.663	301.38
1776.042	279.38
1780.417	282.38
1784.787	290.38
1789.154	297.38
1793.516	294.38
1797.874	286.38
1802.228	271.38
1806.578	267.38
1810.924	286.38
1815.266	165.38
1819.603	287.38
1823.937	265.38
1828.266	274.38
1832.591	267.38
1836.913	270.38
1841.23	256.38
1845.543	261.38
1849.852	264.38
1854.156	262.38
1858.457	257.38
1862.754	259.38
1867.047	256.38
1871.335	273.38
1875.62	278.38
1879.9	270.38
1884.177	251.38
1888.449	256.38
1892.718	253.38
1896.982	267.38
1901.243	240.38
1905.499	242.38
1909.752	247.38
1914	218.38
1918.245	250.38
1922.485	247.38
1926.722	240.38
1930.954	237.38
1935.183	254.38
1939.408	254.38
1943.628	247.38
1947.845	241.38
1952.058	235.38
1956.267	231.38
1960.472	240.38
1964.673	247.38
1968.87	229.38
1973.063	226.38
1977.252	223.38
1981.438	220.38
1985.619	220.38
1989.797	209.38
1993.971	218.38
1998.14	225.38
2002.306	222.38
2006.469	220.38
2010.627	212.38
2014.781	213.38
2018.932	206.38
2023.078	227.38
2027.221	218.38
2031.36	201.38
2035.495	206.38
2039.627	213.38
2043.754	208.38
2047.878	200.38
2051.998	193.38
2056.114	192.38
2060.226	202.38
2064.334	204.38
2068.439	207.38
2072.54	204.38
2076.637	194.38
2080.73	193.38
2084.82	193.38
2088.906	184.38
2092.988	193.38
2097.066	198.38
2101.14	202.38
2105.211	199.38
2109.278	185.38
2113.342	191.38
2117.401	178.38
2121.457	170.38
2125.509	174.38
2129.558	186.38
2133.602	179.38
2137.643	184.38
2141.681	169.38
2145.714	172.38
2149.744	185.38
2153.77	187.38
2157.793	162.38
2161.812	144.38
2165.827	146.38
2169.838	169.38
2173.846	159.38
2177.851	161.38
2181.851	172.38
2185.848	154.38
2189.841	152.38
2193.831	148.38
2197.817	152.38
2201.799	151.38
2205.778	142.38
2209.753	137.38
2213.725	140.38
2217.693	144.38
2221.657	136.38
2225.618	155.38
2229.575	142.38
2233.529	140.38
2237.479	144.38
2241.425	138.38
2245.368	127.38
2249.307	140.38
2253.243	127.38
2257.175	132.38
2261.104	120.38
2265.029	131.38
2268.95	123.38
2272.868	120.38
2276.783	108.38
2280.694	116.38
2284.601	114.38
2288.505	114.38
2292.405	121.38
2296.302	100.38
2300.195	116.38
2304.085	81.38
2307.971	105.38
2311.854	84.38
2315.734	101.38
2319.609	103.38
2323.482	82.38
2327.351	96.38
2331.216	97.38
2335.078	103.38
2338.937	99.38
2342.792	88.38
2346.643	84.38
2350.492	100.38
2354.336	88.38
2358.178	105.38
2362.015	96.38
2365.85	91.38
2369.681	94.38
2373.508	97.38
2377.333	100.38
2381.153	98.38
2384.971	91.38
2388.785	104.38
2392.595	82.38
2396.402	83.38
2400.206	65.38
2404.007	80.38
2407.804	85.38
2411.597	88.38
2415.388	85.38
2419.174	82.38
2422.958	93.38
2426.738	84.38
2430.515	88.38
2434.289	82.38
2438.059	81.38
2441.825	82.38
2445.589	85.38
2449.349	64.38
2453.106	81.38
2456.859	80.38
2460.61	78.38
2464.356	64.38
2468.1	65.38
2471.84	65.38
2475.577	69.38
2479.311	68.38
2483.041	66.38
2486.768	82.38
2490.492	78.38
2494.213	67.38
2497.93	59.38
2501.644	53.38
2505.355	70.38
2509.062	68.38
2512.766	64.38
2516.467	57.38
2520.165	62.38
2523.859	43.38
2527.551	87.38
2531.239	52.38
2534.923	65.38
2538.605	59.38
2542.283	55.38
2545.958	68.38
2549.63	75.38
2553.299	69.38
2556.964	50.38
2560.626	59.38
2564.285	61.38
2567.941	46.38
2571.594	51.38
2575.243	68.38
2578.89	51.38
2582.533	55.38
2586.173	53.38
2589.809	54.38
2593.443	27.38
2597.073	50.38
2600.701	50.38
2604.325	52.38
2607.946	39.38
2611.564	51.38
2615.178	50.38
2618.79	52.38
2622.398	34.38
2626.004	52.38
2629.606	51.38
2633.205	42.38
2636.801	48.38
2640.394	47.38
2643.983	45.38
2647.57	43.38
2651.153	38.38
2654.734	47.38
2658.311	22.38
2661.885	31.38
2665.456	33.38
2669.025	38.38
2672.589	34.38
2676.151	50.38
2679.71	49.38
2683.266	36.38
2686.819	38.38
2690.368	34.38
2693.915	42.38
2697.458	37.38
2700.999	39.38
2704.536	40.38
2708.071	37.38
2711.602	42.38
2715.13	33.38
2718.656	17.38
2722.178	31.38
2725.697	23.38
2729.214	27.38
2732.727	33.38
2736.237	17.38
2739.744	26.38
2743.249	22.38
2746.75	27.38
2750.248	25.38
2753.743	26.38
2757.236	27.38
2760.725	32.38
2764.211	-0.62
2767.695	29.38
2771.175	27.38
2774.652	29.38
2778.127	21.38
2781.598	23.38
2785.067	28.38
2788.532	17.38
2791.995	30.38
2795.455	20.38
2798.911	30.38
2802.365	21.38
2805.816	22.38
2809.264	30.38
2812.709	17.38
2816.151	29.38
2819.59	15.38
2823.026	24.38
2826.46	18.38
2829.89	32.38
2833.318	4.38
2836.742	25.38
2840.164	23.38
2843.583	23.38
2846.999	21.38
2850.412	28.38
2853.822	17.38
2857.229	37.38
2860.634	31.38
2864.035	15.38
2867.434	33.38
2870.83	31.38
2874.223	25.38
2877.613	26.38
2881	22.38
2884.385	17.38
2887.766	24.38
2891.145	28.38
2894.521	27.38
2897.894	12.38
2901.264	39.38
2904.631	38.38
2907.996	37.38
2911.358	45.38
2914.717	39.38
2918.073	33.38
2921.426	31.38
2924.777	19.38
2928.124	34.38
2931.469	46.38
2934.811	25.38
2938.15	47.38
2941.487	34.38
2944.821	58.38
2948.152	42.38
2951.48	46.38
2954.805	33.38
2958.128	51.38
2961.447	38.38
2964.765	54.38
2968.079	40.38
2971.39	44.38
2974.699	42.38
2978.005	47.38
2981.308	47.38
2984.609	40.38
2987.907	56.38
2991.202	53.38
2994.494	40.38
2997.784	50.38
3001.07	46.38
3004.355	38.38
3007.636	49.38
3010.915	46.38
3014.191	47.38
3017.464	49.38
3020.734	54.38
3024.002	51.38
3027.267	49.38
3030.53	51.38
3033.789	48.38
3037.046	52.38
3040.301	49.38
3043.552	57.38
3046.801	65.38
3050.048	72.38
3053.291	82.38
3056.532	68.38
3059.771	50.38
3063.006	69.38
3066.239	72.38
3069.469	78.38
3072.697	70.38
3075.922	73.38
3079.144	73.38
3082.364	92.38
3085.581	75.38
3088.795	97.38
3092.007	97.38
3095.216	99.38
3098.423	83.38
3101.627	72.38
3104.828	100.38
3108.026	97.38
3111.222	113.38
3114.416	116.38
3117.607	109.38
3120.795	125.38
3123.98	115.38
3127.163	101.38
3130.344	116.38
3133.521	107.38
3136.696	128.38
3139.869	132.38
3143.039	108.38
3146.206	145.38
3149.371	136.38
3152.533	137.38
3155.693	118.38
3158.85	139.38
3162.005	139.38
3165.157	136.38
3168.306	134.38
3171.453	142.38
3174.597	129.38
3177.739	138.38
3180.878	146.38
3184.014	146.38
3187.149	142.38
3190.28	139.38
3193.409	155.38
3196.536	147.38
3199.659	147.38
3202.781	151.38
3205.9	135.38
3209.016	144.38
3212.13	142.38
3215.241	152.38
3218.35	144.38
3221.456	139.38
3224.56	137.38
3227.661	136.38
3230.76	129.38
3233.856	129.38
3236.95	141.38
3240.041	128.38
3243.13	131.38
3246.216	137.38
3249.3	136.38
3252.382	141.38
3255.46	128.38
3258.537	88.38
3261.611	123.38
3264.682	120.38
3267.751	127.38
3270.818	111.38
3273.882	131.38
3276.943	124.38
3280.002	136.38
3283.059	117.38
3286.113	124.38
3289.165	113.38
3292.214	111.38
3295.261	136.38
3298.306	101.38
3301.348	114.38
3304.387	107.38
3307.425	115.38
3310.459	111.38
3313.492	123.38
3316.521	113.38
3319.549	119.38
3322.574	108.38
3325.597	103.38
3328.617	104.38
3331.635	107.38
3334.65	89.38
3337.663	103.38
3340.674	99.38
3343.682	105.38
3346.688	110.38
3349.691	100.38
3352.692	101.38
3355.691	107.38
3358.687	101.38
3361.681	104.38
3364.673	94.38
3367.662	102.38
3370.649	103.38
3373.633	89.38
3376.615	100.38
3379.595	69.38
3382.572	85.38
3385.547	80.38
3388.52	74.38
3391.49	80.38
3394.458	86.38
3397.424	83.38
3400.387	77.38
3403.348	80.38
3406.307	76.38
3409.263	77.38
3412.217	87.38
3415.168	77.38
3418.118	84.38
3421.065	68.38
3424.009	87.38
3426.951	68.38
3429.891	66.38
3432.829	72.38
3435.764	73.38
3438.697	55.38
3441.628	74.38
3444.557	51.38
3447.483	56.38
3450.407	62.38
3453.328	53.38
3456.247	53.38
3459.164	40.38
3462.079	55.38
3464.991	46.38
3467.902	42.38
3470.809	38.38
3473.715	55.38
3476.618	39.38
3479.519	45.38
3482.418	27.38
3485.315	24.38
3488.209	28.38
3491.101	23.38
3493.99	14.38
3496.878	19.38
3499.763	22.38
3502.646	24.38
3505.527	16.38
3508.405	18.38
3511.281	3.38
3514.155	24.38
3517.027	13.38
3519.897	0.38
3522.764	14.38
3525.629	-7.62
3528.492	10.38
3531.352	12.38
3534.211	5.38
3537.067	0.38
3539.921	5.38
3542.773	13.38
3545.622	-3.62
3548.469	-13.62
3551.315	-2.62
3554.157	-2.62
3556.998	-10.62
3559.837	-8.62
3562.673	0.38
3565.507	-10.62
3568.339	-15.62
3571.169	-7.62
3573.996	-12.62
3576.822	-27.62
3579.645	-18.62
3582.466	-22.62
3585.285	-9.62
3588.101	-13.62
3590.916	-19.62
3593.728	-10.62
3596.538	-15.62
3599.346	-16.62
3602.152	-22.62
3604.956	-20.62
3607.757	-12.62
3610.556	-27.62
3613.354	-13.62
3616.149	-20.62
3618.942	-23.62
3621.732	-17.62
3624.521	-25.62
3627.307	-32.62
3630.092	-26.62
3632.874	-15.62
3635.654	-26.62
3638.432	-24.62
3641.208	-31.62
3643.982	-31.62
3646.753	-18.62
3649.523	-52.62
3652.29	-29.62
3655.055	-20.62
3657.818	-25.62
3660.579	-33.62
3663.338	-41.62
3666.095	-35.62
3668.849	-59.62
3671.602	-24.62
3674.352	-42.62
3677.101	-23.62
3679.847	-20.62
3682.591	-39.62
3685.333	-37.62
3688.073	-29.62
3690.811	-39.62
3693.547	-46.62
3696.281	-39.62
3699.013	-28.62
3701.742	-36.62
3704.47	-42.62
3707.195	-33.62
3709.919	-34.62
3712.64	-30.62
3715.359	-44.62
3718.076	-21.62
3720.792	-33.62
3723.505	-30.62
3726.216	-25.62
3728.925	-34.62
3731.632	-40.62
3734.336	-34.62
3737.039	-32.62
3739.74	-31.62
3742.439	-57.62
3745.136	-25.62
3747.83	-26.62
3750.523	-25.62
3753.213	-92.62
3755.902	-30.62
3758.589	-47.62
3761.273	-32.62
3763.956	-28.62
3766.636	-46.62
3769.315	-18.62
3771.991	-35.62
3774.665	-37.62
3777.338	-33.62
3780.008	-41.62
3782.677	-32.62
3785.343	-50.62
3788.007	-52.62
3790.67	-29.62
3793.33	-47.62
3795.989	-40.62
3798.645	-29.62
3801.299	-43.62
3803.952	-44.62
3806.602	-39.62
3809.251	-27.62
3811.897	-33.62
3814.542	-39.62
3817.184	-36.62
3819.825	-33.62
3822.463	-47.62
3825.1	-37.62
3827.735	-27.62
3830.367	-41.62
3832.998	-22.62
3835.627	-38.62
3838.253	-26.62
3840.878	-36.62
3843.501	-18.62
3846.122	-24.62
3848.741	-25.62
3851.358	-26.62
3853.973	-45.62
3856.586	-18.62
3859.197	-40.62
3861.806	-35.62
3864.414	-45.62
3867.019	-32.62
3869.622	-21.62
3872.224	-20.62
3874.823	-11.62
3877.421	16.38
3880.016	31.38
3882.61	62.38
3885.202	69.38
3887.792	49.38
3890.38	23.38
3892.966	-15.62
3895.55	-35.62
3898.132	-25.62
3900.713	-27.62
3903.291	-27.62
3905.868	-41.62
3908.442	-30.62
3911.015	-30.62
3913.586	-34.62
3916.155	-39.62
3918.722	-40.62
3921.287	-35.62
3923.85	-47.62
3926.411	-39.62
3928.971	-37.62
3931.528	-34.62
3934.084	-34.62
3936.638	-50.62
3939.19	-32.62
3941.74	-31.62
3944.288	-36.62
3946.834	-40.62
3949.378	-25.62
3951.921	-40.62
3954.462	-34.62
3957	-36.62
3959.537	-22.62
3962.072	-38.62
3964.606	-49.62
3967.137	-41.62
3969.667	-39.62
3972.194	-33.62
3974.72	-36.62
3977.244	-61.62
3979.766	-44.62
3982.286	-43.62
3984.805	-35.62
3987.321	-27.62
3989.836	-37.62
3992.349	-39.62
3994.86	-37.62
3997.369	-47.62
3999.877	-42.62
4002.382	-42.62
4004.886	-34.62
4007.388	-39.62
4009.888	-28.62
4012.386	-28.62
4014.883	-35.62
4017.377	-37.62
4019.87	-34.62
4022.361	-44.62
4024.85	-36.62
4027.338	-34.62
4029.823	-41.62
4032.307	-35.62
4034.789	-34.62
4037.269	-36.62
4039.747	-54.62
4042.224	-27.62
4044.699	-46.62
4047.172	-40.62
4049.643	-25.62
4052.112	-61.62
4054.58	-34.62
4057.046	-42.62
4059.51	-36.62
4061.972	-30.62
4064.432	-52.62
4066.891	-24.62
4069.348	-35.62
4071.803	-30.62
4074.256	-40.62
4076.708	-32.62
4079.158	-37.62
4081.606	-22.62
4084.052	-35.62
4086.497	-34.62
4088.939	-32.62
4091.38	-37.62
4093.819	-31.62
4096.257	1.38
4098.693	-4.62
4101.127	-3.62
4103.559	2.38
4105.989	78.38
4108.418	80.38
4110.845	66.38
4113.27	72.38
4115.694	68.38
4118.115	57.38
4120.535	-34.62
4122.954	-30.62
4125.37	-24.62
4127.785	-29.62
4130.198	-28.62
4132.609	-28.62
4135.019	7.38
4137.427	-0.62
4139.833	4.38
4142.237	-6.62
