Data from 2018-3-6_conc=2_n=7_RamanShift_03.txt Node
Date: Tue Mar 06 13:01:19 GMT+02:00 2018
User: LAB3
Spectrometer: QEPB0276
Trigger mode: 0
Integration Time (sec): 3.000000E1
Scans to average: 1
Electric dark correction enabled: true
Nonlinearity correction enabled: false
Boxcar width: 0
XAxis mode: Raman Shifts
Number of Pixels in Spectrum: 1044
>>>>>Begin Spectral Data<<<<<
160.701	150.12
166.742	187.12
172.777	287.12
178.805	586.12
184.826	1369.12
190.841	2726.12
196.849	4357.12
202.85	5577.12
208.845	6021.12
214.833	6057.12
220.815	5993.12
226.789	6039.12
232.758	6039.12
238.719	6049.12
244.674	6031.12
250.623	5998.12
256.565	5942.12
262.5	5900.12
268.429	5888.12
274.351	5881.12
280.267	5870.12
286.176	5870.12
292.079	5915.12
297.975	5888.12
303.865	5925.12
309.748	5927.12
315.625	5927.12
321.495	5970.12
327.359	5924.12
333.217	5978.12
339.068	6002.12
344.912	6041.12
350.751	6039.12
356.583	6060.12
362.408	6095.12
368.227	6109.12
374.04	6148.12
379.847	6169.12
385.647	6244.12
391.44	6262.12
397.228	6275.12
403.009	6323.12
408.784	6359.12
414.553	6388.12
420.315	6391.12
426.071	6379.12
431.821	6404.12
437.565	6399.12
443.302	6372.12
449.033	6334.12
454.758	6312.12
460.477	6259.12
466.189	6197.12
471.896	6161.12
477.596	6070.12
483.29	6050.12
488.978	6071.12
494.66	6018.12
500.335	5861.12
506.005	5591.12
511.668	5319.12
517.325	5051.12
522.977	4835.12
528.622	4664.12
534.261	4548.12
539.894	4482.12
545.521	4416.12
551.141	4364.12
556.756	4255.12
562.365	4254.12
567.968	4227.12
573.565	4193.12
579.155	4176.12
584.74	4115.12
590.319	4146.12
595.892	4154.12
601.459	4141.12
607.02	4111.12
612.575	4090.12
618.124	4059.12
623.667	3983.12
629.204	3890.12
634.735	3851.12
640.261	3839.12
645.781	3778.12
651.294	3763.12
656.802	3761.12
662.304	3760.12
667.8	3739.12
673.29	3724.12
678.775	3716.12
684.254	3716.12
689.726	3678.12
695.193	3641.12
700.655	3644.12
706.11	3624.12
711.56	3592.12
717.004	3584.12
722.442	3548.12
727.874	3537.12
733.301	3568.12
738.722	3518.12
744.137	3531.12
749.547	3521.12
754.951	3519.12
760.349	3525.12
765.741	3550.12
771.128	3529.12
776.509	3613.12
781.885	3665.12
787.254	3689.12
792.618	3716.12
797.977	3716.12
803.33	3690.12
808.677	3667.12
814.019	3638.12
819.355	3602.12
824.686	3571.12
830.011	3539.12
835.33	3533.12
840.644	3512.12
845.952	3461.12
851.255	3426.12
856.552	3402.12
861.844	3386.12
867.13	3340.12
872.41	3307.12
877.686	3299.12
882.955	3271.12
888.219	3257.12
893.478	3204.12
898.731	3154.12
903.979	3120.12
909.221	3072.12
914.458	3055.12
919.69	3038.12
924.916	3062.12
930.136	3051.12
935.351	3057.12
940.561	3071.12
945.766	3071.12
950.965	3056.12
956.158	3028.12
961.347	2976.12
966.529	2938.12
971.707	2927.12
976.879	2874.12
982.046	2840.12
987.208	2826.12
992.364	2832.12
997.515	2849.12
1002.66	2873.12
1007.801	2865.12
1012.936	2925.12
1018.066	2890.12
1023.19	2941.12
1028.309	2957.12
1033.423	2954.12
1038.532	2951.12
1043.636	2927.12
1048.734	2913.12
1053.827	2884.12
1058.915	2840.12
1063.998	2818.12
1069.075	2813.12
1074.147	2832.12
1079.214	2818.12
1084.276	2823.12
1089.333	2855.12
1094.385	2833.12
1099.431	2855.12
1104.472	2822.12
1109.509	2775.12
1114.54	2753.12
1119.565	2692.12
1124.586	2678.12
1129.602	2648.12
1134.613	2594.12
1139.618	2599.12
1144.619	2599.12
1149.614	2624.12
1154.604	2624.12
1159.589	2626.12
1164.57	2627.12
1169.545	2652.12
1174.515	2657.12
1179.48	2631.12
1184.44	2608.12
1189.395	2589.12
1194.345	2548.12
1199.29	2588.12
1204.23	2541.12
1209.165	2558.12
1214.095	2557.12
1219.021	2577.12
1223.941	2582.12
1228.856	2597.12
1233.766	2582.12
1238.672	2600.12
1243.572	2596.12
1248.467	2554.12
1253.358	2539.12
1258.244	2480.12
1263.124	2451.12
1268	2412.12
1272.871	2366.12
1277.737	2372.12
1282.599	2350.12
1287.455	2342.12
1292.306	2330.12
1297.153	2343.12
1301.995	2356.12
1306.832	2364.12
1311.664	2368.12
1316.491	2397.12
1321.314	2382.12
1326.132	2335.12
1330.945	2300.12
1335.753	2280.12
1340.556	2226.12
1345.354	2207.12
1350.148	2193.12
1354.937	2135.12
1359.722	2125.12
1364.501	2094.12
1369.276	2108.12
1374.046	2095.12
1378.811	2099.12
1383.572	2074.12
1388.327	2097.12
1393.079	2055.12
1397.825	2071.12
1402.567	2030.12
1407.304	2030.12
1412.036	2010.12
1416.764	2012.12
1421.487	1981.12
1426.205	2004.12
1430.919	2031.12
1435.628	2008.12
1440.333	2023.12
1445.032	2045.12
1449.727	2071.12
1454.418	2077.12
1459.104	2060.12
1463.785	2017.12
1468.462	2023.12
1473.134	1957.12
1477.802	1940.12
1482.465	1909.12
1487.123	1904.12
1491.777	1872.12
1496.426	1874.12
1501.071	1893.12
1505.711	1897.12
1510.347	1912.12
1514.978	1918.12
1519.604	1923.12
1524.226	1912.12
1528.844	1891.12
1533.457	1908.12
1538.065	1883.12
1542.669	1863.12
1547.269	1842.12
1551.864	1832.12
1556.454	1823.12
1561.041	1835.12
1565.622	1813.12
1570.199	1846.12
1574.772	1844.12
1579.34	1866.12
1583.904	1883.12
1588.464	1904.12
1593.019	1906.12
1597.569	1903.12
1602.115	1875.12
1606.657	1859.12
1611.195	1882.12
1615.728	1860.12
1620.256	1856.12
1624.78	1835.12
1629.3	1860.12
1633.816	1851.12
1638.327	1873.12
1642.834	1881.12
1647.336	1900.12
1651.834	1912.12
1656.328	1908.12
1660.817	1891.12
1665.302	1886.12
1669.783	1846.12
1674.259	1836.12
1678.732	1799.12
1683.199	1762.12
1687.663	1710.12
1692.122	1672.12
1696.577	1646.12
1701.028	1621.12
1705.474	1566.12
1709.917	1569.12
1714.355	1540.12
1718.788	1523.12
1723.218	1495.12
1727.643	1464.12
1732.064	1462.12
1736.481	1425.12
1740.893	1421.12
1745.301	1373.12
1749.705	1343.12
1754.105	1334.12
1758.501	1287.12
1762.893	1281.12
1767.28	1246.12
1771.663	1258.12
1776.042	1241.12
1780.417	1221.12
1784.787	1246.12
1789.154	1237.12
1793.516	1240.12
1797.874	1221.12
1802.228	1235.12
1806.578	1211.12
1810.924	1216.12
1815.266	1089.12
1819.603	1196.12
1823.937	1167.12
1828.266	1150.12
1832.591	1147.12
1836.913	1120.12
1841.23	1107.12
1845.543	1109.12
1849.852	1123.12
1854.156	1115.12
1858.457	1108.12
1862.754	1103.12
1867.047	1111.12
1871.335	1144.12
1875.62	1128.12
1879.9	1143.12
1884.177	1113.12
1888.449	1134.12
1892.718	1112.12
1896.982	1107.12
1901.243	1089.12
1905.499	1100.12
1909.752	1077.12
1914	1068.12
1918.245	1096.12
1922.485	1100.12
1926.722	1106.12
1930.954	1094.12
1935.183	1118.12
1939.408	1109.12
1943.628	1115.12
1947.845	1092.12
1952.058	1090.12
1956.267	1064.12
1960.472	1063.12
1964.673	1032.12
1968.87	1027.12
1973.063	1005.12
1977.252	991.12
1981.438	972.12
1985.619	966.12
1989.797	945.12
1993.971	951.12
1998.14	948.12
2002.306	949.12
2006.469	942.12
2010.627	938.12
2014.781	936.12
2018.932	927.12
2023.078	935.12
2027.221	924.12
2031.36	895.12
2035.495	899.12
2039.627	885.12
2043.754	897.12
2047.878	874.12
2051.998	873.12
2056.114	880.12
2060.226	873.12
2064.334	888.12
2068.439	880.12
2072.54	906.12
2076.637	886.12
2080.73	890.12
2084.82	899.12
2088.906	882.12
2092.988	893.12
2097.066	881.12
2101.14	871.12
2105.211	874.12
2109.278	841.12
2113.342	851.12
2117.401	829.12
2121.457	816.12
2125.509	808.12
2129.558	817.12
2133.602	802.12
2137.643	799.12
2141.681	793.12
2145.714	792.12
2149.744	778.12
2153.77	772.12
2157.793	756.12
2161.812	741.12
2165.827	725.12
2169.838	744.12
2173.846	720.12
2177.851	708.12
2181.851	719.12
2185.848	701.12
2189.841	699.12
2193.831	683.12
2197.817	677.12
2201.799	671.12
2205.778	661.12
2209.753	655.12
2213.725	651.12
2217.693	658.12
2221.657	641.12
2225.618	656.12
2229.575	638.12
2233.529	641.12
2237.479	637.12
2241.425	625.12
2245.368	610.12
2249.307	619.12
2253.243	599.12
2257.175	596.12
2261.104	580.12
2265.029	577.12
2268.95	569.12
2272.868	562.12
2276.783	555.12
2280.694	553.12
2284.601	543.12
2288.505	538.12
2292.405	550.12
2296.302	506.12
2300.195	516.12
2304.085	492.12
2307.971	504.12
2311.854	479.12
2315.734	483.12
2319.609	499.12
2323.482	456.12
2327.351	466.12
2331.216	465.12
2335.078	467.12
2338.937	464.12
2342.792	449.12
2346.643	450.12
2350.492	468.12
2354.336	452.12
2358.178	463.12
2362.015	455.12
2365.85	440.12
2369.681	453.12
2373.508	452.12
2377.333	472.12
2381.153	457.12
2384.971	452.12
2388.785	456.12
2392.595	445.12
2396.402	430.12
2400.206	408.12
2404.007	430.12
2407.804	430.12
2411.597	426.12
2415.388	427.12
2419.174	429.12
2422.958	428.12
2426.738	429.12
2430.515	423.12
2434.289	405.12
2438.059	415.12
2441.825	407.12
2445.589	414.12
2449.349	390.12
2453.106	399.12
2456.859	385.12
2460.61	391.12
2464.356	382.12
2468.1	370.12
2471.84	373.12
2475.577	373.12
2479.311	369.12
2483.041	377.12
2486.768	379.12
2490.492	376.12
2494.213	371.12
2497.93	359.12
2501.644	348.12
2505.355	366.12
2509.062	357.12
2512.766	361.12
2516.467	359.12
2520.165	357.12
2523.859	344.12
2527.551	379.12
2531.239	344.12
2534.923	352.12
2538.605	345.12
2542.283	349.12
2545.958	351.12
2549.63	352.12
2553.299	353.12
2556.964	324.12
2560.626	333.12
2564.285	338.12
2567.941	316.12
2571.594	326.12
2575.243	330.12
2578.89	324.12
2582.533	328.12
2586.173	323.12
2589.809	314.12
2593.443	299.12
2597.073	316.12
2600.701	310.12
2604.325	310.12
2607.946	297.12
2611.564	309.12
2615.178	302.12
2618.79	309.12
2622.398	290.12
2626.004	306.12
2629.606	294.12
2633.205	277.12
2636.801	291.12
2640.394	283.12
2643.983	273.12
2647.57	279.12
2651.153	266.12
2654.734	281.12
2658.311	249.12
2661.885	261.12
2665.456	267.12
2669.025	258.12
2672.589	255.12
2676.151	270.12
2679.71	263.12
2683.266	255.12
2686.819	238.12
2690.368	252.12
2693.915	243.12
2697.458	252.12
2700.999	244.12
2704.536	240.12
2708.071	234.12
2711.602	227.12
2715.13	243.12
2718.656	216.12
2722.178	228.12
2725.697	211.12
2729.214	228.12
2732.727	227.12
2736.237	218.12
2739.744	222.12
2743.249	219.12
2746.75	221.12
2750.248	218.12
2753.743	222.12
2757.236	221.12
2760.725	226.12
2764.211	189.12
2767.695	222.12
2771.175	208.12
2774.652	216.12
2778.127	207.12
2781.598	206.12
2785.067	217.12
2788.532	199.12
2791.995	210.12
2795.455	213.12
2798.911	215.12
2802.365	208.12
2805.816	216.12
2809.264	220.12
2812.709	207.12
2816.151	214.12
2819.59	206.12
2823.026	216.12
2826.46	213.12
2829.89	218.12
2833.318	204.12
2836.742	216.12
2840.164	216.12
2843.583	213.12
2846.999	211.12
2850.412	219.12
2853.822	213.12
2857.229	230.12
2860.634	229.12
2864.035	208.12
2867.434	243.12
2870.83	252.12
2874.223	239.12
2877.613	241.12
2881	227.12
2884.385	233.12
2887.766	248.12
2891.145	242.12
2894.521	247.12
2897.894	228.12
2901.264	245.12
2904.631	245.12
2907.996	249.12
2911.358	257.12
2914.717	250.12
2918.073	258.12
2921.426	248.12
2924.777	237.12
2928.124	262.12
2931.469	277.12
2934.811	259.12
2938.15	285.12
2941.487	279.12
2944.821	295.12
2948.152	273.12
2951.48	285.12
2954.805	267.12
2958.128	289.12
2961.447	271.12
2964.765	286.12
2968.079	282.12
2971.39	289.12
2974.699	274.12
2978.005	292.12
2981.308	289.12
2984.609	287.12
2987.907	287.12
2991.202	305.12
2994.494	292.12
2997.784	317.12
3001.07	300.12
3004.355	296.12
3007.636	311.12
3010.915	319.12
3014.191	305.12
3017.464	321.12
3020.734	316.12
3024.002	327.12
3027.267	321.12
3030.53	324.12
3033.789	323.12
3037.046	323.12
3040.301	323.12
3043.552	340.12
3046.801	340.12
3050.048	357.12
3053.291	372.12
3056.532	369.12
3059.771	372.12
3063.006	389.12
3066.239	401.12
3069.469	414.12
3072.697	417.12
3075.922	421.12
3079.144	429.12
3082.364	460.12
3085.581	446.12
3088.795	465.12
3092.007	480.12
3095.216	486.12
3098.423	492.12
3101.627	474.12
3104.828	505.12
3108.026	504.12
3111.222	525.12
3114.416	542.12
3117.607	550.12
3120.795	552.12
3123.98	573.12
3127.163	572.12
3130.344	574.12
3133.521	602.12
3136.696	625.12
3139.869	636.12
3143.039	620.12
3146.206	661.12
3149.371	664.12
3152.533	662.12
3155.693	651.12
3158.85	669.12
3162.005	679.12
3165.157	675.12
3168.306	674.12
3171.453	682.12
3174.597	667.12
3177.739	665.12
3180.878	671.12
3184.014	693.12
3187.149	684.12
3190.28	684.12
3193.409	696.12
3196.536	695.12
3199.659	706.12
3202.781	706.12
3205.9	693.12
3209.016	697.12
3212.13	696.12
3215.241	686.12
3218.35	692.12
3221.456	670.12
3224.56	663.12
3227.661	679.12
3230.76	663.12
3233.856	656.12
3236.95	663.12
3240.041	652.12
3243.13	655.12
3246.216	642.12
3249.3	658.12
3252.382	656.12
3255.46	649.12
3258.537	589.12
3261.611	627.12
3264.682	627.12
3267.751	651.12
3270.818	623.12
3273.882	637.12
3276.943	624.12
3280.002	630.12
3283.059	609.12
3286.113	609.12
3289.165	592.12
3292.214	594.12
3295.261	602.12
3298.306	565.12
3301.348	570.12
3304.387	556.12
3307.425	561.12
3310.459	550.12
3313.492	553.12
3316.521	545.12
3319.549	549.12
3322.574	537.12
3325.597	519.12
3328.617	523.12
3331.635	511.12
3334.65	510.12
3337.663	529.12
3340.674	513.12
3343.682	510.12
3346.688	518.12
3349.691	498.12
3352.692	507.12
3355.691	511.12
3358.687	510.12
3361.681	497.12
3364.673	495.12
3367.662	497.12
3370.649	497.12
3373.633	475.12
3376.615	493.12
3379.595	455.12
3382.572	459.12
3385.547	445.12
3388.52	441.12
3391.49	445.12
3394.458	437.12
3397.424	439.12
3400.387	431.12
3403.348	432.12
3406.307	424.12
3409.263	413.12
3412.217	428.12
3415.168	422.12
3418.118	425.12
3421.065	409.12
3424.009	417.12
3426.951	399.12
3429.891	389.12
3432.829	384.12
3435.764	389.12
3438.697	374.12
3441.628	374.12
3444.557	344.12
3447.483	345.12
3450.407	340.12
3453.328	329.12
3456.247	313.12
3459.164	316.12
3462.079	312.12
3464.991	304.12
3467.902	294.12
3470.809	293.12
3473.715	295.12
3476.618	264.12
3479.519	267.12
3482.418	238.12
3485.315	245.12
3488.209	247.12
3491.101	243.12
3493.99	229.12
3496.878	223.12
3499.763	225.12
3502.646	221.12
3505.527	202.12
3508.405	200.12
3511.281	189.12
3514.155	188.12
3517.027	187.12
3519.897	165.12
3522.764	173.12
3525.629	146.12
3528.492	155.12
3531.352	157.12
3534.211	144.12
3537.067	136.12
3539.921	135.12
3542.773	134.12
3545.622	109.12
3548.469	101.12
3551.315	103.12
3554.157	110.12
3556.998	99.12
3559.837	96.12
3562.673	96.12
3565.507	84.12
3568.339	79.12
3571.169	80.12
3573.996	80.12
3576.822	58.12
3579.645	69.12
3582.466	59.12
3585.285	65.12
3588.101	60.12
3590.916	52.12
3593.728	64.12
3596.538	51.12
3599.346	53.12
3602.152	45.12
3604.956	47.12
3607.757	41.12
3610.556	29.12
3613.354	46.12
3616.149	40.12
3618.942	37.12
3621.732	37.12
3624.521	26.12
3627.307	21.12
3630.092	24.12
3632.874	38.12
3635.654	22.12
3638.432	17.12
3641.208	17.12
3643.982	18.12
3646.753	22.12
3649.523	-10.88
3652.29	11.12
3655.055	15.12
3657.818	10.12
3660.579	3.12
3663.338	-0.88
3666.095	-2.88
3668.849	-27.88
3671.602	6.12
3674.352	-8.88
3677.101	8.12
3679.847	7.12
3682.591	-11.88
3685.333	-13.88
3688.073	-3.88
3690.811	-15.88
3693.547	-22.88
3696.281	-19.88
3699.013	-8.88
3701.742	-14.88
3704.47	-25.88
3707.195	-9.88
3709.919	-13.88
3712.64	-16.88
3715.359	-22.88
3718.076	-1.88
3720.792	-16.88
3723.505	-14.88
3726.216	-1.88
3728.925	-20.88
3731.632	-20.88
3734.336	-15.88
3737.039	-21.88
3739.74	-15.88
3742.439	-44.88
3745.136	-9.88
3747.83	-17.88
3750.523	-19.88
3753.213	-83.88
3755.902	-21.88
3758.589	-38.88
3761.273	-23.88
3763.956	-12.88
3766.636	-34.88
3769.315	-14.88
3771.991	-22.88
3774.665	-29.88
3777.338	-25.88
3780.008	-32.88
3782.677	-24.88
3785.343	-40.88
3788.007	-44.88
3790.67	-14.88
3793.33	-37.88
3795.989	-27.88
3798.645	-23.88
3801.299	-37.88
3803.952	-28.88
3806.602	-35.88
3809.251	-15.88
3811.897	-27.88
3814.542	-27.88
3817.184	-26.88
3819.825	-25.88
3822.463	-34.88
3825.1	-31.88
3827.735	-23.88
3830.367	-35.88
3832.998	-11.88
3835.627	-23.88
3838.253	-19.88
3840.878	-33.88
3843.501	-10.88
3846.122	-26.88
3848.741	-19.88
3851.358	-16.88
3853.973	-33.88
3856.586	-18.88
3859.197	-38.88
3861.806	-23.88
3864.414	-37.88
3867.019	-21.88
3869.622	-21.88
3872.224	-14.88
3874.823	-1.88
3877.421	26.12
3880.016	37.12
3882.61	82.12
3885.202	102.12
3887.792	84.12
3890.38	40.12
3892.966	2.12
3895.55	-26.88
3898.132	-12.88
3900.713	-16.88
3903.291	-23.88
3905.868	-34.88
3908.442	-23.88
3911.015	-29.88
3913.586	-31.88
3916.155	-31.88
3918.722	-33.88
3921.287	-32.88
3923.85	-39.88
3926.411	-32.88
3928.971	-37.88
3931.528	-24.88
3934.084	-30.88
3936.638	-36.88
3939.19	-27.88
3941.74	-28.88
3944.288	-27.88
3946.834	-30.88
3949.378	-20.88
3951.921	-33.88
3954.462	-29.88
3957	-28.88
3959.537	-16.88
3962.072	-31.88
3964.606	-44.88
3967.137	-33.88
3969.667	-36.88
3972.194	-25.88
3974.72	-28.88
3977.244	-52.88
3979.766	-35.88
3982.286	-35.88
3984.805	-27.88
3987.321	-15.88
3989.836	-23.88
3992.349	-34.88
3994.86	-26.88
3997.369	-33.88
3999.877	-26.88
4002.382	-30.88
4004.886	-17.88
4007.388	-26.88
4009.888	-18.88
4012.386	-17.88
4014.883	-23.88
4017.377	-27.88
4019.87	-27.88
4022.361	-37.88
4024.85	-24.88
4027.338	-25.88
4029.823	-28.88
4032.307	-29.88
4034.789	-27.88
4037.269	-25.88
4039.747	-39.88
4042.224	-19.88
4044.699	-28.88
4047.172	-25.88
4049.643	-14.88
4052.112	-50.88
4054.58	-22.88
4057.046	-37.88
4059.51	-24.88
4061.972	-22.88
4064.432	-44.88
4066.891	-13.88
4069.348	-29.88
4071.803	-23.88
4074.256	-30.88
4076.708	-20.88
4079.158	-23.88
4081.606	-16.88
4084.052	-27.88
4086.497	-19.88
4088.939	-25.88
4091.38	-30.88
4093.819	-22.88
4096.257	1.12
4098.693	-8.88
4101.127	-5.88
4103.559	0.12
4105.989	117.12
4108.418	129.12
4110.845	115.12
4113.27	130.12
4115.694	134.12
4118.115	128.12
4120.535	-20.88
4122.954	-19.88
4125.37	-13.88
4127.785	-19.88
4130.198	-18.88
4132.609	-20.88
4135.019	9.12
4137.427	1.12
4139.833	6.12
4142.237	-2.88
