Data from 2018-3-6_conc=0_n=9_RamanShift_04.txt Node
Date: Tue Mar 06 12:35:49 GMT+02:00 2018
User: LAB3
Spectrometer: QEPB0276
Trigger mode: 0
Integration Time (sec): 3.000000E1
Scans to average: 1
Electric dark correction enabled: true
Nonlinearity correction enabled: false
Boxcar width: 0
XAxis mode: Raman Shifts
Number of Pixels in Spectrum: 1044
>>>>>Begin Spectral Data<<<<<
160.701	170.38
166.742	217.38
172.777	335.38
178.805	673.38
184.826	1533.38
190.841	3082.38
196.849	4946.38
202.85	6350.38
208.845	6895.38
214.833	6917.38
220.815	6863.38
226.789	6894.38
232.758	6969.38
238.719	7001.38
244.674	7014.38
250.623	6975.38
256.565	6925.38
262.5	6907.38
268.429	6851.38
274.351	6876.38
280.267	6863.38
286.176	6926.38
292.079	6956.38
297.975	6981.38
303.865	6983.38
309.748	7037.38
315.625	7056.38
321.495	7068.38
327.359	7053.38
333.217	7108.38
339.068	7155.38
344.912	7190.38
350.751	7209.38
356.583	7255.38
362.408	7301.38
368.227	7297.38
374.04	7359.38
379.847	7387.38
385.647	7447.38
391.44	7461.38
397.228	7551.38
403.009	7552.38
408.784	7592.38
414.553	7669.38
420.315	7676.38
426.071	7677.38
431.821	7685.38
437.565	7690.38
443.302	7666.38
449.033	7643.38
454.758	7573.38
460.477	7507.38
466.189	7444.38
471.896	7406.38
477.596	7301.38
483.29	7251.38
488.978	7301.38
494.66	7185.38
500.335	6995.38
506.005	6708.38
511.668	6320.38
517.325	6000.38
522.977	5749.38
528.622	5562.38
534.261	5437.38
539.894	5311.38
545.521	5166.38
551.141	5137.38
556.756	5097.38
562.365	5035.38
567.968	5006.38
573.565	4953.38
579.155	4939.38
584.74	4898.38
590.319	4925.38
595.892	4875.38
601.459	4882.38
607.02	4875.38
612.575	4824.38
618.124	4782.38
623.667	4699.38
629.204	4620.38
634.735	4561.38
640.261	4522.38
645.781	4467.38
651.294	4455.38
656.802	4442.38
662.304	4423.38
667.8	4395.38
673.29	4356.38
678.775	4398.38
684.254	4358.38
689.726	4316.38
695.193	4365.38
700.655	4274.38
706.11	4286.38
711.56	4239.38
717.004	4249.38
722.442	4189.38
727.874	4209.38
733.301	4208.38
738.722	4174.38
744.137	4178.38
749.547	4149.38
754.951	4168.38
760.349	4151.38
765.741	4197.38
771.128	4196.38
776.509	4308.38
781.885	4341.38
787.254	4408.38
792.618	4437.38
797.977	4431.38
803.33	4391.38
808.677	4352.38
814.019	4307.38
819.355	4266.38
824.686	4226.38
830.011	4176.38
835.33	4189.38
840.644	4173.38
845.952	4102.38
851.255	4108.38
856.552	4067.38
861.844	4028.38
867.13	3959.38
872.41	3996.38
877.686	4015.38
882.955	4030.38
888.219	4004.38
893.478	3874.38
898.731	3767.38
903.979	3685.38
909.221	3648.38
914.458	3617.38
919.69	3614.38
924.916	3633.38
930.136	3638.38
935.351	3638.38
940.561	3640.38
945.766	3605.38
950.965	3595.38
956.158	3556.38
961.347	3549.38
966.529	3501.38
971.707	3461.38
976.879	3437.38
982.046	3355.38
987.208	3374.38
992.364	3359.38
997.515	3377.38
1002.66	3404.38
1007.801	3427.38
1012.936	3454.38
1018.066	3459.38
1023.19	3498.38
1028.309	3514.38
1033.423	3507.38
1038.532	3520.38
1043.636	3507.38
1048.734	3504.38
1053.827	3509.38
1058.915	3457.38
1063.998	3420.38
1069.075	3408.38
1074.147	3399.38
1079.214	3398.38
1084.276	3415.38
1089.333	3429.38
1094.385	3435.38
1099.431	3408.38
1104.472	3395.38
1109.509	3315.38
1114.54	3255.38
1119.565	3248.38
1124.586	3179.38
1129.602	3161.38
1134.613	3124.38
1139.618	3099.38
1144.619	3124.38
1149.614	3076.38
1154.604	3102.38
1159.589	3151.38
1164.57	3140.38
1169.545	3145.38
1174.515	3179.38
1179.48	3135.38
1184.44	3099.38
1189.395	3107.38
1194.345	3060.38
1199.29	3067.38
1204.23	3047.38
1209.165	3052.38
1214.095	3087.38
1219.021	3076.38
1223.941	3060.38
1228.856	3086.38
1233.766	3105.38
1238.672	3108.38
1243.572	3090.38
1248.467	3029.38
1253.358	3011.38
1258.244	2974.38
1263.124	2918.38
1268	2916.38
1272.871	2829.38
1277.737	2836.38
1282.599	2814.38
1287.455	2808.38
1292.306	2806.38
1297.153	2817.38
1301.995	2822.38
1306.832	2845.38
1311.664	2841.38
1316.491	2870.38
1321.314	2845.38
1326.132	2817.38
1330.945	2772.38
1335.753	2728.38
1340.556	2707.38
1345.354	2664.38
1350.148	2641.38
1354.937	2606.38
1359.722	2581.38
1364.501	2588.38
1369.276	2580.38
1374.046	2582.38
1378.811	2586.38
1383.572	2558.38
1388.327	2540.38
1393.079	2514.38
1397.825	2497.38
1402.567	2458.38
1407.304	2455.38
1412.036	2447.38
1416.764	2427.38
1421.487	2401.38
1426.205	2426.38
1430.919	2465.38
1435.628	2482.38
1440.333	2479.38
1445.032	2531.38
1449.727	2577.38
1454.418	2578.38
1459.104	2595.38
1463.785	2563.38
1468.462	2516.38
1473.134	2501.38
1477.802	2448.38
1482.465	2380.38
1487.123	2384.38
1491.777	2355.38
1496.426	2349.38
1501.071	2390.38
1505.711	2373.38
1510.347	2413.38
1514.978	2426.38
1519.604	2409.38
1524.226	2409.38
1528.844	2376.38
1533.457	2377.38
1538.065	2345.38
1542.669	2325.38
1547.269	2289.38
1551.864	2284.38
1556.454	2262.38
1561.041	2248.38
1565.622	2252.38
1570.199	2249.38
1574.772	2274.38
1579.34	2291.38
1583.904	2298.38
1588.464	2325.38
1593.019	2311.38
1597.569	2308.38
1602.115	2287.38
1606.657	2279.38
1611.195	2282.38
1615.728	2291.38
1620.256	2268.38
1624.78	2250.38
1629.3	2251.38
1633.816	2273.38
1638.327	2277.38
1642.834	2313.38
1647.336	2324.38
1651.834	2352.38
1656.328	2335.38
1660.817	2353.38
1665.302	2316.38
1669.783	2297.38
1674.259	2291.38
1678.732	2251.38
1683.199	2195.38
1687.663	2145.38
1692.122	2120.38
1696.577	2071.38
1701.028	2066.38
1705.474	2020.38
1709.917	1992.38
1714.355	1984.38
1718.788	1946.38
1723.218	1915.38
1727.643	1882.38
1732.064	1870.38
1736.481	1821.38
1740.893	1792.38
1745.301	1752.38
1749.705	1704.38
1754.105	1708.38
1758.501	1654.38
1762.893	1623.38
1767.28	1615.38
1771.663	1618.38
1776.042	1588.38
1780.417	1600.38
1784.787	1608.38
1789.154	1620.38
1793.516	1627.38
1797.874	1629.38
1802.228	1621.38
1806.578	1613.38
1810.924	1597.38
1815.266	1470.38
1819.603	1548.38
1823.937	1517.38
1828.266	1484.38
1832.591	1480.38
1836.913	1470.38
1841.23	1455.38
1845.543	1439.38
1849.852	1448.38
1854.156	1437.38
1858.457	1437.38
1862.754	1446.38
1867.047	1445.38
1871.335	1477.38
1875.62	1463.38
1879.9	1484.38
1884.177	1460.38
1888.449	1463.38
1892.718	1454.38
1896.982	1464.38
1901.243	1431.38
1905.499	1445.38
1909.752	1432.38
1914	1439.38
1918.245	1468.38
1922.485	1478.38
1926.722	1466.38
1930.954	1463.38
1935.183	1477.38
1939.408	1486.38
1943.628	1482.38
1947.845	1459.38
1952.058	1448.38
1956.267	1415.38
1960.472	1403.38
1964.673	1383.38
1968.87	1342.38
1973.063	1316.38
1977.252	1288.38
1981.438	1264.38
1985.619	1260.38
1989.797	1236.38
1993.971	1238.38
1998.14	1242.38
2002.306	1236.38
2006.469	1212.38
2010.627	1235.38
2014.781	1218.38
2018.932	1207.38
2023.078	1215.38
2027.221	1195.38
2031.36	1176.38
2035.495	1166.38
2039.627	1152.38
2043.754	1139.38
2047.878	1140.38
2051.998	1141.38
2056.114	1140.38
2060.226	1130.38
2064.334	1155.38
2068.439	1166.38
2072.54	1175.38
2076.637	1163.38
2080.73	1169.38
2084.82	1161.38
2088.906	1160.38
2092.988	1170.38
2097.066	1148.38
2101.14	1153.38
2105.211	1145.38
2109.278	1132.38
2113.342	1090.38
2117.401	1095.38
2121.457	1064.38
2125.509	1045.38
2129.558	1057.38
2133.602	1054.38
2137.643	1051.38
2141.681	1029.38
2145.714	1020.38
2149.744	1018.38
2153.77	991.38
2157.793	968.38
2161.812	951.38
2165.827	960.38
2169.838	962.38
2173.846	930.38
2177.851	920.38
2181.851	904.38
2185.848	888.38
2189.841	886.38
2193.831	870.38
2197.817	872.38
2201.799	865.38
2205.778	849.38
2209.753	856.38
2213.725	839.38
2217.693	849.38
2221.657	828.38
2225.618	847.38
2229.575	832.38
2233.529	826.38
2237.479	814.38
2241.425	800.38
2245.368	771.38
2249.307	789.38
2253.243	768.38
2257.175	753.38
2261.104	735.38
2265.029	731.38
2268.95	726.38
2272.868	730.38
2276.783	703.38
2280.694	698.38
2284.601	700.38
2288.505	689.38
2292.405	689.38
2296.302	653.38
2300.195	653.38
2304.085	625.38
2307.971	641.38
2311.854	607.38
2315.734	611.38
2319.609	617.38
2323.482	582.38
2327.351	586.38
2331.216	575.38
2335.078	585.38
2338.937	574.38
2342.792	563.38
2346.643	571.38
2350.492	583.38
2354.336	570.38
2358.178	563.38
2362.015	567.38
2365.85	564.38
2369.681	570.38
2373.508	561.38
2377.333	568.38
2381.153	567.38
2384.971	547.38
2388.785	552.38
2392.595	554.38
2396.402	535.38
2400.206	517.38
2404.007	536.38
2407.804	530.38
2411.597	531.38
2415.388	528.38
2419.174	513.38
2422.958	519.38
2426.738	513.38
2430.515	526.38
2434.289	507.38
2438.059	504.38
2441.825	503.38
2445.589	509.38
2449.349	476.38
2453.106	489.38
2456.859	485.38
2460.61	478.38
2464.356	467.38
2468.1	461.38
2471.84	457.38
2475.577	469.38
2479.311	466.38
2483.041	468.38
2486.768	478.38
2490.492	474.38
2494.213	463.38
2497.93	463.38
2501.644	443.38
2505.355	451.38
2509.062	451.38
2512.766	451.38
2516.467	453.38
2520.165	452.38
2523.859	432.38
2527.551	468.38
2531.239	433.38
2534.923	456.38
2538.605	437.38
2542.283	453.38
2545.958	428.38
2549.63	453.38
2553.299	436.38
2556.964	428.38
2560.626	433.38
2564.285	426.38
2567.941	416.38
2571.594	420.38
2575.243	432.38
2578.89	410.38
2582.533	422.38
2586.173	414.38
2589.809	414.38
2593.443	377.38
2597.073	397.38
2600.701	391.38
2604.325	397.38
2607.946	381.38
2611.564	381.38
2615.178	387.38
2618.79	370.38
2622.398	369.38
2626.004	370.38
2629.606	368.38
2633.205	353.38
2636.801	355.38
2640.394	363.38
2643.983	350.38
2647.57	333.38
2651.153	332.38
2654.734	342.38
2658.311	315.38
2661.885	321.38
2665.456	326.38
2669.025	331.38
2672.589	316.38
2676.151	333.38
2679.71	327.38
2683.266	321.38
2686.819	312.38
2690.368	321.38
2693.915	312.38
2697.458	303.38
2700.999	305.38
2704.536	304.38
2708.071	290.38
2711.602	302.38
2715.13	294.38
2718.656	277.38
2722.178	301.38
2725.697	278.38
2729.214	290.38
2732.727	296.38
2736.237	286.38
2739.744	289.38
2743.249	293.38
2746.75	287.38
2750.248	296.38
2753.743	296.38
2757.236	293.38
2760.725	296.38
2764.211	275.38
2767.695	290.38
2771.175	287.38
2774.652	291.38
2778.127	278.38
2781.598	271.38
2785.067	277.38
2788.532	266.38
2791.995	276.38
2795.455	266.38
2798.911	277.38
2802.365	266.38
2805.816	280.38
2809.264	284.38
2812.709	277.38
2816.151	279.38
2819.59	269.38
2823.026	272.38
2826.46	276.38
2829.89	291.38
2833.318	262.38
2836.742	286.38
2840.164	288.38
2843.583	277.38
2846.999	289.38
2850.412	297.38
2853.822	293.38
2857.229	307.38
2860.634	307.38
2864.035	293.38
2867.434	319.38
2870.83	334.38
2874.223	322.38
2877.613	334.38
2881	333.38
2884.385	345.38
2887.766	344.38
2891.145	349.38
2894.521	346.38
2897.894	348.38
2901.264	347.38
2904.631	342.38
2907.996	341.38
2911.358	357.38
2914.717	343.38
2918.073	341.38
2921.426	349.38
2924.777	349.38
2928.124	355.38
2931.469	398.38
2934.811	381.38
2938.15	426.38
2941.487	407.38
2944.821	421.38
2948.152	399.38
2951.48	398.38
2954.805	371.38
2958.128	400.38
2961.447	372.38
2964.765	388.38
2968.079	378.38
2971.39	385.38
2974.699	385.38
2978.005	390.38
2981.308	387.38
2984.609	383.38
2987.907	400.38
2991.202	407.38
2994.494	382.38
2997.784	401.38
3001.07	401.38
3004.355	383.38
3007.636	395.38
3010.915	392.38
3014.191	385.38
3017.464	403.38
3020.734	390.38
3024.002	397.38
3027.267	381.38
3030.53	394.38
3033.789	390.38
3037.046	393.38
3040.301	390.38
3043.552	413.38
3046.801	414.38
3050.048	432.38
3053.291	447.38
3056.532	436.38
3059.771	432.38
3063.006	471.38
3066.239	469.38
3069.469	482.38
3072.697	487.38
3075.922	491.38
3079.144	512.38
3082.364	534.38
3085.581	526.38
3088.795	561.38
3092.007	555.38
3095.216	574.38
3098.423	574.38
3101.627	556.38
3104.828	591.38
3108.026	609.38
3111.222	638.38
3114.416	649.38
3117.607	638.38
3120.795	658.38
3123.98	680.38
3127.163	671.38
3130.344	688.38
3133.521	704.38
3136.696	726.38
3139.869	729.38
3143.039	729.38
3146.206	760.38
3149.371	784.38
3152.533	770.38
3155.693	761.38
3158.85	796.38
3162.005	791.38
3165.157	777.38
3168.306	787.38
3171.453	799.38
3174.597	776.38
3177.739	783.38
3180.878	800.38
3184.014	806.38
3187.149	802.38
3190.28	797.38
3193.409	816.38
3196.536	817.38
3199.659	808.38
3202.781	825.38
3205.9	803.38
3209.016	823.38
3212.13	815.38
3215.241	816.38
3218.35	810.38
3221.456	785.38
3224.56	777.38
3227.661	784.38
3230.76	779.38
3233.856	766.38
3236.95	774.38
3240.041	760.38
3243.13	766.38
3246.216	774.38
3249.3	762.38
3252.382	761.38
3255.46	725.38
3258.537	699.38
3261.611	730.38
3264.682	764.38
3267.751	736.38
3270.818	718.38
3273.882	744.38
3276.943	721.38
3280.002	725.38
3283.059	712.38
3286.113	706.38
3289.165	693.38
3292.214	689.38
3295.261	692.38
3298.306	657.38
3301.348	666.38
3304.387	637.38
3307.425	643.38
3310.459	630.38
3313.492	639.38
3316.521	621.38
3319.549	630.38
3322.574	619.38
3325.597	617.38
3328.617	600.38
3331.635	597.38
3334.65	587.38
3337.663	602.38
3340.674	580.38
3343.682	601.38
3346.688	592.38
3349.691	587.38
3352.692	584.38
3355.691	590.38
3358.687	581.38
3361.681	578.38
3364.673	576.38
3367.662	573.38
3370.649	564.38
3373.633	550.38
3376.615	550.38
3379.595	532.38
3382.572	527.38
3385.547	516.38
3388.52	519.38
3391.49	506.38
3394.458	505.38
3397.424	511.38
3400.387	500.38
3403.348	510.38
3406.307	499.38
3409.263	491.38
3412.217	485.38
3415.168	478.38
3418.118	478.38
3421.065	475.38
3424.009	477.38
3426.951	459.38
3429.891	456.38
3432.829	449.38
3435.764	444.38
3438.697	422.38
3441.628	433.38
3444.557	411.38
3447.483	397.38
3450.407	396.38
3453.328	388.38
3456.247	379.38
3459.164	354.38
3462.079	371.38
3464.991	360.38
3467.902	345.38
3470.809	336.38
3473.715	336.38
3476.618	305.38
3479.519	315.38
3482.418	288.38
3485.315	290.38
3488.209	282.38
3491.101	285.38
3493.99	265.38
3496.878	260.38
3499.763	272.38
3502.646	258.38
3505.527	243.38
3508.405	234.38
3511.281	219.38
3514.155	224.38
3517.027	214.38
3519.897	197.38
3522.764	203.38
3525.629	179.38
3528.492	181.38
3531.352	176.38
3534.211	178.38
3537.067	161.38
3539.921	154.38
3542.773	154.38
3545.622	138.38
3548.469	129.38
3551.315	127.38
3554.157	126.38
3556.998	117.38
3559.837	115.38
3562.673	118.38
3565.507	105.38
3568.339	95.38
3571.169	94.38
3573.996	94.38
3576.822	72.38
3579.645	77.38
3582.466	77.38
3585.285	86.38
3588.101	78.38
3590.916	67.38
3593.728	76.38
3596.538	69.38
3599.346	63.38
3602.152	48.38
3604.956	55.38
3607.757	56.38
3610.556	37.38
3613.354	59.38
3616.149	50.38
3618.942	46.38
3621.732	52.38
3624.521	34.38
3627.307	24.38
3630.092	26.38
3632.874	44.38
3635.654	27.38
3638.432	22.38
3641.208	24.38
3643.982	23.38
3646.753	28.38
3649.523	-3.62
3652.29	13.38
3655.055	20.38
3657.818	17.38
3660.579	8.38
3663.338	-5.62
3666.095	5.38
3668.849	-21.62
3671.602	10.38
3674.352	-8.62
3677.101	10.38
3679.847	8.38
3682.591	-4.62
3685.333	-10.62
3688.073	-4.62
3690.811	-13.62
3693.547	-18.62
3696.281	-23.62
3699.013	-6.62
3701.742	-17.62
3704.47	-24.62
3707.195	-10.62
3709.919	-13.62
3712.64	-10.62
3715.359	-25.62
3718.076	-3.62
3720.792	-14.62
3723.505	-10.62
3726.216	-0.62
3728.925	-22.62
3731.632	-21.62
3734.336	-17.62
3737.039	-18.62
3739.74	-17.62
3742.439	-41.62
3745.136	-9.62
3747.83	-17.62
3750.523	-15.62
3753.213	-79.62
3755.902	-23.62
3758.589	-37.62
3761.273	-25.62
3763.956	-14.62
3766.636	-36.62
3769.315	-15.62
3771.991	-22.62
3774.665	-27.62
3777.338	-21.62
3780.008	-31.62
3782.677	-22.62
3785.343	-42.62
3788.007	-42.62
3790.67	-17.62
3793.33	-38.62
3795.989	-29.62
3798.645	-26.62
3801.299	-36.62
3803.952	-35.62
3806.602	-32.62
3809.251	-22.62
3811.897	-26.62
3814.542	-29.62
3817.184	-27.62
3819.825	-24.62
3822.463	-44.62
3825.1	-29.62
3827.735	-24.62
3830.367	-38.62
3832.998	-16.62
3835.627	-33.62
3838.253	-16.62
3840.878	-27.62
3843.501	-10.62
3846.122	-26.62
3848.741	-20.62
3851.358	-21.62
3853.973	-39.62
3856.586	-16.62
3859.197	-32.62
3861.806	-23.62
3864.414	-37.62
3867.019	-25.62
3869.622	-13.62
3872.224	-5.62
3874.823	9.38
3877.421	44.38
3880.016	65.38
3882.61	110.38
3885.202	132.38
3887.792	94.38
3890.38	48.38
3892.966	4.38
3895.55	-20.62
3898.132	-15.62
3900.713	-23.62
3903.291	-22.62
3905.868	-34.62
3908.442	-34.62
3911.015	-30.62
3913.586	-32.62
3916.155	-35.62
3918.722	-41.62
3921.287	-34.62
3923.85	-44.62
3926.411	-36.62
3928.971	-36.62
3931.528	-29.62
3934.084	-36.62
3936.638	-41.62
3939.19	-24.62
3941.74	-26.62
3944.288	-32.62
3946.834	-32.62
3949.378	-22.62
3951.921	-33.62
3954.462	-33.62
3957	-25.62
3959.537	-19.62
3962.072	-26.62
3964.606	-46.62
3967.137	-30.62
3969.667	-32.62
3972.194	-23.62
3974.72	-33.62
3977.244	-54.62
3979.766	-32.62
3982.286	-39.62
3984.805	-24.62
3987.321	-17.62
3989.836	-23.62
3992.349	-30.62
3994.86	-31.62
3997.369	-35.62
3999.877	-28.62
4002.382	-26.62
4004.886	-25.62
4007.388	-25.62
4009.888	-17.62
4012.386	-21.62
4014.883	-24.62
4017.377	-25.62
4019.87	-21.62
4022.361	-39.62
4024.85	-25.62
4027.338	-21.62
4029.823	-30.62
4032.307	-25.62
4034.789	-28.62
4037.269	-25.62
4039.747	-41.62
4042.224	-20.62
4044.699	-31.62
4047.172	-27.62
4049.643	-15.62
4052.112	-45.62
4054.58	-23.62
4057.046	-35.62
4059.51	-21.62
4061.972	-27.62
4064.432	-38.62
4066.891	-14.62
4069.348	-23.62
4071.803	-21.62
4074.256	-27.62
4076.708	-23.62
4079.158	-19.62
4081.606	-12.62
4084.052	-20.62
4086.497	-24.62
4088.939	-22.62
4091.38	-26.62
4093.819	-13.62
4096.257	0.38
4098.693	-3.62
4101.127	-6.62
4103.559	-3.62
4105.989	153.38
4108.418	148.38
4110.845	142.38
4113.27	146.38
4115.694	153.38
4118.115	151.38
4120.535	-20.62
4122.954	-19.62
4125.37	-12.62
4127.785	-17.62
4130.198	-19.62
4132.609	-22.62
4135.019	7.38
4137.427	4.38
4139.833	6.38
4142.237	-4.62
