Data from 2018-3-6_conc=2_n=9_RamanShift_02.txt Node
Date: Tue Mar 06 13:06:49 GMT+02:00 2018
User: LAB3
Spectrometer: QEPB0276
Trigger mode: 0
Integration Time (sec): 3.000000E1
Scans to average: 1
Electric dark correction enabled: true
Nonlinearity correction enabled: false
Boxcar width: 0
XAxis mode: Raman Shifts
Number of Pixels in Spectrum: 1044
>>>>>Begin Spectral Data<<<<<
160.701	164.88
166.742	210.88
172.777	305.88
178.805	613.88
184.826	1372.88
190.841	2750.88
196.849	4356.88
202.85	5620.88
208.845	6066.88
214.833	6035.88
220.815	6012.88
226.789	6043.88
232.758	6071.88
238.719	6052.88
244.674	6060.88
250.623	5979.88
256.565	5983.88
262.5	5905.88
268.429	5912.88
274.351	5842.88
280.267	5881.88
286.176	5881.88
292.079	5899.88
297.975	5908.88
303.865	5895.88
309.748	5924.88
315.625	5921.88
321.495	5954.88
327.359	5929.88
333.217	5964.88
339.068	5993.88
344.912	6052.88
350.751	6085.88
356.583	6091.88
362.408	6097.88
368.227	6090.88
374.04	6149.88
379.847	6211.88
385.647	6245.88
391.44	6262.88
397.228	6295.88
403.009	6326.88
408.784	6361.88
414.553	6367.88
420.315	6397.88
426.071	6410.88
431.821	6441.88
437.565	6387.88
443.302	6385.88
449.033	6340.88
454.758	6330.88
460.477	6282.88
466.189	6199.88
471.896	6153.88
477.596	6133.88
483.29	6113.88
488.978	6075.88
494.66	6020.88
500.335	5868.88
506.005	5631.88
511.668	5310.88
517.325	5034.88
522.977	4857.88
528.622	4697.88
534.261	4603.88
539.894	4514.88
545.521	4444.88
551.141	4387.88
556.756	4339.88
562.365	4296.88
567.968	4267.88
573.565	4227.88
579.155	4217.88
584.74	4184.88
590.319	4197.88
595.892	4154.88
601.459	4144.88
607.02	4155.88
612.575	4125.88
618.124	4074.88
623.667	4001.88
629.204	3956.88
634.735	3904.88
640.261	3854.88
645.781	3787.88
651.294	3809.88
656.802	3817.88
662.304	3784.88
667.8	3786.88
673.29	3765.88
678.775	3771.88
684.254	3748.88
689.726	3715.88
695.193	3709.88
700.655	3675.88
706.11	3678.88
711.56	3669.88
717.004	3638.88
722.442	3599.88
727.874	3612.88
733.301	3593.88
738.722	3556.88
744.137	3540.88
749.547	3566.88
754.951	3546.88
760.349	3557.88
765.741	3584.88
771.128	3598.88
776.509	3652.88
781.885	3714.88
787.254	3739.88
792.618	3738.88
797.977	3757.88
803.33	3721.88
808.677	3712.88
814.019	3644.88
819.355	3632.88
824.686	3605.88
830.011	3545.88
835.33	3577.88
840.644	3529.88
845.952	3478.88
851.255	3503.88
856.552	3449.88
861.844	3432.88
867.13	3364.88
872.41	3334.88
877.686	3303.88
882.955	3297.88
888.219	3246.88
893.478	3202.88
898.731	3171.88
903.979	3133.88
909.221	3098.88
914.458	3079.88
919.69	3082.88
924.916	3085.88
930.136	3106.88
935.351	3091.88
940.561	3099.88
945.766	3070.88
950.965	3063.88
956.158	3048.88
961.347	2999.88
966.529	2981.88
971.707	2956.88
976.879	2916.88
982.046	2870.88
987.208	2855.88
992.364	2861.88
997.515	2871.88
1002.66	2899.88
1007.801	2917.88
1012.936	2942.88
1018.066	2930.88
1023.19	2951.88
1028.309	2979.88
1033.423	2970.88
1038.532	2983.88
1043.636	2955.88
1048.734	2930.88
1053.827	2884.88
1058.915	2868.88
1063.998	2853.88
1069.075	2872.88
1074.147	2839.88
1079.214	2844.88
1084.276	2836.88
1089.333	2878.88
1094.385	2875.88
1099.431	2861.88
1104.472	2837.88
1109.509	2784.88
1114.54	2793.88
1119.565	2743.88
1124.586	2700.88
1129.602	2671.88
1134.613	2623.88
1139.618	2647.88
1144.619	2639.88
1149.614	2638.88
1154.604	2626.88
1159.589	2641.88
1164.57	2669.88
1169.545	2666.88
1174.515	2651.88
1179.48	2649.88
1184.44	2644.88
1189.395	2620.88
1194.345	2579.88
1199.29	2590.88
1204.23	2551.88
1209.165	2578.88
1214.095	2593.88
1219.021	2584.88
1223.941	2588.88
1228.856	2606.88
1233.766	2609.88
1238.672	2615.88
1243.572	2627.88
1248.467	2599.88
1253.358	2567.88
1258.244	2506.88
1263.124	2477.88
1268	2452.88
1272.871	2398.88
1277.737	2363.88
1282.599	2380.88
1287.455	2349.88
1292.306	2376.88
1297.153	2369.88
1301.995	2396.88
1306.832	2381.88
1311.664	2393.88
1316.491	2386.88
1321.314	2389.88
1326.132	2373.88
1330.945	2337.88
1335.753	2289.88
1340.556	2267.88
1345.354	2202.88
1350.148	2194.88
1354.937	2168.88
1359.722	2149.88
1364.501	2146.88
1369.276	2141.88
1374.046	2115.88
1378.811	2100.88
1383.572	2119.88
1388.327	2089.88
1393.079	2076.88
1397.825	2073.88
1402.567	2054.88
1407.304	2036.88
1412.036	2037.88
1416.764	2024.88
1421.487	1991.88
1426.205	2027.88
1430.919	2010.88
1435.628	2017.88
1440.333	2029.88
1445.032	2046.88
1449.727	2068.88
1454.418	2087.88
1459.104	2075.88
1463.785	2038.88
1468.462	2030.88
1473.134	1985.88
1477.802	1957.88
1482.465	1904.88
1487.123	1908.88
1491.777	1896.88
1496.426	1878.88
1501.071	1894.88
1505.711	1898.88
1510.347	1916.88
1514.978	1942.88
1519.604	1914.88
1524.226	1926.88
1528.844	1890.88
1533.457	1910.88
1538.065	1883.88
1542.669	1864.88
1547.269	1867.88
1551.864	1841.88
1556.454	1835.88
1561.041	1839.88
1565.622	1834.88
1570.199	1841.88
1574.772	1852.88
1579.34	1878.88
1583.904	1904.88
1588.464	1908.88
1593.019	1910.88
1597.569	1882.88
1602.115	1903.88
1606.657	1883.88
1611.195	1910.88
1615.728	1884.88
1620.256	1881.88
1624.78	1847.88
1629.3	1876.88
1633.816	1874.88
1638.327	1891.88
1642.834	1888.88
1647.336	1905.88
1651.834	1907.88
1656.328	1920.88
1660.817	1904.88
1665.302	1903.88
1669.783	1856.88
1674.259	1849.88
1678.732	1813.88
1683.199	1762.88
1687.663	1720.88
1692.122	1684.88
1696.577	1643.88
1701.028	1617.88
1705.474	1589.88
1709.917	1559.88
1714.355	1528.88
1718.788	1531.88
1723.218	1493.88
1727.643	1473.88
1732.064	1467.88
1736.481	1424.88
1740.893	1419.88
1745.301	1391.88
1749.705	1325.88
1754.105	1333.88
1758.501	1288.88
1762.893	1281.88
1767.28	1248.88
1771.663	1255.88
1776.042	1239.88
1780.417	1226.88
1784.787	1236.88
1789.154	1237.88
1793.516	1252.88
1797.874	1229.88
1802.228	1217.88
1806.578	1198.88
1810.924	1217.88
1815.266	1100.88
1819.603	1185.88
1823.937	1167.88
1828.266	1152.88
1832.591	1145.88
1836.913	1134.88
1841.23	1124.88
1845.543	1117.88
1849.852	1140.88
1854.156	1107.88
1858.457	1122.88
1862.754	1110.88
1867.047	1121.88
1871.335	1146.88
1875.62	1139.88
1879.9	1142.88
1884.177	1126.88
1888.449	1110.88
1892.718	1118.88
1896.982	1123.88
1901.243	1106.88
1905.499	1086.88
1909.752	1079.88
1914	1073.88
1918.245	1087.88
1922.485	1093.88
1926.722	1091.88
1930.954	1085.88
1935.183	1109.88
1939.408	1105.88
1943.628	1097.88
1947.845	1095.88
1952.058	1095.88
1956.267	1059.88
1960.472	1046.88
1964.673	1031.88
1968.87	1012.88
1973.063	1006.88
1977.252	987.88
1981.438	968.88
1985.619	960.88
1989.797	953.88
1993.971	956.88
1998.14	956.88
2002.306	962.88
2006.469	948.88
2010.627	931.88
2014.781	925.88
2018.932	916.88
2023.078	934.88
2027.221	910.88
2031.36	901.88
2035.495	895.88
2039.627	886.88
2043.754	877.88
2047.878	872.88
2051.998	877.88
2056.114	871.88
2060.226	872.88
2064.334	865.88
2068.439	875.88
2072.54	875.88
2076.637	869.88
2080.73	871.88
2084.82	881.88
2088.906	871.88
2092.988	875.88
2097.066	862.88
2101.14	876.88
2105.211	857.88
2109.278	839.88
2113.342	833.88
2117.401	809.88
2121.457	809.88
2125.509	808.88
2129.558	805.88
2133.602	787.88
2137.643	786.88
2141.681	793.88
2145.714	793.88
2149.744	784.88
2153.77	772.88
2157.793	755.88
2161.812	724.88
2165.827	720.88
2169.838	737.88
2173.846	724.88
2177.851	704.88
2181.851	711.88
2185.848	684.88
2189.841	690.88
2193.831	682.88
2197.817	671.88
2201.799	670.88
2205.778	656.88
2209.753	661.88
2213.725	654.88
2217.693	654.88
2221.657	652.88
2225.618	652.88
2229.575	647.88
2233.529	645.88
2237.479	638.88
2241.425	618.88
2245.368	608.88
2249.307	617.88
2253.243	597.88
2257.175	604.88
2261.104	576.88
2265.029	568.88
2268.95	577.88
2272.868	561.88
2276.783	536.88
2280.694	555.88
2284.601	544.88
2288.505	531.88
2292.405	533.88
2296.302	508.88
2300.195	516.88
2304.085	485.88
2307.971	503.88
2311.854	487.88
2315.734	486.88
2319.609	490.88
2323.482	460.88
2327.351	463.88
2331.216	460.88
2335.078	464.88
2338.937	451.88
2342.792	444.88
2346.643	445.88
2350.492	466.88
2354.336	443.88
2358.178	458.88
2362.015	453.88
2365.85	449.88
2369.681	459.88
2373.508	456.88
2377.333	455.88
2381.153	453.88
2384.971	435.88
2388.785	463.88
2392.595	432.88
2396.402	425.88
2400.206	406.88
2404.007	429.88
2407.804	431.88
2411.597	439.88
2415.388	410.88
2419.174	418.88
2422.958	423.88
2426.738	414.88
2430.515	430.88
2434.289	418.88
2438.059	407.88
2441.825	411.88
2445.589	407.88
2449.349	385.88
2453.106	405.88
2456.859	400.88
2460.61	389.88
2464.356	376.88
2468.1	368.88
2471.84	369.88
2475.577	370.88
2479.311	370.88
2483.041	367.88
2486.768	385.88
2490.492	383.88
2494.213	375.88
2497.93	362.88
2501.644	357.88
2505.355	364.88
2509.062	364.88
2512.766	357.88
2516.467	353.88
2520.165	361.88
2523.859	352.88
2527.551	370.88
2531.239	340.88
2534.923	343.88
2538.605	341.88
2542.283	355.88
2545.958	343.88
2549.63	351.88
2553.299	361.88
2556.964	335.88
2560.626	335.88
2564.285	329.88
2567.941	323.88
2571.594	321.88
2575.243	331.88
2578.89	330.88
2582.533	327.88
2586.173	322.88
2589.809	322.88
2593.443	290.88
2597.073	304.88
2600.701	313.88
2604.325	306.88
2607.946	287.88
2611.564	311.88
2615.178	305.88
2618.79	301.88
2622.398	292.88
2626.004	289.88
2629.606	298.88
2633.205	281.88
2636.801	291.88
2640.394	289.88
2643.983	276.88
2647.57	264.88
2651.153	265.88
2654.734	282.88
2658.311	248.88
2661.885	253.88
2665.456	265.88
2669.025	260.88
2672.589	249.88
2676.151	269.88
2679.71	262.88
2683.266	251.88
2686.819	237.88
2690.368	243.88
2693.915	245.88
2697.458	239.88
2700.999	245.88
2704.536	235.88
2708.071	232.88
2711.602	233.88
2715.13	230.88
2718.656	213.88
2722.178	217.88
2725.697	216.88
2729.214	227.88
2732.727	225.88
2736.237	207.88
2739.744	212.88
2743.249	211.88
2746.75	220.88
2750.248	210.88
2753.743	216.88
2757.236	221.88
2760.725	222.88
2764.211	184.88
2767.695	214.88
2771.175	211.88
2774.652	220.88
2778.127	205.88
2781.598	212.88
2785.067	205.88
2788.532	195.88
2791.995	214.88
2795.455	200.88
2798.911	219.88
2802.365	201.88
2805.816	210.88
2809.264	222.88
2812.709	205.88
2816.151	218.88
2819.59	203.88
2823.026	211.88
2826.46	200.88
2829.89	217.88
2833.318	201.88
2836.742	212.88
2840.164	213.88
2843.583	208.88
2846.999	216.88
2850.412	223.88
2853.822	216.88
2857.229	231.88
2860.634	227.88
2864.035	200.88
2867.434	237.88
2870.83	237.88
2874.223	232.88
2877.613	230.88
2881	224.88
2884.385	233.88
2887.766	235.88
2891.145	238.88
2894.521	234.88
2897.894	227.88
2901.264	236.88
2904.631	239.88
2907.996	251.88
2911.358	252.88
2914.717	241.88
2918.073	248.88
2921.426	243.88
2924.777	228.88
2928.124	251.88
2931.469	268.88
2934.811	251.88
2938.15	276.88
2941.487	270.88
2944.821	285.88
2948.152	268.88
2951.48	285.88
2954.805	274.88
2958.128	283.88
2961.447	268.88
2964.765	285.88
2968.079	273.88
2971.39	275.88
2974.699	278.88
2978.005	284.88
2981.308	287.88
2984.609	280.88
2987.907	291.88
2991.202	291.88
2994.494	288.88
2997.784	302.88
3001.07	302.88
3004.355	299.88
3007.636	300.88
3010.915	305.88
3014.191	306.88
3017.464	306.88
3020.734	306.88
3024.002	306.88
3027.267	312.88
3030.53	319.88
3033.789	314.88
3037.046	337.88
3040.301	321.88
3043.552	336.88
3046.801	343.88
3050.048	360.88
3053.291	374.88
3056.532	369.88
3059.771	358.88
3063.006	387.88
3066.239	390.88
3069.469	406.88
3072.697	414.88
3075.922	411.88
3079.144	421.88
3082.364	443.88
3085.581	444.88
3088.795	473.88
3092.007	474.88
3095.216	481.88
3098.423	483.88
3101.627	474.88
3104.828	493.88
3108.026	511.88
3111.222	532.88
3114.416	552.88
3117.607	540.88
3120.795	555.88
3123.98	566.88
3127.163	562.88
3130.344	586.88
3133.521	583.88
3136.696	611.88
3139.869	622.88
3143.039	614.88
3146.206	654.88
3149.371	663.88
3152.533	654.88
3155.693	643.88
3158.85	662.88
3162.005	666.88
3165.157	660.88
3168.306	666.88
3171.453	686.88
3174.597	664.88
3177.739	664.88
3180.878	677.88
3184.014	676.88
3187.149	685.88
3190.28	683.88
3193.409	698.88
3196.536	675.88
3199.659	697.88
3202.781	688.88
3205.9	676.88
3209.016	691.88
3212.13	684.88
3215.241	690.88
3218.35	677.88
3221.456	678.88
3224.56	666.88
3227.661	682.88
3230.76	700.88
3233.856	656.88
3236.95	649.88
3240.041	644.88
3243.13	639.88
3246.216	634.88
3249.3	644.88
3252.382	639.88
3255.46	631.88
3258.537	588.88
3261.611	639.88
3264.682	629.88
3267.751	636.88
3270.818	615.88
3273.882	626.88
3276.943	628.88
3280.002	628.88
3283.059	612.88
3286.113	601.88
3289.165	597.88
3292.214	572.88
3295.261	591.88
3298.306	553.88
3301.348	558.88
3304.387	553.88
3307.425	553.88
3310.459	543.88
3313.492	538.88
3316.521	531.88
3319.549	534.88
3322.574	533.88
3325.597	514.88
3328.617	516.88
3331.635	503.88
3334.65	488.88
3337.663	519.88
3340.674	505.88
3343.682	514.88
3346.688	504.88
3349.691	495.88
3352.692	499.88
3355.691	508.88
3358.687	501.88
3361.681	503.88
3364.673	487.88
3367.662	484.88
3370.649	485.88
3373.633	474.88
3376.615	475.88
3379.595	448.88
3382.572	454.88
3385.547	436.88
3388.52	440.88
3391.49	434.88
3394.458	431.88
3397.424	425.88
3400.387	422.88
3403.348	419.88
3406.307	414.88
3409.263	409.88
3412.217	416.88
3415.168	406.88
3418.118	418.88
3421.065	398.88
3424.009	410.88
3426.951	381.88
3429.891	380.88
3432.829	382.88
3435.764	385.88
3438.697	361.88
3441.628	372.88
3444.557	347.88
3447.483	338.88
3450.407	343.88
3453.328	317.88
3456.247	320.88
3459.164	303.88
3462.079	308.88
3464.991	295.88
3467.902	295.88
3470.809	285.88
3473.715	286.88
3476.618	270.88
3479.519	261.88
3482.418	234.88
3485.315	240.88
3488.209	233.88
3491.101	233.88
3493.99	221.88
3496.878	219.88
3499.763	213.88
3502.646	212.88
3505.527	199.88
3508.405	199.88
3511.281	174.88
3514.155	187.88
3517.027	178.88
3519.897	158.88
3522.764	171.88
3525.629	144.88
3528.492	152.88
3531.352	149.88
3534.211	138.88
3537.067	134.88
3539.921	131.88
3542.773	131.88
3545.622	117.88
3548.469	105.88
3551.315	94.88
3554.157	97.88
3556.998	93.88
3559.837	96.88
3562.673	102.88
3565.507	84.88
3568.339	74.88
3571.169	77.88
3573.996	72.88
3576.822	54.88
3579.645	63.88
3582.466	54.88
3585.285	65.88
3588.101	58.88
3590.916	58.88
3593.728	56.88
3596.538	50.88
3599.346	49.88
3602.152	39.88
3604.956	40.88
3607.757	45.88
3610.556	27.88
3613.354	33.88
3616.149	41.88
3618.942	31.88
3621.732	31.88
3624.521	21.88
3627.307	19.88
3630.092	18.88
3632.874	31.88
3635.654	23.88
3638.432	9.88
3641.208	16.88
3643.982	16.88
3646.753	24.88
3649.523	-4.12
3652.29	4.88
3655.055	14.88
3657.818	11.88
3660.579	2.88
3663.338	-3.12
3666.095	0.88
3668.849	-25.12
3671.602	7.88
3674.352	-11.12
3677.101	2.88
3679.847	3.88
3682.591	-12.12
3685.333	-14.12
3688.073	-4.12
3690.811	-19.12
3693.547	-23.12
3696.281	-23.12
3699.013	-11.12
3701.742	-12.12
3704.47	-27.12
3707.195	-12.12
3709.919	-14.12
3712.64	-16.12
3715.359	-25.12
3718.076	-9.12
3720.792	-20.12
3723.505	-15.12
3726.216	-9.12
3728.925	-20.12
3731.632	-20.12
3734.336	-20.12
3737.039	-17.12
3739.74	-17.12
3742.439	-42.12
3745.136	-16.12
3747.83	-18.12
3750.523	-14.12
3753.213	-83.12
3755.902	-23.12
3758.589	-33.12
3761.273	-27.12
3763.956	-16.12
3766.636	-33.12
3769.315	-17.12
3771.991	-24.12
3774.665	-28.12
3777.338	-23.12
3780.008	-32.12
3782.677	-25.12
3785.343	-40.12
3788.007	-40.12
3790.67	-22.12
3793.33	-35.12
3795.989	-29.12
3798.645	-24.12
3801.299	-36.12
3803.952	-37.12
3806.602	-28.12
3809.251	-23.12
3811.897	-26.12
3814.542	-30.12
3817.184	-32.12
3819.825	-21.12
3822.463	-38.12
3825.1	-23.12
3827.735	-23.12
3830.367	-32.12
3832.998	-14.12
3835.627	-28.12
3838.253	-15.12
3840.878	-27.12
3843.501	-14.12
3846.122	-25.12
3848.741	-21.12
3851.358	-19.12
3853.973	-42.12
3856.586	-17.12
3859.197	-38.12
3861.806	-25.12
3864.414	-38.12
3867.019	-24.12
3869.622	-13.12
3872.224	-11.12
3874.823	7.88
3877.421	39.88
3880.016	63.88
3882.61	100.88
3885.202	113.88
3887.792	90.88
3890.38	46.88
3892.966	4.88
3895.55	-20.12
3898.132	-18.12
3900.713	-19.12
3903.291	-24.12
3905.868	-31.12
3908.442	-28.12
3911.015	-27.12
3913.586	-34.12
3916.155	-30.12
3918.722	-33.12
3921.287	-38.12
3923.85	-44.12
3926.411	-34.12
3928.971	-35.12
3931.528	-25.12
3934.084	-35.12
3936.638	-44.12
3939.19	-25.12
3941.74	-27.12
3944.288	-34.12
3946.834	-31.12
3949.378	-19.12
3951.921	-35.12
3954.462	-32.12
3957	-27.12
3959.537	-21.12
3962.072	-32.12
3964.606	-40.12
3967.137	-34.12
3969.667	-33.12
3972.194	-24.12
3974.72	-31.12
3977.244	-53.12
3979.766	-37.12
3982.286	-33.12
3984.805	-25.12
3987.321	-19.12
3989.836	-23.12
3992.349	-36.12
3994.86	-26.12
3997.369	-32.12
3999.877	-29.12
4002.382	-32.12
4004.886	-24.12
4007.388	-26.12
4009.888	-19.12
4012.386	-14.12
4014.883	-24.12
4017.377	-20.12
4019.87	-24.12
4022.361	-33.12
4024.85	-30.12
4027.338	-24.12
4029.823	-32.12
4032.307	-27.12
4034.789	-25.12
4037.269	-27.12
4039.747	-39.12
4042.224	-15.12
4044.699	-35.12
4047.172	-31.12
4049.643	-21.12
4052.112	-48.12
4054.58	-25.12
4057.046	-37.12
4059.51	-28.12
4061.972	-31.12
4064.432	-45.12
4066.891	-20.12
4069.348	-29.12
4071.803	-23.12
4074.256	-30.12
4076.708	-21.12
4079.158	-23.12
4081.606	-18.12
4084.052	-28.12
4086.497	-21.12
4088.939	-28.12
4091.38	-27.12
4093.819	-24.12
4096.257	-1.12
4098.693	-6.12
4101.127	-3.12
4103.559	0.88
4105.989	148.88
4108.418	160.88
4110.845	137.88
4113.27	147.88
4115.694	154.88
4118.115	147.88
4120.535	-23.12
4122.954	-18.12
4125.37	-16.12
4127.785	-25.12
4130.198	-21.12
4132.609	-28.12
4135.019	9.88
4137.427	2.88
4139.833	3.88
4142.237	-7.12
