Data from 2018-3-6_conc=4_n=6_RamanShift_02.txt Node
Date: Tue Mar 06 14:06:49 GMT+02:00 2018
User: LAB3
Spectrometer: QEPB0276
Trigger mode: 0
Integration Time (sec): 3.000000E1
Scans to average: 1
Electric dark correction enabled: true
Nonlinearity correction enabled: false
Boxcar width: 0
XAxis mode: Raman Shifts
Number of Pixels in Spectrum: 1044
>>>>>Begin Spectral Data<<<<<
160.701	77.88
166.742	104.88
172.777	151.88
178.805	302.88
184.826	700.88
190.841	1386.88
196.849	2192.88
202.85	2776.88
208.845	2976.88
214.833	2946.88
220.815	2902.88
226.789	2841.88
232.758	2869.88
238.719	2851.88
244.674	2820.88
250.623	2777.88
256.565	2738.88
262.5	2702.88
268.429	2668.88
274.351	2642.88
280.267	2644.88
286.176	2638.88
292.079	2638.88
297.975	2621.88
303.865	2606.88
309.748	2622.88
315.625	2605.88
321.495	2595.88
327.359	2584.88
333.217	2608.88
339.068	2611.88
344.912	2622.88
350.751	2626.88
356.583	2619.88
362.408	2601.88
368.227	2637.88
374.04	2637.88
379.847	2643.88
385.647	2687.88
391.44	2655.88
397.228	2685.88
403.009	2688.88
408.784	2701.88
414.553	2718.88
420.315	2702.88
426.071	2699.88
431.821	2723.88
437.565	2697.88
443.302	2672.88
449.033	2683.88
454.758	2669.88
460.477	2637.88
466.189	2627.88
471.896	2615.88
477.596	2579.88
483.29	2568.88
488.978	2574.88
494.66	2546.88
500.335	2473.88
506.005	2385.88
511.668	2255.88
517.325	2134.88
522.977	2079.88
528.622	1989.88
534.261	1959.88
539.894	1912.88
545.521	1873.88
551.141	1876.88
556.756	1844.88
562.365	1817.88
567.968	1810.88
573.565	1811.88
579.155	1817.88
584.74	1768.88
590.319	1783.88
595.892	1779.88
601.459	1782.88
607.02	1766.88
612.575	1768.88
618.124	1735.88
623.667	1699.88
629.204	1691.88
634.735	1660.88
640.261	1660.88
645.781	1606.88
651.294	1630.88
656.802	1620.88
662.304	1630.88
667.8	1622.88
673.29	1627.88
678.775	1600.88
684.254	1585.88
689.726	1583.88
695.193	1597.88
700.655	1577.88
706.11	1560.88
711.56	1552.88
717.004	1558.88
722.442	1536.88
727.874	1549.88
733.301	1535.88
738.722	1503.88
744.137	1522.88
749.547	1504.88
754.951	1511.88
760.349	1516.88
765.741	1526.88
771.128	1527.88
776.509	1546.88
781.885	1578.88
787.254	1613.88
792.618	1582.88
797.977	1593.88
803.33	1577.88
808.677	1562.88
814.019	1552.88
819.355	1539.88
824.686	1507.88
830.011	1508.88
835.33	1519.88
840.644	1529.88
845.952	1472.88
851.255	1488.88
856.552	1466.88
861.844	1452.88
867.13	1429.88
872.41	1410.88
877.686	1408.88
882.955	1393.88
888.219	1388.88
893.478	1362.88
898.731	1352.88
903.979	1342.88
909.221	1335.88
914.458	1304.88
919.69	1309.88
924.916	1317.88
930.136	1316.88
935.351	1306.88
940.561	1303.88
945.766	1308.88
950.965	1308.88
956.158	1297.88
961.347	1278.88
966.529	1257.88
971.707	1256.88
976.879	1236.88
982.046	1233.88
987.208	1217.88
992.364	1213.88
997.515	1221.88
1002.66	1227.88
1007.801	1238.88
1012.936	1250.88
1018.066	1230.88
1023.19	1258.88
1028.309	1255.88
1033.423	1257.88
1038.532	1259.88
1043.636	1245.88
1048.734	1244.88
1053.827	1223.88
1058.915	1211.88
1063.998	1214.88
1069.075	1197.88
1074.147	1210.88
1079.214	1191.88
1084.276	1200.88
1089.333	1216.88
1094.385	1201.88
1099.431	1206.88
1104.472	1194.88
1109.509	1182.88
1114.54	1172.88
1119.565	1153.88
1124.586	1140.88
1129.602	1138.88
1134.613	1107.88
1139.618	1119.88
1144.619	1108.88
1149.614	1117.88
1154.604	1120.88
1159.589	1103.88
1164.57	1130.88
1169.545	1145.88
1174.515	1151.88
1179.48	1130.88
1184.44	1129.88
1189.395	1117.88
1194.345	1089.88
1199.29	1090.88
1204.23	1084.88
1209.165	1079.88
1214.095	1093.88
1219.021	1098.88
1223.941	1091.88
1228.856	1098.88
1233.766	1115.88
1238.672	1108.88
1243.572	1099.88
1248.467	1103.88
1253.358	1093.88
1258.244	1055.88
1263.124	1066.88
1268	1045.88
1272.871	1021.88
1277.737	1007.88
1282.599	991.88
1287.455	1009.88
1292.306	995.88
1297.153	993.88
1301.995	1005.88
1306.832	1004.88
1311.664	1008.88
1316.491	1009.88
1321.314	1013.88
1326.132	990.88
1330.945	996.88
1335.753	975.88
1340.556	954.88
1345.354	931.88
1350.148	921.88
1354.937	916.88
1359.722	893.88
1364.501	893.88
1369.276	919.88
1374.046	909.88
1378.811	884.88
1383.572	895.88
1388.327	876.88
1393.079	871.88
1397.825	871.88
1402.567	879.88
1407.304	858.88
1412.036	857.88
1416.764	861.88
1421.487	849.88
1426.205	840.88
1430.919	854.88
1435.628	860.88
1440.333	843.88
1445.032	871.88
1449.727	869.88
1454.418	878.88
1459.104	862.88
1463.785	860.88
1468.462	848.88
1473.134	838.88
1477.802	818.88
1482.465	779.88
1487.123	785.88
1491.777	774.88
1496.426	766.88
1501.071	793.88
1505.711	788.88
1510.347	788.88
1514.978	785.88
1519.604	791.88
1524.226	812.88
1528.844	778.88
1533.457	785.88
1538.065	776.88
1542.669	798.88
1547.269	772.88
1551.864	780.88
1556.454	761.88
1561.041	768.88
1565.622	773.88
1570.199	769.88
1574.772	783.88
1579.34	789.88
1583.904	801.88
1588.464	810.88
1593.019	816.88
1597.569	786.88
1602.115	791.88
1606.657	793.88
1611.195	806.88
1615.728	796.88
1620.256	783.88
1624.78	761.88
1629.3	768.88
1633.816	791.88
1638.327	777.88
1642.834	790.88
1647.336	791.88
1651.834	798.88
1656.328	804.88
1660.817	795.88
1665.302	786.88
1669.783	755.88
1674.259	754.88
1678.732	741.88
1683.199	735.88
1687.663	684.88
1692.122	674.88
1696.577	673.88
1701.028	667.88
1705.474	635.88
1709.917	632.88
1714.355	627.88
1718.788	620.88
1723.218	601.88
1727.643	598.88
1732.064	593.88
1736.481	583.88
1740.893	587.88
1745.301	569.88
1749.705	529.88
1754.105	546.88
1758.501	526.88
1762.893	538.88
1767.28	492.88
1771.663	501.88
1776.042	501.88
1780.417	499.88
1784.787	496.88
1789.154	492.88
1793.516	499.88
1797.874	490.88
1802.228	481.88
1806.578	474.88
1810.924	489.88
1815.266	370.88
1819.603	489.88
1823.937	473.88
1828.266	473.88
1832.591	468.88
1836.913	464.88
1841.23	454.88
1845.543	451.88
1849.852	464.88
1854.156	452.88
1858.457	460.88
1862.754	449.88
1867.047	441.88
1871.335	480.88
1875.62	460.88
1879.9	460.88
1884.177	442.88
1888.449	460.88
1892.718	440.88
1896.982	449.88
1901.243	439.88
1905.499	440.88
1909.752	420.88
1914	401.88
1918.245	433.88
1922.485	430.88
1926.722	423.88
1930.954	410.88
1935.183	431.88
1939.408	428.88
1943.628	420.88
1947.845	424.88
1952.058	415.88
1956.267	407.88
1960.472	419.88
1964.673	417.88
1968.87	405.88
1973.063	395.88
1977.252	395.88
1981.438	376.88
1985.619	376.88
1989.797	363.88
1993.971	385.88
1998.14	386.88
2002.306	374.88
2006.469	384.88
2010.627	366.88
2014.781	373.88
2018.932	358.88
2023.078	381.88
2027.221	385.88
2031.36	362.88
2035.495	355.88
2039.627	365.88
2043.754	348.88
2047.878	346.88
2051.998	344.88
2056.114	346.88
2060.226	341.88
2064.334	354.88
2068.439	356.88
2072.54	349.88
2076.637	335.88
2080.73	341.88
2084.82	334.88
2088.906	339.88
2092.988	337.88
2097.066	353.88
2101.14	351.88
2105.211	342.88
2109.278	338.88
2113.342	327.88
2117.401	304.88
2121.457	303.88
2125.509	308.88
2129.558	308.88
2133.602	311.88
2137.643	303.88
2141.681	306.88
2145.714	314.88
2149.744	311.88
2153.77	309.88
2157.793	295.88
2161.812	268.88
2165.827	271.88
2169.838	299.88
2173.846	275.88
2177.851	288.88
2181.851	290.88
2185.848	275.88
2189.841	273.88
2193.831	275.88
2197.817	270.88
2201.799	264.88
2205.778	244.88
2209.753	250.88
2213.725	250.88
2217.693	263.88
2221.657	235.88
2225.618	249.88
2229.575	247.88
2233.529	260.88
2237.479	247.88
2241.425	243.88
2245.368	226.88
2249.307	238.88
2253.243	234.88
2257.175	241.88
2261.104	214.88
2265.029	236.88
2268.95	220.88
2272.868	219.88
2276.783	210.88
2280.694	221.88
2284.601	216.88
2288.505	214.88
2292.405	220.88
2296.302	193.88
2300.195	198.88
2304.085	171.88
2307.971	198.88
2311.854	182.88
2315.734	189.88
2319.609	202.88
2323.482	168.88
2327.351	174.88
2331.216	177.88
2335.078	182.88
2338.937	177.88
2342.792	167.88
2346.643	177.88
2350.492	176.88
2354.336	175.88
2358.178	177.88
2362.015	189.88
2365.85	182.88
2369.681	173.88
2373.508	175.88
2377.333	182.88
2381.153	178.88
2384.971	174.88
2388.785	174.88
2392.595	169.88
2396.402	161.88
2400.206	145.88
2404.007	160.88
2407.804	166.88
2411.597	170.88
2415.388	160.88
2419.174	168.88
2422.958	168.88
2426.738	158.88
2430.515	161.88
2434.289	154.88
2438.059	158.88
2441.825	155.88
2445.589	168.88
2449.349	127.88
2453.106	152.88
2456.859	149.88
2460.61	154.88
2464.356	131.88
2468.1	134.88
2471.84	134.88
2475.577	139.88
2479.311	138.88
2483.041	143.88
2486.768	148.88
2490.492	145.88
2494.213	143.88
2497.93	127.88
2501.644	121.88
2505.355	136.88
2509.062	133.88
2512.766	132.88
2516.467	127.88
2520.165	125.88
2523.859	111.88
2527.551	149.88
2531.239	119.88
2534.923	131.88
2538.605	127.88
2542.283	123.88
2545.958	130.88
2549.63	140.88
2553.299	133.88
2556.964	112.88
2560.626	117.88
2564.285	122.88
2567.941	110.88
2571.594	108.88
2575.243	117.88
2578.89	114.88
2582.533	116.88
2586.173	106.88
2589.809	108.88
2593.443	87.88
2597.073	99.88
2600.701	115.88
2604.325	101.88
2607.946	89.88
2611.564	115.88
2615.178	102.88
2618.79	103.88
2622.398	98.88
2626.004	112.88
2629.606	100.88
2633.205	93.88
2636.801	102.88
2640.394	100.88
2643.983	93.88
2647.57	94.88
2651.153	94.88
2654.734	102.88
2658.311	73.88
2661.885	83.88
2665.456	85.88
2669.025	85.88
2672.589	84.88
2676.151	104.88
2679.71	92.88
2683.266	87.88
2686.819	80.88
2690.368	82.88
2693.915	86.88
2697.458	86.88
2700.999	91.88
2704.536	81.88
2708.071	82.88
2711.602	82.88
2715.13	76.88
2718.656	65.88
2722.178	80.88
2725.697	61.88
2729.214	73.88
2732.727	71.88
2736.237	56.88
2739.744	68.88
2743.249	65.88
2746.75	69.88
2750.248	62.88
2753.743	69.88
2757.236	75.88
2760.725	82.88
2764.211	43.88
2767.695	69.88
2771.175	70.88
2774.652	67.88
2778.127	67.88
2781.598	67.88
2785.067	68.88
2788.532	60.88
2791.995	78.88
2795.455	57.88
2798.911	71.88
2802.365	58.88
2805.816	70.88
2809.264	76.88
2812.709	60.88
2816.151	72.88
2819.59	59.88
2823.026	63.88
2826.46	62.88
2829.89	76.88
2833.318	46.88
2836.742	70.88
2840.164	63.88
2843.583	65.88
2846.999	68.88
2850.412	72.88
2853.822	65.88
2857.229	73.88
2860.634	77.88
2864.035	54.88
2867.434	78.88
2870.83	77.88
2874.223	72.88
2877.613	70.88
2881	66.88
2884.385	71.88
2887.766	73.88
2891.145	70.88
2894.521	72.88
2897.894	60.88
2901.264	80.88
2904.631	88.88
2907.996	76.88
2911.358	88.88
2914.717	81.88
2918.073	82.88
2921.426	78.88
2924.777	69.88
2928.124	77.88
2931.469	98.88
2934.811	68.88
2938.15	100.88
2941.487	86.88
2944.821	100.88
2948.152	89.88
2951.48	102.88
2954.805	84.88
2958.128	100.88
2961.447	83.88
2964.765	108.88
2968.079	91.88
2971.39	93.88
2974.699	91.88
2978.005	94.88
2981.308	85.88
2984.609	94.88
2987.907	98.88
2991.202	105.88
2994.494	92.88
2997.784	102.88
3001.07	99.88
3004.355	92.88
3007.636	105.88
3010.915	105.88
3014.191	101.88
3017.464	104.88
3020.734	107.88
3024.002	110.88
3027.267	109.88
3030.53	116.88
3033.789	112.88
3037.046	117.88
3040.301	106.88
3043.552	116.88
3046.801	120.88
3050.048	138.88
3053.291	142.88
3056.532	140.88
3059.771	123.88
3063.006	145.88
3066.239	140.88
3069.469	142.88
3072.697	145.88
3075.922	154.88
3079.144	143.88
3082.364	177.88
3085.581	159.88
3088.795	172.88
3092.007	174.88
3095.216	176.88
3098.423	176.88
3101.627	158.88
3104.828	185.88
3108.026	184.88
3111.222	198.88
3114.416	210.88
3117.607	204.88
3120.795	209.88
3123.98	212.88
3127.163	211.88
3130.344	213.88
3133.521	206.88
3136.696	234.88
3139.869	229.88
3143.039	216.88
3146.206	247.88
3149.371	250.88
3152.533	248.88
3155.693	237.88
3158.85	252.88
3162.005	252.88
3165.157	249.88
3168.306	245.88
3171.453	264.88
3174.597	243.88
3177.739	232.88
3180.878	256.88
3184.014	255.88
3187.149	257.88
3190.28	257.88
3193.409	263.88
3196.536	263.88
3199.659	271.88
3202.781	271.88
3205.9	254.88
3209.016	262.88
3212.13	262.88
3215.241	256.88
3218.35	258.88
3221.456	245.88
3224.56	233.88
3227.661	251.88
3230.76	248.88
3233.856	236.88
3236.95	237.88
3240.041	229.88
3243.13	241.88
3246.216	238.88
3249.3	243.88
3252.382	235.88
3255.46	229.88
3258.537	182.88
3261.611	220.88
3264.682	231.88
3267.751	214.88
3270.818	213.88
3273.882	234.88
3276.943	215.88
3280.002	238.88
3283.059	222.88
3286.113	223.88
3289.165	205.88
3292.214	205.88
3295.261	223.88
3298.306	192.88
3301.348	210.88
3304.387	189.88
3307.425	199.88
3310.459	204.88
3313.492	206.88
3316.521	205.88
3319.549	201.88
3322.574	197.88
3325.597	190.88
3328.617	186.88
3331.635	184.88
3334.65	173.88
3337.663	192.88
3340.674	177.88
3343.682	191.88
3346.688	188.88
3349.691	180.88
3352.692	184.88
3355.691	176.88
3358.687	184.88
3361.681	186.88
3364.673	182.88
3367.662	183.88
3370.649	182.88
3373.633	159.88
3376.615	176.88
3379.595	146.88
3382.572	154.88
3385.547	151.88
3388.52	154.88
3391.49	155.88
3394.458	157.88
3397.424	158.88
3400.387	139.88
3403.348	156.88
3406.307	152.88
3409.263	148.88
3412.217	152.88
3415.168	155.88
3418.118	160.88
3421.065	138.88
3424.009	148.88
3426.951	136.88
3429.891	130.88
3432.829	131.88
3435.764	130.88
3438.697	118.88
3441.628	134.88
3444.557	114.88
3447.483	107.88
3450.407	119.88
3453.328	111.88
3456.247	98.88
3459.164	98.88
3462.079	114.88
3464.991	100.88
3467.902	91.88
3470.809	91.88
3473.715	92.88
3476.618	87.88
3479.519	84.88
3482.418	56.88
3485.315	62.88
3488.209	68.88
3491.101	69.88
3493.99	59.88
3496.878	56.88
3499.763	56.88
3502.646	66.88
3505.527	46.88
3508.405	53.88
3511.281	38.88
3514.155	51.88
3517.027	47.88
3519.897	36.88
3522.764	40.88
3525.629	17.88
3528.492	35.88
3531.352	40.88
3534.211	28.88
3537.067	30.88
3539.921	22.88
3542.773	33.88
3545.622	17.88
3548.469	7.88
3551.315	10.88
3554.157	17.88
3556.998	9.88
3559.837	13.88
3562.673	14.88
3565.507	3.88
3568.339	1.88
3571.169	6.88
3573.996	2.88
3576.822	-13.12
3579.645	-2.12
3582.466	-6.12
3585.285	4.88
3588.101	0.88
3590.916	-3.12
3593.728	0.88
3596.538	-10.12
3599.346	-0.12
3602.152	-13.12
3604.956	-3.12
3607.757	-0.12
3610.556	-20.12
3613.354	-4.12
3616.149	-10.12
3618.942	-6.12
3621.732	-11.12
3624.521	-12.12
3627.307	-23.12
3630.092	-19.12
3632.874	1.88
3635.654	-14.12
3638.432	-17.12
3641.208	-19.12
3643.982	-22.12
3646.753	-9.12
3649.523	-41.12
3652.29	-21.12
3655.055	-15.12
3657.818	-19.12
3660.579	-26.12
3663.338	-31.12
3666.095	-29.12
3668.849	-47.12
3671.602	-18.12
3674.352	-38.12
3677.101	-17.12
3679.847	-21.12
3682.591	-32.12
3685.333	-40.12
3688.073	-18.12
3690.811	-35.12
3693.547	-42.12
3696.281	-34.12
3699.013	-23.12
3701.742	-28.12
3704.47	-42.12
3707.195	-25.12
3709.919	-28.12
3712.64	-29.12
3715.359	-46.12
3718.076	-17.12
3720.792	-29.12
3723.505	-28.12
3726.216	-18.12
3728.925	-33.12
3731.632	-38.12
3734.336	-29.12
3737.039	-30.12
3739.74	-27.12
3742.439	-51.12
3745.136	-24.12
3747.83	-27.12
3750.523	-22.12
3753.213	-95.12
3755.902	-38.12
3758.589	-46.12
3761.273	-33.12
3763.956	-23.12
3766.636	-49.12
3769.315	-25.12
3771.991	-33.12
3774.665	-40.12
3777.338	-32.12
3780.008	-41.12
3782.677	-33.12
3785.343	-51.12
3788.007	-50.12
3790.67	-30.12
3793.33	-43.12
3795.989	-35.12
3798.645	-30.12
3801.299	-42.12
3803.952	-46.12
3806.602	-35.12
3809.251	-29.12
3811.897	-36.12
3814.542	-38.12
3817.184	-37.12
3819.825	-34.12
3822.463	-42.12
3825.1	-41.12
3827.735	-32.12
3830.367	-38.12
3832.998	-27.12
3835.627	-38.12
3838.253	-29.12
3840.878	-38.12
3843.501	-20.12
3846.122	-27.12
3848.741	-28.12
3851.358	-28.12
3853.973	-44.12
3856.586	-26.12
3859.197	-44.12
3861.806	-35.12
3864.414	-49.12
3867.019	-32.12
3869.622	-24.12
3872.224	-22.12
3874.823	-12.12
3877.421	7.88
3880.016	22.88
3882.61	52.88
3885.202	63.88
3887.792	45.88
3890.38	13.88
3892.966	-13.12
3895.55	-32.12
3898.132	-24.12
3900.713	-23.12
3903.291	-30.12
3905.868	-41.12
3908.442	-36.12
3911.015	-30.12
3913.586	-44.12
3916.155	-35.12
3918.722	-43.12
3921.287	-41.12
3923.85	-45.12
3926.411	-40.12
3928.971	-39.12
3931.528	-32.12
3934.084	-34.12
3936.638	-41.12
3939.19	-33.12
3941.74	-33.12
3944.288	-37.12
3946.834	-37.12
3949.378	-26.12
3951.921	-36.12
3954.462	-32.12
3957	-30.12
3959.537	-19.12
3962.072	-37.12
3964.606	-47.12
3967.137	-32.12
3969.667	-39.12
3972.194	-27.12
3974.72	-40.12
3977.244	-53.12
3979.766	-43.12
3982.286	-41.12
3984.805	-31.12
3987.321	-20.12
3989.836	-29.12
3992.349	-39.12
3994.86	-37.12
3997.369	-38.12
3999.877	-34.12
4002.382	-37.12
4004.886	-25.12
4007.388	-32.12
4009.888	-21.12
4012.386	-24.12
4014.883	-29.12
4017.377	-28.12
4019.87	-35.12
4022.361	-40.12
4024.85	-31.12
4027.338	-29.12
4029.823	-37.12
4032.307	-33.12
4034.789	-30.12
4037.269	-33.12
4039.747	-46.12
4042.224	-23.12
4044.699	-34.12
4047.172	-31.12
4049.643	-25.12
4052.112	-56.12
4054.58	-29.12
4057.046	-42.12
4059.51	-30.12
4061.972	-32.12
4064.432	-45.12
4066.891	-23.12
4069.348	-33.12
4071.803	-29.12
4074.256	-35.12
4076.708	-28.12
4079.158	-30.12
4081.606	-22.12
4084.052	-30.12
4086.497	-26.12
4088.939	-32.12
4091.38	-36.12
4093.819	-25.12
4096.257	0.88
4098.693	-8.12
4101.127	-6.12
4103.559	-0.12
4105.989	76.88
4108.418	85.88
4110.845	68.88
4113.27	71.88
4115.694	81.88
4118.115	71.88
4120.535	-31.12
4122.954	-23.12
4125.37	-22.12
4127.785	-27.12
4130.198	-22.12
4132.609	-27.12
4135.019	8.88
4137.427	0.88
4139.833	6.88
4142.237	-3.12
