Data from 2018-3-6_conc=6_n=5_RamanShift_02.txt Node
Date: Tue Mar 06 15:06:18 GMT+02:00 2018
User: LAB3
Spectrometer: QEPB0276
Trigger mode: 0
Integration Time (sec): 3.000000E1
Scans to average: 1
Electric dark correction enabled: true
Nonlinearity correction enabled: false
Boxcar width: 0
XAxis mode: Raman Shifts
Number of Pixels in Spectrum: 1044
>>>>>Begin Spectral Data<<<<<
160.701	44.62
166.742	63.62
172.777	91.62
178.805	164.62
184.826	398.62
190.841	795.62
196.849	1238.62
202.85	1562.62
208.845	1684.62
214.833	1652.62
220.815	1616.62
226.789	1600.62
232.758	1596.62
238.719	1561.62
244.674	1539.62
250.623	1513.62
256.565	1477.62
262.5	1487.62
268.429	1469.62
274.351	1425.62
280.267	1412.62
286.176	1424.62
292.079	1406.62
297.975	1412.62
303.865	1405.62
309.748	1399.62
315.625	1389.62
321.495	1398.62
327.359	1379.62
333.217	1372.62
339.068	1362.62
344.912	1385.62
350.751	1379.62
356.583	1386.62
362.408	1406.62
368.227	1399.62
374.04	1400.62
379.847	1405.62
385.647	1416.62
391.44	1402.62
397.228	1410.62
403.009	1423.62
408.784	1401.62
414.553	1450.62
420.315	1446.62
426.071	1437.62
431.821	1457.62
437.565	1437.62
443.302	1426.62
449.033	1422.62
454.758	1430.62
460.477	1399.62
466.189	1386.62
471.896	1385.62
477.596	1367.62
483.29	1345.62
488.978	1359.62
494.66	1350.62
500.335	1293.62
506.005	1233.62
511.668	1176.62
517.325	1109.62
522.977	1057.62
528.622	1035.62
534.261	1009.62
539.894	968.62
545.521	962.62
551.141	940.62
556.756	929.62
562.365	921.62
567.968	921.62
573.565	907.62
579.155	911.62
584.74	898.62
590.319	904.62
595.892	899.62
601.459	905.62
607.02	899.62
612.575	891.62
618.124	900.62
623.667	858.62
629.204	858.62
634.735	853.62
640.261	838.62
645.781	800.62
651.294	798.62
656.802	816.62
662.304	813.62
667.8	810.62
673.29	797.62
678.775	794.62
684.254	804.62
689.726	788.62
695.193	785.62
700.655	794.62
706.11	778.62
711.56	773.62
717.004	769.62
722.442	757.62
727.874	763.62
733.301	768.62
738.722	741.62
744.137	748.62
749.547	749.62
754.951	748.62
760.349	764.62
765.741	771.62
771.128	762.62
776.509	757.62
781.885	784.62
787.254	807.62
792.618	805.62
797.977	790.62
803.33	796.62
808.677	776.62
814.019	786.62
819.355	774.62
824.686	770.62
830.011	761.62
835.33	771.62
840.644	762.62
845.952	728.62
851.255	750.62
856.552	734.62
861.844	723.62
867.13	717.62
872.41	702.62
877.686	706.62
882.955	706.62
888.219	688.62
893.478	669.62
898.731	671.62
903.979	665.62
909.221	660.62
914.458	641.62
919.69	655.62
924.916	655.62
930.136	645.62
935.351	651.62
940.561	658.62
945.766	652.62
950.965	657.62
956.158	652.62
961.347	635.62
966.529	641.62
971.707	648.62
976.879	617.62
982.046	614.62
987.208	601.62
992.364	596.62
997.515	611.62
1002.66	611.62
1007.801	604.62
1012.936	610.62
1018.066	594.62
1023.19	621.62
1028.309	623.62
1033.423	628.62
1038.532	631.62
1043.636	622.62
1048.734	616.62
1053.827	609.62
1058.915	592.62
1063.998	601.62
1069.075	595.62
1074.147	593.62
1079.214	579.62
1084.276	609.62
1089.333	587.62
1094.385	597.62
1099.431	587.62
1104.472	588.62
1109.509	571.62
1114.54	574.62
1119.565	575.62
1124.586	561.62
1129.602	553.62
1134.613	523.62
1139.618	530.62
1144.619	535.62
1149.614	552.62
1154.604	531.62
1159.589	537.62
1164.57	564.62
1169.545	575.62
1174.515	561.62
1179.48	551.62
1184.44	556.62
1189.395	562.62
1194.345	534.62
1199.29	544.62
1204.23	535.62
1209.165	525.62
1214.095	544.62
1219.021	538.62
1223.941	530.62
1228.856	526.62
1233.766	549.62
1238.672	551.62
1243.572	543.62
1248.467	540.62
1253.358	535.62
1258.244	517.62
1263.124	533.62
1268	529.62
1272.871	488.62
1277.737	493.62
1282.599	493.62
1287.455	483.62
1292.306	493.62
1297.153	474.62
1301.995	484.62
1306.832	503.62
1311.664	497.62
1316.491	481.62
1321.314	496.62
1326.132	480.62
1330.945	494.62
1335.753	483.62
1340.556	466.62
1345.354	462.62
1350.148	446.62
1354.937	463.62
1359.722	433.62
1364.501	430.62
1369.276	441.62
1374.046	447.62
1378.811	431.62
1383.572	444.62
1388.327	439.62
1393.079	423.62
1397.825	421.62
1402.567	429.62
1407.304	413.62
1412.036	415.62
1416.764	412.62
1421.487	408.62
1426.205	399.62
1430.919	417.62
1435.628	413.62
1440.333	413.62
1445.032	429.62
1449.727	426.62
1454.418	429.62
1459.104	419.62
1463.785	411.62
1468.462	414.62
1473.134	406.62
1477.802	408.62
1482.465	379.62
1487.123	382.62
1491.777	369.62
1496.426	366.62
1501.071	392.62
1505.711	370.62
1510.347	388.62
1514.978	395.62
1519.604	385.62
1524.226	396.62
1528.844	370.62
1533.457	382.62
1538.065	383.62
1542.669	379.62
1547.269	379.62
1551.864	375.62
1556.454	369.62
1561.041	369.62
1565.622	366.62
1570.199	383.62
1574.772	382.62
1579.34	385.62
1583.904	405.62
1588.464	400.62
1593.019	400.62
1597.569	388.62
1602.115	379.62
1606.657	391.62
1611.195	399.62
1615.728	394.62
1620.256	378.62
1624.78	362.62
1629.3	373.62
1633.816	375.62
1638.327	368.62
1642.834	381.62
1647.336	378.62
1651.834	404.62
1656.328	397.62
1660.817	391.62
1665.302	373.62
1669.783	378.62
1674.259	378.62
1678.732	356.62
1683.199	358.62
1687.663	331.62
1692.122	338.62
1696.577	332.62
1701.028	332.62
1705.474	309.62
1709.917	302.62
1714.355	310.62
1718.788	306.62
1723.218	287.62
1727.643	277.62
1732.064	290.62
1736.481	262.62
1740.893	275.62
1745.301	266.62
1749.705	249.62
1754.105	264.62
1758.501	242.62
1762.893	257.62
1767.28	227.62
1771.663	239.62
1776.042	233.62
1780.417	233.62
1784.787	241.62
1789.154	245.62
1793.516	240.62
1797.874	233.62
1802.228	234.62
1806.578	222.62
1810.924	234.62
1815.266	120.62
1819.603	234.62
1823.937	222.62
1828.266	220.62
1832.591	225.62
1836.913	212.62
1841.23	214.62
1845.543	207.62
1849.852	218.62
1854.156	202.62
1858.457	215.62
1862.754	205.62
1867.047	210.62
1871.335	234.62
1875.62	225.62
1879.9	213.62
1884.177	212.62
1888.449	227.62
1892.718	219.62
1896.982	215.62
1901.243	193.62
1905.499	203.62
1909.752	196.62
1914	188.62
1918.245	205.62
1922.485	209.62
1926.722	198.62
1930.954	194.62
1935.183	204.62
1939.408	204.62
1943.628	205.62
1947.845	201.62
1952.058	202.62
1956.267	186.62
1960.472	195.62
1964.673	196.62
1968.87	191.62
1973.063	191.62
1977.252	187.62
1981.438	181.62
1985.619	177.62
1989.797	173.62
1993.971	179.62
1998.14	180.62
2002.306	176.62
2006.469	188.62
2010.627	171.62
2014.781	173.62
2018.932	164.62
2023.078	189.62
2027.221	178.62
2031.36	169.62
2035.495	172.62
2039.627	169.62
2043.754	175.62
2047.878	164.62
2051.998	160.62
2056.114	158.62
2060.226	158.62
2064.334	166.62
2068.439	176.62
2072.54	173.62
2076.637	155.62
2080.73	151.62
2084.82	154.62
2088.906	156.62
2092.988	157.62
2097.066	163.62
2101.14	167.62
2105.211	159.62
2109.278	151.62
2113.342	155.62
2117.401	142.62
2121.457	137.62
2125.509	135.62
2129.558	149.62
2133.602	138.62
2137.643	146.62
2141.681	144.62
2145.714	152.62
2149.744	149.62
2153.77	144.62
2157.793	128.62
2161.812	113.62
2165.827	119.62
2169.838	143.62
2173.846	123.62
2177.851	121.62
2181.851	142.62
2185.848	116.62
2189.841	131.62
2193.831	119.62
2197.817	122.62
2201.799	119.62
2205.778	117.62
2209.753	113.62
2213.725	106.62
2217.693	119.62
2221.657	102.62
2225.618	118.62
2229.575	114.62
2233.529	114.62
2237.479	111.62
2241.425	103.62
2245.368	98.62
2249.307	106.62
2253.243	104.62
2257.175	107.62
2261.104	102.62
2265.029	107.62
2268.95	109.62
2272.868	106.62
2276.783	95.62
2280.694	105.62
2284.601	105.62
2288.505	98.62
2292.405	101.62
2296.302	75.62
2300.195	91.62
2304.085	66.62
2307.971	85.62
2311.854	66.62
2315.734	87.62
2319.609	84.62
2323.482	63.62
2327.351	75.62
2331.216	77.62
2335.078	90.62
2338.937	83.62
2342.792	72.62
2346.643	72.62
2350.492	77.62
2354.336	73.62
2358.178	78.62
2362.015	83.62
2365.85	76.62
2369.681	74.62
2373.508	78.62
2377.333	83.62
2381.153	79.62
2384.971	73.62
2388.785	77.62
2392.595	70.62
2396.402	63.62
2400.206	42.62
2404.007	58.62
2407.804	72.62
2411.597	70.62
2415.388	64.62
2419.174	62.62
2422.958	65.62
2426.738	61.62
2430.515	67.62
2434.289	53.62
2438.059	54.62
2441.825	57.62
2445.589	62.62
2449.349	41.62
2453.106	60.62
2456.859	55.62
2460.61	59.62
2464.356	47.62
2468.1	48.62
2471.84	49.62
2475.577	48.62
2479.311	49.62
2483.041	50.62
2486.768	65.62
2490.492	65.62
2494.213	58.62
2497.93	46.62
2501.644	39.62
2505.355	48.62
2509.062	50.62
2512.766	54.62
2516.467	39.62
2520.165	44.62
2523.859	39.62
2527.551	67.62
2531.239	38.62
2534.923	48.62
2538.605	47.62
2542.283	47.62
2545.958	41.62
2549.63	56.62
2553.299	56.62
2556.964	35.62
2560.626	34.62
2564.285	46.62
2567.941	35.62
2571.594	31.62
2575.243	37.62
2578.89	43.62
2582.533	45.62
2586.173	39.62
2589.809	41.62
2593.443	20.62
2597.073	38.62
2600.701	40.62
2604.325	35.62
2607.946	28.62
2611.564	45.62
2615.178	46.62
2618.79	41.62
2622.398	28.62
2626.004	39.62
2629.606	36.62
2633.205	26.62
2636.801	32.62
2640.394	36.62
2643.983	22.62
2647.57	30.62
2651.153	24.62
2654.734	35.62
2658.311	12.62
2661.885	17.62
2665.456	27.62
2669.025	22.62
2672.589	20.62
2676.151	38.62
2679.71	40.62
2683.266	30.62
2686.819	22.62
2690.368	27.62
2693.915	37.62
2697.458	27.62
2700.999	29.62
2704.536	27.62
2708.071	28.62
2711.602	23.62
2715.13	25.62
2718.656	9.62
2722.178	20.62
2725.697	8.62
2729.214	18.62
2732.727	22.62
2736.237	8.62
2739.744	11.62
2743.249	14.62
2746.75	21.62
2750.248	6.62
2753.743	15.62
2757.236	18.62
2760.725	21.62
2764.211	-7.38
2767.695	20.62
2771.175	16.62
2774.652	22.62
2778.127	20.62
2781.598	10.62
2785.067	21.62
2788.532	4.62
2791.995	18.62
2795.455	13.62
2798.911	22.62
2802.365	15.62
2805.816	15.62
2809.264	23.62
2812.709	13.62
2816.151	18.62
2819.59	9.62
2823.026	12.62
2826.46	11.62
2829.89	24.62
2833.318	-9.38
2836.742	10.62
2840.164	14.62
2843.583	17.62
2846.999	13.62
2850.412	14.62
2853.822	14.62
2857.229	20.62
2860.634	17.62
2864.035	0.62
2867.434	19.62
2870.83	23.62
2874.223	15.62
2877.613	17.62
2881	14.62
2884.385	10.62
2887.766	13.62
2891.145	16.62
2894.521	16.62
2897.894	5.62
2901.264	25.62
2904.631	16.62
2907.996	21.62
2911.358	32.62
2914.717	17.62
2918.073	16.62
2921.426	19.62
2924.777	6.62
2928.124	16.62
2931.469	29.62
2934.811	11.62
2938.15	33.62
2941.487	19.62
2944.821	41.62
2948.152	26.62
2951.48	29.62
2954.805	14.62
2958.128	38.62
2961.447	25.62
2964.765	44.62
2968.079	26.62
2971.39	41.62
2974.699	36.62
2978.005	33.62
2981.308	28.62
2984.609	19.62
2987.907	42.62
2991.202	36.62
2994.494	24.62
2997.784	33.62
3001.07	31.62
3004.355	27.62
3007.636	26.62
3010.915	32.62
3014.191	28.62
3017.464	32.62
3020.734	36.62
3024.002	39.62
3027.267	35.62
3030.53	40.62
3033.789	37.62
3037.046	34.62
3040.301	32.62
3043.552	45.62
3046.801	45.62
3050.048	48.62
3053.291	66.62
3056.532	52.62
3059.771	35.62
3063.006	60.62
3066.239	52.62
3069.469	60.62
3072.697	48.62
3075.922	49.62
3079.144	50.62
3082.364	76.62
3085.581	57.62
3088.795	80.62
3092.007	75.62
3095.216	80.62
3098.423	70.62
3101.627	45.62
3104.828	74.62
3108.026	70.62
3111.222	88.62
3114.416	91.62
3117.607	84.62
3120.795	86.62
3123.98	93.62
3127.163	84.62
3130.344	91.62
3133.521	80.62
3136.696	103.62
3139.869	100.62
3143.039	86.62
3146.206	114.62
3149.371	111.62
3152.533	102.62
3155.693	98.62
3158.85	108.62
3162.005	115.62
3165.157	109.62
3168.306	102.62
3171.453	117.62
3174.597	98.62
3177.739	95.62
3180.878	109.62
3184.014	111.62
3187.149	103.62
3190.28	104.62
3193.409	121.62
3196.536	114.62
3199.659	119.62
3202.781	120.62
3205.9	101.62
3209.016	112.62
3212.13	115.62
3215.241	108.62
3218.35	111.62
3221.456	109.62
3224.56	94.62
3227.661	106.62
3230.76	98.62
3233.856	102.62
3236.95	105.62
3240.041	93.62
3243.13	107.62
3246.216	100.62
3249.3	107.62
3252.382	93.62
3255.46	87.62
3258.537	47.62
3261.611	81.62
3264.682	92.62
3267.751	93.62
3270.818	90.62
3273.882	104.62
3276.943	93.62
3280.002	105.62
3283.059	86.62
3286.113	88.62
3289.165	85.62
3292.214	77.62
3295.261	102.62
3298.306	75.62
3301.348	86.62
3304.387	86.62
3307.425	88.62
3310.459	81.62
3313.492	90.62
3316.521	84.62
3319.549	89.62
3322.574	82.62
3325.597	77.62
3328.617	71.62
3331.635	76.62
3334.65	56.62
3337.663	72.62
3340.674	69.62
3343.682	76.62
3346.688	78.62
3349.691	69.62
3352.692	63.62
3355.691	77.62
3358.687	79.62
3361.681	73.62
3364.673	77.62
3367.662	79.62
3370.649	86.62
3373.633	64.62
3376.615	76.62
3379.595	52.62
3382.572	65.62
3385.547	57.62
3388.52	54.62
3391.49	59.62
3394.458	59.62
3397.424	61.62
3400.387	51.62
3403.348	56.62
3406.307	57.62
3409.263	52.62
3412.217	63.62
3415.168	54.62
3418.118	62.62
3421.065	50.62
3424.009	60.62
3426.951	50.62
3429.891	45.62
3432.829	52.62
3435.764	52.62
3438.697	41.62
3441.628	59.62
3444.557	34.62
3447.483	38.62
3450.407	51.62
3453.328	37.62
3456.247	38.62
3459.164	27.62
3462.079	44.62
3464.991	39.62
3467.902	30.62
3470.809	34.62
3473.715	41.62
3476.618	23.62
3479.519	29.62
3482.418	10.62
3485.315	12.62
3488.209	17.62
3491.101	16.62
3493.99	9.62
3496.878	6.62
3499.763	15.62
3502.646	12.62
3505.527	2.62
3508.405	2.62
3511.281	-4.38
3514.155	4.62
3517.027	1.62
3519.897	-7.38
3522.764	9.62
3525.629	-16.38
3528.492	2.62
3531.352	1.62
3534.211	-0.38
3537.067	-6.38
3539.921	-2.38
3542.773	3.62
3545.622	-13.38
3548.469	-8.38
3551.315	-22.38
3554.157	-8.38
3556.998	-18.38
3559.837	-9.38
3562.673	-4.38
3565.507	-17.38
3568.339	-21.38
3571.169	-18.38
3573.996	-11.38
3576.822	-29.38
3579.645	-25.38
3582.466	-27.38
3585.285	-17.38
3588.101	-22.38
3590.916	-25.38
3593.728	-17.38
3596.538	-23.38
3599.346	-21.38
3602.152	-33.38
3604.956	-24.38
3607.757	-19.38
3610.556	-35.38
3613.354	-20.38
3616.149	-23.38
3618.942	-20.38
3621.732	-16.38
3624.521	-28.38
3627.307	-31.38
3630.092	-28.38
3632.874	-14.38
3635.654	-23.38
3638.432	-31.38
3641.208	-32.38
3643.982	-23.38
3646.753	-15.38
3649.523	-52.38
3652.29	-33.38
3655.055	-25.38
3657.818	-28.38
3660.579	-32.38
3663.338	-38.38
3666.095	-34.38
3668.849	-51.38
3671.602	-27.38
3674.352	-40.38
3677.101	-23.38
3679.847	-23.38
3682.591	-41.38
3685.333	-43.38
3688.073	-22.38
3690.811	-35.38
3693.547	-45.38
3696.281	-34.38
3699.013	-23.38
3701.742	-30.38
3704.47	-40.38
3707.195	-23.38
3709.919	-25.38
3712.64	-29.38
3715.359	-42.38
3718.076	-19.38
3720.792	-30.38
3723.505	-31.38
3726.216	-23.38
3728.925	-32.38
3731.632	-39.38
3734.336	-32.38
3737.039	-33.38
3739.74	-33.38
3742.439	-56.38
3745.136	-27.38
3747.83	-33.38
3750.523	-33.38
3753.213	-101.38
3755.902	-34.38
3758.589	-51.38
3761.273	-39.38
3763.956	-30.38
3766.636	-48.38
3769.315	-27.38
3771.991	-33.38
3774.665	-40.38
3777.338	-28.38
3780.008	-42.38
3782.677	-34.38
3785.343	-50.38
3788.007	-50.38
3790.67	-28.38
3793.33	-43.38
3795.989	-32.38
3798.645	-24.38
3801.299	-42.38
3803.952	-40.38
3806.602	-35.38
3809.251	-31.38
3811.897	-34.38
3814.542	-37.38
3817.184	-32.38
3819.825	-31.38
3822.463	-52.38
3825.1	-33.38
3827.735	-35.38
3830.367	-47.38
3832.998	-22.38
3835.627	-35.38
3838.253	-29.38
3840.878	-37.38
3843.501	-20.38
3846.122	-29.38
3848.741	-31.38
3851.358	-25.38
3853.973	-43.38
3856.586	-24.38
3859.197	-37.38
3861.806	-26.38
3864.414	-46.38
3867.019	-32.38
3869.622	-25.38
3872.224	-21.38
3874.823	-15.38
3877.421	4.62
3880.016	10.62
3882.61	45.62
3885.202	46.62
3887.792	26.62
3890.38	3.62
3892.966	-21.38
3895.55	-35.38
3898.132	-28.38
3900.713	-24.38
3903.291	-34.38
3905.868	-38.38
3908.442	-34.38
3911.015	-35.38
3913.586	-34.38
3916.155	-32.38
3918.722	-36.38
3921.287	-40.38
3923.85	-45.38
3926.411	-37.38
3928.971	-40.38
3931.528	-28.38
3934.084	-31.38
3936.638	-46.38
3939.19	-28.38
3941.74	-30.38
3944.288	-37.38
3946.834	-34.38
3949.378	-25.38
3951.921	-40.38
3954.462	-36.38
3957	-32.38
3959.537	-23.38
3962.072	-37.38
3964.606	-45.38
3967.137	-41.38
3969.667	-38.38
3972.194	-33.38
3974.72	-43.38
3977.244	-56.38
3979.766	-42.38
3982.286	-43.38
3984.805	-27.38
3987.321	-24.38
3989.836	-32.38
3992.349	-41.38
3994.86	-37.38
3997.369	-39.38
3999.877	-37.38
4002.382	-35.38
4004.886	-27.38
4007.388	-32.38
4009.888	-24.38
4012.386	-25.38
4014.883	-27.38
4017.377	-25.38
4019.87	-33.38
4022.361	-45.38
4024.85	-33.38
4027.338	-33.38
4029.823	-40.38
4032.307	-46.38
4034.789	-37.38
4037.269	-33.38
4039.747	-50.38
4042.224	-27.38
4044.699	-44.38
4047.172	-38.38
4049.643	-31.38
4052.112	-60.38
4054.58	-29.38
4057.046	-44.38
4059.51	-35.38
4061.972	-28.38
4064.432	-50.38
4066.891	-23.38
4069.348	-31.38
4071.803	-29.38
4074.256	-37.38
4076.708	-31.38
4079.158	-31.38
4081.606	-26.38
4084.052	-32.38
4086.497	-32.38
4088.939	-35.38
4091.38	-33.38
4093.819	-28.38
4096.257	-0.38
4098.693	-8.38
4101.127	-6.38
4103.559	3.62
4105.989	51.62
4108.418	65.62
4110.845	42.62
4113.27	48.62
4115.694	53.62
4118.115	47.62
4120.535	-33.38
4122.954	-27.38
4125.37	-24.38
4127.785	-27.38
4130.198	-25.38
4132.609	-32.38
4135.019	11.62
4137.427	-1.38
4139.833	5.62
4142.237	-4.38
