Data from 2018-3-6_conc=3_n=3_RamanShift_05.txt Node
Date: Tue Mar 06 13:22:19 GMT+02:00 2018
User: LAB3
Spectrometer: QEPB0276
Trigger mode: 0
Integration Time (sec): 3.000000E1
Scans to average: 1
Electric dark correction enabled: true
Nonlinearity correction enabled: false
Boxcar width: 0
XAxis mode: Raman Shifts
Number of Pixels in Spectrum: 1044
>>>>>Begin Spectral Data<<<<<
160.701	128.12
166.742	165.12
172.777	244.12
178.805	485.12
184.826	1123.12
190.841	2218.12
196.849	3526.12
202.85	4505.12
208.845	4872.12
214.833	4878.12
220.815	4817.12
226.789	4849.12
232.758	4875.12
238.719	4861.12
244.674	4839.12
250.623	4842.12
256.565	4800.12
262.5	4735.12
268.429	4751.12
274.351	4696.12
280.267	4723.12
286.176	4706.12
292.079	4715.12
297.975	4731.12
303.865	4740.12
309.748	4757.12
315.625	4773.12
321.495	4787.12
327.359	4800.12
333.217	4817.12
339.068	4821.12
344.912	4844.12
350.751	4872.12
356.583	4886.12
362.408	4895.12
368.227	4936.12
374.04	4935.12
379.847	4981.12
385.647	5011.12
391.44	5005.12
397.228	5041.12
403.009	5092.12
408.784	5075.12
414.553	5139.12
420.315	5150.12
426.071	5132.12
431.821	5153.12
437.565	5129.12
443.302	5112.12
449.033	5089.12
454.758	5078.12
460.477	5047.12
466.189	4990.12
471.896	4976.12
477.596	4888.12
483.29	4867.12
488.978	4887.12
494.66	4828.12
500.335	4691.12
506.005	4513.12
511.668	4270.12
517.325	4049.12
522.977	3894.12
528.622	3782.12
534.261	3670.12
539.894	3612.12
545.521	3530.12
551.141	3481.12
556.756	3462.12
562.365	3423.12
567.968	3390.12
573.565	3374.12
579.155	3349.12
584.74	3345.12
590.319	3367.12
595.892	3303.12
601.459	3343.12
607.02	3318.12
612.575	3304.12
618.124	3259.12
623.667	3201.12
629.204	3135.12
634.735	3113.12
640.261	3107.12
645.781	3036.12
651.294	3039.12
656.802	3038.12
662.304	3023.12
667.8	3018.12
673.29	3008.12
678.775	2994.12
684.254	2982.12
689.726	2955.12
695.193	2964.12
700.655	2938.12
706.11	2910.12
711.56	2897.12
717.004	2898.12
722.442	2846.12
727.874	2888.12
733.301	2861.12
738.722	2832.12
744.137	2839.12
749.547	2842.12
754.951	2848.12
760.349	2841.12
765.741	2856.12
771.128	2881.12
776.509	2907.12
781.885	2969.12
787.254	2967.12
792.618	3013.12
797.977	2988.12
803.33	2993.12
808.677	2949.12
814.019	2930.12
819.355	2887.12
824.686	2870.12
830.011	2854.12
835.33	2846.12
840.644	2817.12
845.952	2774.12
851.255	2779.12
856.552	2755.12
861.844	2704.12
867.13	2672.12
872.41	2664.12
877.686	2645.12
882.955	2612.12
888.219	2580.12
893.478	2549.12
898.731	2512.12
903.979	2491.12
909.221	2477.12
914.458	2461.12
919.69	2469.12
924.916	2448.12
930.136	2462.12
935.351	2460.12
940.561	2485.12
945.766	2452.12
950.965	2458.12
956.158	2416.12
961.347	2398.12
966.529	2362.12
971.707	2357.12
976.879	2309.12
982.046	2299.12
987.208	2274.12
992.364	2276.12
997.515	2279.12
1002.66	2325.12
1007.801	2303.12
1012.936	2329.12
1018.066	2328.12
1023.19	2362.12
1028.309	2368.12
1033.423	2371.12
1038.532	2371.12
1043.636	2352.12
1048.734	2327.12
1053.827	2300.12
1058.915	2272.12
1063.998	2288.12
1069.075	2277.12
1074.147	2278.12
1079.214	2259.12
1084.276	2292.12
1089.333	2260.12
1094.385	2303.12
1099.431	2267.12
1104.472	2251.12
1109.509	2215.12
1114.54	2212.12
1119.565	2198.12
1124.586	2175.12
1129.602	2109.12
1134.613	2081.12
1139.618	2082.12
1144.619	2090.12
1149.614	2102.12
1154.604	2108.12
1159.589	2657.12
1164.57	2426.12
1169.545	2135.12
1174.515	2126.12
1179.48	2103.12
1184.44	2107.12
1189.395	2105.12
1194.345	2061.12
1199.29	2059.12
1204.23	2049.12
1209.165	2038.12
1214.095	2072.12
1219.021	2082.12
1223.941	2076.12
1228.856	2078.12
1233.766	2105.12
1238.672	2103.12
1243.572	2104.12
1248.467	2068.12
1253.358	2053.12
1258.244	1992.12
1263.124	1989.12
1268	1961.12
1272.871	1916.12
1277.737	1888.12
1282.599	1886.12
1287.455	1867.12
1292.306	1879.12
1297.153	1878.12
1301.995	1902.12
1306.832	1899.12
1311.664	1904.12
1316.491	1907.12
1321.314	1906.12
1326.132	1864.12
1330.945	1868.12
1335.753	1828.12
1340.556	1788.12
1345.354	1769.12
1350.148	1754.12
1354.937	1747.12
1359.722	1709.12
1364.501	1713.12
1369.276	1711.12
1374.046	1730.12
1378.811	1677.12
1383.572	1711.12
1388.327	1700.12
1393.079	1661.12
1397.825	1652.12
1402.567	1668.12
1407.304	1631.12
1412.036	1630.12
1416.764	1622.12
1421.487	1603.12
1426.205	1622.12
1430.919	1624.12
1435.628	1630.12
1440.333	1612.12
1445.032	1655.12
1449.727	1656.12
1454.418	1667.12
1459.104	1659.12
1463.785	1612.12
1468.462	1626.12
1473.134	1594.12
1477.802	1568.12
1482.465	1543.12
1487.123	1527.12
1491.777	1505.12
1496.426	1505.12
1501.071	1525.12
1505.711	1508.12
1510.347	1537.12
1514.978	1545.12
1519.604	1537.12
1524.226	1538.12
1528.844	1528.12
1533.457	1524.12
1538.065	1525.12
1542.669	1493.12
1547.269	1502.12
1551.864	1477.12
1556.454	1461.12
1561.041	1484.12
1565.622	1472.12
1570.199	1496.12
1574.772	1492.12
1579.34	1512.12
1583.904	1535.12
1588.464	1537.12
1593.019	1560.12
1597.569	1529.12
1602.115	1522.12
1606.657	1509.12
1611.195	1517.12
1615.728	1533.12
1620.256	1492.12
1624.78	1477.12
1629.3	1506.12
1633.816	1489.12
1638.327	1506.12
1642.834	1522.12
1647.336	1530.12
1651.834	1552.12
1656.328	1544.12
1660.817	1544.12
1665.302	1513.12
1669.783	1495.12
1674.259	1474.12
1678.732	1447.12
1683.199	1411.12
1687.663	1381.12
1692.122	1352.12
1696.577	1331.12
1701.028	1312.12
1705.474	1287.12
1709.917	1260.12
1714.355	1233.12
1718.788	1236.12
1723.218	1191.12
1727.643	1177.12
1732.064	1186.12
1736.481	1140.12
1740.893	1130.12
1745.301	1125.12
1749.705	1053.12
1754.105	1073.12
1758.501	1052.12
1762.893	1037.12
1767.28	1008.12
1771.663	1000.12
1776.042	977.12
1780.417	979.12
1784.787	996.12
1789.154	1000.12
1793.516	1010.12
1797.874	998.12
1802.228	982.12
1806.578	981.12
1810.924	977.12
1815.266	862.12
1819.603	967.12
1823.937	923.12
1828.266	938.12
1832.591	926.12
1836.913	906.12
1841.23	918.12
1845.543	897.12
1849.852	920.12
1854.156	896.12
1858.457	896.12
1862.754	890.12
1867.047	902.12
1871.335	934.12
1875.62	922.12
1879.9	905.12
1884.177	900.12
1888.449	897.12
1892.718	891.12
1896.982	912.12
1901.243	884.12
1905.499	888.12
1909.752	865.12
1914	855.12
1918.245	887.12
1922.485	880.12
1926.722	885.12
1930.954	869.12
1935.183	911.12
1939.408	893.12
1943.628	889.12
1947.845	877.12
1952.058	874.12
1956.267	861.12
1960.472	872.12
1964.673	846.12
1968.87	814.12
1973.063	813.12
1977.252	803.12
1981.438	798.12
1985.619	773.12
1989.797	766.12
1993.971	761.12
1998.14	778.12
2002.306	760.12
2006.469	770.12
2010.627	760.12
2014.781	761.12
2018.932	753.12
2023.078	756.12
2027.221	755.12
2031.36	734.12
2035.495	732.12
2039.627	723.12
2043.754	717.12
2047.878	705.12
2051.998	702.12
2056.114	702.12
2060.226	699.12
2064.334	721.12
2068.439	722.12
2072.54	727.12
2076.637	698.12
2080.73	700.12
2084.82	712.12
2088.906	704.12
2092.988	711.12
2097.066	715.12
2101.14	708.12
2105.211	698.12
2109.278	690.12
2113.342	686.12
2117.401	649.12
2121.457	661.12
2125.509	653.12
2129.558	651.12
2133.602	648.12
2137.643	628.12
2141.681	648.12
2145.714	641.12
2149.744	638.12
2153.77	629.12
2157.793	607.12
2161.812	597.12
2165.827	587.12
2169.838	611.12
2173.846	573.12
2177.851	576.12
2181.851	588.12
2185.848	557.12
2189.841	557.12
2193.831	544.12
2197.817	541.12
2201.799	538.12
2205.778	540.12
2209.753	529.12
2213.725	517.12
2217.693	526.12
2221.657	519.12
2225.618	535.12
2229.575	523.12
2233.529	518.12
2237.479	516.12
2241.425	508.12
2245.368	487.12
2249.307	482.12
2253.243	481.12
2257.175	477.12
2261.104	461.12
2265.029	464.12
2268.95	463.12
2272.868	454.12
2276.783	438.12
2280.694	441.12
2284.601	433.12
2288.505	430.12
2292.405	437.12
2296.302	407.12
2300.195	425.12
2304.085	394.12
2307.971	406.12
2311.854	392.12
2315.734	389.12
2319.609	397.12
2323.482	361.12
2327.351	368.12
2331.216	366.12
2335.078	371.12
2338.937	370.12
2342.792	360.12
2346.643	360.12
2350.492	371.12
2354.336	360.12
2358.178	362.12
2362.015	367.12
2365.85	369.12
2369.681	360.12
2373.508	366.12
2377.333	374.12
2381.153	365.12
2384.971	352.12
2388.785	356.12
2392.595	347.12
2396.402	348.12
2400.206	322.12
2404.007	336.12
2407.804	340.12
2411.597	342.12
2415.388	335.12
2419.174	332.12
2422.958	324.12
2426.738	328.12
2430.515	331.12
2434.289	329.12
2438.059	316.12
2441.825	330.12
2445.589	330.12
2449.349	305.12
2453.106	321.12
2456.859	302.12
2460.61	312.12
2464.356	290.12
2468.1	301.12
2471.84	289.12
2475.577	298.12
2479.311	293.12
2483.041	294.12
2486.768	305.12
2490.492	301.12
2494.213	296.12
2497.93	288.12
2501.644	272.12
2505.355	292.12
2509.062	288.12
2512.766	283.12
2516.467	277.12
2520.165	278.12
2523.859	262.12
2527.551	296.12
2531.239	263.12
2534.923	269.12
2538.605	271.12
2542.283	275.12
2545.958	270.12
2549.63	280.12
2553.299	277.12
2556.964	265.12
2560.626	267.12
2564.285	271.12
2567.941	256.12
2571.594	247.12
2575.243	259.12
2578.89	246.12
2582.533	255.12
2586.173	242.12
2589.809	254.12
2593.443	223.12
2597.073	241.12
2600.701	254.12
2604.325	241.12
2607.946	227.12
2611.564	245.12
2615.178	238.12
2618.79	244.12
2622.398	222.12
2626.004	226.12
2629.606	237.12
2633.205	211.12
2636.801	229.12
2640.394	217.12
2643.983	215.12
2647.57	212.12
2651.153	204.12
2654.734	213.12
2658.311	183.12
2661.885	190.12
2665.456	198.12
2669.025	199.12
2672.589	203.12
2676.151	210.12
2679.71	211.12
2683.266	198.12
2686.819	182.12
2690.368	196.12
2693.915	190.12
2697.458	190.12
2700.999	194.12
2704.536	185.12
2708.071	184.12
2711.602	183.12
2715.13	178.12
2718.656	162.12
2722.178	183.12
2725.697	162.12
2729.214	167.12
2732.727	171.12
2736.237	159.12
2739.744	167.12
2743.249	164.12
2746.75	166.12
2750.248	166.12
2753.743	171.12
2757.236	170.12
2760.725	180.12
2764.211	148.12
2767.695	174.12
2771.175	166.12
2774.652	176.12
2778.127	156.12
2781.598	164.12
2785.067	170.12
2788.532	152.12
2791.995	174.12
2795.455	157.12
2798.911	174.12
2802.365	166.12
2805.816	165.12
2809.264	175.12
2812.709	164.12
2816.151	162.12
2819.59	155.12
2823.026	163.12
2826.46	159.12
2829.89	173.12
2833.318	149.12
2836.742	159.12
2840.164	165.12
2843.583	164.12
2846.999	172.12
2850.412	165.12
2853.822	161.12
2857.229	185.12
2860.634	179.12
2864.035	164.12
2867.434	183.12
2870.83	183.12
2874.223	179.12
2877.613	183.12
2881	175.12
2884.385	177.12
2887.766	182.12
2891.145	188.12
2894.521	186.12
2897.894	178.12
2901.264	188.12
2904.631	185.12
2907.996	191.12
2911.358	198.12
2914.717	189.12
2918.073	191.12
2921.426	185.12
2924.777	175.12
2928.124	197.12
2931.469	212.12
2934.811	195.12
2938.15	227.12
2941.487	211.12
2944.821	231.12
2948.152	214.12
2951.48	218.12
2954.805	210.12
2958.128	221.12
2961.447	212.12
2964.765	226.12
2968.079	215.12
2971.39	221.12
2974.699	221.12
2978.005	219.12
2981.308	224.12
2984.609	213.12
2987.907	232.12
2991.202	234.12
2994.494	224.12
2997.784	230.12
3001.07	237.12
3004.355	232.12
3007.636	239.12
3010.915	247.12
3014.191	239.12
3017.464	242.12
3020.734	243.12
3024.002	244.12
3027.267	255.12
3030.53	252.12
3033.789	246.12
3037.046	262.12
3040.301	254.12
3043.552	269.12
3046.801	271.12
3050.048	289.12
3053.291	293.12
3056.532	292.12
3059.771	282.12
3063.006	305.12
3066.239	309.12
3069.469	323.12
3072.697	316.12
3075.922	320.12
3079.144	335.12
3082.364	365.12
3085.581	343.12
3088.795	376.12
3092.007	363.12
3095.216	378.12
3098.423	378.12
3101.627	372.12
3104.828	398.12
3108.026	398.12
3111.222	417.12
3114.416	435.12
3117.607	440.12
3120.795	433.12
3123.98	455.12
3127.163	441.12
3130.344	465.12
3133.521	465.12
3136.696	494.12
3139.869	490.12
3143.039	486.12
3146.206	526.12
3149.371	520.12
3152.533	530.12
3155.693	513.12
3158.85	531.12
3162.005	543.12
3165.157	526.12
3168.306	534.12
3171.453	545.12
3174.597	533.12
3177.739	517.12
3180.878	545.12
3184.014	536.12
3187.149	535.12
3190.28	547.12
3193.409	548.12
3196.536	555.12
3199.659	570.12
3202.781	557.12
3205.9	537.12
3209.016	554.12
3212.13	540.12
3215.241	538.12
3218.35	543.12
3221.456	531.12
3224.56	526.12
3227.661	536.12
3230.76	530.12
3233.856	513.12
3236.95	518.12
3240.041	505.12
3243.13	508.12
3246.216	518.12
3249.3	507.12
3252.382	512.12
3255.46	505.12
3258.537	455.12
3261.611	493.12
3264.682	498.12
3267.751	496.12
3270.818	479.12
3273.882	506.12
3276.943	494.12
3280.002	499.12
3283.059	476.12
3286.113	476.12
3289.165	472.12
3292.214	470.12
3295.261	473.12
3298.306	444.12
3301.348	451.12
3304.387	429.12
3307.425	444.12
3310.459	422.12
3313.492	435.12
3316.521	424.12
3319.549	426.12
3322.574	424.12
3325.597	415.12
3328.617	399.12
3331.635	409.12
3334.65	393.12
3337.663	404.12
3340.674	397.12
3343.682	413.12
3346.688	417.12
3349.691	390.12
3352.692	402.12
3355.691	403.12
3358.687	402.12
3361.681	392.12
3364.673	383.12
3367.662	384.12
3370.649	385.12
3373.633	372.12
3376.615	377.12
3379.595	346.12
3382.572	359.12
3385.547	352.12
3388.52	340.12
3391.49	341.12
3394.458	342.12
3397.424	346.12
3400.387	328.12
3403.348	331.12
3406.307	333.12
3409.263	330.12
3412.217	332.12
3415.168	325.12
3418.118	329.12
3421.065	308.12
3424.009	324.12
3426.951	314.12
3429.891	305.12
3432.829	297.12
3435.764	303.12
3438.697	277.12
3441.628	293.12
3444.557	265.12
3447.483	265.12
3450.407	270.12
3453.328	255.12
3456.247	241.12
3459.164	235.12
3462.079	248.12
3464.991	232.12
3467.902	223.12
3470.809	223.12
3473.715	221.12
3476.618	209.12
3479.519	209.12
3482.418	176.12
3485.315	185.12
3488.209	182.12
3491.101	178.12
3493.99	158.12
3496.878	164.12
3499.763	164.12
3502.646	162.12
3505.527	144.12
3508.405	146.12
3511.281	130.12
3514.155	134.12
3517.027	126.12
3519.897	122.12
3522.764	125.12
3525.629	107.12
3528.492	111.12
3531.352	111.12
3534.211	95.12
3537.067	96.12
3539.921	93.12
3542.773	102.12
3545.622	79.12
3548.469	70.12
3551.315	65.12
3554.157	75.12
3556.998	64.12
3559.837	58.12
3562.673	68.12
3565.507	56.12
3568.339	54.12
3571.169	52.12
3573.996	53.12
3576.822	26.12
3579.645	31.12
3582.466	34.12
3585.285	43.12
3588.101	41.12
3590.916	35.12
3593.728	37.12
3596.538	24.12
3599.346	29.12
3602.152	20.12
3604.956	26.12
3607.757	26.12
3610.556	10.12
3613.354	20.12
3616.149	19.12
3618.942	20.12
3621.732	18.12
3624.521	12.12
3627.307	-0.88
3630.092	11.12
3632.874	19.12
3635.654	8.12
3638.432	4.12
3641.208	-0.88
3643.982	3.12
3646.753	10.12
3649.523	-26.88
3652.29	-5.88
3655.055	0.12
3657.818	-3.88
3660.579	-5.88
3663.338	-16.88
3666.095	-13.88
3668.849	-37.88
3671.602	0.12
3674.352	-18.88
3677.101	-6.88
3679.847	-0.88
3682.591	-18.88
3685.333	-24.88
3688.073	-15.88
3690.811	-22.88
3693.547	-32.88
3696.281	-25.88
3699.013	-19.88
3701.742	-24.88
3704.47	-30.88
3707.195	-15.88
3709.919	-13.88
3712.64	-24.88
3715.359	-34.88
3718.076	-15.88
3720.792	-28.88
3723.505	-19.88
3726.216	-12.88
3728.925	-30.88
3731.632	-29.88
3734.336	-24.88
3737.039	-23.88
3739.74	-22.88
3742.439	-51.88
3745.136	-23.88
3747.83	-26.88
3750.523	-24.88
3753.213	-79.88
3755.902	-30.88
3758.589	-39.88
3761.273	-29.88
3763.956	-18.88
3766.636	-43.88
3769.315	-21.88
3771.991	-25.88
3774.665	-28.88
3777.338	-30.88
3780.008	-37.88
3782.677	-27.88
3785.343	-49.88
3788.007	-48.88
3790.67	-21.88
3793.33	-38.88
3795.989	-31.88
3798.645	-29.88
3801.299	-40.88
3803.952	-39.88
3806.602	-35.88
3809.251	-25.88
3811.897	-25.88
3814.542	-34.88
3817.184	-32.88
3819.825	-32.88
3822.463	-44.88
3825.1	-39.88
3827.735	-31.88
3830.367	-38.88
3832.998	-22.88
3835.627	-31.88
3838.253	-21.88
3840.878	-33.88
3843.501	-18.88
3846.122	-26.88
3848.741	-23.88
3851.358	-24.88
3853.973	-42.88
3856.586	-24.88
3859.197	-36.88
3861.806	-31.88
3864.414	-41.88
3867.019	-27.88
3869.622	-18.88
3872.224	-12.88
3874.823	-3.88
3877.421	18.12
3880.016	40.12
3882.61	73.12
3885.202	94.12
3887.792	61.12
3890.38	30.12
3892.966	-3.88
3895.55	-32.88
3898.132	-21.88
3900.713	-19.88
3903.291	-29.88
3905.868	-40.88
3908.442	-30.88
3911.015	-31.88
3913.586	-32.88
3916.155	-30.88
3918.722	-38.88
3921.287	-36.88
3923.85	-44.88
3926.411	-35.88
3928.971	-38.88
3931.528	-29.88
3934.084	-36.88
3936.638	-45.88
3939.19	-25.88
3941.74	-28.88
3944.288	-37.88
3946.834	-37.88
3949.378	-25.88
3951.921	-38.88
3954.462	-31.88
3957	-29.88
3959.537	-21.88
3962.072	-32.88
3964.606	-44.88
3967.137	-37.88
3969.667	-35.88
3972.194	-26.88
3974.72	-34.88
3977.244	-56.88
3979.766	-43.88
3982.286	-39.88
3984.805	-29.88
3987.321	-23.88
3989.836	-27.88
3992.349	-35.88
3994.86	-29.88
3997.369	-31.88
3999.877	-35.88
4002.382	-33.88
4004.886	-27.88
4007.388	-27.88
4009.888	-20.88
4012.386	-23.88
4014.883	-29.88
4017.377	-26.88
4019.87	-25.88
4022.361	-37.88
4024.85	-33.88
4027.338	-28.88
4029.823	-31.88
4032.307	-26.88
4034.789	-27.88
4037.269	-29.88
4039.747	-39.88
4042.224	-24.88
4044.699	-39.88
4047.172	-34.88
4049.643	-25.88
4052.112	-52.88
4054.58	-32.88
4057.046	-42.88
4059.51	-26.88
4061.972	-27.88
4064.432	-49.88
4066.891	-18.88
4069.348	-31.88
4071.803	-24.88
4074.256	-36.88
4076.708	-25.88
4079.158	-26.88
4081.606	-18.88
4084.052	-28.88
4086.497	-26.88
4088.939	-28.88
4091.38	-36.88
4093.819	-25.88
4096.257	2.12
4098.693	-4.88
4101.127	-5.88
4103.559	-1.88
4105.989	119.12
4108.418	121.12
4110.845	111.12
4113.27	120.12
4115.694	130.12
4118.115	113.12
4120.535	-28.88
4122.954	-23.88
4125.37	-20.88
4127.785	-27.88
4130.198	-20.88
4132.609	-24.88
4135.019	10.12
4137.427	0.12
4139.833	4.12
4142.237	-3.88
