Data from 2018-3-6_conc=6_n=7_RamanShift_01.txt Node
Date: Tue Mar 06 15:13:18 GMT+02:00 2018
User: LAB3
Spectrometer: QEPB0276
Trigger mode: 0
Integration Time (sec): 3.000000E1
Scans to average: 1
Electric dark correction enabled: true
Nonlinearity correction enabled: false
Boxcar width: 0
XAxis mode: Raman Shifts
Number of Pixels in Spectrum: 1044
>>>>>Begin Spectral Data<<<<<
160.701	46.62
166.742	63.62
172.777	82.62
178.805	158.62
184.826	378.62
190.841	763.62
196.849	1160.62
202.85	1469.62
208.845	1569.62
214.833	1528.62
220.815	1492.62
226.789	1470.62
232.758	1474.62
238.719	1469.62
244.674	1422.62
250.623	1404.62
256.565	1384.62
262.5	1353.62
268.429	1349.62
274.351	1319.62
280.267	1318.62
286.176	1306.62
292.079	1307.62
297.975	1309.62
303.865	1289.62
309.748	1286.62
315.625	1282.62
321.495	1275.62
327.359	1274.62
333.217	1269.62
339.068	1270.62
344.912	1289.62
350.751	1256.62
356.583	1292.62
362.408	1302.62
368.227	1302.62
374.04	1286.62
379.847	1284.62
385.647	1302.62
391.44	1296.62
397.228	1304.62
403.009	1316.62
408.784	1321.62
414.553	1335.62
420.315	1335.62
426.071	1334.62
431.821	1331.62
437.565	1343.62
443.302	1320.62
449.033	1312.62
454.758	1331.62
460.477	1317.62
466.189	1296.62
471.896	1285.62
477.596	1279.62
483.29	1254.62
488.978	1244.62
494.66	1233.62
500.335	1211.62
506.005	1146.62
511.668	1107.62
517.325	1015.62
522.977	990.62
528.622	939.62
534.261	940.62
539.894	899.62
545.521	894.62
551.141	861.62
556.756	861.62
562.365	844.62
567.968	862.62
573.565	837.62
579.155	847.62
584.74	822.62
590.319	828.62
595.892	827.62
601.459	842.62
607.02	816.62
612.575	822.62
618.124	818.62
623.667	800.62
629.204	781.62
634.735	774.62
640.261	753.62
645.781	728.62
651.294	737.62
656.802	750.62
662.304	734.62
667.8	752.62
673.29	731.62
678.775	744.62
684.254	738.62
689.726	710.62
695.193	733.62
700.655	718.62
706.11	721.62
711.56	722.62
717.004	713.62
722.442	689.62
727.874	706.62
733.301	712.62
738.722	683.62
744.137	691.62
749.547	680.62
754.951	680.62
760.349	685.62
765.741	712.62
771.128	695.62
776.509	712.62
781.885	725.62
787.254	739.62
792.618	735.62
797.977	741.62
803.33	730.62
808.677	726.62
814.019	721.62
819.355	704.62
824.686	692.62
830.011	683.62
835.33	700.62
840.644	709.62
845.952	674.62
851.255	679.62
856.552	685.62
861.844	668.62
867.13	651.62
872.41	646.62
877.686	649.62
882.955	632.62
888.219	627.62
893.478	615.62
898.731	636.62
903.979	627.62
909.221	593.62
914.458	590.62
919.69	599.62
924.916	603.62
930.136	600.62
935.351	591.62
940.561	608.62
945.766	599.62
950.965	605.62
956.158	596.62
961.347	579.62
966.529	582.62
971.707	589.62
976.879	574.62
982.046	563.62
987.208	541.62
992.364	562.62
997.515	556.62
1002.66	553.62
1007.801	551.62
1012.936	565.62
1018.066	534.62
1023.19	564.62
1028.309	574.62
1033.423	565.62
1038.532	581.62
1043.636	581.62
1048.734	547.62
1053.827	553.62
1058.915	551.62
1063.998	548.62
1069.075	543.62
1074.147	543.62
1079.214	522.62
1084.276	550.62
1089.333	541.62
1094.385	548.62
1099.431	531.62
1104.472	540.62
1109.509	532.62
1114.54	523.62
1119.565	514.62
1124.586	522.62
1129.602	506.62
1134.613	485.62
1139.618	491.62
1144.619	507.62
1149.614	510.62
1154.604	498.62
1159.589	498.62
1164.57	517.62
1169.545	517.62
1174.515	508.62
1179.48	500.62
1184.44	495.62
1189.395	500.62
1194.345	489.62
1199.29	501.62
1204.23	483.62
1209.165	471.62
1214.095	497.62
1219.021	492.62
1223.941	475.62
1228.856	494.62
1233.766	501.62
1238.672	506.62
1243.572	498.62
1248.467	497.62
1253.358	484.62
1258.244	464.62
1263.124	479.62
1268	482.62
1272.871	454.62
1277.737	448.62
1282.599	457.62
1287.455	450.62
1292.306	455.62
1297.153	435.62
1301.995	452.62
1306.832	447.62
1311.664	460.62
1316.491	447.62
1321.314	453.62
1326.132	442.62
1330.945	449.62
1335.753	426.62
1340.556	427.62
1345.354	423.62
1350.148	417.62
1354.937	406.62
1359.722	402.62
1364.501	395.62
1369.276	409.62
1374.046	408.62
1378.811	399.62
1383.572	404.62
1388.327	397.62
1393.079	393.62
1397.825	382.62
1402.567	383.62
1407.304	381.62
1412.036	381.62
1416.764	375.62
1421.487	364.62
1426.205	360.62
1430.919	378.62
1435.628	379.62
1440.333	374.62
1445.032	383.62
1449.727	385.62
1454.418	399.62
1459.104	393.62
1463.785	376.62
1468.462	392.62
1473.134	374.62
1477.802	362.62
1482.465	343.62
1487.123	366.62
1491.777	331.62
1496.426	335.62
1501.071	365.62
1505.711	349.62
1510.347	365.62
1514.978	362.62
1519.604	365.62
1524.226	362.62
1528.844	349.62
1533.457	365.62
1538.065	358.62
1542.669	354.62
1547.269	351.62
1551.864	347.62
1556.454	341.62
1561.041	347.62
1565.622	347.62
1570.199	347.62
1574.772	354.62
1579.34	349.62
1583.904	363.62
1588.464	368.62
1593.019	369.62
1597.569	350.62
1602.115	354.62
1606.657	350.62
1611.195	373.62
1615.728	369.62
1620.256	339.62
1624.78	323.62
1629.3	341.62
1633.816	348.62
1638.327	349.62
1642.834	358.62
1647.336	353.62
1651.834	358.62
1656.328	359.62
1660.817	357.62
1665.302	348.62
1669.783	342.62
1674.259	336.62
1678.732	329.62
1683.199	322.62
1687.663	310.62
1692.122	321.62
1696.577	311.62
1701.028	309.62
1705.474	293.62
1709.917	288.62
1714.355	290.62
1718.788	284.62
1723.218	272.62
1727.643	257.62
1732.064	268.62
1736.481	256.62
1740.893	263.62
1745.301	253.62
1749.705	216.62
1754.105	240.62
1758.501	229.62
1762.893	239.62
1767.28	214.62
1771.663	228.62
1776.042	217.62
1780.417	217.62
1784.787	227.62
1789.154	227.62
1793.516	222.62
1797.874	218.62
1802.228	209.62
1806.578	204.62
1810.924	216.62
1815.266	106.62
1819.603	220.62
1823.937	206.62
1828.266	209.62
1832.591	200.62
1836.913	204.62
1841.23	193.62
1845.543	195.62
1849.852	202.62
1854.156	199.62
1858.457	203.62
1862.754	190.62
1867.047	199.62
1871.335	209.62
1875.62	214.62
1879.9	207.62
1884.177	196.62
1888.449	199.62
1892.718	202.62
1896.982	202.62
1901.243	189.62
1905.499	194.62
1909.752	192.62
1914	172.62
1918.245	187.62
1922.485	199.62
1926.722	189.62
1930.954	180.62
1935.183	198.62
1939.408	193.62
1943.628	191.62
1947.845	187.62
1952.058	189.62
1956.267	174.62
1960.472	196.62
1964.673	183.62
1968.87	184.62
1973.063	173.62
1977.252	173.62
1981.438	168.62
1985.619	166.62
1989.797	155.62
1993.971	164.62
1998.14	172.62
2002.306	159.62
2006.469	173.62
2010.627	158.62
2014.781	160.62
2018.932	150.62
2023.078	176.62
2027.221	170.62
2031.36	157.62
2035.495	154.62
2039.627	162.62
2043.754	162.62
2047.878	147.62
2051.998	151.62
2056.114	152.62
2060.226	148.62
2064.334	152.62
2068.439	163.62
2072.54	156.62
2076.637	142.62
2080.73	151.62
2084.82	152.62
2088.906	147.62
2092.988	146.62
2097.066	150.62
2101.14	154.62
2105.211	157.62
2109.278	147.62
2113.342	139.62
2117.401	128.62
2121.457	129.62
2125.509	132.62
2129.558	137.62
2133.602	135.62
2137.643	134.62
2141.681	134.62
2145.714	132.62
2149.744	139.62
2153.77	134.62
2157.793	122.62
2161.812	104.62
2165.827	102.62
2169.838	126.62
2173.846	121.62
2177.851	122.62
2181.851	126.62
2185.848	118.62
2189.841	121.62
2193.831	109.62
2197.817	119.62
2201.799	121.62
2205.778	91.62
2209.753	99.62
2213.725	99.62
2217.693	103.62
2221.657	96.62
2225.618	109.62
2229.575	102.62
2233.529	109.62
2237.479	108.62
2241.425	94.62
2245.368	88.62
2249.307	101.62
2253.243	94.62
2257.175	99.62
2261.104	83.62
2265.029	91.62
2268.95	94.62
2272.868	89.62
2276.783	83.62
2280.694	90.62
2284.601	82.62
2288.505	88.62
2292.405	93.62
2296.302	71.62
2300.195	76.62
2304.085	50.62
2307.971	83.62
2311.854	57.62
2315.734	78.62
2319.609	82.62
2323.482	60.62
2327.351	68.62
2331.216	68.62
2335.078	74.62
2338.937	73.62
2342.792	62.62
2346.643	57.62
2350.492	75.62
2354.336	60.62
2358.178	68.62
2362.015	67.62
2365.85	66.62
2369.681	65.62
2373.508	62.62
2377.333	70.62
2381.153	63.62
2384.971	57.62
2388.785	67.62
2392.595	53.62
2396.402	51.62
2400.206	36.62
2404.007	50.62
2407.804	54.62
2411.597	59.62
2415.388	48.62
2419.174	53.62
2422.958	56.62
2426.738	55.62
2430.515	62.62
2434.289	47.62
2438.059	43.62
2441.825	55.62
2445.589	61.62
2449.349	40.62
2453.106	56.62
2456.859	49.62
2460.61	52.62
2464.356	42.62
2468.1	42.62
2471.84	36.62
2475.577	37.62
2479.311	37.62
2483.041	39.62
2486.768	49.62
2490.492	55.62
2494.213	48.62
2497.93	33.62
2501.644	29.62
2505.355	37.62
2509.062	41.62
2512.766	37.62
2516.467	32.62
2520.165	42.62
2523.859	27.62
2527.551	58.62
2531.239	27.62
2534.923	39.62
2538.605	35.62
2542.283	38.62
2545.958	37.62
2549.63	46.62
2553.299	47.62
2556.964	28.62
2560.626	34.62
2564.285	37.62
2567.941	20.62
2571.594	25.62
2575.243	41.62
2578.89	32.62
2582.533	28.62
2586.173	35.62
2589.809	39.62
2593.443	8.62
2597.073	29.62
2600.701	36.62
2604.325	25.62
2607.946	22.62
2611.564	35.62
2615.178	36.62
2618.79	24.62
2622.398	23.62
2626.004	32.62
2629.606	26.62
2633.205	17.62
2636.801	28.62
2640.394	24.62
2643.983	26.62
2647.57	23.62
2651.153	11.62
2654.734	34.62
2658.311	4.62
2661.885	9.62
2665.456	13.62
2669.025	17.62
2672.589	8.62
2676.151	29.62
2679.71	32.62
2683.266	17.62
2686.819	19.62
2690.368	19.62
2693.915	27.62
2697.458	20.62
2700.999	27.62
2704.536	29.62
2708.071	22.62
2711.602	21.62
2715.13	24.62
2718.656	-2.38
2722.178	18.62
2725.697	6.62
2729.214	10.62
2732.727	18.62
2736.237	5.62
2739.744	6.62
2743.249	5.62
2746.75	12.62
2750.248	6.62
2753.743	10.62
2757.236	11.62
2760.725	16.62
2764.211	-9.38
2767.695	8.62
2771.175	12.62
2774.652	15.62
2778.127	10.62
2781.598	11.62
2785.067	6.62
2788.532	-0.38
2791.995	9.62
2795.455	4.62
2798.911	18.62
2802.365	6.62
2805.816	9.62
2809.264	19.62
2812.709	8.62
2816.151	11.62
2819.59	-2.38
2823.026	6.62
2826.46	10.62
2829.89	24.62
2833.318	-8.38
2836.742	9.62
2840.164	13.62
2843.583	11.62
2846.999	9.62
2850.412	11.62
2853.822	6.62
2857.229	21.62
2860.634	16.62
2864.035	0.62
2867.434	20.62
2870.83	15.62
2874.223	2.62
2877.613	8.62
2881	-1.38
2884.385	4.62
2887.766	4.62
2891.145	8.62
2894.521	10.62
2897.894	-2.38
2901.264	17.62
2904.631	12.62
2907.996	17.62
2911.358	17.62
2914.717	16.62
2918.073	15.62
2921.426	10.62
2924.777	0.62
2928.124	12.62
2931.469	23.62
2934.811	8.62
2938.15	30.62
2941.487	22.62
2944.821	34.62
2948.152	16.62
2951.48	28.62
2954.805	7.62
2958.128	34.62
2961.447	17.62
2964.765	34.62
2968.079	23.62
2971.39	25.62
2974.699	26.62
2978.005	23.62
2981.308	18.62
2984.609	14.62
2987.907	30.62
2991.202	27.62
2994.494	18.62
2997.784	25.62
3001.07	26.62
3004.355	26.62
3007.636	31.62
3010.915	26.62
3014.191	18.62
3017.464	30.62
3020.734	25.62
3024.002	35.62
3027.267	28.62
3030.53	35.62
3033.789	33.62
3037.046	32.62
3040.301	24.62
3043.552	33.62
3046.801	36.62
3050.048	44.62
3053.291	58.62
3056.532	45.62
3059.771	29.62
3063.006	51.62
3066.239	42.62
3069.469	49.62
3072.697	41.62
3075.922	36.62
3079.144	34.62
3082.364	70.62
3085.581	46.62
3088.795	70.62
3092.007	66.62
3095.216	72.62
3098.423	60.62
3101.627	44.62
3104.828	65.62
3108.026	60.62
3111.222	84.62
3114.416	84.62
3117.607	76.62
3120.795	76.62
3123.98	73.62
3127.163	68.62
3130.344	74.62
3133.521	77.62
3136.696	92.62
3139.869	88.62
3143.039	70.62
3146.206	114.62
3149.371	96.62
3152.533	100.62
3155.693	91.62
3158.85	100.62
3162.005	103.62
3165.157	97.62
3168.306	94.62
3171.453	107.62
3174.597	89.62
3177.739	84.62
3180.878	102.62
3184.014	111.62
3187.149	102.62
3190.28	99.62
3193.409	107.62
3196.536	107.62
3199.659	107.62
3202.781	105.62
3205.9	91.62
3209.016	103.62
3212.13	101.62
3215.241	92.62
3218.35	101.62
3221.456	93.62
3224.56	84.62
3227.661	100.62
3230.76	90.62
3233.856	93.62
3236.95	101.62
3240.041	87.62
3243.13	92.62
3246.216	94.62
3249.3	97.62
3252.382	98.62
3255.46	84.62
3258.537	39.62
3261.611	79.62
3264.682	87.62
3267.751	84.62
3270.818	80.62
3273.882	94.62
3276.943	83.62
3280.002	95.62
3283.059	85.62
3286.113	84.62
3289.165	77.62
3292.214	71.62
3295.261	91.62
3298.306	65.62
3301.348	75.62
3304.387	63.62
3307.425	74.62
3310.459	67.62
3313.492	82.62
3316.521	70.62
3319.549	78.62
3322.574	76.62
3325.597	66.62
3328.617	68.62
3331.635	69.62
3334.65	53.62
3337.663	67.62
3340.674	61.62
3343.682	71.62
3346.688	75.62
3349.691	66.62
3352.692	61.62
3355.691	67.62
3358.687	64.62
3361.681	61.62
3364.673	60.62
3367.662	62.62
3370.649	69.62
3373.633	47.62
3376.615	67.62
3379.595	45.62
3382.572	52.62
3385.547	46.62
3388.52	43.62
3391.49	53.62
3394.458	47.62
3397.424	53.62
3400.387	44.62
3403.348	49.62
3406.307	49.62
3409.263	47.62
3412.217	56.62
3415.168	52.62
3418.118	58.62
3421.065	45.62
3424.009	53.62
3426.951	44.62
3429.891	43.62
3432.829	45.62
3435.764	46.62
3438.697	37.62
3441.628	52.62
3444.557	26.62
3447.483	30.62
3450.407	34.62
3453.328	31.62
3456.247	28.62
3459.164	21.62
3462.079	37.62
3464.991	31.62
3467.902	21.62
3470.809	25.62
3473.715	31.62
3476.618	19.62
3479.519	23.62
3482.418	-0.38
3485.315	7.62
3488.209	12.62
3491.101	9.62
3493.99	7.62
3496.878	0.62
3499.763	6.62
3502.646	7.62
3505.527	1.62
3508.405	2.62
3511.281	-12.38
3514.155	3.62
3517.027	-0.38
3519.897	-13.38
3522.764	2.62
3525.629	-20.38
3528.492	-2.38
3531.352	-3.38
3534.211	-3.38
3537.067	-9.38
3539.921	-3.38
3542.773	3.62
3545.622	-13.38
3548.469	-22.38
3551.315	-23.38
3554.157	-12.38
3556.998	-20.38
3559.837	-10.38
3562.673	-7.38
3565.507	-22.38
3568.339	-19.38
3571.169	-22.38
3573.996	-12.38
3576.822	-31.38
3579.645	-33.38
3582.466	-25.38
3585.285	-15.38
3588.101	-22.38
3590.916	-28.38
3593.728	-20.38
3596.538	-26.38
3599.346	-17.38
3602.152	-29.38
3604.956	-25.38
3607.757	-23.38
3610.556	-35.38
3613.354	-21.38
3616.149	-22.38
3618.942	-26.38
3621.732	-23.38
3624.521	-28.38
3627.307	-36.38
3630.092	-33.38
3632.874	-16.38
3635.654	-28.38
3638.432	-31.38
3641.208	-31.38
3643.982	-27.38
3646.753	-18.38
3649.523	-54.38
3652.29	-32.38
3655.055	-24.38
3657.818	-24.38
3660.579	-30.38
3663.338	-39.38
3666.095	-34.38
3668.849	-54.38
3671.602	-23.38
3674.352	-43.38
3677.101	-24.38
3679.847	-23.38
3682.591	-36.38
3685.333	-47.38
3688.073	-32.38
3690.811	-43.38
3693.547	-48.38
3696.281	-47.38
3699.013	-34.38
3701.742	-37.38
3704.47	-47.38
3707.195	-31.38
3709.919	-37.38
3712.64	-34.38
3715.359	-43.38
3718.076	-26.38
3720.792	-34.38
3723.505	-30.38
3726.216	-19.38
3728.925	-35.38
3731.632	-37.38
3734.336	-35.38
3737.039	-27.38
3739.74	-32.38
3742.439	-56.38
3745.136	-24.38
3747.83	-29.38
3750.523	-29.38
3753.213	-89.38
3755.902	-34.38
3758.589	-48.38
3761.273	-35.38
3763.956	-28.38
3766.636	-45.38
3769.315	-25.38
3771.991	-32.38
3774.665	-39.38
3777.338	-35.38
3780.008	-40.38
3782.677	-38.38
3785.343	-52.38
3788.007	-53.38
3790.67	-29.38
3793.33	-44.38
3795.989	-40.38
3798.645	-35.38
3801.299	-48.38
3803.952	-42.38
3806.602	-41.38
3809.251	-34.38
3811.897	-39.38
3814.542	-39.38
3817.184	-37.38
3819.825	-40.38
3822.463	-47.38
3825.1	-42.38
3827.735	-38.38
3830.367	-45.38
3832.998	-21.38
3835.627	-39.38
3838.253	-29.38
3840.878	-39.38
3843.501	-17.38
3846.122	-26.38
3848.741	-27.38
3851.358	-24.38
3853.973	-44.38
3856.586	-20.38
3859.197	-38.38
3861.806	-35.38
3864.414	-48.38
3867.019	-32.38
3869.622	-27.38
3872.224	-27.38
3874.823	-21.38
3877.421	2.62
3880.016	8.62
3882.61	45.62
3885.202	51.62
3887.792	34.62
3890.38	11.62
3892.966	-22.38
3895.55	-41.38
3898.132	-26.38
3900.713	-31.38
3903.291	-33.38
3905.868	-46.38
3908.442	-34.38
3911.015	-38.38
3913.586	-39.38
3916.155	-41.38
3918.722	-41.38
3921.287	-47.38
3923.85	-48.38
3926.411	-42.38
3928.971	-43.38
3931.528	-30.38
3934.084	-42.38
3936.638	-44.38
3939.19	-30.38
3941.74	-30.38
3944.288	-39.38
3946.834	-36.38
3949.378	-28.38
3951.921	-41.38
3954.462	-34.38
3957	-31.38
3959.537	-22.38
3962.072	-38.38
3964.606	-47.38
3967.137	-38.38
3969.667	-39.38
3972.194	-30.38
3974.72	-38.38
3977.244	-65.38
3979.766	-47.38
3982.286	-45.38
3984.805	-35.38
3987.321	-27.38
3989.836	-36.38
3992.349	-48.38
3994.86	-38.38
3997.369	-46.38
3999.877	-33.38
4002.382	-44.38
4004.886	-32.38
4007.388	-34.38
4009.888	-24.38
4012.386	-33.38
4014.883	-33.38
4017.377	-32.38
4019.87	-31.38
4022.361	-43.38
4024.85	-37.38
4027.338	-33.38
4029.823	-37.38
4032.307	-35.38
4034.789	-33.38
4037.269	-33.38
4039.747	-45.38
4042.224	-25.38
4044.699	-44.38
4047.172	-38.38
4049.643	-31.38
4052.112	-63.38
4054.58	-37.38
4057.046	-49.38
4059.51	-37.38
4061.972	-39.38
4064.432	-54.38
4066.891	-24.38
4069.348	-37.38
4071.803	-34.38
4074.256	-43.38
4076.708	-36.38
4079.158	-38.38
4081.606	-27.38
4084.052	-40.38
4086.497	-33.38
4088.939	-35.38
4091.38	-41.38
4093.819	-24.38
4096.257	1.62
4098.693	-7.38
4101.127	-6.38
4103.559	-1.38
4105.989	57.62
4108.418	60.62
4110.845	49.62
4113.27	51.62
4115.694	58.62
4118.115	38.62
4120.535	-32.38
4122.954	-31.38
4125.37	-24.38
4127.785	-26.38
4130.198	-25.38
4132.609	-32.38
4135.019	9.62
4137.427	1.62
4139.833	5.62
4142.237	-3.38
