Data from 2018-3-6_conc=4_n=10_RamanShift_01.txt Node
Date: Tue Mar 06 14:18:48 GMT+02:00 2018
User: LAB3
Spectrometer: QEPB0276
Trigger mode: 0
Integration Time (sec): 3.000000E1
Scans to average: 1
Electric dark correction enabled: true
Nonlinearity correction enabled: false
Boxcar width: 0
XAxis mode: Raman Shifts
Number of Pixels in Spectrum: 1044
>>>>>Begin Spectral Data<<<<<
160.701	78.25
166.742	101.25
172.777	143.25
178.805	285.25
184.826	632.25
190.841	1256.25
196.849	1960.25
202.85	2475.25
208.845	2613.25
214.833	2583.25
220.815	2532.25
226.789	2526.25
232.758	2495.25
238.719	2471.25
244.674	2446.25
250.623	2411.25
256.565	2386.25
262.5	2331.25
268.429	2307.25
274.351	2261.25
280.267	2276.25
286.176	2244.25
292.079	2262.25
297.975	2265.25
303.865	2237.25
309.748	2242.25
315.625	2238.25
321.495	2235.25
327.359	2227.25
333.217	2234.25
339.068	2238.25
344.912	2245.25
350.751	2241.25
356.583	2249.25
362.408	2260.25
368.227	2278.25
374.04	2260.25
379.847	2284.25
385.647	2303.25
391.44	2264.25
397.228	2298.25
403.009	2323.25
408.784	2298.25
414.553	2318.25
420.315	2342.25
426.071	2315.25
431.821	2346.25
437.565	2315.25
443.302	2305.25
449.033	2303.25
454.758	2314.25
460.477	2273.25
466.189	2253.25
471.896	2234.25
477.596	2215.25
483.29	2201.25
488.978	2199.25
494.66	2181.25
500.335	2097.25
506.005	2007.25
511.668	1922.25
517.325	1800.25
522.977	1736.25
528.622	1661.25
534.261	1646.25
539.894	1597.25
545.521	1581.25
551.141	1549.25
556.756	1541.25
562.365	1502.25
567.968	1511.25
573.565	1482.25
579.155	1489.25
584.74	1469.25
590.319	1470.25
595.892	1500.25
601.459	1487.25
607.02	1472.25
612.575	1443.25
618.124	1443.25
623.667	1408.25
629.204	1406.25
634.735	1369.25
640.261	1366.25
645.781	1326.25
651.294	1320.25
656.802	1332.25
662.304	1343.25
667.8	1330.25
673.29	1317.25
678.775	1316.25
684.254	1314.25
689.726	1279.25
695.193	1300.25
700.655	1287.25
706.11	1277.25
711.56	1272.25
717.004	1267.25
722.442	1252.25
727.874	1255.25
733.301	1262.25
738.722	1230.25
744.137	1240.25
749.547	1223.25
754.951	1244.25
760.349	1246.25
765.741	1251.25
771.128	1255.25
776.509	1270.25
781.885	1315.25
787.254	1304.25
792.618	1313.25
797.977	1320.25
803.33	1302.25
808.677	1283.25
814.019	1271.25
819.355	1273.25
824.686	1244.25
830.011	1241.25
835.33	1259.25
840.644	1250.25
845.952	1206.25
851.255	1225.25
856.552	1198.25
861.844	1181.25
867.13	1164.25
872.41	1155.25
877.686	1162.25
882.955	1151.25
888.219	1128.25
893.478	1105.25
898.731	1105.25
903.979	1089.25
909.221	1057.25
914.458	1054.25
919.69	1068.25
924.916	1081.25
930.136	1072.25
935.351	1070.25
940.561	1083.25
945.766	1081.25
950.965	1075.25
956.158	1061.25
961.347	1045.25
966.529	1022.25
971.707	1023.25
976.879	1006.25
982.046	1003.25
987.208	981.25
992.364	994.25
997.515	999.25
1002.66	993.25
1007.801	997.25
1012.936	1012.25
1018.066	994.25
1023.19	1012.25
1028.309	1036.25
1033.423	1014.25
1038.532	1020.25
1043.636	1012.25
1048.734	1016.25
1053.827	991.25
1058.915	986.25
1063.998	987.25
1069.075	975.25
1074.147	998.25
1079.214	968.25
1084.276	980.25
1089.333	989.25
1094.385	997.25
1099.431	977.25
1104.472	989.25
1109.509	956.25
1114.54	945.25
1119.565	939.25
1124.586	925.25
1129.602	909.25
1134.613	886.25
1139.618	889.25
1144.619	910.25
1149.614	910.25
1154.604	896.25
1159.589	892.25
1164.57	924.25
1169.545	928.25
1174.515	932.25
1179.48	905.25
1184.44	907.25
1189.395	913.25
1194.345	883.25
1199.29	898.25
1204.23	871.25
1209.165	873.25
1214.095	885.25
1219.021	879.25
1223.941	886.25
1228.856	888.25
1233.766	903.25
1238.672	900.25
1243.572	903.25
1248.467	891.25
1253.358	882.25
1258.244	843.25
1263.124	862.25
1268	855.25
1272.871	813.25
1277.737	820.25
1282.599	804.25
1287.455	799.25
1292.306	800.25
1297.153	807.25
1301.995	819.25
1306.832	812.25
1311.664	812.25
1316.491	814.25
1321.314	816.25
1326.132	799.25
1330.945	798.25
1335.753	792.25
1340.556	771.25
1345.354	759.25
1350.148	757.25
1354.937	740.25
1359.722	716.25
1364.501	723.25
1369.276	716.25
1374.046	729.25
1378.811	708.25
1383.572	708.25
1388.327	723.25
1393.079	701.25
1397.825	705.25
1402.567	702.25
1407.304	694.25
1412.036	693.25
1416.764	693.25
1421.487	676.25
1426.205	687.25
1430.919	692.25
1435.628	684.25
1440.333	687.25
1445.032	699.25
1449.727	696.25
1454.418	706.25
1459.104	715.25
1463.785	676.25
1468.462	683.25
1473.134	665.25
1477.802	656.25
1482.465	627.25
1487.123	636.25
1491.777	616.25
1496.426	607.25
1501.071	641.25
1505.711	623.25
1510.347	641.25
1514.978	643.25
1519.604	630.25
1524.226	645.25
1528.844	623.25
1533.457	641.25
1538.065	627.25
1542.669	624.25
1547.269	621.25
1551.864	614.25
1556.454	612.25
1561.041	605.25
1565.622	616.25
1570.199	622.25
1574.772	624.25
1579.34	635.25
1583.904	635.25
1588.464	644.25
1593.019	656.25
1597.569	637.25
1602.115	643.25
1606.657	629.25
1611.195	646.25
1615.728	654.25
1620.256	631.25
1624.78	613.25
1629.3	630.25
1633.816	634.25
1638.327	627.25
1642.834	642.25
1647.336	640.25
1651.834	643.25
1656.328	654.25
1660.817	623.25
1665.302	617.25
1669.783	605.25
1674.259	598.25
1678.732	596.25
1683.199	574.25
1687.663	563.25
1692.122	550.25
1696.577	540.25
1701.028	530.25
1705.474	508.25
1709.917	502.25
1714.355	494.25
1718.788	488.25
1723.218	470.25
1727.643	464.25
1732.064	468.25
1736.481	446.25
1740.893	466.25
1745.301	447.25
1749.705	412.25
1754.105	430.25
1758.501	420.25
1762.893	420.25
1767.28	397.25
1771.663	402.25
1776.042	388.25
1780.417	384.25
1784.787	396.25
1789.154	403.25
1793.516	389.25
1797.874	389.25
1802.228	366.25
1806.578	359.25
1810.924	390.25
1815.266	269.25
1819.603	378.25
1823.937	370.25
1828.266	360.25
1832.591	373.25
1836.913	365.25
1841.23	355.25
1845.543	357.25
1849.852	363.25
1854.156	354.25
1858.457	364.25
1862.754	355.25
1867.047	362.25
1871.335	382.25
1875.62	370.25
1879.9	366.25
1884.177	346.25
1888.449	357.25
1892.718	354.25
1896.982	360.25
1901.243	328.25
1905.499	339.25
1909.752	338.25
1914	315.25
1918.245	338.25
1922.485	343.25
1926.722	336.25
1930.954	327.25
1935.183	345.25
1939.408	346.25
1943.628	341.25
1947.845	333.25
1952.058	337.25
1956.267	317.25
1960.472	326.25
1964.673	316.25
1968.87	316.25
1973.063	311.25
1977.252	302.25
1981.438	299.25
1985.619	307.25
1989.797	303.25
1993.971	297.25
1998.14	311.25
2002.306	297.25
2006.469	299.25
2010.627	283.25
2014.781	299.25
2018.932	286.25
2023.078	310.25
2027.221	300.25
2031.36	271.25
2035.495	276.25
2039.627	284.25
2043.754	284.25
2047.878	266.25
2051.998	268.25
2056.114	269.25
2060.226	275.25
2064.334	279.25
2068.439	278.25
2072.54	282.25
2076.637	269.25
2080.73	274.25
2084.82	265.25
2088.906	270.25
2092.988	263.25
2097.066	266.25
2101.14	277.25
2105.211	264.25
2109.278	260.25
2113.342	258.25
2117.401	247.25
2121.457	239.25
2125.509	237.25
2129.558	253.25
2133.602	255.25
2137.643	242.25
2141.681	242.25
2145.714	253.25
2149.744	249.25
2153.77	241.25
2157.793	230.25
2161.812	205.25
2165.827	208.25
2169.838	237.25
2173.846	218.25
2177.851	210.25
2181.851	217.25
2185.848	213.25
2189.841	214.25
2193.831	208.25
2197.817	203.25
2201.799	208.25
2205.778	195.25
2209.753	198.25
2213.725	192.25
2217.693	202.25
2221.657	188.25
2225.618	204.25
2229.575	201.25
2233.529	202.25
2237.479	205.25
2241.425	189.25
2245.368	177.25
2249.307	191.25
2253.243	180.25
2257.175	187.25
2261.104	179.25
2265.029	180.25
2268.95	181.25
2272.868	172.25
2276.783	164.25
2280.694	168.25
2284.601	171.25
2288.505	171.25
2292.405	170.25
2296.302	143.25
2300.195	155.25
2304.085	130.25
2307.971	161.25
2311.854	132.25
2315.734	150.25
2319.609	152.25
2323.482	127.25
2327.351	144.25
2331.216	141.25
2335.078	144.25
2338.937	144.25
2342.792	131.25
2346.643	133.25
2350.492	139.25
2354.336	130.25
2358.178	146.25
2362.015	138.25
2365.85	138.25
2369.681	137.25
2373.508	144.25
2377.333	146.25
2381.153	139.25
2384.971	136.25
2388.785	138.25
2392.595	123.25
2396.402	129.25
2400.206	106.25
2404.007	116.25
2407.804	129.25
2411.597	129.25
2415.388	126.25
2419.174	117.25
2422.958	129.25
2426.738	124.25
2430.515	128.25
2434.289	117.25
2438.059	114.25
2441.825	116.25
2445.589	128.25
2449.349	101.25
2453.106	112.25
2456.859	115.25
2460.61	117.25
2464.356	100.25
2468.1	105.25
2471.84	105.25
2475.577	101.25
2479.311	98.25
2483.041	103.25
2486.768	115.25
2490.492	114.25
2494.213	106.25
2497.93	95.25
2501.644	86.25
2505.355	97.25
2509.062	104.25
2512.766	101.25
2516.467	90.25
2520.165	89.25
2523.859	85.25
2527.551	113.25
2531.239	85.25
2534.923	96.25
2538.605	87.25
2542.283	95.25
2545.958	93.25
2549.63	100.25
2553.299	101.25
2556.964	81.25
2560.626	83.25
2564.285	90.25
2567.941	75.25
2571.594	79.25
2575.243	86.25
2578.89	85.25
2582.533	80.25
2586.173	84.25
2589.809	84.25
2593.443	67.25
2597.073	73.25
2600.701	85.25
2604.325	74.25
2607.946	66.25
2611.564	82.25
2615.178	78.25
2618.79	84.25
2622.398	68.25
2626.004	80.25
2629.606	74.25
2633.205	65.25
2636.801	77.25
2640.394	76.25
2643.983	72.25
2647.57	65.25
2651.153	69.25
2654.734	70.25
2658.311	44.25
2661.885	65.25
2665.456	62.25
2669.025	66.25
2672.589	56.25
2676.151	77.25
2679.71	77.25
2683.266	65.25
2686.819	52.25
2690.368	66.25
2693.915	68.25
2697.458	62.25
2700.999	65.25
2704.536	64.25
2708.071	59.25
2711.602	61.25
2715.13	53.25
2718.656	41.25
2722.178	55.25
2725.697	42.25
2729.214	49.25
2732.727	56.25
2736.237	38.25
2739.744	44.25
2743.249	38.25
2746.75	52.25
2750.248	40.25
2753.743	51.25
2757.236	47.25
2760.725	54.25
2764.211	24.25
2767.695	47.25
2771.175	47.25
2774.652	49.25
2778.127	38.25
2781.598	47.25
2785.067	48.25
2788.532	38.25
2791.995	50.25
2795.455	40.25
2798.911	48.25
2802.365	39.25
2805.816	50.25
2809.264	56.25
2812.709	37.25
2816.151	44.25
2819.59	39.25
2823.026	41.25
2826.46	37.25
2829.89	53.25
2833.318	24.25
2836.742	40.25
2840.164	44.25
2843.583	44.25
2846.999	45.25
2850.412	53.25
2853.822	39.25
2857.229	59.25
2860.634	48.25
2864.035	36.25
2867.434	49.25
2870.83	50.25
2874.223	46.25
2877.613	51.25
2881	46.25
2884.385	51.25
2887.766	48.25
2891.145	51.25
2894.521	49.25
2897.894	38.25
2901.264	57.25
2904.631	54.25
2907.996	54.25
2911.358	63.25
2914.717	57.25
2918.073	55.25
2921.426	53.25
2924.777	44.25
2928.124	54.25
2931.469	68.25
2934.811	50.25
2938.15	72.25
2941.487	60.25
2944.821	79.25
2948.152	58.25
2951.48	68.25
2954.805	49.25
2958.128	80.25
2961.447	61.25
2964.765	78.25
2968.079	61.25
2971.39	69.25
2974.699	70.25
2978.005	67.25
2981.308	74.25
2984.609	60.25
2987.907	74.25
2991.202	78.25
2994.494	70.25
2997.784	77.25
3001.07	68.25
3004.355	67.25
3007.636	75.25
3010.915	80.25
3014.191	77.25
3017.464	80.25
3020.734	78.25
3024.002	86.25
3027.267	76.25
3030.53	87.25
3033.789	87.25
3037.046	82.25
3040.301	77.25
3043.552	91.25
3046.801	92.25
3050.048	99.25
3053.291	120.25
3056.532	102.25
3059.771	85.25
3063.006	109.25
3066.239	103.25
3069.469	114.25
3072.697	105.25
3075.922	107.25
3079.144	114.25
3082.364	131.25
3085.581	115.25
3088.795	132.25
3092.007	135.25
3095.216	142.25
3098.423	130.25
3101.627	116.25
3104.828	138.25
3108.026	133.25
3111.222	155.25
3114.416	164.25
3117.607	158.25
3120.795	160.25
3123.98	162.25
3127.163	144.25
3130.344	159.25
3133.521	164.25
3136.696	177.25
3139.869	176.25
3143.039	163.25
3146.206	201.25
3149.371	191.25
3152.533	184.25
3155.693	176.25
3158.85	187.25
3162.005	196.25
3165.157	193.25
3168.306	192.25
3171.453	204.25
3174.597	194.25
3177.739	186.25
3180.878	195.25
3184.014	203.25
3187.149	199.25
3190.28	202.25
3193.409	199.25
3196.536	209.25
3199.659	205.25
3202.781	213.25
3205.9	194.25
3209.016	201.25
3212.13	198.25
3215.241	195.25
3218.35	204.25
3221.456	188.25
3224.56	193.25
3227.661	190.25
3230.76	190.25
3233.856	184.25
3236.95	191.25
3240.041	174.25
3243.13	189.25
3246.216	187.25
3249.3	184.25
3252.382	179.25
3255.46	178.25
3258.537	133.25
3261.611	163.25
3264.682	176.25
3267.751	171.25
3270.818	166.25
3273.882	179.25
3276.943	171.25
3280.002	183.25
3283.059	168.25
3286.113	179.25
3289.165	164.25
3292.214	154.25
3295.261	171.25
3298.306	150.25
3301.348	164.25
3304.387	153.25
3307.425	159.25
3310.459	152.25
3313.492	165.25
3316.521	152.25
3319.549	161.25
3322.574	160.25
3325.597	151.25
3328.617	148.25
3331.635	149.25
3334.65	134.25
3337.663	145.25
3340.674	144.25
3343.682	145.25
3346.688	150.25
3349.691	136.25
3352.692	143.25
3355.691	145.25
3358.687	140.25
3361.681	146.25
3364.673	135.25
3367.662	136.25
3370.649	140.25
3373.633	129.25
3376.615	135.25
3379.595	120.25
3382.572	122.25
3385.547	113.25
3388.52	117.25
3391.49	121.25
3394.458	121.25
3397.424	128.25
3400.387	111.25
3403.348	125.25
3406.307	112.25
3409.263	112.25
3412.217	120.25
3415.168	111.25
3418.118	118.25
3421.065	106.25
3424.009	115.25
3426.951	106.25
3429.891	97.25
3432.829	106.25
3435.764	101.25
3438.697	91.25
3441.628	103.25
3444.557	85.25
3447.483	74.25
3450.407	88.25
3453.328	78.25
3456.247	80.25
3459.164	68.25
3462.079	85.25
3464.991	75.25
3467.902	68.25
3470.809	62.25
3473.715	69.25
3476.618	61.25
3479.519	61.25
3482.418	43.25
3485.315	45.25
3488.209	43.25
3491.101	54.25
3493.99	34.25
3496.878	40.25
3499.763	43.25
3502.646	42.25
3505.527	32.25
3508.405	35.25
3511.281	21.25
3514.155	35.25
3517.027	25.25
3519.897	18.25
3522.764	28.25
3525.629	2.25
3528.492	24.25
3531.352	22.25
3534.211	19.25
3537.067	18.25
3539.921	13.25
3542.773	17.25
3545.622	3.25
3548.469	1.25
3551.315	-0.75
3554.157	4.25
3556.998	-3.75
3559.837	0.25
3562.673	-0.75
3565.507	-8.75
3568.339	-11.75
3571.169	-7.75
3573.996	-5.75
3576.822	-19.75
3579.645	-13.75
3582.466	-11.75
3585.285	-1.75
3588.101	-10.75
3590.916	-16.75
3593.728	-9.75
3596.538	-16.75
3599.346	-9.75
3602.152	-17.75
3604.956	-10.75
3607.757	-12.75
3610.556	-23.75
3613.354	-9.75
3616.149	-9.75
3618.942	-9.75
3621.732	-11.75
3624.521	-17.75
3627.307	-24.75
3630.092	-27.75
3632.874	-11.75
3635.654	-22.75
3638.432	-26.75
3641.208	-24.75
3643.982	-19.75
3646.753	-16.75
3649.523	-46.75
3652.29	-27.75
3655.055	-17.75
3657.818	-21.75
3660.579	-28.75
3663.338	-34.75
3666.095	-26.75
3668.849	-50.75
3671.602	-19.75
3674.352	-39.75
3677.101	-19.75
3679.847	-16.75
3682.591	-32.75
3685.333	-38.75
3688.073	-26.75
3690.811	-37.75
3693.547	-37.75
3696.281	-40.75
3699.013	-22.75
3701.742	-34.75
3704.47	-39.75
3707.195	-27.75
3709.919	-27.75
3712.64	-31.75
3715.359	-41.75
3718.076	-17.75
3720.792	-25.75
3723.505	-23.75
3726.216	-17.75
3728.925	-30.75
3731.632	-37.75
3734.336	-31.75
3737.039	-32.75
3739.74	-27.75
3742.439	-50.75
3745.136	-25.75
3747.83	-25.75
3750.523	-23.75
3753.213	-82.75
3755.902	-34.75
3758.589	-41.75
3761.273	-32.75
3763.956	-24.75
3766.636	-43.75
3769.315	-21.75
3771.991	-28.75
3774.665	-32.75
3777.338	-34.75
3780.008	-42.75
3782.677	-31.75
3785.343	-44.75
3788.007	-53.75
3790.67	-30.75
3793.33	-45.75
3795.989	-35.75
3798.645	-25.75
3801.299	-42.75
3803.952	-39.75
3806.602	-32.75
3809.251	-24.75
3811.897	-32.75
3814.542	-36.75
3817.184	-41.75
3819.825	-34.75
3822.463	-44.75
3825.1	-34.75
3827.735	-27.75
3830.367	-41.75
3832.998	-20.75
3835.627	-37.75
3838.253	-22.75
3840.878	-32.75
3843.501	-18.75
3846.122	-30.75
3848.741	-22.75
3851.358	-25.75
3853.973	-41.75
3856.586	-23.75
3859.197	-39.75
3861.806	-28.75
3864.414	-44.75
3867.019	-36.75
3869.622	-24.75
3872.224	-18.75
3874.823	-9.75
3877.421	19.25
3880.016	38.25
3882.61	78.25
3885.202	84.25
3887.792	55.25
3890.38	26.25
3892.966	-8.75
3895.55	-31.75
3898.132	-18.75
3900.713	-23.75
3903.291	-24.75
3905.868	-38.75
3908.442	-30.75
3911.015	-29.75
3913.586	-36.75
3916.155	-30.75
3918.722	-41.75
3921.287	-32.75
3923.85	-47.75
3926.411	-33.75
3928.971	-39.75
3931.528	-30.75
3934.084	-33.75
3936.638	-41.75
3939.19	-32.75
3941.74	-29.75
3944.288	-40.75
3946.834	-35.75
3949.378	-19.75
3951.921	-37.75
3954.462	-37.75
3957	-30.75
3959.537	-20.75
3962.072	-31.75
3964.606	-41.75
3967.137	-33.75
3969.667	-36.75
3972.194	-29.75
3974.72	-34.75
3977.244	-54.75
3979.766	-38.75
3982.286	-41.75
3984.805	-33.75
3987.321	-22.75
3989.836	-25.75
3992.349	-40.75
3994.86	-35.75
3997.369	-40.75
3999.877	-33.75
4002.382	-32.75
4004.886	-28.75
4007.388	-29.75
4009.888	-20.75
4012.386	-29.75
4014.883	-30.75
4017.377	-29.75
4019.87	-30.75
4022.361	-38.75
4024.85	-31.75
4027.338	-32.75
4029.823	-40.75
4032.307	-32.75
4034.789	-33.75
4037.269	-31.75
4039.747	-43.75
4042.224	-24.75
4044.699	-41.75
4047.172	-35.75
4049.643	-28.75
4052.112	-54.75
4054.58	-29.75
4057.046	-45.75
4059.51	-31.75
4061.972	-33.75
4064.432	-49.75
4066.891	-22.75
4069.348	-33.75
4071.803	-33.75
4074.256	-37.75
4076.708	-26.75
4079.158	-30.75
4081.606	-19.75
4084.052	-32.75
4086.497	-26.75
4088.939	-30.75
4091.38	-36.75
4093.819	-27.75
4096.257	1.25
4098.693	-7.75
4101.127	-4.75
4103.559	0.25
4105.989	93.25
4108.418	87.25
4110.845	72.25
4113.27	81.25
4115.694	80.25
4118.115	70.25
4120.535	-31.75
4122.954	-27.75
4125.37	-21.75
4127.785	-27.75
4130.198	-20.75
4132.609	-24.75
4135.019	8.25
4137.427	0.25
4139.833	6.25
4142.237	-3.75
