Data from 2018-3-6_conc=3_n=4_RamanShift_05.txt Node
Date: Tue Mar 06 13:25:19 GMT+02:00 2018
User: LAB3
Spectrometer: QEPB0276
Trigger mode: 0
Integration Time (sec): 3.000000E1
Scans to average: 1
Electric dark correction enabled: true
Nonlinearity correction enabled: false
Boxcar width: 0
XAxis mode: Raman Shifts
Number of Pixels in Spectrum: 1044
>>>>>Begin Spectral Data<<<<<
160.701	120.75
166.742	164.75
172.777	246.75
178.805	472.75
184.826	1088.75
190.841	2193.75
196.849	3472.75
202.85	4454.75
208.845	4819.75
214.833	4804.75
220.815	4794.75
226.789	4782.75
232.758	4806.75
238.719	4806.75
244.674	4804.75
250.623	4822.75
256.565	4765.75
262.5	4723.75
268.429	4683.75
274.351	4670.75
280.267	4678.75
286.176	4680.75
292.079	4697.75
297.975	4704.75
303.865	4709.75
309.748	4722.75
315.625	4744.75
321.495	4743.75
327.359	4737.75
333.217	4787.75
339.068	4795.75
344.912	4826.75
350.751	4827.75
356.583	4844.75
362.408	4860.75
368.227	4900.75
374.04	4902.75
379.847	4946.75
385.647	4991.75
391.44	4987.75
397.228	5006.75
403.009	5044.75
408.784	5064.75
414.553	5067.75
420.315	5109.75
426.071	5101.75
431.821	5108.75
437.565	5102.75
443.302	5105.75
449.033	5078.75
454.758	5047.75
460.477	5022.75
466.189	4957.75
471.896	4912.75
477.596	4886.75
483.29	4817.75
488.978	4835.75
494.66	4806.75
500.335	4695.75
506.005	4468.75
511.668	4274.75
517.325	4037.75
522.977	3853.75
528.622	3756.75
534.261	3674.75
539.894	3581.75
545.521	3547.75
551.141	3475.75
556.756	3417.75
562.365	3413.75
567.968	3380.75
573.565	3361.75
579.155	3341.75
584.74	3312.75
590.319	3309.75
595.892	3300.75
601.459	3346.75
607.02	3297.75
612.575	3276.75
618.124	3246.75
623.667	3175.75
629.204	3155.75
634.735	3098.75
640.261	3076.75
645.781	3041.75
651.294	3030.75
656.802	3029.75
662.304	2989.75
667.8	3016.75
673.29	2987.75
678.775	3007.75
684.254	2961.75
689.726	2952.75
695.193	2925.75
700.655	2908.75
706.11	2904.75
711.56	2909.75
717.004	2874.75
722.442	2862.75
727.874	2841.75
733.301	2832.75
738.722	2835.75
744.137	2840.75
749.547	2824.75
754.951	2834.75
760.349	2844.75
765.741	2858.75
771.128	2841.75
776.509	2890.75
781.885	2955.75
787.254	2959.75
792.618	2965.75
797.977	2976.75
803.33	2963.75
808.677	2942.75
814.019	2925.75
819.355	2891.75
824.686	2860.75
830.011	2849.75
835.33	2845.75
840.644	2808.75
845.952	2764.75
851.255	2796.75
856.552	2748.75
861.844	2717.75
867.13	2658.75
872.41	2643.75
877.686	2632.75
882.955	2607.75
888.219	2599.75
893.478	2546.75
898.731	2517.75
903.979	2502.75
909.221	2449.75
914.458	2450.75
919.69	2461.75
924.916	2459.75
930.136	2463.75
935.351	2447.75
940.561	2443.75
945.766	2447.75
950.965	2437.75
956.158	2405.75
961.347	2367.75
966.529	2367.75
971.707	2340.75
976.879	2304.75
982.046	2274.75
987.208	2255.75
992.364	2279.75
997.515	2267.75
1002.66	2299.75
1007.801	2309.75
1012.936	2325.75
1018.066	2330.75
1023.19	2349.75
1028.309	2358.75
1033.423	2362.75
1038.532	2352.75
1043.636	2349.75
1048.734	2336.75
1053.827	2302.75
1058.915	2279.75
1063.998	2261.75
1069.075	2244.75
1074.147	2272.75
1079.214	2250.75
1084.276	2286.75
1089.333	2281.75
1094.385	2286.75
1099.431	2268.75
1104.472	2265.75
1109.509	2239.75
1114.54	2208.75
1119.565	2182.75
1124.586	2148.75
1129.602	2104.75
1134.613	2093.75
1139.618	2087.75
1144.619	2092.75
1149.614	2115.75
1154.604	2080.75
1159.589	2095.75
1164.57	2120.75
1169.545	2132.75
1174.515	2123.75
1179.48	2095.75
1184.44	2084.75
1189.395	2089.75
1194.345	2058.75
1199.29	2059.75
1204.23	2044.75
1209.165	2031.75
1214.095	2050.75
1219.021	2050.75
1223.941	2069.75
1228.856	2076.75
1233.766	2096.75
1238.672	2087.75
1243.572	2079.75
1248.467	2058.75
1253.358	2035.75
1258.244	1984.75
1263.124	1984.75
1268	1958.75
1272.871	1902.75
1277.737	1903.75
1282.599	1888.75
1287.455	1884.75
1292.306	1880.75
1297.153	1885.75
1301.995	1900.75
1306.832	1900.75
1311.664	1906.75
1316.491	1910.75
1321.314	1899.75
1326.132	1889.75
1330.945	1868.75
1335.753	1834.75
1340.556	1793.75
1345.354	1766.75
1350.148	1753.75
1354.937	1744.75
1359.722	1715.75
1364.501	1729.75
1369.276	1717.75
1374.046	1716.75
1378.811	1681.75
1383.572	1689.75
1388.327	1687.75
1393.079	1669.75
1397.825	1656.75
1402.567	1652.75
1407.304	1635.75
1412.036	1611.75
1416.764	1619.75
1421.487	1591.75
1426.205	1608.75
1430.919	1617.75
1435.628	1620.75
1440.333	1609.75
1445.032	1658.75
1449.727	1649.75
1454.418	1665.75
1459.104	1675.75
1463.785	1628.75
1468.462	1620.75
1473.134	1599.75
1477.802	1562.75
1482.465	1529.75
1487.123	1537.75
1491.777	1503.75
1496.426	1495.75
1501.071	1529.75
1505.711	1514.75
1510.347	1535.75
1514.978	1546.75
1519.604	1544.75
1524.226	1547.75
1528.844	1530.75
1533.457	1522.75
1538.065	1520.75
1542.669	1509.75
1547.269	1514.75
1551.864	1477.75
1556.454	1455.75
1561.041	1470.75
1565.622	1464.75
1570.199	1477.75
1574.772	1485.75
1579.34	1506.75
1583.904	1527.75
1588.464	1519.75
1593.019	1532.75
1597.569	1527.75
1602.115	1511.75
1606.657	1509.75
1611.195	1523.75
1615.728	1503.75
1620.256	1505.75
1624.78	1484.75
1629.3	1505.75
1633.816	1494.75
1638.327	1492.75
1642.834	1537.75
1647.336	1523.75
1651.834	1542.75
1656.328	1548.75
1660.817	1536.75
1665.302	1514.75
1669.783	1485.75
1674.259	1448.75
1678.732	1426.75
1683.199	1408.75
1687.663	1362.75
1692.122	1352.75
1696.577	1311.75
1701.028	1293.75
1705.474	1268.75
1709.917	1242.75
1714.355	1230.75
1718.788	1223.75
1723.218	1185.75
1727.643	1175.75
1732.064	1176.75
1736.481	1152.75
1740.893	1136.75
1745.301	1122.75
1749.705	1065.75
1754.105	1075.75
1758.501	1053.75
1762.893	1041.75
1767.28	1004.75
1771.663	1012.75
1776.042	990.75
1780.417	993.75
1784.787	982.75
1789.154	1003.75
1793.516	1013.75
1797.874	987.75
1802.228	979.75
1806.578	983.75
1810.924	977.75
1815.266	871.75
1819.603	968.75
1823.937	948.75
1828.266	933.75
1832.591	932.75
1836.913	932.75
1841.23	914.75
1845.543	903.75
1849.852	913.75
1854.156	908.75
1858.457	895.75
1862.754	898.75
1867.047	898.75
1871.335	931.75
1875.62	911.75
1879.9	914.75
1884.177	905.75
1888.449	915.75
1892.718	910.75
1896.982	901.75
1901.243	875.75
1905.499	887.75
1909.752	892.75
1914	855.75
1918.245	892.75
1922.485	902.75
1926.722	883.75
1930.954	891.75
1935.183	892.75
1939.408	894.75
1943.628	895.75
1947.845	887.75
1952.058	885.75
1956.267	852.75
1960.472	848.75
1964.673	840.75
1968.87	822.75
1973.063	801.75
1977.252	814.75
1981.438	774.75
1985.619	782.75
1989.797	766.75
1993.971	783.75
1998.14	771.75
2002.306	768.75
2006.469	779.75
2010.627	749.75
2014.781	769.75
2018.932	749.75
2023.078	758.75
2027.221	745.75
2031.36	734.75
2035.495	742.75
2039.627	725.75
2043.754	712.75
2047.878	701.75
2051.998	708.75
2056.114	701.75
2060.226	713.75
2064.334	714.75
2068.439	717.75
2072.54	730.75
2076.637	701.75
2080.73	719.75
2084.82	717.75
2088.906	709.75
2092.988	719.75
2097.066	725.75
2101.14	722.75
2105.211	695.75
2109.278	680.75
2113.342	679.75
2117.401	668.75
2121.457	660.75
2125.509	656.75
2129.558	661.75
2133.602	646.75
2137.643	636.75
2141.681	641.75
2145.714	643.75
2149.744	640.75
2153.77	629.75
2157.793	619.75
2161.812	585.75
2165.827	584.75
2169.838	608.75
2173.846	592.75
2177.851	562.75
2181.851	579.75
2185.848	551.75
2189.841	565.75
2193.831	552.75
2197.817	549.75
2201.799	550.75
2205.778	527.75
2209.753	527.75
2213.725	524.75
2217.693	536.75
2221.657	524.75
2225.618	530.75
2229.575	522.75
2233.529	511.75
2237.479	518.75
2241.425	506.75
2245.368	498.75
2249.307	481.75
2253.243	483.75
2257.175	475.75
2261.104	467.75
2265.029	472.75
2268.95	462.75
2272.868	447.75
2276.783	436.75
2280.694	452.75
2284.601	446.75
2288.505	438.75
2292.405	443.75
2296.302	407.75
2300.195	414.75
2304.085	385.75
2307.971	411.75
2311.854	381.75
2315.734	397.75
2319.609	387.75
2323.482	372.75
2327.351	379.75
2331.216	371.75
2335.078	375.75
2338.937	370.75
2342.792	358.75
2346.643	362.75
2350.492	363.75
2354.336	363.75
2358.178	369.75
2362.015	369.75
2365.85	359.75
2369.681	365.75
2373.508	369.75
2377.333	371.75
2381.153	371.75
2384.971	355.75
2388.785	356.75
2392.595	347.75
2396.402	352.75
2400.206	320.75
2404.007	336.75
2407.804	334.75
2411.597	341.75
2415.388	342.75
2419.174	337.75
2422.958	338.75
2426.738	335.75
2430.515	338.75
2434.289	310.75
2438.059	322.75
2441.825	331.75
2445.589	336.75
2449.349	302.75
2453.106	317.75
2456.859	315.75
2460.61	321.75
2464.356	298.75
2468.1	301.75
2471.84	293.75
2475.577	286.75
2479.311	285.75
2483.041	296.75
2486.768	301.75
2490.492	308.75
2494.213	292.75
2497.93	283.75
2501.644	279.75
2505.355	291.75
2509.062	290.75
2512.766	283.75
2516.467	285.75
2520.165	283.75
2523.859	266.75
2527.551	302.75
2531.239	282.75
2534.923	277.75
2538.605	267.75
2542.283	265.75
2545.958	280.75
2549.63	283.75
2553.299	283.75
2556.964	268.75
2560.626	264.75
2564.285	270.75
2567.941	255.75
2571.594	255.75
2575.243	263.75
2578.89	255.75
2582.533	258.75
2586.173	249.75
2589.809	255.75
2593.443	224.75
2597.073	242.75
2600.701	248.75
2604.325	243.75
2607.946	230.75
2611.564	253.75
2615.178	238.75
2618.79	234.75
2622.398	228.75
2626.004	238.75
2629.606	230.75
2633.205	213.75
2636.801	223.75
2640.394	225.75
2643.983	217.75
2647.57	218.75
2651.153	197.75
2654.734	220.75
2658.311	191.75
2661.885	201.75
2665.456	207.75
2669.025	200.75
2672.589	199.75
2676.151	212.75
2679.71	212.75
2683.266	193.75
2686.819	198.75
2690.368	195.75
2693.915	206.75
2697.458	193.75
2700.999	189.75
2704.536	193.75
2708.071	183.75
2711.602	186.75
2715.13	182.75
2718.656	161.75
2722.178	180.75
2725.697	162.75
2729.214	169.75
2732.727	177.75
2736.237	164.75
2739.744	167.75
2743.249	162.75
2746.75	172.75
2750.248	166.75
2753.743	172.75
2757.236	175.75
2760.725	169.75
2764.211	147.75
2767.695	167.75
2771.175	164.75
2774.652	174.75
2778.127	166.75
2781.598	162.75
2785.067	170.75
2788.532	154.75
2791.995	174.75
2795.455	159.75
2798.911	178.75
2802.365	156.75
2805.816	162.75
2809.264	178.75
2812.709	161.75
2816.151	169.75
2819.59	148.75
2823.026	161.75
2826.46	158.75
2829.89	176.75
2833.318	145.75
2836.742	158.75
2840.164	157.75
2843.583	163.75
2846.999	158.75
2850.412	164.75
2853.822	159.75
2857.229	181.75
2860.634	175.75
2864.035	158.75
2867.434	181.75
2870.83	182.75
2874.223	175.75
2877.613	183.75
2881	171.75
2884.385	172.75
2887.766	181.75
2891.145	180.75
2894.521	186.75
2897.894	171.75
2901.264	194.75
2904.631	180.75
2907.996	186.75
2911.358	198.75
2914.717	183.75
2918.073	186.75
2921.426	189.75
2924.777	176.75
2928.124	189.75
2931.469	207.75
2934.811	194.75
2938.15	220.75
2941.487	207.75
2944.821	223.75
2948.152	205.75
2951.48	217.75
2954.805	191.75
2958.128	221.75
2961.447	203.75
2964.765	213.75
2968.079	214.75
2971.39	219.75
2974.699	224.75
2978.005	219.75
2981.308	225.75
2984.609	208.75
2987.907	229.75
2991.202	231.75
2994.494	213.75
2997.784	229.75
3001.07	228.75
3004.355	222.75
3007.636	234.75
3010.915	239.75
3014.191	232.75
3017.464	244.75
3020.734	244.75
3024.002	240.75
3027.267	241.75
3030.53	248.75
3033.789	249.75
3037.046	248.75
3040.301	246.75
3043.552	258.75
3046.801	273.75
3050.048	274.75
3053.291	295.75
3056.532	280.75
3059.771	279.75
3063.006	307.75
3066.239	311.75
3069.469	314.75
3072.697	303.75
3075.922	315.75
3079.144	326.75
3082.364	347.75
3085.581	330.75
3088.795	365.75
3092.007	367.75
3095.216	369.75
3098.423	371.75
3101.627	362.75
3104.828	387.75
3108.026	389.75
3111.222	417.75
3114.416	420.75
3117.607	418.75
3120.795	424.75
3123.98	442.75
3127.163	431.75
3130.344	449.75
3133.521	438.75
3136.696	473.75
3139.869	469.75
3143.039	471.75
3146.206	499.75
3149.371	505.75
3152.533	498.75
3155.693	492.75
3158.85	512.75
3162.005	520.75
3165.157	518.75
3168.306	509.75
3171.453	529.75
3174.597	508.75
3177.739	509.75
3180.878	523.75
3184.014	531.75
3187.149	531.75
3190.28	533.75
3193.409	524.75
3196.536	534.75
3199.659	533.75
3202.781	545.75
3205.9	527.75
3209.016	537.75
3212.13	536.75
3215.241	539.75
3218.35	522.75
3221.456	525.75
3224.56	519.75
3227.661	514.75
3230.76	512.75
3233.856	504.75
3236.95	501.75
3240.041	492.75
3243.13	500.75
3246.216	493.75
3249.3	500.75
3252.382	497.75
3255.46	483.75
3258.537	442.75
3261.611	483.75
3264.682	491.75
3267.751	483.75
3270.818	472.75
3273.882	490.75
3276.943	470.75
3280.002	488.75
3283.059	460.75
3286.113	469.75
3289.165	449.75
3292.214	447.75
3295.261	446.75
3298.306	439.75
3301.348	433.75
3304.387	414.75
3307.425	431.75
3310.459	417.75
3313.492	422.75
3316.521	416.75
3319.549	410.75
3322.574	410.75
3325.597	402.75
3328.617	393.75
3331.635	398.75
3334.65	383.75
3337.663	389.75
3340.674	396.75
3343.682	393.75
3346.688	396.75
3349.691	392.75
3352.692	390.75
3355.691	386.75
3358.687	386.75
3361.681	391.75
3364.673	367.75
3367.662	388.75
3370.649	379.75
3373.633	361.75
3376.615	371.75
3379.595	351.75
3382.572	350.75
3385.547	349.75
3388.52	345.75
3391.49	338.75
3394.458	333.75
3397.424	340.75
3400.387	318.75
3403.348	325.75
3406.307	327.75
3409.263	321.75
3412.217	329.75
3415.168	320.75
3418.118	323.75
3421.065	304.75
3424.009	311.75
3426.951	299.75
3429.891	299.75
3432.829	285.75
3435.764	293.75
3438.697	282.75
3441.628	291.75
3444.557	260.75
3447.483	258.75
3450.407	266.75
3453.328	249.75
3456.247	235.75
3459.164	236.75
3462.079	252.75
3464.991	234.75
3467.902	214.75
3470.809	212.75
3473.715	217.75
3476.618	202.75
3479.519	202.75
3482.418	176.75
3485.315	179.75
3488.209	174.75
3491.101	175.75
3493.99	156.75
3496.878	160.75
3499.763	171.75
3502.646	163.75
3505.527	151.75
3508.405	143.75
3511.281	133.75
3514.155	134.75
3517.027	127.75
3519.897	122.75
3522.764	119.75
3525.629	103.75
3528.492	113.75
3531.352	109.75
3534.211	107.75
3537.067	97.75
3539.921	95.75
3542.773	100.75
3545.622	80.75
3548.469	74.75
3551.315	64.75
3554.157	73.75
3556.998	62.75
3559.837	62.75
3562.673	67.75
3565.507	58.75
3568.339	49.75
3571.169	51.75
3573.996	46.75
3576.822	32.75
3579.645	39.75
3582.466	41.75
3585.285	44.75
3588.101	38.75
3590.916	30.75
3593.728	43.75
3596.538	31.75
3599.346	31.75
3602.152	19.75
3604.956	25.75
3607.757	24.75
3610.556	10.75
3613.354	25.75
3616.149	22.75
3618.942	23.75
3621.732	20.75
3624.521	13.75
3627.307	4.75
3630.092	0.75
3632.874	21.75
3635.654	8.75
3638.432	3.75
3641.208	-4.25
3643.982	4.75
3646.753	4.75
3649.523	-22.25
3652.29	-1.25
3655.055	0.75
3657.818	2.75
3660.579	-5.25
3663.338	-10.25
3666.095	-8.25
3668.849	-36.25
3671.602	-5.25
3674.352	-16.25
3677.101	-2.25
3679.847	-3.25
3682.591	-15.25
3685.333	-23.25
3688.073	-8.25
3690.811	-24.25
3693.547	-34.25
3696.281	-27.25
3699.013	-18.25
3701.742	-20.25
3704.47	-27.25
3707.195	-16.25
3709.919	-16.25
3712.64	-21.25
3715.359	-33.25
3718.076	-12.25
3720.792	-21.25
3723.505	-18.25
3726.216	-12.25
3728.925	-19.25
3731.632	-30.25
3734.336	-21.25
3737.039	-22.25
3739.74	-17.25
3742.439	-49.25
3745.136	-14.25
3747.83	-19.25
3750.523	-21.25
3753.213	-91.25
3755.902	-29.25
3758.589	-38.25
3761.273	-27.25
3763.956	-20.25
3766.636	-40.25
3769.315	-15.25
3771.991	-27.25
3774.665	-31.25
3777.338	-25.25
3780.008	-38.25
3782.677	-29.25
3785.343	-45.25
3788.007	-49.25
3790.67	-20.25
3793.33	-34.25
3795.989	-32.25
3798.645	-27.25
3801.299	-44.25
3803.952	-42.25
3806.602	-31.25
3809.251	-24.25
3811.897	-35.25
3814.542	-29.25
3817.184	-30.25
3819.825	-28.25
3822.463	-43.25
3825.1	-29.25
3827.735	-26.25
3830.367	-38.25
3832.998	-15.25
3835.627	-33.25
3838.253	-20.25
3840.878	-33.25
3843.501	-11.25
3846.122	-28.25
3848.741	-27.25
3851.358	-22.25
3853.973	-44.25
3856.586	-21.25
3859.197	-39.25
3861.806	-32.25
3864.414	-44.25
3867.019	-29.25
3869.622	-19.25
3872.224	-17.25
3874.823	-1.25
3877.421	16.75
3880.016	32.75
3882.61	70.75
3885.202	85.75
3887.792	63.75
3890.38	33.75
3892.966	-6.25
3895.55	-33.25
3898.132	-17.25
3900.713	-19.25
3903.291	-29.25
3905.868	-36.25
3908.442	-26.25
3911.015	-28.25
3913.586	-29.25
3916.155	-35.25
3918.722	-38.25
3921.287	-38.25
3923.85	-48.25
3926.411	-38.25
3928.971	-36.25
3931.528	-29.25
3934.084	-41.25
3936.638	-43.25
3939.19	-29.25
3941.74	-32.25
3944.288	-35.25
3946.834	-28.25
3949.378	-21.25
3951.921	-39.25
3954.462	-33.25
3957	-30.25
3959.537	-17.25
3962.072	-27.25
3964.606	-46.25
3967.137	-39.25
3969.667	-36.25
3972.194	-27.25
3974.72	-36.25
3977.244	-60.25
3979.766	-35.25
3982.286	-36.25
3984.805	-31.25
3987.321	-18.25
3989.836	-28.25
3992.349	-35.25
3994.86	-31.25
3997.369	-39.25
3999.877	-32.25
4002.382	-32.25
4004.886	-23.25
4007.388	-27.25
4009.888	-23.25
4012.386	-23.25
4014.883	-26.25
4017.377	-26.25
4019.87	-23.25
4022.361	-39.25
4024.85	-27.25
4027.338	-30.25
4029.823	-35.25
4032.307	-30.25
4034.789	-30.25
4037.269	-30.25
4039.747	-42.25
4042.224	-25.25
4044.699	-38.25
4047.172	-31.25
4049.643	-22.25
4052.112	-57.25
4054.58	-28.25
4057.046	-38.25
4059.51	-27.25
4061.972	-32.25
4064.432	-52.25
4066.891	-21.25
4069.348	-29.25
4071.803	-29.25
4074.256	-33.25
4076.708	-24.25
4079.158	-28.25
4081.606	-19.25
4084.052	-30.25
4086.497	-23.25
4088.939	-30.25
4091.38	-32.25
4093.819	-26.25
4096.257	1.75
4098.693	-6.25
4101.127	-5.25
4103.559	-0.25
4105.989	121.75
4108.418	115.75
4110.845	104.75
4113.27	117.75
4115.694	120.75
4118.115	106.75
4120.535	-22.25
4122.954	-20.25
4125.37	-18.25
4127.785	-28.25
4130.198	-16.25
4132.609	-28.25
4135.019	6.75
4137.427	2.75
4139.833	5.75
4142.237	-5.25
