Data from 2018-3-6_conc=4_n=4_RamanShift_01.txt Node
Date: Tue Mar 06 13:59:19 GMT+02:00 2018
User: LAB3
Spectrometer: QEPB0276
Trigger mode: 0
Integration Time (sec): 3.000000E1
Scans to average: 1
Electric dark correction enabled: true
Nonlinearity correction enabled: false
Boxcar width: 0
XAxis mode: Raman Shifts
Number of Pixels in Spectrum: 1044
>>>>>Begin Spectral Data<<<<<
160.701	100.25
166.742	132.25
172.777	182.25
178.805	358.25
184.826	797.25
190.841	1587.25
196.849	2498.25
202.85	3155.25
208.845	3396.25
214.833	3380.25
220.815	3330.25
226.789	3319.25
232.758	3314.25
238.719	3304.25
244.674	3296.25
250.623	3239.25
256.565	3210.25
262.5	3191.25
268.429	3154.25
274.351	3115.25
280.267	3119.25
286.176	3125.25
292.079	3118.25
297.975	3133.25
303.865	3126.25
309.748	3104.25
315.625	3123.25
321.495	3116.25
327.359	3102.25
333.217	3136.25
339.068	3144.25
344.912	3145.25
350.751	3168.25
356.583	3162.25
362.408	3177.25
368.227	3178.25
374.04	3202.25
379.847	3226.25
385.647	3218.25
391.44	3221.25
397.228	3268.25
403.009	3258.25
408.784	3253.25
414.553	3307.25
420.315	3350.25
426.071	3297.25
431.821	3290.25
437.565	3290.25
443.302	3299.25
449.033	3257.25
454.758	3278.25
460.477	3211.25
466.189	3211.25
471.896	3163.25
477.596	3141.25
483.29	3133.25
488.978	3129.25
494.66	3083.25
500.335	3025.25
506.005	2866.25
511.668	2752.25
517.325	2595.25
522.977	2511.25
528.622	2416.25
534.261	2366.25
539.894	2312.25
545.521	2291.25
551.141	2231.25
556.756	2223.25
562.365	2197.25
567.968	2190.25
573.565	2173.25
579.155	2160.25
584.74	2142.25
590.319	2162.25
595.892	2139.25
601.459	2158.25
607.02	2118.25
612.575	2135.25
618.124	2098.25
623.667	2071.25
629.204	2047.25
634.735	2003.25
640.261	1985.25
645.781	1950.25
651.294	1960.25
656.802	1930.25
662.304	1954.25
667.8	1951.25
673.29	1919.25
678.775	1927.25
684.254	1924.25
689.726	1898.25
695.193	1915.25
700.655	1888.25
706.11	1882.25
711.56	1869.25
717.004	1869.25
722.442	1834.25
727.874	1838.25
733.301	1848.25
738.722	1812.25
744.137	1841.25
749.547	1824.25
754.951	1828.25
760.349	1820.25
765.741	1846.25
771.128	1860.25
776.509	1855.25
781.885	1902.25
787.254	1916.25
792.618	1926.25
797.977	1902.25
803.33	1894.25
808.677	1884.25
814.019	1887.25
819.355	1860.25
824.686	1841.25
830.011	1815.25
835.33	1845.25
840.644	1815.25
845.952	1791.25
851.255	1806.25
856.552	1761.25
861.844	1754.25
867.13	1734.25
872.41	1699.25
877.686	1722.25
882.955	1691.25
888.219	1658.25
893.478	1635.25
898.731	1617.25
903.979	1612.25
909.221	1592.25
914.458	1563.25
919.69	1582.25
924.916	1580.25
930.136	1600.25
935.351	1578.25
940.561	1588.25
945.766	1602.25
950.965	1590.25
956.158	1553.25
961.347	1548.25
966.529	1513.25
971.707	1515.25
976.879	1492.25
982.046	1480.25
987.208	1466.25
992.364	1475.25
997.515	1460.25
1002.66	1492.25
1007.801	1488.25
1012.936	1501.25
1018.066	1484.25
1023.19	1507.25
1028.309	1528.25
1033.423	1533.25
1038.532	1517.25
1043.636	1505.25
1048.734	1501.25
1053.827	1469.25
1058.915	1465.25
1063.998	1449.25
1069.075	1443.25
1074.147	1463.25
1079.214	1429.25
1084.276	1454.25
1089.333	1457.25
1094.385	1455.25
1099.431	1449.25
1104.472	1455.25
1109.509	1428.25
1114.54	1420.25
1119.565	1391.25
1124.586	1373.25
1129.602	1350.25
1134.613	1341.25
1139.618	1333.25
1144.619	1341.25
1149.614	1352.25
1154.604	1340.25
1159.589	1346.25
1164.57	1371.25
1169.545	1367.25
1174.515	1363.25
1179.48	1350.25
1184.44	1347.25
1189.395	1338.25
1194.345	1302.25
1199.29	1308.25
1204.23	1312.25
1209.165	1294.25
1214.095	1325.25
1219.021	1318.25
1223.941	1320.25
1228.856	1329.25
1233.766	1333.25
1238.672	1335.25
1243.572	1334.25
1248.467	1312.25
1253.358	1295.25
1258.244	1273.25
1263.124	1299.25
1268	1252.25
1272.871	1206.25
1277.737	1223.25
1282.599	1212.25
1287.455	1204.25
1292.306	1219.25
1297.153	1204.25
1301.995	1209.25
1306.832	1207.25
1311.664	1216.25
1316.491	1215.25
1321.314	1215.25
1326.132	1195.25
1330.945	1182.25
1335.753	1165.25
1340.556	1156.25
1345.354	1123.25
1350.148	1119.25
1354.937	1099.25
1359.722	1073.25
1364.501	1071.25
1369.276	1087.25
1374.046	1071.25
1378.811	1062.25
1383.572	1063.25
1388.327	1055.25
1393.079	1038.25
1397.825	1047.25
1402.567	1028.25
1407.304	1047.25
1412.036	1040.25
1416.764	1022.25
1421.487	1011.25
1426.205	1019.25
1430.919	1015.25
1435.628	1022.25
1440.333	1016.25
1445.032	1032.25
1449.727	1054.25
1454.418	1065.25
1459.104	1045.25
1463.785	1015.25
1468.462	1017.25
1473.134	1003.25
1477.802	981.25
1482.465	932.25
1487.123	954.25
1491.777	918.25
1496.426	926.25
1501.071	949.25
1505.711	936.25
1510.347	958.25
1514.978	958.25
1519.604	947.25
1524.226	960.25
1528.844	936.25
1533.457	958.25
1538.065	946.25
1542.669	941.25
1547.269	932.25
1551.864	923.25
1556.454	915.25
1561.041	916.25
1565.622	918.25
1570.199	939.25
1574.772	938.25
1579.34	954.25
1583.904	950.25
1588.464	966.25
1593.019	971.25
1597.569	948.25
1602.115	956.25
1606.657	948.25
1611.195	951.25
1615.728	957.25
1620.256	935.25
1624.78	923.25
1629.3	934.25
1633.816	938.25
1638.327	940.25
1642.834	941.25
1647.336	946.25
1651.834	962.25
1656.328	950.25
1660.817	942.25
1665.302	940.25
1669.783	922.25
1674.259	900.25
1678.732	881.25
1683.199	870.25
1687.663	828.25
1692.122	816.25
1696.577	807.25
1701.028	786.25
1705.474	764.25
1709.917	754.25
1714.355	754.25
1718.788	735.25
1723.218	714.25
1727.643	713.25
1732.064	717.25
1736.481	694.25
1740.893	704.25
1745.301	684.25
1749.705	636.25
1754.105	641.25
1758.501	639.25
1762.893	640.25
1767.28	600.25
1771.663	612.25
1776.042	595.25
1780.417	591.25
1784.787	592.25
1789.154	599.25
1793.516	611.25
1797.874	586.25
1802.228	574.25
1806.578	570.25
1810.924	581.25
1815.266	466.25
1819.603	567.25
1823.937	574.25
1828.266	553.25
1832.591	567.25
1836.913	556.25
1841.23	540.25
1845.543	543.25
1849.852	554.25
1854.156	550.25
1858.457	538.25
1862.754	548.25
1867.047	560.25
1871.335	568.25
1875.62	552.25
1879.9	544.25
1884.177	535.25
1888.449	542.25
1892.718	536.25
1896.982	544.25
1901.243	518.25
1905.499	522.25
1909.752	509.25
1914	493.25
1918.245	523.25
1922.485	514.25
1926.722	504.25
1930.954	498.25
1935.183	513.25
1939.408	518.25
1943.628	512.25
1947.845	511.25
1952.058	505.25
1956.267	498.25
1960.472	506.25
1964.673	490.25
1968.87	479.25
1973.063	478.25
1977.252	470.25
1981.438	460.25
1985.619	459.25
1989.797	442.25
1993.971	450.25
1998.14	458.25
2002.306	459.25
2006.469	463.25
2010.627	441.25
2014.781	440.25
2018.932	440.25
2023.078	448.25
2027.221	450.25
2031.36	428.25
2035.495	431.25
2039.627	424.25
2043.754	428.25
2047.878	413.25
2051.998	414.25
2056.114	411.25
2060.226	418.25
2064.334	417.25
2068.439	424.25
2072.54	425.25
2076.637	400.25
2080.73	401.25
2084.82	412.25
2088.906	404.25
2092.988	400.25
2097.066	404.25
2101.14	411.25
2105.211	411.25
2109.278	398.25
2113.342	389.25
2117.401	382.25
2121.457	376.25
2125.509	376.25
2129.558	378.25
2133.602	365.25
2137.643	372.25
2141.681	373.25
2145.714	380.25
2149.744	368.25
2153.77	361.25
2157.793	357.25
2161.812	333.25
2165.827	331.25
2169.838	349.25
2173.846	339.25
2177.851	328.25
2181.851	353.25
2185.848	321.25
2189.841	334.25
2193.831	326.25
2197.817	324.25
2201.799	321.25
2205.778	305.25
2209.753	309.25
2213.725	300.25
2217.693	320.25
2221.657	299.25
2225.618	310.25
2229.575	307.25
2233.529	302.25
2237.479	314.25
2241.425	283.25
2245.368	281.25
2249.307	289.25
2253.243	288.25
2257.175	279.25
2261.104	272.25
2265.029	283.25
2268.95	266.25
2272.868	263.25
2276.783	254.25
2280.694	265.25
2284.601	259.25
2288.505	257.25
2292.405	265.25
2296.302	235.25
2300.195	241.25
2304.085	214.25
2307.971	235.25
2311.854	217.25
2315.734	230.25
2319.609	242.25
2323.482	206.25
2327.351	221.25
2331.216	223.25
2335.078	224.25
2338.937	224.25
2342.792	210.25
2346.643	212.25
2350.492	221.25
2354.336	216.25
2358.178	215.25
2362.015	221.25
2365.85	216.25
2369.681	222.25
2373.508	225.25
2377.333	221.25
2381.153	215.25
2384.971	211.25
2388.785	212.25
2392.595	194.25
2396.402	199.25
2400.206	178.25
2404.007	190.25
2407.804	202.25
2411.597	208.25
2415.388	195.25
2419.174	195.25
2422.958	192.25
2426.738	195.25
2430.515	205.25
2434.289	190.25
2438.059	186.25
2441.825	198.25
2445.589	196.25
2449.349	171.25
2453.106	194.25
2456.859	183.25
2460.61	186.25
2464.356	171.25
2468.1	174.25
2471.84	171.25
2475.577	171.25
2479.311	173.25
2483.041	165.25
2486.768	179.25
2490.492	181.25
2494.213	169.25
2497.93	161.25
2501.644	152.25
2505.355	166.25
2509.062	170.25
2512.766	154.25
2516.467	153.25
2520.165	156.25
2523.859	149.25
2527.551	183.25
2531.239	152.25
2534.923	162.25
2538.605	151.25
2542.283	158.25
2545.958	159.25
2549.63	162.25
2553.299	162.25
2556.964	144.25
2560.626	150.25
2564.285	152.25
2567.941	130.25
2571.594	137.25
2575.243	150.25
2578.89	143.25
2582.533	138.25
2586.173	138.25
2589.809	139.25
2593.443	117.25
2597.073	141.25
2600.701	137.25
2604.325	138.25
2607.946	125.25
2611.564	140.25
2615.178	137.25
2618.79	130.25
2622.398	126.25
2626.004	134.25
2629.606	134.25
2633.205	115.25
2636.801	133.25
2640.394	126.25
2643.983	121.25
2647.57	119.25
2651.153	112.25
2654.734	124.25
2658.311	93.25
2661.885	105.25
2665.456	118.25
2669.025	109.25
2672.589	111.25
2676.151	121.25
2679.71	127.25
2683.266	110.25
2686.819	105.25
2690.368	110.25
2693.915	113.25
2697.458	105.25
2700.999	107.25
2704.536	110.25
2708.071	103.25
2711.602	101.25
2715.13	97.25
2718.656	80.25
2722.178	96.25
2725.697	85.25
2729.214	85.25
2732.727	95.25
2736.237	80.25
2739.744	92.25
2743.249	85.25
2746.75	85.25
2750.248	86.25
2753.743	92.25
2757.236	91.25
2760.725	95.25
2764.211	65.25
2767.695	87.25
2771.175	89.25
2774.652	89.25
2778.127	83.25
2781.598	83.25
2785.067	81.25
2788.532	76.25
2791.995	85.25
2795.455	83.25
2798.911	98.25
2802.365	86.25
2805.816	90.25
2809.264	96.25
2812.709	84.25
2816.151	94.25
2819.59	78.25
2823.026	85.25
2826.46	80.25
2829.89	93.25
2833.318	66.25
2836.742	85.25
2840.164	92.25
2843.583	79.25
2846.999	84.25
2850.412	94.25
2853.822	81.25
2857.229	95.25
2860.634	92.25
2864.035	74.25
2867.434	94.25
2870.83	99.25
2874.223	92.25
2877.613	95.25
2881	92.25
2884.385	89.25
2887.766	96.25
2891.145	102.25
2894.521	94.25
2897.894	81.25
2901.264	102.25
2904.631	105.25
2907.996	102.25
2911.358	106.25
2914.717	100.25
2918.073	96.25
2921.426	101.25
2924.777	87.25
2928.124	104.25
2931.469	115.25
2934.811	95.25
2938.15	132.25
2941.487	107.25
2944.821	135.25
2948.152	118.25
2951.48	122.25
2954.805	106.25
2958.128	129.25
2961.447	113.25
2964.765	133.25
2968.079	116.25
2971.39	121.25
2974.699	121.25
2978.005	125.25
2981.308	120.25
2984.609	111.25
2987.907	125.25
2991.202	131.25
2994.494	117.25
2997.784	129.25
3001.07	126.25
3004.355	123.25
3007.636	135.25
3010.915	126.25
3014.191	128.25
3017.464	135.25
3020.734	134.25
3024.002	136.25
3027.267	135.25
3030.53	139.25
3033.789	140.25
3037.046	143.25
3040.301	133.25
3043.552	144.25
3046.801	143.25
3050.048	163.25
3053.291	183.25
3056.532	171.25
3059.771	149.25
3063.006	171.25
3066.239	169.25
3069.469	181.25
3072.697	184.25
3075.922	185.25
3079.144	187.25
3082.364	213.25
3085.581	193.25
3088.795	224.25
3092.007	212.25
3095.216	218.25
3098.423	217.25
3101.627	206.25
3104.828	221.25
3108.026	225.25
3111.222	235.25
3114.416	252.25
3117.607	255.25
3120.795	258.25
3123.98	263.25
3127.163	255.25
3130.344	261.25
3133.521	263.25
3136.696	292.25
3139.869	286.25
3143.039	273.25
3146.206	303.25
3149.371	305.25
3152.533	299.25
3155.693	289.25
3158.85	301.25
3162.005	305.25
3165.157	307.25
3168.306	312.25
3171.453	321.25
3174.597	310.25
3177.739	297.25
3180.878	324.25
3184.014	313.25
3187.149	320.25
3190.28	317.25
3193.409	327.25
3196.536	325.25
3199.659	327.25
3202.781	340.25
3205.9	317.25
3209.016	322.25
3212.13	319.25
3215.241	312.25
3218.35	314.25
3221.456	309.25
3224.56	295.25
3227.661	310.25
3230.76	299.25
3233.856	294.25
3236.95	297.25
3240.041	280.25
3243.13	302.25
3246.216	299.25
3249.3	296.25
3252.382	295.25
3255.46	286.25
3258.537	232.25
3261.611	285.25
3264.682	282.25
3267.751	273.25
3270.818	268.25
3273.882	285.25
3276.943	288.25
3280.002	291.25
3283.059	264.25
3286.113	268.25
3289.165	260.25
3292.214	260.25
3295.261	275.25
3298.306	247.25
3301.348	258.25
3304.387	246.25
3307.425	255.25
3310.459	250.25
3313.492	259.25
3316.521	246.25
3319.549	247.25
3322.574	248.25
3325.597	234.25
3328.617	237.25
3331.635	242.25
3334.65	226.25
3337.663	240.25
3340.674	231.25
3343.682	242.25
3346.688	238.25
3349.691	315.25
3352.692	238.25
3355.691	238.25
3358.687	230.25
3361.681	238.25
3364.673	226.25
3367.662	229.25
3370.649	235.25
3373.633	208.25
3376.615	221.25
3379.595	202.25
3382.572	214.25
3385.547	190.25
3388.52	202.25
3391.49	201.25
3394.458	196.25
3397.424	208.25
3400.387	190.25
3403.348	194.25
3406.307	193.25
3409.263	185.25
3412.217	192.25
3415.168	189.25
3418.118	197.25
3421.065	179.25
3424.009	187.25
3426.951	176.25
3429.891	174.25
3432.829	169.25
3435.764	169.25
3438.697	149.25
3441.628	164.25
3444.557	139.25
3447.483	140.25
3450.407	151.25
3453.328	137.25
3456.247	134.25
3459.164	134.25
3462.079	140.25
3464.991	134.25
3467.902	123.25
3470.809	120.25
3473.715	119.25
3476.618	110.25
3479.519	115.25
3482.418	94.25
3485.315	93.25
3488.209	98.25
3491.101	93.25
3493.99	81.25
3496.878	83.25
3499.763	86.25
3502.646	81.25
3505.527	78.25
3508.405	75.25
3511.281	62.25
3514.155	74.25
3517.027	67.25
3519.897	57.25
3522.764	64.25
3525.629	40.25
3528.492	56.25
3531.352	57.25
3534.211	51.25
3537.067	43.25
3539.921	45.25
3542.773	49.25
3545.622	37.25
3548.469	24.25
3551.315	20.25
3554.157	35.25
3556.998	12.25
3559.837	26.25
3562.673	24.25
3565.507	21.25
3568.339	16.25
3571.169	20.25
3573.996	19.25
3576.822	-4.75
3579.645	2.25
3582.466	7.25
3585.285	13.25
3588.101	16.25
3590.916	2.25
3593.728	9.25
3596.538	7.25
3599.346	3.25
3602.152	1.25
3604.956	2.25
3607.757	8.25
3610.556	-14.75
3613.354	3.25
3616.149	2.25
3618.942	4.25
3621.732	0.25
3624.521	-5.75
3627.307	-19.75
3630.092	-14.75
3632.874	-1.75
3635.654	-8.75
3638.432	-13.75
3641.208	-19.75
3643.982	-13.75
3646.753	-5.75
3649.523	-37.75
3652.29	-17.75
3655.055	-12.75
3657.818	-13.75
3660.579	-19.75
3663.338	-27.75
3666.095	-25.75
3668.849	-40.75
3671.602	-13.75
3674.352	-29.75
3677.101	-9.75
3679.847	-11.75
3682.591	-27.75
3685.333	-34.75
3688.073	-18.75
3690.811	-32.75
3693.547	-37.75
3696.281	-37.75
3699.013	-24.75
3701.742	-28.75
3704.47	-38.75
3707.195	-21.75
3709.919	-23.75
3712.64	-28.75
3715.359	-40.75
3718.076	-18.75
3720.792	-29.75
3723.505	-22.75
3726.216	-18.75
3728.925	-34.75
3731.632	-34.75
3734.336	-23.75
3737.039	-23.75
3739.74	-28.75
3742.439	-56.75
3745.136	-21.75
3747.83	-26.75
3750.523	-21.75
3753.213	-87.75
3755.902	-31.75
3758.589	-43.75
3761.273	-35.75
3763.956	-25.75
3766.636	-42.75
3769.315	-19.75
3771.991	-29.75
3774.665	-30.75
3777.338	-24.75
3780.008	-38.75
3782.677	-34.75
3785.343	-46.75
3788.007	-49.75
3790.67	-24.75
3793.33	-44.75
3795.989	-39.75
3798.645	-26.75
3801.299	-42.75
3803.952	-39.75
3806.602	-35.75
3809.251	-32.75
3811.897	-26.75
3814.542	-35.75
3817.184	-39.75
3819.825	-31.75
3822.463	-49.75
3825.1	-36.75
3827.735	-34.75
3830.367	-46.75
3832.998	-16.75
3835.627	-30.75
3838.253	-27.75
3840.878	-34.75
3843.501	-19.75
3846.122	-31.75
3848.741	-26.75
3851.358	-27.75
3853.973	-43.75
3856.586	-23.75
3859.197	-36.75
3861.806	-30.75
3864.414	-45.75
3867.019	-30.75
3869.622	-23.75
3872.224	-20.75
3874.823	-6.75
3877.421	20.25
3880.016	32.25
3882.61	73.25
3885.202	82.25
3887.792	59.25
3890.38	27.25
3892.966	-12.75
3895.55	-33.75
3898.132	-20.75
3900.713	-27.75
3903.291	-31.75
3905.868	-40.75
3908.442	-30.75
3911.015	-34.75
3913.586	-35.75
3916.155	-37.75
3918.722	-40.75
3921.287	-38.75
3923.85	-43.75
3926.411	-41.75
3928.971	-40.75
3931.528	-29.75
3934.084	-35.75
3936.638	-44.75
3939.19	-30.75
3941.74	-30.75
3944.288	-38.75
3946.834	-37.75
3949.378	-23.75
3951.921	-43.75
3954.462	-35.75
3957	-33.75
3959.537	-19.75
3962.072	-29.75
3964.606	-44.75
3967.137	-35.75
3969.667	-39.75
3972.194	-30.75
3974.72	-35.75
3977.244	-58.75
3979.766	-39.75
3982.286	-39.75
3984.805	-29.75
3987.321	-18.75
3989.836	-25.75
3992.349	-37.75
3994.86	-32.75
3997.369	-38.75
3999.877	-33.75
4002.382	-34.75
4004.886	-31.75
4007.388	-28.75
4009.888	-17.75
4012.386	-23.75
4014.883	-33.75
4017.377	-33.75
4019.87	-30.75
4022.361	-41.75
4024.85	-33.75
4027.338	-29.75
4029.823	-33.75
4032.307	-36.75
4034.789	-32.75
4037.269	-34.75
4039.747	-43.75
4042.224	-25.75
4044.699	-38.75
4047.172	-32.75
4049.643	-24.75
4052.112	-59.75
4054.58	-28.75
4057.046	-44.75
4059.51	-34.75
4061.972	-30.75
4064.432	-50.75
4066.891	-18.75
4069.348	-31.75
4071.803	-25.75
4074.256	-33.75
4076.708	-28.75
4079.158	-30.75
4081.606	-22.75
4084.052	-33.75
4086.497	-27.75
4088.939	-33.75
4091.38	-36.75
4093.819	-23.75
4096.257	3.25
4098.693	-4.75
4101.127	-7.75
4103.559	-0.75
4105.989	106.25
4108.418	103.25
4110.845	88.25
4113.27	101.25
4115.694	101.25
4118.115	93.25
4120.535	-27.75
4122.954	-24.75
4125.37	-20.75
4127.785	-27.75
4130.198	-19.75
4132.609	-27.75
4135.019	6.25
4137.427	0.25
4139.833	7.25
4142.237	-3.75
