Data from 2018-3-6_conc=2_n=3_RamanShift_05.txt Node
Date: Tue Mar 06 12:50:19 GMT+02:00 2018
User: LAB3
Spectrometer: QEPB0276
Trigger mode: 0
Integration Time (sec): 3.000000E1
Scans to average: 1
Electric dark correction enabled: true
Nonlinearity correction enabled: false
Boxcar width: 0
XAxis mode: Raman Shifts
Number of Pixels in Spectrum: 1044
>>>>>Begin Spectral Data<<<<<
160.701	157.12
166.742	209.12
172.777	320.12
178.805	646.12
184.826	1486.12
190.841	2953.12
196.849	4703.12
202.85	6044.12
208.845	6573.12
214.833	6590.12
220.815	6525.12
226.789	6559.12
232.758	6595.12
238.719	6577.12
244.674	6565.12
250.623	6562.12
256.565	6516.12
262.5	6446.12
268.429	6428.12
274.351	6399.12
280.267	6442.12
286.176	6443.12
292.079	6470.12
297.975	6423.12
303.865	6453.12
309.748	6491.12
315.625	6451.12
321.495	6502.12
327.359	6521.12
333.217	6542.12
339.068	6537.12
344.912	6572.12
350.751	6557.12
356.583	6632.12
362.408	6704.12
368.227	6699.12
374.04	6709.12
379.847	6794.12
385.647	6791.12
391.44	6854.12
397.228	6854.12
403.009	6912.12
408.784	6928.12
414.553	6976.12
420.315	6982.12
426.071	6998.12
431.821	6957.12
437.565	7015.12
443.302	6988.12
449.033	6926.12
454.758	6894.12
460.477	6882.12
466.189	6785.12
471.896	6721.12
477.596	6664.12
483.29	6650.12
488.978	6635.12
494.66	6568.12
500.335	6396.12
506.005	6171.12
511.668	5854.12
517.325	5548.12
522.977	5308.12
528.622	5169.12
534.261	5042.12
539.894	4952.12
545.521	4862.12
551.141	4821.12
556.756	4753.12
562.365	4731.12
567.968	4660.12
573.565	4649.12
579.155	4628.12
584.74	4589.12
590.319	4585.12
595.892	4594.12
601.459	4576.12
607.02	4570.12
612.575	4502.12
618.124	4482.12
623.667	4409.12
629.204	4351.12
634.735	4287.12
640.261	4248.12
645.781	4176.12
651.294	4196.12
656.802	4185.12
662.304	4185.12
667.8	4164.12
673.29	4149.12
678.775	4132.12
684.254	4114.12
689.726	4064.12
695.193	4079.12
700.655	4038.12
706.11	4026.12
711.56	4011.12
717.004	3968.12
722.442	3945.12
727.874	3948.12
733.301	3943.12
738.722	3911.12
744.137	3926.12
749.547	3908.12
754.951	3915.12
760.349	3911.12
765.741	3927.12
771.128	3958.12
776.509	4034.12
781.885	4069.12
787.254	4127.12
792.618	4119.12
797.977	4111.12
803.33	4092.12
808.677	4051.12
814.019	4034.12
819.355	3993.12
824.686	3945.12
830.011	3914.12
835.33	3919.12
840.644	3871.12
845.952	3851.12
851.255	3847.12
856.552	3770.12
861.844	3766.12
867.13	3738.12
872.41	3699.12
877.686	3711.12
882.955	3667.12
888.219	3629.12
893.478	3559.12
898.731	3531.12
903.979	3460.12
909.221	3408.12
914.458	3389.12
919.69	3411.12
924.916	3390.12
930.136	3421.12
935.351	3417.12
940.561	3401.12
945.766	3410.12
950.965	3395.12
956.158	3332.12
961.347	3311.12
966.529	3276.12
971.707	3259.12
976.879	3220.12
982.046	3159.12
987.208	3150.12
992.364	3155.12
997.515	3164.12
1002.66	3209.12
1007.801	3223.12
1012.936	3254.12
1018.066	3259.12
1023.19	3283.12
1028.309	3294.12
1033.423	3282.12
1038.532	3274.12
1043.636	3281.12
1048.734	3261.12
1053.827	3207.12
1058.915	3195.12
1063.998	3165.12
1069.075	3151.12
1074.147	3130.12
1079.214	3143.12
1084.276	3159.12
1089.333	3172.12
1094.385	3181.12
1099.431	3163.12
1104.472	3154.12
1109.509	3116.12
1114.54	3062.12
1119.565	3013.12
1124.586	2980.12
1129.602	2942.12
1134.613	2896.12
1139.618	2912.12
1144.619	2904.12
1149.614	2898.12
1154.604	2910.12
1159.589	2910.12
1164.57	2948.12
1169.545	2953.12
1174.515	2928.12
1179.48	2904.12
1184.44	2906.12
1189.395	2894.12
1194.345	2848.12
1199.29	2840.12
1204.23	2825.12
1209.165	2860.12
1214.095	2855.12
1219.021	2881.12
1223.941	2866.12
1228.856	2886.12
1233.766	2887.12
1238.672	2892.12
1243.572	2877.12
1248.467	2879.12
1253.358	2847.12
1258.244	2742.12
1263.124	2751.12
1268	2735.12
1272.871	2663.12
1277.737	2608.12
1282.599	2611.12
1287.455	2639.12
1292.306	2631.12
1297.153	2612.12
1301.995	2632.12
1306.832	2636.12
1311.664	2682.12
1316.491	2680.12
1321.314	2675.12
1326.132	2626.12
1330.945	2599.12
1335.753	2559.12
1340.556	2502.12
1345.354	2465.12
1350.148	2444.12
1354.937	2414.12
1359.722	2387.12
1364.501	2378.12
1369.276	2379.12
1374.046	2362.12
1378.811	2337.12
1383.572	2345.12
1388.327	2343.12
1393.079	2305.12
1397.825	2301.12
1402.567	2282.12
1407.304	2264.12
1412.036	2263.12
1416.764	2256.12
1421.487	2236.12
1426.205	2251.12
1430.919	2252.12
1435.628	2281.12
1440.333	2272.12
1445.032	2314.12
1449.727	2326.12
1454.418	2349.12
1459.104	2340.12
1463.785	2293.12
1468.462	2262.12
1473.134	2235.12
1477.802	2192.12
1482.465	2164.12
1487.123	2162.12
1491.777	2121.12
1496.426	2108.12
1501.071	2145.12
1505.711	2131.12
1510.347	2164.12
1514.978	2152.12
1519.604	2153.12
1524.226	2186.12
1528.844	2128.12
1533.457	2137.12
1538.065	2125.12
1542.669	2099.12
1547.269	2087.12
1551.864	2083.12
1556.454	2056.12
1561.041	2044.12
1565.622	2060.12
1570.199	2056.12
1574.772	2069.12
1579.34	2100.12
1583.904	2118.12
1588.464	2138.12
1593.019	2144.12
1597.569	2119.12
1602.115	2100.12
1606.657	2110.12
1611.195	2114.12
1615.728	2105.12
1620.256	2066.12
1624.78	2070.12
1629.3	2080.12
1633.816	2110.12
1638.327	2091.12
1642.834	2110.12
1647.336	2117.12
1651.834	2133.12
1656.328	2148.12
1660.817	2139.12
1665.302	2129.12
1669.783	2104.12
1674.259	2066.12
1678.732	2023.12
1683.199	1995.12
1687.663	1929.12
1692.122	1886.12
1696.577	1856.12
1701.028	1827.12
1705.474	1799.12
1709.917	1763.12
1714.355	1734.12
1718.788	1739.12
1723.218	1717.12
1727.643	1674.12
1732.064	1657.12
1736.481	1623.12
1740.893	1611.12
1745.301	1561.12
1749.705	1508.12
1754.105	1503.12
1758.501	1481.12
1762.893	1464.12
1767.28	1419.12
1771.663	1420.12
1776.042	1397.12
1780.417	1407.12
1784.787	1405.12
1789.154	1423.12
1793.516	1413.12
1797.874	1409.12
1802.228	1415.12
1806.578	1398.12
1810.924	1387.12
1815.266	1293.12
1819.603	1367.12
1823.937	1323.12
1828.266	1326.12
1832.591	1293.12
1836.913	1304.12
1841.23	1274.12
1845.543	1283.12
1849.852	1290.12
1854.156	1272.12
1858.457	1277.12
1862.754	1268.12
1867.047	1284.12
1871.335	1293.12
1875.62	1297.12
1879.9	1295.12
1884.177	1296.12
1888.449	1286.12
1892.718	1279.12
1896.982	1282.12
1901.243	1252.12
1905.499	1258.12
1909.752	1247.12
1914	1242.12
1918.245	1251.12
1922.485	1275.12
1926.722	1278.12
1930.954	1262.12
1935.183	1291.12
1939.408	1282.12
1943.628	1283.12
1947.845	1268.12
1952.058	1254.12
1956.267	1224.12
1960.472	1220.12
1964.673	1188.12
1968.87	1162.12
1973.063	1142.12
1977.252	1124.12
1981.438	1121.12
1985.619	1099.12
1989.797	1072.12
1993.971	1081.12
1998.14	1093.12
2002.306	1078.12
2006.469	1078.12
2010.627	1066.12
2014.781	1065.12
2018.932	1052.12
2023.078	1065.12
2027.221	1053.12
2031.36	1027.12
2035.495	1021.12
2039.627	1014.12
2043.754	1003.12
2047.878	997.12
2051.998	992.12
2056.114	1011.12
2060.226	1005.12
2064.334	1001.12
2068.439	1012.12
2072.54	1030.12
2076.637	1001.12
2080.73	1025.12
2084.82	999.12
2088.906	1023.12
2092.988	1014.12
2097.066	1021.12
2101.14	1007.12
2105.211	998.12
2109.278	979.12
2113.342	962.12
2117.401	938.12
2121.457	944.12
2125.509	928.12
2129.558	925.12
2133.602	915.12
2137.643	910.12
2141.681	906.12
2145.714	902.12
2149.744	908.12
2153.77	892.12
2157.793	870.12
2161.812	841.12
2165.827	829.12
2169.838	843.12
2173.846	817.12
2177.851	814.12
2181.851	809.12
2185.848	798.12
2189.841	780.12
2193.831	779.12
2197.817	765.12
2201.799	771.12
2205.778	750.12
2209.753	749.12
2213.725	750.12
2217.693	750.12
2221.657	737.12
2225.618	756.12
2229.575	739.12
2233.529	716.12
2237.479	726.12
2241.425	708.12
2245.368	698.12
2249.307	694.12
2253.243	669.12
2257.175	685.12
2261.104	651.12
2265.029	659.12
2268.95	639.12
2272.868	639.12
2276.783	616.12
2280.694	623.12
2284.601	607.12
2288.505	595.12
2292.405	606.12
2296.302	591.12
2300.195	585.12
2304.085	554.12
2307.971	574.12
2311.854	554.12
2315.734	551.12
2319.609	552.12
2323.482	509.12
2327.351	531.12
2331.216	527.12
2335.078	528.12
2338.937	517.12
2342.792	513.12
2346.643	507.12
2350.492	513.12
2354.336	512.12
2358.178	518.12
2362.015	523.12
2365.85	507.12
2369.681	503.12
2373.508	509.12
2377.333	515.12
2381.153	509.12
2384.971	502.12
2388.785	507.12
2392.595	492.12
2396.402	492.12
2400.206	466.12
2404.007	477.12
2407.804	481.12
2411.597	490.12
2415.388	475.12
2419.174	476.12
2422.958	480.12
2426.738	474.12
2430.515	481.12
2434.289	461.12
2438.059	460.12
2441.825	460.12
2445.589	470.12
2449.349	447.12
2453.106	447.12
2456.859	451.12
2460.61	447.12
2464.356	431.12
2468.1	426.12
2471.84	418.12
2475.577	421.12
2479.311	422.12
2483.041	415.12
2486.768	429.12
2490.492	435.12
2494.213	424.12
2497.93	406.12
2501.644	403.12
2505.355	415.12
2509.062	419.12
2512.766	412.12
2516.467	401.12
2520.165	412.12
2523.859	394.12
2527.551	423.12
2531.239	390.12
2534.923	404.12
2538.605	386.12
2542.283	395.12
2545.958	392.12
2549.63	404.12
2553.299	407.12
2556.964	386.12
2560.626	388.12
2564.285	397.12
2567.941	368.12
2571.594	369.12
2575.243	388.12
2578.89	369.12
2582.533	368.12
2586.173	368.12
2589.809	364.12
2593.443	340.12
2597.073	355.12
2600.701	357.12
2604.325	351.12
2607.946	333.12
2611.564	359.12
2615.178	347.12
2618.79	345.12
2622.398	335.12
2626.004	341.12
2629.606	323.12
2633.205	319.12
2636.801	331.12
2640.394	324.12
2643.983	311.12
2647.57	313.12
2651.153	312.12
2654.734	307.12
2658.311	287.12
2661.885	290.12
2665.456	298.12
2669.025	292.12
2672.589	289.12
2676.151	297.12
2679.71	297.12
2683.266	286.12
2686.819	281.12
2690.368	281.12
2693.915	278.12
2697.458	273.12
2700.999	280.12
2704.536	270.12
2708.071	265.12
2711.602	264.12
2715.13	263.12
2718.656	240.12
2722.178	267.12
2725.697	238.12
2729.214	249.12
2732.727	254.12
2736.237	243.12
2739.744	250.12
2743.249	243.12
2746.75	248.12
2750.248	252.12
2753.743	250.12
2757.236	249.12
2760.725	259.12
2764.211	229.12
2767.695	253.12
2771.175	254.12
2774.652	253.12
2778.127	240.12
2781.598	233.12
2785.067	239.12
2788.532	232.12
2791.995	246.12
2795.455	237.12
2798.911	254.12
2802.365	235.12
2805.816	248.12
2809.264	259.12
2812.709	236.12
2816.151	242.12
2819.59	234.12
2823.026	242.12
2826.46	239.12
2829.89	253.12
2833.318	230.12
2836.742	241.12
2840.164	254.12
2843.583	250.12
2846.999	254.12
2850.412	258.12
2853.822	250.12
2857.229	260.12
2860.634	271.12
2864.035	252.12
2867.434	275.12
2870.83	279.12
2874.223	281.12
2877.613	282.12
2881	274.12
2884.385	284.12
2887.766	289.12
2891.145	294.12
2894.521	276.12
2897.894	268.12
2901.264	292.12
2904.631	284.12
2907.996	295.12
2911.358	296.12
2914.717	291.12
2918.073	281.12
2921.426	285.12
2924.777	285.12
2928.124	294.12
2931.469	321.12
2934.811	309.12
2938.15	336.12
2941.487	321.12
2944.821	343.12
2948.152	320.12
2951.48	337.12
2954.805	309.12
2958.128	332.12
2961.447	311.12
2964.765	335.12
2968.079	321.12
2971.39	320.12
2974.699	326.12
2978.005	335.12
2981.308	338.12
2984.609	330.12
2987.907	344.12
2991.202	353.12
2994.494	330.12
2997.784	340.12
3001.07	344.12
3004.355	343.12
3007.636	346.12
3010.915	356.12
3014.191	348.12
3017.464	357.12
3020.734	355.12
3024.002	348.12
3027.267	353.12
3030.53	355.12
3033.789	351.12
3037.046	370.12
3040.301	351.12
3043.552	376.12
3046.801	381.12
3050.048	388.12
3053.291	419.12
3056.532	417.12
3059.771	398.12
3063.006	436.12
3066.239	434.12
3069.469	458.12
3072.697	452.12
3075.922	468.12
3079.144	471.12
3082.364	506.12
3085.581	497.12
3088.795	524.12
3092.007	507.12
3095.216	524.12
3098.423	536.12
3101.627	529.12
3104.828	557.12
3108.026	558.12
3111.222	594.12
3114.416	610.12
3117.607	611.12
3120.795	615.12
3123.98	644.12
3127.163	636.12
3130.344	655.12
3133.521	667.12
3136.696	690.12
3139.869	698.12
3143.039	695.12
3146.206	721.12
3149.371	734.12
3152.533	724.12
3155.693	716.12
3158.85	742.12
3162.005	756.12
3165.157	745.12
3168.306	742.12
3171.453	759.12
3174.597	751.12
3177.739	735.12
3180.878	755.12
3184.014	752.12
3187.149	753.12
3190.28	763.12
3193.409	759.12
3196.536	753.12
3199.659	769.12
3202.781	779.12
3205.9	756.12
3209.016	756.12
3212.13	770.12
3215.241	765.12
3218.35	761.12
3221.456	735.12
3224.56	741.12
3227.661	748.12
3230.76	740.12
3233.856	729.12
3236.95	729.12
3240.041	716.12
3243.13	719.12
3246.216	717.12
3249.3	715.12
3252.382	703.12
3255.46	716.12
3258.537	649.12
3261.611	703.12
3264.682	709.12
3267.751	707.12
3270.818	699.12
3273.882	709.12
3276.943	689.12
3280.002	692.12
3283.059	672.12
3286.113	672.12
3289.165	666.12
3292.214	644.12
3295.261	651.12
3298.306	615.12
3301.348	632.12
3304.387	611.12
3307.425	613.12
3310.459	601.12
3313.492	600.12
3316.521	595.12
3319.549	603.12
3322.574	600.12
3325.597	586.12
3328.617	578.12
3331.635	565.12
3334.65	555.12
3337.663	560.12
3340.674	561.12
3343.682	562.12
3346.688	569.12
3349.691	547.12
3352.692	557.12
3355.691	553.12
3358.687	560.12
3361.681	562.12
3364.673	552.12
3367.662	551.12
3370.649	546.12
3373.633	520.12
3376.615	524.12
3379.595	504.12
3382.572	507.12
3385.547	499.12
3388.52	487.12
3391.49	491.12
3394.458	484.12
3397.424	485.12
3400.387	472.12
3403.348	474.12
3406.307	471.12
3409.263	464.12
3412.217	480.12
3415.168	452.12
3418.118	459.12
3421.065	453.12
3424.009	459.12
3426.951	431.12
3429.891	439.12
3432.829	420.12
3435.764	422.12
3438.697	406.12
3441.628	415.12
3444.557	384.12
3447.483	373.12
3450.407	382.12
3453.328	366.12
3456.247	354.12
3459.164	340.12
3462.079	344.12
3464.991	342.12
3467.902	328.12
3470.809	315.12
3473.715	320.12
3476.618	297.12
3479.519	291.12
3482.418	268.12
3485.315	273.12
3488.209	265.12
3491.101	268.12
3493.99	251.12
3496.878	253.12
3499.763	249.12
3502.646	239.12
3505.527	228.12
3508.405	232.12
3511.281	208.12
3514.155	216.12
3517.027	203.12
3519.897	189.12
3522.764	190.12
3525.629	170.12
3528.492	174.12
3531.352	170.12
3534.211	159.12
3537.067	160.12
3539.921	147.12
3542.773	149.12
3545.622	126.12
3548.469	119.12
3551.315	119.12
3554.157	120.12
3556.998	111.12
3559.837	104.12
3562.673	105.12
3565.507	100.12
3568.339	86.12
3571.169	89.12
3573.996	98.12
3576.822	72.12
3579.645	73.12
3582.466	74.12
3585.285	81.12
3588.101	68.12
3590.916	71.12
3593.728	75.12
3596.538	55.12
3599.346	61.12
3602.152	46.12
3604.956	53.12
3607.757	56.12
3610.556	35.12
3613.354	46.12
3616.149	37.12
3618.942	40.12
3621.732	46.12
3624.521	34.12
3627.307	21.12
3630.092	26.12
3632.874	43.12
3635.654	28.12
3638.432	18.12
3641.208	20.12
3643.982	19.12
3646.753	28.12
3649.523	-2.88
3652.29	11.12
3655.055	15.12
3657.818	16.12
3660.579	8.12
3663.338	-2.88
3666.095	-3.88
3668.849	-19.88
3671.602	7.12
3674.352	-10.88
3677.101	4.12
3679.847	7.12
3682.591	-8.88
3685.333	-14.88
3688.073	-3.88
3690.811	-14.88
3693.547	-18.88
3696.281	-21.88
3699.013	-9.88
3701.742	-12.88
3704.47	-23.88
3707.195	-6.88
3709.919	-7.88
3712.64	-15.88
3715.359	-16.88
3718.076	-5.88
3720.792	-22.88
3723.505	-14.88
3726.216	-0.88
3728.925	-18.88
3731.632	-24.88
3734.336	-17.88
3737.039	-18.88
3739.74	-18.88
3742.439	-37.88
3745.136	-12.88
3747.83	-17.88
3750.523	-17.88
3753.213	-72.88
3755.902	-23.88
3758.589	-35.88
3761.273	-26.88
3763.956	-11.88
3766.636	-35.88
3769.315	-14.88
3771.991	-25.88
3774.665	-26.88
3777.338	-19.88
3780.008	-30.88
3782.677	-25.88
3785.343	-39.88
3788.007	-39.88
3790.67	-22.88
3793.33	-36.88
3795.989	-33.88
3798.645	-24.88
3801.299	-37.88
3803.952	-34.88
3806.602	-32.88
3809.251	-23.88
3811.897	-27.88
3814.542	-29.88
3817.184	-30.88
3819.825	-31.88
3822.463	-39.88
3825.1	-28.88
3827.735	-26.88
3830.367	-34.88
3832.998	-12.88
3835.627	-29.88
3838.253	-21.88
3840.878	-36.88
3843.501	-14.88
3846.122	-26.88
3848.741	-23.88
3851.358	-22.88
3853.973	-38.88
3856.586	-13.88
3859.197	-35.88
3861.806	-26.88
3864.414	-37.88
3867.019	-23.88
3869.622	-17.88
3872.224	-12.88
3874.823	2.12
3877.421	35.12
3880.016	54.12
3882.61	101.12
3885.202	116.12
3887.792	94.12
3890.38	45.12
3892.966	1.12
3895.55	-23.88
3898.132	-18.88
3900.713	-18.88
3903.291	-24.88
3905.868	-36.88
3908.442	-26.88
3911.015	-31.88
3913.586	-33.88
3916.155	-28.88
3918.722	-37.88
3921.287	-34.88
3923.85	-41.88
3926.411	-33.88
3928.971	-32.88
3931.528	-29.88
3934.084	-34.88
3936.638	-40.88
3939.19	-25.88
3941.74	-27.88
3944.288	-33.88
3946.834	-34.88
3949.378	-22.88
3951.921	-36.88
3954.462	-32.88
3957	-32.88
3959.537	-15.88
3962.072	-29.88
3964.606	-42.88
3967.137	-35.88
3969.667	-33.88
3972.194	-26.88
3974.72	-33.88
3977.244	-56.88
3979.766	-37.88
3982.286	-38.88
3984.805	-28.88
3987.321	-22.88
3989.836	-20.88
3992.349	-34.88
3994.86	-29.88
3997.369	-33.88
3999.877	-31.88
4002.382	-33.88
4004.886	-24.88
4007.388	-27.88
4009.888	-17.88
4012.386	-21.88
4014.883	-29.88
4017.377	-22.88
4019.87	-25.88
4022.361	-34.88
4024.85	-22.88
4027.338	-25.88
4029.823	-34.88
4032.307	-31.88
4034.789	-29.88
4037.269	-28.88
4039.747	-38.88
4042.224	-16.88
4044.699	-34.88
4047.172	-30.88
4049.643	-21.88
4052.112	-51.88
4054.58	-28.88
4057.046	-34.88
4059.51	-24.88
4061.972	-27.88
4064.432	-46.88
4066.891	-20.88
4069.348	-24.88
4071.803	-25.88
4074.256	-32.88
4076.708	-23.88
4079.158	-27.88
4081.606	-19.88
4084.052	-29.88
4086.497	-27.88
4088.939	-26.88
4091.38	-30.88
4093.819	-19.88
4096.257	1.12
4098.693	-6.88
4101.127	-6.88
4103.559	0.12
4105.989	127.12
4108.418	133.12
4110.845	120.12
4113.27	135.12
4115.694	140.12
4118.115	138.12
4120.535	-22.88
4122.954	-19.88
4125.37	-19.88
4127.785	-22.88
4130.198	-20.88
4132.609	-26.88
4135.019	10.12
4137.427	0.12
4139.833	5.12
4142.237	-2.88
