Data from 2018-3-6_conc=2_n=6_RamanShift_05.txt Node
Date: Tue Mar 06 12:59:19 GMT+02:00 2018
User: LAB3
Spectrometer: QEPB0276
Trigger mode: 0
Integration Time (sec): 3.000000E1
Scans to average: 1
Electric dark correction enabled: true
Nonlinearity correction enabled: false
Boxcar width: 0
XAxis mode: Raman Shifts
Number of Pixels in Spectrum: 1044
>>>>>Begin Spectral Data<<<<<
160.701	161.5
166.742	209.5
172.777	314.5
178.805	607.5
184.826	1374.5
190.841	2712.5
196.849	4356.5
202.85	5594.5
208.845	6061.5
214.833	6031.5
220.815	5988.5
226.789	5976.5
232.758	6023.5
238.719	6024.5
244.674	6023.5
250.623	5978.5
256.565	5934.5
262.5	5879.5
268.429	5850.5
274.351	5816.5
280.267	5824.5
286.176	5850.5
292.079	5858.5
297.975	5880.5
303.865	5858.5
309.748	5882.5
315.625	5881.5
321.495	5918.5
327.359	5958.5
333.217	5912.5
339.068	5958.5
344.912	5986.5
350.751	5989.5
356.583	6023.5
362.408	6063.5
368.227	6068.5
374.04	6144.5
379.847	6166.5
385.647	6208.5
391.44	6232.5
397.228	6247.5
403.009	6288.5
408.784	6308.5
414.553	6315.5
420.315	6352.5
426.071	6321.5
431.821	6369.5
437.565	6408.5
443.302	6345.5
449.033	6308.5
454.758	6275.5
460.477	6218.5
466.189	6184.5
471.896	6112.5
477.596	6066.5
483.29	6036.5
488.978	6024.5
494.66	5958.5
500.335	5842.5
506.005	5545.5
511.668	5268.5
517.325	5018.5
522.977	4794.5
528.622	4645.5
534.261	4522.5
539.894	4431.5
545.521	4399.5
551.141	4306.5
556.756	4250.5
562.365	4222.5
567.968	4174.5
573.565	4153.5
579.155	4091.5
584.74	4113.5
590.319	4079.5
595.892	4071.5
601.459	4101.5
607.02	4082.5
612.575	4048.5
618.124	4009.5
623.667	3906.5
629.204	3869.5
634.735	3799.5
640.261	3770.5
645.781	3744.5
651.294	3729.5
656.802	3734.5
662.304	3699.5
667.8	3702.5
673.29	3675.5
678.775	3673.5
684.254	3659.5
689.726	3617.5
695.193	3640.5
700.655	3588.5
706.11	3558.5
711.56	3564.5
717.004	3554.5
722.442	3506.5
727.874	3522.5
733.301	3508.5
738.722	3484.5
744.137	3465.5
749.547	3445.5
754.951	3479.5
760.349	3484.5
765.741	3503.5
771.128	3542.5
776.509	3557.5
781.885	3628.5
787.254	3654.5
792.618	3656.5
797.977	3652.5
803.33	3653.5
808.677	3594.5
814.019	3578.5
819.355	3549.5
824.686	3521.5
830.011	3475.5
835.33	3473.5
840.644	3475.5
845.952	3429.5
851.255	3424.5
856.552	3362.5
861.844	3325.5
867.13	3295.5
872.41	3262.5
877.686	3249.5
882.955	3225.5
888.219	3184.5
893.478	3155.5
898.731	3074.5
903.979	3076.5
909.221	3033.5
914.458	2999.5
919.69	3001.5
924.916	3003.5
930.136	3016.5
935.351	3017.5
940.561	2998.5
945.766	3010.5
950.965	3017.5
956.158	2961.5
961.347	2915.5
966.529	2923.5
971.707	2886.5
976.879	2844.5
982.046	2813.5
987.208	2767.5
992.364	2780.5
997.515	2791.5
1002.66	2822.5
1007.801	2850.5
1012.936	2881.5
1018.066	2848.5
1023.19	2901.5
1028.309	2903.5
1033.423	2892.5
1038.532	2907.5
1043.636	2912.5
1048.734	2861.5
1053.827	2837.5
1058.915	2810.5
1063.998	2798.5
1069.075	2776.5
1074.147	2778.5
1079.214	2778.5
1084.276	2796.5
1089.333	2806.5
1094.385	2811.5
1099.431	2802.5
1104.472	2766.5
1109.509	2739.5
1114.54	2689.5
1119.565	2667.5
1124.586	2630.5
1129.602	2614.5
1134.613	2564.5
1139.618	2549.5
1144.619	2567.5
1149.614	2587.5
1154.604	2559.5
1159.589	2581.5
1164.57	2596.5
1169.545	2608.5
1174.515	2608.5
1179.48	2576.5
1184.44	2578.5
1189.395	2571.5
1194.345	2510.5
1199.29	2540.5
1204.23	2503.5
1209.165	2511.5
1214.095	2536.5
1219.021	2534.5
1223.941	2531.5
1228.856	2541.5
1233.766	2571.5
1238.672	2552.5
1243.572	2552.5
1248.467	2527.5
1253.358	2495.5
1258.244	2442.5
1263.124	2424.5
1268	2393.5
1272.871	2328.5
1277.737	2331.5
1282.599	2298.5
1287.455	2292.5
1292.306	2304.5
1297.153	2309.5
1301.995	2322.5
1306.832	2339.5
1311.664	2339.5
1316.491	2326.5
1321.314	2332.5
1326.132	2312.5
1330.945	2284.5
1335.753	2244.5
1340.556	2188.5
1345.354	2160.5
1350.148	2148.5
1354.937	2114.5
1359.722	2077.5
1364.501	2069.5
1369.276	2067.5
1374.046	2059.5
1378.811	2050.5
1383.572	2051.5
1388.327	2062.5
1393.079	2030.5
1397.825	2020.5
1402.567	1995.5
1407.304	1989.5
1412.036	1991.5
1416.764	1985.5
1421.487	1968.5
1426.205	1971.5
1430.919	1951.5
1435.628	1978.5
1440.333	1987.5
1445.032	2000.5
1449.727	2022.5
1454.418	2035.5
1459.104	2036.5
1463.785	1977.5
1468.462	1979.5
1473.134	1950.5
1477.802	1899.5
1482.465	1866.5
1487.123	1865.5
1491.777	1828.5
1496.426	1843.5
1501.071	1878.5
1505.711	1849.5
1510.347	1866.5
1514.978	1863.5
1519.604	1860.5
1524.226	1883.5
1528.844	1839.5
1533.457	1863.5
1538.065	1844.5
1542.669	1823.5
1547.269	1800.5
1551.864	1799.5
1556.454	1793.5
1561.041	1792.5
1565.622	1787.5
1570.199	1791.5
1574.772	1814.5
1579.34	1846.5
1583.904	1863.5
1588.464	1867.5
1593.019	1880.5
1597.569	1865.5
1602.115	1855.5
1606.657	1864.5
1611.195	1858.5
1615.728	1857.5
1620.256	1837.5
1624.78	1817.5
1629.3	1822.5
1633.816	1829.5
1638.327	1857.5
1642.834	1853.5
1647.336	1879.5
1651.834	1902.5
1656.328	1890.5
1660.817	1864.5
1665.302	1856.5
1669.783	1842.5
1674.259	1804.5
1678.732	1770.5
1683.199	1737.5
1687.663	1666.5
1692.122	1650.5
1696.577	1610.5
1701.028	1588.5
1705.474	1544.5
1709.917	1522.5
1714.355	1501.5
1718.788	1502.5
1723.218	1466.5
1727.643	1442.5
1732.064	1422.5
1736.481	1400.5
1740.893	1388.5
1745.301	1353.5
1749.705	1300.5
1754.105	1288.5
1758.501	1266.5
1762.893	1256.5
1767.28	1207.5
1771.663	1222.5
1776.042	1195.5
1780.417	1190.5
1784.787	1181.5
1789.154	1217.5
1793.516	1201.5
1797.874	1193.5
1802.228	1189.5
1806.578	1174.5
1810.924	1185.5
1815.266	1062.5
1819.603	1172.5
1823.937	1125.5
1828.266	1125.5
1832.591	1097.5
1836.913	1106.5
1841.23	1093.5
1845.543	1092.5
1849.852	1101.5
1854.156	1096.5
1858.457	1098.5
1862.754	1094.5
1867.047	1087.5
1871.335	1097.5
1875.62	1109.5
1879.9	1117.5
1884.177	1085.5
1888.449	1103.5
1892.718	1073.5
1896.982	1095.5
1901.243	1056.5
1905.499	1067.5
1909.752	1068.5
1914	1047.5
1918.245	1061.5
1922.485	1063.5
1926.722	1059.5
1930.954	1061.5
1935.183	1087.5
1939.408	1076.5
1943.628	1086.5
1947.845	1049.5
1952.058	1061.5
1956.267	1029.5
1960.472	1039.5
1964.673	1011.5
1968.87	981.5
1973.063	970.5
1977.252	957.5
1981.438	952.5
1985.619	937.5
1989.797	922.5
1993.971	930.5
1998.14	941.5
2002.306	926.5
2006.469	931.5
2010.627	918.5
2014.781	919.5
2018.932	903.5
2023.078	910.5
2027.221	916.5
2031.36	887.5
2035.495	863.5
2039.627	881.5
2043.754	867.5
2047.878	850.5
2051.998	837.5
2056.114	841.5
2060.226	849.5
2064.334	853.5
2068.439	869.5
2072.54	870.5
2076.637	867.5
2080.73	871.5
2084.82	854.5
2088.906	847.5
2092.988	863.5
2097.066	860.5
2101.14	855.5
2105.211	857.5
2109.278	832.5
2113.342	813.5
2117.401	799.5
2121.457	783.5
2125.509	788.5
2129.558	801.5
2133.602	775.5
2137.643	770.5
2141.681	786.5
2145.714	767.5
2149.744	767.5
2153.77	751.5
2157.793	742.5
2161.812	719.5
2165.827	709.5
2169.838	731.5
2173.846	704.5
2177.851	684.5
2181.851	690.5
2185.848	684.5
2189.841	683.5
2193.831	669.5
2197.817	657.5
2201.799	661.5
2205.778	641.5
2209.753	646.5
2213.725	639.5
2217.693	642.5
2221.657	633.5
2225.618	627.5
2229.575	636.5
2233.529	634.5
2237.479	618.5
2241.425	609.5
2245.368	589.5
2249.307	593.5
2253.243	586.5
2257.175	586.5
2261.104	577.5
2265.029	565.5
2268.95	555.5
2272.868	540.5
2276.783	524.5
2280.694	545.5
2284.601	537.5
2288.505	521.5
2292.405	533.5
2296.302	495.5
2300.195	507.5
2304.085	473.5
2307.971	488.5
2311.854	454.5
2315.734	470.5
2319.609	481.5
2323.482	450.5
2327.351	455.5
2331.216	460.5
2335.078	453.5
2338.937	444.5
2342.792	435.5
2346.643	436.5
2350.492	461.5
2354.336	433.5
2358.178	451.5
2362.015	442.5
2365.85	443.5
2369.681	443.5
2373.508	448.5
2377.333	458.5
2381.153	448.5
2384.971	445.5
2388.785	447.5
2392.595	433.5
2396.402	429.5
2400.206	399.5
2404.007	421.5
2407.804	422.5
2411.597	419.5
2415.388	420.5
2419.174	416.5
2422.958	415.5
2426.738	414.5
2430.515	419.5
2434.289	398.5
2438.059	403.5
2441.825	390.5
2445.589	401.5
2449.349	374.5
2453.106	397.5
2456.859	387.5
2460.61	389.5
2464.356	364.5
2468.1	366.5
2471.84	364.5
2475.577	361.5
2479.311	368.5
2483.041	372.5
2486.768	378.5
2490.492	376.5
2494.213	372.5
2497.93	352.5
2501.644	347.5
2505.355	363.5
2509.062	355.5
2512.766	356.5
2516.467	346.5
2520.165	344.5
2523.859	333.5
2527.551	372.5
2531.239	329.5
2534.923	351.5
2538.605	334.5
2542.283	341.5
2545.958	350.5
2549.63	346.5
2553.299	351.5
2556.964	319.5
2560.626	323.5
2564.285	326.5
2567.941	317.5
2571.594	318.5
2575.243	324.5
2578.89	312.5
2582.533	325.5
2586.173	315.5
2589.809	310.5
2593.443	287.5
2597.073	293.5
2600.701	299.5
2604.325	298.5
2607.946	294.5
2611.564	306.5
2615.178	300.5
2618.79	303.5
2622.398	283.5
2626.004	291.5
2629.606	290.5
2633.205	279.5
2636.801	273.5
2640.394	285.5
2643.983	271.5
2647.57	266.5
2651.153	256.5
2654.734	272.5
2658.311	247.5
2661.885	248.5
2665.456	257.5
2669.025	245.5
2672.589	247.5
2676.151	268.5
2679.71	258.5
2683.266	236.5
2686.819	237.5
2690.368	245.5
2693.915	245.5
2697.458	236.5
2700.999	239.5
2704.536	230.5
2708.071	234.5
2711.602	229.5
2715.13	217.5
2718.656	214.5
2722.178	219.5
2725.697	203.5
2729.214	213.5
2732.727	219.5
2736.237	207.5
2739.744	216.5
2743.249	219.5
2746.75	217.5
2750.248	211.5
2753.743	208.5
2757.236	216.5
2760.725	218.5
2764.211	187.5
2767.695	214.5
2771.175	212.5
2774.652	213.5
2778.127	205.5
2781.598	209.5
2785.067	209.5
2788.532	202.5
2791.995	215.5
2795.455	204.5
2798.911	209.5
2802.365	197.5
2805.816	206.5
2809.264	217.5
2812.709	200.5
2816.151	209.5
2819.59	198.5
2823.026	208.5
2826.46	205.5
2829.89	217.5
2833.318	192.5
2836.742	215.5
2840.164	205.5
2843.583	208.5
2846.999	207.5
2850.412	223.5
2853.822	210.5
2857.229	217.5
2860.634	223.5
2864.035	205.5
2867.434	238.5
2870.83	235.5
2874.223	234.5
2877.613	235.5
2881	232.5
2884.385	236.5
2887.766	236.5
2891.145	242.5
2894.521	230.5
2897.894	228.5
2901.264	249.5
2904.631	238.5
2907.996	246.5
2911.358	254.5
2914.717	248.5
2918.073	241.5
2921.426	243.5
2924.777	236.5
2928.124	258.5
2931.469	271.5
2934.811	251.5
2938.15	283.5
2941.487	273.5
2944.821	286.5
2948.152	273.5
2951.48	282.5
2954.805	261.5
2958.128	279.5
2961.447	268.5
2964.765	285.5
2968.079	279.5
2971.39	281.5
2974.699	291.5
2978.005	272.5
2981.308	286.5
2984.609	280.5
2987.907	303.5
2991.202	293.5
2994.494	284.5
2997.784	302.5
3001.07	296.5
3004.355	289.5
3007.636	300.5
3010.915	309.5
3014.191	307.5
3017.464	313.5
3020.734	300.5
3024.002	313.5
3027.267	315.5
3030.53	317.5
3033.789	326.5
3037.046	324.5
3040.301	322.5
3043.552	344.5
3046.801	348.5
3050.048	359.5
3053.291	379.5
3056.532	366.5
3059.771	358.5
3063.006	390.5
3066.239	387.5
3069.469	409.5
3072.697	406.5
3075.922	422.5
3079.144	417.5
3082.364	457.5
3085.581	448.5
3088.795	460.5
3092.007	474.5
3095.216	482.5
3098.423	486.5
3101.627	472.5
3104.828	509.5
3108.026	506.5
3111.222	533.5
3114.416	544.5
3117.607	548.5
3120.795	553.5
3123.98	567.5
3127.163	569.5
3130.344	597.5
3133.521	598.5
3136.696	622.5
3139.869	626.5
3143.039	620.5
3146.206	653.5
3149.371	659.5
3152.533	660.5
3155.693	653.5
3158.85	670.5
3162.005	668.5
3165.157	665.5
3168.306	679.5
3171.453	682.5
3174.597	675.5
3177.739	670.5
3180.878	683.5
3184.014	679.5
3187.149	684.5
3190.28	688.5
3193.409	700.5
3196.536	693.5
3199.659	706.5
3202.781	690.5
3205.9	693.5
3209.016	694.5
3212.13	686.5
3215.241	692.5
3218.35	683.5
3221.456	677.5
3224.56	673.5
3227.661	677.5
3230.76	670.5
3233.856	646.5
3236.95	657.5
3240.041	655.5
3243.13	654.5
3246.216	644.5
3249.3	650.5
3252.382	641.5
3255.46	639.5
3258.537	585.5
3261.611	626.5
3264.682	639.5
3267.751	626.5
3270.818	607.5
3273.882	629.5
3276.943	624.5
3280.002	628.5
3283.059	613.5
3286.113	605.5
3289.165	595.5
3292.214	588.5
3295.261	596.5
3298.306	575.5
3301.348	577.5
3304.387	553.5
3307.425	565.5
3310.459	549.5
3313.492	542.5
3316.521	536.5
3319.549	538.5
3322.574	536.5
3325.597	529.5
3328.617	520.5
3331.635	516.5
3334.65	505.5
3337.663	516.5
3340.674	512.5
3343.682	517.5
3346.688	512.5
3349.691	507.5
3352.692	516.5
3355.691	515.5
3358.687	510.5
3361.681	502.5
3364.673	491.5
3367.662	497.5
3370.649	493.5
3373.633	464.5
3376.615	480.5
3379.595	463.5
3382.572	464.5
3385.547	448.5
3388.52	437.5
3391.49	443.5
3394.458	439.5
3397.424	438.5
3400.387	425.5
3403.348	435.5
3406.307	425.5
3409.263	418.5
3412.217	417.5
3415.168	414.5
3418.118	418.5
3421.065	407.5
3424.009	414.5
3426.951	392.5
3429.891	390.5
3432.829	396.5
3435.764	381.5
3438.697	363.5
3441.628	380.5
3444.557	345.5
3447.483	341.5
3450.407	343.5
3453.328	322.5
3456.247	326.5
3459.164	317.5
3462.079	308.5
3464.991	298.5
3467.902	290.5
3470.809	286.5
3473.715	278.5
3476.618	263.5
3479.519	267.5
3482.418	249.5
3485.315	237.5
3488.209	243.5
3491.101	235.5
3493.99	218.5
3496.878	223.5
3499.763	220.5
3502.646	221.5
3505.527	204.5
3508.405	203.5
3511.281	188.5
3514.155	188.5
3517.027	184.5
3519.897	162.5
3522.764	168.5
3525.629	149.5
3528.492	154.5
3531.352	150.5
3534.211	142.5
3537.067	131.5
3539.921	132.5
3542.773	135.5
3545.622	108.5
3548.469	109.5
3551.315	96.5
3554.157	103.5
3556.998	91.5
3559.837	96.5
3562.673	93.5
3565.507	83.5
3568.339	77.5
3571.169	77.5
3573.996	80.5
3576.822	56.5
3579.645	62.5
3582.466	61.5
3585.285	66.5
3588.101	61.5
3590.916	49.5
3593.728	58.5
3596.538	56.5
3599.346	54.5
3602.152	41.5
3604.956	49.5
3607.757	45.5
3610.556	29.5
3613.354	41.5
3616.149	37.5
3618.942	39.5
3621.732	40.5
3624.521	24.5
3627.307	14.5
3630.092	15.5
3632.874	31.5
3635.654	24.5
3638.432	14.5
3641.208	13.5
3643.982	11.5
3646.753	19.5
3649.523	-9.5
3652.29	8.5
3655.055	12.5
3657.818	9.5
3660.579	-1.5
3663.338	-10.5
3666.095	-2.5
3668.849	-24.5
3671.602	8.5
3674.352	-16.5
3677.101	3.5
3679.847	0.5
3682.591	-10.5
3685.333	-20.5
3688.073	-9.5
3690.811	-15.5
3693.547	-25.5
3696.281	-21.5
3699.013	-9.5
3701.742	-13.5
3704.47	-23.5
3707.195	-12.5
3709.919	-14.5
3712.64	-14.5
3715.359	-27.5
3718.076	-6.5
3720.792	-26.5
3723.505	-15.5
3726.216	-4.5
3728.925	-24.5
3731.632	-24.5
3734.336	-19.5
3737.039	-15.5
3739.74	-19.5
3742.439	-47.5
3745.136	-17.5
3747.83	-21.5
3750.523	-19.5
3753.213	-84.5
3755.902	-27.5
3758.589	-38.5
3761.273	-28.5
3763.956	-12.5
3766.636	-35.5
3769.315	-15.5
3771.991	-26.5
3774.665	-27.5
3777.338	-25.5
3780.008	-37.5
3782.677	-29.5
3785.343	-46.5
3788.007	-47.5
3790.67	-15.5
3793.33	-32.5
3795.989	-31.5
3798.645	-24.5
3801.299	-37.5
3803.952	-40.5
3806.602	-34.5
3809.251	-22.5
3811.897	-29.5
3814.542	-35.5
3817.184	-35.5
3819.825	-30.5
3822.463	-43.5
3825.1	-33.5
3827.735	-28.5
3830.367	-37.5
3832.998	-19.5
3835.627	-31.5
3838.253	-21.5
3840.878	-25.5
3843.501	-18.5
3846.122	-26.5
3848.741	-25.5
3851.358	-20.5
3853.973	-41.5
3856.586	-23.5
3859.197	-31.5
3861.806	-31.5
3864.414	-41.5
3867.019	-30.5
3869.622	-15.5
3872.224	-17.5
3874.823	1.5
3877.421	34.5
3880.016	56.5
3882.61	103.5
3885.202	125.5
3887.792	88.5
3890.38	40.5
3892.966	1.5
3895.55	-24.5
3898.132	-19.5
3900.713	-22.5
3903.291	-26.5
3905.868	-32.5
3908.442	-31.5
3911.015	-30.5
3913.586	-34.5
3916.155	-35.5
3918.722	-36.5
3921.287	-34.5
3923.85	-42.5
3926.411	-40.5
3928.971	-36.5
3931.528	-29.5
3934.084	-34.5
3936.638	-43.5
3939.19	-32.5
3941.74	-28.5
3944.288	-37.5
3946.834	-33.5
3949.378	-21.5
3951.921	-38.5
3954.462	-35.5
3957	-27.5
3959.537	-18.5
3962.072	-34.5
3964.606	-46.5
3967.137	-36.5
3969.667	-37.5
3972.194	-27.5
3974.72	-37.5
3977.244	-54.5
3979.766	-39.5
3982.286	-38.5
3984.805	-28.5
3987.321	-21.5
3989.836	-26.5
3992.349	-36.5
3994.86	-29.5
3997.369	-37.5
3999.877	-34.5
4002.382	-36.5
4004.886	-23.5
4007.388	-30.5
4009.888	-19.5
4012.386	-22.5
4014.883	-24.5
4017.377	-28.5
4019.87	-24.5
4022.361	-41.5
4024.85	-30.5
4027.338	-29.5
4029.823	-33.5
4032.307	-28.5
4034.789	-28.5
4037.269	-28.5
4039.747	-43.5
4042.224	-21.5
4044.699	-32.5
4047.172	-33.5
4049.643	-17.5
4052.112	-50.5
4054.58	-28.5
4057.046	-40.5
4059.51	-27.5
4061.972	-29.5
4064.432	-47.5
4066.891	-15.5
4069.348	-28.5
4071.803	-28.5
4074.256	-30.5
4076.708	-27.5
4079.158	-26.5
4081.606	-19.5
4084.052	-27.5
4086.497	-23.5
4088.939	-31.5
4091.38	-29.5
4093.819	-19.5
4096.257	0.5
4098.693	-6.5
4101.127	-5.5
4103.559	1.5
4105.989	144.5
4108.418	157.5
4110.845	137.5
4113.27	144.5
4115.694	156.5
4118.115	146.5
4120.535	-27.5
4122.954	-21.5
4125.37	-18.5
4127.785	-25.5
4130.198	-15.5
4132.609	-24.5
4135.019	4.5
4137.427	1.5
4139.833	5.5
4142.237	-1.5
