Data from 2018-3-6_conc=4_n=2_RamanShift_04.txt Node
Date: Tue Mar 06 13:54:49 GMT+02:00 2018
User: LAB3
Spectrometer: QEPB0276
Trigger mode: 0
Integration Time (sec): 3.000000E1
Scans to average: 1
Electric dark correction enabled: true
Nonlinearity correction enabled: false
Boxcar width: 0
XAxis mode: Raman Shifts
Number of Pixels in Spectrum: 1044
>>>>>Begin Spectral Data<<<<<
160.701	98.88
166.742	128.88
172.777	197.88
178.805	393.88
184.826	904.88
190.841	1823.88
196.849	2871.88
202.85	3658.88
208.845	3941.88
214.833	3946.88
220.815	3901.88
226.789	3895.88
232.758	3952.88
238.719	3964.88
244.674	3915.88
250.623	3910.88
256.565	3885.88
262.5	3833.88
268.429	3806.88
274.351	3782.88
280.267	3765.88
286.176	3796.88
292.079	3790.88
297.975	3827.88
303.865	3825.88
309.748	3853.88
315.625	3845.88
321.495	3844.88
327.359	3833.88
333.217	3828.88
339.068	3871.88
344.912	3892.88
350.751	3883.88
356.583	3900.88
362.408	3902.88
368.227	3955.88
374.04	3982.88
379.847	3976.88
385.647	4040.88
391.44	4010.88
397.228	4013.88
403.009	4060.88
408.784	4057.88
414.553	4091.88
420.315	4102.88
426.071	4089.88
431.821	4101.88
437.565	4095.88
443.302	4070.88
449.033	4063.88
454.758	4044.88
460.477	4013.88
466.189	3952.88
471.896	3942.88
477.596	3925.88
483.29	3895.88
488.978	3905.88
494.66	3877.88
500.335	3759.88
506.005	3597.88
511.668	3420.88
517.325	3235.88
522.977	3096.88
528.622	3010.88
534.261	2962.88
539.894	2883.88
545.521	2857.88
551.141	2803.88
556.756	2785.88
562.365	2762.88
567.968	2721.88
573.565	2735.88
579.155	2692.88
584.74	2665.88
590.319	2679.88
595.892	2687.88
601.459	2688.88
607.02	2647.88
612.575	2640.88
618.124	2613.88
623.667	2563.88
629.204	2530.88
634.735	2510.88
640.261	2491.88
645.781	2453.88
651.294	2446.88
656.802	2452.88
662.304	2445.88
667.8	2433.88
673.29	2402.88
678.775	2406.88
684.254	2406.88
689.726	2384.88
695.193	2388.88
700.655	2367.88
706.11	2358.88
711.56	2341.88
717.004	2339.88
722.442	2304.88
727.874	2296.88
733.301	2298.88
738.722	2289.88
744.137	2294.88
749.547	2281.88
754.951	2262.88
760.349	2287.88
765.741	2311.88
771.128	2309.88
776.509	2354.88
781.885	2381.88
787.254	2403.88
792.618	2392.88
797.977	2403.88
803.33	2393.88
808.677	2382.88
814.019	2353.88
819.355	2311.88
824.686	2308.88
830.011	2265.88
835.33	2285.88
840.644	2266.88
845.952	2223.88
851.255	2241.88
856.552	2231.88
861.844	2186.88
867.13	2168.88
872.41	2157.88
877.686	2123.88
882.955	2104.88
888.219	2081.88
893.478	2056.88
898.731	2029.88
903.979	2023.88
909.221	1982.88
914.458	1981.88
919.69	1997.88
924.916	1975.88
930.136	1985.88
935.351	1985.88
940.561	1993.88
945.766	1988.88
950.965	1985.88
956.158	1962.88
961.347	1935.88
966.529	1906.88
971.707	1909.88
976.879	1866.88
982.046	1847.88
987.208	1847.88
992.364	1831.88
997.515	1851.88
1002.66	1840.88
1007.801	1859.88
1012.936	1877.88
1018.066	1875.88
1023.19	1913.88
1028.309	1900.88
1033.423	1907.88
1038.532	1930.88
1043.636	1880.88
1048.734	1872.88
1053.827	1862.88
1058.915	1847.88
1063.998	1854.88
1069.075	1820.88
1074.147	1842.88
1079.214	1802.88
1084.276	1837.88
1089.333	1823.88
1094.385	1853.88
1099.431	1815.88
1104.472	1830.88
1109.509	1791.88
1114.54	1783.88
1119.565	1777.88
1124.586	1741.88
1129.602	1694.88
1134.613	1688.88
1139.618	1669.88
1144.619	1703.88
1149.614	1693.88
1154.604	1700.88
1159.589	1689.88
1164.57	1729.88
1169.545	1739.88
1174.515	1708.88
1179.48	1711.88
1184.44	1692.88
1189.395	1698.88
1194.345	1659.88
1199.29	1648.88
1204.23	1639.88
1209.165	1644.88
1214.095	1677.88
1219.021	1657.88
1223.941	1666.88
1228.856	1679.88
1233.766	1693.88
1238.672	1696.88
1243.572	1682.88
1248.467	1662.88
1253.358	1645.88
1258.244	1618.88
1263.124	1621.88
1268	1588.88
1272.871	1536.88
1277.737	1546.88
1282.599	1512.88
1287.455	1514.88
1292.306	1531.88
1297.153	1522.88
1301.995	1533.88
1306.832	1547.88
1311.664	1533.88
1316.491	1531.88
1321.314	1533.88
1326.132	1516.88
1330.945	1512.88
1335.753	1476.88
1340.556	1462.88
1345.354	1423.88
1350.148	1433.88
1354.937	1409.88
1359.722	1382.88
1364.501	1362.88
1369.276	1355.88
1374.046	1379.88
1378.811	1342.88
1383.572	1356.88
1388.327	1341.88
1393.079	1339.88
1397.825	1327.88
1402.567	1331.88
1407.304	1331.88
1412.036	1319.88
1416.764	1326.88
1421.487	1295.88
1426.205	1289.88
1430.919	1299.88
1435.628	1325.88
1440.333	1293.88
1445.032	1334.88
1449.727	1330.88
1454.418	1333.88
1459.104	1344.88
1463.785	1314.88
1468.462	1325.88
1473.134	1274.88
1477.802	1258.88
1482.465	1231.88
1487.123	1219.88
1491.777	1203.88
1496.426	1185.88
1501.071	1219.88
1505.711	1223.88
1510.347	1222.88
1514.978	1223.88
1519.604	1233.88
1524.226	1233.88
1528.844	1213.88
1533.457	1247.88
1538.065	1196.88
1542.669	1206.88
1547.269	1194.88
1551.864	1202.88
1556.454	1175.88
1561.041	1183.88
1565.622	1185.88
1570.199	1195.88
1574.772	1193.88
1579.34	1217.88
1583.904	1224.88
1588.464	1233.88
1593.019	1240.88
1597.569	1226.88
1602.115	1236.88
1606.657	1216.88
1611.195	1225.88
1615.728	1232.88
1620.256	1192.88
1624.78	1193.88
1629.3	1197.88
1633.816	1207.88
1638.327	1198.88
1642.834	1237.88
1647.336	1208.88
1651.834	1237.88
1656.328	1232.88
1660.817	1229.88
1665.302	1199.88
1669.783	1202.88
1674.259	1180.88
1678.732	1136.88
1683.199	1122.88
1687.663	1078.88
1692.122	1067.88
1696.577	1030.88
1701.028	1029.88
1705.474	1005.88
1709.917	990.88
1714.355	1002.88
1718.788	968.88
1723.218	946.88
1727.643	939.88
1732.064	935.88
1736.481	909.88
1740.893	915.88
1745.301	885.88
1749.705	848.88
1754.105	869.88
1758.501	835.88
1762.893	833.88
1767.28	785.88
1771.663	789.88
1776.042	787.88
1780.417	779.88
1784.787	787.88
1789.154	806.88
1793.516	795.88
1797.874	792.88
1802.228	777.88
1806.578	776.88
1810.924	787.88
1815.266	668.88
1819.603	765.88
1823.937	750.88
1828.266	754.88
1832.591	748.88
1836.913	730.88
1841.23	720.88
1845.543	728.88
1849.852	729.88
1854.156	713.88
1858.457	718.88
1862.754	704.88
1867.047	715.88
1871.335	734.88
1875.62	729.88
1879.9	726.88
1884.177	715.88
1888.449	729.88
1892.718	700.88
1896.982	709.88
1901.243	703.88
1905.499	695.88
1909.752	686.88
1914	674.88
1918.245	695.88
1922.485	698.88
1926.722	695.88
1930.954	694.88
1935.183	706.88
1939.408	710.88
1943.628	702.88
1947.845	687.88
1952.058	692.88
1956.267	661.88
1960.472	674.88
1964.673	662.88
1968.87	655.88
1973.063	643.88
1977.252	630.88
1981.438	617.88
1985.619	618.88
1989.797	600.88
1993.971	607.88
1998.14	623.88
2002.306	608.88
2006.469	610.88
2010.627	596.88
2014.781	602.88
2018.932	588.88
2023.078	617.88
2027.221	600.88
2031.36	576.88
2035.495	574.88
2039.627	577.88
2043.754	564.88
2047.878	556.88
2051.998	550.88
2056.114	550.88
2060.226	560.88
2064.334	558.88
2068.439	559.88
2072.54	563.88
2076.637	548.88
2080.73	558.88
2084.82	553.88
2088.906	555.88
2092.988	546.88
2097.066	556.88
2101.14	554.88
2105.211	543.88
2109.278	530.88
2113.342	527.88
2117.401	507.88
2121.457	503.88
2125.509	502.88
2129.558	506.88
2133.602	504.88
2137.643	500.88
2141.681	508.88
2145.714	510.88
2149.744	494.88
2153.77	489.88
2157.793	471.88
2161.812	435.88
2165.827	458.88
2169.838	476.88
2173.846	454.88
2177.851	439.88
2181.851	455.88
2185.848	444.88
2189.841	444.88
2193.831	419.88
2197.817	423.88
2201.799	423.88
2205.778	419.88
2209.753	419.88
2213.725	403.88
2217.693	420.88
2221.657	393.88
2225.618	418.88
2229.575	410.88
2233.529	407.88
2237.479	415.88
2241.425	385.88
2245.368	382.88
2249.307	389.88
2253.243	380.88
2257.175	376.88
2261.104	353.88
2265.029	360.88
2268.95	374.88
2272.868	355.88
2276.783	346.88
2280.694	358.88
2284.601	349.88
2288.505	345.88
2292.405	349.88
2296.302	320.88
2300.195	327.88
2304.085	300.88
2307.971	327.88
2311.854	295.88
2315.734	309.88
2319.609	308.88
2323.482	281.88
2327.351	297.88
2331.216	289.88
2335.078	297.88
2338.937	295.88
2342.792	280.88
2346.643	285.88
2350.492	291.88
2354.336	283.88
2358.178	287.88
2362.015	300.88
2365.85	287.88
2369.681	278.88
2373.508	301.88
2377.333	295.88
2381.153	289.88
2384.971	281.88
2388.785	283.88
2392.595	273.88
2396.402	276.88
2400.206	245.88
2404.007	261.88
2407.804	268.88
2411.597	261.88
2415.388	267.88
2419.174	263.88
2422.958	266.88
2426.738	265.88
2430.515	268.88
2434.289	256.88
2438.059	247.88
2441.825	255.88
2445.589	257.88
2449.349	240.88
2453.106	256.88
2456.859	239.88
2460.61	247.88
2464.356	234.88
2468.1	237.88
2471.84	225.88
2475.577	224.88
2479.311	222.88
2483.041	233.88
2486.768	236.88
2490.492	239.88
2494.213	230.88
2497.93	219.88
2501.644	213.88
2505.355	219.88
2509.062	229.88
2512.766	224.88
2516.467	216.88
2520.165	218.88
2523.859	205.88
2527.551	242.88
2531.239	208.88
2534.923	217.88
2538.605	210.88
2542.283	207.88
2545.958	207.88
2549.63	219.88
2553.299	218.88
2556.964	202.88
2560.626	201.88
2564.285	207.88
2567.941	195.88
2571.594	188.88
2575.243	204.88
2578.89	192.88
2582.533	198.88
2586.173	197.88
2589.809	195.88
2593.443	171.88
2597.073	182.88
2600.701	189.88
2604.325	186.88
2607.946	170.88
2611.564	191.88
2615.178	180.88
2618.79	182.88
2622.398	182.88
2626.004	179.88
2629.606	179.88
2633.205	174.88
2636.801	184.88
2640.394	188.88
2643.983	171.88
2647.57	160.88
2651.153	163.88
2654.734	164.88
2658.311	138.88
2661.885	147.88
2665.456	155.88
2669.025	152.88
2672.589	149.88
2676.151	160.88
2679.71	168.88
2683.266	147.88
2686.819	144.88
2690.368	152.88
2693.915	152.88
2697.458	150.88
2700.999	151.88
2704.536	153.88
2708.071	137.88
2711.602	136.88
2715.13	136.88
2718.656	124.88
2722.178	131.88
2725.697	122.88
2729.214	124.88
2732.727	128.88
2736.237	120.88
2739.744	127.88
2743.249	121.88
2746.75	134.88
2750.248	125.88
2753.743	126.88
2757.236	124.88
2760.725	133.88
2764.211	102.88
2767.695	130.88
2771.175	123.88
2774.652	129.88
2778.127	120.88
2781.598	122.88
2785.067	127.88
2788.532	109.88
2791.995	119.88
2795.455	121.88
2798.911	129.88
2802.365	110.88
2805.816	120.88
2809.264	134.88
2812.709	113.88
2816.151	124.88
2819.59	108.88
2823.026	126.88
2826.46	117.88
2829.89	126.88
2833.318	102.88
2836.742	118.88
2840.164	120.88
2843.583	120.88
2846.999	124.88
2850.412	119.88
2853.822	118.88
2857.229	136.88
2860.634	118.88
2864.035	116.88
2867.434	139.88
2870.83	139.88
2874.223	133.88
2877.613	130.88
2881	117.88
2884.385	132.88
2887.766	128.88
2891.145	137.88
2894.521	134.88
2897.894	120.88
2901.264	136.88
2904.631	137.88
2907.996	141.88
2911.358	150.88
2914.717	140.88
2918.073	147.88
2921.426	136.88
2924.777	126.88
2928.124	144.88
2931.469	155.88
2934.811	136.88
2938.15	162.88
2941.487	152.88
2944.821	175.88
2948.152	152.88
2951.48	167.88
2954.805	146.88
2958.128	174.88
2961.447	156.88
2964.765	161.88
2968.079	154.88
2971.39	162.88
2974.699	156.88
2978.005	165.88
2981.308	168.88
2984.609	155.88
2987.907	167.88
2991.202	170.88
2994.494	160.88
2997.784	172.88
3001.07	174.88
3004.355	163.88
3007.636	177.88
3010.915	168.88
3014.191	169.88
3017.464	179.88
3020.734	179.88
3024.002	181.88
3027.267	185.88
3030.53	171.88
3033.789	174.88
3037.046	186.88
3040.301	182.88
3043.552	191.88
3046.801	198.88
3050.048	200.88
3053.291	228.88
3056.532	214.88
3059.771	204.88
3063.006	228.88
3066.239	225.88
3069.469	236.88
3072.697	232.88
3075.922	237.88
3079.144	234.88
3082.364	266.88
3085.581	247.88
3088.795	284.88
3092.007	276.88
3095.216	271.88
3098.423	281.88
3101.627	261.88
3104.828	285.88
3108.026	293.88
3111.222	315.88
3114.416	321.88
3117.607	320.88
3120.795	323.88
3123.98	332.88
3127.163	321.88
3130.344	343.88
3133.521	335.88
3136.696	357.88
3139.869	361.88
3143.039	353.88
3146.206	384.88
3149.371	378.88
3152.533	380.88
3155.693	376.88
3158.85	378.88
3162.005	386.88
3165.157	378.88
3168.306	379.88
3171.453	386.88
3174.597	380.88
3177.739	369.88
3180.878	397.88
3184.014	395.88
3187.149	399.88
3190.28	393.88
3193.409	407.88
3196.536	413.88
3199.659	412.88
3202.781	411.88
3205.9	390.88
3209.016	404.88
3212.13	395.88
3215.241	405.88
3218.35	400.88
3221.456	393.88
3224.56	382.88
3227.661	393.88
3230.76	378.88
3233.856	375.88
3236.95	368.88
3240.041	357.88
3243.13	377.88
3246.216	375.88
3249.3	374.88
3252.382	369.88
3255.46	359.88
3258.537	312.88
3261.611	357.88
3264.682	359.88
3267.751	360.88
3270.818	349.88
3273.882	366.88
3276.943	359.88
3280.002	361.88
3283.059	352.88
3286.113	356.88
3289.165	343.88
3292.214	325.88
3295.261	349.88
3298.306	313.88
3301.348	336.88
3304.387	312.88
3307.425	325.88
3310.459	312.88
3313.492	314.88
3316.521	307.88
3319.549	313.88
3322.574	312.88
3325.597	305.88
3328.617	294.88
3331.635	286.88
3334.65	291.88
3337.663	312.88
3340.674	296.88
3343.682	285.88
3346.688	298.88
3349.691	291.88
3352.692	282.88
3355.691	294.88
3358.687	289.88
3361.681	294.88
3364.673	288.88
3367.662	285.88
3370.649	289.88
3373.633	270.88
3376.615	272.88
3379.595	254.88
3382.572	259.88
3385.547	250.88
3388.52	244.88
3391.49	251.88
3394.458	249.88
3397.424	248.88
3400.387	229.88
3403.348	237.88
3406.307	243.88
3409.263	236.88
3412.217	246.88
3415.168	236.88
3418.118	239.88
3421.065	224.88
3424.009	242.88
3426.951	217.88
3429.891	224.88
3432.829	213.88
3435.764	211.88
3438.697	203.88
3441.628	212.88
3444.557	177.88
3447.483	178.88
3450.407	197.88
3453.328	180.88
3456.247	179.88
3459.164	166.88
3462.079	176.88
3464.991	165.88
3467.902	162.88
3470.809	155.88
3473.715	163.88
3476.618	231.88
3479.519	149.88
3482.418	126.88
3485.315	123.88
3488.209	124.88
3491.101	120.88
3493.99	107.88
3496.878	107.88
3499.763	116.88
3502.646	114.88
3505.527	99.88
3508.405	88.88
3511.281	83.88
3514.155	106.88
3517.027	92.88
3519.897	75.88
3522.764	87.88
3525.629	60.88
3528.492	78.88
3531.352	74.88
3534.211	74.88
3537.067	62.88
3539.921	67.88
3542.773	73.88
3545.622	45.88
3548.469	41.88
3551.315	42.88
3554.157	47.88
3556.998	32.88
3559.837	40.88
3562.673	40.88
3565.507	31.88
3568.339	26.88
3571.169	25.88
3573.996	35.88
3576.822	10.88
3579.645	11.88
3582.466	17.88
3585.285	21.88
3588.101	15.88
3590.916	12.88
3593.728	19.88
3596.538	16.88
3599.346	11.88
3602.152	2.88
3604.956	14.88
3607.757	12.88
3610.556	-2.12
3613.354	11.88
3616.149	4.88
3618.942	7.88
3621.732	11.88
3624.521	-5.12
3627.307	-13.12
3630.092	-6.12
3632.874	11.88
3635.654	-5.12
3638.432	-10.12
3641.208	-7.12
3643.982	-6.12
3646.753	-1.12
3649.523	-36.12
3652.29	-18.12
3655.055	-6.12
3657.818	-7.12
3660.579	-16.12
3663.338	-22.12
3666.095	-17.12
3668.849	-40.12
3671.602	-11.12
3674.352	-28.12
3677.101	-7.12
3679.847	-19.12
3682.591	-22.12
3685.333	-30.12
3688.073	-18.12
3690.811	-27.12
3693.547	-32.12
3696.281	-25.12
3699.013	-21.12
3701.742	-27.12
3704.47	-33.12
3707.195	-21.12
3709.919	-24.12
3712.64	-29.12
3715.359	-37.12
3718.076	-16.12
3720.792	-27.12
3723.505	-25.12
3726.216	-13.12
3728.925	-30.12
3731.632	-34.12
3734.336	-26.12
3737.039	-26.12
3739.74	-24.12
3742.439	-51.12
3745.136	-25.12
3747.83	-22.12
3750.523	-24.12
3753.213	-77.12
3755.902	-32.12
3758.589	-42.12
3761.273	-35.12
3763.956	-23.12
3766.636	-47.12
3769.315	-23.12
3771.991	-33.12
3774.665	-35.12
3777.338	-32.12
3780.008	-42.12
3782.677	-31.12
3785.343	-50.12
3788.007	-53.12
3790.67	-25.12
3793.33	-42.12
3795.989	-35.12
3798.645	-33.12
3801.299	-44.12
3803.952	-45.12
3806.602	-35.12
3809.251	-28.12
3811.897	-31.12
3814.542	-33.12
3817.184	-34.12
3819.825	-34.12
3822.463	-45.12
3825.1	-36.12
3827.735	-35.12
3830.367	-42.12
3832.998	-18.12
3835.627	-35.12
3838.253	-23.12
3840.878	-30.12
3843.501	-21.12
3846.122	-27.12
3848.741	-27.12
3851.358	-24.12
3853.973	-45.12
3856.586	-23.12
3859.197	-40.12
3861.806	-30.12
3864.414	-44.12
3867.019	-29.12
3869.622	-25.12
3872.224	-20.12
3874.823	-11.12
3877.421	15.88
3880.016	25.88
3882.61	52.88
3885.202	70.88
3887.792	44.88
3890.38	14.88
3892.966	-13.12
3895.55	-32.12
3898.132	-23.12
3900.713	-23.12
3903.291	-29.12
3905.868	-39.12
3908.442	-31.12
3911.015	-33.12
3913.586	-40.12
3916.155	-31.12
3918.722	-38.12
3921.287	-41.12
3923.85	-50.12
3926.411	-39.12
3928.971	-44.12
3931.528	-32.12
3934.084	-37.12
3936.638	-45.12
3939.19	-28.12
3941.74	-33.12
3944.288	-34.12
3946.834	-33.12
3949.378	-26.12
3951.921	-41.12
3954.462	-34.12
3957	-31.12
3959.537	-23.12
3962.072	-36.12
3964.606	-44.12
3967.137	-35.12
3969.667	-37.12
3972.194	-29.12
3974.72	-35.12
3977.244	-59.12
3979.766	-42.12
3982.286	-35.12
3984.805	-31.12
3987.321	-26.12
3989.836	-25.12
3992.349	-36.12
3994.86	-28.12
3997.369	-37.12
3999.877	-30.12
4002.382	-36.12
4004.886	-29.12
4007.388	-34.12
4009.888	-21.12
4012.386	-20.12
4014.883	-29.12
4017.377	-30.12
4019.87	-25.12
4022.361	-36.12
4024.85	-31.12
4027.338	-27.12
4029.823	-36.12
4032.307	-33.12
4034.789	-32.12
4037.269	-30.12
4039.747	-41.12
4042.224	-18.12
4044.699	-39.12
4047.172	-37.12
4049.643	-26.12
4052.112	-54.12
4054.58	-32.12
4057.046	-44.12
4059.51	-31.12
4061.972	-33.12
4064.432	-46.12
4066.891	-20.12
4069.348	-30.12
4071.803	-29.12
4074.256	-34.12
4076.708	-29.12
4079.158	-29.12
4081.606	-19.12
4084.052	-31.12
4086.497	-25.12
4088.939	-33.12
4091.38	-33.12
4093.819	-27.12
4096.257	3.88
4098.693	-6.12
4101.127	-6.12
4103.559	0.88
4105.989	88.88
4108.418	92.88
4110.845	78.88
4113.27	83.88
4115.694	94.88
4118.115	94.88
4120.535	-27.12
4122.954	-22.12
4125.37	-19.12
4127.785	-27.12
4130.198	-19.12
4132.609	-23.12
4135.019	3.88
4137.427	0.88
4139.833	4.88
4142.237	-2.12
