Data from 2018-3-6_conc=5_n=10_RamanShift_05.txt Node
Date: Tue Mar 06 14:52:18 GMT+02:00 2018
User: LAB3
Spectrometer: QEPB0276
Trigger mode: 0
Integration Time (sec): 3.000000E1
Scans to average: 1
Electric dark correction enabled: true
Nonlinearity correction enabled: false
Boxcar width: 0
XAxis mode: Raman Shifts
Number of Pixels in Spectrum: 1044
>>>>>Begin Spectral Data<<<<<
160.701	38.62
166.742	59.62
172.777	87.62
178.805	176.62
184.826	417.62
190.841	868.62
196.849	1355.62
202.85	1718.62
208.845	1834.62
214.833	1802.62
220.815	1760.62
226.789	1740.62
232.758	1742.62
238.719	1727.62
244.674	1719.62
250.623	1673.62
256.565	1653.62
262.5	1613.62
268.429	1609.62
274.351	1593.62
280.267	1579.62
286.176	1560.62
292.079	1583.62
297.975	1571.62
303.865	1554.62
309.748	1562.62
315.625	1538.62
321.495	1542.62
327.359	1540.62
333.217	1534.62
339.068	1521.62
344.912	1540.62
350.751	1549.62
356.583	1537.62
362.408	1552.62
368.227	1564.62
374.04	1559.62
379.847	1568.62
385.647	1578.62
391.44	1543.62
397.228	1581.62
403.009	1586.62
408.784	1576.62
414.553	1584.62
420.315	1586.62
426.071	1581.62
431.821	1593.62
437.565	1595.62
443.302	1592.62
449.033	1577.62
454.758	1585.62
460.477	1553.62
466.189	1537.62
471.896	1550.62
477.596	1539.62
483.29	1509.62
488.978	1525.62
494.66	1491.62
500.335	1468.62
506.005	1410.62
511.668	1333.62
517.325	1266.62
522.977	1214.62
528.622	1176.62
534.261	1154.62
539.894	1129.62
545.521	1110.62
551.141	1090.62
556.756	1077.62
562.365	1064.62
567.968	1071.62
573.565	1053.62
579.155	1047.62
584.74	1046.62
590.319	1051.62
595.892	1042.62
601.459	1058.62
607.02	1032.62
612.575	1032.62
618.124	1025.62
623.667	994.62
629.204	997.62
634.735	982.62
640.261	958.62
645.781	943.62
651.294	949.62
656.802	949.62
662.304	962.62
667.8	953.62
673.29	940.62
678.775	944.62
684.254	941.62
689.726	923.62
695.193	923.62
700.655	922.62
706.11	920.62
711.56	911.62
717.004	921.62
722.442	874.62
727.874	909.62
733.301	901.62
738.722	890.62
744.137	886.62
749.547	882.62
754.951	886.62
760.349	879.62
765.741	905.62
771.128	904.62
776.509	895.62
781.885	927.62
787.254	931.62
792.618	915.62
797.977	933.62
803.33	929.62
808.677	918.62
814.019	900.62
819.355	898.62
824.686	875.62
830.011	880.62
835.33	894.62
840.644	894.62
845.952	858.62
851.255	874.62
856.552	857.62
861.844	849.62
867.13	834.62
872.41	832.62
877.686	828.62
882.955	819.62
888.219	821.62
893.478	790.62
898.731	795.62
903.979	787.62
909.221	768.62
914.458	755.62
919.69	760.62
924.916	762.62
930.136	765.62
935.351	772.62
940.561	768.62
945.766	774.62
950.965	775.62
956.158	749.62
961.347	742.62
966.529	735.62
971.707	744.62
976.879	726.62
982.046	710.62
987.208	702.62
992.364	711.62
997.515	709.62
1002.66	709.62
1007.801	715.62
1012.936	723.62
1018.066	712.62
1023.19	740.62
1028.309	745.62
1033.423	742.62
1038.532	737.62
1043.636	727.62
1048.734	719.62
1053.827	714.62
1058.915	713.62
1063.998	709.62
1069.075	692.62
1074.147	711.62
1079.214	683.62
1084.276	711.62
1089.333	711.62
1094.385	719.62
1099.431	705.62
1104.472	712.62
1109.509	690.62
1114.54	686.62
1119.565	677.62
1124.586	669.62
1129.602	648.62
1134.613	638.62
1139.618	638.62
1144.619	642.62
1149.614	657.62
1154.604	641.62
1159.589	651.62
1164.57	663.62
1169.545	670.62
1174.515	669.62
1179.48	656.62
1184.44	654.62
1189.395	657.62
1194.345	629.62
1199.29	632.62
1204.23	624.62
1209.165	617.62
1214.095	636.62
1219.021	633.62
1223.941	630.62
1228.856	634.62
1233.766	659.62
1238.672	655.62
1243.572	652.62
1248.467	637.62
1253.358	642.62
1258.244	620.62
1263.124	627.62
1268	615.62
1272.871	576.62
1277.737	587.62
1282.599	582.62
1287.455	577.62
1292.306	593.62
1297.153	567.62
1301.995	583.62
1306.832	573.62
1311.664	589.62
1316.491	580.62
1321.314	587.62
1326.132	570.62
1330.945	578.62
1335.753	564.62
1340.556	543.62
1345.354	556.62
1350.148	531.62
1354.937	540.62
1359.722	525.62
1364.501	511.62
1369.276	521.62
1374.046	527.62
1378.811	521.62
1383.572	524.62
1388.327	526.62
1393.079	509.62
1397.825	502.62
1402.567	507.62
1407.304	507.62
1412.036	504.62
1416.764	497.62
1421.487	477.62
1426.205	488.62
1430.919	497.62
1435.628	494.62
1440.333	481.62
1445.032	512.62
1449.727	508.62
1454.418	511.62
1459.104	504.62
1463.785	483.62
1468.462	504.62
1473.134	480.62
1477.802	478.62
1482.465	449.62
1487.123	471.62
1491.777	440.62
1496.426	433.62
1501.071	480.62
1505.711	451.62
1510.347	474.62
1514.978	473.62
1519.604	464.62
1524.226	478.62
1528.844	447.62
1533.457	462.62
1538.065	465.62
1542.669	456.62
1547.269	456.62
1551.864	453.62
1556.454	442.62
1561.041	453.62
1565.622	442.62
1570.199	453.62
1574.772	457.62
1579.34	465.62
1583.904	463.62
1588.464	468.62
1593.019	475.62
1597.569	463.62
1602.115	459.62
1606.657	451.62
1611.195	473.62
1615.728	472.62
1620.256	444.62
1624.78	421.62
1629.3	451.62
1633.816	461.62
1638.327	441.62
1642.834	459.62
1647.336	453.62
1651.834	475.62
1656.328	454.62
1660.817	458.62
1665.302	457.62
1669.783	446.62
1674.259	431.62
1678.732	426.62
1683.199	416.62
1687.663	394.62
1692.122	403.62
1696.577	395.62
1701.028	396.62
1705.474	376.62
1709.917	361.62
1714.355	368.62
1718.788	358.62
1723.218	343.62
1727.643	341.62
1732.064	348.62
1736.481	332.62
1740.893	338.62
1745.301	326.62
1749.705	293.62
1754.105	323.62
1758.501	314.62
1762.893	313.62
1767.28	286.62
1771.663	288.62
1776.042	285.62
1780.417	275.62
1784.787	288.62
1789.154	301.62
1793.516	288.62
1797.874	286.62
1802.228	278.62
1806.578	264.62
1810.924	284.62
1815.266	168.62
1819.603	282.62
1823.937	278.62
1828.266	273.62
1832.591	276.62
1836.913	258.62
1841.23	262.62
1845.543	265.62
1849.852	263.62
1854.156	256.62
1858.457	258.62
1862.754	248.62
1867.047	254.62
1871.335	270.62
1875.62	273.62
1879.9	269.62
1884.177	261.62
1888.449	261.62
1892.718	262.62
1896.982	268.62
1901.243	242.62
1905.499	242.62
1909.752	246.62
1914	222.62
1918.245	251.62
1922.485	255.62
1926.722	251.62
1930.954	236.62
1935.183	250.62
1939.408	255.62
1943.628	253.62
1947.845	249.62
1952.058	246.62
1956.267	237.62
1960.472	253.62
1964.673	235.62
1968.87	226.62
1973.063	230.62
1977.252	229.62
1981.438	215.62
1985.619	224.62
1989.797	208.62
1993.971	213.62
1998.14	218.62
2002.306	224.62
2006.469	216.62
2010.627	207.62
2014.781	214.62
2018.932	197.62
2023.078	230.62
2027.221	214.62
2031.36	187.62
2035.495	206.62
2039.627	213.62
2043.754	207.62
2047.878	195.62
2051.998	198.62
2056.114	193.62
2060.226	198.62
2064.334	197.62
2068.439	205.62
2072.54	209.62
2076.637	197.62
2080.73	192.62
2084.82	190.62
2088.906	187.62
2092.988	191.62
2097.066	199.62
2101.14	204.62
2105.211	204.62
2109.278	185.62
2113.342	182.62
2117.401	179.62
2121.457	175.62
2125.509	172.62
2129.558	185.62
2133.602	184.62
2137.643	186.62
2141.681	175.62
2145.714	178.62
2149.744	180.62
2153.77	173.62
2157.793	161.62
2161.812	141.62
2165.827	145.62
2169.838	168.62
2173.846	154.62
2177.851	154.62
2181.851	167.62
2185.848	153.62
2189.841	150.62
2193.831	145.62
2197.817	151.62
2201.799	149.62
2205.778	139.62
2209.753	137.62
2213.725	141.62
2217.693	143.62
2221.657	137.62
2225.618	152.62
2229.575	139.62
2233.529	142.62
2237.479	146.62
2241.425	135.62
2245.368	119.62
2249.307	136.62
2253.243	132.62
2257.175	133.62
2261.104	129.62
2265.029	131.62
2268.95	130.62
2272.868	120.62
2276.783	112.62
2280.694	125.62
2284.601	118.62
2288.505	118.62
2292.405	124.62
2296.302	105.62
2300.195	109.62
2304.085	82.62
2307.971	111.62
2311.854	87.62
2315.734	102.62
2319.609	105.62
2323.482	86.62
2327.351	90.62
2331.216	87.62
2335.078	104.62
2338.937	90.62
2342.792	88.62
2346.643	89.62
2350.492	99.62
2354.336	88.62
2358.178	94.62
2362.015	97.62
2365.85	85.62
2369.681	99.62
2373.508	99.62
2377.333	101.62
2381.153	100.62
2384.971	87.62
2388.785	96.62
2392.595	86.62
2396.402	83.62
2400.206	57.62
2404.007	77.62
2407.804	78.62
2411.597	88.62
2415.388	81.62
2419.174	84.62
2422.958	84.62
2426.738	77.62
2430.515	93.62
2434.289	73.62
2438.059	72.62
2441.825	78.62
2445.589	85.62
2449.349	62.62
2453.106	79.62
2456.859	78.62
2460.61	74.62
2464.356	66.62
2468.1	66.62
2471.84	60.62
2475.577	63.62
2479.311	62.62
2483.041	67.62
2486.768	80.62
2490.492	77.62
2494.213	63.62
2497.93	48.62
2501.644	52.62
2505.355	62.62
2509.062	65.62
2512.766	61.62
2516.467	58.62
2520.165	61.62
2523.859	47.62
2527.551	83.62
2531.239	51.62
2534.923	66.62
2538.605	61.62
2542.283	63.62
2545.958	59.62
2549.63	73.62
2553.299	71.62
2556.964	53.62
2560.626	52.62
2564.285	61.62
2567.941	44.62
2571.594	42.62
2575.243	61.62
2578.89	49.62
2582.533	52.62
2586.173	49.62
2589.809	54.62
2593.443	31.62
2597.073	50.62
2600.701	53.62
2604.325	50.62
2607.946	36.62
2611.564	51.62
2615.178	50.62
2618.79	52.62
2622.398	43.62
2626.004	49.62
2629.606	42.62
2633.205	42.62
2636.801	46.62
2640.394	49.62
2643.983	41.62
2647.57	34.62
2651.153	32.62
2654.734	45.62
2658.311	27.62
2661.885	31.62
2665.456	35.62
2669.025	36.62
2672.589	28.62
2676.151	50.62
2679.71	50.62
2683.266	39.62
2686.819	25.62
2690.368	42.62
2693.915	42.62
2697.458	40.62
2700.999	47.62
2704.536	42.62
2708.071	34.62
2711.602	37.62
2715.13	33.62
2718.656	14.62
2722.178	30.62
2725.697	18.62
2729.214	26.62
2732.727	24.62
2736.237	16.62
2739.744	23.62
2743.249	15.62
2746.75	28.62
2750.248	14.62
2753.743	26.62
2757.236	26.62
2760.725	27.62
2764.211	-2.38
2767.695	24.62
2771.175	27.62
2774.652	22.62
2778.127	28.62
2781.598	26.62
2785.067	26.62
2788.532	20.62
2791.995	27.62
2795.455	16.62
2798.911	31.62
2802.365	18.62
2805.816	24.62
2809.264	35.62
2812.709	20.62
2816.151	28.62
2819.59	12.62
2823.026	23.62
2826.46	21.62
2829.89	30.62
2833.318	1.62
2836.742	18.62
2840.164	26.62
2843.583	24.62
2846.999	21.62
2850.412	25.62
2853.822	12.62
2857.229	32.62
2860.634	29.62
2864.035	7.62
2867.434	32.62
2870.83	25.62
2874.223	19.62
2877.613	22.62
2881	20.62
2884.385	19.62
2887.766	19.62
2891.145	27.62
2894.521	21.62
2897.894	18.62
2901.264	35.62
2904.631	27.62
2907.996	31.62
2911.358	38.62
2914.717	29.62
2918.073	30.62
2921.426	20.62
2924.777	17.62
2928.124	29.62
2931.469	42.62
2934.811	17.62
2938.15	47.62
2941.487	35.62
2944.821	47.62
2948.152	36.62
2951.48	42.62
2954.805	19.62
2958.128	49.62
2961.447	32.62
2964.765	49.62
2968.079	30.62
2971.39	41.62
2974.699	38.62
2978.005	39.62
2981.308	42.62
2984.609	28.62
2987.907	45.62
2991.202	45.62
2994.494	30.62
2997.784	42.62
3001.07	40.62
3004.355	35.62
3007.636	40.62
3010.915	48.62
3014.191	39.62
3017.464	46.62
3020.734	49.62
3024.002	51.62
3027.267	48.62
3030.53	52.62
3033.789	45.62
3037.046	48.62
3040.301	43.62
3043.552	57.62
3046.801	57.62
3050.048	62.62
3053.291	83.62
3056.532	61.62
3059.771	51.62
3063.006	65.62
3066.239	64.62
3069.469	69.62
3072.697	63.62
3075.922	62.62
3079.144	70.62
3082.364	86.62
3085.581	63.62
3088.795	94.62
3092.007	82.62
3095.216	90.62
3098.423	81.62
3101.627	61.62
3104.828	95.62
3108.026	82.62
3111.222	106.62
3114.416	107.62
3117.607	102.62
3120.795	104.62
3123.98	103.62
3127.163	98.62
3130.344	104.62
3133.521	105.62
3136.696	122.62
3139.869	115.62
3143.039	108.62
3146.206	131.62
3149.371	129.62
3152.533	124.62
3155.693	115.62
3158.85	125.62
3162.005	133.62
3165.157	123.62
3168.306	123.62
3171.453	138.62
3174.597	117.62
3177.739	110.62
3180.878	132.62
3184.014	130.62
3187.149	131.62
3190.28	132.62
3193.409	133.62
3196.536	133.62
3199.659	143.62
3202.781	143.62
3205.9	125.62
3209.016	135.62
3212.13	128.62
3215.241	122.62
3218.35	134.62
3221.456	129.62
3224.56	116.62
3227.661	127.62
3230.76	128.62
3233.856	120.62
3236.95	130.62
3240.041	112.62
3243.13	126.62
3246.216	127.62
3249.3	134.62
3252.382	121.62
3255.46	117.62
3258.537	67.62
3261.611	112.62
3264.682	119.62
3267.751	111.62
3270.818	106.62
3273.882	122.62
3276.943	110.62
3280.002	122.62
3283.059	108.62
3286.113	112.62
3289.165	105.62
3292.214	99.62
3295.261	109.62
3298.306	88.62
3301.348	102.62
3304.387	96.62
3307.425	100.62
3310.459	97.62
3313.492	107.62
3316.521	91.62
3319.549	104.62
3322.574	100.62
3325.597	96.62
3328.617	84.62
3331.635	85.62
3334.65	75.62
3337.663	93.62
3340.674	84.62
3343.682	92.62
3346.688	97.62
3349.691	85.62
3352.692	83.62
3355.691	95.62
3358.687	95.62
3361.681	92.62
3364.673	87.62
3367.662	97.62
3370.649	95.62
3373.633	81.62
3376.615	90.62
3379.595	69.62
3382.572	77.62
3385.547	74.62
3388.52	65.62
3391.49	73.62
3394.458	72.62
3397.424	77.62
3400.387	62.62
3403.348	72.62
3406.307	69.62
3409.263	68.62
3412.217	71.62
3415.168	69.62
3418.118	73.62
3421.065	63.62
3424.009	77.62
3426.951	59.62
3429.891	61.62
3432.829	64.62
3435.764	60.62
3438.697	52.62
3441.628	64.62
3444.557	43.62
3447.483	44.62
3450.407	51.62
3453.328	52.62
3456.247	43.62
3459.164	41.62
3462.079	54.62
3464.991	46.62
3467.902	36.62
3470.809	39.62
3473.715	50.62
3476.618	31.62
3479.519	43.62
3482.418	14.62
3485.315	23.62
3488.209	23.62
3491.101	28.62
3493.99	15.62
3496.878	16.62
3499.763	25.62
3502.646	25.62
3505.527	9.62
3508.405	16.62
3511.281	3.62
3514.155	13.62
3517.027	15.62
3519.897	1.62
3522.764	8.62
3525.629	-16.38
3528.492	1.62
3531.352	1.62
3534.211	3.62
3537.067	-6.38
3539.921	1.62
3542.773	4.62
3545.622	-10.38
3548.469	-9.38
3551.315	-13.38
3554.157	-7.38
3556.998	-14.38
3559.837	-12.38
3562.673	-9.38
3565.507	-19.38
3568.339	-21.38
3571.169	-15.38
3573.996	-10.38
3576.822	-30.38
3579.645	-25.38
3582.466	-17.38
3585.285	-9.38
3588.101	-16.38
3590.916	-18.38
3593.728	-14.38
3596.538	-23.38
3599.346	-11.38
3602.152	-22.38
3604.956	-20.38
3607.757	-11.38
3610.556	-32.38
3613.354	-16.38
3616.149	-16.38
3618.942	-15.38
3621.732	-17.38
3624.521	-27.38
3627.307	-33.38
3630.092	-31.38
3632.874	-15.38
3635.654	-26.38
3638.432	-33.38
3641.208	-29.38
3643.982	-29.38
3646.753	-21.38
3649.523	-50.38
3652.29	-30.38
3655.055	-22.38
3657.818	-27.38
3660.579	-34.38
3663.338	-42.38
3666.095	-34.38
3668.849	-58.38
3671.602	-26.38
3674.352	-43.38
3677.101	-21.38
3679.847	-20.38
3682.591	-36.38
3685.333	-35.38
3688.073	-30.38
3690.811	-35.38
3693.547	-41.38
3696.281	-33.38
3699.013	-24.38
3701.742	-34.38
3704.47	-40.38
3707.195	-27.38
3709.919	-31.38
3712.64	-32.38
3715.359	-41.38
3718.076	-18.38
3720.792	-30.38
3723.505	-28.38
3726.216	-18.38
3728.925	-35.38
3731.632	-39.38
3734.336	-35.38
3737.039	-34.38
3739.74	-30.38
3742.439	-55.38
3745.136	-27.38
3747.83	-25.38
3750.523	-29.38
3753.213	-89.38
3755.902	-35.38
3758.589	-48.38
3761.273	-38.38
3763.956	-29.38
3766.636	-50.38
3769.315	-23.38
3771.991	-33.38
3774.665	-39.38
3777.338	-36.38
3780.008	-46.38
3782.677	-34.38
3785.343	-50.38
3788.007	-50.38
3790.67	-29.38
3793.33	-40.38
3795.989	-35.38
3798.645	-33.38
3801.299	-46.38
3803.952	-42.38
3806.602	-34.38
3809.251	-29.38
3811.897	-39.38
3814.542	-31.38
3817.184	-33.38
3819.825	-31.38
3822.463	-46.38
3825.1	-34.38
3827.735	-28.38
3830.367	-39.38
3832.998	-19.38
3835.627	-36.38
3838.253	-27.38
3840.878	-38.38
3843.501	-21.38
3846.122	-34.38
3848.741	-28.38
3851.358	-23.38
3853.973	-43.38
3856.586	-21.38
3859.197	-42.38
3861.806	-36.38
3864.414	-47.38
3867.019	-37.38
3869.622	-30.38
3872.224	-26.38
3874.823	-16.38
3877.421	-2.38
3880.016	9.62
3882.61	47.62
3885.202	56.62
3887.792	35.62
3890.38	10.62
3892.966	-22.38
3895.55	-38.38
3898.132	-26.38
3900.713	-28.38
3903.291	-27.38
3905.868	-42.38
3908.442	-31.38
3911.015	-31.38
3913.586	-37.38
3916.155	-37.38
3918.722	-38.38
3921.287	-38.38
3923.85	-49.38
3926.411	-40.38
3928.971	-43.38
3931.528	-29.38
3934.084	-37.38
3936.638	-41.38
3939.19	-33.38
3941.74	-35.38
3944.288	-40.38
3946.834	-37.38
3949.378	-28.38
3951.921	-43.38
3954.462	-35.38
3957	-35.38
3959.537	-20.38
3962.072	-41.38
3964.606	-50.38
3967.137	-44.38
3969.667	-41.38
3972.194	-29.38
3974.72	-37.38
3977.244	-60.38
3979.766	-41.38
3982.286	-41.38
3984.805	-30.38
3987.321	-23.38
3989.836	-30.38
3992.349	-40.38
3994.86	-30.38
3997.369	-40.38
3999.877	-41.38
4002.382	-37.38
4004.886	-29.38
4007.388	-28.38
4009.888	-27.38
4012.386	-26.38
4014.883	-31.38
4017.377	-31.38
4019.87	-32.38
4022.361	-45.38
4024.85	-35.38
4027.338	-33.38
4029.823	-41.38
4032.307	-33.38
4034.789	-34.38
4037.269	-34.38
4039.747	-49.38
4042.224	-26.38
4044.699	-40.38
4047.172	-39.38
4049.643	-27.38
4052.112	-59.38
4054.58	-35.38
4057.046	-43.38
4059.51	-31.38
4061.972	-36.38
4064.432	-55.38
4066.891	-24.38
4069.348	-35.38
4071.803	-32.38
4074.256	-37.38
4076.708	-29.38
4079.158	-31.38
4081.606	-18.38
4084.052	-32.38
4086.497	-29.38
4088.939	-31.38
4091.38	-37.38
4093.819	-24.38
4096.257	0.62
4098.693	-5.38
4101.127	-3.38
4103.559	3.62
4105.989	50.62
4108.418	52.62
4110.845	40.62
4113.27	47.62
4115.694	48.62
4118.115	35.62
4120.535	-33.38
4122.954	-25.38
4125.37	-23.38
4127.785	-31.38
4130.198	-23.38
4132.609	-31.38
4135.019	8.62
4137.427	-0.38
4139.833	1.62
4142.237	-5.38
