Data from 2018-3-6_conc=3_n=9_RamanShift_04.txt Node
Date: Tue Mar 06 13:41:49 GMT+02:00 2018
User: LAB3
Spectrometer: QEPB0276
Trigger mode: 0
Integration Time (sec): 3.000000E1
Scans to average: 1
Electric dark correction enabled: true
Nonlinearity correction enabled: false
Boxcar width: 0
XAxis mode: Raman Shifts
Number of Pixels in Spectrum: 1044
>>>>>Begin Spectral Data<<<<<
160.701	96.38
166.742	124.38
172.777	190.38
178.805	394.38
184.826	903.38
190.841	1807.38
196.849	2889.38
202.85	3700.38
208.845	4004.38
214.833	3999.38
220.815	3945.38
226.789	3952.38
232.758	3993.38
238.719	3992.38
244.674	3961.38
250.623	3939.38
256.565	3917.38
262.5	3882.38
268.429	3873.38
274.351	3866.38
280.267	3863.38
286.176	3853.38
292.079	3861.38
297.975	3876.38
303.865	3901.38
309.748	3866.38
315.625	3864.38
321.495	3895.38
327.359	3903.38
333.217	3903.38
339.068	3910.38
344.912	3932.38
350.751	3946.38
356.583	3999.38
362.408	3973.38
368.227	3993.38
374.04	4017.38
379.847	4021.38
385.647	4070.38
391.44	4063.38
397.228	4084.38
403.009	4125.38
408.784	4109.38
414.553	4165.38
420.315	4166.38
426.071	4168.38
431.821	4168.38
437.565	4170.38
443.302	4160.38
449.033	4114.38
454.758	4115.38
460.477	4086.38
466.189	4054.38
471.896	4017.38
477.596	3997.38
483.29	3973.38
488.978	3947.38
494.66	3903.38
500.335	3847.38
506.005	3697.38
511.668	3504.38
517.325	3313.38
522.977	3199.38
528.622	3089.38
534.261	3030.38
539.894	2974.38
545.521	2933.38
551.141	2880.38
556.756	2860.38
562.365	2863.38
567.968	2821.38
573.565	2788.38
579.155	2797.38
584.74	2765.38
590.319	2785.38
595.892	2774.38
601.459	2758.38
607.02	2761.38
612.575	2736.38
618.124	2706.38
623.667	2652.38
629.204	2618.38
634.735	2593.38
640.261	2568.38
645.781	2512.38
651.294	2522.38
656.802	2524.38
662.304	2529.38
667.8	2506.38
673.29	2501.38
678.775	2503.38
684.254	2483.38
689.726	2458.38
695.193	2455.38
700.655	2440.38
706.11	2431.38
711.56	2434.38
717.004	2398.38
722.442	2398.38
727.874	2394.38
733.301	2383.38
738.722	2350.38
744.137	2357.38
749.547	2356.38
754.951	2355.38
760.349	2368.38
765.741	2400.38
771.128	2391.38
776.509	2413.38
781.885	2461.38
787.254	2492.38
792.618	2462.38
797.977	2500.38
803.33	2470.38
808.677	2441.38
814.019	2425.38
819.355	2375.38
824.686	2377.38
830.011	2378.38
835.33	2369.38
840.644	2352.38
845.952	2323.38
851.255	2322.38
856.552	2301.38
861.844	2292.38
867.13	2243.38
872.41	2227.38
877.686	2206.38
882.955	2197.38
888.219	2161.38
893.478	2124.38
898.731	2121.38
903.979	2109.38
909.221	2061.38
914.458	2066.38
919.69	2067.38
924.916	2065.38
930.136	2068.38
935.351	2023.38
940.561	2078.38
945.766	2077.38
950.965	2076.38
956.158	2037.38
961.347	2018.38
966.529	2000.38
971.707	1990.38
976.879	1954.38
982.046	1912.38
987.208	1906.38
992.364	1922.38
997.515	1926.38
1002.66	1934.38
1007.801	1957.38
1012.936	1948.38
1018.066	1946.38
1023.19	1995.38
1028.309	1978.38
1033.423	2012.38
1038.532	1993.38
1043.636	1982.38
1048.734	1974.38
1053.827	1933.38
1058.915	1916.38
1063.998	1906.38
1069.075	1902.38
1074.147	1908.38
1079.214	1903.38
1084.276	1920.38
1089.333	1911.38
1094.385	1922.38
1099.431	1911.38
1104.472	1919.38
1109.509	1890.38
1114.54	1873.38
1119.565	1829.38
1124.586	1813.38
1129.602	1774.38
1134.613	1775.38
1139.618	1764.38
1144.619	1754.38
1149.614	1767.38
1154.604	1752.38
1159.589	1756.38
1164.57	1802.38
1169.545	1812.38
1174.515	1780.38
1179.48	1784.38
1184.44	1780.38
1189.395	1765.38
1194.345	1746.38
1199.29	1756.38
1204.23	1721.38
1209.165	1715.38
1214.095	1736.38
1219.021	1750.38
1223.941	1734.38
1228.856	1758.38
1233.766	1764.38
1238.672	1771.38
1243.572	1767.38
1248.467	1742.38
1253.358	1730.38
1258.244	1694.38
1263.124	1673.38
1268	1651.38
1272.871	1606.38
1277.737	1611.38
1282.599	1603.38
1287.455	1571.38
1292.306	1610.38
1297.153	1591.38
1301.995	1611.38
1306.832	1605.38
1311.664	1601.38
1316.491	1606.38
1321.314	1615.38
1326.132	1583.38
1330.945	1569.38
1335.753	1537.38
1340.556	1515.38
1345.354	1491.38
1350.148	1472.38
1354.937	1464.38
1359.722	1441.38
1364.501	1432.38
1369.276	1446.38
1374.046	1443.38
1378.811	1433.38
1383.572	1446.38
1388.327	1430.38
1393.079	1402.38
1397.825	1399.38
1402.567	1384.38
1407.304	1379.38
1412.036	1375.38
1416.764	1360.38
1421.487	1353.38
1426.205	1352.38
1430.919	1364.38
1435.628	1384.38
1440.333	1362.38
1445.032	1384.38
1449.727	1383.38
1454.418	1415.38
1459.104	1390.38
1463.785	1364.38
1468.462	1378.38
1473.134	1348.38
1477.802	1346.38
1482.465	1274.38
1487.123	1286.38
1491.777	1256.38
1496.426	1263.38
1501.071	1284.38
1505.711	1251.38
1510.347	1284.38
1514.978	1301.38
1519.604	1301.38
1524.226	1318.38
1528.844	1291.38
1533.457	1289.38
1538.065	1286.38
1542.669	1267.38
1547.269	1249.38
1551.864	1260.38
1556.454	1242.38
1561.041	1245.38
1565.622	1244.38
1570.199	1266.38
1574.772	1266.38
1579.34	1271.38
1583.904	1278.38
1588.464	1300.38
1593.019	1295.38
1597.569	1295.38
1602.115	1286.38
1606.657	1279.38
1611.195	1278.38
1615.728	1279.38
1620.256	1254.38
1624.78	1234.38
1629.3	1260.38
1633.816	1255.38
1638.327	1252.38
1642.834	1281.38
1647.336	1283.38
1651.834	1313.38
1656.328	1281.38
1660.817	1286.38
1665.302	1268.38
1669.783	1260.38
1674.259	1238.38
1678.732	1206.38
1683.199	1174.38
1687.663	1146.38
1692.122	1141.38
1696.577	1112.38
1701.028	1096.38
1705.474	1078.38
1709.917	1039.38
1714.355	1036.38
1718.788	1026.38
1723.218	1000.38
1727.643	987.38
1732.064	993.38
1736.481	972.38
1740.893	953.38
1745.301	929.38
1749.705	896.38
1754.105	904.38
1758.501	870.38
1762.893	884.38
1767.28	837.38
1771.663	839.38
1776.042	831.38
1780.417	829.38
1784.787	828.38
1789.154	835.38
1793.516	838.38
1797.874	828.38
1802.228	839.38
1806.578	813.38
1810.924	838.38
1815.266	695.38
1819.603	814.38
1823.937	783.38
1828.266	779.38
1832.591	793.38
1836.913	761.38
1841.23	766.38
1845.543	751.38
1849.852	778.38
1854.156	751.38
1858.457	768.38
1862.754	756.38
1867.047	769.38
1871.335	787.38
1875.62	768.38
1879.9	767.38
1884.177	754.38
1888.449	759.38
1892.718	745.38
1896.982	753.38
1901.243	723.38
1905.499	741.38
1909.752	727.38
1914	715.38
1918.245	730.38
1922.485	732.38
1926.722	729.38
1930.954	720.38
1935.183	729.38
1939.408	749.38
1943.628	744.38
1947.845	733.38
1952.058	712.38
1956.267	705.38
1960.472	703.38
1964.673	699.38
1968.87	684.38
1973.063	677.38
1977.252	669.38
1981.438	653.38
1985.619	647.38
1989.797	639.38
1993.971	648.38
1998.14	653.38
2002.306	652.38
2006.469	642.38
2010.627	632.38
2014.781	631.38
2018.932	628.38
2023.078	640.38
2027.221	618.38
2031.36	623.38
2035.495	604.38
2039.627	603.38
2043.754	599.38
2047.878	584.38
2051.998	599.38
2056.114	572.38
2060.226	580.38
2064.334	595.38
2068.439	595.38
2072.54	596.38
2076.637	586.38
2080.73	591.38
2084.82	583.38
2088.906	581.38
2092.988	585.38
2097.066	595.38
2101.14	577.38
2105.211	572.38
2109.278	568.38
2113.342	560.38
2117.401	553.38
2121.457	535.38
2125.509	532.38
2129.558	552.38
2133.602	543.38
2137.643	541.38
2141.681	528.38
2145.714	532.38
2149.744	536.38
2153.77	529.38
2157.793	511.38
2161.812	482.38
2165.827	478.38
2169.838	512.38
2173.846	491.38
2177.851	482.38
2181.851	478.38
2185.848	474.38
2189.841	474.38
2193.831	452.38
2197.817	456.38
2201.799	463.38
2205.778	442.38
2209.753	448.38
2213.725	431.38
2217.693	444.38
2221.657	437.38
2225.618	442.38
2229.575	435.38
2233.529	446.38
2237.479	438.38
2241.425	418.38
2245.368	400.38
2249.307	409.38
2253.243	406.38
2257.175	408.38
2261.104	398.38
2265.029	392.38
2268.95	376.38
2272.868	383.38
2276.783	372.38
2280.694	375.38
2284.601	376.38
2288.505	369.38
2292.405	364.38
2296.302	337.38
2300.195	346.38
2304.085	323.38
2307.971	337.38
2311.854	322.38
2315.734	332.38
2319.609	329.38
2323.482	300.38
2327.351	309.38
2331.216	310.38
2335.078	323.38
2338.937	315.38
2342.792	303.38
2346.643	306.38
2350.492	309.38
2354.336	302.38
2358.178	315.38
2362.015	316.38
2365.85	304.38
2369.681	302.38
2373.508	308.38
2377.333	310.38
2381.153	308.38
2384.971	301.38
2388.785	302.38
2392.595	295.38
2396.402	299.38
2400.206	274.38
2404.007	282.38
2407.804	287.38
2411.597	289.38
2415.388	285.38
2419.174	281.38
2422.958	289.38
2426.738	281.38
2430.515	295.38
2434.289	268.38
2438.059	266.38
2441.825	272.38
2445.589	280.38
2449.349	256.38
2453.106	273.38
2456.859	270.38
2460.61	271.38
2464.356	251.38
2468.1	246.38
2471.84	255.38
2475.577	248.38
2479.311	250.38
2483.041	249.38
2486.768	267.38
2490.492	262.38
2494.213	254.38
2497.93	236.38
2501.644	231.38
2505.355	240.38
2509.062	234.38
2512.766	232.38
2516.467	237.38
2520.165	234.38
2523.859	222.38
2527.551	264.38
2531.239	224.38
2534.923	237.38
2538.605	229.38
2542.283	222.38
2545.958	227.38
2549.63	233.38
2553.299	234.38
2556.964	220.38
2560.626	220.38
2564.285	228.38
2567.941	203.38
2571.594	210.38
2575.243	223.38
2578.89	209.38
2582.533	211.38
2586.173	207.38
2589.809	209.38
2593.443	187.38
2597.073	207.38
2600.701	213.38
2604.325	211.38
2607.946	192.38
2611.564	201.38
2615.178	200.38
2618.79	204.38
2622.398	186.38
2626.004	197.38
2629.606	199.38
2633.205	180.38
2636.801	199.38
2640.394	193.38
2643.983	188.38
2647.57	178.38
2651.153	177.38
2654.734	181.38
2658.311	157.38
2661.885	168.38
2665.456	166.38
2669.025	171.38
2672.589	158.38
2676.151	180.38
2679.71	171.38
2683.266	164.38
2686.819	155.38
2690.368	158.38
2693.915	160.38
2697.458	154.38
2700.999	154.38
2704.536	160.38
2708.071	158.38
2711.602	155.38
2715.13	154.38
2718.656	138.38
2722.178	144.38
2725.697	131.38
2729.214	140.38
2732.727	141.38
2736.237	130.38
2739.744	141.38
2743.249	134.38
2746.75	141.38
2750.248	140.38
2753.743	146.38
2757.236	130.38
2760.725	147.38
2764.211	116.38
2767.695	141.38
2771.175	140.38
2774.652	142.38
2778.127	126.38
2781.598	135.38
2785.067	138.38
2788.532	122.38
2791.995	134.38
2795.455	129.38
2798.911	142.38
2802.365	129.38
2805.816	136.38
2809.264	147.38
2812.709	128.38
2816.151	141.38
2819.59	127.38
2823.026	134.38
2826.46	140.38
2829.89	144.38
2833.318	114.38
2836.742	132.38
2840.164	135.38
2843.583	135.38
2846.999	136.38
2850.412	138.38
2853.822	134.38
2857.229	151.38
2860.634	143.38
2864.035	122.38
2867.434	140.38
2870.83	148.38
2874.223	147.38
2877.613	146.38
2881	146.38
2884.385	141.38
2887.766	138.38
2891.145	157.38
2894.521	153.38
2897.894	141.38
2901.264	158.38
2904.631	153.38
2907.996	161.38
2911.358	170.38
2914.717	163.38
2918.073	148.38
2921.426	152.38
2924.777	143.38
2928.124	161.38
2931.469	174.38
2934.811	153.38
2938.15	173.38
2941.487	167.38
2944.821	185.38
2948.152	167.38
2951.48	176.38
2954.805	159.38
2958.128	182.38
2961.447	167.38
2964.765	179.38
2968.079	170.38
2971.39	183.38
2974.699	175.38
2978.005	187.38
2981.308	180.38
2984.609	174.38
2987.907	182.38
2991.202	192.38
2994.494	173.38
2997.784	186.38
3001.07	190.38
3004.355	185.38
3007.636	182.38
3010.915	194.38
3014.191	179.38
3017.464	190.38
3020.734	192.38
3024.002	192.38
3027.267	200.38
3030.53	195.38
3033.789	199.38
3037.046	200.38
3040.301	202.38
3043.552	210.38
3046.801	215.38
3050.048	218.38
3053.291	239.38
3056.532	226.38
3059.771	217.38
3063.006	242.38
3066.239	242.38
3069.469	260.38
3072.697	250.38
3075.922	259.38
3079.144	260.38
3082.364	281.38
3085.581	269.38
3088.795	298.38
3092.007	296.38
3095.216	303.38
3098.423	293.38
3101.627	285.38
3104.828	312.38
3108.026	309.38
3111.222	334.38
3114.416	344.38
3117.607	347.38
3120.795	359.38
3123.98	350.38
3127.163	344.38
3130.344	361.38
3133.521	358.38
3136.696	389.38
3139.869	381.38
3143.039	388.38
3146.206	415.38
3149.371	408.38
3152.533	407.38
3155.693	398.38
3158.85	414.38
3162.005	416.38
3165.157	416.38
3168.306	418.38
3171.453	437.38
3174.597	407.38
3177.739	410.38
3180.878	426.38
3184.014	438.38
3187.149	429.38
3190.28	428.38
3193.409	442.38
3196.536	430.38
3199.659	439.38
3202.781	443.38
3205.9	433.38
3209.016	428.38
3212.13	429.38
3215.241	427.38
3218.35	428.38
3221.456	422.38
3224.56	404.38
3227.661	421.38
3230.76	408.38
3233.856	414.38
3236.95	414.38
3240.041	401.38
3243.13	408.38
3246.216	403.38
3249.3	403.38
3252.382	403.38
3255.46	394.38
3258.537	347.38
3261.611	389.38
3264.682	387.38
3267.751	392.38
3270.818	374.38
3273.882	380.38
3276.943	383.38
3280.002	394.38
3283.059	378.38
3286.113	381.38
3289.165	368.38
3292.214	357.38
3295.261	382.38
3298.306	349.38
3301.348	356.38
3304.387	340.38
3307.425	354.38
3310.459	334.38
3313.492	347.38
3316.521	330.38
3319.549	351.38
3322.574	333.38
3325.597	334.38
3328.617	323.38
3331.635	325.38
3334.65	304.38
3337.663	324.38
3340.674	308.38
3343.682	319.38
3346.688	326.38
3349.691	314.38
3352.692	320.38
3355.691	320.38
3358.687	311.38
3361.681	313.38
3364.673	303.38
3367.662	312.38
3370.649	309.38
3373.633	290.38
3376.615	291.38
3379.595	273.38
3382.572	279.38
3385.547	280.38
3388.52	261.38
3391.49	265.38
3394.458	275.38
3397.424	286.38
3400.387	260.38
3403.348	265.38
3406.307	266.38
3409.263	258.38
3412.217	262.38
3415.168	252.38
3418.118	259.38
3421.065	247.38
3424.009	256.38
3426.951	242.38
3429.891	241.38
3432.829	238.38
3435.764	241.38
3438.697	217.38
3441.628	232.38
3444.557	208.38
3447.483	206.38
3450.407	214.38
3453.328	192.38
3456.247	199.38
3459.164	185.38
3462.079	192.38
3464.991	182.38
3467.902	179.38
3470.809	170.38
3473.715	172.38
3476.618	158.38
3479.519	165.38
3482.418	140.38
3485.315	146.38
3488.209	143.38
3491.101	145.38
3493.99	122.38
3496.878	126.38
3499.763	124.38
3502.646	123.38
3505.527	112.38
3508.405	112.38
3511.281	92.38
3514.155	110.38
3517.027	103.38
3519.897	86.38
3522.764	92.38
3525.629	72.38
3528.492	88.38
3531.352	88.38
3534.211	79.38
3537.067	67.38
3539.921	71.38
3542.773	74.38
3545.622	60.38
3548.469	49.38
3551.315	45.38
3554.157	53.38
3556.998	41.38
3559.837	49.38
3562.673	50.38
3565.507	39.38
3568.339	33.38
3571.169	40.38
3573.996	36.38
3576.822	13.38
3579.645	25.38
3582.466	22.38
3585.285	30.38
3588.101	25.38
3590.916	18.38
3593.728	28.38
3596.538	22.38
3599.346	22.38
3602.152	9.38
3604.956	14.38
3607.757	12.38
3610.556	2.38
3613.354	12.38
3616.149	10.38
3618.942	12.38
3621.732	6.38
3624.521	4.38
3627.307	-8.62
3630.092	-2.62
3632.874	12.38
3635.654	2.38
3638.432	-6.62
3641.208	-7.62
3643.982	-6.62
3646.753	3.38
3649.523	-27.62
3652.29	-10.62
3655.055	-2.62
3657.818	-9.62
3660.579	-12.62
3663.338	-19.62
3666.095	-18.62
3668.849	-36.62
3671.602	-7.62
3674.352	-23.62
3677.101	-6.62
3679.847	-9.62
3682.591	-24.62
3685.333	-31.62
3688.073	-15.62
3690.811	-28.62
3693.547	-30.62
3696.281	-33.62
3699.013	-16.62
3701.742	-21.62
3704.47	-32.62
3707.195	-17.62
3709.919	-21.62
3712.64	-21.62
3715.359	-32.62
3718.076	-10.62
3720.792	-25.62
3723.505	-22.62
3726.216	-10.62
3728.925	-27.62
3731.632	-33.62
3734.336	-22.62
3737.039	-26.62
3739.74	-25.62
3742.439	-48.62
3745.136	-18.62
3747.83	-25.62
3750.523	-21.62
3753.213	-90.62
3755.902	-30.62
3758.589	-44.62
3761.273	-29.62
3763.956	-21.62
3766.636	-46.62
3769.315	-17.62
3771.991	-28.62
3774.665	-32.62
3777.338	-27.62
3780.008	-37.62
3782.677	-32.62
3785.343	-43.62
3788.007	-50.62
3790.67	-25.62
3793.33	-44.62
3795.989	-35.62
3798.645	-30.62
3801.299	-43.62
3803.952	-39.62
3806.602	-35.62
3809.251	-29.62
3811.897	-32.62
3814.542	-35.62
3817.184	-39.62
3819.825	-34.62
3822.463	-41.62
3825.1	-37.62
3827.735	-32.62
3830.367	-41.62
3832.998	-18.62
3835.627	-35.62
3838.253	-26.62
3840.878	-36.62
3843.501	-15.62
3846.122	-29.62
3848.741	-23.62
3851.358	-27.62
3853.973	-39.62
3856.586	-25.62
3859.197	-38.62
3861.806	-33.62
3864.414	-41.62
3867.019	-32.62
3869.622	-24.62
3872.224	-27.62
3874.823	-9.62
3877.421	7.38
3880.016	16.38
3882.61	48.38
3885.202	60.38
3887.792	41.38
3890.38	18.38
3892.966	-15.62
3895.55	-37.62
3898.132	-23.62
3900.713	-23.62
3903.291	-32.62
3905.868	-36.62
3908.442	-33.62
3911.015	-28.62
3913.586	-32.62
3916.155	-31.62
3918.722	-45.62
3921.287	-38.62
3923.85	-45.62
3926.411	-42.62
3928.971	-41.62
3931.528	-30.62
3934.084	-35.62
3936.638	-42.62
3939.19	-32.62
3941.74	-31.62
3944.288	-35.62
3946.834	-37.62
3949.378	-26.62
3951.921	-38.62
3954.462	-38.62
3957	-28.62
3959.537	-23.62
3962.072	-37.62
3964.606	-45.62
3967.137	-39.62
3969.667	-38.62
3972.194	-30.62
3974.72	-38.62
3977.244	-59.62
3979.766	-43.62
3982.286	-42.62
3984.805	-31.62
3987.321	-23.62
3989.836	-29.62
3992.349	-44.62
3994.86	-31.62
3997.369	-37.62
3999.877	-36.62
4002.382	-33.62
4004.886	-32.62
4007.388	-31.62
4009.888	-20.62
4012.386	-21.62
4014.883	-27.62
4017.377	-30.62
4019.87	-27.62
4022.361	-41.62
4024.85	-38.62
4027.338	-32.62
4029.823	-37.62
4032.307	-31.62
4034.789	-30.62
4037.269	-31.62
4039.747	-45.62
4042.224	-24.62
4044.699	-35.62
4047.172	-36.62
4049.643	-25.62
4052.112	-56.62
4054.58	-29.62
4057.046	-42.62
4059.51	-37.62
4061.972	-33.62
4064.432	-45.62
4066.891	-20.62
4069.348	-29.62
4071.803	-27.62
4074.256	-36.62
4076.708	-28.62
4079.158	-29.62
4081.606	-19.62
4084.052	-30.62
4086.497	-25.62
4088.939	-30.62
4091.38	-33.62
4093.819	-23.62
4096.257	1.38
4098.693	-7.62
4101.127	-6.62
4103.559	0.38
4105.989	86.38
4108.418	89.38
4110.845	79.38
4113.27	84.38
4115.694	96.38
4118.115	83.38
4120.535	-27.62
4122.954	-26.62
4125.37	-18.62
4127.785	-26.62
4130.198	-19.62
4132.609	-28.62
4135.019	8.38
4137.427	2.38
4139.833	3.38
4142.237	-1.62
