Data from 2018-3-6_conc=2_n=8_RamanShift_04.txt Node
Date: Tue Mar 06 13:04:49 GMT+02:00 2018
User: LAB3
Spectrometer: QEPB0276
Trigger mode: 0
Integration Time (sec): 3.000000E1
Scans to average: 1
Electric dark correction enabled: true
Nonlinearity correction enabled: false
Boxcar width: 0
XAxis mode: Raman Shifts
Number of Pixels in Spectrum: 1044
>>>>>Begin Spectral Data<<<<<
160.701	157.5
166.742	189.5
172.777	290.5
178.805	594.5
184.826	1332.5
190.841	2679.5
196.849	4305.5
202.85	5475.5
208.845	5950.5
214.833	5964.5
220.815	5908.5
226.789	5922.5
232.758	5968.5
238.719	5959.5
244.674	5969.5
250.623	5946.5
256.565	5858.5
262.5	5823.5
268.429	5836.5
274.351	5780.5
280.267	5797.5
286.176	5798.5
292.079	5855.5
297.975	5868.5
303.865	5874.5
309.748	5891.5
315.625	5903.5
321.495	5901.5
327.359	5929.5
333.217	5923.5
339.068	5936.5
344.912	5994.5
350.751	6012.5
356.583	6017.5
362.408	6035.5
368.227	6110.5
374.04	6120.5
379.847	6141.5
385.647	6188.5
391.44	6192.5
397.228	6274.5
403.009	6268.5
408.784	6310.5
414.553	6322.5
420.315	6336.5
426.071	6369.5
431.821	6332.5
437.565	6364.5
443.302	6322.5
449.033	6310.5
454.758	6269.5
460.477	6224.5
466.189	6148.5
471.896	6118.5
477.596	6047.5
483.29	6019.5
488.978	6025.5
494.66	5963.5
500.335	5806.5
506.005	5571.5
511.668	5280.5
517.325	5002.5
522.977	4792.5
528.622	4641.5
534.261	4527.5
539.894	4437.5
545.521	4379.5
551.141	4330.5
556.756	4220.5
562.365	4197.5
567.968	4175.5
573.565	4161.5
579.155	4156.5
584.74	4097.5
590.319	4103.5
595.892	4116.5
601.459	4102.5
607.02	4070.5
612.575	4063.5
618.124	4018.5
623.667	3914.5
629.204	3878.5
634.735	3848.5
640.261	3796.5
645.781	3754.5
651.294	3717.5
656.802	3738.5
662.304	3724.5
667.8	3708.5
673.29	3676.5
678.775	3697.5
684.254	3646.5
689.726	3655.5
695.193	3630.5
700.655	3589.5
706.11	3577.5
711.56	3551.5
717.004	3534.5
722.442	3517.5
727.874	3529.5
733.301	3508.5
738.722	3516.5
744.137	3475.5
749.547	3478.5
754.951	3484.5
760.349	3504.5
765.741	3512.5
771.128	3567.5
776.509	3587.5
781.885	3655.5
787.254	3680.5
792.618	3714.5
797.977	3690.5
803.33	3673.5
808.677	3630.5
814.019	3605.5
819.355	3556.5
824.686	3502.5
830.011	3507.5
835.33	3523.5
840.644	3491.5
845.952	3434.5
851.255	3430.5
856.552	3391.5
861.844	3347.5
867.13	3291.5
872.41	3270.5
877.686	3236.5
882.955	3221.5
888.219	3189.5
893.478	3148.5
898.731	3111.5
903.979	3080.5
909.221	3056.5
914.458	3015.5
919.69	3021.5
924.916	3030.5
930.136	3045.5
935.351	3046.5
940.561	3041.5
945.766	3033.5
950.965	3032.5
956.158	2968.5
961.347	2960.5
966.529	2930.5
971.707	2896.5
976.879	2842.5
982.046	2843.5
987.208	2825.5
992.364	2811.5
997.515	2819.5
1002.66	2861.5
1007.801	2853.5
1012.936	2873.5
1018.066	2846.5
1023.19	2906.5
1028.309	2939.5
1033.423	2916.5
1038.532	2945.5
1043.636	2899.5
1048.734	2882.5
1053.827	2846.5
1058.915	2817.5
1063.998	2824.5
1069.075	2811.5
1074.147	2803.5
1079.214	2792.5
1084.276	2812.5
1089.333	2824.5
1094.385	2822.5
1099.431	2813.5
1104.472	2811.5
1109.509	2771.5
1114.54	2732.5
1119.565	2678.5
1124.586	2676.5
1129.602	2626.5
1134.613	2580.5
1139.618	2584.5
1144.619	2580.5
1149.614	2589.5
1154.604	2579.5
1159.589	2587.5
1164.57	2612.5
1169.545	2629.5
1174.515	2614.5
1179.48	2628.5
1184.44	2573.5
1189.395	2588.5
1194.345	2553.5
1199.29	2535.5
1204.23	2512.5
1209.165	2528.5
1214.095	2543.5
1219.021	2548.5
1223.941	2539.5
1228.856	2589.5
1233.766	2590.5
1238.672	2581.5
1243.572	2575.5
1248.467	2568.5
1253.358	2531.5
1258.244	2482.5
1263.124	2463.5
1268	2420.5
1272.871	2361.5
1277.737	2350.5
1282.599	2333.5
1287.455	2316.5
1292.306	2335.5
1297.153	2324.5
1301.995	2358.5
1306.832	2367.5
1311.664	2367.5
1316.491	2361.5
1321.314	2343.5
1326.132	2339.5
1330.945	2309.5
1335.753	2266.5
1340.556	2225.5
1345.354	2180.5
1350.148	2155.5
1354.937	2142.5
1359.722	2108.5
1364.501	2085.5
1369.276	2083.5
1374.046	2114.5
1378.811	2079.5
1383.572	2076.5
1388.327	2096.5
1393.079	2060.5
1397.825	2045.5
1402.567	2033.5
1407.304	2017.5
1412.036	2007.5
1416.764	2011.5
1421.487	1982.5
1426.205	1988.5
1430.919	2002.5
1435.628	2005.5
1440.333	2017.5
1445.032	2055.5
1449.727	2066.5
1454.418	2065.5
1459.104	2054.5
1463.785	2019.5
1468.462	2025.5
1473.134	1985.5
1477.802	1951.5
1482.465	1911.5
1487.123	1902.5
1491.777	1871.5
1496.426	1861.5
1501.071	1887.5
1505.711	1874.5
1510.347	1916.5
1514.978	1903.5
1519.604	1903.5
1524.226	1940.5
1528.844	1882.5
1533.457	1907.5
1538.065	1871.5
1542.669	1852.5
1547.269	1841.5
1551.864	1826.5
1556.454	1799.5
1561.041	1826.5
1565.622	1833.5
1570.199	1829.5
1574.772	1831.5
1579.34	1861.5
1583.904	1891.5
1588.464	1893.5
1593.019	1898.5
1597.569	1873.5
1602.115	1882.5
1606.657	1878.5
1611.195	1885.5
1615.728	1889.5
1620.256	1858.5
1624.78	1825.5
1629.3	1854.5
1633.816	1861.5
1638.327	1864.5
1642.834	1875.5
1647.336	1907.5
1651.834	1928.5
1656.328	1909.5
1660.817	1906.5
1665.302	1867.5
1669.783	1867.5
1674.259	1828.5
1678.732	1783.5
1683.199	1763.5
1687.663	1687.5
1692.122	1676.5
1696.577	1629.5
1701.028	1613.5
1705.474	1581.5
1709.917	1557.5
1714.355	1526.5
1718.788	1508.5
1723.218	1497.5
1727.643	1478.5
1732.064	1470.5
1736.481	1422.5
1740.893	1422.5
1745.301	1377.5
1749.705	1332.5
1754.105	1337.5
1758.501	1293.5
1762.893	1284.5
1767.28	1246.5
1771.663	1247.5
1776.042	1221.5
1780.417	1217.5
1784.787	1250.5
1789.154	1236.5
1793.516	1240.5
1797.874	1243.5
1802.228	1223.5
1806.578	1234.5
1810.924	1227.5
1815.266	1096.5
1819.603	1208.5
1823.937	1157.5
1828.266	1158.5
1832.591	1154.5
1836.913	1148.5
1841.23	1138.5
1845.543	1118.5
1849.852	1138.5
1854.156	1134.5
1858.457	1134.5
1862.754	1118.5
1867.047	1131.5
1871.335	1159.5
1875.62	1137.5
1879.9	1142.5
1884.177	1129.5
1888.449	1138.5
1892.718	1121.5
1896.982	1118.5
1901.243	1090.5
1905.499	1110.5
1909.752	1095.5
1914	1080.5
1918.245	1109.5
1922.485	1124.5
1926.722	1099.5
1930.954	1100.5
1935.183	1132.5
1939.408	1135.5
1943.628	1127.5
1947.845	1098.5
1952.058	1106.5
1956.267	1073.5
1960.472	1053.5
1964.673	1047.5
1968.87	1037.5
1973.063	1014.5
1977.252	995.5
1981.438	985.5
1985.619	977.5
1989.797	965.5
1993.971	957.5
1998.14	971.5
2002.306	944.5
2006.469	953.5
2010.627	943.5
2014.781	933.5
2018.932	927.5
2023.078	956.5
2027.221	924.5
2031.36	918.5
2035.495	907.5
2039.627	904.5
2043.754	888.5
2047.878	890.5
2051.998	896.5
2056.114	880.5
2060.226	868.5
2064.334	886.5
2068.439	898.5
2072.54	887.5
2076.637	890.5
2080.73	878.5
2084.82	884.5
2088.906	890.5
2092.988	896.5
2097.066	893.5
2101.14	894.5
2105.211	880.5
2109.278	850.5
2113.342	854.5
2117.401	839.5
2121.457	820.5
2125.509	824.5
2129.558	822.5
2133.602	814.5
2137.643	800.5
2141.681	790.5
2145.714	796.5
2149.744	790.5
2153.77	784.5
2157.793	764.5
2161.812	740.5
2165.827	731.5
2169.838	754.5
2173.846	726.5
2177.851	705.5
2181.851	717.5
2185.848	689.5
2189.841	694.5
2193.831	687.5
2197.817	683.5
2201.799	672.5
2205.778	666.5
2209.753	658.5
2213.725	655.5
2217.693	649.5
2221.657	649.5
2225.618	666.5
2229.575	650.5
2233.529	654.5
2237.479	644.5
2241.425	634.5
2245.368	613.5
2249.307	617.5
2253.243	604.5
2257.175	609.5
2261.104	577.5
2265.029	578.5
2268.95	589.5
2272.868	559.5
2276.783	561.5
2280.694	549.5
2284.601	554.5
2288.505	542.5
2292.405	548.5
2296.302	521.5
2300.195	522.5
2304.085	483.5
2307.971	509.5
2311.854	481.5
2315.734	485.5
2319.609	495.5
2323.482	469.5
2327.351	468.5
2331.216	474.5
2335.078	474.5
2338.937	475.5
2342.792	461.5
2346.643	458.5
2350.492	465.5
2354.336	451.5
2358.178	468.5
2362.015	468.5
2365.85	455.5
2369.681	464.5
2373.508	476.5
2377.333	472.5
2381.153	457.5
2384.971	453.5
2388.785	455.5
2392.595	436.5
2396.402	442.5
2400.206	414.5
2404.007	426.5
2407.804	433.5
2411.597	441.5
2415.388	429.5
2419.174	426.5
2422.958	424.5
2426.738	414.5
2430.515	424.5
2434.289	410.5
2438.059	408.5
2441.825	407.5
2445.589	414.5
2449.349	398.5
2453.106	408.5
2456.859	404.5
2460.61	399.5
2464.356	380.5
2468.1	380.5
2471.84	375.5
2475.577	372.5
2479.311	375.5
2483.041	369.5
2486.768	389.5
2490.492	381.5
2494.213	380.5
2497.93	370.5
2501.644	364.5
2505.355	369.5
2509.062	373.5
2512.766	367.5
2516.467	365.5
2520.165	367.5
2523.859	347.5
2527.551	386.5
2531.239	357.5
2534.923	358.5
2538.605	350.5
2542.283	352.5
2545.958	343.5
2549.63	367.5
2553.299	368.5
2556.964	341.5
2560.626	337.5
2564.285	350.5
2567.941	335.5
2571.594	330.5
2575.243	352.5
2578.89	329.5
2582.533	322.5
2586.173	323.5
2589.809	325.5
2593.443	295.5
2597.073	318.5
2600.701	320.5
2604.325	321.5
2607.946	306.5
2611.564	315.5
2615.178	317.5
2618.79	305.5
2622.398	304.5
2626.004	306.5
2629.606	301.5
2633.205	293.5
2636.801	291.5
2640.394	291.5
2643.983	293.5
2647.57	275.5
2651.153	274.5
2654.734	278.5
2658.311	253.5
2661.885	269.5
2665.456	265.5
2669.025	271.5
2672.589	253.5
2676.151	275.5
2679.71	264.5
2683.266	252.5
2686.819	252.5
2690.368	255.5
2693.915	261.5
2697.458	250.5
2700.999	250.5
2704.536	244.5
2708.071	246.5
2711.602	238.5
2715.13	233.5
2718.656	218.5
2722.178	233.5
2725.697	222.5
2729.214	224.5
2732.727	227.5
2736.237	216.5
2739.744	228.5
2743.249	225.5
2746.75	237.5
2750.248	220.5
2753.743	227.5
2757.236	231.5
2760.725	236.5
2764.211	194.5
2767.695	228.5
2771.175	220.5
2774.652	219.5
2778.127	215.5
2781.598	218.5
2785.067	220.5
2788.532	202.5
2791.995	220.5
2795.455	217.5
2798.911	224.5
2802.365	219.5
2805.816	215.5
2809.264	227.5
2812.709	215.5
2816.151	217.5
2819.59	206.5
2823.026	210.5
2826.46	218.5
2829.89	220.5
2833.318	201.5
2836.742	220.5
2840.164	217.5
2843.583	221.5
2846.999	216.5
2850.412	222.5
2853.822	207.5
2857.229	241.5
2860.634	239.5
2864.035	208.5
2867.434	239.5
2870.83	240.5
2874.223	240.5
2877.613	244.5
2881	237.5
2884.385	245.5
2887.766	238.5
2891.145	242.5
2894.521	235.5
2897.894	231.5
2901.264	250.5
2904.631	244.5
2907.996	252.5
2911.358	255.5
2914.717	248.5
2918.073	243.5
2921.426	250.5
2924.777	241.5
2928.124	256.5
2931.469	264.5
2934.811	252.5
2938.15	296.5
2941.487	265.5
2944.821	295.5
2948.152	270.5
2951.48	280.5
2954.805	267.5
2958.128	296.5
2961.447	266.5
2964.765	286.5
2968.079	280.5
2971.39	289.5
2974.699	292.5
2978.005	284.5
2981.308	288.5
2984.609	286.5
2987.907	297.5
2991.202	307.5
2994.494	280.5
2997.784	306.5
3001.07	304.5
3004.355	303.5
3007.636	308.5
3010.915	310.5
3014.191	309.5
3017.464	315.5
3020.734	311.5
3024.002	320.5
3027.267	309.5
3030.53	315.5
3033.789	318.5
3037.046	317.5
3040.301	320.5
3043.552	336.5
3046.801	338.5
3050.048	358.5
3053.291	380.5
3056.532	366.5
3059.771	355.5
3063.006	381.5
3066.239	392.5
3069.469	409.5
3072.697	397.5
3075.922	412.5
3079.144	423.5
3082.364	445.5
3085.581	440.5
3088.795	470.5
3092.007	462.5
3095.216	474.5
3098.423	481.5
3101.627	464.5
3104.828	501.5
3108.026	500.5
3111.222	528.5
3114.416	533.5
3117.607	537.5
3120.795	548.5
3123.98	565.5
3127.163	564.5
3130.344	564.5
3133.521	579.5
3136.696	609.5
3139.869	627.5
3143.039	597.5
3146.206	646.5
3149.371	643.5
3152.533	640.5
3155.693	644.5
3158.85	657.5
3162.005	663.5
3165.157	653.5
3168.306	656.5
3171.453	689.5
3174.597	661.5
3177.739	652.5
3180.878	664.5
3184.014	670.5
3187.149	657.5
3190.28	670.5
3193.409	697.5
3196.536	685.5
3199.659	690.5
3202.781	687.5
3205.9	674.5
3209.016	689.5
3212.13	689.5
3215.241	677.5
3218.35	675.5
3221.456	674.5
3224.56	666.5
3227.661	660.5
3230.76	651.5
3233.856	646.5
3236.95	649.5
3240.041	634.5
3243.13	638.5
3246.216	644.5
3249.3	624.5
3252.382	619.5
3255.46	635.5
3258.537	578.5
3261.611	618.5
3264.682	616.5
3267.751	616.5
3270.818	604.5
3273.882	627.5
3276.943	612.5
3280.002	619.5
3283.059	600.5
3286.113	600.5
3289.165	579.5
3292.214	580.5
3295.261	578.5
3298.306	562.5
3301.348	560.5
3304.387	549.5
3307.425	542.5
3310.459	537.5
3313.492	539.5
3316.521	530.5
3319.549	530.5
3322.574	530.5
3325.597	512.5
3328.617	507.5
3331.635	517.5
3334.65	489.5
3337.663	511.5
3340.674	508.5
3343.682	502.5
3346.688	505.5
3349.691	499.5
3352.692	503.5
3355.691	496.5
3358.687	492.5
3361.681	498.5
3364.673	480.5
3367.662	484.5
3370.649	484.5
3373.633	459.5
3376.615	469.5
3379.595	455.5
3382.572	455.5
3385.547	444.5
3388.52	442.5
3391.49	431.5
3394.458	432.5
3397.424	432.5
3400.387	412.5
3403.348	423.5
3406.307	406.5
3409.263	413.5
3412.217	408.5
3415.168	410.5
3418.118	409.5
3421.065	401.5
3424.009	403.5
3426.951	396.5
3429.891	381.5
3432.829	375.5
3435.764	372.5
3438.697	365.5
3441.628	366.5
3444.557	342.5
3447.483	335.5
3450.407	336.5
3453.328	322.5
3456.247	315.5
3459.164	299.5
3462.079	312.5
3464.991	291.5
3467.902	289.5
3470.809	276.5
3473.715	281.5
3476.618	265.5
3479.519	263.5
3482.418	234.5
3485.315	241.5
3488.209	232.5
3491.101	235.5
3493.99	214.5
3496.878	209.5
3499.763	221.5
3502.646	208.5
3505.527	188.5
3508.405	193.5
3511.281	176.5
3514.155	185.5
3517.027	179.5
3519.897	160.5
3522.764	167.5
3525.629	138.5
3528.492	153.5
3531.352	151.5
3534.211	144.5
3537.067	130.5
3539.921	136.5
3542.773	143.5
3545.622	105.5
3548.469	111.5
3551.315	93.5
3554.157	98.5
3556.998	96.5
3559.837	89.5
3562.673	96.5
3565.507	82.5
3568.339	75.5
3571.169	72.5
3573.996	75.5
3576.822	59.5
3579.645	60.5
3582.466	64.5
3585.285	63.5
3588.101	59.5
3590.916	55.5
3593.728	62.5
3596.538	55.5
3599.346	55.5
3602.152	42.5
3604.956	43.5
3607.757	54.5
3610.556	27.5
3613.354	45.5
3616.149	43.5
3618.942	38.5
3621.732	37.5
3624.521	25.5
3627.307	11.5
3630.092	15.5
3632.874	38.5
3635.654	21.5
3638.432	11.5
3641.208	9.5
3643.982	14.5
3646.753	27.5
3649.523	-6.5
3652.29	9.5
3655.055	16.5
3657.818	9.5
3660.579	3.5
3663.338	-0.5
3666.095	1.5
3668.849	-21.5
3671.602	3.5
3674.352	-10.5
3677.101	3.5
3679.847	3.5
3682.591	-9.5
3685.333	-16.5
3688.073	-4.5
3690.811	-13.5
3693.547	-19.5
3696.281	-17.5
3699.013	-3.5
3701.742	-13.5
3704.47	-20.5
3707.195	-4.5
3709.919	-9.5
3712.64	-13.5
3715.359	-24.5
3718.076	-7.5
3720.792	-14.5
3723.505	-13.5
3726.216	-1.5
3728.925	-22.5
3731.632	-24.5
3734.336	-17.5
3737.039	-18.5
3739.74	-15.5
3742.439	-42.5
3745.136	-12.5
3747.83	-16.5
3750.523	-9.5
3753.213	-81.5
3755.902	-20.5
3758.589	-30.5
3761.273	-21.5
3763.956	-10.5
3766.636	-36.5
3769.315	-11.5
3771.991	-21.5
3774.665	-28.5
3777.338	-21.5
3780.008	-29.5
3782.677	-24.5
3785.343	-34.5
3788.007	-39.5
3790.67	-15.5
3793.33	-31.5
3795.989	-30.5
3798.645	-19.5
3801.299	-38.5
3803.952	-33.5
3806.602	-27.5
3809.251	-19.5
3811.897	-24.5
3814.542	-30.5
3817.184	-30.5
3819.825	-24.5
3822.463	-35.5
3825.1	-25.5
3827.735	-24.5
3830.367	-34.5
3832.998	-13.5
3835.627	-25.5
3838.253	-21.5
3840.878	-29.5
3843.501	-9.5
3846.122	-24.5
3848.741	-21.5
3851.358	-22.5
3853.973	-41.5
3856.586	-20.5
3859.197	-29.5
3861.806	-32.5
3864.414	-40.5
3867.019	-28.5
3869.622	-17.5
3872.224	-13.5
3874.823	1.5
3877.421	24.5
3880.016	48.5
3882.61	87.5
3885.202	112.5
3887.792	80.5
3890.38	39.5
3892.966	-0.5
3895.55	-22.5
3898.132	-17.5
3900.713	-16.5
3903.291	-23.5
3905.868	-33.5
3908.442	-27.5
3911.015	-28.5
3913.586	-33.5
3916.155	-30.5
3918.722	-36.5
3921.287	-40.5
3923.85	-42.5
3926.411	-37.5
3928.971	-34.5
3931.528	-27.5
3934.084	-31.5
3936.638	-42.5
3939.19	-26.5
3941.74	-31.5
3944.288	-34.5
3946.834	-33.5
3949.378	-26.5
3951.921	-34.5
3954.462	-27.5
3957	-24.5
3959.537	-16.5
3962.072	-31.5
3964.606	-39.5
3967.137	-30.5
3969.667	-34.5
3972.194	-23.5
3974.72	-35.5
3977.244	-51.5
3979.766	-35.5
3982.286	-36.5
3984.805	-27.5
3987.321	-21.5
3989.836	-21.5
3992.349	-32.5
3994.86	-28.5
3997.369	-34.5
3999.877	-30.5
4002.382	-30.5
4004.886	-26.5
4007.388	-26.5
4009.888	-20.5
4012.386	-26.5
4014.883	-23.5
4017.377	-24.5
4019.87	-21.5
4022.361	-33.5
4024.85	-25.5
4027.338	-25.5
4029.823	-28.5
4032.307	-29.5
4034.789	-25.5
4037.269	-27.5
4039.747	-40.5
4042.224	-15.5
4044.699	-32.5
4047.172	-28.5
4049.643	-21.5
4052.112	-54.5
4054.58	-23.5
4057.046	-40.5
4059.51	-28.5
4061.972	-25.5
4064.432	-47.5
4066.891	-17.5
4069.348	-23.5
4071.803	-21.5
4074.256	-33.5
4076.708	-22.5
4079.158	-21.5
4081.606	-15.5
4084.052	-27.5
4086.497	-24.5
4088.939	-24.5
4091.38	-30.5
4093.819	-18.5
4096.257	3.5
4098.693	-8.5
4101.127	-4.5
4103.559	0.5
4105.989	134.5
4108.418	129.5
4110.845	128.5
4113.27	134.5
4115.694	139.5
4118.115	137.5
4120.535	-24.5
4122.954	-22.5
4125.37	-18.5
4127.785	-21.5
4130.198	-18.5
4132.609	-20.5
4135.019	7.5
4137.427	-1.5
4139.833	8.5
4142.237	-5.5
