Data from 2018-3-6_conc=4_n=5_RamanShift_02.txt Node
Date: Tue Mar 06 14:02:49 GMT+02:00 2018
User: LAB3
Spectrometer: QEPB0276
Trigger mode: 0
Integration Time (sec): 3.000000E1
Scans to average: 1
Electric dark correction enabled: true
Nonlinearity correction enabled: false
Boxcar width: 0
XAxis mode: Raman Shifts
Number of Pixels in Spectrum: 1044
>>>>>Begin Spectral Data<<<<<
160.701	96.38
166.742	123.38
172.777	177.38
178.805	339.38
184.826	780.38
190.841	1552.38
196.849	2424.38
202.85	3091.38
208.845	3297.38
214.833	3245.38
220.815	3194.38
226.789	3201.38
232.758	3209.38
238.719	3169.38
244.674	3125.38
250.623	3095.38
256.565	3046.38
262.5	3022.38
268.429	2974.38
274.351	2963.38
280.267	2966.38
286.176	2948.38
292.079	2950.38
297.975	2932.38
303.865	2917.38
309.748	2933.38
315.625	2922.38
321.495	2922.38
327.359	2932.38
333.217	2946.38
339.068	2919.38
344.912	2939.38
350.751	2949.38
356.583	2943.38
362.408	2954.38
368.227	2958.38
374.04	2992.38
379.847	2988.38
385.647	2999.38
391.44	3012.38
397.228	3012.38
403.009	3036.38
408.784	3042.38
414.553	3061.38
420.315	3066.38
426.071	3059.38
431.821	3051.38
437.565	3059.38
443.302	3069.38
449.033	3016.38
454.758	3002.38
460.477	2997.38
466.189	2970.38
471.896	2951.38
477.596	2910.38
483.29	2875.38
488.978	2893.38
494.66	2876.38
500.335	2784.38
506.005	2651.38
511.668	2578.38
517.325	2431.38
522.977	2343.38
528.622	2263.38
534.261	2217.38
539.894	2151.38
545.521	2141.38
551.141	2110.38
556.756	2084.38
562.365	2042.38
567.968	2049.38
573.565	2030.38
579.155	2036.38
584.74	2017.38
590.319	2012.38
595.892	2015.38
601.459	2014.38
607.02	1980.38
612.575	1982.38
618.124	1968.38
623.667	1910.38
629.204	1908.38
634.735	1883.38
640.261	1860.38
645.781	1832.38
651.294	1829.38
656.802	1818.38
662.304	1841.38
667.8	1836.38
673.29	1810.38
678.775	1810.38
684.254	1784.38
689.726	1782.38
695.193	1791.38
700.655	1777.38
706.11	1759.38
711.56	1755.38
717.004	1738.38
722.442	1721.38
727.874	1726.38
733.301	1729.38
738.722	1699.38
744.137	1726.38
749.547	1706.38
754.951	1705.38
760.349	1716.38
765.741	1726.38
771.128	1731.38
776.509	1733.38
781.885	1774.38
787.254	1809.38
792.618	1799.38
797.977	1798.38
803.33	1772.38
808.677	1773.38
814.019	1750.38
819.355	1748.38
824.686	1720.38
830.011	1702.38
835.33	1702.38
840.644	1708.38
845.952	1675.38
851.255	1664.38
856.552	1653.38
861.844	1648.38
867.13	1601.38
872.41	1607.38
877.686	1594.38
882.955	1581.38
888.219	1565.38
893.478	1540.38
898.731	1528.38
903.979	1517.38
909.221	1490.38
914.458	1497.38
919.69	1490.38
924.916	1485.38
930.136	1480.38
935.351	1480.38
940.561	1487.38
945.766	1499.38
950.965	1480.38
956.158	1463.38
961.347	1445.38
966.529	1428.38
971.707	1424.38
976.879	1400.38
982.046	1376.38
987.208	1366.38
992.364	1385.38
997.515	1383.38
1002.66	1377.38
1007.801	1383.38
1012.936	1412.38
1018.066	1393.38
1023.19	1420.38
1028.309	1417.38
1033.423	1431.38
1038.532	1420.38
1043.636	1403.38
1048.734	1413.38
1053.827	1379.38
1058.915	1352.38
1063.998	1361.38
1069.075	1343.38
1074.147	1373.38
1079.214	1348.38
1084.276	1373.38
1089.333	1367.38
1094.385	1358.38
1099.431	1355.38
1104.472	1358.38
1109.509	1339.38
1114.54	1329.38
1119.565	1286.38
1124.586	1299.38
1129.602	1269.38
1134.613	1244.38
1139.618	1246.38
1144.619	1264.38
1149.614	1258.38
1154.604	1253.38
1159.589	1248.38
1164.57	1279.38
1169.545	1285.38
1174.515	1281.38
1179.48	1252.38
1184.44	1250.38
1189.395	1265.38
1194.345	1237.38
1199.29	1245.38
1204.23	1220.38
1209.165	1227.38
1214.095	1236.38
1219.021	1234.38
1223.941	1223.38
1228.856	1227.38
1233.766	1252.38
1238.672	1251.38
1243.572	1251.38
1248.467	1239.38
1253.358	1212.38
1258.244	1197.38
1263.124	1194.38
1268	1183.38
1272.871	1140.38
1277.737	1138.38
1282.599	1118.38
1287.455	1133.38
1292.306	1127.38
1297.153	1129.38
1301.995	1151.38
1306.832	1134.38
1311.664	1142.38
1316.491	1125.38
1321.314	1127.38
1326.132	1122.38
1330.945	1119.38
1335.753	1090.38
1340.556	1078.38
1345.354	1052.38
1350.148	1054.38
1354.937	1028.38
1359.722	1023.38
1364.501	1007.38
1369.276	1017.38
1374.046	1002.38
1378.811	999.38
1383.572	1010.38
1388.327	1011.38
1393.079	988.38
1397.825	983.38
1402.567	985.38
1407.304	952.38
1412.036	961.38
1416.764	971.38
1421.487	954.38
1426.205	952.38
1430.919	965.38
1435.628	968.38
1440.333	953.38
1445.032	982.38
1449.727	986.38
1454.418	989.38
1459.104	1001.38
1463.785	962.38
1468.462	960.38
1473.134	938.38
1477.802	920.38
1482.465	872.38
1487.123	887.38
1491.777	856.38
1496.426	864.38
1501.071	891.38
1505.711	876.38
1510.347	878.38
1514.978	893.38
1519.604	878.38
1524.226	900.38
1528.844	884.38
1533.457	893.38
1538.065	885.38
1542.669	869.38
1547.269	869.38
1551.864	868.38
1556.454	854.38
1561.041	860.38
1565.622	867.38
1570.199	869.38
1574.772	876.38
1579.34	885.38
1583.904	897.38
1588.464	917.38
1593.019	920.38
1597.569	893.38
1602.115	889.38
1606.657	901.38
1611.195	903.38
1615.728	900.38
1620.256	876.38
1624.78	870.38
1629.3	884.38
1633.816	876.38
1638.327	886.38
1642.834	887.38
1647.336	876.38
1651.834	912.38
1656.328	910.38
1660.817	895.38
1665.302	869.38
1669.783	861.38
1674.259	850.38
1678.732	849.38
1683.199	821.38
1687.663	777.38
1692.122	777.38
1696.577	761.38
1701.028	746.38
1705.474	719.38
1709.917	703.38
1714.355	696.38
1718.788	698.38
1723.218	683.38
1727.643	664.38
1732.064	664.38
1736.481	647.38
1740.893	653.38
1745.301	637.38
1749.705	586.38
1754.105	613.38
1758.501	580.38
1762.893	593.38
1767.28	564.38
1771.663	567.38
1776.042	570.38
1780.417	549.38
1784.787	565.38
1789.154	564.38
1793.516	554.38
1797.874	543.38
1802.228	538.38
1806.578	539.38
1810.924	550.38
1815.266	432.38
1819.603	543.38
1823.937	528.38
1828.266	535.38
1832.591	528.38
1836.913	529.38
1841.23	519.38
1845.543	523.38
1849.852	523.38
1854.156	507.38
1858.457	512.38
1862.754	507.38
1867.047	510.38
1871.335	523.38
1875.62	515.38
1879.9	520.38
1884.177	493.38
1888.449	510.38
1892.718	503.38
1896.982	501.38
1901.243	469.38
1905.499	482.38
1909.752	483.38
1914	468.38
1918.245	490.38
1922.485	490.38
1926.722	485.38
1930.954	476.38
1935.183	484.38
1939.408	482.38
1943.628	495.38
1947.845	481.38
1952.058	472.38
1956.267	466.38
1960.472	472.38
1964.673	462.38
1968.87	455.38
1973.063	451.38
1977.252	435.38
1981.438	436.38
1985.619	431.38
1989.797	413.38
1993.971	418.38
1998.14	428.38
2002.306	427.38
2006.469	439.38
2010.627	410.38
2014.781	423.38
2018.932	412.38
2023.078	432.38
2027.221	414.38
2031.36	396.38
2035.495	397.38
2039.627	403.38
2043.754	399.38
2047.878	391.38
2051.998	384.38
2056.114	391.38
2060.226	384.38
2064.334	388.38
2068.439	407.38
2072.54	392.38
2076.637	374.38
2080.73	379.38
2084.82	381.38
2088.906	373.38
2092.988	379.38
2097.066	389.38
2101.14	388.38
2105.211	388.38
2109.278	370.38
2113.342	365.38
2117.401	359.38
2121.457	353.38
2125.509	356.38
2129.558	356.38
2133.602	344.38
2137.643	350.38
2141.681	352.38
2145.714	349.38
2149.744	352.38
2153.77	343.38
2157.793	331.38
2161.812	305.38
2165.827	319.38
2169.838	335.38
2173.846	305.38
2177.851	316.38
2181.851	325.38
2185.848	316.38
2189.841	312.38
2193.831	312.38
2197.817	306.38
2201.799	303.38
2205.778	290.38
2209.753	290.38
2213.725	290.38
2217.693	287.38
2221.657	284.38
2225.618	297.38
2229.575	286.38
2233.529	292.38
2237.479	291.38
2241.425	280.38
2245.368	272.38
2249.307	272.38
2253.243	264.38
2257.175	269.38
2261.104	256.38
2265.029	258.38
2268.95	261.38
2272.868	239.38
2276.783	240.38
2280.694	245.38
2284.601	246.38
2288.505	238.38
2292.405	243.38
2296.302	223.38
2300.195	229.38
2304.085	198.38
2307.971	224.38
2311.854	195.38
2315.734	213.38
2319.609	220.38
2323.482	195.38
2327.351	200.38
2331.216	211.38
2335.078	213.38
2338.937	207.38
2342.792	203.38
2346.643	198.38
2350.492	211.38
2354.336	198.38
2358.178	205.38
2362.015	199.38
2365.85	199.38
2369.681	201.38
2373.508	201.38
2377.333	205.38
2381.153	207.38
2384.971	196.38
2388.785	207.38
2392.595	191.38
2396.402	186.38
2400.206	168.38
2404.007	188.38
2407.804	193.38
2411.597	191.38
2415.388	184.38
2419.174	185.38
2422.958	189.38
2426.738	183.38
2430.515	190.38
2434.289	166.38
2438.059	169.38
2441.825	172.38
2445.589	180.38
2449.349	156.38
2453.106	178.38
2456.859	177.38
2460.61	179.38
2464.356	155.38
2468.1	156.38
2471.84	151.38
2475.577	159.38
2479.311	160.38
2483.041	162.38
2486.768	176.38
2490.492	168.38
2494.213	159.38
2497.93	146.38
2501.644	144.38
2505.355	146.38
2509.062	154.38
2512.766	151.38
2516.467	143.38
2520.165	148.38
2523.859	134.38
2527.551	171.38
2531.239	143.38
2534.923	149.38
2538.605	141.38
2542.283	141.38
2545.958	155.38
2549.63	156.38
2553.299	148.38
2556.964	131.38
2560.626	136.38
2564.285	141.38
2567.941	124.38
2571.594	119.38
2575.243	136.38
2578.89	129.38
2582.533	131.38
2586.173	122.38
2589.809	133.38
2593.443	102.38
2597.073	121.38
2600.701	131.38
2604.325	127.38
2607.946	117.38
2611.564	136.38
2615.178	131.38
2618.79	119.38
2622.398	108.38
2626.004	129.38
2629.606	124.38
2633.205	107.38
2636.801	123.38
2640.394	118.38
2643.983	113.38
2647.57	111.38
2651.153	104.38
2654.734	121.38
2658.311	91.38
2661.885	99.38
2665.456	94.38
2669.025	99.38
2672.589	104.38
2676.151	114.38
2679.71	111.38
2683.266	101.38
2686.819	94.38
2690.368	100.38
2693.915	102.38
2697.458	98.38
2700.999	102.38
2704.536	102.38
2708.071	96.38
2711.602	95.38
2715.13	93.38
2718.656	73.38
2722.178	87.38
2725.697	69.38
2729.214	79.38
2732.727	88.38
2736.237	66.38
2739.744	83.38
2743.249	78.38
2746.75	86.38
2750.248	73.38
2753.743	81.38
2757.236	83.38
2760.725	86.38
2764.211	58.38
2767.695	86.38
2771.175	81.38
2774.652	84.38
2778.127	77.38
2781.598	81.38
2785.067	82.38
2788.532	67.38
2791.995	85.38
2795.455	76.38
2798.911	81.38
2802.365	79.38
2805.816	81.38
2809.264	89.38
2812.709	70.38
2816.151	84.38
2819.59	67.38
2823.026	71.38
2826.46	75.38
2829.89	90.38
2833.318	55.38
2836.742	78.38
2840.164	81.38
2843.583	76.38
2846.999	78.38
2850.412	82.38
2853.822	74.38
2857.229	88.38
2860.634	84.38
2864.035	69.38
2867.434	92.38
2870.83	92.38
2874.223	84.38
2877.613	95.38
2881	80.38
2884.385	86.38
2887.766	81.38
2891.145	87.38
2894.521	86.38
2897.894	81.38
2901.264	91.38
2904.631	94.38
2907.996	96.38
2911.358	104.38
2914.717	100.38
2918.073	98.38
2921.426	90.38
2924.777	80.38
2928.124	88.38
2931.469	108.38
2934.811	96.38
2938.15	121.38
2941.487	104.38
2944.821	124.38
2948.152	102.38
2951.48	116.38
2954.805	98.38
2958.128	124.38
2961.447	99.38
2964.765	112.38
2968.079	104.38
2971.39	107.38
2974.699	113.38
2978.005	115.38
2981.308	114.38
2984.609	101.38
2987.907	122.38
2991.202	119.38
2994.494	108.38
2997.784	120.38
3001.07	116.38
3004.355	111.38
3007.636	118.38
3010.915	119.38
3014.191	116.38
3017.464	127.38
3020.734	126.38
3024.002	131.38
3027.267	129.38
3030.53	129.38
3033.789	131.38
3037.046	128.38
3040.301	131.38
3043.552	142.38
3046.801	141.38
3050.048	156.38
3053.291	166.38
3056.532	153.38
3059.771	138.38
3063.006	168.38
3066.239	165.38
3069.469	176.38
3072.697	171.38
3075.922	166.38
3079.144	170.38
3082.364	206.38
3085.581	178.38
3088.795	211.38
3092.007	203.38
3095.216	212.38
3098.423	203.38
3101.627	187.38
3104.828	215.38
3108.026	208.38
3111.222	226.38
3114.416	240.38
3117.607	235.38
3120.795	232.38
3123.98	231.38
3127.163	235.38
3130.344	247.38
3133.521	240.38
3136.696	271.38
3139.869	269.38
3143.039	253.38
3146.206	288.38
3149.371	287.38
3152.533	281.38
3155.693	274.38
3158.85	291.38
3162.005	293.38
3165.157	275.38
3168.306	292.38
3171.453	295.38
3174.597	284.38
3177.739	282.38
3180.878	295.38
3184.014	295.38
3187.149	302.38
3190.28	295.38
3193.409	311.38
3196.536	306.38
3199.659	332.38
3202.781	429.38
3205.9	299.38
3209.016	299.38
3212.13	296.38
3215.241	301.38
3218.35	300.38
3221.456	286.38
3224.56	275.38
3227.661	286.38
3230.76	276.38
3233.856	274.38
3236.95	286.38
3240.041	262.38
3243.13	281.38
3246.216	278.38
3249.3	274.38
3252.382	273.38
3255.46	260.38
3258.537	218.38
3261.611	254.38
3264.682	267.38
3267.751	260.38
3270.818	254.38
3273.882	271.38
3276.943	261.38
3280.002	278.38
3283.059	256.38
3286.113	255.38
3289.165	248.38
3292.214	238.38
3295.261	256.38
3298.306	231.38
3301.348	240.38
3304.387	235.38
3307.425	235.38
3310.459	228.38
3313.492	232.38
3316.521	224.38
3319.549	240.38
3322.574	234.38
3325.597	217.38
3328.617	220.38
3331.635	218.38
3334.65	206.38
3337.663	218.38
3340.674	213.38
3343.682	219.38
3346.688	220.38
3349.691	212.38
3352.692	214.38
3355.691	223.38
3358.687	218.38
3361.681	216.38
3364.673	207.38
3367.662	211.38
3370.649	217.38
3373.633	193.38
3376.615	208.38
3379.595	180.38
3382.572	194.38
3385.547	179.38
3388.52	182.38
3391.49	183.38
3394.458	180.38
3397.424	179.38
3400.387	171.38
3403.348	179.38
3406.307	177.38
3409.263	170.38
3412.217	178.38
3415.168	171.38
3418.118	178.38
3421.065	158.38
3424.009	176.38
3426.951	162.38
3429.891	151.38
3432.829	159.38
3435.764	155.38
3438.697	145.38
3441.628	157.38
3444.557	135.38
3447.483	129.38
3450.407	140.38
3453.328	127.38
3456.247	122.38
3459.164	114.38
3462.079	126.38
3464.991	121.38
3467.902	117.38
3470.809	109.38
3473.715	104.38
3476.618	103.38
3479.519	99.38
3482.418	76.38
3485.315	88.38
3488.209	85.38
3491.101	85.38
3493.99	72.38
3496.878	72.38
3499.763	73.38
3502.646	79.38
3505.527	65.38
3508.405	68.38
3511.281	53.38
3514.155	65.38
3517.027	58.38
3519.897	47.38
3522.764	53.38
3525.629	36.38
3528.492	49.38
3531.352	47.38
3534.211	44.38
3537.067	30.38
3539.921	39.38
3542.773	40.38
3545.622	24.38
3548.469	20.38
3551.315	17.38
3554.157	23.38
3556.998	17.38
3559.837	19.38
3562.673	24.38
3565.507	8.38
3568.339	7.38
3571.169	13.38
3573.996	10.38
3576.822	-0.62
3579.645	-0.62
3582.466	-0.62
3585.285	11.38
3588.101	3.38
3590.916	-1.62
3593.728	0.38
3596.538	1.38
3599.346	-8.62
3602.152	-6.62
3604.956	-3.62
3607.757	2.38
3610.556	-15.62
3613.354	-2.62
3616.149	-7.62
3618.942	-5.62
3621.732	-4.62
3624.521	-12.62
3627.307	-21.62
3630.092	-20.62
3632.874	2.38
3635.654	-11.62
3638.432	-15.62
3641.208	-16.62
3643.982	-15.62
3646.753	-9.62
3649.523	-38.62
3652.29	-21.62
3655.055	-15.62
3657.818	-16.62
3660.579	-20.62
3663.338	-34.62
3666.095	-26.62
3668.849	-48.62
3671.602	-17.62
3674.352	-34.62
3677.101	-15.62
3679.847	-19.62
3682.591	-28.62
3685.333	-36.62
3688.073	-25.62
3690.811	-35.62
3693.547	-44.62
3696.281	-34.62
3699.013	-24.62
3701.742	-28.62
3704.47	-40.62
3707.195	-25.62
3709.919	-22.62
3712.64	-28.62
3715.359	-38.62
3718.076	-21.62
3720.792	-28.62
3723.505	-24.62
3726.216	-17.62
3728.925	-33.62
3731.632	-37.62
3734.336	-33.62
3737.039	-30.62
3739.74	-31.62
3742.439	-48.62
3745.136	-26.62
3747.83	-24.62
3750.523	-21.62
3753.213	-93.62
3755.902	-31.62
3758.589	-49.62
3761.273	-34.62
3763.956	-24.62
3766.636	-41.62
3769.315	-25.62
3771.991	-33.62
3774.665	-35.62
3777.338	-32.62
3780.008	-41.62
3782.677	-32.62
3785.343	-47.62
3788.007	-50.62
3790.67	-22.62
3793.33	-42.62
3795.989	-38.62
3798.645	-33.62
3801.299	-40.62
3803.952	-39.62
3806.602	-35.62
3809.251	-25.62
3811.897	-35.62
3814.542	-35.62
3817.184	-37.62
3819.825	-31.62
3822.463	-43.62
3825.1	-37.62
3827.735	-32.62
3830.367	-40.62
3832.998	-18.62
3835.627	-36.62
3838.253	-25.62
3840.878	-35.62
3843.501	-18.62
3846.122	-31.62
3848.741	-28.62
3851.358	-26.62
3853.973	-41.62
3856.586	-21.62
3859.197	-38.62
3861.806	-31.62
3864.414	-45.62
3867.019	-33.62
3869.622	-21.62
3872.224	-17.62
3874.823	-4.62
3877.421	11.38
3880.016	34.38
3882.61	69.38
3885.202	77.38
3887.792	58.38
3890.38	22.38
3892.966	-12.62
3895.55	-35.62
3898.132	-22.62
3900.713	-24.62
3903.291	-29.62
3905.868	-36.62
3908.442	-31.62
3911.015	-34.62
3913.586	-39.62
3916.155	-36.62
3918.722	-37.62
3921.287	-36.62
3923.85	-49.62
3926.411	-42.62
3928.971	-35.62
3931.528	-28.62
3934.084	-35.62
3936.638	-47.62
3939.19	-26.62
3941.74	-29.62
3944.288	-38.62
3946.834	-36.62
3949.378	-27.62
3951.921	-38.62
3954.462	-34.62
3957	-28.62
3959.537	-19.62
3962.072	-33.62
3964.606	-46.62
3967.137	-31.62
3969.667	-36.62
3972.194	-29.62
3974.72	-40.62
3977.244	-58.62
3979.766	-38.62
3982.286	-36.62
3984.805	-34.62
3987.321	-22.62
3989.836	-24.62
3992.349	-37.62
3994.86	-31.62
3997.369	-40.62
3999.877	-35.62
4002.382	-35.62
4004.886	-30.62
4007.388	-29.62
4009.888	-25.62
4012.386	-26.62
4014.883	-28.62
4017.377	-30.62
4019.87	-27.62
4022.361	-42.62
4024.85	-37.62
4027.338	-32.62
4029.823	-39.62
4032.307	-36.62
4034.789	-29.62
4037.269	-28.62
4039.747	-46.62
4042.224	-20.62
4044.699	-38.62
4047.172	-31.62
4049.643	-25.62
4052.112	-51.62
4054.58	-27.62
4057.046	-45.62
4059.51	-32.62
4061.972	-31.62
4064.432	-47.62
4066.891	-22.62
4069.348	-34.62
4071.803	-32.62
4074.256	-40.62
4076.708	-32.62
4079.158	-31.62
4081.606	-19.62
4084.052	-36.62
4086.497	-29.62
4088.939	-32.62
4091.38	-32.62
4093.819	-24.62
4096.257	0.38
4098.693	-7.62
4101.127	-3.62
4103.559	4.38
4105.989	97.38
4108.418	96.38
4110.845	89.38
4113.27	87.38
4115.694	93.38
4118.115	82.38
4120.535	-31.62
4122.954	-27.62
4125.37	-23.62
4127.785	-28.62
4130.198	-20.62
4132.609	-34.62
4135.019	9.38
4137.427	-1.62
4139.833	4.38
4142.237	-5.62
