Data from 2018-3-6_conc=0_n=3_RamanShift_03.txt Node
Date: Tue Mar 06 12:15:49 GMT+02:00 2018
User: LAB3
Spectrometer: QEPB0276
Trigger mode: 0
Integration Time (sec): 3.000000E1
Scans to average: 1
Electric dark correction enabled: true
Nonlinearity correction enabled: false
Boxcar width: 0
XAxis mode: Raman Shifts
Number of Pixels in Spectrum: 1044
>>>>>Begin Spectral Data<<<<<
160.701	83.12
166.742	118.12
172.777	198.12
178.805	429.12
184.826	1027.12
190.841	2120.12
196.849	3402.12
202.85	4405.12
208.845	4807.12
214.833	4818.12
220.815	4850.12
226.789	4888.12
232.758	4949.12
238.719	4943.12
244.674	4992.12
250.623	4976.12
256.565	4951.12
262.5	4951.12
268.429	4930.12
274.351	4945.12
280.267	4989.12
286.176	4984.12
292.079	5041.12
297.975	5054.12
303.865	5057.12
309.748	5069.12
315.625	5090.12
321.495	5131.12
327.359	5106.12
333.217	5126.12
339.068	5141.12
344.912	5179.12
350.751	5199.12
356.583	5196.12
362.408	5235.12
368.227	5246.12
374.04	5284.12
379.847	5264.12
385.647	5318.12
391.44	5307.12
397.228	5342.12
403.009	5371.12
408.784	5403.12
414.553	5418.12
420.315	5477.12
426.071	5422.12
431.821	5465.12
437.565	5467.12
443.302	5450.12
449.033	5449.12
454.758	5438.12
460.477	5365.12
466.189	5297.12
471.896	5282.12
477.596	5279.12
483.29	5223.12
488.978	5245.12
494.66	5222.12
500.335	5080.12
506.005	4912.12
511.668	4738.12
517.325	4565.12
522.977	4409.12
528.622	4304.12
534.261	4240.12
539.894	4191.12
545.521	4127.12
551.141	4097.12
556.756	4059.12
562.365	4018.12
567.968	4018.12
573.565	3995.12
579.155	3987.12
584.74	3923.12
590.319	3978.12
595.892	3969.12
601.459	3928.12
607.02	3915.12
612.575	3901.12
618.124	3878.12
623.667	3830.12
629.204	3761.12
634.735	3765.12
640.261	3711.12
645.781	3653.12
651.294	3670.12
656.802	3667.12
662.304	3673.12
667.8	3649.12
673.29	3648.12
678.775	3621.12
684.254	3623.12
689.726	3609.12
695.193	3592.12
700.655	3549.12
706.11	3559.12
711.56	3555.12
717.004	3566.12
722.442	3501.12
727.874	3513.12
733.301	3505.12
738.722	3450.12
744.137	3477.12
749.547	3482.12
754.951	3467.12
760.349	3458.12
765.741	3517.12
771.128	3505.12
776.509	3530.12
781.885	3588.12
787.254	3611.12
792.618	3599.12
797.977	3601.12
803.33	3577.12
808.677	3547.12
814.019	3528.12
819.355	3505.12
824.686	3475.12
830.011	3449.12
835.33	3485.12
840.644	3427.12
845.952	3418.12
851.255	3425.12
856.552	3408.12
861.844	3401.12
867.13	3367.12
872.41	3388.12
877.686	3428.12
882.955	3460.12
888.219	3421.12
893.478	3300.12
898.731	3254.12
903.979	3191.12
909.221	3146.12
914.458	3124.12
919.69	3121.12
924.916	3133.12
930.136	3113.12
935.351	3123.12
940.561	3122.12
945.766	3112.12
950.965	3112.12
956.158	3072.12
961.347	3046.12
966.529	3019.12
971.707	3002.12
976.879	2944.12
982.046	2937.12
987.208	2905.12
992.364	2929.12
997.515	2937.12
1002.66	2955.12
1007.801	2980.12
1012.936	3002.12
1018.066	3012.12
1023.19	3044.12
1028.309	3039.12
1033.423	3058.12
1038.532	3082.12
1043.636	3057.12
1048.734	3044.12
1053.827	3011.12
1058.915	2992.12
1063.998	2944.12
1069.075	2930.12
1074.147	2930.12
1079.214	2908.12
1084.276	2940.12
1089.333	2996.12
1094.385	3009.12
1099.431	2989.12
1104.472	2968.12
1109.509	2911.12
1114.54	2887.12
1119.565	2837.12
1124.586	2809.12
1129.602	2779.12
1134.613	2720.12
1139.618	2728.12
1144.619	2730.12
1149.614	2742.12
1154.604	2738.12
1159.589	2749.12
1164.57	2780.12
1169.545	2776.12
1174.515	2772.12
1179.48	2734.12
1184.44	2713.12
1189.395	2717.12
1194.345	2672.12
1199.29	2686.12
1204.23	2683.12
1209.165	2652.12
1214.095	2700.12
1219.021	2691.12
1223.941	2715.12
1228.856	2734.12
1233.766	2746.12
1238.672	2745.12
1243.572	2743.12
1248.467	2714.12
1253.358	2675.12
1258.244	2639.12
1263.124	2604.12
1268	2601.12
1272.871	2535.12
1277.737	2537.12
1282.599	2516.12
1287.455	2518.12
1292.306	2530.12
1297.153	2525.12
1301.995	2535.12
1306.832	2553.12
1311.664	2549.12
1316.491	2545.12
1321.314	2546.12
1326.132	2525.12
1330.945	2490.12
1335.753	2449.12
1340.556	2418.12
1345.354	2362.12
1350.148	2328.12
1354.937	2304.12
1359.722	2273.12
1364.501	2253.12
1369.276	2243.12
1374.046	2277.12
1378.811	2247.12
1383.572	2258.12
1388.327	2258.12
1393.079	2241.12
1397.825	2216.12
1402.567	2196.12
1407.304	2204.12
1412.036	2180.12
1416.764	2198.12
1421.487	2158.12
1426.205	2188.12
1430.919	2199.12
1435.628	2225.12
1440.333	2222.12
1445.032	2250.12
1449.727	2283.12
1454.418	2324.12
1459.104	2326.12
1463.785	2271.12
1468.462	2235.12
1473.134	2181.12
1477.802	2141.12
1482.465	2086.12
1487.123	2076.12
1491.777	2060.12
1496.426	2060.12
1501.071	2054.12
1505.711	2053.12
1510.347	2071.12
1514.978	2073.12
1519.604	2069.12
1524.226	2077.12
1528.844	2038.12
1533.457	2055.12
1538.065	2018.12
1542.669	2011.12
1547.269	1999.12
1551.864	1987.12
1556.454	1983.12
1561.041	1973.12
1565.622	1969.12
1570.199	1975.12
1574.772	1987.12
1579.34	2011.12
1583.904	2008.12
1588.464	2026.12
1593.019	2021.12
1597.569	1996.12
1602.115	1989.12
1606.657	1977.12
1611.195	1979.12
1615.728	1966.12
1620.256	1943.12
1624.78	1917.12
1629.3	1955.12
1633.816	1950.12
1638.327	1945.12
1642.834	1965.12
1647.336	1966.12
1651.834	1980.12
1656.328	1976.12
1660.817	1983.12
1665.302	1970.12
1669.783	1937.12
1674.259	1913.12
1678.732	1878.12
1683.199	1850.12
1687.663	1794.12
1692.122	1771.12
1696.577	1746.12
1701.028	1716.12
1705.474	1685.12
1709.917	1690.12
1714.355	1635.12
1718.788	1664.12
1723.218	1624.12
1727.643	1598.12
1732.064	1595.12
1736.481	1575.12
1740.893	1555.12
1745.301	1537.12
1749.705	1477.12
1754.105	1469.12
1758.501	1435.12
1762.893	1429.12
1767.28	1378.12
1771.663	1373.12
1776.042	1371.12
1780.417	1353.12
1784.787	1373.12
1789.154	1360.12
1793.516	1366.12
1797.874	1363.12
1802.228	1352.12
1806.578	1345.12
1810.924	1332.12
1815.266	1248.12
1819.603	1313.12
1823.937	1289.12
1828.266	1280.12
1832.591	1290.12
1836.913	1271.12
1841.23	1268.12
1845.543	1256.12
1849.852	1275.12
1854.156	1272.12
1858.457	1280.12
1862.754	1270.12
1867.047	1270.12
1871.335	1271.12
1875.62	1280.12
1879.9	1273.12
1884.177	1267.12
1888.449	1262.12
1892.718	1261.12
1896.982	1236.12
1901.243	1249.12
1905.499	1241.12
1909.752	1227.12
1914	1214.12
1918.245	1237.12
1922.485	1218.12
1926.722	1214.12
1930.954	1216.12
1935.183	1227.12
1939.408	1230.12
1943.628	1206.12
1947.845	1222.12
1952.058	1194.12
1956.267	1169.12
1960.472	1154.12
1964.673	1136.12
1968.87	1131.12
1973.063	1104.12
1977.252	1092.12
1981.438	1079.12
1985.619	1054.12
1989.797	1062.12
1993.971	1048.12
1998.14	1063.12
2002.306	1052.12
2006.469	1065.12
2010.627	1025.12
2014.781	1032.12
2018.932	1042.12
2023.078	1034.12
2027.221	1026.12
2031.36	1006.12
2035.495	994.12
2039.627	981.12
2043.754	978.12
2047.878	973.12
2051.998	962.12
2056.114	952.12
2060.226	954.12
2064.334	975.12
2068.439	961.12
2072.54	975.12
2076.637	982.12
2080.73	966.12
2084.82	966.12
2088.906	973.12
2092.988	971.12
2097.066	973.12
2101.14	960.12
2105.211	955.12
2109.278	928.12
2113.342	924.12
2117.401	902.12
2121.457	894.12
2125.509	884.12
2129.558	886.12
2133.602	871.12
2137.643	865.12
2141.681	880.12
2145.714	867.12
2149.744	848.12
2153.77	849.12
2157.793	842.12
2161.812	817.12
2165.827	811.12
2169.838	823.12
2173.846	794.12
2177.851	789.12
2181.851	792.12
2185.848	762.12
2189.841	769.12
2193.831	762.12
2197.817	752.12
2201.799	749.12
2205.778	757.12
2209.753	748.12
2213.725	744.12
2217.693	751.12
2221.657	722.12
2225.618	750.12
2229.575	735.12
2233.529	732.12
2237.479	721.12
2241.425	712.12
2245.368	701.12
2249.307	699.12
2253.243	684.12
2257.175	679.12
2261.104	668.12
2265.029	668.12
2268.95	653.12
2272.868	644.12
2276.783	630.12
2280.694	641.12
2284.601	631.12
2288.505	627.12
2292.405	637.12
2296.302	597.12
2300.195	598.12
2304.085	577.12
2307.971	598.12
2311.854	566.12
2315.734	577.12
2319.609	568.12
2323.482	545.12
2327.351	541.12
2331.216	547.12
2335.078	554.12
2338.937	550.12
2342.792	532.12
2346.643	532.12
2350.492	552.12
2354.336	545.12
2358.178	543.12
2362.015	543.12
2365.85	548.12
2369.681	541.12
2373.508	554.12
2377.333	547.12
2381.153	550.12
2384.971	537.12
2388.785	542.12
2392.595	521.12
2396.402	531.12
2400.206	500.12
2404.007	532.12
2407.804	534.12
2411.597	522.12
2415.388	515.12
2419.174	515.12
2422.958	512.12
2426.738	501.12
2430.515	508.12
2434.289	497.12
2438.059	487.12
2441.825	491.12
2445.589	497.12
2449.349	474.12
2453.106	490.12
2456.859	477.12
2460.61	485.12
2464.356	457.12
2468.1	449.12
2471.84	463.12
2475.577	456.12
2479.311	455.12
2483.041	448.12
2486.768	460.12
2490.492	462.12
2494.213	448.12
2497.93	444.12
2501.644	437.12
2505.355	441.12
2509.062	443.12
2512.766	439.12
2516.467	433.12
2520.165	431.12
2523.859	423.12
2527.551	447.12
2531.239	415.12
2534.923	418.12
2538.605	417.12
2542.283	420.12
2545.958	425.12
2549.63	436.12
2553.299	430.12
2556.964	408.12
2560.626	406.12
2564.285	408.12
2567.941	403.12
2571.594	398.12
2575.243	398.12
2578.89	397.12
2582.533	388.12
2586.173	389.12
2589.809	380.12
2593.443	362.12
2597.073	382.12
2600.701	379.12
2604.325	371.12
2607.946	353.12
2611.564	373.12
2615.178	370.12
2618.79	364.12
2622.398	355.12
2626.004	358.12
2629.606	360.12
2633.205	340.12
2636.801	339.12
2640.394	334.12
2643.983	334.12
2647.57	328.12
2651.153	324.12
2654.734	331.12
2658.311	304.12
2661.885	315.12
2665.456	314.12
2669.025	317.12
2672.589	307.12
2676.151	320.12
2679.71	313.12
2683.266	301.12
2686.819	295.12
2690.368	305.12
2693.915	297.12
2697.458	292.12
2700.999	289.12
2704.536	292.12
2708.071	296.12
2711.602	285.12
2715.13	278.12
2718.656	257.12
2722.178	279.12
2725.697	265.12
2729.214	271.12
2732.727	263.12
2736.237	254.12
2739.744	260.12
2743.249	264.12
2746.75	262.12
2750.248	255.12
2753.743	262.12
2757.236	263.12
2760.725	261.12
2764.211	235.12
2767.695	259.12
2771.175	253.12
2774.652	252.12
2778.127	239.12
2781.598	240.12
2785.067	246.12
2788.532	239.12
2791.995	251.12
2795.455	229.12
2798.911	256.12
2802.365	248.12
2805.816	251.12
2809.264	253.12
2812.709	244.12
2816.151	250.12
2819.59	240.12
2823.026	245.12
2826.46	242.12
2829.89	255.12
2833.318	227.12
2836.742	240.12
2840.164	248.12
2843.583	249.12
2846.999	249.12
2850.412	256.12
2853.822	251.12
2857.229	267.12
2860.634	252.12
2864.035	241.12
2867.434	263.12
2870.83	264.12
2874.223	263.12
2877.613	275.12
2881	274.12
2884.385	276.12
2887.766	286.12
2891.145	286.12
2894.521	274.12
2897.894	258.12
2901.264	288.12
2904.631	283.12
2907.996	278.12
2911.358	282.12
2914.717	285.12
2918.073	274.12
2921.426	272.12
2924.777	272.12
2928.124	276.12
2931.469	304.12
2934.811	302.12
2938.15	326.12
2941.487	317.12
2944.821	330.12
2948.152	312.12
2951.48	305.12
2954.805	286.12
2958.128	295.12
2961.447	272.12
2964.765	292.12
2968.079	284.12
2971.39	283.12
2974.699	284.12
2978.005	292.12
2981.308	282.12
2984.609	275.12
2987.907	290.12
2991.202	292.12
2994.494	270.12
2997.784	280.12
3001.07	278.12
3004.355	274.12
3007.636	270.12
3010.915	267.12
3014.191	265.12
3017.464	271.12
3020.734	266.12
3024.002	266.12
3027.267	256.12
3030.53	265.12
3033.789	264.12
3037.046	270.12
3040.301	266.12
3043.552	281.12
3046.801	279.12
3050.048	291.12
3053.291	304.12
3056.532	286.12
3059.771	274.12
3063.006	304.12
3066.239	301.12
3069.469	320.12
3072.697	311.12
3075.922	308.12
3079.144	325.12
3082.364	349.12
3085.581	335.12
3088.795	356.12
3092.007	355.12
3095.216	366.12
3098.423	354.12
3101.627	338.12
3104.828	368.12
3108.026	368.12
3111.222	395.12
3114.416	400.12
3117.607	391.12
3120.795	397.12
3123.98	405.12
3127.163	400.12
3130.344	415.12
3133.521	420.12
3136.696	440.12
3139.869	438.12
3143.039	436.12
3146.206	473.12
3149.371	474.12
3152.533	471.12
3155.693	447.12
3158.85	462.12
3162.005	473.12
3165.157	461.12
3168.306	474.12
3171.453	473.12
3174.597	456.12
3177.739	467.12
3180.878	480.12
3184.014	478.12
3187.149	477.12
3190.28	466.12
3193.409	482.12
3196.536	481.12
3199.659	489.12
3202.781	482.12
3205.9	470.12
3209.016	482.12
3212.13	478.12
3215.241	465.12
3218.35	477.12
3221.456	464.12
3224.56	449.12
3227.661	459.12
3230.76	460.12
3233.856	450.12
3236.95	452.12
3240.041	436.12
3243.13	433.12
3246.216	449.12
3249.3	446.12
3252.382	441.12
3255.46	439.12
3258.537	374.12
3261.611	421.12
3264.682	431.12
3267.751	437.12
3270.818	421.12
3273.882	441.12
3276.943	412.12
3280.002	433.12
3283.059	417.12
3286.113	411.12
3289.165	398.12
3292.214	386.12
3295.261	401.12
3298.306	373.12
3301.348	380.12
3304.387	363.12
3307.425	381.12
3310.459	359.12
3313.492	366.12
3316.521	353.12
3319.549	363.12
3322.574	347.12
3325.597	353.12
3328.617	339.12
3331.635	340.12
3334.65	321.12
3337.663	349.12
3340.674	334.12
3343.682	327.12
3346.688	339.12
3349.691	333.12
3352.692	327.12
3355.691	329.12
3358.687	327.12
3361.681	326.12
3364.673	325.12
3367.662	316.12
3370.649	318.12
3373.633	307.12
3376.615	305.12
3379.595	299.12
3382.572	298.12
3385.547	288.12
3388.52	290.12
3391.49	278.12
3394.458	284.12
3397.424	292.12
3400.387	270.12
3403.348	278.12
3406.307	271.12
3409.263	269.12
3412.217	276.12
3415.168	272.12
3418.118	278.12
3421.065	270.12
3424.009	281.12
3426.951	264.12
3429.891	249.12
3432.829	247.12
3435.764	249.12
3438.697	240.12
3441.628	244.12
3444.557	221.12
3447.483	217.12
3450.407	225.12
3453.328	214.12
3456.247	206.12
3459.164	196.12
3462.079	210.12
3464.991	191.12
3467.902	190.12
3470.809	187.12
3473.715	186.12
3476.618	173.12
3479.519	173.12
3482.418	142.12
3485.315	155.12
3488.209	153.12
3491.101	148.12
3493.99	132.12
3496.878	137.12
3499.763	140.12
3502.646	139.12
3505.527	126.12
3508.405	124.12
3511.281	110.12
3514.155	121.12
3517.027	112.12
3519.897	95.12
3522.764	106.12
3525.629	87.12
3528.492	93.12
3531.352	91.12
3534.211	89.12
3537.067	78.12
3539.921	81.12
3542.773	79.12
3545.622	62.12
3548.469	60.12
3551.315	52.12
3554.157	57.12
3556.998	53.12
3559.837	53.12
3562.673	55.12
3565.507	42.12
3568.339	40.12
3571.169	47.12
3573.996	46.12
3576.822	25.12
3579.645	34.12
3582.466	27.12
3585.285	36.12
3588.101	32.12
3590.916	21.12
3593.728	36.12
3596.538	22.12
3599.346	28.12
3602.152	20.12
3604.956	24.12
3607.757	20.12
3610.556	3.12
3613.354	23.12
3616.149	15.12
3618.942	15.12
3621.732	15.12
3624.521	6.12
3627.307	-3.88
3630.092	0.12
3632.874	16.12
3635.654	7.12
3638.432	4.12
3641.208	-1.88
3643.982	1.12
3646.753	8.12
3649.523	-24.88
3652.29	-1.88
3655.055	3.12
3657.818	-0.88
3660.579	-5.88
3663.338	-16.88
3666.095	-9.88
3668.849	-30.88
3671.602	-6.88
3674.352	-19.88
3677.101	-2.88
3679.847	-3.88
3682.591	-20.88
3685.333	-27.88
3688.073	-10.88
3690.811	-24.88
3693.547	-28.88
3696.281	-20.88
3699.013	-13.88
3701.742	-21.88
3704.47	-30.88
3707.195	-12.88
3709.919	-18.88
3712.64	-21.88
3715.359	-22.88
3718.076	-6.88
3720.792	-18.88
3723.505	-15.88
3726.216	-5.88
3728.925	-23.88
3731.632	-28.88
3734.336	-22.88
3737.039	-20.88
3739.74	-20.88
3742.439	-47.88
3745.136	-15.88
3747.83	-23.88
3750.523	-14.88
3753.213	-78.88
3755.902	-27.88
3758.589	-40.88
3761.273	-32.88
3763.956	-20.88
3766.636	-38.88
3769.315	-13.88
3771.991	-27.88
3774.665	-32.88
3777.338	-27.88
3780.008	-36.88
3782.677	-25.88
3785.343	-39.88
3788.007	-50.88
3790.67	-26.88
3793.33	-35.88
3795.989	-31.88
3798.645	-27.88
3801.299	-40.88
3803.952	-37.88
3806.602	-32.88
3809.251	-26.88
3811.897	-33.88
3814.542	-30.88
3817.184	-31.88
3819.825	-29.88
3822.463	-43.88
3825.1	-32.88
3827.735	-30.88
3830.367	-37.88
3832.998	-20.88
3835.627	-34.88
3838.253	-24.88
3840.878	-33.88
3843.501	-20.88
3846.122	-27.88
3848.741	-26.88
3851.358	-22.88
3853.973	-39.88
3856.586	-18.88
3859.197	-34.88
3861.806	-29.88
3864.414	-38.88
3867.019	-33.88
3869.622	-22.88
3872.224	-25.88
3874.823	-16.88
3877.421	-8.88
3880.016	-2.88
3882.61	23.12
3885.202	34.12
3887.792	20.12
3890.38	3.12
3892.966	-25.88
3895.55	-37.88
3898.132	-24.88
3900.713	-22.88
3903.291	-29.88
3905.868	-35.88
3908.442	-29.88
3911.015	-29.88
3913.586	-30.88
3916.155	-33.88
3918.722	-33.88
3921.287	-35.88
3923.85	-42.88
3926.411	-31.88
3928.971	-33.88
3931.528	-27.88
3934.084	-32.88
3936.638	-41.88
3939.19	-27.88
3941.74	-31.88
3944.288	-37.88
3946.834	-31.88
3949.378	-23.88
3951.921	-39.88
3954.462	-32.88
3957	-28.88
3959.537	-21.88
3962.072	-33.88
3964.606	-49.88
3967.137	-34.88
3969.667	-34.88
3972.194	-23.88
3974.72	-34.88
3977.244	-54.88
3979.766	-38.88
3982.286	-41.88
3984.805	-27.88
3987.321	-20.88
3989.836	-22.88
3992.349	-34.88
3994.86	-30.88
3997.369	-33.88
3999.877	-29.88
4002.382	-29.88
4004.886	-25.88
4007.388	-30.88
4009.888	-22.88
4012.386	-25.88
4014.883	-25.88
4017.377	-28.88
4019.87	-28.88
4022.361	-36.88
4024.85	-28.88
4027.338	-27.88
4029.823	-35.88
4032.307	-28.88
4034.789	-28.88
4037.269	-31.88
4039.747	-47.88
4042.224	-20.88
4044.699	-36.88
4047.172	-34.88
4049.643	-23.88
4052.112	-56.88
4054.58	-28.88
4057.046	-40.88
4059.51	-33.88
4061.972	-30.88
4064.432	-50.88
4066.891	-20.88
4069.348	-31.88
4071.803	-25.88
4074.256	-28.88
4076.708	-26.88
4079.158	-30.88
4081.606	-18.88
4084.052	-25.88
4086.497	-24.88
4088.939	-33.88
4091.38	-32.88
4093.819	-23.88
4096.257	0.12
4098.693	-8.88
4101.127	-6.88
4103.559	2.12
4105.989	51.12
4108.418	54.12
4110.845	45.12
4113.27	58.12
4115.694	73.12
4118.115	62.12
4120.535	-26.88
4122.954	-18.88
4125.37	-16.88
4127.785	-22.88
4130.198	-16.88
4132.609	-21.88
4135.019	9.12
4137.427	1.12
4139.833	8.12
4142.237	-4.88
