Data from 2018-3-6_conc=3_n=9_RamanShift_03.txt Node
Date: Tue Mar 06 13:41:19 GMT+02:00 2018
User: LAB3
Spectrometer: QEPB0276
Trigger mode: 0
Integration Time (sec): 3.000000E1
Scans to average: 1
Electric dark correction enabled: true
Nonlinearity correction enabled: false
Boxcar width: 0
XAxis mode: Raman Shifts
Number of Pixels in Spectrum: 1044
>>>>>Begin Spectral Data<<<<<
160.701	107.12
166.742	136.12
172.777	202.12
178.805	407.12
184.826	935.12
190.841	1874.12
196.849	2960.12
202.85	3815.12
208.845	4105.12
214.833	4085.12
220.815	4045.12
226.789	4059.12
232.758	4072.12
238.719	4073.12
244.674	4048.12
250.623	4006.12
256.565	3972.12
262.5	3930.12
268.429	3915.12
274.351	3916.12
280.267	3890.12
286.176	3928.12
292.079	3909.12
297.975	3893.12
303.865	3935.12
309.748	3899.12
315.625	3907.12
321.495	3922.12
327.359	3919.12
333.217	3955.12
339.068	3940.12
344.912	3969.12
350.751	3971.12
356.583	3987.12
362.408	4005.12
368.227	4042.12
374.04	4036.12
379.847	4080.12
385.647	4083.12
391.44	4082.12
397.228	4128.12
403.009	4151.12
408.784	4152.12
414.553	4149.12
420.315	4183.12
426.071	4175.12
431.821	4172.12
437.565	4187.12
443.302	4192.12
449.033	4116.12
454.758	4147.12
460.477	4084.12
466.189	4080.12
471.896	4040.12
477.596	3997.12
483.29	3974.12
488.978	3959.12
494.66	3926.12
500.335	3856.12
506.005	3672.12
511.668	3524.12
517.325	3356.12
522.977	3212.12
528.622	3128.12
534.261	3056.12
539.894	2987.12
545.521	2962.12
551.141	2893.12
556.756	2889.12
562.365	2861.12
567.968	2843.12
573.565	2827.12
579.155	2843.12
584.74	2779.12
590.319	2798.12
595.892	2808.12
601.459	2791.12
607.02	2804.12
612.575	2757.12
618.124	2726.12
623.667	2662.12
629.204	2661.12
634.735	2608.12
640.261	2589.12
645.781	2552.12
651.294	2559.12
656.802	2521.12
662.304	2545.12
667.8	2524.12
673.29	2519.12
678.775	2519.12
684.254	2500.12
689.726	2488.12
695.193	2492.12
700.655	2483.12
706.11	2458.12
711.56	2430.12
717.004	2442.12
722.442	2413.12
727.874	2401.12
733.301	2400.12
738.722	2384.12
744.137	2369.12
749.547	2387.12
754.951	2387.12
760.349	2377.12
765.741	2417.12
771.128	2410.12
776.509	2439.12
781.885	2480.12
787.254	2498.12
792.618	2495.12
797.977	2492.12
803.33	2454.12
808.677	2450.12
814.019	2449.12
819.355	2407.12
824.686	2401.12
830.011	2372.12
835.33	2386.12
840.644	2383.12
845.952	2322.12
851.255	2318.12
856.552	2311.12
861.844	2283.12
867.13	2244.12
872.41	2238.12
877.686	2233.12
882.955	2206.12
888.219	2192.12
893.478	2141.12
898.731	2128.12
903.979	2111.12
909.221	2079.12
914.458	2062.12
919.69	2067.12
924.916	2055.12
930.136	2070.12
935.351	2071.12
940.561	2054.12
945.766	2067.12
950.965	2091.12
956.158	2049.12
961.347	2027.12
966.529	2006.12
971.707	1987.12
976.879	1945.12
982.046	1931.12
987.208	1911.12
992.364	1927.12
997.515	1930.12
1002.66	1949.12
1007.801	1957.12
1012.936	1989.12
1018.066	1956.12
1023.19	1982.12
1028.309	2005.12
1033.423	2006.12
1038.532	1989.12
1043.636	1974.12
1048.734	1958.12
1053.827	1910.12
1058.915	1915.12
1063.998	1907.12
1069.075	1908.12
1074.147	1910.12
1079.214	1902.12
1084.276	1939.12
1089.333	1900.12
1094.385	1935.12
1099.431	1887.12
1104.472	1907.12
1109.509	1888.12
1114.54	1861.12
1119.565	1839.12
1124.586	1819.12
1129.602	1779.12
1134.613	1753.12
1139.618	1755.12
1144.619	1748.12
1149.614	1768.12
1154.604	1763.12
1159.589	1776.12
1164.57	1794.12
1169.545	1806.12
1174.515	1779.12
1179.48	1782.12
1184.44	1761.12
1189.395	1775.12
1194.345	1736.12
1199.29	1732.12
1204.23	1728.12
1209.165	1708.12
1214.095	1737.12
1219.021	1737.12
1223.941	1726.12
1228.856	1743.12
1233.766	1776.12
1238.672	1762.12
1243.572	1758.12
1248.467	1732.12
1253.358	1715.12
1258.244	1699.12
1263.124	1681.12
1268	1659.12
1272.871	1599.12
1277.737	1616.12
1282.599	1591.12
1287.455	1588.12
1292.306	1594.12
1297.153	1584.12
1301.995	1594.12
1306.832	1603.12
1311.664	1612.12
1316.491	1601.12
1321.314	1599.12
1326.132	1584.12
1330.945	1564.12
1335.753	1542.12
1340.556	1512.12
1345.354	1469.12
1350.148	1476.12
1354.937	1456.12
1359.722	1417.12
1364.501	1433.12
1369.276	1451.12
1374.046	1434.12
1378.811	1430.12
1383.572	1435.12
1388.327	1430.12
1393.079	1399.12
1397.825	1389.12
1402.567	1389.12
1407.304	1367.12
1412.036	1363.12
1416.764	1366.12
1421.487	1353.12
1426.205	1341.12
1430.919	1362.12
1435.628	1360.12
1440.333	1360.12
1445.032	1374.12
1449.727	1393.12
1454.418	1419.12
1459.104	1394.12
1463.785	1366.12
1468.462	1358.12
1473.134	1328.12
1477.802	1304.12
1482.465	1276.12
1487.123	1262.12
1491.777	1245.12
1496.426	1250.12
1501.071	1264.12
1505.711	1265.12
1510.347	1273.12
1514.978	1286.12
1519.604	1287.12
1524.226	1309.12
1528.844	1264.12
1533.457	1285.12
1538.065	1258.12
1542.669	1261.12
1547.269	1245.12
1551.864	1241.12
1556.454	1227.12
1561.041	1241.12
1565.622	1236.12
1570.199	1248.12
1574.772	1257.12
1579.34	1269.12
1583.904	1272.12
1588.464	1284.12
1593.019	1288.12
1597.569	1273.12
1602.115	1277.12
1606.657	1265.12
1611.195	1273.12
1615.728	1276.12
1620.256	1257.12
1624.78	1223.12
1629.3	1249.12
1633.816	1269.12
1638.327	1257.12
1642.834	1266.12
1647.336	1270.12
1651.834	1286.12
1656.328	1287.12
1660.817	1273.12
1665.302	1266.12
1669.783	1220.12
1674.259	1210.12
1678.732	1192.12
1683.199	1159.12
1687.663	1123.12
1692.122	1120.12
1696.577	1089.12
1701.028	1079.12
1705.474	1048.12
1709.917	1026.12
1714.355	1019.12
1718.788	1025.12
1723.218	1007.12
1727.643	980.12
1732.064	971.12
1736.481	942.12
1740.893	945.12
1745.301	920.12
1749.705	870.12
1754.105	892.12
1758.501	855.12
1762.893	850.12
1767.28	821.12
1771.663	814.12
1776.042	807.12
1780.417	799.12
1784.787	808.12
1789.154	814.12
1793.516	806.12
1797.874	798.12
1802.228	803.12
1806.578	794.12
1810.924	786.12
1815.266	676.12
1819.603	796.12
1823.937	756.12
1828.266	770.12
1832.591	761.12
1836.913	759.12
1841.23	738.12
1845.543	752.12
1849.852	760.12
1854.156	744.12
1858.457	732.12
1862.754	740.12
1867.047	747.12
1871.335	755.12
1875.62	759.12
1879.9	743.12
1884.177	735.12
1888.449	737.12
1892.718	734.12
1896.982	724.12
1901.243	705.12
1905.499	711.12
1909.752	690.12
1914	679.12
1918.245	711.12
1922.485	708.12
1926.722	697.12
1930.954	708.12
1935.183	703.12
1939.408	722.12
1943.628	704.12
1947.845	706.12
1952.058	692.12
1956.267	688.12
1960.472	686.12
1964.673	668.12
1968.87	662.12
1973.063	655.12
1977.252	657.12
1981.438	646.12
1985.619	624.12
1989.797	615.12
1993.971	631.12
1998.14	624.12
2002.306	628.12
2006.469	634.12
2010.627	611.12
2014.781	618.12
2018.932	599.12
2023.078	625.12
2027.221	609.12
2031.36	594.12
2035.495	593.12
2039.627	582.12
2043.754	577.12
2047.878	572.12
2051.998	558.12
2056.114	566.12
2060.226	558.12
2064.334	569.12
2068.439	568.12
2072.54	576.12
2076.637	561.12
2080.73	565.12
2084.82	566.12
2088.906	562.12
2092.988	566.12
2097.066	568.12
2101.14	579.12
2105.211	557.12
2109.278	541.12
2113.342	540.12
2117.401	538.12
2121.457	520.12
2125.509	524.12
2129.558	520.12
2133.602	525.12
2137.643	521.12
2141.681	525.12
2145.714	517.12
2149.744	520.12
2153.77	507.12
2157.793	496.12
2161.812	464.12
2165.827	475.12
2169.838	492.12
2173.846	471.12
2177.851	457.12
2181.851	467.12
2185.848	451.12
2189.841	448.12
2193.831	450.12
2197.817	448.12
2201.799	440.12
2205.778	434.12
2209.753	424.12
2213.725	422.12
2217.693	434.12
2221.657	425.12
2225.618	423.12
2229.575	417.12
2233.529	418.12
2237.479	420.12
2241.425	404.12
2245.368	398.12
2249.307	399.12
2253.243	388.12
2257.175	391.12
2261.104	371.12
2265.029	373.12
2268.95	375.12
2272.868	366.12
2276.783	363.12
2280.694	362.12
2284.601	356.12
2288.505	349.12
2292.405	358.12
2296.302	333.12
2300.195	340.12
2304.085	303.12
2307.971	337.12
2311.854	312.12
2315.734	318.12
2319.609	319.12
2323.482	294.12
2327.351	303.12
2331.216	304.12
2335.078	309.12
2338.937	300.12
2342.792	288.12
2346.643	285.12
2350.492	304.12
2354.336	287.12
2358.178	297.12
2362.015	303.12
2365.85	291.12
2369.681	301.12
2373.508	298.12
2377.333	308.12
2381.153	304.12
2384.971	297.12
2388.785	295.12
2392.595	294.12
2396.402	293.12
2400.206	258.12
2404.007	280.12
2407.804	288.12
2411.597	282.12
2415.388	279.12
2419.174	267.12
2422.958	275.12
2426.738	278.12
2430.515	276.12
2434.289	263.12
2438.059	259.12
2441.825	268.12
2445.589	267.12
2449.349	253.12
2453.106	263.12
2456.859	251.12
2460.61	257.12
2464.356	246.12
2468.1	245.12
2471.84	242.12
2475.577	243.12
2479.311	235.12
2483.041	247.12
2486.768	253.12
2490.492	257.12
2494.213	244.12
2497.93	230.12
2501.644	223.12
2505.355	237.12
2509.062	233.12
2512.766	231.12
2516.467	229.12
2520.165	227.12
2523.859	218.12
2527.551	247.12
2531.239	210.12
2534.923	224.12
2538.605	225.12
2542.283	277.12
2545.958	278.12
2549.63	233.12
2553.299	221.12
2556.964	209.12
2560.626	204.12
2564.285	217.12
2567.941	199.12
2571.594	205.12
2575.243	217.12
2578.89	204.12
2582.533	199.12
2586.173	199.12
2589.809	199.12
2593.443	186.12
2597.073	194.12
2600.701	196.12
2604.325	197.12
2607.946	183.12
2611.564	194.12
2615.178	195.12
2618.79	199.12
2622.398	178.12
2626.004	190.12
2629.606	185.12
2633.205	179.12
2636.801	180.12
2640.394	180.12
2643.983	176.12
2647.57	170.12
2651.153	172.12
2654.734	174.12
2658.311	150.12
2661.885	159.12
2665.456	161.12
2669.025	159.12
2672.589	158.12
2676.151	175.12
2679.71	176.12
2683.266	158.12
2686.819	147.12
2690.368	158.12
2693.915	164.12
2697.458	156.12
2700.999	160.12
2704.536	156.12
2708.071	151.12
2711.602	142.12
2715.13	142.12
2718.656	129.12
2722.178	139.12
2725.697	130.12
2729.214	132.12
2732.727	135.12
2736.237	125.12
2739.744	126.12
2743.249	130.12
2746.75	133.12
2750.248	125.12
2753.743	129.12
2757.236	131.12
2760.725	140.12
2764.211	108.12
2767.695	128.12
2771.175	126.12
2774.652	134.12
2778.127	126.12
2781.598	127.12
2785.067	136.12
2788.532	118.12
2791.995	129.12
2795.455	124.12
2798.911	133.12
2802.365	124.12
2805.816	128.12
2809.264	139.12
2812.709	122.12
2816.151	129.12
2819.59	126.12
2823.026	126.12
2826.46	119.12
2829.89	134.12
2833.318	109.12
2836.742	125.12
2840.164	124.12
2843.583	131.12
2846.999	121.12
2850.412	136.12
2853.822	126.12
2857.229	143.12
2860.634	136.12
2864.035	121.12
2867.434	142.12
2870.83	144.12
2874.223	134.12
2877.613	140.12
2881	137.12
2884.385	146.12
2887.766	139.12
2891.145	144.12
2894.521	146.12
2897.894	137.12
2901.264	144.12
2904.631	143.12
2907.996	145.12
2911.358	159.12
2914.717	146.12
2918.073	146.12
2921.426	151.12
2924.777	141.12
2928.124	152.12
2931.469	166.12
2934.811	151.12
2938.15	172.12
2941.487	157.12
2944.821	183.12
2948.152	163.12
2951.48	161.12
2954.805	154.12
2958.128	181.12
2961.447	165.12
2964.765	181.12
2968.079	166.12
2971.39	165.12
2974.699	172.12
2978.005	167.12
2981.308	174.12
2984.609	165.12
2987.907	185.12
2991.202	186.12
2994.494	171.12
2997.784	181.12
3001.07	176.12
3004.355	184.12
3007.636	190.12
3010.915	187.12
3014.191	190.12
3017.464	197.12
3020.734	190.12
3024.002	192.12
3027.267	186.12
3030.53	199.12
3033.789	197.12
3037.046	202.12
3040.301	198.12
3043.552	207.12
3046.801	219.12
3050.048	224.12
3053.291	249.12
3056.532	240.12
3059.771	223.12
3063.006	245.12
3066.239	255.12
3069.469	257.12
3072.697	257.12
3075.922	254.12
3079.144	273.12
3082.364	294.12
3085.581	283.12
3088.795	305.12
3092.007	299.12
3095.216	304.12
3098.423	306.12
3101.627	294.12
3104.828	324.12
3108.026	327.12
3111.222	339.12
3114.416	351.12
3117.607	352.12
3120.795	368.12
3123.98	354.12
3127.163	363.12
3130.344	376.12
3133.521	366.12
3136.696	393.12
3139.869	396.12
3143.039	392.12
3146.206	428.12
3149.371	431.12
3152.533	425.12
3155.693	418.12
3158.85	429.12
3162.005	437.12
3165.157	421.12
3168.306	429.12
3171.453	439.12
3174.597	423.12
3177.739	421.12
3180.878	435.12
3184.014	444.12
3187.149	438.12
3190.28	446.12
3193.409	452.12
3196.536	443.12
3199.659	451.12
3202.781	455.12
3205.9	436.12
3209.016	450.12
3212.13	453.12
3215.241	448.12
3218.35	441.12
3221.456	431.12
3224.56	427.12
3227.661	431.12
3230.76	419.12
3233.856	431.12
3236.95	419.12
3240.041	419.12
3243.13	420.12
3246.216	420.12
3249.3	427.12
3252.382	411.12
3255.46	407.12
3258.537	357.12
3261.611	391.12
3264.682	400.12
3267.751	399.12
3270.818	394.12
3273.882	405.12
3276.943	393.12
3280.002	414.12
3283.059	393.12
3286.113	398.12
3289.165	374.12
3292.214	368.12
3295.261	389.12
3298.306	358.12
3301.348	364.12
3304.387	342.12
3307.425	370.12
3310.459	356.12
3313.492	355.12
3316.521	348.12
3319.549	348.12
3322.574	353.12
3325.597	335.12
3328.617	336.12
3331.635	334.12
3334.65	313.12
3337.663	328.12
3340.674	321.12
3343.682	330.12
3346.688	334.12
3349.691	327.12
3352.692	321.12
3355.691	338.12
3358.687	311.12
3361.681	325.12
3364.673	313.12
3367.662	318.12
3370.649	322.12
3373.633	296.12
3376.615	303.12
3379.595	290.12
3382.572	284.12
3385.547	287.12
3388.52	278.12
3391.49	287.12
3394.458	280.12
3397.424	286.12
3400.387	271.12
3403.348	267.12
3406.307	267.12
3409.263	272.12
3412.217	265.12
3415.168	266.12
3418.118	268.12
3421.065	253.12
3424.009	263.12
3426.951	248.12
3429.891	243.12
3432.829	244.12
3435.764	238.12
3438.697	230.12
3441.628	249.12
3444.557	214.12
3447.483	206.12
3450.407	220.12
3453.328	202.12
3456.247	198.12
3459.164	185.12
3462.079	193.12
3464.991	188.12
3467.902	181.12
3470.809	174.12
3473.715	170.12
3476.618	164.12
3479.519	163.12
3482.418	136.12
3485.315	145.12
3488.209	145.12
3491.101	139.12
3493.99	121.12
3496.878	129.12
3499.763	134.12
3502.646	128.12
3505.527	120.12
3508.405	115.12
3511.281	96.12
3514.155	107.12
3517.027	106.12
3519.897	96.12
3522.764	97.12
3525.629	71.12
3528.492	83.12
3531.352	81.12
3534.211	83.12
3537.067	75.12
3539.921	71.12
3542.773	69.12
3545.622	58.12
3548.469	53.12
3551.315	50.12
3554.157	59.12
3556.998	40.12
3559.837	49.12
3562.673	43.12
3565.507	42.12
3568.339	34.12
3571.169	39.12
3573.996	36.12
3576.822	13.12
3579.645	28.12
3582.466	21.12
3585.285	31.12
3588.101	28.12
3590.916	16.12
3593.728	28.12
3596.538	22.12
3599.346	20.12
3602.152	7.12
3604.956	12.12
3607.757	17.12
3610.556	3.12
3613.354	16.12
3616.149	6.12
3618.942	12.12
3621.732	7.12
3624.521	1.12
3627.307	-8.88
3630.092	-7.88
3632.874	11.12
3635.654	-0.88
3638.432	-3.88
3641.208	-8.88
3643.982	-6.88
3646.753	-0.88
3649.523	-27.88
3652.29	-9.88
3655.055	-7.88
3657.818	-8.88
3660.579	-8.88
3663.338	-21.88
3666.095	-13.88
3668.849	-40.88
3671.602	-10.88
3674.352	-27.88
3677.101	-8.88
3679.847	-9.88
3682.591	-24.88
3685.333	-29.88
3688.073	-17.88
3690.811	-29.88
3693.547	-32.88
3696.281	-30.88
3699.013	-21.88
3701.742	-23.88
3704.47	-34.88
3707.195	-23.88
3709.919	-23.88
3712.64	-22.88
3715.359	-36.88
3718.076	-14.88
3720.792	-27.88
3723.505	-22.88
3726.216	-21.88
3728.925	-29.88
3731.632	-32.88
3734.336	-28.88
3737.039	-24.88
3739.74	-25.88
3742.439	-45.88
3745.136	-20.88
3747.83	-31.88
3750.523	-23.88
3753.213	-97.88
3755.902	-29.88
3758.589	-43.88
3761.273	-34.88
3763.956	-22.88
3766.636	-46.88
3769.315	-21.88
3771.991	-27.88
3774.665	-38.88
3777.338	-36.88
3780.008	-43.88
3782.677	-34.88
3785.343	-48.88
3788.007	-52.88
3790.67	-30.88
3793.33	-38.88
3795.989	-39.88
3798.645	-32.88
3801.299	-47.88
3803.952	-42.88
3806.602	-36.88
3809.251	-29.88
3811.897	-36.88
3814.542	-31.88
3817.184	-41.88
3819.825	-33.88
3822.463	-46.88
3825.1	-35.88
3827.735	-35.88
3830.367	-41.88
3832.998	-20.88
3835.627	-36.88
3838.253	-27.88
3840.878	-36.88
3843.501	-20.88
3846.122	-32.88
3848.741	-29.88
3851.358	-27.88
3853.973	-45.88
3856.586	-25.88
3859.197	-40.88
3861.806	-34.88
3864.414	-45.88
3867.019	-35.88
3869.622	-26.88
3872.224	-20.88
3874.823	-17.88
3877.421	9.12
3880.016	20.12
3882.61	59.12
3885.202	75.12
3887.792	58.12
3890.38	22.12
3892.966	-9.88
3895.55	-35.88
3898.132	-25.88
3900.713	-27.88
3903.291	-31.88
3905.868	-43.88
3908.442	-34.88
3911.015	-34.88
3913.586	-37.88
3916.155	-39.88
3918.722	-36.88
3921.287	-42.88
3923.85	-48.88
3926.411	-40.88
3928.971	-43.88
3931.528	-32.88
3934.084	-38.88
3936.638	-41.88
3939.19	-32.88
3941.74	-31.88
3944.288	-39.88
3946.834	-40.88
3949.378	-26.88
3951.921	-43.88
3954.462	-40.88
3957	-34.88
3959.537	-24.88
3962.072	-35.88
3964.606	-49.88
3967.137	-41.88
3969.667	-45.88
3972.194	-28.88
3974.72	-38.88
3977.244	-56.88
3979.766	-43.88
3982.286	-40.88
3984.805	-34.88
3987.321	-26.88
3989.836	-29.88
3992.349	-38.88
3994.86	-28.88
3997.369	-36.88
3999.877	-36.88
4002.382	-34.88
4004.886	-31.88
4007.388	-28.88
4009.888	-25.88
4012.386	-25.88
4014.883	-23.88
4017.377	-28.88
4019.87	-30.88
4022.361	-38.88
4024.85	-30.88
4027.338	-31.88
4029.823	-35.88
4032.307	-32.88
4034.789	-28.88
4037.269	-28.88
4039.747	-47.88
4042.224	-24.88
4044.699	-41.88
4047.172	-33.88
4049.643	-20.88
4052.112	-52.88
4054.58	-32.88
4057.046	-39.88
4059.51	-30.88
4061.972	-31.88
4064.432	-47.88
4066.891	-18.88
4069.348	-34.88
4071.803	-31.88
4074.256	-36.88
4076.708	-29.88
4079.158	-26.88
4081.606	-20.88
4084.052	-34.88
4086.497	-27.88
4088.939	-30.88
4091.38	-36.88
4093.819	-23.88
4096.257	-0.88
4098.693	-3.88
4101.127	-2.88
4103.559	0.12
4105.989	103.12
4108.418	110.12
4110.845	99.12
4113.27	97.12
4115.694	105.12
4118.115	98.12
4120.535	-28.88
4122.954	-22.88
4125.37	-15.88
4127.785	-26.88
4130.198	-24.88
4132.609	-26.88
4135.019	8.12
4137.427	-0.88
4139.833	7.12
4142.237	-6.88
