Data from 2018-3-6_conc=0_n=4_RamanShift_01.txt Node
Date: Tue Mar 06 12:17:49 GMT+02:00 2018
User: LAB3
Spectrometer: QEPB0276
Trigger mode: 0
Integration Time (sec): 3.000000E1
Scans to average: 1
Electric dark correction enabled: true
Nonlinearity correction enabled: false
Boxcar width: 0
XAxis mode: Raman Shifts
Number of Pixels in Spectrum: 1044
>>>>>Begin Spectral Data<<<<<
160.701	83.62
166.742	123.62
172.777	203.62
178.805	445.62
184.826	1085.62
190.841	2193.62
196.849	3533.62
202.85	4550.62
208.845	4977.62
214.833	5072.62
220.815	5037.62
226.789	5110.62
232.758	5168.62
238.719	5228.62
244.674	5268.62
250.623	5285.62
256.565	5296.62
262.5	5279.62
268.429	5238.62
274.351	5265.62
280.267	5295.62
286.176	5345.62
292.079	5379.62
297.975	5363.62
303.865	5415.62
309.748	5454.62
315.625	5478.62
321.495	5474.62
327.359	5464.62
333.217	5507.62
339.068	5535.62
344.912	5560.62
350.751	5587.62
356.583	5621.62
362.408	5631.62
368.227	5638.62
374.04	5651.62
379.847	5667.62
385.647	5670.62
391.44	5744.62
397.228	5762.62
403.009	5791.62
408.784	5792.62
414.553	5821.62
420.315	5855.62
426.071	5834.62
431.821	5869.62
437.565	5871.62
443.302	5826.62
449.033	5809.62
454.758	5829.62
460.477	5732.62
466.189	5676.62
471.896	5678.62
477.596	5628.62
483.29	5590.62
488.978	5639.62
494.66	5587.62
500.335	5475.62
506.005	5288.62
511.668	5082.62
517.325	4891.62
522.977	4732.62
528.622	4641.62
534.261	4577.62
539.894	4497.62
545.521	4474.62
551.141	4413.62
556.756	4393.62
562.365	4364.62
567.968	4345.62
573.565	4319.62
579.155	4304.62
584.74	4270.62
590.319	4249.62
595.892	4253.62
601.459	4239.62
607.02	4237.62
612.575	4206.62
618.124	4188.62
623.667	4124.62
629.204	4049.62
634.735	4022.62
640.261	4021.62
645.781	3979.62
651.294	3970.62
656.802	3950.62
662.304	3980.62
667.8	3947.62
673.29	3923.62
678.775	3933.62
684.254	3925.62
689.726	3890.62
695.193	3908.62
700.655	3866.62
706.11	3861.62
711.56	3825.62
717.004	3822.62
722.442	3799.62
727.874	3763.62
733.301	3787.62
738.722	3761.62
744.137	3763.62
749.547	3755.62
754.951	3749.62
760.349	3760.62
765.741	3788.62
771.128	3769.62
776.509	3799.62
781.885	3872.62
787.254	3909.62
792.618	3883.62
797.977	3887.62
803.33	3866.62
808.677	3857.62
814.019	3806.62
819.355	3769.62
824.686	3733.62
830.011	3723.62
835.33	3743.62
840.644	3745.62
845.952	3697.62
851.255	3719.62
856.552	3697.62
861.844	3648.62
867.13	3648.62
872.41	3630.62
877.686	3698.62
882.955	3703.62
888.219	3678.62
893.478	3570.62
898.731	3486.62
903.979	3423.62
909.221	3392.62
914.458	3394.62
919.69	3370.62
924.916	3392.62
930.136	3385.62
935.351	3367.62
940.561	3378.62
945.766	3377.62
950.965	3362.62
956.158	3346.62
961.347	3326.62
966.529	3273.62
971.707	3214.62
976.879	3206.62
982.046	3178.62
987.208	3155.62
992.364	3151.62
997.515	3179.62
1002.66	3181.62
1007.801	3215.62
1012.936	3234.62
1018.066	3266.62
1023.19	3270.62
1028.309	3300.62
1033.423	3291.62
1038.532	3315.62
1043.636	3310.62
1048.734	3286.62
1053.827	3233.62
1058.915	3194.62
1063.998	3159.62
1069.075	3158.62
1074.147	3175.62
1079.214	3170.62
1084.276	3214.62
1089.333	3213.62
1094.385	3221.62
1099.431	3207.62
1104.472	3193.62
1109.509	3154.62
1114.54	3110.62
1119.565	3087.62
1124.586	3035.62
1129.602	2994.62
1134.613	2946.62
1139.618	2968.62
1144.619	2949.62
1149.614	2959.62
1154.604	2942.62
1159.589	2971.62
1164.57	2982.62
1169.545	2989.62
1174.515	2989.62
1179.48	2964.62
1184.44	2963.62
1189.395	2945.62
1194.345	2904.62
1199.29	2909.62
1204.23	2897.62
1209.165	2904.62
1214.095	2909.62
1219.021	2938.62
1223.941	2903.62
1228.856	2941.62
1233.766	2956.62
1238.672	2941.62
1243.572	2956.62
1248.467	2925.62
1253.358	2895.62
1258.244	2830.62
1263.124	2809.62
1268	2787.62
1272.871	2711.62
1277.737	2711.62
1282.599	2714.62
1287.455	2721.62
1292.306	2713.62
1297.153	2711.62
1301.995	2730.62
1306.832	2747.62
1311.664	2744.62
1316.491	2732.62
1321.314	2738.62
1326.132	2717.62
1330.945	2665.62
1335.753	2619.62
1340.556	2579.62
1345.354	2558.62
1350.148	2509.62
1354.937	2501.62
1359.722	2430.62
1364.501	2434.62
1369.276	2431.62
1374.046	2441.62
1378.811	2394.62
1383.572	2429.62
1388.327	2402.62
1393.079	2388.62
1397.825	2355.62
1402.567	2375.62
1407.304	2348.62
1412.036	2346.62
1416.764	2355.62
1421.487	2335.62
1426.205	2326.62
1430.919	2357.62
1435.628	2398.62
1440.333	2395.62
1445.032	2422.62
1449.727	2453.62
1454.418	2479.62
1459.104	2469.62
1463.785	2429.62
1468.462	2394.62
1473.134	2342.62
1477.802	2296.62
1482.465	2266.62
1487.123	2261.62
1491.777	2234.62
1496.426	2215.62
1501.071	2219.62
1505.711	2205.62
1510.347	2232.62
1514.978	2232.62
1519.604	2232.62
1524.226	2236.62
1528.844	2213.62
1533.457	2183.62
1538.065	2186.62
1542.669	2181.62
1547.269	2129.62
1551.864	2119.62
1556.454	2105.62
1561.041	2089.62
1565.622	2093.62
1570.199	2117.62
1574.772	2120.62
1579.34	2150.62
1583.904	2153.62
1588.464	2170.62
1593.019	2173.62
1597.569	2152.62
1602.115	2118.62
1606.657	2109.62
1611.195	2105.62
1615.728	2100.62
1620.256	2053.62
1624.78	2038.62
1629.3	2045.62
1633.816	2070.62
1638.327	2051.62
1642.834	2089.62
1647.336	2083.62
1651.834	2112.62
1656.328	2119.62
1660.817	2091.62
1665.302	2081.62
1669.783	2065.62
1674.259	2040.62
1678.732	2014.62
1683.199	1969.62
1687.663	1922.62
1692.122	1902.62
1696.577	1859.62
1701.028	1833.62
1705.474	1793.62
1709.917	1771.62
1714.355	1752.62
1718.788	1754.62
1723.218	1745.62
1727.643	1719.62
1732.064	1723.62
1736.481	1697.62
1740.893	1684.62
1745.301	1661.62
1749.705	1590.62
1754.105	1585.62
1758.501	1552.62
1762.893	1554.62
1767.28	1500.62
1771.663	1489.62
1776.042	1481.62
1780.417	1462.62
1784.787	1468.62
1789.154	1483.62
1793.516	1491.62
1797.874	1479.62
1802.228	1445.62
1806.578	1467.62
1810.924	1447.62
1815.266	1356.62
1819.603	1416.62
1823.937	1396.62
1828.266	1381.62
1832.591	1365.62
1836.913	1360.62
1841.23	1358.62
1845.543	1360.62
1849.852	1370.62
1854.156	1360.62
1858.457	1364.62
1862.754	1360.62
1867.047	1389.62
1871.335	1386.62
1875.62	1393.62
1879.9	1379.62
1884.177	1370.62
1888.449	1374.62
1892.718	1370.62
1896.982	1359.62
1901.243	1329.62
1905.499	1324.62
1909.752	1313.62
1914	1305.62
1918.245	1313.62
1922.485	1317.62
1926.722	1343.62
1930.954	1325.62
1935.183	1319.62
1939.408	1331.62
1943.628	1318.62
1947.845	1312.62
1952.058	1309.62
1956.267	1278.62
1960.472	1273.62
1964.673	1237.62
1968.87	1230.62
1973.063	1198.62
1977.252	1166.62
1981.438	1158.62
1985.619	1148.62
1989.797	1135.62
1993.971	1138.62
1998.14	1135.62
2002.306	1127.62
2006.469	1135.62
2010.627	1118.62
2014.781	1117.62
2018.932	1101.62
2023.078	1118.62
2027.221	1091.62
2031.36	1067.62
2035.495	1074.62
2039.627	1070.62
2043.754	1050.62
2047.878	1040.62
2051.998	1042.62
2056.114	1044.62
2060.226	1032.62
2064.334	1042.62
2068.439	1043.62
2072.54	1041.62
2076.637	1042.62
2080.73	1043.62
2084.82	1026.62
2088.906	1039.62
2092.988	1035.62
2097.066	1038.62
2101.14	1036.62
2105.211	1016.62
2109.278	1002.62
2113.342	989.62
2117.401	964.62
2121.457	959.62
2125.509	963.62
2129.558	954.62
2133.602	957.62
2137.643	940.62
2141.681	922.62
2145.714	935.62
2149.744	920.62
2153.77	910.62
2157.793	891.62
2161.812	884.62
2165.827	860.62
2169.838	885.62
2173.846	860.62
2177.851	853.62
2181.851	848.62
2185.848	810.62
2189.841	826.62
2193.831	808.62
2197.817	817.62
2201.799	807.62
2205.778	782.62
2209.753	783.62
2213.725	777.62
2217.693	784.62
2221.657	771.62
2225.618	792.62
2229.575	778.62
2233.529	784.62
2237.479	782.62
2241.425	751.62
2245.368	737.62
2249.307	747.62
2253.243	721.62
2257.175	733.62
2261.104	712.62
2265.029	714.62
2268.95	696.62
2272.868	690.62
2276.783	668.62
2280.694	668.62
2284.601	668.62
2288.505	654.62
2292.405	662.62
2296.302	638.62
2300.195	639.62
2304.085	603.62
2307.971	624.62
2311.854	598.62
2315.734	600.62
2319.609	601.62
2323.482	562.62
2327.351	571.62
2331.216	585.62
2335.078	583.62
2338.937	576.62
2342.792	554.62
2346.643	567.62
2350.492	582.62
2354.336	566.62
2358.178	580.62
2362.015	573.62
2365.85	573.62
2369.681	576.62
2373.508	572.62
2377.333	583.62
2381.153	573.62
2384.971	569.62
2388.785	578.62
2392.595	563.62
2396.402	552.62
2400.206	533.62
2404.007	551.62
2407.804	554.62
2411.597	556.62
2415.388	544.62
2419.174	542.62
2422.958	549.62
2426.738	540.62
2430.515	539.62
2434.289	529.62
2438.059	511.62
2441.825	522.62
2445.589	532.62
2449.349	508.62
2453.106	515.62
2456.859	513.62
2460.61	513.62
2464.356	492.62
2468.1	481.62
2471.84	489.62
2475.577	486.62
2479.311	479.62
2483.041	479.62
2486.768	494.62
2490.492	492.62
2494.213	479.62
2497.93	468.62
2501.644	472.62
2505.355	473.62
2509.062	482.62
2512.766	463.62
2516.467	461.62
2520.165	463.62
2523.859	450.62
2527.551	479.62
2531.239	454.62
2534.923	455.62
2538.605	455.62
2542.283	450.62
2545.958	451.62
2549.63	465.62
2553.299	445.62
2556.964	440.62
2560.626	439.62
2564.285	443.62
2567.941	429.62
2571.594	425.62
2575.243	430.62
2578.89	418.62
2582.533	411.62
2586.173	417.62
2589.809	411.62
2593.443	386.62
2597.073	399.62
2600.701	403.62
2604.325	396.62
2607.946	379.62
2611.564	399.62
2615.178	393.62
2618.79	388.62
2622.398	373.62
2626.004	382.62
2629.606	378.62
2633.205	360.62
2636.801	363.62
2640.394	359.62
2643.983	357.62
2647.57	347.62
2651.153	333.62
2654.734	352.62
2658.311	329.62
2661.885	332.62
2665.456	335.62
2669.025	331.62
2672.589	327.62
2676.151	327.62
2679.71	340.62
2683.266	321.62
2686.819	309.62
2690.368	319.62
2693.915	306.62
2697.458	312.62
2700.999	310.62
2704.536	305.62
2708.071	299.62
2711.602	298.62
2715.13	290.62
2718.656	274.62
2722.178	291.62
2725.697	279.62
2729.214	286.62
2732.727	284.62
2736.237	266.62
2739.744	277.62
2743.249	278.62
2746.75	279.62
2750.248	275.62
2753.743	272.62
2757.236	270.62
2760.725	281.62
2764.211	242.62
2767.695	271.62
2771.175	256.62
2774.652	271.62
2778.127	259.62
2781.598	261.62
2785.067	256.62
2788.532	246.62
2791.995	265.62
2795.455	253.62
2798.911	263.62
2802.365	254.62
2805.816	256.62
2809.264	270.62
2812.709	252.62
2816.151	259.62
2819.59	249.62
2823.026	261.62
2826.46	263.62
2829.89	268.62
2833.318	237.62
2836.742	262.62
2840.164	255.62
2843.583	264.62
2846.999	258.62
2850.412	273.62
2853.822	254.62
2857.229	276.62
2860.634	276.62
2864.035	251.62
2867.434	278.62
2870.83	280.62
2874.223	276.62
2877.613	292.62
2881	281.62
2884.385	293.62
2887.766	288.62
2891.145	291.62
2894.521	283.62
2897.894	276.62
2901.264	293.62
2904.631	284.62
2907.996	285.62
2911.358	291.62
2914.717	288.62
2918.073	280.62
2921.426	277.62
2924.777	267.62
2928.124	280.62
2931.469	302.62
2934.811	293.62
2938.15	323.62
2941.487	307.62
2944.821	326.62
2948.152	299.62
2951.48	306.62
2954.805	270.62
2958.128	300.62
2961.447	278.62
2964.765	284.62
2968.079	275.62
2971.39	281.62
2974.699	283.62
2978.005	278.62
2981.308	278.62
2984.609	272.62
2987.907	288.62
2991.202	279.62
2994.494	264.62
2997.784	273.62
3001.07	277.62
3004.355	265.62
3007.636	260.62
3010.915	265.62
3014.191	257.62
3017.464	255.62
3020.734	259.62
3024.002	260.62
3027.267	254.62
3030.53	262.62
3033.789	259.62
3037.046	251.62
3040.301	255.62
3043.552	262.62
3046.801	267.62
3050.048	282.62
3053.291	289.62
3056.532	279.62
3059.771	271.62
3063.006	283.62
3066.239	294.62
3069.469	305.62
3072.697	296.62
3075.922	305.62
3079.144	300.62
3082.364	328.62
3085.581	316.62
3088.795	343.62
3092.007	344.62
3095.216	348.62
3098.423	334.62
3101.627	320.62
3104.828	351.62
3108.026	343.62
3111.222	382.62
3114.416	380.62
3117.607	381.62
3120.795	380.62
3123.98	387.62
3127.163	383.62
3130.344	396.62
3133.521	400.62
3136.696	428.62
3139.869	419.62
3143.039	417.62
3146.206	458.62
3149.371	440.62
3152.533	436.62
3155.693	437.62
3158.85	443.62
3162.005	441.62
3165.157	449.62
3168.306	448.62
3171.453	457.62
3174.597	433.62
3177.739	440.62
3180.878	444.62
3184.014	443.62
3187.149	436.62
3190.28	442.62
3193.409	446.62
3196.536	449.62
3199.659	455.62
3202.781	450.62
3205.9	442.62
3209.016	457.62
3212.13	447.62
3215.241	444.62
3218.35	435.62
3221.456	438.62
3224.56	434.62
3227.661	428.62
3230.76	424.62
3233.856	420.62
3236.95	422.62
3240.041	400.62
3243.13	417.62
3246.216	406.62
3249.3	428.62
3252.382	408.62
3255.46	406.62
3258.537	348.62
3261.611	393.62
3264.682	407.62
3267.751	392.62
3270.818	387.62
3273.882	399.62
3276.943	402.62
3280.002	399.62
3283.059	390.62
3286.113	383.62
3289.165	363.62
3292.214	363.62
3295.261	381.62
3298.306	349.62
3301.348	354.62
3304.387	338.62
3307.425	348.62
3310.459	345.62
3313.492	342.62
3316.521	338.62
3319.549	342.62
3322.574	333.62
3325.597	324.62
3328.617	317.62
3331.635	328.62
3334.65	305.62
3337.663	327.62
3340.674	308.62
3343.682	318.62
3346.688	315.62
3349.691	314.62
3352.692	318.62
3355.691	324.62
3358.687	317.62
3361.681	311.62
3364.673	307.62
3367.662	298.62
3370.649	313.62
3373.633	293.62
3376.615	291.62
3379.595	260.62
3382.572	288.62
3385.547	270.62
3388.52	266.62
3391.49	264.62
3394.458	268.62
3397.424	276.62
3400.387	255.62
3403.348	263.62
3406.307	253.62
3409.263	257.62
3412.217	261.62
3415.168	255.62
3418.118	256.62
3421.065	239.62
3424.009	260.62
3426.951	246.62
3429.891	240.62
3432.829	241.62
3435.764	233.62
3438.697	220.62
3441.628	225.62
3444.557	203.62
3447.483	202.62
3450.407	215.62
3453.328	201.62
3456.247	190.62
3459.164	182.62
3462.079	199.62
3464.991	180.62
3467.902	178.62
3470.809	171.62
3473.715	182.62
3476.618	156.62
3479.519	162.62
3482.418	135.62
3485.315	140.62
3488.209	138.62
3491.101	142.62
3493.99	128.62
3496.878	124.62
3499.763	130.62
3502.646	125.62
3505.527	116.62
3508.405	115.62
3511.281	105.62
3514.155	111.62
3517.027	101.62
3519.897	86.62
3522.764	101.62
3525.629	78.62
3528.492	86.62
3531.352	84.62
3534.211	77.62
3537.067	73.62
3539.921	69.62
3542.773	78.62
3545.622	58.62
3548.469	49.62
3551.315	50.62
3554.157	58.62
3556.998	44.62
3559.837	47.62
3562.673	50.62
3565.507	40.62
3568.339	35.62
3571.169	35.62
3573.996	37.62
3576.822	17.62
3579.645	20.62
3582.466	19.62
3585.285	29.62
3588.101	31.62
3590.916	21.62
3593.728	28.62
3596.538	18.62
3599.346	15.62
3602.152	8.62
3604.956	14.62
3607.757	10.62
3610.556	5.62
3613.354	13.62
3616.149	7.62
3618.942	14.62
3621.732	13.62
3624.521	2.62
3627.307	-8.38
3630.092	-5.38
3632.874	14.62
3635.654	3.62
3638.432	-7.38
3641.208	-7.38
3643.982	-1.38
3646.753	2.62
3649.523	-27.38
3652.29	-6.38
3655.055	-2.38
3657.818	-7.38
3660.579	-13.38
3663.338	-19.38
3666.095	-14.38
3668.849	-34.38
3671.602	-6.38
3674.352	-25.38
3677.101	-9.38
3679.847	-5.38
3682.591	-22.38
3685.333	-28.38
3688.073	-16.38
3690.811	-23.38
3693.547	-31.38
3696.281	-33.38
3699.013	-16.38
3701.742	-24.38
3704.47	-27.38
3707.195	-16.38
3709.919	-16.38
3712.64	-18.38
3715.359	-30.38
3718.076	-10.38
3720.792	-21.38
3723.505	-20.38
3726.216	-7.38
3728.925	-25.38
3731.632	-27.38
3734.336	-22.38
3737.039	-18.38
3739.74	-19.38
3742.439	-44.38
3745.136	-18.38
3747.83	-14.38
3750.523	-19.38
3753.213	-71.38
3755.902	-27.38
3758.589	-35.38
3761.273	-30.38
3763.956	-15.38
3766.636	-38.38
3769.315	-11.38
3771.991	-25.38
3774.665	-29.38
3777.338	-21.38
3780.008	-36.38
3782.677	-26.38
3785.343	-39.38
3788.007	-44.38
3790.67	-18.38
3793.33	-37.38
3795.989	-30.38
3798.645	-28.38
3801.299	-39.38
3803.952	-35.38
3806.602	-28.38
3809.251	-19.38
3811.897	-25.38
3814.542	-28.38
3817.184	-25.38
3819.825	-27.38
3822.463	-37.38
3825.1	-34.38
3827.735	-26.38
3830.367	-41.38
3832.998	-17.38
3835.627	-25.38
3838.253	-22.38
3840.878	-31.38
3843.501	-13.38
3846.122	-23.38
3848.741	-16.38
3851.358	-18.38
3853.973	-37.38
3856.586	-18.38
3859.197	-36.38
3861.806	-27.38
3864.414	-40.38
3867.019	-31.38
3869.622	-29.38
3872.224	-25.38
3874.823	-19.38
3877.421	-1.38
3880.016	-1.38
3882.61	25.62
3885.202	35.62
3887.792	23.62
3890.38	6.62
3892.966	-21.38
3895.55	-37.38
3898.132	-24.38
3900.713	-28.38
3903.291	-29.38
3905.868	-35.38
3908.442	-30.38
3911.015	-29.38
3913.586	-36.38
3916.155	-33.38
3918.722	-38.38
3921.287	-39.38
3923.85	-46.38
3926.411	-40.38
3928.971	-33.38
3931.528	-28.38
3934.084	-37.38
3936.638	-43.38
3939.19	-30.38
3941.74	-33.38
3944.288	-39.38
3946.834	-34.38
3949.378	-22.38
3951.921	-36.38
3954.462	-37.38
3957	-33.38
3959.537	-22.38
3962.072	-33.38
3964.606	-49.38
3967.137	-33.38
3969.667	-36.38
3972.194	-23.38
3974.72	-31.38
3977.244	-52.38
3979.766	-36.38
3982.286	-36.38
3984.805	-24.38
3987.321	-21.38
3989.836	-24.38
3992.349	-34.38
3994.86	-24.38
3997.369	-35.38
3999.877	-33.38
4002.382	-33.38
4004.886	-22.38
4007.388	-30.38
4009.888	-14.38
4012.386	-15.38
4014.883	-25.38
4017.377	-23.38
4019.87	-22.38
4022.361	-36.38
4024.85	-21.38
4027.338	-30.38
4029.823	-33.38
4032.307	-32.38
4034.789	-23.38
4037.269	-24.38
4039.747	-40.38
4042.224	-17.38
4044.699	-35.38
4047.172	-31.38
4049.643	-20.38
4052.112	-52.38
4054.58	-24.38
4057.046	-38.38
4059.51	-25.38
4061.972	-26.38
4064.432	-44.38
4066.891	-14.38
4069.348	-27.38
4071.803	-23.38
4074.256	-28.38
4076.708	-25.38
4079.158	-23.38
4081.606	-14.38
4084.052	-24.38
4086.497	-20.38
4088.939	-26.38
4091.38	-30.38
4093.819	-20.38
4096.257	1.62
4098.693	-4.38
4101.127	-5.38
4103.559	-0.38
4105.989	50.62
4108.418	60.62
4110.845	51.62
4113.27	67.62
4115.694	75.62
4118.115	69.62
4120.535	-24.38
4122.954	-24.38
4125.37	-15.38
4127.785	-24.38
4130.198	-17.38
4132.609	-21.38
4135.019	6.62
4137.427	-0.38
4139.833	6.62
4142.237	-4.38
