Data from 2018-3-6_conc=0_n=1_RamanShift_09.txt Node
Date: Tue Mar 06 12:08:19 GMT+02:00 2018
User: LAB3
Spectrometer: QEPB0276
Trigger mode: 0
Integration Time (sec): 3.000000E1
Scans to average: 1
Electric dark correction enabled: true
Nonlinearity correction enabled: false
Boxcar width: 0
XAxis mode: Raman Shifts
Number of Pixels in Spectrum: 1044
>>>>>Begin Spectral Data<<<<<
160.701	61.12
166.742	97.12
172.777	165.12
178.805	381.12
184.826	912.12
190.841	1861.12
196.849	2968.12
202.85	3828.12
208.845	4124.12
214.833	4166.12
220.815	4160.12
226.789	4157.12
232.758	4222.12
238.719	4248.12
244.674	4251.12
250.623	4240.12
256.565	4227.12
262.5	4204.12
268.429	4180.12
274.351	4156.12
280.267	4151.12
286.176	4188.12
292.079	4194.12
297.975	4179.12
303.865	4220.12
309.748	4222.12
315.625	4226.12
321.495	4226.12
327.359	4244.12
333.217	4249.12
339.068	4252.12
344.912	4273.12
350.751	4293.12
356.583	4293.12
362.408	4329.12
368.227	4335.12
374.04	4364.12
379.847	4348.12
385.647	4379.12
391.44	4413.12
397.228	4459.12
403.009	4459.12
408.784	4474.12
414.553	4525.12
420.315	4579.12
426.071	4558.12
431.821	4627.12
437.565	4644.12
443.302	4640.12
449.033	4625.12
454.758	4538.12
460.477	4494.12
466.189	4432.12
471.896	4413.12
477.596	4364.12
483.29	4312.12
488.978	4321.12
494.66	4264.12
500.335	4211.12
506.005	4060.12
511.668	3915.12
517.325	3745.12
522.977	3618.12
528.622	3547.12
534.261	3499.12
539.894	3437.12
545.521	3405.12
551.141	3354.12
556.756	3341.12
562.365	3289.12
567.968	3289.12
573.565	3275.12
579.155	3243.12
584.74	3232.12
590.319	3220.12
595.892	3224.12
601.459	3227.12
607.02	3210.12
612.575	3190.12
618.124	3158.12
623.667	3111.12
629.204	3102.12
634.735	3080.12
640.261	3028.12
645.781	2973.12
651.294	2985.12
656.802	2996.12
662.304	3001.12
667.8	2987.12
673.29	2979.12
678.775	2971.12
684.254	2972.12
689.726	2911.12
695.193	2938.12
700.655	2918.12
706.11	2896.12
711.56	2854.12
717.004	2870.12
722.442	2839.12
727.874	2862.12
733.301	2863.12
738.722	2821.12
744.137	2832.12
749.547	2823.12
754.951	2829.12
760.349	2825.12
765.741	2820.12
771.128	2828.12
776.509	2862.12
781.885	2913.12
787.254	2937.12
792.618	2955.12
797.977	2927.12
803.33	2909.12
808.677	2875.12
814.019	2868.12
819.355	2849.12
824.686	2840.12
830.011	2824.12
835.33	2843.12
840.644	2830.12
845.952	2815.12
851.255	2828.12
856.552	2820.12
861.844	2857.12
867.13	2968.12
872.41	3163.12
877.686	3516.12
882.955	3784.12
888.219	3768.12
893.478	3361.12
898.731	2942.12
903.979	2736.12
909.221	2631.12
914.458	2560.12
919.69	2539.12
924.916	2523.12
930.136	2536.12
935.351	2539.12
940.561	2511.12
945.766	2500.12
950.965	2521.12
956.158	2488.12
961.347	2450.12
966.529	2429.12
971.707	2430.12
976.879	2380.12
982.046	2378.12
987.208	2360.12
992.364	2364.12
997.515	2381.12
1002.66	2402.12
1007.801	2411.12
1012.936	2442.12
1018.066	2482.12
1023.19	2536.12
1028.309	2575.12
1033.423	2598.12
1038.532	2634.12
1043.636	2709.12
1048.734	2748.12
1053.827	2767.12
1058.915	2700.12
1063.998	2615.12
1069.075	2518.12
1074.147	2548.12
1079.214	2571.12
1084.276	2670.12
1089.333	2739.12
1094.385	2730.12
1099.431	2658.12
1104.472	2575.12
1109.509	2474.12
1114.54	2421.12
1119.565	2361.12
1124.586	2335.12
1129.602	2279.12
1134.613	2246.12
1139.618	2229.12
1144.619	2206.12
1149.614	2219.12
1154.604	2201.12
1159.589	2205.12
1164.57	2219.12
1169.545	2226.12
1174.515	2205.12
1179.48	2185.12
1184.44	2200.12
1189.395	2170.12
1194.345	2150.12
1199.29	2139.12
1204.23	2121.12
1209.165	2124.12
1214.095	2145.12
1219.021	2160.12
1223.941	2160.12
1228.856	2161.12
1233.766	2179.12
1238.672	2170.12
1243.572	2182.12
1248.467	2164.12
1253.358	2132.12
1258.244	2133.12
1263.124	2121.12
1268	2129.12
1272.871	2104.12
1277.737	2113.12
1282.599	2143.12
1287.455	2143.12
1292.306	2124.12
1297.153	2095.12
1301.995	2068.12
1306.832	2054.12
1311.664	2055.12
1316.491	2052.12
1321.314	2049.12
1326.132	2015.12
1330.945	2000.12
1335.753	1960.12
1340.556	1930.12
1345.354	1902.12
1350.148	1892.12
1354.937	1871.12
1359.722	1859.12
1364.501	1853.12
1369.276	1858.12
1374.046	1871.12
1378.811	1838.12
1383.572	1875.12
1388.327	1892.12
1393.079	1862.12
1397.825	1855.12
1402.567	1837.12
1407.304	1838.12
1412.036	1840.12
1416.764	1815.12
1421.487	1829.12
1426.205	1860.12
1430.919	1869.12
1435.628	1904.12
1440.333	1944.12
1445.032	2021.12
1449.727	2121.12
1454.418	2247.12
1459.104	2346.12
1463.785	2282.12
1468.462	2141.12
1473.134	1997.12
1477.802	1890.12
1482.465	1837.12
1487.123	1859.12
1491.777	1805.12
1496.426	1780.12
1501.071	1770.12
1505.711	1754.12
1510.347	1736.12
1514.978	1736.12
1519.604	1725.12
1524.226	1728.12
1528.844	1699.12
1533.457	1688.12
1538.065	1674.12
1542.669	1651.12
1547.269	1637.12
1551.864	1616.12
1556.454	1583.12
1561.041	1600.12
1565.622	1584.12
1570.199	1572.12
1574.772	1591.12
1579.34	1608.12
1583.904	1606.12
1588.464	1612.12
1593.019	1634.12
1597.569	1584.12
1602.115	1598.12
1606.657	1578.12
1611.195	1562.12
1615.728	1565.12
1620.256	1547.12
1624.78	1525.12
1629.3	1523.12
1633.816	1543.12
1638.327	1542.12
1642.834	1560.12
1647.336	1581.12
1651.834	1584.12
1656.328	1587.12
1660.817	1571.12
1665.302	1573.12
1669.783	1546.12
1674.259	1542.12
1678.732	1508.12
1683.199	1485.12
1687.663	1446.12
1692.122	1436.12
1696.577	1417.12
1701.028	1388.12
1705.474	1362.12
1709.917	1348.12
1714.355	1339.12
1718.788	1338.12
1723.218	1314.12
1727.643	1302.12
1732.064	1291.12
1736.481	1271.12
1740.893	1251.12
1745.301	1214.12
1749.705	1176.12
1754.105	1171.12
1758.501	1152.12
1762.893	1136.12
1767.28	1096.12
1771.663	1094.12
1776.042	1093.12
1780.417	1078.12
1784.787	1104.12
1789.154	1115.12
1793.516	1104.12
1797.874	1108.12
1802.228	1107.12
1806.578	1082.12
1810.924	1087.12
1815.266	993.12
1819.603	1067.12
1823.937	1047.12
1828.266	1039.12
1832.591	1036.12
1836.913	1019.12
1841.23	1002.12
1845.543	1007.12
1849.852	995.12
1854.156	998.12
1858.457	1003.12
1862.754	1010.12
1867.047	1009.12
1871.335	1031.12
1875.62	1015.12
1879.9	1017.12
1884.177	996.12
1888.449	1013.12
1892.718	1002.12
1896.982	1007.12
1901.243	977.12
1905.499	982.12
1909.752	975.12
1914	953.12
1918.245	1001.12
1922.485	998.12
1926.722	1000.12
1930.954	1005.12
1935.183	1012.12
1939.408	1015.12
1943.628	1023.12
1947.845	1007.12
1952.058	997.12
1956.267	955.12
1960.472	968.12
1964.673	939.12
1968.87	910.12
1973.063	902.12
1977.252	885.12
1981.438	870.12
1985.619	866.12
1989.797	852.12
1993.971	856.12
1998.14	852.12
2002.306	837.12
2006.469	843.12
2010.627	832.12
2014.781	833.12
2018.932	832.12
2023.078	840.12
2027.221	831.12
2031.36	799.12
2035.495	787.12
2039.627	794.12
2043.754	788.12
2047.878	786.12
2051.998	778.12
2056.114	778.12
2060.226	776.12
2064.334	781.12
2068.439	809.12
2072.54	805.12
2076.637	804.12
2080.73	799.12
2084.82	806.12
2088.906	795.12
2092.988	797.12
2097.066	798.12
2101.14	790.12
2105.211	781.12
2109.278	772.12
2113.342	773.12
2117.401	744.12
2121.457	752.12
2125.509	732.12
2129.558	738.12
2133.602	731.12
2137.643	722.12
2141.681	718.12
2145.714	718.12
2149.744	716.12
2153.77	703.12
2157.793	674.12
2161.812	649.12
2165.827	654.12
2169.838	662.12
2173.846	653.12
2177.851	632.12
2181.851	638.12
2185.848	636.12
2189.841	632.12
2193.831	612.12
2197.817	612.12
2201.799	606.12
2205.778	594.12
2209.753	603.12
2213.725	589.12
2217.693	597.12
2221.657	585.12
2225.618	601.12
2229.575	591.12
2233.529	592.12
2237.479	590.12
2241.425	568.12
2245.368	550.12
2249.307	565.12
2253.243	547.12
2257.175	552.12
2261.104	535.12
2265.029	540.12
2268.95	536.12
2272.868	518.12
2276.783	514.12
2280.694	513.12
2284.601	509.12
2288.505	499.12
2292.405	502.12
2296.302	484.12
2300.195	487.12
2304.085	458.12
2307.971	480.12
2311.854	443.12
2315.734	451.12
2319.609	455.12
2323.482	422.12
2327.351	434.12
2331.216	437.12
2335.078	447.12
2338.937	433.12
2342.792	425.12
2346.643	424.12
2350.492	431.12
2354.336	428.12
2358.178	434.12
2362.015	430.12
2365.85	424.12
2369.681	421.12
2373.508	428.12
2377.333	441.12
2381.153	426.12
2384.971	420.12
2388.785	425.12
2392.595	416.12
2396.402	406.12
2400.206	385.12
2404.007	390.12
2407.804	410.12
2411.597	406.12
2415.388	397.12
2419.174	402.12
2422.958	401.12
2426.738	394.12
2430.515	399.12
2434.289	382.12
2438.059	386.12
2441.825	386.12
2445.589	400.12
2449.349	377.12
2453.106	376.12
2456.859	382.12
2460.61	381.12
2464.356	365.12
2468.1	354.12
2471.84	364.12
2475.577	353.12
2479.311	348.12
2483.041	358.12
2486.768	361.12
2490.492	366.12
2494.213	353.12
2497.93	346.12
2501.644	339.12
2505.355	352.12
2509.062	353.12
2512.766	343.12
2516.467	338.12
2520.165	340.12
2523.859	331.12
2527.551	369.12
2531.239	338.12
2534.923	346.12
2538.605	341.12
2542.283	341.12
2545.958	333.12
2549.63	351.12
2553.299	344.12
2556.964	329.12
2560.626	336.12
2564.285	342.12
2567.941	325.12
2571.594	321.12
2575.243	329.12
2578.89	317.12
2582.533	313.12
2586.173	311.12
2589.809	313.12
2593.443	286.12
2597.073	304.12
2600.701	315.12
2604.325	311.12
2607.946	295.12
2611.564	303.12
2615.178	299.12
2618.79	292.12
2622.398	283.12
2626.004	287.12
2629.606	286.12
2633.205	275.12
2636.801	279.12
2640.394	282.12
2643.983	276.12
2647.57	270.12
2651.153	264.12
2654.734	268.12
2658.311	238.12
2661.885	250.12
2665.456	252.12
2669.025	249.12
2672.589	248.12
2676.151	261.12
2679.71	259.12
2683.266	241.12
2686.819	236.12
2690.368	254.12
2693.915	250.12
2697.458	237.12
2700.999	245.12
2704.536	253.12
2708.071	244.12
2711.602	248.12
2715.13	243.12
2718.656	227.12
2722.178	246.12
2725.697	246.12
2729.214	244.12
2732.727	250.12
2736.237	242.12
2739.744	258.12
2743.249	244.12
2746.75	249.12
2750.248	240.12
2753.743	249.12
2757.236	238.12
2760.725	253.12
2764.211	215.12
2767.695	247.12
2771.175	241.12
2774.652	237.12
2778.127	222.12
2781.598	229.12
2785.067	230.12
2788.532	217.12
2791.995	225.12
2795.455	211.12
2798.911	238.12
2802.365	225.12
2805.816	239.12
2809.264	248.12
2812.709	237.12
2816.151	252.12
2819.59	243.12
2823.026	250.12
2826.46	258.12
2829.89	271.12
2833.318	251.12
2836.742	273.12
2840.164	284.12
2843.583	304.12
2846.999	296.12
2850.412	316.12
2853.822	317.12
2857.229	334.12
2860.634	343.12
2864.035	338.12
2867.434	373.12
2870.83	397.12
2874.223	417.12
2877.613	452.12
2881	484.12
2884.385	515.12
2887.766	531.12
2891.145	539.12
2894.521	514.12
2897.894	497.12
2901.264	508.12
2904.631	500.12
2907.996	495.12
2911.358	503.12
2914.717	495.12
2918.073	492.12
2921.426	496.12
2924.777	515.12
2928.124	564.12
2931.469	628.12
2934.811	662.12
2938.15	722.12
2941.487	699.12
2944.821	687.12
2948.152	628.12
2951.48	596.12
2954.805	533.12
2958.128	525.12
2961.447	479.12
2964.765	473.12
2968.079	454.12
2971.39	464.12
2974.699	454.12
2978.005	469.12
2981.308	470.12
2984.609	459.12
2987.907	466.12
2991.202	453.12
2994.494	421.12
2997.784	400.12
3001.07	390.12
3004.355	358.12
3007.636	340.12
3010.915	333.12
3014.191	311.12
3017.464	308.12
3020.734	297.12
3024.002	294.12
3027.267	278.12
3030.53	290.12
3033.789	273.12
3037.046	274.12
3040.301	266.12
3043.552	276.12
3046.801	272.12
3050.048	279.12
3053.291	295.12
3056.532	273.12
3059.771	267.12
3063.006	296.12
3066.239	293.12
3069.469	295.12
3072.697	298.12
3075.922	297.12
3079.144	301.12
3082.364	329.12
3085.581	310.12
3088.795	335.12
3092.007	339.12
3095.216	338.12
3098.423	330.12
3101.627	319.12
3104.828	345.12
3108.026	333.12
3111.222	362.12
3114.416	375.12
3117.607	369.12
3120.795	378.12
3123.98	386.12
3127.163	385.12
3130.344	395.12
3133.521	403.12
3136.696	426.12
3139.869	418.12
3143.039	408.12
3146.206	443.12
3149.371	437.12
3152.533	441.12
3155.693	428.12
3158.85	446.12
3162.005	443.12
3165.157	449.12
3168.306	433.12
3171.453	450.12
3174.597	434.12
3177.739	428.12
3180.878	448.12
3184.014	453.12
3187.149	452.12
3190.28	449.12
3193.409	458.12
3196.536	453.12
3199.659	458.12
3202.781	466.12
3205.9	446.12
3209.016	463.12
3212.13	449.12
3215.241	451.12
3218.35	459.12
3221.456	432.12
3224.56	431.12
3227.661	438.12
3230.76	429.12
3233.856	430.12
3236.95	425.12
3240.041	418.12
3243.13	431.12
3246.216	421.12
3249.3	420.12
3252.382	429.12
3255.46	406.12
3258.537	371.12
3261.611	404.12
3264.682	416.12
3267.751	414.12
3270.818	401.12
3273.882	407.12
3276.943	409.12
3280.002	410.12
3283.059	395.12
3286.113	385.12
3289.165	377.12
3292.214	369.12
3295.261	387.12
3298.306	354.12
3301.348	369.12
3304.387	350.12
3307.425	357.12
3310.459	350.12
3313.492	347.12
3316.521	330.12
3319.549	341.12
3322.574	336.12
3325.597	327.12
3328.617	320.12
3331.635	322.12
3334.65	298.12
3337.663	324.12
3340.674	316.12
3343.682	309.12
3346.688	318.12
3349.691	306.12
3352.692	308.12
3355.691	317.12
3358.687	307.12
3361.681	314.12
3364.673	293.12
3367.662	307.12
3370.649	300.12
3373.633	284.12
3376.615	296.12
3379.595	269.12
3382.572	281.12
3385.547	272.12
3388.52	272.12
3391.49	273.12
3394.458	273.12
3397.424	265.12
3400.387	259.12
3403.348	261.12
3406.307	248.12
3409.263	257.12
3412.217	259.12
3415.168	260.12
3418.118	264.12
3421.065	242.12
3424.009	256.12
3426.951	251.12
3429.891	239.12
3432.829	241.12
3435.764	238.12
3438.697	223.12
3441.628	235.12
3444.557	202.12
3447.483	210.12
3450.407	206.12
3453.328	198.12
3456.247	200.12
3459.164	183.12
3462.079	195.12
3464.991	183.12
3467.902	176.12
3470.809	173.12
3473.715	183.12
3476.618	168.12
3479.519	160.12
3482.418	139.12
3485.315	146.12
3488.209	147.12
3491.101	142.12
3493.99	131.12
3496.878	126.12
3499.763	128.12
3502.646	133.12
3505.527	116.12
3508.405	111.12
3511.281	106.12
3514.155	103.12
3517.027	100.12
3519.897	88.12
3522.764	103.12
3525.629	79.12
3528.492	93.12
3531.352	89.12
3534.211	89.12
3537.067	72.12
3539.921	73.12
3542.773	72.12
3545.622	60.12
3548.469	56.12
3551.315	46.12
3554.157	55.12
3556.998	42.12
3559.837	42.12
3562.673	56.12
3565.507	39.12
3568.339	28.12
3571.169	37.12
3573.996	31.12
3576.822	20.12
3579.645	19.12
3582.466	27.12
3585.285	36.12
3588.101	29.12
3590.916	26.12
3593.728	25.12
3596.538	22.12
3599.346	18.12
3602.152	5.12
3604.956	14.12
3607.757	18.12
3610.556	5.12
3613.354	17.12
3616.149	10.12
3618.942	18.12
3621.732	21.12
3624.521	4.12
3627.307	-5.88
3630.092	-3.88
3632.874	16.12
3635.654	3.12
3638.432	-4.88
3641.208	-3.88
3643.982	-1.88
3646.753	9.12
3649.523	-27.88
3652.29	-5.88
3655.055	-1.88
3657.818	-1.88
3660.579	-10.88
3663.338	-17.88
3666.095	-17.88
3668.849	-34.88
3671.602	-6.88
3674.352	-26.88
3677.101	-7.88
3679.847	-5.88
3682.591	-16.88
3685.333	-23.88
3688.073	-10.88
3690.811	-27.88
3693.547	-26.88
3696.281	-29.88
3699.013	-15.88
3701.742	-22.88
3704.47	-30.88
3707.195	-15.88
3709.919	-17.88
3712.64	-18.88
3715.359	-30.88
3718.076	-8.88
3720.792	-20.88
3723.505	-22.88
3726.216	-10.88
3728.925	-23.88
3731.632	-31.88
3734.336	-21.88
3737.039	-24.88
3739.74	-21.88
3742.439	-46.88
3745.136	-14.88
3747.83	-19.88
3750.523	-19.88
3753.213	-92.88
3755.902	-31.88
3758.589	-38.88
3761.273	-26.88
3763.956	-17.88
3766.636	-38.88
3769.315	-16.88
3771.991	-30.88
3774.665	-34.88
3777.338	-25.88
3780.008	-36.88
3782.677	-30.88
3785.343	-44.88
3788.007	-46.88
3790.67	-20.88
3793.33	-39.88
3795.989	-38.88
3798.645	-24.88
3801.299	-40.88
3803.952	-38.88
3806.602	-33.88
3809.251	-21.88
3811.897	-34.88
3814.542	-31.88
3817.184	-30.88
3819.825	-30.88
3822.463	-43.88
3825.1	-31.88
3827.735	-29.88
3830.367	-38.88
3832.998	-17.88
3835.627	-30.88
3838.253	-24.88
3840.878	-29.88
3843.501	-18.88
3846.122	-28.88
3848.741	-26.88
3851.358	-19.88
3853.973	-34.88
3856.586	-24.88
3859.197	-38.88
3861.806	-31.88
3864.414	-44.88
3867.019	-33.88
3869.622	-29.88
3872.224	-29.88
3874.823	-25.88
3877.421	-16.88
3880.016	-13.88
3882.61	9.12
3885.202	23.12
3887.792	8.12
3890.38	-4.88
3892.966	-30.88
3895.55	-38.88
3898.132	-28.88
3900.713	-27.88
3903.291	-30.88
3905.868	-39.88
3908.442	-34.88
3911.015	-35.88
3913.586	-37.88
3916.155	-34.88
3918.722	-36.88
3921.287	-44.88
3923.85	-43.88
3926.411	-36.88
3928.971	-33.88
3931.528	-30.88
3934.084	-33.88
3936.638	-44.88
3939.19	-26.88
3941.74	-29.88
3944.288	-34.88
3946.834	-29.88
3949.378	-25.88
3951.921	-39.88
3954.462	-35.88
3957	-32.88
3959.537	-20.88
3962.072	-36.88
3964.606	-46.88
3967.137	-34.88
3969.667	-35.88
3972.194	-23.88
3974.72	-32.88
3977.244	-55.88
3979.766	-37.88
3982.286	-41.88
3984.805	-25.88
3987.321	-19.88
3989.836	-23.88
3992.349	-36.88
3994.86	-31.88
3997.369	-36.88
3999.877	-30.88
4002.382	-33.88
4004.886	-22.88
4007.388	-28.88
4009.888	-17.88
4012.386	-20.88
4014.883	-25.88
4017.377	-27.88
4019.87	-27.88
4022.361	-33.88
4024.85	-29.88
4027.338	-26.88
4029.823	-30.88
4032.307	-31.88
4034.789	-27.88
4037.269	-28.88
4039.747	-39.88
4042.224	-22.88
4044.699	-32.88
4047.172	-32.88
4049.643	-22.88
4052.112	-50.88
4054.58	-27.88
4057.046	-40.88
4059.51	-34.88
4061.972	-29.88
4064.432	-46.88
4066.891	-20.88
4069.348	-26.88
4071.803	-27.88
4074.256	-33.88
4076.708	-24.88
4079.158	-27.88
4081.606	-17.88
4084.052	-34.88
4086.497	-29.88
4088.939	-30.88
4091.38	-33.88
4093.819	-24.88
4096.257	2.12
4098.693	-2.88
4101.127	-4.88
4103.559	2.12
4105.989	34.12
4108.418	41.12
4110.845	31.12
4113.27	42.12
4115.694	51.12
4118.115	51.12
4120.535	-24.88
4122.954	-22.88
4125.37	-17.88
4127.785	-26.88
4130.198	-20.88
4132.609	-25.88
4135.019	6.12
4137.427	0.12
4139.833	4.12
4142.237	-6.88
