Data from 2018-3-6_conc=3_n=9_RamanShift_01.txt Node
Date: Tue Mar 06 13:40:19 GMT+02:00 2018
User: LAB3
Spectrometer: QEPB0276
Trigger mode: 0
Integration Time (sec): 3.000000E1
Scans to average: 1
Electric dark correction enabled: true
Nonlinearity correction enabled: false
Boxcar width: 0
XAxis mode: Raman Shifts
Number of Pixels in Spectrum: 1044
>>>>>Begin Spectral Data<<<<<
160.701	123.88
166.742	160.88
172.777	233.88
178.805	456.88
184.826	1036.88
190.841	2058.88
196.849	3207.88
202.85	4143.88
208.845	4471.88
214.833	4459.88
220.815	4416.88
226.789	4391.88
232.758	4451.88
238.719	4446.88
244.674	4388.88
250.623	4388.88
256.565	4363.88
262.5	4299.88
268.429	4279.88
274.351	4283.88
280.267	4267.88
286.176	4258.88
292.079	4252.88
297.975	4298.88
303.865	4284.88
309.748	4273.88
315.625	4265.88
321.495	4269.88
327.359	4284.88
333.217	4301.88
339.068	4317.88
344.912	4335.88
350.751	4354.88
356.583	4352.88
362.408	4374.88
368.227	4417.88
374.04	4423.88
379.847	4437.88
385.647	4483.88
391.44	4467.88
397.228	4501.88
403.009	4541.88
408.784	4568.88
414.553	4563.88
420.315	4573.88
426.071	4567.88
431.821	4607.88
437.565	4565.88
443.302	4568.88
449.033	4535.88
454.758	4538.88
460.477	4489.88
466.189	4466.88
471.896	4433.88
477.596	4382.88
483.29	4349.88
488.978	4346.88
494.66	4323.88
500.335	4203.88
506.005	4031.88
511.668	3843.88
517.325	3650.88
522.977	3512.88
528.622	3394.88
534.261	3317.88
539.894	3273.88
545.521	3246.88
551.141	3169.88
556.756	3163.88
562.365	3131.88
567.968	3109.88
573.565	3075.88
579.155	3082.88
584.74	3036.88
590.319	3063.88
595.892	3046.88
601.459	3055.88
607.02	3025.88
612.575	3017.88
618.124	2993.88
623.667	2908.88
629.204	2888.88
634.735	2849.88
640.261	2825.88
645.781	2775.88
651.294	2786.88
656.802	2774.88
662.304	2775.88
667.8	2776.88
673.29	2753.88
678.775	2755.88
684.254	2731.88
689.726	2693.88
695.193	2722.88
700.655	2682.88
706.11	2701.88
711.56	2654.88
717.004	2645.88
722.442	2623.88
727.874	2624.88
733.301	2635.88
738.722	2579.88
744.137	2608.88
749.547	2603.88
754.951	2588.88
760.349	2596.88
765.741	2646.88
771.128	2607.88
776.509	2650.88
781.885	2699.88
787.254	2743.88
792.618	2725.88
797.977	2721.88
803.33	2691.88
808.677	2690.88
814.019	2683.88
819.355	2634.88
824.686	2602.88
830.011	2595.88
835.33	2600.88
840.644	2600.88
845.952	2570.88
851.255	2537.88
856.552	2516.88
861.844	2477.88
867.13	2483.88
872.41	2426.88
877.686	2425.88
882.955	2417.88
888.219	2379.88
893.478	2354.88
898.731	2335.88
903.979	2292.88
909.221	2278.88
914.458	2252.88
919.69	2259.88
924.916	2256.88
930.136	2278.88
935.351	2234.88
940.561	2269.88
945.766	2255.88
950.965	2273.88
956.158	2223.88
961.347	2193.88
966.529	2173.88
971.707	2160.88
976.879	2120.88
982.046	2109.88
987.208	2091.88
992.364	2104.88
997.515	2094.88
1002.66	2111.88
1007.801	2153.88
1012.936	2137.88
1018.066	2150.88
1023.19	2173.88
1028.309	2171.88
1033.423	2167.88
1038.532	2181.88
1043.636	2122.88
1048.734	2156.88
1053.827	2124.88
1058.915	2098.88
1063.998	2065.88
1069.075	2069.88
1074.147	2077.88
1079.214	2060.88
1084.276	2075.88
1089.333	2090.88
1094.385	2102.88
1099.431	2085.88
1104.472	2096.88
1109.509	2063.88
1114.54	2021.88
1119.565	2007.88
1124.586	1969.88
1129.602	1956.88
1134.613	1928.88
1139.618	1902.88
1144.619	1930.88
1149.614	1929.88
1154.604	1921.88
1159.589	1915.88
1164.57	1949.88
1169.545	1961.88
1174.515	1939.88
1179.48	1941.88
1184.44	1925.88
1189.395	1920.88
1194.345	1887.88
1199.29	1879.88
1204.23	1875.88
1209.165	1863.88
1214.095	1899.88
1219.021	1879.88
1223.941	1906.88
1228.856	1915.88
1233.766	1894.88
1238.672	1912.88
1243.572	1924.88
1248.467	1901.88
1253.358	1873.88
1258.244	1826.88
1263.124	1820.88
1268	1807.88
1272.871	1732.88
1277.737	1741.88
1282.599	1727.88
1287.455	1720.88
1292.306	1726.88
1297.153	1729.88
1301.995	1751.88
1306.832	1733.88
1311.664	1766.88
1316.491	1745.88
1321.314	1743.88
1326.132	1719.88
1330.945	1689.88
1335.753	1668.88
1340.556	1643.88
1345.354	1622.88
1350.148	1607.88
1354.937	1592.88
1359.722	1572.88
1364.501	1559.88
1369.276	1548.88
1374.046	1548.88
1378.811	1531.88
1383.572	1545.88
1388.327	1540.88
1393.079	1525.88
1397.825	1508.88
1402.567	1506.88
1407.304	1475.88
1412.036	1491.88
1416.764	1467.88
1421.487	1466.88
1426.205	1472.88
1430.919	1475.88
1435.628	1492.88
1440.333	1480.88
1445.032	1517.88
1449.727	1517.88
1454.418	1522.88
1459.104	1522.88
1463.785	1490.88
1468.462	1491.88
1473.134	1449.88
1477.802	1426.88
1482.465	1385.88
1487.123	1395.88
1491.777	1365.88
1496.426	1362.88
1501.071	1367.88
1505.711	1369.88
1510.347	1377.88
1514.978	1395.88
1519.604	1374.88
1524.226	1398.88
1528.844	1378.88
1533.457	1384.88
1538.065	1372.88
1542.669	1368.88
1547.269	1349.88
1551.864	1349.88
1556.454	1341.88
1561.041	1332.88
1565.622	1329.88
1570.199	1340.88
1574.772	1357.88
1579.34	1367.88
1583.904	1381.88
1588.464	1395.88
1593.019	1399.88
1597.569	1382.88
1602.115	1384.88
1606.657	1378.88
1611.195	1385.88
1615.728	1382.88
1620.256	1359.88
1624.78	1343.88
1629.3	1360.88
1633.816	1358.88
1638.327	1375.88
1642.834	1387.88
1647.336	1385.88
1651.834	1400.88
1656.328	1408.88
1660.817	1384.88
1665.302	1362.88
1669.783	1349.88
1674.259	1328.88
1678.732	1291.88
1683.199	1271.88
1687.663	1235.88
1692.122	1215.88
1696.577	1183.88
1701.028	1173.88
1705.474	1129.88
1709.917	1116.88
1714.355	1111.88
1718.788	1101.88
1723.218	1076.88
1727.643	1046.88
1732.064	1052.88
1736.481	1033.88
1740.893	1026.88
1745.301	996.88
1749.705	950.88
1754.105	965.88
1758.501	943.88
1762.893	925.88
1767.28	887.88
1771.663	899.88
1776.042	882.88
1780.417	872.88
1784.787	871.88
1789.154	872.88
1793.516	870.88
1797.874	880.88
1802.228	878.88
1806.578	868.88
1810.924	882.88
1815.266	741.88
1819.603	858.88
1823.937	846.88
1828.266	838.88
1832.591	825.88
1836.913	816.88
1841.23	808.88
1845.543	811.88
1849.852	822.88
1854.156	810.88
1858.457	809.88
1862.754	819.88
1867.047	807.88
1871.335	834.88
1875.62	823.88
1879.9	817.88
1884.177	813.88
1888.449	812.88
1892.718	803.88
1896.982	797.88
1901.243	770.88
1905.499	788.88
1909.752	778.88
1914	766.88
1918.245	790.88
1922.485	777.88
1926.722	775.88
1930.954	771.88
1935.183	792.88
1939.408	779.88
1943.628	785.88
1947.845	776.88
1952.058	766.88
1956.267	744.88
1960.472	750.88
1964.673	750.88
1968.87	739.88
1973.063	722.88
1977.252	710.88
1981.438	710.88
1985.619	703.88
1989.797	685.88
1993.971	691.88
1998.14	701.88
2002.306	685.88
2006.469	677.88
2010.627	679.88
2014.781	666.88
2018.932	666.88
2023.078	676.88
2027.221	668.88
2031.36	647.88
2035.495	654.88
2039.627	641.88
2043.754	633.88
2047.878	616.88
2051.998	617.88
2056.114	624.88
2060.226	625.88
2064.334	628.88
2068.439	639.88
2072.54	639.88
2076.637	624.88
2080.73	628.88
2084.82	625.88
2088.906	620.88
2092.988	636.88
2097.066	626.88
2101.14	638.88
2105.211	625.88
2109.278	603.88
2113.342	596.88
2117.401	594.88
2121.457	581.88
2125.509	577.88
2129.558	574.88
2133.602	574.88
2137.643	575.88
2141.681	569.88
2145.714	571.88
2149.744	552.88
2153.77	558.88
2157.793	533.88
2161.812	525.88
2165.827	521.88
2169.838	537.88
2173.846	510.88
2177.851	503.88
2181.851	511.88
2185.848	497.88
2189.841	508.88
2193.831	488.88
2197.817	493.88
2201.799	482.88
2205.778	472.88
2209.753	461.88
2213.725	457.88
2217.693	468.88
2221.657	469.88
2225.618	477.88
2229.575	472.88
2233.529	459.88
2237.479	460.88
2241.425	452.88
2245.368	432.88
2249.307	443.88
2253.243	425.88
2257.175	420.88
2261.104	417.88
2265.029	412.88
2268.95	414.88
2272.868	394.88
2276.783	384.88
2280.694	393.88
2284.601	391.88
2288.505	385.88
2292.405	388.88
2296.302	364.88
2300.195	371.88
2304.085	338.88
2307.971	367.88
2311.854	336.88
2315.734	349.88
2319.609	343.88
2323.482	325.88
2327.351	329.88
2331.216	329.88
2335.078	330.88
2338.937	333.88
2342.792	317.88
2346.643	325.88
2350.492	331.88
2354.336	321.88
2358.178	329.88
2362.015	330.88
2365.85	323.88
2369.681	328.88
2373.508	324.88
2377.333	333.88
2381.153	323.88
2384.971	321.88
2388.785	324.88
2392.595	302.88
2396.402	313.88
2400.206	287.88
2404.007	294.88
2407.804	312.88
2411.597	305.88
2415.388	307.88
2419.174	303.88
2422.958	304.88
2426.738	289.88
2430.515	308.88
2434.289	287.88
2438.059	282.88
2441.825	287.88
2445.589	289.88
2449.349	274.88
2453.106	280.88
2456.859	290.88
2460.61	280.88
2464.356	268.88
2468.1	266.88
2471.84	257.88
2475.577	262.88
2479.311	262.88
2483.041	264.88
2486.768	276.88
2490.492	273.88
2494.213	265.88
2497.93	257.88
2501.644	246.88
2505.355	259.88
2509.062	258.88
2512.766	249.88
2516.467	248.88
2520.165	249.88
2523.859	243.88
2527.551	270.88
2531.239	240.88
2534.923	247.88
2538.605	237.88
2542.283	251.88
2545.958	246.88
2549.63	256.88
2553.299	248.88
2556.964	232.88
2560.626	236.88
2564.285	242.88
2567.941	222.88
2571.594	228.88
2575.243	236.88
2578.89	222.88
2582.533	234.88
2586.173	221.88
2589.809	222.88
2593.443	193.88
2597.073	215.88
2600.701	207.88
2604.325	214.88
2607.946	200.88
2611.564	219.88
2615.178	214.88
2618.79	211.88
2622.398	202.88
2626.004	207.88
2629.606	201.88
2633.205	193.88
2636.801	201.88
2640.394	197.88
2643.983	190.88
2647.57	193.88
2651.153	187.88
2654.734	200.88
2658.311	164.88
2661.885	177.88
2665.456	178.88
2669.025	178.88
2672.589	174.88
2676.151	193.88
2679.71	189.88
2683.266	177.88
2686.819	165.88
2690.368	175.88
2693.915	174.88
2697.458	166.88
2700.999	171.88
2704.536	167.88
2708.071	164.88
2711.602	160.88
2715.13	156.88
2718.656	137.88
2722.178	165.88
2725.697	146.88
2729.214	151.88
2732.727	149.88
2736.237	138.88
2739.744	144.88
2743.249	153.88
2746.75	147.88
2750.248	143.88
2753.743	152.88
2757.236	155.88
2760.725	150.88
2764.211	127.88
2767.695	150.88
2771.175	142.88
2774.652	155.88
2778.127	145.88
2781.598	140.88
2785.067	144.88
2788.532	137.88
2791.995	148.88
2795.455	139.88
2798.911	152.88
2802.365	140.88
2805.816	147.88
2809.264	162.88
2812.709	143.88
2816.151	148.88
2819.59	138.88
2823.026	146.88
2826.46	142.88
2829.89	147.88
2833.318	130.88
2836.742	141.88
2840.164	144.88
2843.583	150.88
2846.999	140.88
2850.412	146.88
2853.822	149.88
2857.229	161.88
2860.634	160.88
2864.035	140.88
2867.434	161.88
2870.83	169.88
2874.223	153.88
2877.613	162.88
2881	153.88
2884.385	162.88
2887.766	165.88
2891.145	165.88
2894.521	156.88
2897.894	153.88
2901.264	162.88
2904.631	165.88
2907.996	175.88
2911.358	179.88
2914.717	165.88
2918.073	169.88
2921.426	170.88
2924.777	162.88
2928.124	172.88
2931.469	190.88
2934.811	172.88
2938.15	198.88
2941.487	185.88
2944.821	196.88
2948.152	183.88
2951.48	200.88
2954.805	184.88
2958.128	207.88
2961.447	192.88
2964.765	205.88
2968.079	192.88
2971.39	196.88
2974.699	196.88
2978.005	198.88
2981.308	197.88
2984.609	190.88
2987.907	202.88
2991.202	215.88
2994.494	195.88
2997.784	207.88
3001.07	208.88
3004.355	206.88
3007.636	211.88
3010.915	212.88
3014.191	218.88
3017.464	219.88
3020.734	220.88
3024.002	231.88
3027.267	220.88
3030.53	227.88
3033.789	222.88
3037.046	227.88
3040.301	235.88
3043.552	245.88
3046.801	244.88
3050.048	252.88
3053.291	271.88
3056.532	264.88
3059.771	252.88
3063.006	275.88
3066.239	278.88
3069.469	289.88
3072.697	287.88
3075.922	283.88
3079.144	300.88
3082.364	331.88
3085.581	308.88
3088.795	338.88
3092.007	341.88
3095.216	352.88
3098.423	355.88
3101.627	335.88
3104.828	363.88
3108.026	361.88
3111.222	384.88
3114.416	397.88
3117.607	390.88
3120.795	396.88
3123.98	410.88
3127.163	392.88
3130.344	425.88
3133.521	419.88
3136.696	443.88
3139.869	446.88
3143.039	443.88
3146.206	480.88
3149.371	463.88
3152.533	464.88
3155.693	473.88
3158.85	480.88
3162.005	486.88
3165.157	475.88
3168.306	489.88
3171.453	493.88
3174.597	483.88
3177.739	480.88
3180.878	485.88
3184.014	493.88
3187.149	489.88
3190.28	501.88
3193.409	498.88
3196.536	500.88
3199.659	519.88
3202.781	501.88
3205.9	487.88
3209.016	505.88
3212.13	504.88
3215.241	491.88
3218.35	492.88
3221.456	472.88
3224.56	458.88
3227.661	487.88
3230.76	470.88
3233.856	464.88
3236.95	463.88
3240.041	458.88
3243.13	481.88
3246.216	461.88
3249.3	472.88
3252.382	454.88
3255.46	445.88
3258.537	402.88
3261.611	441.88
3264.682	453.88
3267.751	449.88
3270.818	430.88
3273.882	452.88
3276.943	438.88
3280.002	456.88
3283.059	430.88
3286.113	435.88
3289.165	420.88
3292.214	411.88
3295.261	431.88
3298.306	395.88
3301.348	405.88
3304.387	386.88
3307.425	400.88
3310.459	384.88
3313.492	392.88
3316.521	379.88
3319.549	389.88
3322.574	380.88
3325.597	379.88
3328.617	370.88
3331.635	377.88
3334.65	355.88
3337.663	368.88
3340.674	358.88
3343.682	373.88
3346.688	371.88
3349.691	356.88
3352.692	359.88
3355.691	369.88
3358.687	359.88
3361.681	355.88
3364.673	351.88
3367.662	349.88
3370.649	341.88
3373.633	332.88
3376.615	344.88
3379.595	321.88
3382.572	327.88
3385.547	319.88
3388.52	310.88
3391.49	304.88
3394.458	317.88
3397.424	312.88
3400.387	297.88
3403.348	307.88
3406.307	302.88
3409.263	299.88
3412.217	301.88
3415.168	299.88
3418.118	297.88
3421.065	285.88
3424.009	292.88
3426.951	281.88
3429.891	274.88
3432.829	274.88
3435.764	266.88
3438.697	251.88
3441.628	266.88
3444.557	244.88
3447.483	243.88
3450.407	243.88
3453.328	229.88
3456.247	227.88
3459.164	207.88
3462.079	220.88
3464.991	210.88
3467.902	200.88
3470.809	197.88
3473.715	207.88
3476.618	186.88
3479.519	190.88
3482.418	167.88
3485.315	166.88
3488.209	162.88
3491.101	160.88
3493.99	152.88
3496.878	147.88
3499.763	155.88
3502.646	154.88
3505.527	137.88
3508.405	131.88
3511.281	120.88
3514.155	124.88
3517.027	116.88
3519.897	105.88
3522.764	114.88
3525.629	93.88
3528.492	101.88
3531.352	96.88
3534.211	93.88
3537.067	87.88
3539.921	78.88
3542.773	91.88
3545.622	69.88
3548.469	69.88
3551.315	64.88
3554.157	66.88
3556.998	55.88
3559.837	53.88
3562.673	58.88
3565.507	43.88
3568.339	48.88
3571.169	47.88
3573.996	48.88
3576.822	23.88
3579.645	31.88
3582.466	32.88
3585.285	37.88
3588.101	39.88
3590.916	32.88
3593.728	34.88
3596.538	28.88
3599.346	25.88
3602.152	18.88
3604.956	22.88
3607.757	24.88
3610.556	8.88
3613.354	24.88
3616.149	21.88
3618.942	14.88
3621.732	22.88
3624.521	6.88
3627.307	1.88
3630.092	1.88
3632.874	19.88
3635.654	2.88
3638.432	-3.12
3641.208	-3.12
3643.982	1.88
3646.753	7.88
3649.523	-23.12
3652.29	-8.12
3655.055	-1.12
3657.818	-2.12
3660.579	-10.12
3663.338	-17.12
3666.095	-11.12
3668.849	-37.12
3671.602	-4.12
3674.352	-24.12
3677.101	-5.12
3679.847	-9.12
3682.591	-20.12
3685.333	-25.12
3688.073	-14.12
3690.811	-23.12
3693.547	-29.12
3696.281	-29.12
3699.013	-18.12
3701.742	-24.12
3704.47	-29.12
3707.195	-16.12
3709.919	-20.12
3712.64	-24.12
3715.359	-34.12
3718.076	-14.12
3720.792	-25.12
3723.505	-17.12
3726.216	-17.12
3728.925	-29.12
3731.632	-34.12
3734.336	-24.12
3737.039	-25.12
3739.74	-25.12
3742.439	-51.12
3745.136	-21.12
3747.83	-23.12
3750.523	-24.12
3753.213	-96.12
3755.902	-29.12
3758.589	-42.12
3761.273	-29.12
3763.956	-20.12
3766.636	-40.12
3769.315	-20.12
3771.991	-27.12
3774.665	-37.12
3777.338	-23.12
3780.008	-37.12
3782.677	-32.12
3785.343	-47.12
3788.007	-47.12
3790.67	-24.12
3793.33	-41.12
3795.989	-33.12
3798.645	-29.12
3801.299	-45.12
3803.952	-43.12
3806.602	-39.12
3809.251	-22.12
3811.897	-32.12
3814.542	-33.12
3817.184	-34.12
3819.825	-30.12
3822.463	-43.12
3825.1	-37.12
3827.735	-32.12
3830.367	-34.12
3832.998	-22.12
3835.627	-36.12
3838.253	-25.12
3840.878	-31.12
3843.501	-17.12
3846.122	-26.12
3848.741	-25.12
3851.358	-28.12
3853.973	-41.12
3856.586	-20.12
3859.197	-36.12
3861.806	-30.12
3864.414	-40.12
3867.019	-31.12
3869.622	-16.12
3872.224	-18.12
3874.823	0.88
3877.421	32.88
3880.016	49.88
3882.61	90.88
3885.202	98.88
3887.792	66.88
3890.38	33.88
3892.966	-4.12
3895.55	-30.12
3898.132	-21.12
3900.713	-24.12
3903.291	-28.12
3905.868	-39.12
3908.442	-37.12
3911.015	-34.12
3913.586	-32.12
3916.155	-34.12
3918.722	-40.12
3921.287	-41.12
3923.85	-40.12
3926.411	-38.12
3928.971	-39.12
3931.528	-28.12
3934.084	-39.12
3936.638	-44.12
3939.19	-32.12
3941.74	-26.12
3944.288	-37.12
3946.834	-30.12
3949.378	-24.12
3951.921	-38.12
3954.462	-28.12
3957	-32.12
3959.537	-15.12
3962.072	-32.12
3964.606	-44.12
3967.137	-37.12
3969.667	-38.12
3972.194	-28.12
3974.72	-38.12
3977.244	-54.12
3979.766	-40.12
3982.286	-38.12
3984.805	-29.12
3987.321	-20.12
3989.836	-29.12
3992.349	-38.12
3994.86	-34.12
3997.369	-35.12
3999.877	-34.12
4002.382	-36.12
4004.886	-22.12
4007.388	-29.12
4009.888	-23.12
4012.386	-20.12
4014.883	-28.12
4017.377	-31.12
4019.87	-27.12
4022.361	-41.12
4024.85	-30.12
4027.338	-26.12
4029.823	-39.12
4032.307	-29.12
4034.789	-30.12
4037.269	-28.12
4039.747	-44.12
4042.224	-22.12
4044.699	-36.12
4047.172	-31.12
4049.643	-20.12
4052.112	-57.12
4054.58	-27.12
4057.046	-41.12
4059.51	-31.12
4061.972	-28.12
4064.432	-49.12
4066.891	-17.12
4069.348	-28.12
4071.803	-24.12
4074.256	-37.12
4076.708	-25.12
4079.158	-28.12
4081.606	-19.12
4084.052	-29.12
4086.497	-27.12
4088.939	-32.12
4091.38	-38.12
4093.819	-24.12
4096.257	0.88
4098.693	-8.12
4101.127	-6.12
4103.559	-0.12
4105.989	119.88
4108.418	122.88
4110.845	108.88
4113.27	116.88
4115.694	130.88
4118.115	109.88
4120.535	-26.12
4122.954	-22.12
4125.37	-20.12
4127.785	-24.12
4130.198	-22.12
4132.609	-24.12
4135.019	9.88
4137.427	1.88
4139.833	4.88
4142.237	-3.12
