Data from 2018-3-6_conc=3_n=8_RamanShift_05.txt Node
Date: Tue Mar 06 13:38:19 GMT+02:00 2018
User: LAB3
Spectrometer: QEPB0276
Trigger mode: 0
Integration Time (sec): 3.000000E1
Scans to average: 1
Electric dark correction enabled: true
Nonlinearity correction enabled: false
Boxcar width: 0
XAxis mode: Raman Shifts
Number of Pixels in Spectrum: 1044
>>>>>Begin Spectral Data<<<<<
160.701	119.75
166.742	148.75
172.777	217.75
178.805	426.75
184.826	966.75
190.841	1936.75
196.849	3078.75
202.85	3944.75
208.845	4251.75
214.833	4224.75
220.815	4206.75
226.789	4185.75
232.758	4214.75
238.719	4246.75
244.674	4199.75
250.623	4189.75
256.565	4126.75
262.5	4116.75
268.429	4076.75
274.351	4060.75
280.267	4047.75
286.176	4061.75
292.079	4061.75
297.975	4069.75
303.865	4078.75
309.748	4069.75
315.625	4078.75
321.495	4081.75
327.359	4090.75
333.217	4105.75
339.068	4128.75
344.912	4154.75
350.751	4155.75
356.583	4166.75
362.408	4169.75
368.227	4218.75
374.04	4185.75
379.847	4249.75
385.647	4299.75
391.44	4279.75
397.228	4337.75
403.009	4334.75
408.784	4358.75
414.553	4399.75
420.315	4408.75
426.071	4392.75
431.821	4422.75
437.565	4390.75
443.302	4357.75
449.033	4357.75
454.758	4333.75
460.477	4297.75
466.189	4246.75
471.896	4221.75
477.596	4203.75
483.29	4163.75
488.978	4141.75
494.66	4117.75
500.335	4015.75
506.005	3835.75
511.668	3636.75
517.325	3456.75
522.977	3310.75
528.622	3219.75
534.261	3145.75
539.894	3085.75
545.521	3038.75
551.141	2995.75
556.756	2948.75
562.365	2948.75
567.968	2918.75
573.565	2864.75
579.155	2873.75
584.74	2854.75
590.319	2852.75
595.892	2861.75
601.459	2860.75
607.02	2858.75
612.575	2831.75
618.124	2798.75
623.667	2738.75
629.204	2705.75
634.735	2680.75
640.261	2663.75
645.781	2590.75
651.294	2574.75
656.802	2599.75
662.304	2585.75
667.8	2594.75
673.29	2568.75
678.775	2567.75
684.254	2557.75
689.726	2533.75
695.193	2542.75
700.655	2506.75
706.11	2508.75
711.56	2471.75
717.004	2484.75
722.442	2452.75
727.874	2447.75
733.301	2444.75
738.722	2419.75
744.137	2432.75
749.547	2419.75
754.951	2438.75
760.349	2433.75
765.741	2432.75
771.128	2464.75
776.509	2490.75
781.885	2541.75
787.254	2556.75
792.618	2559.75
797.977	2556.75
803.33	2533.75
808.677	2539.75
814.019	2508.75
819.355	2463.75
824.686	2474.75
830.011	2429.75
835.33	2438.75
840.644	2405.75
845.952	2372.75
851.255	2385.75
856.552	2354.75
861.844	2314.75
867.13	2301.75
872.41	2264.75
877.686	2281.75
882.955	2227.75
888.219	2214.75
893.478	2185.75
898.731	2167.75
903.979	2134.75
909.221	2115.75
914.458	2096.75
919.69	2108.75
924.916	2115.75
930.136	2113.75
935.351	2108.75
940.561	2112.75
945.766	2104.75
950.965	2095.75
956.158	2067.75
961.347	2059.75
966.529	2038.75
971.707	2036.75
976.879	1984.75
982.046	1975.75
987.208	1932.75
992.364	1946.75
997.515	1946.75
1002.66	1981.75
1007.801	2002.75
1012.936	2003.75
1018.066	2013.75
1023.19	2032.75
1028.309	2038.75
1033.423	2034.75
1038.532	2041.75
1043.636	2026.75
1048.734	1994.75
1053.827	1969.75
1058.915	1959.75
1063.998	1928.75
1069.075	1943.75
1074.147	1953.75
1079.214	1929.75
1084.276	1988.75
1089.333	1958.75
1094.385	1981.75
1099.431	1941.75
1104.472	1941.75
1109.509	1913.75
1114.54	1896.75
1119.565	1858.75
1124.586	1844.75
1129.602	1817.75
1134.613	1792.75
1139.618	1786.75
1144.619	1816.75
1149.614	1800.75
1154.604	1780.75
1159.589	1827.75
1164.57	1835.75
1169.545	1830.75
1174.515	1832.75
1179.48	1835.75
1184.44	1809.75
1189.395	1801.75
1194.345	1756.75
1199.29	1768.75
1204.23	1770.75
1209.165	1757.75
1214.095	1786.75
1219.021	1796.75
1223.941	1773.75
1228.856	1794.75
1233.766	1803.75
1238.672	1811.75
1243.572	1816.75
1248.467	1786.75
1253.358	1749.75
1258.244	1718.75
1263.124	1712.75
1268	1687.75
1272.871	1651.75
1277.737	1637.75
1282.599	1627.75
1287.455	1606.75
1292.306	1624.75
1297.153	1612.75
1301.995	1628.75
1306.832	1653.75
1311.664	1627.75
1316.491	1632.75
1321.314	1629.75
1326.132	1616.75
1330.945	1604.75
1335.753	1576.75
1340.556	1538.75
1345.354	1522.75
1350.148	1523.75
1354.937	1492.75
1359.722	1460.75
1364.501	1464.75
1369.276	1448.75
1374.046	1471.75
1378.811	1442.75
1383.572	1453.75
1388.327	1451.75
1393.079	1420.75
1397.825	1430.75
1402.567	1423.75
1407.304	1411.75
1412.036	1393.75
1416.764	1400.75
1421.487	1382.75
1426.205	1372.75
1430.919	1391.75
1435.628	1395.75
1440.333	1392.75
1445.032	1410.75
1449.727	1429.75
1454.418	1426.75
1459.104	1426.75
1463.785	1391.75
1468.462	1394.75
1473.134	1372.75
1477.802	1331.75
1482.465	1291.75
1487.123	1312.75
1491.777	1285.75
1496.426	1270.75
1501.071	1300.75
1505.711	1291.75
1510.347	1312.75
1514.978	1314.75
1519.604	1300.75
1524.226	1314.75
1528.844	1284.75
1533.457	1289.75
1538.065	1288.75
1542.669	1266.75
1547.269	1274.75
1551.864	1269.75
1556.454	1253.75
1561.041	1268.75
1565.622	1257.75
1570.199	1272.75
1574.772	1286.75
1579.34	1302.75
1583.904	1305.75
1588.464	1322.75
1593.019	1337.75
1597.569	1309.75
1602.115	1298.75
1606.657	1308.75
1611.195	1304.75
1615.728	1306.75
1620.256	1287.75
1624.78	1270.75
1629.3	1295.75
1633.816	1291.75
1638.327	1296.75
1642.834	1291.75
1647.336	1299.75
1651.834	1319.75
1656.328	1324.75
1660.817	1308.75
1665.302	1289.75
1669.783	1265.75
1674.259	1252.75
1678.732	1230.75
1683.199	1204.75
1687.663	1169.75
1692.122	1136.75
1696.577	1119.75
1701.028	1101.75
1705.474	1074.75
1709.917	1064.75
1714.355	1050.75
1718.788	1032.75
1723.218	1011.75
1727.643	1009.75
1732.064	1000.75
1736.481	959.75
1740.893	955.75
1745.301	941.75
1749.705	906.75
1754.105	897.75
1758.501	892.75
1762.893	887.75
1767.28	846.75
1771.663	850.75
1776.042	830.75
1780.417	829.75
1784.787	827.75
1789.154	843.75
1793.516	839.75
1797.874	826.75
1802.228	824.75
1806.578	811.75
1810.924	818.75
1815.266	706.75
1819.603	809.75
1823.937	785.75
1828.266	781.75
1832.591	787.75
1836.913	763.75
1841.23	755.75
1845.543	745.75
1849.852	773.75
1854.156	764.75
1858.457	765.75
1862.754	760.75
1867.047	774.75
1871.335	772.75
1875.62	767.75
1879.9	769.75
1884.177	755.75
1888.449	758.75
1892.718	750.75
1896.982	759.75
1901.243	738.75
1905.499	735.75
1909.752	735.75
1914	714.75
1918.245	735.75
1922.485	742.75
1926.722	726.75
1930.954	731.75
1935.183	748.75
1939.408	737.75
1943.628	736.75
1947.845	733.75
1952.058	732.75
1956.267	715.75
1960.472	709.75
1964.673	714.75
1968.87	699.75
1973.063	676.75
1977.252	666.75
1981.438	667.75
1985.619	653.75
1989.797	644.75
1993.971	651.75
1998.14	657.75
2002.306	658.75
2006.469	659.75
2010.627	640.75
2014.781	643.75
2018.932	629.75
2023.078	651.75
2027.221	631.75
2031.36	623.75
2035.495	611.75
2039.627	605.75
2043.754	611.75
2047.878	589.75
2051.998	595.75
2056.114	599.75
2060.226	587.75
2064.334	599.75
2068.439	609.75
2072.54	607.75
2076.637	595.75
2080.73	594.75
2084.82	593.75
2088.906	590.75
2092.988	588.75
2097.066	586.75
2101.14	601.75
2105.211	591.75
2109.278	571.75
2113.342	580.75
2117.401	561.75
2121.457	545.75
2125.509	549.75
2129.558	567.75
2133.602	550.75
2137.643	551.75
2141.681	544.75
2145.714	535.75
2149.744	537.75
2153.77	533.75
2157.793	515.75
2161.812	496.75
2165.827	494.75
2169.838	513.75
2173.846	497.75
2177.851	484.75
2181.851	504.75
2185.848	480.75
2189.841	478.75
2193.831	466.75
2197.817	466.75
2201.799	445.75
2205.778	448.75
2209.753	450.75
2213.725	439.75
2217.693	453.75
2221.657	440.75
2225.618	450.75
2229.575	448.75
2233.529	442.75
2237.479	433.75
2241.425	419.75
2245.368	411.75
2249.307	414.75
2253.243	413.75
2257.175	414.75
2261.104	394.75
2265.029	399.75
2268.95	384.75
2272.868	388.75
2276.783	375.75
2280.694	377.75
2284.601	380.75
2288.505	364.75
2292.405	374.75
2296.302	343.75
2300.195	353.75
2304.085	328.75
2307.971	350.75
2311.854	323.75
2315.734	344.75
2319.609	343.75
2323.482	319.75
2327.351	322.75
2331.216	331.75
2335.078	326.75
2338.937	318.75
2342.792	310.75
2346.643	312.75
2350.492	312.75
2354.336	314.75
2358.178	323.75
2362.015	322.75
2365.85	303.75
2369.681	304.75
2373.508	314.75
2377.333	315.75
2381.153	321.75
2384.971	305.75
2388.785	308.75
2392.595	291.75
2396.402	305.75
2400.206	281.75
2404.007	289.75
2407.804	293.75
2411.597	299.75
2415.388	292.75
2419.174	284.75
2422.958	281.75
2426.738	284.75
2430.515	286.75
2434.289	279.75
2438.059	272.75
2441.825	273.75
2445.589	288.75
2449.349	264.75
2453.106	281.75
2456.859	270.75
2460.61	279.75
2464.356	257.75
2468.1	249.75
2471.84	252.75
2475.577	253.75
2479.311	247.75
2483.041	250.75
2486.768	264.75
2490.492	263.75
2494.213	253.75
2497.93	242.75
2501.644	232.75
2505.355	258.75
2509.062	242.75
2512.766	251.75
2516.467	243.75
2520.165	237.75
2523.859	228.75
2527.551	261.75
2531.239	225.75
2534.923	244.75
2538.605	222.75
2542.283	237.75
2545.958	229.75
2549.63	241.75
2553.299	242.75
2556.964	218.75
2560.626	229.75
2564.285	230.75
2567.941	221.75
2571.594	206.75
2575.243	227.75
2578.89	210.75
2582.533	215.75
2586.173	210.75
2589.809	212.75
2593.443	190.75
2597.073	209.75
2600.701	209.75
2604.325	207.75
2607.946	188.75
2611.564	208.75
2615.178	204.75
2618.79	202.75
2622.398	194.75
2626.004	202.75
2629.606	197.75
2633.205	185.75
2636.801	191.75
2640.394	193.75
2643.983	181.75
2647.57	184.75
2651.153	179.75
2654.734	186.75
2658.311	162.75
2661.885	174.75
2665.456	170.75
2669.025	170.75
2672.589	166.75
2676.151	188.75
2679.71	181.75
2683.266	167.75
2686.819	159.75
2690.368	170.75
2693.915	172.75
2697.458	166.75
2700.999	162.75
2704.536	159.75
2708.071	154.75
2711.602	161.75
2715.13	153.75
2718.656	136.75
2722.178	155.75
2725.697	136.75
2729.214	148.75
2732.727	147.75
2736.237	139.75
2739.744	141.75
2743.249	146.75
2746.75	144.75
2750.248	136.75
2753.743	142.75
2757.236	147.75
2760.725	148.75
2764.211	106.75
2767.695	144.75
2771.175	143.75
2774.652	144.75
2778.127	132.75
2781.598	131.75
2785.067	145.75
2788.532	126.75
2791.995	135.75
2795.455	133.75
2798.911	140.75
2802.365	137.75
2805.816	142.75
2809.264	148.75
2812.709	136.75
2816.151	142.75
2819.59	121.75
2823.026	140.75
2826.46	134.75
2829.89	158.75
2833.318	117.75
2836.742	143.75
2840.164	140.75
2843.583	142.75
2846.999	135.75
2850.412	141.75
2853.822	131.75
2857.229	156.75
2860.634	148.75
2864.035	130.75
2867.434	153.75
2870.83	154.75
2874.223	153.75
2877.613	153.75
2881	150.75
2884.385	148.75
2887.766	153.75
2891.145	161.75
2894.521	150.75
2897.894	148.75
2901.264	162.75
2904.631	156.75
2907.996	160.75
2911.358	173.75
2914.717	162.75
2918.073	154.75
2921.426	160.75
2924.777	148.75
2928.124	168.75
2931.469	181.75
2934.811	162.75
2938.15	187.75
2941.487	180.75
2944.821	190.75
2948.152	175.75
2951.48	180.75
2954.805	169.75
2958.128	193.75
2961.447	177.75
2964.765	191.75
2968.079	179.75
2971.39	184.75
2974.699	182.75
2978.005	192.75
2981.308	188.75
2984.609	173.75
2987.907	195.75
2991.202	199.75
2994.494	187.75
2997.784	201.75
3001.07	201.75
3004.355	199.75
3007.636	205.75
3010.915	205.75
3014.191	203.75
3017.464	212.75
3020.734	212.75
3024.002	215.75
3027.267	214.75
3030.53	223.75
3033.789	218.75
3037.046	221.75
3040.301	206.75
3043.552	227.75
3046.801	233.75
3050.048	244.75
3053.291	263.75
3056.532	251.75
3059.771	233.75
3063.006	271.75
3066.239	265.75
3069.469	277.75
3072.697	277.75
3075.922	281.75
3079.144	288.75
3082.364	322.75
3085.581	292.75
3088.795	315.75
3092.007	327.75
3095.216	334.75
3098.423	332.75
3101.627	320.75
3104.828	338.75
3108.026	340.75
3111.222	369.75
3114.416	372.75
3117.607	382.75
3120.795	369.75
3123.98	384.75
3127.163	380.75
3130.344	394.75
3133.521	394.75
3136.696	432.75
3139.869	427.75
3143.039	422.75
3146.206	461.75
3149.371	447.75
3152.533	454.75
3155.693	428.75
3158.85	468.75
3162.005	466.75
3165.157	447.75
3168.306	455.75
3171.453	470.75
3174.597	456.75
3177.739	450.75
3180.878	471.75
3184.014	470.75
3187.149	458.75
3190.28	463.75
3193.409	469.75
3196.536	487.75
3199.659	481.75
3202.781	478.75
3205.9	463.75
3209.016	473.75
3212.13	475.75
3215.241	469.75
3218.35	474.75
3221.456	459.75
3224.56	441.75
3227.661	457.75
3230.76	456.75
3233.856	451.75
3236.95	443.75
3240.041	425.75
3243.13	447.75
3246.216	440.75
3249.3	445.75
3252.382	437.75
3255.46	429.75
3258.537	372.75
3261.611	422.75
3264.682	423.75
3267.751	431.75
3270.818	410.75
3273.882	432.75
3276.943	422.75
3280.002	422.75
3283.059	410.75
3286.113	414.75
3289.165	404.75
3292.214	394.75
3295.261	410.75
3298.306	371.75
3301.348	385.75
3304.387	362.75
3307.425	384.75
3310.459	366.75
3313.492	380.75
3316.521	372.75
3319.549	369.75
3322.574	368.75
3325.597	355.75
3328.617	356.75
3331.635	351.75
3334.65	325.75
3337.663	349.75
3340.674	344.75
3343.682	342.75
3346.688	360.75
3349.691	345.75
3352.692	335.75
3355.691	353.75
3358.687	345.75
3361.681	338.75
3364.673	329.75
3367.662	335.75
3370.649	339.75
3373.633	318.75
3376.615	322.75
3379.595	299.75
3382.572	309.75
3385.547	296.75
3388.52	302.75
3391.49	301.75
3394.458	289.75
3397.424	293.75
3400.387	282.75
3403.348	288.75
3406.307	282.75
3409.263	271.75
3412.217	285.75
3415.168	281.75
3418.118	285.75
3421.065	276.75
3424.009	277.75
3426.951	264.75
3429.891	266.75
3432.829	257.75
3435.764	261.75
3438.697	235.75
3441.628	256.75
3444.557	229.75
3447.483	217.75
3450.407	230.75
3453.328	225.75
3456.247	209.75
3459.164	203.75
3462.079	213.75
3464.991	198.75
3467.902	191.75
3470.809	191.75
3473.715	188.75
3476.618	169.75
3479.519	177.75
3482.418	150.75
3485.315	151.75
3488.209	155.75
3491.101	148.75
3493.99	140.75
3496.878	144.75
3499.763	142.75
3502.646	138.75
3505.527	124.75
3508.405	130.75
3511.281	105.75
3514.155	113.75
3517.027	112.75
3519.897	99.75
3522.764	106.75
3525.629	79.75
3528.492	97.75
3531.352	87.75
3534.211	92.75
3537.067	86.75
3539.921	73.75
3542.773	88.75
3545.622	62.75
3548.469	58.75
3551.315	56.75
3554.157	59.75
3556.998	54.75
3559.837	55.75
3562.673	59.75
3565.507	44.75
3568.339	35.75
3571.169	44.75
3573.996	35.75
3576.822	18.75
3579.645	25.75
3582.466	29.75
3585.285	34.75
3588.101	31.75
3590.916	20.75
3593.728	37.75
3596.538	25.75
3599.346	25.75
3602.152	6.75
3604.956	16.75
3607.757	18.75
3610.556	4.75
3613.354	20.75
3616.149	6.75
3618.942	17.75
3621.732	14.75
3624.521	4.75
3627.307	-4.25
3630.092	0.75
3632.874	16.75
3635.654	1.75
3638.432	-1.25
3641.208	0.75
3643.982	1.75
3646.753	7.75
3649.523	-19.25
3652.29	-5.25
3655.055	-0.25
3657.818	-2.25
3660.579	-9.25
3663.338	-19.25
3666.095	-19.25
3668.849	-39.25
3671.602	-5.25
3674.352	-26.25
3677.101	-5.25
3679.847	-5.25
3682.591	-25.25
3685.333	-26.25
3688.073	-12.25
3690.811	-26.25
3693.547	-31.25
3696.281	-29.25
3699.013	-17.25
3701.742	-20.25
3704.47	-35.25
3707.195	-15.25
3709.919	-23.25
3712.64	-20.25
3715.359	-30.25
3718.076	-12.25
3720.792	-22.25
3723.505	-20.25
3726.216	-14.25
3728.925	-26.25
3731.632	-28.25
3734.336	-26.25
3737.039	-25.25
3739.74	-23.25
3742.439	-43.25
3745.136	-19.25
3747.83	-23.25
3750.523	-22.25
3753.213	-81.25
3755.902	-26.25
3758.589	-40.25
3761.273	-29.25
3763.956	-19.25
3766.636	-41.25
3769.315	-17.25
3771.991	-28.25
3774.665	-31.25
3777.338	-28.25
3780.008	-37.25
3782.677	-30.25
3785.343	-44.25
3788.007	-43.25
3790.67	-28.25
3793.33	-40.25
3795.989	-33.25
3798.645	-30.25
3801.299	-39.25
3803.952	-32.25
3806.602	-32.25
3809.251	-23.25
3811.897	-25.25
3814.542	-33.25
3817.184	-35.25
3819.825	-33.25
3822.463	-40.25
3825.1	-34.25
3827.735	-33.25
3830.367	-38.25
3832.998	-20.25
3835.627	-30.25
3838.253	-20.25
3840.878	-33.25
3843.501	-15.25
3846.122	-30.25
3848.741	-24.25
3851.358	-24.25
3853.973	-37.25
3856.586	-23.25
3859.197	-36.25
3861.806	-30.25
3864.414	-41.25
3867.019	-26.25
3869.622	-21.25
3872.224	-17.25
3874.823	-0.25
3877.421	17.75
3880.016	37.75
3882.61	74.75
3885.202	95.75
3887.792	64.75
3890.38	32.75
3892.966	-8.25
3895.55	-30.25
3898.132	-19.25
3900.713	-22.25
3903.291	-29.25
3905.868	-36.25
3908.442	-26.25
3911.015	-25.25
3913.586	-36.25
3916.155	-32.25
3918.722	-33.25
3921.287	-34.25
3923.85	-45.25
3926.411	-38.25
3928.971	-36.25
3931.528	-28.25
3934.084	-32.25
3936.638	-41.25
3939.19	-29.25
3941.74	-27.25
3944.288	-38.25
3946.834	-33.25
3949.378	-23.25
3951.921	-36.25
3954.462	-30.25
3957	-26.25
3959.537	-17.25
3962.072	-36.25
3964.606	-42.25
3967.137	-35.25
3969.667	-33.25
3972.194	-20.25
3974.72	-39.25
3977.244	-51.25
3979.766	-37.25
3982.286	-35.25
3984.805	-25.25
3987.321	-17.25
3989.836	-22.25
3992.349	-32.25
3994.86	-27.25
3997.369	-35.25
3999.877	-33.25
4002.382	-32.25
4004.886	-26.25
4007.388	-32.25
4009.888	-14.25
4012.386	-17.25
4014.883	-27.25
4017.377	-28.25
4019.87	-27.25
4022.361	-38.25
4024.85	-26.25
4027.338	-27.25
4029.823	-28.25
4032.307	-26.25
4034.789	-28.25
4037.269	-31.25
4039.747	-41.25
4042.224	-19.25
4044.699	-36.25
4047.172	-35.25
4049.643	-25.25
4052.112	-52.25
4054.58	-28.25
4057.046	-43.25
4059.51	-27.25
4061.972	-22.25
4064.432	-45.25
4066.891	-16.25
4069.348	-28.25
4071.803	-26.25
4074.256	-34.25
4076.708	-23.25
4079.158	-31.25
4081.606	-21.25
4084.052	-31.25
4086.497	-25.25
4088.939	-25.25
4091.38	-34.25
4093.819	-24.25
4096.257	2.75
4098.693	-5.25
4101.127	-9.25
4103.559	-2.25
4105.989	113.75
4108.418	117.75
4110.845	105.75
4113.27	112.75
4115.694	115.75
4118.115	111.75
4120.535	-23.25
4122.954	-23.25
4125.37	-17.25
4127.785	-23.25
4130.198	-18.25
4132.609	-25.25
4135.019	5.75
4137.427	1.75
4139.833	7.75
4142.237	-1.25
