Data from 2018-3-6_conc=6_n=3_RamanShift_01.txt Node
Date: Tue Mar 06 14:59:48 GMT+02:00 2018
User: LAB3
Spectrometer: QEPB0276
Trigger mode: 0
Integration Time (sec): 3.000000E1
Scans to average: 1
Electric dark correction enabled: true
Nonlinearity correction enabled: false
Boxcar width: 0
XAxis mode: Raman Shifts
Number of Pixels in Spectrum: 1044
>>>>>Begin Spectral Data<<<<<
160.701	44.38
166.742	60.38
172.777	84.38
178.805	158.38
184.826	381.38
190.841	776.38
196.849	1233.38
202.85	1553.38
208.845	1665.38
214.833	1651.38
220.815	1617.38
226.789	1585.38
232.758	1598.38
238.719	1568.38
244.674	1558.38
250.623	1556.38
256.565	1526.38
262.5	1479.38
268.429	1476.38
274.351	1456.38
280.267	1437.38
286.176	1451.38
292.079	1452.38
297.975	1439.38
303.865	1436.38
309.748	1454.38
315.625	1435.38
321.495	1436.38
327.359	1426.38
333.217	1411.38
339.068	1430.38
344.912	1438.38
350.751	1419.38
356.583	1445.38
362.408	1426.38
368.227	1456.38
374.04	1454.38
379.847	1446.38
385.647	1473.38
391.44	1462.38
397.228	1475.38
403.009	1487.38
408.784	1485.38
414.553	1483.38
420.315	1484.38
426.071	1495.38
431.821	1491.38
437.565	1503.38
443.302	1475.38
449.033	1461.38
454.758	1471.38
460.477	1450.38
466.189	1447.38
471.896	1426.38
477.596	1427.38
483.29	1406.38
488.978	1391.38
494.66	1393.38
500.335	1347.38
506.005	1283.38
511.668	1230.38
517.325	1138.38
522.977	1102.38
528.622	1068.38
534.261	1050.38
539.894	1013.38
545.521	1001.38
551.141	977.38
556.756	967.38
562.365	964.38
567.968	956.38
573.565	931.38
579.155	951.38
584.74	925.38
590.319	931.38
595.892	948.38
601.459	934.38
607.02	927.38
612.575	934.38
618.124	917.38
623.667	894.38
629.204	887.38
634.735	870.38
640.261	853.38
645.781	826.38
651.294	837.38
656.802	840.38
662.304	852.38
667.8	863.38
673.29	838.38
678.775	835.38
684.254	839.38
689.726	817.38
695.193	825.38
700.655	822.38
706.11	822.38
711.56	807.38
717.004	809.38
722.442	783.38
727.874	798.38
733.301	803.38
738.722	775.38
744.137	788.38
749.547	784.38
754.951	780.38
760.349	789.38
765.741	816.38
771.128	801.38
776.509	794.38
781.885	819.38
787.254	845.38
792.618	836.38
797.977	840.38
803.33	837.38
808.677	818.38
814.019	818.38
819.355	796.38
824.686	804.38
830.011	794.38
835.33	817.38
840.644	808.38
845.952	767.38
851.255	789.38
856.552	775.38
861.844	764.38
867.13	749.38
872.41	740.38
877.686	743.38
882.955	743.38
888.219	718.38
893.478	698.38
898.731	700.38
903.979	715.38
909.221	689.38
914.458	677.38
919.69	677.38
924.916	689.38
930.136	672.38
935.351	683.38
940.561	691.38
945.766	680.38
950.965	691.38
956.158	667.38
961.347	649.38
966.529	655.38
971.707	647.38
976.879	649.38
982.046	658.38
987.208	625.38
992.364	642.38
997.515	633.38
1002.66	635.38
1007.801	635.38
1012.936	648.38
1018.066	626.38
1023.19	653.38
1028.309	643.38
1033.423	650.38
1038.532	660.38
1043.636	636.38
1048.734	655.38
1053.827	621.38
1058.915	626.38
1063.998	621.38
1069.075	610.38
1074.147	625.38
1079.214	611.38
1084.276	622.38
1089.333	624.38
1094.385	634.38
1099.431	612.38
1104.472	620.38
1109.509	605.38
1114.54	604.38
1119.565	589.38
1124.586	597.38
1129.602	577.38
1134.613	562.38
1139.618	569.38
1144.619	569.38
1149.614	579.38
1154.604	574.38
1159.589	572.38
1164.57	588.38
1169.545	592.38
1174.515	576.38
1179.48	577.38
1184.44	575.38
1189.395	585.38
1194.345	557.38
1199.29	568.38
1204.23	559.38
1209.165	545.38
1214.095	563.38
1219.021	554.38
1223.941	557.38
1228.856	561.38
1233.766	577.38
1238.672	573.38
1243.572	567.38
1248.467	562.38
1253.358	557.38
1258.244	534.38
1263.124	559.38
1268	547.38
1272.871	516.38
1277.737	515.38
1282.599	510.38
1287.455	521.38
1292.306	515.38
1297.153	503.38
1301.995	508.38
1306.832	524.38
1311.664	523.38
1316.491	511.38
1321.314	519.38
1326.132	505.38
1330.945	505.38
1335.753	494.38
1340.556	488.38
1345.354	489.38
1350.148	482.38
1354.937	464.38
1359.722	459.38
1364.501	455.38
1369.276	463.38
1374.046	465.38
1378.811	455.38
1383.572	468.38
1388.327	465.38
1393.079	446.38
1397.825	433.38
1402.567	443.38
1407.304	447.38
1412.036	442.38
1416.764	437.38
1421.487	427.38
1426.205	430.38
1430.919	438.38
1435.628	442.38
1440.333	430.38
1445.032	443.38
1449.727	438.38
1454.418	458.38
1459.104	445.38
1463.785	427.38
1468.462	441.38
1473.134	428.38
1477.802	422.38
1482.465	396.38
1487.123	420.38
1491.777	386.38
1496.426	378.38
1501.071	406.38
1505.711	387.38
1510.347	413.38
1514.978	409.38
1519.604	396.38
1524.226	411.38
1528.844	392.38
1533.457	405.38
1538.065	406.38
1542.669	405.38
1547.269	405.38
1551.864	406.38
1556.454	385.38
1561.041	398.38
1565.622	395.38
1570.199	394.38
1574.772	398.38
1579.34	404.38
1583.904	421.38
1588.464	415.38
1593.019	419.38
1597.569	409.38
1602.115	405.38
1606.657	407.38
1611.195	418.38
1615.728	417.38
1620.256	406.38
1624.78	370.38
1629.3	393.38
1633.816	402.38
1638.327	396.38
1642.834	406.38
1647.336	404.38
1651.834	414.38
1656.328	404.38
1660.817	396.38
1665.302	394.38
1669.783	382.38
1674.259	379.38
1678.732	368.38
1683.199	363.38
1687.663	351.38
1692.122	349.38
1696.577	345.38
1701.028	347.38
1705.474	329.38
1709.917	323.38
1714.355	318.38
1718.788	324.38
1723.218	298.38
1727.643	294.38
1732.064	302.38
1736.481	289.38
1740.893	300.38
1745.301	283.38
1749.705	257.38
1754.105	270.38
1758.501	261.38
1762.893	280.38
1767.28	252.38
1771.663	252.38
1776.042	251.38
1780.417	239.38
1784.787	254.38
1789.154	249.38
1793.516	256.38
1797.874	246.38
1802.228	242.38
1806.578	226.38
1810.924	243.38
1815.266	127.38
1819.603	239.38
1823.937	235.38
1828.266	231.38
1832.591	237.38
1836.913	231.38
1841.23	234.38
1845.543	221.38
1849.852	236.38
1854.156	221.38
1858.457	237.38
1862.754	223.38
1867.047	224.38
1871.335	244.38
1875.62	235.38
1879.9	232.38
1884.177	218.38
1888.449	231.38
1892.718	220.38
1896.982	227.38
1901.243	206.38
1905.499	223.38
1909.752	210.38
1914	197.38
1918.245	218.38
1922.485	220.38
1926.722	212.38
1930.954	207.38
1935.183	214.38
1939.408	213.38
1943.628	217.38
1947.845	215.38
1952.058	211.38
1956.267	202.38
1960.472	203.38
1964.673	207.38
1968.87	199.38
1973.063	200.38
1977.252	194.38
1981.438	197.38
1985.619	189.38
1989.797	178.38
1993.971	188.38
1998.14	199.38
2002.306	192.38
2006.469	194.38
2010.627	180.38
2014.781	188.38
2018.932	172.38
2023.078	206.38
2027.221	184.38
2031.36	176.38
2035.495	177.38
2039.627	183.38
2043.754	179.38
2047.878	171.38
2051.998	169.38
2056.114	169.38
2060.226	168.38
2064.334	174.38
2068.439	170.38
2072.54	175.38
2076.637	161.38
2080.73	167.38
2084.82	163.38
2088.906	159.38
2092.988	172.38
2097.066	168.38
2101.14	181.38
2105.211	169.38
2109.278	161.38
2113.342	158.38
2117.401	149.38
2121.457	155.38
2125.509	146.38
2129.558	163.38
2133.602	150.38
2137.643	154.38
2141.681	155.38
2145.714	155.38
2149.744	157.38
2153.77	155.38
2157.793	143.38
2161.812	117.38
2165.827	118.38
2169.838	152.38
2173.846	140.38
2177.851	133.38
2181.851	144.38
2185.848	129.38
2189.841	134.38
2193.831	128.38
2197.817	125.38
2201.799	123.38
2205.778	119.38
2209.753	124.38
2213.725	119.38
2217.693	121.38
2221.657	109.38
2225.618	123.38
2229.575	123.38
2233.529	120.38
2237.479	124.38
2241.425	115.38
2245.368	105.38
2249.307	114.38
2253.243	109.38
2257.175	117.38
2261.104	108.38
2265.029	106.38
2268.95	111.38
2272.868	102.38
2276.783	99.38
2280.694	108.38
2284.601	94.38
2288.505	104.38
2292.405	112.38
2296.302	82.38
2300.195	100.38
2304.085	68.38
2307.971	89.38
2311.854	72.38
2315.734	88.38
2319.609	95.38
2323.482	66.38
2327.351	77.38
2331.216	71.38
2335.078	86.38
2338.937	81.38
2342.792	76.38
2346.643	74.38
2350.492	89.38
2354.336	75.38
2358.178	83.38
2362.015	86.38
2365.85	81.38
2369.681	84.38
2373.508	85.38
2377.333	88.38
2381.153	81.38
2384.971	75.38
2388.785	82.38
2392.595	68.38
2396.402	75.38
2400.206	49.38
2404.007	73.38
2407.804	72.38
2411.597	68.38
2415.388	69.38
2419.174	69.38
2422.958	68.38
2426.738	65.38
2430.515	71.38
2434.289	56.38
2438.059	63.38
2441.825	56.38
2445.589	70.38
2449.349	52.38
2453.106	64.38
2456.859	68.38
2460.61	72.38
2464.356	52.38
2468.1	60.38
2471.84	55.38
2475.577	56.38
2479.311	57.38
2483.041	58.38
2486.768	68.38
2490.492	69.38
2494.213	61.38
2497.93	46.38
2501.644	46.38
2505.355	58.38
2509.062	50.38
2512.766	50.38
2516.467	49.38
2520.165	47.38
2523.859	38.38
2527.551	64.38
2531.239	46.38
2534.923	50.38
2538.605	46.38
2542.283	52.38
2545.958	52.38
2549.63	51.38
2553.299	59.38
2556.964	34.38
2560.626	44.38
2564.285	52.38
2567.941	31.38
2571.594	31.38
2575.243	49.38
2578.89	38.38
2582.533	44.38
2586.173	40.38
2589.809	45.38
2593.443	21.38
2597.073	43.38
2600.701	42.38
2604.325	37.38
2607.946	30.38
2611.564	47.38
2615.178	44.38
2618.79	41.38
2622.398	28.38
2626.004	39.38
2629.606	37.38
2633.205	27.38
2636.801	40.38
2640.394	36.38
2643.983	30.38
2647.57	27.38
2651.153	27.38
2654.734	37.38
2658.311	9.38
2661.885	23.38
2665.456	23.38
2669.025	27.38
2672.589	22.38
2676.151	38.38
2679.71	41.38
2683.266	30.38
2686.819	24.38
2690.368	32.38
2693.915	29.38
2697.458	32.38
2700.999	38.38
2704.536	32.38
2708.071	29.38
2711.602	36.38
2715.13	22.38
2718.656	7.38
2722.178	26.38
2725.697	11.38
2729.214	17.38
2732.727	21.38
2736.237	9.38
2739.744	12.38
2743.249	13.38
2746.75	16.38
2750.248	10.38
2753.743	24.38
2757.236	18.38
2760.725	24.38
2764.211	-7.62
2767.695	25.38
2771.175	19.38
2774.652	23.38
2778.127	16.38
2781.598	14.38
2785.067	23.38
2788.532	9.38
2791.995	20.38
2795.455	7.38
2798.911	26.38
2802.365	12.38
2805.816	23.38
2809.264	32.38
2812.709	11.38
2816.151	22.38
2819.59	5.38
2823.026	12.38
2826.46	9.38
2829.89	19.38
2833.318	-9.62
2836.742	13.38
2840.164	13.38
2843.583	15.38
2846.999	13.38
2850.412	17.38
2853.822	13.38
2857.229	27.38
2860.634	17.38
2864.035	-1.62
2867.434	20.38
2870.83	20.38
2874.223	15.38
2877.613	18.38
2881	14.38
2884.385	15.38
2887.766	19.38
2891.145	19.38
2894.521	19.38
2897.894	13.38
2901.264	25.38
2904.631	24.38
2907.996	23.38
2911.358	29.38
2914.717	22.38
2918.073	16.38
2921.426	15.38
2924.777	4.38
2928.124	12.38
2931.469	29.38
2934.811	9.38
2938.15	31.38
2941.487	20.38
2944.821	38.38
2948.152	27.38
2951.48	28.38
2954.805	14.38
2958.128	41.38
2961.447	25.38
2964.765	44.38
2968.079	25.38
2971.39	31.38
2974.699	31.38
2978.005	35.38
2981.308	37.38
2984.609	27.38
2987.907	39.38
2991.202	45.38
2994.494	25.38
2997.784	33.38
3001.07	37.38
3004.355	30.38
3007.636	31.38
3010.915	39.38
3014.191	26.38
3017.464	31.38
3020.734	32.38
3024.002	38.38
3027.267	35.38
3030.53	38.38
3033.789	39.38
3037.046	39.38
3040.301	31.38
3043.552	42.38
3046.801	41.38
3050.048	52.38
3053.291	65.38
3056.532	51.38
3059.771	40.38
3063.006	59.38
3066.239	52.38
3069.469	64.38
3072.697	57.38
3075.922	53.38
3079.144	54.38
3082.364	73.38
3085.581	59.38
3088.795	79.38
3092.007	72.38
3095.216	79.38
3098.423	73.38
3101.627	50.38
3104.828	76.38
3108.026	68.38
3111.222	90.38
3114.416	96.38
3117.607	84.38
3120.795	88.38
3123.98	85.38
3127.163	80.38
3130.344	86.38
3133.521	85.38
3136.696	102.38
3139.869	99.38
3143.039	80.38
3146.206	110.38
3149.371	110.38
3152.533	104.38
3155.693	92.38
3158.85	107.38
3162.005	109.38
3165.157	106.38
3168.306	107.38
3171.453	123.38
3174.597	99.38
3177.739	103.38
3180.878	114.38
3184.014	109.38
3187.149	116.38
3190.28	104.38
3193.409	119.38
3196.536	123.38
3199.659	118.38
3202.781	119.38
3205.9	107.38
3209.016	115.38
3212.13	111.38
3215.241	115.38
3218.35	106.38
3221.456	107.38
3224.56	93.38
3227.661	111.38
3230.76	109.38
3233.856	98.38
3236.95	110.38
3240.041	98.38
3243.13	105.38
3246.216	102.38
3249.3	108.38
3252.382	93.38
3255.46	97.38
3258.537	42.38
3261.611	88.38
3264.682	98.38
3267.751	87.38
3270.818	84.38
3273.882	99.38
3276.943	95.38
3280.002	105.38
3283.059	86.38
3286.113	90.38
3289.165	82.38
3292.214	81.38
3295.261	109.38
3298.306	74.38
3301.348	92.38
3304.387	79.38
3307.425	95.38
3310.459	78.38
3313.492	95.38
3316.521	78.38
3319.549	93.38
3322.574	89.38
3325.597	79.38
3328.617	72.38
3331.635	75.38
3334.65	60.38
3337.663	75.38
3340.674	71.38
3343.682	77.38
3346.688	79.38
3349.691	69.38
3352.692	71.38
3355.691	83.38
3358.687	76.38
3361.681	80.38
3364.673	77.38
3367.662	75.38
3370.649	79.38
3373.633	64.38
3376.615	74.38
3379.595	61.38
3382.572	65.38
3385.547	52.38
3388.52	55.38
3391.49	58.38
3394.458	62.38
3397.424	65.38
3400.387	48.38
3403.348	56.38
3406.307	58.38
3409.263	60.38
3412.217	68.38
3415.168	62.38
3418.118	60.38
3421.065	54.38
3424.009	62.38
3426.951	56.38
3429.891	47.38
3432.829	48.38
3435.764	55.38
3438.697	41.38
3441.628	53.38
3444.557	30.38
3447.483	34.38
3450.407	45.38
3453.328	36.38
3456.247	34.38
3459.164	28.38
3462.079	45.38
3464.991	34.38
3467.902	30.38
3470.809	29.38
3473.715	38.38
3476.618	26.38
3479.519	32.38
3482.418	5.38
3485.315	19.38
3488.209	15.38
3491.101	20.38
3493.99	9.38
3496.878	9.38
3499.763	15.38
3502.646	13.38
3505.527	7.38
3508.405	7.38
3511.281	-8.62
3514.155	5.38
3517.027	3.38
3519.897	-2.62
3522.764	2.38
3525.629	-15.62
3528.492	-3.62
3531.352	1.38
3534.211	-7.62
3537.067	-7.62
3539.921	-6.62
3542.773	2.38
3545.622	-16.62
3548.469	-14.62
3551.315	-18.62
3554.157	-6.62
3556.998	-15.62
3559.837	-10.62
3562.673	-6.62
3565.507	-15.62
3568.339	-21.62
3571.169	-11.62
3573.996	-15.62
3576.822	-29.62
3579.645	-24.62
3582.466	-23.62
3585.285	-13.62
3588.101	-17.62
3590.916	-22.62
3593.728	-11.62
3596.538	-23.62
3599.346	-15.62
3602.152	-22.62
3604.956	-21.62
3607.757	-16.62
3610.556	-34.62
3613.354	-21.62
3616.149	-20.62
3618.942	-21.62
3621.732	-20.62
3624.521	-33.62
3627.307	-32.62
3630.092	-33.62
3632.874	-15.62
3635.654	-22.62
3638.432	-30.62
3641.208	-30.62
3643.982	-26.62
3646.753	-18.62
3649.523	-51.62
3652.29	-30.62
3655.055	-21.62
3657.818	-26.62
3660.579	-30.62
3663.338	-38.62
3666.095	-34.62
3668.849	-53.62
3671.602	-23.62
3674.352	-37.62
3677.101	-22.62
3679.847	-26.62
3682.591	-32.62
3685.333	-44.62
3688.073	-31.62
3690.811	-39.62
3693.547	-41.62
3696.281	-47.62
3699.013	-31.62
3701.742	-39.62
3704.47	-47.62
3707.195	-30.62
3709.919	-30.62
3712.64	-31.62
3715.359	-46.62
3718.076	-23.62
3720.792	-33.62
3723.505	-26.62
3726.216	-16.62
3728.925	-33.62
3731.632	-34.62
3734.336	-35.62
3737.039	-32.62
3739.74	-28.62
3742.439	-57.62
3745.136	-26.62
3747.83	-31.62
3750.523	-25.62
3753.213	-91.62
3755.902	-32.62
3758.589	-46.62
3761.273	-38.62
3763.956	-28.62
3766.636	-50.62
3769.315	-22.62
3771.991	-35.62
3774.665	-41.62
3777.338	-33.62
3780.008	-42.62
3782.677	-40.62
3785.343	-50.62
3788.007	-53.62
3790.67	-26.62
3793.33	-45.62
3795.989	-40.62
3798.645	-34.62
3801.299	-47.62
3803.952	-46.62
3806.602	-36.62
3809.251	-30.62
3811.897	-31.62
3814.542	-36.62
3817.184	-34.62
3819.825	-36.62
3822.463	-45.62
3825.1	-36.62
3827.735	-36.62
3830.367	-46.62
3832.998	-23.62
3835.627	-39.62
3838.253	-26.62
3840.878	-34.62
3843.501	-19.62
3846.122	-33.62
3848.741	-28.62
3851.358	-25.62
3853.973	-45.62
3856.586	-29.62
3859.197	-40.62
3861.806	-34.62
3864.414	-46.62
3867.019	-36.62
3869.622	-26.62
3872.224	-27.62
3874.823	-16.62
3877.421	-0.62
3880.016	4.38
3882.61	36.38
3885.202	37.38
3887.792	29.38
3890.38	10.38
3892.966	-20.62
3895.55	-39.62
3898.132	-26.62
3900.713	-27.62
3903.291	-31.62
3905.868	-41.62
3908.442	-36.62
3911.015	-33.62
3913.586	-38.62
3916.155	-35.62
3918.722	-47.62
3921.287	-35.62
3923.85	-49.62
3926.411	-40.62
3928.971	-43.62
3931.528	-30.62
3934.084	-36.62
3936.638	-47.62
3939.19	-29.62
3941.74	-32.62
3944.288	-38.62
3946.834	-37.62
3949.378	-25.62
3951.921	-43.62
3954.462	-37.62
3957	-33.62
3959.537	-21.62
3962.072	-34.62
3964.606	-48.62
3967.137	-41.62
3969.667	-37.62
3972.194	-27.62
3974.72	-36.62
3977.244	-58.62
3979.766	-45.62
3982.286	-42.62
3984.805	-37.62
3987.321	-29.62
3989.836	-33.62
3992.349	-41.62
3994.86	-38.62
3997.369	-44.62
3999.877	-38.62
4002.382	-40.62
4004.886	-32.62
4007.388	-32.62
4009.888	-24.62
4012.386	-27.62
4014.883	-31.62
4017.377	-35.62
4019.87	-35.62
4022.361	-42.62
4024.85	-36.62
4027.338	-32.62
4029.823	-37.62
4032.307	-36.62
4034.789	-32.62
4037.269	-34.62
4039.747	-49.62
4042.224	-25.62
4044.699	-40.62
4047.172	-38.62
4049.643	-32.62
4052.112	-63.62
4054.58	-32.62
4057.046	-45.62
4059.51	-39.62
4061.972	-33.62
4064.432	-50.62
4066.891	-26.62
4069.348	-34.62
4071.803	-36.62
4074.256	-41.62
4076.708	-29.62
4079.158	-37.62
4081.606	-22.62
4084.052	-38.62
4086.497	-30.62
4088.939	-33.62
4091.38	-36.62
4093.819	-27.62
4096.257	1.38
4098.693	-5.62
4101.127	-4.62
4103.559	-0.62
4105.989	53.38
4108.418	55.38
4110.845	43.38
4113.27	44.38
4115.694	53.38
4118.115	35.38
4120.535	-32.62
4122.954	-25.62
4125.37	-21.62
4127.785	-28.62
4130.198	-20.62
4132.609	-30.62
4135.019	8.38
4137.427	-2.62
4139.833	7.38
4142.237	-3.62
