Data from 2018-3-6_conc=2_n=5_RamanShift_02.txt Node
Date: Tue Mar 06 12:54:49 GMT+02:00 2018
User: LAB3
Spectrometer: QEPB0276
Trigger mode: 0
Integration Time (sec): 3.000000E1
Scans to average: 1
Electric dark correction enabled: true
Nonlinearity correction enabled: false
Boxcar width: 0
XAxis mode: Raman Shifts
Number of Pixels in Spectrum: 1044
>>>>>Begin Spectral Data<<<<<
160.701	175.12
166.742	214.12
172.777	322.12
178.805	626.12
184.826	1440.12
190.841	2878.12
196.849	4581.12
202.85	5869.12
208.845	6342.12
214.833	6386.12
220.815	6293.12
226.789	6312.12
232.758	6380.12
238.719	6371.12
244.674	6338.12
250.623	6320.12
256.565	6280.12
262.5	6232.12
268.429	6224.12
274.351	6182.12
280.267	6206.12
286.176	6239.12
292.079	6240.12
297.975	6255.12
303.865	6250.12
309.748	6285.12
315.625	6273.12
321.495	6296.12
327.359	6298.12
333.217	6298.12
339.068	6344.12
344.912	6378.12
350.751	6425.12
356.583	6420.12
362.408	6442.12
368.227	6524.12
374.04	6524.12
379.847	6551.12
385.647	6616.12
391.44	6619.12
397.228	6659.12
403.009	6735.12
408.784	6749.12
414.553	6780.12
420.315	6828.12
426.071	6796.12
431.821	6814.12
437.565	6795.12
443.302	6761.12
449.033	6778.12
454.758	6730.12
460.477	6684.12
466.189	6608.12
471.896	6531.12
477.596	6481.12
483.29	6449.12
488.978	6430.12
494.66	6374.12
500.335	6213.12
506.005	5914.12
511.668	5621.12
517.325	5321.12
522.977	5085.12
528.622	4920.12
534.261	4805.12
539.894	4690.12
545.521	4618.12
551.141	4572.12
556.756	4504.12
562.365	4469.12
567.968	4425.12
573.565	4415.12
579.155	4377.12
584.74	4331.12
590.319	4314.12
595.892	4363.12
601.459	4343.12
607.02	4323.12
612.575	4283.12
618.124	4226.12
623.667	4148.12
629.204	4099.12
634.735	4050.12
640.261	3997.12
645.781	3931.12
651.294	3931.12
656.802	3925.12
662.304	3923.12
667.8	3894.12
673.29	3903.12
678.775	3880.12
684.254	3861.12
689.726	3848.12
695.193	3829.12
700.655	3818.12
706.11	3772.12
711.56	3754.12
717.004	3737.12
722.442	3707.12
727.874	3716.12
733.301	3680.12
738.722	3666.12
744.137	3664.12
749.547	3678.12
754.951	3674.12
760.349	3661.12
765.741	3707.12
771.128	3707.12
776.509	3741.12
781.885	3841.12
787.254	3891.12
792.618	3867.12
797.977	3868.12
803.33	3859.12
808.677	3825.12
814.019	3765.12
819.355	3764.12
824.686	3725.12
830.011	3675.12
835.33	3705.12
840.644	3660.12
845.952	3625.12
851.255	3586.12
856.552	3552.12
861.844	3499.12
867.13	3476.12
872.41	3449.12
877.686	3455.12
882.955	3414.12
888.219	3353.12
893.478	3315.12
898.731	3270.12
903.979	3243.12
909.221	3212.12
914.458	3184.12
919.69	3171.12
924.916	3189.12
930.136	3212.12
935.351	3173.12
940.561	3186.12
945.766	3166.12
950.965	3167.12
956.158	3131.12
961.347	3097.12
966.529	3056.12
971.707	3037.12
976.879	3011.12
982.046	2954.12
987.208	2936.12
992.364	2942.12
997.515	2945.12
1002.66	2975.12
1007.801	3002.12
1012.936	3029.12
1018.066	3035.12
1023.19	3036.12
1028.309	3062.12
1033.423	3070.12
1038.532	3055.12
1043.636	3051.12
1048.734	3058.12
1053.827	3000.12
1058.915	2974.12
1063.998	2959.12
1069.075	2938.12
1074.147	2954.12
1079.214	2938.12
1084.276	2951.12
1089.333	2956.12
1094.385	2958.12
1099.431	2941.12
1104.472	2955.12
1109.509	2880.12
1114.54	2850.12
1119.565	2827.12
1124.586	2785.12
1129.602	2734.12
1134.613	2717.12
1139.618	2695.12
1144.619	2703.12
1149.614	2698.12
1154.604	2713.12
1159.589	2729.12
1164.57	2748.12
1169.545	2739.12
1174.515	2742.12
1179.48	2738.12
1184.44	2720.12
1189.395	2710.12
1194.345	2670.12
1199.29	2663.12
1204.23	2641.12
1209.165	2638.12
1214.095	2664.12
1219.021	2680.12
1223.941	2683.12
1228.856	2688.12
1233.766	2695.12
1238.672	2684.12
1243.572	2685.12
1248.467	2668.12
1253.358	2635.12
1258.244	2584.12
1263.124	2559.12
1268	2535.12
1272.871	2427.12
1277.737	2443.12
1282.599	2441.12
1287.455	2426.12
1292.306	2449.12
1297.153	2439.12
1301.995	2468.12
1306.832	2450.12
1311.664	2455.12
1316.491	2478.12
1321.314	2472.12
1326.132	2436.12
1330.945	2385.12
1335.753	2354.12
1340.556	2307.12
1345.354	2273.12
1350.148	2243.12
1354.937	2243.12
1359.722	2189.12
1364.501	2203.12
1369.276	2181.12
1374.046	2180.12
1378.811	2177.12
1383.572	2174.12
1388.327	2178.12
1393.079	2146.12
1397.825	2140.12
1402.567	2113.12
1407.304	2115.12
1412.036	2100.12
1416.764	2103.12
1421.487	2058.12
1426.205	2068.12
1430.919	2107.12
1435.628	2102.12
1440.333	2092.12
1445.032	2130.12
1449.727	2136.12
1454.418	2153.12
1459.104	2138.12
1463.785	2118.12
1468.462	2077.12
1473.134	2050.12
1477.802	2028.12
1482.465	1979.12
1487.123	1962.12
1491.777	1912.12
1496.426	1927.12
1501.071	1962.12
1505.711	1944.12
1510.347	1964.12
1514.978	1979.12
1519.604	1958.12
1524.226	1986.12
1528.844	1948.12
1533.457	1955.12
1538.065	1937.12
1542.669	1925.12
1547.269	1904.12
1551.864	1914.12
1556.454	1861.12
1561.041	1890.12
1565.622	1874.12
1570.199	1884.12
1574.772	1902.12
1579.34	1925.12
1583.904	1931.12
1588.464	1961.12
1593.019	1973.12
1597.569	1940.12
1602.115	1951.12
1606.657	1930.12
1611.195	1941.12
1615.728	1950.12
1620.256	1916.12
1624.78	1881.12
1629.3	1928.12
1633.816	1935.12
1638.327	1916.12
1642.834	1940.12
1647.336	1959.12
1651.834	1986.12
1656.328	1982.12
1660.817	1960.12
1665.302	1930.12
1669.783	1912.12
1674.259	1878.12
1678.732	1855.12
1683.199	1796.12
1687.663	1766.12
1692.122	1731.12
1696.577	1669.12
1701.028	1653.12
1705.474	1606.12
1709.917	1605.12
1714.355	1594.12
1718.788	1559.12
1723.218	1546.12
1727.643	1525.12
1732.064	1522.12
1736.481	1472.12
1740.893	1449.12
1745.301	1429.12
1749.705	1387.12
1754.105	1359.12
1758.501	1342.12
1762.893	1329.12
1767.28	1281.12
1771.663	1272.12
1776.042	1259.12
1780.417	1247.12
1784.787	1277.12
1789.154	1265.12
1793.516	1269.12
1797.874	1257.12
1802.228	1254.12
1806.578	1252.12
1810.924	1249.12
1815.266	1143.12
1819.603	1223.12
1823.937	1197.12
1828.266	1194.12
1832.591	1184.12
1836.913	1168.12
1841.23	1170.12
1845.543	1155.12
1849.852	1151.12
1854.156	1139.12
1858.457	1146.12
1862.754	1155.12
1867.047	1159.12
1871.335	1185.12
1875.62	1184.12
1879.9	1174.12
1884.177	1153.12
1888.449	1159.12
1892.718	1159.12
1896.982	1139.12
1901.243	1129.12
1905.499	1132.12
1909.752	1113.12
1914	1098.12
1918.245	1132.12
1922.485	1129.12
1926.722	1120.12
1930.954	1133.12
1935.183	1141.12
1939.408	1141.12
1943.628	1139.12
1947.845	1133.12
1952.058	1134.12
1956.267	1100.12
1960.472	1095.12
1964.673	1072.12
1968.87	1057.12
1973.063	1016.12
1977.252	1010.12
1981.438	996.12
1985.619	1001.12
1989.797	978.12
1993.971	975.12
1998.14	993.12
2002.306	976.12
2006.469	987.12
2010.627	955.12
2014.781	970.12
2018.932	954.12
2023.078	978.12
2027.221	958.12
2031.36	926.12
2035.495	929.12
2039.627	916.12
2043.754	913.12
2047.878	900.12
2051.998	902.12
2056.114	905.12
2060.226	886.12
2064.334	907.12
2068.439	910.12
2072.54	922.12
2076.637	903.12
2080.73	916.12
2084.82	915.12
2088.906	896.12
2092.988	905.12
2097.066	915.12
2101.14	902.12
2105.211	896.12
2109.278	866.12
2113.342	863.12
2117.401	838.12
2121.457	839.12
2125.509	828.12
2129.558	837.12
2133.602	836.12
2137.643	820.12
2141.681	811.12
2145.714	811.12
2149.744	802.12
2153.77	811.12
2157.793	791.12
2161.812	757.12
2165.827	761.12
2169.838	762.12
2173.846	742.12
2177.851	737.12
2181.851	737.12
2185.848	710.12
2189.841	712.12
2193.831	708.12
2197.817	704.12
2201.799	687.12
2205.778	674.12
2209.753	681.12
2213.725	674.12
2217.693	686.12
2221.657	665.12
2225.618	681.12
2229.575	673.12
2233.529	665.12
2237.479	661.12
2241.425	652.12
2245.368	634.12
2249.307	639.12
2253.243	609.12
2257.175	623.12
2261.104	599.12
2265.029	600.12
2268.95	583.12
2272.868	579.12
2276.783	580.12
2280.694	588.12
2284.601	562.12
2288.505	558.12
2292.405	556.12
2296.302	533.12
2300.195	531.12
2304.085	506.12
2307.971	525.12
2311.854	489.12
2315.734	500.12
2319.609	508.12
2323.482	481.12
2327.351	486.12
2331.216	483.12
2335.078	490.12
2338.937	477.12
2342.792	472.12
2346.643	476.12
2350.492	477.12
2354.336	472.12
2358.178	476.12
2362.015	474.12
2365.85	480.12
2369.681	467.12
2373.508	475.12
2377.333	487.12
2381.153	476.12
2384.971	467.12
2388.785	471.12
2392.595	463.12
2396.402	460.12
2400.206	443.12
2404.007	452.12
2407.804	448.12
2411.597	450.12
2415.388	445.12
2419.174	431.12
2422.958	445.12
2426.738	432.12
2430.515	443.12
2434.289	428.12
2438.059	425.12
2441.825	423.12
2445.589	426.12
2449.349	402.12
2453.106	413.12
2456.859	420.12
2460.61	412.12
2464.356	402.12
2468.1	395.12
2471.84	389.12
2475.577	390.12
2479.311	386.12
2483.041	387.12
2486.768	396.12
2490.492	393.12
2494.213	391.12
2497.93	373.12
2501.644	366.12
2505.355	371.12
2509.062	385.12
2512.766	381.12
2516.467	372.12
2520.165	375.12
2523.859	354.12
2527.551	394.12
2531.239	356.12
2534.923	369.12
2538.605	359.12
2542.283	366.12
2545.958	368.12
2549.63	375.12
2553.299	373.12
2556.964	347.12
2560.626	355.12
2564.285	350.12
2567.941	331.12
2571.594	332.12
2575.243	348.12
2578.89	336.12
2582.533	336.12
2586.173	345.12
2589.809	337.12
2593.443	311.12
2597.073	324.12
2600.701	327.12
2604.325	315.12
2607.946	309.12
2611.564	323.12
2615.178	307.12
2618.79	324.12
2622.398	313.12
2626.004	321.12
2629.606	310.12
2633.205	302.12
2636.801	298.12
2640.394	299.12
2643.983	286.12
2647.57	283.12
2651.153	278.12
2654.734	294.12
2658.311	259.12
2661.885	261.12
2665.456	273.12
2669.025	272.12
2672.589	267.12
2676.151	288.12
2679.71	275.12
2683.266	254.12
2686.819	262.12
2690.368	260.12
2693.915	261.12
2697.458	254.12
2700.999	256.12
2704.536	253.12
2708.071	247.12
2711.602	246.12
2715.13	240.12
2718.656	223.12
2722.178	246.12
2725.697	225.12
2729.214	234.12
2732.727	239.12
2736.237	220.12
2739.744	222.12
2743.249	221.12
2746.75	232.12
2750.248	229.12
2753.743	236.12
2757.236	231.12
2760.725	240.12
2764.211	201.12
2767.695	231.12
2771.175	222.12
2774.652	237.12
2778.127	218.12
2781.598	223.12
2785.067	221.12
2788.532	211.12
2791.995	221.12
2795.455	219.12
2798.911	228.12
2802.365	221.12
2805.816	229.12
2809.264	233.12
2812.709	223.12
2816.151	230.12
2819.59	212.12
2823.026	214.12
2826.46	221.12
2829.89	233.12
2833.318	206.12
2836.742	217.12
2840.164	226.12
2843.583	231.12
2846.999	234.12
2850.412	240.12
2853.822	224.12
2857.229	249.12
2860.634	234.12
2864.035	230.12
2867.434	251.12
2870.83	260.12
2874.223	241.12
2877.613	252.12
2881	243.12
2884.385	245.12
2887.766	258.12
2891.145	258.12
2894.521	256.12
2897.894	247.12
2901.264	255.12
2904.631	257.12
2907.996	260.12
2911.358	267.12
2914.717	265.12
2918.073	264.12
2921.426	253.12
2924.777	260.12
2928.124	267.12
2931.469	284.12
2934.811	284.12
2938.15	301.12
2941.487	288.12
2944.821	305.12
2948.152	288.12
2951.48	300.12
2954.805	281.12
2958.128	292.12
2961.447	286.12
2964.765	305.12
2968.079	285.12
2971.39	297.12
2974.699	298.12
2978.005	297.12
2981.308	298.12
2984.609	297.12
2987.907	302.12
2991.202	323.12
2994.494	304.12
2997.784	321.12
3001.07	320.12
3004.355	314.12
3007.636	324.12
3010.915	320.12
3014.191	322.12
3017.464	332.12
3020.734	327.12
3024.002	335.12
3027.267	324.12
3030.53	333.12
3033.789	335.12
3037.046	343.12
3040.301	338.12
3043.552	351.12
3046.801	369.12
3050.048	366.12
3053.291	385.12
3056.532	384.12
3059.771	376.12
3063.006	402.12
3066.239	403.12
3069.469	427.12
3072.697	428.12
3075.922	435.12
3079.144	447.12
3082.364	465.12
3085.581	459.12
3088.795	486.12
3092.007	490.12
3095.216	502.12
3098.423	505.12
3101.627	487.12
3104.828	520.12
3108.026	525.12
3111.222	545.12
3114.416	563.12
3117.607	569.12
3120.795	572.12
3123.98	584.12
3127.163	572.12
3130.344	608.12
3133.521	613.12
3136.696	640.12
3139.869	654.12
3143.039	638.12
3146.206	669.12
3149.371	679.12
3152.533	682.12
3155.693	674.12
3158.85	689.12
3162.005	687.12
3165.157	689.12
3168.306	699.12
3171.453	702.12
3174.597	678.12
3177.739	686.12
3180.878	703.12
3184.014	702.12
3187.149	704.12
3190.28	711.12
3193.409	719.12
3196.536	710.12
3199.659	720.12
3202.781	718.12
3205.9	715.12
3209.016	707.12
3212.13	713.12
3215.241	707.12
3218.35	701.12
3221.456	696.12
3224.56	689.12
3227.661	683.12
3230.76	686.12
3233.856	674.12
3236.95	673.12
3240.041	657.12
3243.13	664.12
3246.216	659.12
3249.3	672.12
3252.382	657.12
3255.46	654.12
3258.537	601.12
3261.611	648.12
3264.682	655.12
3267.751	646.12
3270.818	638.12
3273.882	646.12
3276.943	632.12
3280.002	650.12
3283.059	614.12
3286.113	616.12
3289.165	611.12
3292.214	591.12
3295.261	606.12
3298.306	576.12
3301.348	578.12
3304.387	580.12
3307.425	572.12
3310.459	571.12
3313.492	567.12
3316.521	559.12
3319.549	555.12
3322.574	548.12
3325.597	535.12
3328.617	532.12
3331.635	533.12
3334.65	517.12
3337.663	544.12
3340.674	522.12
3343.682	538.12
3346.688	531.12
3349.691	507.12
3352.692	521.12
3355.691	528.12
3358.687	514.12
3361.681	510.12
3364.673	511.12
3367.662	504.12
3370.649	497.12
3373.633	492.12
3376.615	486.12
3379.595	472.12
3382.572	468.12
3385.547	450.12
3388.52	453.12
3391.49	452.12
3394.458	458.12
3397.424	454.12
3400.387	439.12
3403.348	445.12
3406.307	441.12
3409.263	441.12
3412.217	436.12
3415.168	425.12
3418.118	428.12
3421.065	417.12
3424.009	423.12
3426.951	408.12
3429.891	398.12
3432.829	401.12
3435.764	391.12
3438.697	380.12
3441.628	391.12
3444.557	355.12
3447.483	345.12
3450.407	354.12
3453.328	333.12
3456.247	332.12
3459.164	313.12
3462.079	325.12
3464.991	309.12
3467.902	299.12
3470.809	288.12
3473.715	291.12
3476.618	270.12
3479.519	266.12
3482.418	242.12
3485.315	254.12
3488.209	240.12
3491.101	245.12
3493.99	223.12
3496.878	225.12
3499.763	225.12
3502.646	222.12
3505.527	210.12
3508.405	202.12
3511.281	183.12
3514.155	195.12
3517.027	184.12
3519.897	162.12
3522.764	171.12
3525.629	147.12
3528.492	153.12
3531.352	156.12
3534.211	143.12
3537.067	142.12
3539.921	141.12
3542.773	144.12
3545.622	116.12
3548.469	115.12
3551.315	106.12
3554.157	103.12
3556.998	100.12
3559.837	97.12
3562.673	100.12
3565.507	84.12
3568.339	79.12
3571.169	83.12
3573.996	80.12
3576.822	59.12
3579.645	72.12
3582.466	60.12
3585.285	73.12
3588.101	65.12
3590.916	52.12
3593.728	67.12
3596.538	56.12
3599.346	57.12
3602.152	41.12
3604.956	45.12
3607.757	46.12
3610.556	30.12
3613.354	41.12
3616.149	40.12
3618.942	45.12
3621.732	40.12
3624.521	25.12
3627.307	17.12
3630.092	23.12
3632.874	35.12
3635.654	22.12
3638.432	13.12
3641.208	15.12
3643.982	14.12
3646.753	17.12
3649.523	-7.88
3652.29	10.12
3655.055	16.12
3657.818	13.12
3660.579	4.12
3663.338	-8.88
3666.095	5.12
3668.849	-25.88
3671.602	5.12
3674.352	-12.88
3677.101	3.12
3679.847	3.12
3682.591	-9.88
3685.333	-17.88
3688.073	-4.88
3690.811	-14.88
3693.547	-19.88
3696.281	-20.88
3699.013	-12.88
3701.742	-15.88
3704.47	-20.88
3707.195	-7.88
3709.919	-13.88
3712.64	-16.88
3715.359	-23.88
3718.076	-9.88
3720.792	-16.88
3723.505	-15.88
3726.216	-6.88
3728.925	-19.88
3731.632	-24.88
3734.336	-16.88
3737.039	-21.88
3739.74	-16.88
3742.439	-46.88
3745.136	-13.88
3747.83	-18.88
3750.523	-14.88
3753.213	-77.88
3755.902	-24.88
3758.589	-35.88
3761.273	-27.88
3763.956	-12.88
3766.636	-36.88
3769.315	-16.88
3771.991	-29.88
3774.665	-31.88
3777.338	-24.88
3780.008	-34.88
3782.677	-26.88
3785.343	-38.88
3788.007	-41.88
3790.67	-18.88
3793.33	-38.88
3795.989	-27.88
3798.645	-24.88
3801.299	-38.88
3803.952	-33.88
3806.602	-32.88
3809.251	-25.88
3811.897	-29.88
3814.542	-28.88
3817.184	-33.88
3819.825	-27.88
3822.463	-40.88
3825.1	-34.88
3827.735	-28.88
3830.367	-41.88
3832.998	-18.88
3835.627	-32.88
3838.253	-22.88
3840.878	-28.88
3843.501	-16.88
3846.122	-27.88
3848.741	-21.88
3851.358	-23.88
3853.973	-40.88
3856.586	-19.88
3859.197	-32.88
3861.806	-28.88
3864.414	-41.88
3867.019	-25.88
3869.622	-16.88
3872.224	-8.88
3874.823	12.12
3877.421	45.12
3880.016	71.12
3882.61	117.12
3885.202	136.12
3887.792	101.12
3890.38	54.12
3892.966	4.12
3895.55	-21.88
3898.132	-20.88
3900.713	-13.88
3903.291	-24.88
3905.868	-32.88
3908.442	-29.88
3911.015	-25.88
3913.586	-30.88
3916.155	-33.88
3918.722	-37.88
3921.287	-30.88
3923.85	-36.88
3926.411	-34.88
3928.971	-35.88
3931.528	-27.88
3934.084	-34.88
3936.638	-41.88
3939.19	-22.88
3941.74	-28.88
3944.288	-32.88
3946.834	-34.88
3949.378	-26.88
3951.921	-35.88
3954.462	-32.88
3957	-25.88
3959.537	-16.88
3962.072	-23.88
3964.606	-42.88
3967.137	-31.88
3969.667	-37.88
3972.194	-17.88
3974.72	-32.88
3977.244	-50.88
3979.766	-36.88
3982.286	-35.88
3984.805	-29.88
3987.321	-17.88
3989.836	-20.88
3992.349	-29.88
3994.86	-25.88
3997.369	-36.88
3999.877	-28.88
4002.382	-31.88
4004.886	-23.88
4007.388	-27.88
4009.888	-16.88
4012.386	-21.88
4014.883	-21.88
4017.377	-23.88
4019.87	-19.88
4022.361	-31.88
4024.85	-25.88
4027.338	-22.88
4029.823	-32.88
4032.307	-29.88
4034.789	-25.88
4037.269	-24.88
4039.747	-38.88
4042.224	-14.88
4044.699	-33.88
4047.172	-31.88
4049.643	-22.88
4052.112	-45.88
4054.58	-19.88
4057.046	-38.88
4059.51	-26.88
4061.972	-25.88
4064.432	-45.88
4066.891	-10.88
4069.348	-24.88
4071.803	-23.88
4074.256	-32.88
4076.708	-22.88
4079.158	-26.88
4081.606	-15.88
4084.052	-24.88
4086.497	-21.88
4088.939	-27.88
4091.38	-31.88
4093.819	-22.88
4096.257	1.12
4098.693	-7.88
4101.127	-4.88
4103.559	3.12
4105.989	156.12
4108.418	159.12
4110.845	147.12
4113.27	151.12
4115.694	165.12
4118.115	155.12
4120.535	-23.88
4122.954	-20.88
4125.37	-14.88
4127.785	-24.88
4130.198	-17.88
4132.609	-21.88
4135.019	7.12
4137.427	0.12
4139.833	3.12
4142.237	-1.88
