Data from 2018-3-6_conc=0_n=3_RamanShift_04.txt Node
Date: Tue Mar 06 12:16:19 GMT+02:00 2018
User: LAB3
Spectrometer: QEPB0276
Trigger mode: 0
Integration Time (sec): 3.000000E1
Scans to average: 1
Electric dark correction enabled: true
Nonlinearity correction enabled: false
Boxcar width: 0
XAxis mode: Raman Shifts
Number of Pixels in Spectrum: 1044
>>>>>Begin Spectral Data<<<<<
160.701	73.75
166.742	101.75
172.777	185.75
178.805	408.75
184.826	995.75
190.841	2031.75
196.849	3226.75
202.85	4168.75
208.845	4591.75
214.833	4597.75
220.815	4592.75
226.789	4591.75
232.758	4701.75
238.719	4741.75
244.674	4739.75
250.623	4737.75
256.565	4713.75
262.5	4699.75
268.429	4706.75
274.351	4687.75
280.267	4705.75
286.176	4701.75
292.079	4734.75
297.975	4742.75
303.865	4725.75
309.748	4783.75
315.625	4772.75
321.495	4778.75
327.359	4809.75
333.217	4801.75
339.068	4840.75
344.912	4850.75
350.751	4862.75
356.583	4895.75
362.408	4902.75
368.227	4945.75
374.04	4945.75
379.847	4983.75
385.647	5010.75
391.44	5013.75
397.228	5049.75
403.009	5075.75
408.784	5062.75
414.553	5098.75
420.315	5134.75
426.071	5152.75
431.821	5137.75
437.565	5152.75
443.302	5129.75
449.033	5109.75
454.758	5101.75
460.477	5066.75
466.189	5022.75
471.896	4988.75
477.596	4941.75
483.29	4930.75
488.978	4932.75
494.66	4881.75
500.335	4782.75
506.005	4614.75
511.668	4453.75
517.325	4271.75
522.977	4128.75
528.622	4034.75
534.261	3981.75
539.894	3923.75
545.521	3868.75
551.141	3828.75
556.756	3809.75
562.365	3782.75
567.968	3786.75
573.565	3733.75
579.155	3735.75
584.74	3709.75
590.319	3726.75
595.892	3696.75
601.459	3682.75
607.02	3674.75
612.575	3649.75
618.124	3621.75
623.667	3582.75
629.204	3546.75
634.735	3505.75
640.261	3462.75
645.781	3402.75
651.294	3424.75
656.802	3412.75
662.304	3421.75
667.8	3439.75
673.29	3418.75
678.775	3395.75
684.254	3383.75
689.726	3366.75
695.193	3373.75
700.655	3335.75
706.11	3339.75
711.56	3298.75
717.004	3294.75
722.442	3266.75
727.874	3271.75
733.301	3269.75
738.722	3245.75
744.137	3225.75
749.547	3251.75
754.951	3237.75
760.349	3241.75
765.741	3275.75
771.128	3286.75
776.509	3290.75
781.885	3351.75
787.254	3369.75
792.618	3366.75
797.977	3365.75
803.33	3316.75
808.677	3308.75
814.019	3301.75
819.355	3255.75
824.686	3231.75
830.011	3239.75
835.33	3236.75
840.644	3239.75
845.952	3180.75
851.255	3193.75
856.552	3166.75
861.844	3148.75
867.13	3145.75
872.41	3155.75
877.686	3208.75
882.955	3230.75
888.219	3191.75
893.478	3104.75
898.731	3011.75
903.979	2958.75
909.221	2917.75
914.458	2905.75
919.69	2914.75
924.916	2901.75
930.136	2917.75
935.351	2894.75
940.561	2900.75
945.766	2895.75
950.965	2906.75
956.158	2878.75
961.347	2831.75
966.529	2797.75
971.707	2807.75
976.879	2743.75
982.046	2718.75
987.208	2703.75
992.364	2722.75
997.515	2704.75
1002.66	2746.75
1007.801	2762.75
1012.936	2791.75
1018.066	2814.75
1023.19	2823.75
1028.309	2846.75
1033.423	2827.75
1038.532	2852.75
1043.636	2831.75
1048.734	2837.75
1053.827	2776.75
1058.915	2768.75
1063.998	2754.75
1069.075	2727.75
1074.147	2736.75
1079.214	2739.75
1084.276	2762.75
1089.333	2795.75
1094.385	2773.75
1099.431	2770.75
1104.472	2747.75
1109.509	2698.75
1114.54	2681.75
1119.565	2626.75
1124.586	2596.75
1129.602	2569.75
1134.613	2536.75
1139.618	2538.75
1144.619	2529.75
1149.614	2554.75
1154.604	2536.75
1159.589	2545.75
1164.57	2579.75
1169.545	2561.75
1174.515	2578.75
1179.48	2551.75
1184.44	2539.75
1189.395	2524.75
1194.345	2507.75
1199.29	2498.75
1204.23	2466.75
1209.165	2463.75
1214.095	2500.75
1219.021	2514.75
1223.941	2504.75
1228.856	2541.75
1233.766	2533.75
1238.672	2548.75
1243.572	2553.75
1248.467	2509.75
1253.358	2490.75
1258.244	2439.75
1263.124	2439.75
1268	2399.75
1272.871	2346.75
1277.737	2359.75
1282.599	2321.75
1287.455	2322.75
1292.306	2358.75
1297.153	2345.75
1301.995	2362.75
1306.832	2357.75
1311.664	2365.75
1316.491	2349.75
1321.314	2342.75
1326.132	2329.75
1330.945	2307.75
1335.753	2268.75
1340.556	2213.75
1345.354	2188.75
1350.148	2156.75
1354.937	2146.75
1359.722	2120.75
1364.501	2092.75
1369.276	2113.75
1374.046	2123.75
1378.811	2089.75
1383.572	2110.75
1388.327	2106.75
1393.079	2075.75
1397.825	2053.75
1402.567	2072.75
1407.304	2027.75
1412.036	2038.75
1416.764	2035.75
1421.487	2029.75
1426.205	2039.75
1430.919	2052.75
1435.628	2051.75
1440.333	2070.75
1445.032	2100.75
1449.727	2128.75
1454.418	2145.75
1459.104	2142.75
1463.785	2121.75
1468.462	2097.75
1473.134	2028.75
1477.802	1986.75
1482.465	1940.75
1487.123	1935.75
1491.777	1916.75
1496.426	1917.75
1501.071	1922.75
1505.711	1903.75
1510.347	1946.75
1514.978	1946.75
1519.604	1946.75
1524.226	1952.75
1528.844	1920.75
1533.457	1921.75
1538.065	1899.75
1542.669	1877.75
1547.269	1853.75
1551.864	1856.75
1556.454	1846.75
1561.041	1854.75
1565.622	1820.75
1570.199	1837.75
1574.772	1851.75
1579.34	1860.75
1583.904	1866.75
1588.464	1891.75
1593.019	1894.75
1597.569	1859.75
1602.115	1851.75
1606.657	1843.75
1611.195	1850.75
1615.728	1830.75
1620.256	1823.75
1624.78	1785.75
1629.3	1801.75
1633.816	1809.75
1638.327	1804.75
1642.834	1829.75
1647.336	1836.75
1651.834	1851.75
1656.328	1844.75
1660.817	1846.75
1665.302	1824.75
1669.783	1809.75
1674.259	1800.75
1678.732	1770.75
1683.199	1726.75
1687.663	1672.75
1692.122	1657.75
1696.577	1621.75
1701.028	1605.75
1705.474	1577.75
1709.917	1554.75
1714.355	1542.75
1718.788	1531.75
1723.218	1504.75
1727.643	1504.75
1732.064	1464.75
1736.481	1479.75
1740.893	1451.75
1745.301	1422.75
1749.705	1368.75
1754.105	1365.75
1758.501	1345.75
1762.893	1333.75
1767.28	1292.75
1771.663	1283.75
1776.042	1253.75
1780.417	1258.75
1784.787	1264.75
1789.154	1285.75
1793.516	1289.75
1797.874	1276.75
1802.228	1260.75
1806.578	1252.75
1810.924	1243.75
1815.266	1167.75
1819.603	1246.75
1823.937	1206.75
1828.266	1194.75
1832.591	1190.75
1836.913	1178.75
1841.23	1166.75
1845.543	1153.75
1849.852	1176.75
1854.156	1168.75
1858.457	1158.75
1862.754	1165.75
1867.047	1173.75
1871.335	1192.75
1875.62	1184.75
1879.9	1182.75
1884.177	1166.75
1888.449	1165.75
1892.718	1156.75
1896.982	1174.75
1901.243	1146.75
1905.499	1131.75
1909.752	1126.75
1914	1109.75
1918.245	1142.75
1922.485	1148.75
1926.722	1138.75
1930.954	1133.75
1935.183	1144.75
1939.408	1140.75
1943.628	1147.75
1947.845	1131.75
1952.058	1128.75
1956.267	1101.75
1960.472	1100.75
1964.673	1080.75
1968.87	1043.75
1973.063	1036.75
1977.252	1011.75
1981.438	1003.75
1985.619	1003.75
1989.797	970.75
1993.971	985.75
1998.14	995.75
2002.306	978.75
2006.469	981.75
2010.627	949.75
2014.781	955.75
2018.932	948.75
2023.078	966.75
2027.221	964.75
2031.36	940.75
2035.495	924.75
2039.627	921.75
2043.754	926.75
2047.878	910.75
2051.998	887.75
2056.114	900.75
2060.226	906.75
2064.334	909.75
2068.439	933.75
2072.54	920.75
2076.637	898.75
2080.73	923.75
2084.82	910.75
2088.906	922.75
2092.988	913.75
2097.066	901.75
2101.14	915.75
2105.211	887.75
2109.278	869.75
2113.342	857.75
2117.401	852.75
2121.457	840.75
2125.509	843.75
2129.558	835.75
2133.602	825.75
2137.643	816.75
2141.681	818.75
2145.714	813.75
2149.744	819.75
2153.77	805.75
2157.793	782.75
2161.812	757.75
2165.827	743.75
2169.838	775.75
2173.846	750.75
2177.851	746.75
2181.851	726.75
2185.848	726.75
2189.841	721.75
2193.831	714.75
2197.817	705.75
2201.799	705.75
2205.778	697.75
2209.753	680.75
2213.725	680.75
2217.693	695.75
2221.657	682.75
2225.618	696.75
2229.575	691.75
2233.529	679.75
2237.479	681.75
2241.425	656.75
2245.368	660.75
2249.307	648.75
2253.243	635.75
2257.175	633.75
2261.104	613.75
2265.029	622.75
2268.95	625.75
2272.868	600.75
2276.783	589.75
2280.694	586.75
2284.601	591.75
2288.505	586.75
2292.405	582.75
2296.302	555.75
2300.195	569.75
2304.085	535.75
2307.971	549.75
2311.854	520.75
2315.734	527.75
2319.609	517.75
2323.482	510.75
2327.351	511.75
2331.216	512.75
2335.078	512.75
2338.937	506.75
2342.792	496.75
2346.643	493.75
2350.492	502.75
2354.336	503.75
2358.178	505.75
2362.015	508.75
2365.85	512.75
2369.681	502.75
2373.508	507.75
2377.333	509.75
2381.153	511.75
2384.971	498.75
2388.785	504.75
2392.595	482.75
2396.402	483.75
2400.206	456.75
2404.007	479.75
2407.804	473.75
2411.597	484.75
2415.388	478.75
2419.174	479.75
2422.958	480.75
2426.738	479.75
2430.515	470.75
2434.289	461.75
2438.059	458.75
2441.825	442.75
2445.589	457.75
2449.349	441.75
2453.106	452.75
2456.859	440.75
2460.61	450.75
2464.356	425.75
2468.1	426.75
2471.84	416.75
2475.577	419.75
2479.311	423.75
2483.041	409.75
2486.768	432.75
2490.492	425.75
2494.213	420.75
2497.93	403.75
2501.644	400.75
2505.355	410.75
2509.062	399.75
2512.766	401.75
2516.467	401.75
2520.165	410.75
2523.859	384.75
2527.551	417.75
2531.239	383.75
2534.923	395.75
2538.605	385.75
2542.283	394.75
2545.958	391.75
2549.63	392.75
2553.299	378.75
2556.964	380.75
2560.626	367.75
2564.285	386.75
2567.941	359.75
2571.594	362.75
2575.243	370.75
2578.89	360.75
2582.533	354.75
2586.173	358.75
2589.809	351.75
2593.443	322.75
2597.073	352.75
2600.701	343.75
2604.325	346.75
2607.946	338.75
2611.564	344.75
2615.178	336.75
2618.79	334.75
2622.398	331.75
2626.004	335.75
2629.606	335.75
2633.205	312.75
2636.801	324.75
2640.394	321.75
2643.983	311.75
2647.57	301.75
2651.153	299.75
2654.734	304.75
2658.311	273.75
2661.885	285.75
2665.456	291.75
2669.025	284.75
2672.589	282.75
2676.151	289.75
2679.71	293.75
2683.266	268.75
2686.819	262.75
2690.368	282.75
2693.915	271.75
2697.458	264.75
2700.999	272.75
2704.536	272.75
2708.071	263.75
2711.602	263.75
2715.13	253.75
2718.656	242.75
2722.178	247.75
2725.697	238.75
2729.214	246.75
2732.727	253.75
2736.237	235.75
2739.744	246.75
2743.249	242.75
2746.75	247.75
2750.248	232.75
2753.743	248.75
2757.236	246.75
2760.725	247.75
2764.211	209.75
2767.695	242.75
2771.175	234.75
2774.652	241.75
2778.127	221.75
2781.598	228.75
2785.067	227.75
2788.532	210.75
2791.995	227.75
2795.455	227.75
2798.911	232.75
2802.365	213.75
2805.816	238.75
2809.264	240.75
2812.709	218.75
2816.151	229.75
2819.59	209.75
2823.026	229.75
2826.46	226.75
2829.89	239.75
2833.318	215.75
2836.742	231.75
2840.164	227.75
2843.583	231.75
2846.999	235.75
2850.412	239.75
2853.822	236.75
2857.229	248.75
2860.634	240.75
2864.035	232.75
2867.434	248.75
2870.83	255.75
2874.223	256.75
2877.613	257.75
2881	256.75
2884.385	263.75
2887.766	277.75
2891.145	269.75
2894.521	264.75
2897.894	253.75
2901.264	278.75
2904.631	265.75
2907.996	276.75
2911.358	269.75
2914.717	264.75
2918.073	264.75
2921.426	255.75
2924.777	254.75
2928.124	273.75
2931.469	301.75
2934.811	288.75
2938.15	314.75
2941.487	311.75
2944.821	321.75
2948.152	294.75
2951.48	297.75
2954.805	265.75
2958.128	283.75
2961.447	272.75
2964.765	283.75
2968.079	261.75
2971.39	250.75
2974.699	261.75
2978.005	270.75
2981.308	271.75
2984.609	261.75
2987.907	274.75
2991.202	283.75
2994.494	260.75
2997.784	265.75
3001.07	266.75
3004.355	259.75
3007.636	260.75
3010.915	256.75
3014.191	250.75
3017.464	256.75
3020.734	249.75
3024.002	248.75
3027.267	253.75
3030.53	262.75
3033.789	248.75
3037.046	248.75
3040.301	242.75
3043.552	252.75
3046.801	267.75
3050.048	276.75
3053.291	284.75
3056.532	277.75
3059.771	269.75
3063.006	281.75
3066.239	298.75
3069.469	299.75
3072.697	297.75
3075.922	302.75
3079.144	295.75
3082.364	328.75
3085.581	315.75
3088.795	347.75
3092.007	344.75
3095.216	354.75
3098.423	342.75
3101.627	325.75
3104.828	364.75
3108.026	351.75
3111.222	369.75
3114.416	388.75
3117.607	387.75
3120.795	387.75
3123.98	399.75
3127.163	396.75
3130.344	408.75
3133.521	403.75
3136.696	426.75
3139.869	429.75
3143.039	419.75
3146.206	456.75
3149.371	458.75
3152.533	448.75
3155.693	438.75
3158.85	450.75
3162.005	455.75
3165.157	449.75
3168.306	449.75
3171.453	463.75
3174.597	442.75
3177.739	446.75
3180.878	465.75
3184.014	467.75
3187.149	464.75
3190.28	456.75
3193.409	482.75
3196.536	461.75
3199.659	479.75
3202.781	475.75
3205.9	458.75
3209.016	476.75
3212.13	462.75
3215.241	466.75
3218.35	464.75
3221.456	459.75
3224.56	443.75
3227.661	449.75
3230.76	441.75
3233.856	439.75
3236.95	444.75
3240.041	426.75
3243.13	446.75
3246.216	437.75
3249.3	437.75
3252.382	433.75
3255.46	425.75
3258.537	368.75
3261.611	416.75
3264.682	422.75
3267.751	418.75
3270.818	400.75
3273.882	425.75
3276.943	419.75
3280.002	429.75
3283.059	405.75
3286.113	400.75
3289.165	385.75
3292.214	379.75
3295.261	389.75
3298.306	364.75
3301.348	373.75
3304.387	352.75
3307.425	374.75
3310.459	358.75
3313.492	355.75
3316.521	346.75
3319.549	355.75
3322.574	352.75
3325.597	341.75
3328.617	333.75
3331.635	339.75
3334.65	315.75
3337.663	339.75
3340.674	324.75
3343.682	330.75
3346.688	339.75
3349.691	323.75
3352.692	323.75
3355.691	328.75
3358.687	326.75
3361.681	331.75
3364.673	319.75
3367.662	317.75
3370.649	319.75
3373.633	307.75
3376.615	306.75
3379.595	282.75
3382.572	289.75
3385.547	286.75
3388.52	276.75
3391.49	283.75
3394.458	278.75
3397.424	281.75
3400.387	267.75
3403.348	276.75
3406.307	275.75
3409.263	268.75
3412.217	273.75
3415.168	266.75
3418.118	274.75
3421.065	257.75
3424.009	268.75
3426.951	251.75
3429.891	246.75
3432.829	248.75
3435.764	250.75
3438.697	234.75
3441.628	249.75
3444.557	219.75
3447.483	212.75
3450.407	224.75
3453.328	204.75
3456.247	210.75
3459.164	196.75
3462.079	209.75
3464.991	191.75
3467.902	191.75
3470.809	185.75
3473.715	185.75
3476.618	168.75
3479.519	176.75
3482.418	150.75
3485.315	146.75
3488.209	146.75
3491.101	143.75
3493.99	135.75
3496.878	136.75
3499.763	141.75
3502.646	139.75
3505.527	117.75
3508.405	127.75
3511.281	112.75
3514.155	119.75
3517.027	112.75
3519.897	101.75
3522.764	110.75
3525.629	82.75
3528.492	92.75
3531.352	92.75
3534.211	91.75
3537.067	77.75
3539.921	72.75
3542.773	79.75
3545.622	68.75
3548.469	56.75
3551.315	53.75
3554.157	63.75
3556.998	51.75
3559.837	50.75
3562.673	54.75
3565.507	42.75
3568.339	40.75
3571.169	41.75
3573.996	41.75
3576.822	21.75
3579.645	26.75
3582.466	27.75
3585.285	33.75
3588.101	32.75
3590.916	24.75
3593.728	31.75
3596.538	25.75
3599.346	26.75
3602.152	11.75
3604.956	16.75
3607.757	22.75
3610.556	5.75
3613.354	13.75
3616.149	13.75
3618.942	16.75
3621.732	14.75
3624.521	4.75
3627.307	-8.25
3630.092	-0.25
3632.874	6.75
3635.654	5.75
3638.432	-4.25
3641.208	-1.25
3643.982	-1.25
3646.753	6.75
3649.523	-21.25
3652.29	-5.25
3655.055	-1.25
3657.818	1.75
3660.579	-10.25
3663.338	-18.25
3666.095	-15.25
3668.849	-32.25
3671.602	-9.25
3674.352	-19.25
3677.101	-2.25
3679.847	-7.25
3682.591	-16.25
3685.333	-20.25
3688.073	-16.25
3690.811	-23.25
3693.547	-29.25
3696.281	-27.25
3699.013	-15.25
3701.742	-23.25
3704.47	-30.25
3707.195	-14.25
3709.919	-20.25
3712.64	-17.25
3715.359	-32.25
3718.076	-8.25
3720.792	-25.25
3723.505	-19.25
3726.216	-9.25
3728.925	-22.25
3731.632	-30.25
3734.336	-24.25
3737.039	-22.25
3739.74	-18.25
3742.439	-46.25
3745.136	-17.25
3747.83	-19.25
3750.523	-19.25
3753.213	-79.25
3755.902	-26.25
3758.589	-41.25
3761.273	-27.25
3763.956	-17.25
3766.636	-39.25
3769.315	-17.25
3771.991	-27.25
3774.665	-31.25
3777.338	-22.25
3780.008	-34.25
3782.677	-31.25
3785.343	-43.25
3788.007	-44.25
3790.67	-26.25
3793.33	-40.25
3795.989	-39.25
3798.645	-23.25
3801.299	-39.25
3803.952	-39.25
3806.602	-32.25
3809.251	-24.25
3811.897	-31.25
3814.542	-33.25
3817.184	-37.25
3819.825	-34.25
3822.463	-44.25
3825.1	-32.25
3827.735	-32.25
3830.367	-44.25
3832.998	-20.25
3835.627	-31.25
3838.253	-20.25
3840.878	-33.25
3843.501	-16.25
3846.122	-28.25
3848.741	-24.25
3851.358	-21.25
3853.973	-37.25
3856.586	-23.25
3859.197	-37.25
3861.806	-31.25
3864.414	-43.25
3867.019	-36.25
3869.622	-25.25
3872.224	-23.25
3874.823	-25.25
3877.421	-5.25
3880.016	-5.25
3882.61	17.75
3885.202	35.75
3887.792	17.75
3890.38	1.75
3892.966	-25.25
3895.55	-39.25
3898.132	-23.25
3900.713	-29.25
3903.291	-35.25
3905.868	-39.25
3908.442	-35.25
3911.015	-33.25
3913.586	-38.25
3916.155	-34.25
3918.722	-38.25
3921.287	-37.25
3923.85	-51.25
3926.411	-38.25
3928.971	-40.25
3931.528	-27.25
3934.084	-37.25
3936.638	-48.25
3939.19	-29.25
3941.74	-31.25
3944.288	-38.25
3946.834	-35.25
3949.378	11.75
3951.921	59.75
3954.462	-31.25
3957	-34.25
3959.537	-27.25
3962.072	-36.25
3964.606	-48.25
3967.137	-35.25
3969.667	-33.25
3972.194	-26.25
3974.72	-35.25
3977.244	-53.25
3979.766	-36.25
3982.286	-37.25
3984.805	-25.25
3987.321	-20.25
3989.836	-24.25
3992.349	-36.25
3994.86	-29.25
3997.369	-32.25
3999.877	-33.25
4002.382	-33.25
4004.886	-21.25
4007.388	-27.25
4009.888	-21.25
4012.386	-23.25
4014.883	-28.25
4017.377	-30.25
4019.87	-24.25
4022.361	-39.25
4024.85	-26.25
4027.338	-33.25
4029.823	-34.25
4032.307	-32.25
4034.789	-29.25
4037.269	-25.25
4039.747	-41.25
4042.224	-16.25
4044.699	-33.25
4047.172	-33.25
4049.643	-22.25
4052.112	-55.25
4054.58	-26.25
4057.046	-38.25
4059.51	-31.25
4061.972	-29.25
4064.432	-47.25
4066.891	-14.25
4069.348	-31.25
4071.803	-29.25
4074.256	-31.25
4076.708	-24.25
4079.158	-24.25
4081.606	-16.25
4084.052	-27.25
4086.497	-22.25
4088.939	-29.25
4091.38	-30.25
4093.819	-24.25
4096.257	0.75
4098.693	-9.25
4101.127	-6.25
4103.559	1.75
4105.989	41.75
4108.418	51.75
4110.845	43.75
4113.27	53.75
4115.694	68.75
4118.115	58.75
4120.535	-25.25
4122.954	-23.25
4125.37	-20.25
4127.785	-23.25
4130.198	-20.25
4132.609	-30.25
4135.019	6.75
4137.427	1.75
4139.833	6.75
4142.237	-2.25
