Data from 2018-3-6_conc=5_n=10_RamanShift_04.txt Node
Date: Tue Mar 06 14:51:48 GMT+02:00 2018
User: LAB3
Spectrometer: QEPB0276
Trigger mode: 0
Integration Time (sec): 3.000000E1
Scans to average: 1
Electric dark correction enabled: true
Nonlinearity correction enabled: false
Boxcar width: 0
XAxis mode: Raman Shifts
Number of Pixels in Spectrum: 1044
>>>>>Begin Spectral Data<<<<<
160.701	45.5
166.742	62.5
172.777	92.5
178.805	178.5
184.826	421.5
190.841	863.5
196.849	1357.5
202.85	1704.5
208.845	1820.5
214.833	1798.5
220.815	1756.5
226.789	1736.5
232.758	1751.5
238.719	1716.5
244.674	1692.5
250.623	1678.5
256.565	1643.5
262.5	1615.5
268.429	1588.5
274.351	1571.5
280.267	1566.5
286.176	1576.5
292.079	1550.5
297.975	1559.5
303.865	1560.5
309.748	1528.5
315.625	1502.5
321.495	1531.5
327.359	1496.5
333.217	1508.5
339.068	1512.5
344.912	1532.5
350.751	1534.5
356.583	1529.5
362.408	1524.5
368.227	1526.5
374.04	1535.5
379.847	1538.5
385.647	1544.5
391.44	1540.5
397.228	1550.5
403.009	1556.5
408.784	1570.5
414.553	1580.5
420.315	1575.5
426.071	1563.5
431.821	1590.5
437.565	1587.5
443.302	1567.5
449.033	1537.5
454.758	1546.5
460.477	1532.5
466.189	1522.5
471.896	1517.5
477.596	1506.5
483.29	1467.5
488.978	1479.5
494.66	1471.5
500.335	1437.5
506.005	1380.5
511.668	1319.5
517.325	1240.5
522.977	1201.5
528.622	1145.5
534.261	1142.5
539.894	1108.5
545.521	1072.5
551.141	1069.5
556.756	1055.5
562.365	1055.5
567.968	1046.5
573.565	1040.5
579.155	1042.5
584.74	1022.5
590.319	1044.5
595.892	1029.5
601.459	1039.5
607.02	1023.5
612.575	1030.5
618.124	1015.5
623.667	992.5
629.204	988.5
634.735	953.5
640.261	951.5
645.781	917.5
651.294	934.5
656.802	932.5
662.304	935.5
667.8	946.5
673.29	934.5
678.775	932.5
684.254	905.5
689.726	913.5
695.193	913.5
700.655	904.5
706.11	901.5
711.56	888.5
717.004	899.5
722.442	863.5
727.874	881.5
733.301	889.5
738.722	875.5
744.137	869.5
749.547	871.5
754.951	868.5
760.349	865.5
765.741	875.5
771.128	878.5
776.509	879.5
781.885	904.5
787.254	919.5
792.618	903.5
797.977	930.5
803.33	921.5
808.677	897.5
814.019	900.5
819.355	890.5
824.686	869.5
830.011	857.5
835.33	884.5
840.644	876.5
845.952	858.5
851.255	855.5
856.552	856.5
861.844	841.5
867.13	813.5
872.41	795.5
877.686	811.5
882.955	799.5
888.219	796.5
893.478	773.5
898.731	781.5
903.979	770.5
909.221	759.5
914.458	761.5
919.69	749.5
924.916	750.5
930.136	755.5
935.351	754.5
940.561	760.5
945.766	754.5
950.965	766.5
956.158	733.5
961.347	727.5
966.529	727.5
971.707	722.5
976.879	710.5
982.046	702.5
987.208	690.5
992.364	714.5
997.515	695.5
1002.66	713.5
1007.801	699.5
1012.936	717.5
1018.066	699.5
1023.19	728.5
1028.309	721.5
1033.423	715.5
1038.532	731.5
1043.636	707.5
1048.734	729.5
1053.827	704.5
1058.915	686.5
1063.998	702.5
1069.075	680.5
1074.147	701.5
1079.214	669.5
1084.276	694.5
1089.333	688.5
1094.385	694.5
1099.431	691.5
1104.472	689.5
1109.509	677.5
1114.54	667.5
1119.565	652.5
1124.586	653.5
1129.602	654.5
1134.613	624.5
1139.618	633.5
1144.619	625.5
1149.614	639.5
1154.604	625.5
1159.589	635.5
1164.57	659.5
1169.545	654.5
1174.515	647.5
1179.48	636.5
1184.44	649.5
1189.395	643.5
1194.345	630.5
1199.29	634.5
1204.23	620.5
1209.165	609.5
1214.095	634.5
1219.021	617.5
1223.941	613.5
1228.856	629.5
1233.766	636.5
1238.672	627.5
1243.572	642.5
1248.467	631.5
1253.358	616.5
1258.244	611.5
1263.124	619.5
1268	607.5
1272.871	570.5
1277.737	584.5
1282.599	565.5
1287.455	572.5
1292.306	577.5
1297.153	567.5
1301.995	568.5
1306.832	581.5
1311.664	580.5
1316.491	579.5
1321.314	575.5
1326.132	568.5
1330.945	565.5
1335.753	550.5
1340.556	544.5
1345.354	533.5
1350.148	527.5
1354.937	527.5
1359.722	522.5
1364.501	512.5
1369.276	517.5
1374.046	521.5
1378.811	502.5
1383.572	515.5
1388.327	503.5
1393.079	489.5
1397.825	492.5
1402.567	495.5
1407.304	485.5
1412.036	484.5
1416.764	476.5
1421.487	475.5
1426.205	480.5
1430.919	478.5
1435.628	488.5
1440.333	478.5
1445.032	492.5
1449.727	498.5
1454.418	498.5
1459.104	508.5
1463.785	482.5
1468.462	491.5
1473.134	479.5
1477.802	470.5
1482.465	440.5
1487.123	453.5
1491.777	431.5
1496.426	430.5
1501.071	465.5
1505.711	439.5
1510.347	453.5
1514.978	465.5
1519.604	450.5
1524.226	467.5
1528.844	442.5
1533.457	458.5
1538.065	452.5
1542.669	446.5
1547.269	449.5
1551.864	441.5
1556.454	430.5
1561.041	437.5
1565.622	434.5
1570.199	450.5
1574.772	445.5
1579.34	448.5
1583.904	453.5
1588.464	478.5
1593.019	462.5
1597.569	450.5
1602.115	442.5
1606.657	444.5
1611.195	458.5
1615.728	452.5
1620.256	437.5
1624.78	426.5
1629.3	441.5
1633.816	449.5
1638.327	439.5
1642.834	455.5
1647.336	448.5
1651.834	465.5
1656.328	457.5
1660.817	451.5
1665.302	428.5
1669.783	421.5
1674.259	433.5
1678.732	415.5
1683.199	405.5
1687.663	390.5
1692.122	397.5
1696.577	396.5
1701.028	388.5
1705.474	362.5
1709.917	364.5
1714.355	357.5
1718.788	357.5
1723.218	339.5
1727.643	328.5
1732.064	335.5
1736.481	320.5
1740.893	329.5
1745.301	323.5
1749.705	295.5
1754.105	310.5
1758.501	293.5
1762.893	305.5
1767.28	281.5
1771.663	284.5
1776.042	275.5
1780.417	271.5
1784.787	286.5
1789.154	291.5
1793.516	285.5
1797.874	274.5
1802.228	269.5
1806.578	264.5
1810.924	292.5
1815.266	164.5
1819.603	286.5
1823.937	261.5
1828.266	260.5
1832.591	259.5
1836.913	264.5
1841.23	262.5
1845.543	260.5
1849.852	260.5
1854.156	257.5
1858.457	257.5
1862.754	242.5
1867.047	246.5
1871.335	265.5
1875.62	257.5
1879.9	260.5
1884.177	251.5
1888.449	251.5
1892.718	255.5
1896.982	257.5
1901.243	244.5
1905.499	243.5
1909.752	234.5
1914	215.5
1918.245	247.5
1922.485	250.5
1926.722	233.5
1930.954	232.5
1935.183	242.5
1939.408	249.5
1943.628	251.5
1947.845	243.5
1952.058	241.5
1956.267	227.5
1960.472	241.5
1964.673	238.5
1968.87	224.5
1973.063	228.5
1977.252	217.5
1981.438	228.5
1985.619	213.5
1989.797	201.5
1993.971	207.5
1998.14	225.5
2002.306	217.5
2006.469	222.5
2010.627	206.5
2014.781	204.5
2018.932	198.5
2023.078	219.5
2027.221	205.5
2031.36	197.5
2035.495	198.5
2039.627	191.5
2043.754	197.5
2047.878	191.5
2051.998	194.5
2056.114	192.5
2060.226	191.5
2064.334	194.5
2068.439	195.5
2072.54	204.5
2076.637	192.5
2080.73	194.5
2084.82	193.5
2088.906	189.5
2092.988	192.5
2097.066	195.5
2101.14	203.5
2105.211	190.5
2109.278	185.5
2113.342	185.5
2117.401	179.5
2121.457	163.5
2125.509	167.5
2129.558	184.5
2133.602	170.5
2137.643	178.5
2141.681	173.5
2145.714	176.5
2149.744	174.5
2153.77	173.5
2157.793	159.5
2161.812	144.5
2165.827	146.5
2169.838	177.5
2173.846	149.5
2177.851	149.5
2181.851	167.5
2185.848	152.5
2189.841	155.5
2193.831	142.5
2197.817	149.5
2201.799	145.5
2205.778	128.5
2209.753	136.5
2213.725	132.5
2217.693	139.5
2221.657	126.5
2225.618	144.5
2229.575	137.5
2233.529	141.5
2237.479	137.5
2241.425	133.5
2245.368	123.5
2249.307	139.5
2253.243	127.5
2257.175	133.5
2261.104	120.5
2265.029	123.5
2268.95	127.5
2272.868	112.5
2276.783	109.5
2280.694	122.5
2284.601	113.5
2288.505	114.5
2292.405	123.5
2296.302	99.5
2300.195	107.5
2304.085	81.5
2307.971	99.5
2311.854	86.5
2315.734	93.5
2319.609	109.5
2323.482	79.5
2327.351	92.5
2331.216	91.5
2335.078	99.5
2338.937	97.5
2342.792	87.5
2346.643	94.5
2350.492	94.5
2354.336	89.5
2358.178	93.5
2362.015	97.5
2365.85	87.5
2369.681	89.5
2373.508	91.5
2377.333	101.5
2381.153	91.5
2384.971	85.5
2388.785	95.5
2392.595	86.5
2396.402	86.5
2400.206	56.5
2404.007	75.5
2407.804	87.5
2411.597	86.5
2415.388	82.5
2419.174	82.5
2422.958	82.5
2426.738	82.5
2430.515	82.5
2434.289	72.5
2438.059	74.5
2441.825	75.5
2445.589	79.5
2449.349	62.5
2453.106	75.5
2456.859	72.5
2460.61	70.5
2464.356	61.5
2468.1	62.5
2471.84	63.5
2475.577	66.5
2479.311	59.5
2483.041	65.5
2486.768	73.5
2490.492	77.5
2494.213	64.5
2497.93	56.5
2501.644	56.5
2505.355	61.5
2509.062	63.5
2512.766	58.5
2516.467	56.5
2520.165	65.5
2523.859	53.5
2527.551	79.5
2531.239	53.5
2534.923	66.5
2538.605	56.5
2542.283	60.5
2545.958	60.5
2549.63	64.5
2553.299	67.5
2556.964	53.5
2560.626	54.5
2564.285	52.5
2567.941	43.5
2571.594	44.5
2575.243	58.5
2578.89	47.5
2582.533	40.5
2586.173	53.5
2589.809	51.5
2593.443	30.5
2597.073	51.5
2600.701	50.5
2604.325	51.5
2607.946	35.5
2611.564	49.5
2615.178	48.5
2618.79	53.5
2622.398	42.5
2626.004	53.5
2629.606	48.5
2633.205	36.5
2636.801	48.5
2640.394	45.5
2643.983	46.5
2647.57	39.5
2651.153	41.5
2654.734	45.5
2658.311	20.5
2661.885	33.5
2665.456	35.5
2669.025	41.5
2672.589	39.5
2676.151	46.5
2679.71	39.5
2683.266	33.5
2686.819	25.5
2690.368	38.5
2693.915	42.5
2697.458	35.5
2700.999	42.5
2704.536	41.5
2708.071	32.5
2711.602	38.5
2715.13	31.5
2718.656	17.5
2722.178	32.5
2725.697	20.5
2729.214	24.5
2732.727	25.5
2736.237	10.5
2739.744	22.5
2743.249	18.5
2746.75	25.5
2750.248	14.5
2753.743	21.5
2757.236	22.5
2760.725	30.5
2764.211	0.5
2767.695	25.5
2771.175	24.5
2774.652	25.5
2778.127	17.5
2781.598	21.5
2785.067	23.5
2788.532	12.5
2791.995	29.5
2795.455	16.5
2798.911	29.5
2802.365	17.5
2805.816	26.5
2809.264	28.5
2812.709	20.5
2816.151	27.5
2819.59	16.5
2823.026	19.5
2826.46	22.5
2829.89	35.5
2833.318	1.5
2836.742	24.5
2840.164	23.5
2843.583	25.5
2846.999	18.5
2850.412	24.5
2853.822	18.5
2857.229	35.5
2860.634	27.5
2864.035	11.5
2867.434	27.5
2870.83	30.5
2874.223	18.5
2877.613	26.5
2881	19.5
2884.385	22.5
2887.766	17.5
2891.145	24.5
2894.521	20.5
2897.894	9.5
2901.264	23.5
2904.631	28.5
2907.996	26.5
2911.358	33.5
2914.717	35.5
2918.073	25.5
2921.426	24.5
2924.777	5.5
2928.124	24.5
2931.469	40.5
2934.811	16.5
2938.15	49.5
2941.487	31.5
2944.821	49.5
2948.152	35.5
2951.48	43.5
2954.805	23.5
2958.128	45.5
2961.447	31.5
2964.765	44.5
2968.079	39.5
2971.39	39.5
2974.699	39.5
2978.005	39.5
2981.308	37.5
2984.609	30.5
2987.907	46.5
2991.202	46.5
2994.494	31.5
2997.784	38.5
3001.07	41.5
3004.355	36.5
3007.636	45.5
3010.915	48.5
3014.191	41.5
3017.464	44.5
3020.734	38.5
3024.002	46.5
3027.267	44.5
3030.53	46.5
3033.789	44.5
3037.046	47.5
3040.301	42.5
3043.552	54.5
3046.801	50.5
3050.048	64.5
3053.291	72.5
3056.532	57.5
3059.771	45.5
3063.006	64.5
3066.239	67.5
3069.469	70.5
3072.697	60.5
3075.922	64.5
3079.144	68.5
3082.364	90.5
3085.581	76.5
3088.795	91.5
3092.007	87.5
3095.216	92.5
3098.423	87.5
3101.627	57.5
3104.828	92.5
3108.026	83.5
3111.222	105.5
3114.416	107.5
3117.607	104.5
3120.795	99.5
3123.98	101.5
3127.163	98.5
3130.344	104.5
3133.521	100.5
3136.696	119.5
3139.869	115.5
3143.039	100.5
3146.206	129.5
3149.371	127.5
3152.533	127.5
3155.693	109.5
3158.85	129.5
3162.005	125.5
3165.157	123.5
3168.306	125.5
3171.453	136.5
3174.597	118.5
3177.739	118.5
3180.878	127.5
3184.014	127.5
3187.149	130.5
3190.28	128.5
3193.409	139.5
3196.536	135.5
3199.659	144.5
3202.781	137.5
3205.9	124.5
3209.016	139.5
3212.13	130.5
3215.241	133.5
3218.35	125.5
3221.456	125.5
3224.56	118.5
3227.661	123.5
3230.76	118.5
3233.856	124.5
3236.95	128.5
3240.041	113.5
3243.13	124.5
3246.216	125.5
3249.3	122.5
3252.382	120.5
3255.46	115.5
3258.537	62.5
3261.611	107.5
3264.682	113.5
3267.751	110.5
3270.818	104.5
3273.882	117.5
3276.943	105.5
3280.002	124.5
3283.059	105.5
3286.113	102.5
3289.165	97.5
3292.214	95.5
3295.261	112.5
3298.306	88.5
3301.348	102.5
3304.387	94.5
3307.425	106.5
3310.459	95.5
3313.492	108.5
3316.521	96.5
3319.549	106.5
3322.574	102.5
3325.597	95.5
3328.617	89.5
3331.635	97.5
3334.65	75.5
3337.663	96.5
3340.674	86.5
3343.682	97.5
3346.688	92.5
3349.691	79.5
3352.692	92.5
3355.691	94.5
3358.687	86.5
3361.681	93.5
3364.673	79.5
3367.662	88.5
3370.649	90.5
3373.633	71.5
3376.615	82.5
3379.595	65.5
3382.572	79.5
3385.547	67.5
3388.52	71.5
3391.49	67.5
3394.458	74.5
3397.424	74.5
3400.387	57.5
3403.348	72.5
3406.307	70.5
3409.263	67.5
3412.217	66.5
3415.168	67.5
3418.118	79.5
3421.065	63.5
3424.009	71.5
3426.951	62.5
3429.891	60.5
3432.829	59.5
3435.764	60.5
3438.697	58.5
3441.628	61.5
3444.557	48.5
3447.483	46.5
3450.407	56.5
3453.328	46.5
3456.247	43.5
3459.164	39.5
3462.079	52.5
3464.991	46.5
3467.902	36.5
3470.809	41.5
3473.715	41.5
3476.618	23.5
3479.519	30.5
3482.418	7.5
3485.315	27.5
3488.209	26.5
3491.101	21.5
3493.99	11.5
3496.878	16.5
3499.763	21.5
3502.646	18.5
3505.527	7.5
3508.405	15.5
3511.281	-2.5
3514.155	14.5
3517.027	5.5
3519.897	1.5
3522.764	15.5
3525.629	-9.5
3528.492	2.5
3531.352	3.5
3534.211	4.5
3537.067	-0.5
3539.921	2.5
3542.773	9.5
3545.622	-11.5
3548.469	-8.5
3551.315	-15.5
3554.157	-7.5
3556.998	-17.5
3559.837	-3.5
3562.673	-5.5
3565.507	-16.5
3568.339	-26.5
3571.169	-18.5
3573.996	-14.5
3576.822	-29.5
3579.645	-26.5
3582.466	-21.5
3585.285	-15.5
3588.101	-21.5
3590.916	-20.5
3593.728	-14.5
3596.538	-23.5
3599.346	-22.5
3602.152	-25.5
3604.956	-21.5
3607.757	-13.5
3610.556	-30.5
3613.354	-18.5
3616.149	-21.5
3618.942	-16.5
3621.732	-17.5
3624.521	-30.5
3627.307	-36.5
3630.092	-30.5
3632.874	-12.5
3635.654	-22.5
3638.432	-26.5
3641.208	-28.5
3643.982	-23.5
3646.753	-20.5
3649.523	-46.5
3652.29	-34.5
3655.055	-21.5
3657.818	-27.5
3660.579	-29.5
3663.338	-38.5
3666.095	-36.5
3668.849	-56.5
3671.602	-24.5
3674.352	-43.5
3677.101	-20.5
3679.847	-20.5
3682.591	-37.5
3685.333	-42.5
3688.073	-29.5
3690.811	-39.5
3693.547	-41.5
3696.281	-44.5
3699.013	-32.5
3701.742	-34.5
3704.47	-44.5
3707.195	-28.5
3709.919	-28.5
3712.64	-32.5
3715.359	-41.5
3718.076	-19.5
3720.792	-33.5
3723.505	-25.5
3726.216	-21.5
3728.925	-33.5
3731.632	-37.5
3734.336	-32.5
3737.039	-29.5
3739.74	-31.5
3742.439	-55.5
3745.136	-25.5
3747.83	-26.5
3750.523	-27.5
3753.213	-91.5
3755.902	-35.5
3758.589	-47.5
3761.273	-37.5
3763.956	-29.5
3766.636	-51.5
3769.315	-24.5
3771.991	-33.5
3774.665	-39.5
3777.338	-36.5
3780.008	-41.5
3782.677	-37.5
3785.343	-49.5
3788.007	-51.5
3790.67	-27.5
3793.33	-47.5
3795.989	-39.5
3798.645	-32.5
3801.299	-44.5
3803.952	-43.5
3806.602	-31.5
3809.251	-32.5
3811.897	-33.5
3814.542	-38.5
3817.184	-33.5
3819.825	-33.5
3822.463	-44.5
3825.1	-34.5
3827.735	-31.5
3830.367	-44.5
3832.998	-25.5
3835.627	-36.5
3838.253	-28.5
3840.878	-37.5
3843.501	-21.5
3846.122	-31.5
3848.741	-28.5
3851.358	-26.5
3853.973	-48.5
3856.586	-33.5
3859.197	-46.5
3861.806	-35.5
3864.414	-42.5
3867.019	-36.5
3869.622	-28.5
3872.224	-23.5
3874.823	-19.5
3877.421	0.5
3880.016	12.5
3882.61	52.5
3885.202	63.5
3887.792	39.5
3890.38	15.5
3892.966	-16.5
3895.55	-33.5
3898.132	-21.5
3900.713	-24.5
3903.291	-29.5
3905.868	-38.5
3908.442	-27.5
3911.015	-31.5
3913.586	-39.5
3916.155	-32.5
3918.722	-39.5
3921.287	-42.5
3923.85	-46.5
3926.411	-38.5
3928.971	-43.5
3931.528	-33.5
3934.084	-30.5
3936.638	-45.5
3939.19	-31.5
3941.74	-31.5
3944.288	-40.5
3946.834	-34.5
3949.378	-25.5
3951.921	-36.5
3954.462	-38.5
3957	-36.5
3959.537	-25.5
3962.072	-35.5
3964.606	-50.5
3967.137	-40.5
3969.667	-39.5
3972.194	-31.5
3974.72	-42.5
3977.244	-56.5
3979.766	-38.5
3982.286	-41.5
3984.805	-37.5
3987.321	-27.5
3989.836	-33.5
3992.349	-40.5
3994.86	-34.5
3997.369	-40.5
3999.877	-42.5
4002.382	-40.5
4004.886	-33.5
4007.388	-30.5
4009.888	-23.5
4012.386	-28.5
4014.883	-32.5
4017.377	-33.5
4019.87	-30.5
4022.361	-41.5
4024.85	-37.5
4027.338	-31.5
4029.823	-32.5
4032.307	-34.5
4034.789	-29.5
4037.269	-31.5
4039.747	-43.5
4042.224	-26.5
4044.699	-39.5
4047.172	-38.5
4049.643	-28.5
4052.112	-60.5
4054.58	-31.5
4057.046	-44.5
4059.51	-33.5
4061.972	-32.5
4064.432	-50.5
4066.891	-25.5
4069.348	-32.5
4071.803	-33.5
4074.256	-45.5
4076.708	-32.5
4079.158	-33.5
4081.606	-26.5
4084.052	-35.5
4086.497	-32.5
4088.939	-37.5
4091.38	-42.5
4093.819	-28.5
4096.257	-0.5
4098.693	-6.5
4101.127	-5.5
4103.559	-0.5
4105.989	53.5
4108.418	57.5
4110.845	42.5
4113.27	55.5
4115.694	54.5
4118.115	38.5
4120.535	-34.5
4122.954	-27.5
4125.37	-20.5
4127.785	-29.5
4130.198	-24.5
4132.609	-28.5
4135.019	9.5
4137.427	2.5
4139.833	2.5
4142.237	-1.5
