Data from 2018-3-6_conc=4_n=6_RamanShift_01.txt Node
Date: Tue Mar 06 14:06:19 GMT+02:00 2018
User: LAB3
Spectrometer: QEPB0276
Trigger mode: 0
Integration Time (sec): 3.000000E1
Scans to average: 1
Electric dark correction enabled: true
Nonlinearity correction enabled: false
Boxcar width: 0
XAxis mode: Raman Shifts
Number of Pixels in Spectrum: 1044
>>>>>Begin Spectral Data<<<<<
160.701	84.25
166.742	109.25
172.777	159.25
178.805	309.25
184.826	721.25
190.841	1443.25
196.849	2241.25
202.85	2876.25
208.845	3035.25
214.833	3011.25
220.815	2950.25
226.789	2937.25
232.758	2921.25
238.719	2923.25
244.674	2868.25
250.623	2837.25
256.565	2812.25
262.5	2753.25
268.429	2743.25
274.351	2701.25
280.267	2686.25
286.176	2691.25
292.079	2713.25
297.975	2672.25
303.865	2669.25
309.748	2687.25
315.625	2656.25
321.495	2680.25
327.359	2634.25
333.217	2645.25
339.068	2679.25
344.912	2674.25
350.751	2675.25
356.583	2680.25
362.408	2682.25
368.227	2704.25
374.04	2699.25
379.847	2713.25
385.647	2753.25
391.44	2744.25
397.228	2751.25
403.009	2755.25
408.784	2762.25
414.553	2803.25
420.315	2796.25
426.071	2786.25
431.821	2809.25
437.565	2805.25
443.302	2768.25
449.033	2762.25
454.758	2770.25
460.477	2702.25
466.189	2679.25
471.896	2685.25
477.596	2670.25
483.29	2627.25
488.978	2636.25
494.66	2611.25
500.335	2530.25
506.005	2431.25
511.668	2310.25
517.325	2209.25
522.977	2095.25
528.622	2043.25
534.261	1991.25
539.894	1943.25
545.521	1925.25
551.141	1891.25
556.756	1851.25
562.365	1848.25
567.968	1836.25
573.565	1835.25
579.155	1816.25
584.74	1810.25
590.319	1817.25
595.892	1800.25
601.459	1809.25
607.02	1793.25
612.575	1791.25
618.124	1774.25
623.667	1728.25
629.204	1713.25
634.735	1699.25
640.261	1666.25
645.781	1639.25
651.294	1639.25
656.802	1623.25
662.304	1651.25
667.8	1635.25
673.29	1625.25
678.775	1630.25
684.254	1623.25
689.726	1609.25
695.193	1617.25
700.655	1582.25
706.11	1580.25
711.56	1583.25
717.004	1575.25
722.442	1549.25
727.874	1550.25
733.301	1572.25
738.722	1527.25
744.137	1532.25
749.547	1519.25
754.951	1521.25
760.349	1524.25
765.741	1544.25
771.128	1576.25
776.509	1565.25
781.885	1602.25
787.254	1618.25
792.618	1622.25
797.977	1626.25
803.33	1604.25
808.677	1590.25
814.019	1565.25
819.355	1562.25
824.686	1543.25
830.011	1541.25
835.33	1538.25
840.644	1522.25
845.952	1508.25
851.255	1501.25
856.552	1487.25
861.844	1466.25
867.13	1441.25
872.41	1438.25
877.686	1425.25
882.955	1413.25
888.219	1392.25
893.478	1374.25
898.731	1358.25
903.979	1371.25
909.221	1346.25
914.458	1323.25
919.69	1339.25
924.916	1331.25
930.136	1340.25
935.351	1325.25
940.561	1342.25
945.766	1306.25
950.965	1323.25
956.158	1304.25
961.347	1293.25
966.529	1283.25
971.707	1270.25
976.879	1264.25
982.046	1244.25
987.208	1242.25
992.364	1245.25
997.515	1243.25
1002.66	1243.25
1007.801	1257.25
1012.936	1258.25
1018.066	1247.25
1023.19	1258.25
1028.309	1290.25
1033.423	1269.25
1038.532	1279.25
1043.636	1262.25
1048.734	1262.25
1053.827	1241.25
1058.915	1229.25
1063.998	1217.25
1069.075	1219.25
1074.147	1235.25
1079.214	1204.25
1084.276	1232.25
1089.333	1214.25
1094.385	1235.25
1099.431	1217.25
1104.472	1223.25
1109.509	1203.25
1114.54	1201.25
1119.565	1164.25
1124.586	1170.25
1129.602	1131.25
1134.613	1118.25
1139.618	1119.25
1144.619	1120.25
1149.614	1120.25
1154.604	1118.25
1159.589	1124.25
1164.57	1161.25
1169.545	1156.25
1174.515	1148.25
1179.48	1135.25
1184.44	1150.25
1189.395	1147.25
1194.345	1110.25
1199.29	1100.25
1204.23	1094.25
1209.165	1102.25
1214.095	1116.25
1219.021	1108.25
1223.941	1093.25
1228.856	1126.25
1233.766	1118.25
1238.672	1138.25
1243.572	1126.25
1248.467	1119.25
1253.358	1094.25
1258.244	1083.25
1263.124	1074.25
1268	1065.25
1272.871	1018.25
1277.737	1025.25
1282.599	1025.25
1287.455	1017.25
1292.306	1017.25
1297.153	998.25
1301.995	1017.25
1306.832	1027.25
1311.664	1018.25
1316.491	1024.25
1321.314	1017.25
1326.132	1006.25
1330.945	1003.25
1335.753	985.25
1340.556	950.25
1345.354	949.25
1350.148	940.25
1354.937	926.25
1359.722	887.25
1364.501	910.25
1369.276	902.25
1374.046	910.25
1378.811	896.25
1383.572	905.25
1388.327	901.25
1393.079	870.25
1397.825	871.25
1402.567	882.25
1407.304	868.25
1412.036	867.25
1416.764	879.25
1421.487	853.25
1426.205	862.25
1430.919	846.25
1435.628	865.25
1440.333	850.25
1445.032	867.25
1449.727	881.25
1454.418	895.25
1459.104	882.25
1463.785	855.25
1468.462	844.25
1473.134	837.25
1477.802	825.25
1482.465	791.25
1487.123	807.25
1491.777	776.25
1496.426	772.25
1501.071	788.25
1505.711	785.25
1510.347	794.25
1514.978	810.25
1519.604	796.25
1524.226	813.25
1528.844	790.25
1533.457	805.25
1538.065	796.25
1542.669	782.25
1547.269	776.25
1551.864	783.25
1556.454	774.25
1561.041	769.25
1565.622	778.25
1570.199	789.25
1574.772	796.25
1579.34	802.25
1583.904	809.25
1588.464	815.25
1593.019	828.25
1597.569	808.25
1602.115	806.25
1606.657	801.25
1611.195	801.25
1615.728	821.25
1620.256	784.25
1624.78	775.25
1629.3	784.25
1633.816	796.25
1638.327	784.25
1642.834	815.25
1647.336	795.25
1651.834	818.25
1656.328	820.25
1660.817	802.25
1665.302	787.25
1669.783	778.25
1674.259	764.25
1678.732	746.25
1683.199	736.25
1687.663	698.25
1692.122	688.25
1696.577	673.25
1701.028	664.25
1705.474	640.25
1709.917	634.25
1714.355	626.25
1718.788	625.25
1723.218	603.25
1727.643	590.25
1732.064	591.25
1736.481	575.25
1740.893	583.25
1745.301	569.25
1749.705	540.25
1754.105	555.25
1758.501	529.25
1762.893	542.25
1767.28	497.25
1771.663	513.25
1776.042	502.25
1780.417	501.25
1784.787	497.25
1789.154	505.25
1793.516	509.25
1797.874	497.25
1802.228	471.25
1806.578	479.25
1810.924	493.25
1815.266	375.25
1819.603	494.25
1823.937	481.25
1828.266	475.25
1832.591	458.25
1836.913	465.25
1841.23	452.25
1845.543	452.25
1849.852	468.25
1854.156	463.25
1858.457	453.25
1862.754	455.25
1867.047	454.25
1871.335	464.25
1875.62	461.25
1879.9	461.25
1884.177	450.25
1888.449	456.25
1892.718	448.25
1896.982	455.25
1901.243	435.25
1905.499	429.25
1909.752	436.25
1914	408.25
1918.245	432.25
1922.485	437.25
1926.722	435.25
1930.954	425.25
1935.183	433.25
1939.408	438.25
1943.628	435.25
1947.845	421.25
1952.058	424.25
1956.267	403.25
1960.472	419.25
1964.673	412.25
1968.87	413.25
1973.063	398.25
1977.252	400.25
1981.438	394.25
1985.619	387.25
1989.797	381.25
1993.971	379.25
1998.14	390.25
2002.306	384.25
2006.469	389.25
2010.627	369.25
2014.781	364.25
2018.932	371.25
2023.078	395.25
2027.221	382.25
2031.36	355.25
2035.495	366.25
2039.627	362.25
2043.754	348.25
2047.878	350.25
2051.998	350.25
2056.114	346.25
2060.226	354.25
2064.334	352.25
2068.439	358.25
2072.54	359.25
2076.637	344.25
2080.73	352.25
2084.82	345.25
2088.906	341.25
2092.988	341.25
2097.066	357.25
2101.14	353.25
2105.211	343.25
2109.278	330.25
2113.342	331.25
2117.401	317.25
2121.457	314.25
2125.509	307.25
2129.558	323.25
2133.602	322.25
2137.643	312.25
2141.681	323.25
2145.714	313.25
2149.744	316.25
2153.77	316.25
2157.793	291.25
2161.812	277.25
2165.827	278.25
2169.838	303.25
2173.846	280.25
2177.851	279.25
2181.851	285.25
2185.848	275.25
2189.841	277.25
2193.831	287.25
2197.817	269.25
2201.799	271.25
2205.778	262.25
2209.753	258.25
2213.725	260.25
2217.693	267.25
2221.657	258.25
2225.618	262.25
2229.575	257.25
2233.529	254.25
2237.479	267.25
2241.425	247.25
2245.368	243.25
2249.307	245.25
2253.243	228.25
2257.175	240.25
2261.104	225.25
2265.029	237.25
2268.95	238.25
2272.868	229.25
2276.783	213.25
2280.694	224.25
2284.601	219.25
2288.505	211.25
2292.405	222.25
2296.302	198.25
2300.195	208.25
2304.085	183.25
2307.971	205.25
2311.854	181.25
2315.734	185.25
2319.609	196.25
2323.482	173.25
2327.351	180.25
2331.216	187.25
2335.078	187.25
2338.937	185.25
2342.792	174.25
2346.643	172.25
2350.492	185.25
2354.336	180.25
2358.178	189.25
2362.015	190.25
2365.85	171.25
2369.681	184.25
2373.508	183.25
2377.333	192.25
2381.153	183.25
2384.971	178.25
2388.785	182.25
2392.595	166.25
2396.402	172.25
2400.206	144.25
2404.007	163.25
2407.804	173.25
2411.597	172.25
2415.388	162.25
2419.174	161.25
2422.958	170.25
2426.738	163.25
2430.515	179.25
2434.289	152.25
2438.059	154.25
2441.825	156.25
2445.589	160.25
2449.349	137.25
2453.106	157.25
2456.859	157.25
2460.61	156.25
2464.356	149.25
2468.1	139.25
2471.84	133.25
2475.577	144.25
2479.311	139.25
2483.041	136.25
2486.768	157.25
2490.492	157.25
2494.213	138.25
2497.93	133.25
2501.644	122.25
2505.355	141.25
2509.062	144.25
2512.766	133.25
2516.467	130.25
2520.165	131.25
2523.859	118.25
2527.551	152.25
2531.239	121.25
2534.923	133.25
2538.605	125.25
2542.283	132.25
2545.958	123.25
2549.63	140.25
2553.299	141.25
2556.964	122.25
2560.626	129.25
2564.285	123.25
2567.941	107.25
2571.594	107.25
2575.243	119.25
2578.89	119.25
2582.533	118.25
2586.173	112.25
2589.809	116.25
2593.443	95.25
2597.073	113.25
2600.701	113.25
2604.325	107.25
2607.946	93.25
2611.564	115.25
2615.178	108.25
2618.79	113.25
2622.398	102.25
2626.004	109.25
2629.606	106.25
2633.205	96.25
2636.801	104.25
2640.394	103.25
2643.983	97.25
2647.57	94.25
2651.153	87.25
2654.734	99.25
2658.311	75.25
2661.885	87.25
2665.456	94.25
2669.025	89.25
2672.589	85.25
2676.151	102.25
2679.71	100.25
2683.266	88.25
2686.819	84.25
2690.368	89.25
2693.915	95.25
2697.458	87.25
2700.999	93.25
2704.536	89.25
2708.071	88.25
2711.602	82.25
2715.13	73.25
2718.656	61.25
2722.178	86.25
2725.697	67.25
2729.214	69.25
2732.727	78.25
2736.237	62.25
2739.744	73.25
2743.249	70.25
2746.75	74.25
2750.248	64.25
2753.743	76.25
2757.236	73.25
2760.725	72.25
2764.211	49.25
2767.695	79.25
2771.175	73.25
2774.652	72.25
2778.127	71.25
2781.598	63.25
2785.067	78.25
2788.532	55.25
2791.995	74.25
2795.455	55.25
2798.911	74.25
2802.365	64.25
2805.816	72.25
2809.264	82.25
2812.709	62.25
2816.151	71.25
2819.59	59.25
2823.026	60.25
2826.46	62.25
2829.89	82.25
2833.318	43.25
2836.742	63.25
2840.164	65.25
2843.583	72.25
2846.999	65.25
2850.412	76.25
2853.822	64.25
2857.229	71.25
2860.634	73.25
2864.035	59.25
2867.434	76.25
2870.83	76.25
2874.223	71.25
2877.613	76.25
2881	73.25
2884.385	68.25
2887.766	74.25
2891.145	79.25
2894.521	72.25
2897.894	63.25
2901.264	80.25
2904.631	77.25
2907.996	86.25
2911.358	91.25
2914.717	82.25
2918.073	79.25
2921.426	78.25
2924.777	65.25
2928.124	77.25
2931.469	96.25
2934.811	76.25
2938.15	104.25
2941.487	88.25
2944.821	110.25
2948.152	90.25
2951.48	95.25
2954.805	81.25
2958.128	105.25
2961.447	84.25
2964.765	105.25
2968.079	90.25
2971.39	96.25
2974.699	99.25
2978.005	93.25
2981.308	97.25
2984.609	88.25
2987.907	107.25
2991.202	109.25
2994.494	99.25
2997.784	104.25
3001.07	102.25
3004.355	97.25
3007.636	100.25
3010.915	103.25
3014.191	105.25
3017.464	112.25
3020.734	110.25
3024.002	112.25
3027.267	110.25
3030.53	122.25
3033.789	114.25
3037.046	115.25
3040.301	112.25
3043.552	123.25
3046.801	121.25
3050.048	142.25
3053.291	154.25
3056.532	137.25
3059.771	122.25
3063.006	149.25
3066.239	143.25
3069.469	153.25
3072.697	148.25
3075.922	153.25
3079.144	157.25
3082.364	180.25
3085.581	159.25
3088.795	179.25
3092.007	181.25
3095.216	194.25
3098.423	183.25
3101.627	157.25
3104.828	189.25
3108.026	189.25
3111.222	207.25
3114.416	218.25
3117.607	214.25
3120.795	214.25
3123.98	214.25
3127.163	205.25
3130.344	215.25
3133.521	217.25
3136.696	240.25
3139.869	243.25
3143.039	220.25
3146.206	255.25
3149.371	256.25
3152.533	250.25
3155.693	245.25
3158.85	252.25
3162.005	260.25
3165.157	251.25
3168.306	252.25
3171.453	262.25
3174.597	249.25
3177.739	246.25
3180.878	261.25
3184.014	266.25
3187.149	262.25
3190.28	256.25
3193.409	276.25
3196.536	267.25
3199.659	274.25
3202.781	273.25
3205.9	254.25
3209.016	270.25
3212.13	272.25
3215.241	261.25
3218.35	269.25
3221.456	255.25
3224.56	247.25
3227.661	252.25
3230.76	245.25
3233.856	247.25
3236.95	252.25
3240.041	239.25
3243.13	244.25
3246.216	234.25
3249.3	251.25
3252.382	241.25
3255.46	235.25
3258.537	186.25
3261.611	222.25
3264.682	233.25
3267.751	232.25
3270.818	229.25
3273.882	240.25
3276.943	234.25
3280.002	244.25
3283.059	223.25
3286.113	229.25
3289.165	217.25
3292.214	215.25
3295.261	232.25
3298.306	205.25
3301.348	211.25
3304.387	198.25
3307.425	219.25
3310.459	216.25
3313.492	213.25
3316.521	198.25
3319.549	207.25
3322.574	210.25
3325.597	201.25
3328.617	192.25
3331.635	196.25
3334.65	184.25
3337.663	203.25
3340.674	195.25
3343.682	196.25
3346.688	204.25
3349.691	179.25
3352.692	195.25
3355.691	194.25
3358.687	191.25
3361.681	198.25
3364.673	184.25
3367.662	194.25
3370.649	191.25
3373.633	173.25
3376.615	182.25
3379.595	164.25
3382.572	171.25
3385.547	166.25
3388.52	170.25
3391.49	156.25
3394.458	171.25
3397.424	160.25
3400.387	152.25
3403.348	166.25
3406.307	150.25
3409.263	157.25
3412.217	155.25
3415.168	157.25
3418.118	165.25
3421.065	143.25
3424.009	156.25
3426.951	140.25
3429.891	139.25
3432.829	136.25
3435.764	142.25
3438.697	132.25
3441.628	141.25
3444.557	121.25
3447.483	120.25
3450.407	123.25
3453.328	113.25
3456.247	111.25
3459.164	108.25
3462.079	114.25
3464.991	99.25
3467.902	96.25
3470.809	96.25
3473.715	106.25
3476.618	86.25
3479.519	90.25
3482.418	67.25
3485.315	69.25
3488.209	76.25
3491.101	72.25
3493.99	61.25
3496.878	67.25
3499.763	66.25
3502.646	62.25
3505.527	60.25
3508.405	53.25
3511.281	44.25
3514.155	58.25
3517.027	51.25
3519.897	40.25
3522.764	45.25
3525.629	22.25
3528.492	35.25
3531.352	44.25
3534.211	38.25
3537.067	29.25
3539.921	27.25
3542.773	35.25
3545.622	20.25
3548.469	16.25
3551.315	16.25
3554.157	21.25
3556.998	8.25
3559.837	18.25
3562.673	18.25
3565.507	9.25
3568.339	10.25
3571.169	7.25
3573.996	9.25
3576.822	-4.75
3579.645	-4.75
3582.466	-1.75
3585.285	9.25
3588.101	1.25
3590.916	-3.75
3593.728	9.25
3596.538	-4.75
3599.346	-2.75
3602.152	-12.75
3604.956	-0.75
3607.757	1.25
3610.556	-13.75
3613.354	-0.75
3616.149	-7.75
3618.942	-4.75
3621.732	0.25
3624.521	-11.75
3627.307	-20.75
3630.092	-16.75
3632.874	1.25
3635.654	-5.75
3638.432	-16.75
3641.208	-17.75
3643.982	-18.75
3646.753	-7.75
3649.523	-41.75
3652.29	-22.75
3655.055	-10.75
3657.818	-16.75
3660.579	-18.75
3663.338	-30.75
3666.095	-19.75
3668.849	-45.75
3671.602	-11.75
3674.352	-30.75
3677.101	-14.75
3679.847	-17.75
3682.591	-32.75
3685.333	-37.75
3688.073	-22.75
3690.811	-34.75
3693.547	-36.75
3696.281	-37.75
3699.013	-25.75
3701.742	-25.75
3704.47	-33.75
3707.195	-22.75
3709.919	-21.75
3712.64	-28.75
3715.359	-45.75
3718.076	-20.75
3720.792	-31.75
3723.505	-23.75
3726.216	-19.75
3728.925	-29.75
3731.632	-38.75
3734.336	-30.75
3737.039	-27.75
3739.74	-22.75
3742.439	-54.75
3745.136	-23.75
3747.83	-23.75
3750.523	-28.75
3753.213	-96.75
3755.902	-29.75
3758.589	-44.75
3761.273	-30.75
3763.956	-22.75
3766.636	-44.75
3769.315	-20.75
3771.991	-30.75
3774.665	-33.75
3777.338	-31.75
3780.008	-42.75
3782.677	-29.75
3785.343	-43.75
3788.007	-50.75
3790.67	-24.75
3793.33	-43.75
3795.989	-36.75
3798.645	-29.75
3801.299	-46.75
3803.952	-40.75
3806.602	-36.75
3809.251	-25.75
3811.897	-30.75
3814.542	-34.75
3817.184	-38.75
3819.825	-33.75
3822.463	-41.75
3825.1	-37.75
3827.735	-36.75
3830.367	-41.75
3832.998	-21.75
3835.627	-35.75
3838.253	-23.75
3840.878	-36.75
3843.501	-18.75
3846.122	-27.75
3848.741	-23.75
3851.358	-26.75
3853.973	-41.75
3856.586	-22.75
3859.197	-42.75
3861.806	-29.75
3864.414	-46.75
3867.019	-36.75
3869.622	-29.75
3872.224	-21.75
3874.823	-13.75
3877.421	10.25
3880.016	23.25
3882.61	61.25
3885.202	73.25
3887.792	53.25
3890.38	18.25
3892.966	-8.75
3895.55	-34.75
3898.132	-21.75
3900.713	-22.75
3903.291	-34.75
3905.868	-42.75
3908.442	-27.75
3911.015	-34.75
3913.586	-34.75
3916.155	-35.75
3918.722	-39.75
3921.287	-35.75
3923.85	-49.75
3926.411	-37.75
3928.971	-37.75
3931.528	-29.75
3934.084	-35.75
3936.638	-44.75
3939.19	-31.75
3941.74	-31.75
3944.288	-36.75
3946.834	-32.75
3949.378	-25.75
3951.921	-41.75
3954.462	-37.75
3957	-32.75
3959.537	-23.75
3962.072	-33.75
3964.606	-46.75
3967.137	-34.75
3969.667	-38.75
3972.194	-31.75
3974.72	-38.75
3977.244	-56.75
3979.766	-40.75
3982.286	-43.75
3984.805	-31.75
3987.321	-27.75
3989.836	-31.75
3992.349	-42.75
3994.86	-38.75
3997.369	-37.75
3999.877	-37.75
4002.382	-34.75
4004.886	-29.75
4007.388	-31.75
4009.888	-25.75
4012.386	-32.75
4014.883	-33.75
4017.377	-34.75
4019.87	-27.75
4022.361	-44.75
4024.85	-34.75
4027.338	-33.75
4029.823	-35.75
4032.307	-36.75
4034.789	-32.75
4037.269	-31.75
4039.747	-46.75
4042.224	-23.75
4044.699	-41.75
4047.172	-32.75
4049.643	-32.75
4052.112	-59.75
4054.58	-29.75
4057.046	-48.75
4059.51	-35.75
4061.972	-32.75
4064.432	-54.75
4066.891	-22.75
4069.348	-31.75
4071.803	-33.75
4074.256	-37.75
4076.708	-29.75
4079.158	-31.75
4081.606	-22.75
4084.052	-31.75
4086.497	-27.75
4088.939	-28.75
4091.38	-36.75
4093.819	-25.75
4096.257	2.25
4098.693	-5.75
4101.127	-5.75
4103.559	1.25
4105.989	86.25
4108.418	89.25
4110.845	71.25
4113.27	76.25
4115.694	85.25
4118.115	74.25
4120.535	-32.75
4122.954	-26.75
4125.37	-19.75
4127.785	-28.75
4130.198	-23.75
4132.609	-27.75
4135.019	9.25
4137.427	-0.75
4139.833	3.25
4142.237	-3.75
