Data from 2018-3-6_conc=3_n=4_RamanShift_04.txt Node
Date: Tue Mar 06 13:24:49 GMT+02:00 2018
User: LAB3
Spectrometer: QEPB0276
Trigger mode: 0
Integration Time (sec): 3.000000E1
Scans to average: 1
Electric dark correction enabled: true
Nonlinearity correction enabled: false
Boxcar width: 0
XAxis mode: Raman Shifts
Number of Pixels in Spectrum: 1044
>>>>>Begin Spectral Data<<<<<
160.701	123.62
166.742	162.62
172.777	242.62
178.805	482.62
184.826	1098.62
190.841	2167.62
196.849	3464.62
202.85	4467.62
208.845	4785.62
214.833	4797.62
220.815	4765.62
226.789	4771.62
232.758	4807.62
238.719	4836.62
244.674	4802.62
250.623	4793.62
256.565	4768.62
262.5	4710.62
268.429	4695.62
274.351	4663.62
280.267	4659.62
286.176	4682.62
292.079	4700.62
297.975	4702.62
303.865	4722.62
309.748	4705.62
315.625	4732.62
321.495	4745.62
327.359	4734.62
333.217	4742.62
339.068	4804.62
344.912	4818.62
350.751	4843.62
356.583	4869.62
362.408	4874.62
368.227	4883.62
374.04	4918.62
379.847	4925.62
385.647	4947.62
391.44	4966.62
397.228	5004.62
403.009	5017.62
408.784	5034.62
414.553	5094.62
420.315	5105.62
426.071	5092.62
431.821	5092.62
437.565	5099.62
443.302	5075.62
449.033	5080.62
454.758	5061.62
460.477	4989.62
466.189	4924.62
471.896	4907.62
477.596	4875.62
483.29	4843.62
488.978	4830.62
494.66	4780.62
500.335	4661.62
506.005	4457.62
511.668	4256.62
517.325	4032.62
522.977	3881.62
528.622	3749.62
534.261	3666.62
539.894	3559.62
545.521	3528.62
551.141	3480.62
556.756	3453.62
562.365	3405.62
567.968	3404.62
573.565	3360.62
579.155	3349.62
584.74	3323.62
590.319	3330.62
595.892	3289.62
601.459	3318.62
607.02	3306.62
612.575	3280.62
618.124	3234.62
623.667	3180.62
629.204	3143.62
634.735	3122.62
640.261	3067.62
645.781	3019.62
651.294	3010.62
656.802	3017.62
662.304	3023.62
667.8	3003.62
673.29	2999.62
678.775	2985.62
684.254	2957.62
689.726	2955.62
695.193	2951.62
700.655	2926.62
706.11	2905.62
711.56	2897.62
717.004	2902.62
722.442	2862.62
727.874	2868.62
733.301	2846.62
738.722	2835.62
744.137	2811.62
749.547	2817.62
754.951	2822.62
760.349	2827.62
765.741	2854.62
771.128	2884.62
776.509	2889.62
781.885	2973.62
787.254	2973.62
792.618	3001.62
797.977	2965.62
803.33	2985.62
808.677	2923.62
814.019	2906.62
819.355	2868.62
824.686	2863.62
830.011	2851.62
835.33	2842.62
840.644	2833.62
845.952	2776.62
851.255	2792.62
856.552	2753.62
861.844	2710.62
867.13	2673.62
872.41	2668.62
877.686	2616.62
882.955	2631.62
888.219	2593.62
893.478	2556.62
898.731	2532.62
903.979	2511.62
909.221	2483.62
914.458	2455.62
919.69	2453.62
924.916	2448.62
930.136	2455.62
935.351	2469.62
940.561	2488.62
945.766	2464.62
950.965	2447.62
956.158	2431.62
961.347	2390.62
966.529	2362.62
971.707	2333.62
976.879	2312.62
982.046	2298.62
987.208	2276.62
992.364	2271.62
997.515	2281.62
1002.66	2306.62
1007.801	2310.62
1012.936	2324.62
1018.066	2325.62
1023.19	2365.62
1028.309	2359.62
1033.423	2364.62
1038.532	2383.62
1043.636	2351.62
1048.734	2328.62
1053.827	2294.62
1058.915	2277.62
1063.998	2287.62
1069.075	2266.62
1074.147	2253.62
1079.214	2257.62
1084.276	2276.62
1089.333	2273.62
1094.385	2285.62
1099.431	2266.62
1104.472	2255.62
1109.509	2237.62
1114.54	2210.62
1119.565	2172.62
1124.586	2158.62
1129.602	2122.62
1134.613	2094.62
1139.618	2110.62
1144.619	2092.62
1149.614	2119.62
1154.604	2078.62
1159.589	2121.62
1164.57	2125.62
1169.545	2129.62
1174.515	2128.62
1179.48	2102.62
1184.44	2112.62
1189.395	2115.62
1194.345	2074.62
1199.29	2058.62
1204.23	2042.62
1209.165	2018.62
1214.095	2075.62
1219.021	2073.62
1223.941	2066.62
1228.856	2084.62
1233.766	2091.62
1238.672	2102.62
1243.572	2085.62
1248.467	2083.62
1253.358	2059.62
1258.244	2008.62
1263.124	1993.62
1268	1960.62
1272.871	1922.62
1277.737	1895.62
1282.599	1884.62
1287.455	1894.62
1292.306	1894.62
1297.153	1907.62
1301.995	1904.62
1306.832	1904.62
1311.664	1923.62
1316.491	1904.62
1321.314	1904.62
1326.132	1881.62
1330.945	1853.62
1335.753	1829.62
1340.556	1814.62
1345.354	1774.62
1350.148	1758.62
1354.937	1753.62
1359.722	1705.62
1364.501	1703.62
1369.276	1718.62
1374.046	1727.62
1378.811	1689.62
1383.572	1686.62
1388.327	1692.62
1393.079	1680.62
1397.825	1656.62
1402.567	1646.62
1407.304	1634.62
1412.036	1634.62
1416.764	1627.62
1421.487	1612.62
1426.205	1616.62
1430.919	1627.62
1435.628	1638.62
1440.333	1638.62
1445.032	1635.62
1449.727	1658.62
1454.418	1668.62
1459.104	1651.62
1463.785	1629.62
1468.462	1625.62
1473.134	1597.62
1477.802	1576.62
1482.465	1532.62
1487.123	1528.62
1491.777	1510.62
1496.426	1516.62
1501.071	1533.62
1505.711	1526.62
1510.347	1553.62
1514.978	1548.62
1519.604	1538.62
1524.226	1549.62
1528.844	1526.62
1533.457	1555.62
1538.065	1515.62
1542.669	1512.62
1547.269	1501.62
1551.864	1485.62
1556.454	1472.62
1561.041	1482.62
1565.622	1480.62
1570.199	1494.62
1574.772	1516.62
1579.34	1521.62
1583.904	1543.62
1588.464	1523.62
1593.019	1546.62
1597.569	1523.62
1602.115	1519.62
1606.657	1509.62
1611.195	1530.62
1615.728	1517.62
1620.256	1491.62
1624.78	1492.62
1629.3	1482.62
1633.816	1512.62
1638.327	1504.62
1642.834	1514.62
1647.336	1518.62
1651.834	1550.62
1656.328	1532.62
1660.817	1516.62
1665.302	1523.62
1669.783	1500.62
1674.259	1472.62
1678.732	1445.62
1683.199	1414.62
1687.663	1381.62
1692.122	1363.62
1696.577	1320.62
1701.028	1304.62
1705.474	1276.62
1709.917	1260.62
1714.355	1252.62
1718.788	1224.62
1723.218	1219.62
1727.643	1193.62
1732.064	1190.62
1736.481	1156.62
1740.893	1149.62
1745.301	1123.62
1749.705	1087.62
1754.105	1087.62
1758.501	1046.62
1762.893	1051.62
1767.28	1001.62
1771.663	1022.62
1776.042	997.62
1780.417	996.62
1784.787	999.62
1789.154	1011.62
1793.516	998.62
1797.874	1012.62
1802.228	1011.62
1806.578	993.62
1810.924	991.62
1815.266	862.62
1819.603	976.62
1823.937	947.62
1828.266	944.62
1832.591	934.62
1836.913	921.62
1841.23	912.62
1845.543	907.62
1849.852	919.62
1854.156	914.62
1858.457	911.62
1862.754	900.62
1867.047	919.62
1871.335	927.62
1875.62	933.62
1879.9	924.62
1884.177	913.62
1888.449	916.62
1892.718	903.62
1896.982	901.62
1901.243	878.62
1905.499	876.62
1909.752	879.62
1914	871.62
1918.245	904.62
1922.485	896.62
1926.722	891.62
1930.954	899.62
1935.183	892.62
1939.408	907.62
1943.628	897.62
1947.845	883.62
1952.058	863.62
1956.267	853.62
1960.472	858.62
1964.673	847.62
1968.87	831.62
1973.063	811.62
1977.252	807.62
1981.438	802.62
1985.619	783.62
1989.797	780.62
1993.971	769.62
1998.14	793.62
2002.306	782.62
2006.469	775.62
2010.627	758.62
2014.781	753.62
2018.932	742.62
2023.078	771.62
2027.221	748.62
2031.36	734.62
2035.495	726.62
2039.627	731.62
2043.754	723.62
2047.878	725.62
2051.998	705.62
2056.114	716.62
2060.226	708.62
2064.334	730.62
2068.439	720.62
2072.54	718.62
2076.637	706.62
2080.73	716.62
2084.82	732.62
2088.906	716.62
2092.988	705.62
2097.066	719.62
2101.14	709.62
2105.211	714.62
2109.278	679.62
2113.342	674.62
2117.401	671.62
2121.457	663.62
2125.509	658.62
2129.558	657.62
2133.602	648.62
2137.643	642.62
2141.681	640.62
2145.714	657.62
2149.744	644.62
2153.77	628.62
2157.793	616.62
2161.812	587.62
2165.827	587.62
2169.838	603.62
2173.846	578.62
2177.851	572.62
2181.851	578.62
2185.848	569.62
2189.841	566.62
2193.831	551.62
2197.817	555.62
2201.799	542.62
2205.778	525.62
2209.753	529.62
2213.725	530.62
2217.693	539.62
2221.657	519.62
2225.618	535.62
2229.575	525.62
2233.529	525.62
2237.479	512.62
2241.425	503.62
2245.368	488.62
2249.307	501.62
2253.243	482.62
2257.175	481.62
2261.104	466.62
2265.029	477.62
2268.95	459.62
2272.868	457.62
2276.783	437.62
2280.694	443.62
2284.601	442.62
2288.505	437.62
2292.405	444.62
2296.302	405.62
2300.195	417.62
2304.085	380.62
2307.971	411.62
2311.854	384.62
2315.734	392.62
2319.609	402.62
2323.482	366.62
2327.351	375.62
2331.216	379.62
2335.078	377.62
2338.937	377.62
2342.792	361.62
2346.643	355.62
2350.492	360.62
2354.336	375.62
2358.178	374.62
2362.015	373.62
2365.85	366.62
2369.681	366.62
2373.508	363.62
2377.333	373.62
2381.153	368.62
2384.971	364.62
2388.785	370.62
2392.595	352.62
2396.402	351.62
2400.206	326.62
2404.007	351.62
2407.804	348.62
2411.597	348.62
2415.388	339.62
2419.174	329.62
2422.958	334.62
2426.738	337.62
2430.515	341.62
2434.289	328.62
2438.059	332.62
2441.825	320.62
2445.589	338.62
2449.349	315.62
2453.106	323.62
2456.859	323.62
2460.61	315.62
2464.356	302.62
2468.1	298.62
2471.84	304.62
2475.577	294.62
2479.311	302.62
2483.041	301.62
2486.768	303.62
2490.492	311.62
2494.213	302.62
2497.93	291.62
2501.644	289.62
2505.355	289.62
2509.062	293.62
2512.766	286.62
2516.467	282.62
2520.165	290.62
2523.859	277.62
2527.551	306.62
2531.239	274.62
2534.923	283.62
2538.605	283.62
2542.283	273.62
2545.958	277.62
2549.63	294.62
2553.299	287.62
2556.964	258.62
2560.626	267.62
2564.285	270.62
2567.941	254.62
2571.594	259.62
2575.243	258.62
2578.89	257.62
2582.533	261.62
2586.173	254.62
2589.809	254.62
2593.443	226.62
2597.073	241.62
2600.701	247.62
2604.325	241.62
2607.946	230.62
2611.564	244.62
2615.178	237.62
2618.79	238.62
2622.398	229.62
2626.004	238.62
2629.606	231.62
2633.205	216.62
2636.801	235.62
2640.394	224.62
2643.983	219.62
2647.57	222.62
2651.153	206.62
2654.734	216.62
2658.311	186.62
2661.885	205.62
2665.456	210.62
2669.025	205.62
2672.589	197.62
2676.151	215.62
2679.71	212.62
2683.266	197.62
2686.819	195.62
2690.368	195.62
2693.915	193.62
2697.458	195.62
2700.999	199.62
2704.536	189.62
2708.071	182.62
2711.602	185.62
2715.13	183.62
2718.656	161.62
2722.178	183.62
2725.697	160.62
2729.214	169.62
2732.727	179.62
2736.237	155.62
2739.744	168.62
2743.249	175.62
2746.75	171.62
2750.248	162.62
2753.743	175.62
2757.236	174.62
2760.725	181.62
2764.211	138.62
2767.695	171.62
2771.175	172.62
2774.652	163.62
2778.127	162.62
2781.598	160.62
2785.067	167.62
2788.532	149.62
2791.995	167.62
2795.455	156.62
2798.911	172.62
2802.365	155.62
2805.816	170.62
2809.264	174.62
2812.709	154.62
2816.151	166.62
2819.59	154.62
2823.026	162.62
2826.46	158.62
2829.89	178.62
2833.318	151.62
2836.742	164.62
2840.164	171.62
2843.583	165.62
2846.999	170.62
2850.412	168.62
2853.822	168.62
2857.229	181.62
2860.634	176.62
2864.035	159.62
2867.434	183.62
2870.83	177.62
2874.223	181.62
2877.613	184.62
2881	178.62
2884.385	181.62
2887.766	181.62
2891.145	180.62
2894.521	184.62
2897.894	169.62
2901.264	184.62
2904.631	186.62
2907.996	194.62
2911.358	200.62
2914.717	191.62
2918.073	193.62
2921.426	189.62
2924.777	182.62
2928.124	193.62
2931.469	207.62
2934.811	195.62
2938.15	217.62
2941.487	218.62
2944.821	222.62
2948.152	212.62
2951.48	220.62
2954.805	198.62
2958.128	219.62
2961.447	203.62
2964.765	232.62
2968.079	215.62
2971.39	216.62
2974.699	223.62
2978.005	219.62
2981.308	217.62
2984.609	216.62
2987.907	233.62
2991.202	244.62
2994.494	220.62
2997.784	231.62
3001.07	227.62
3004.355	233.62
3007.636	240.62
3010.915	243.62
3014.191	232.62
3017.464	242.62
3020.734	241.62
3024.002	241.62
3027.267	250.62
3030.53	248.62
3033.789	250.62
3037.046	264.62
3040.301	252.62
3043.552	273.62
3046.801	270.62
3050.048	283.62
3053.291	301.62
3056.532	292.62
3059.771	283.62
3063.006	301.62
3066.239	301.62
3069.469	324.62
3072.697	318.62
3075.922	320.62
3079.144	323.62
3082.364	353.62
3085.581	340.62
3088.795	361.62
3092.007	368.62
3095.216	371.62
3098.423	371.62
3101.627	364.62
3104.828	398.62
3108.026	387.62
3111.222	412.62
3114.416	426.62
3117.607	419.62
3120.795	422.62
3123.98	437.62
3127.163	435.62
3130.344	443.62
3133.521	443.62
3136.696	490.62
3139.869	487.62
3143.039	469.62
3146.206	511.62
3149.371	513.62
3152.533	512.62
3155.693	505.62
3158.85	519.62
3162.005	520.62
3165.157	519.62
3168.306	526.62
3171.453	532.62
3174.597	510.62
3177.739	518.62
3180.878	529.62
3184.014	533.62
3187.149	534.62
3190.28	531.62
3193.409	529.62
3196.536	551.62
3199.659	556.62
3202.781	543.62
3205.9	525.62
3209.016	529.62
3212.13	536.62
3215.241	531.62
3218.35	534.62
3221.456	526.62
3224.56	517.62
3227.661	521.62
3230.76	518.62
3233.856	506.62
3236.95	504.62
3240.041	494.62
3243.13	511.62
3246.216	498.62
3249.3	507.62
3252.382	501.62
3255.46	495.62
3258.537	452.62
3261.611	479.62
3264.682	483.62
3267.751	482.62
3270.818	480.62
3273.882	489.62
3276.943	481.62
3280.002	492.62
3283.059	474.62
3286.113	474.62
3289.165	452.62
3292.214	451.62
3295.261	472.62
3298.306	431.62
3301.348	440.62
3304.387	420.62
3307.425	430.62
3310.459	419.62
3313.492	424.62
3316.521	408.62
3319.549	424.62
3322.574	426.62
3325.597	412.62
3328.617	407.62
3331.635	398.62
3334.65	391.62
3337.663	394.62
3340.674	400.62
3343.682	390.62
3346.688	399.62
3349.691	391.62
3352.692	394.62
3355.691	392.62
3358.687	390.62
3361.681	386.62
3364.673	382.62
3367.662	378.62
3370.649	388.62
3373.633	363.62
3376.615	373.62
3379.595	348.62
3382.572	350.62
3385.547	351.62
3388.52	336.62
3391.49	342.62
3394.458	337.62
3397.424	332.62
3400.387	324.62
3403.348	331.62
3406.307	325.62
3409.263	319.62
3412.217	326.62
3415.168	319.62
3418.118	335.62
3421.065	310.62
3424.009	325.62
3426.951	297.62
3429.891	298.62
3432.829	293.62
3435.764	292.62
3438.697	281.62
3441.628	287.62
3444.557	263.62
3447.483	257.62
3450.407	265.62
3453.328	251.62
3456.247	240.62
3459.164	232.62
3462.079	250.62
3464.991	228.62
3467.902	224.62
3470.809	217.62
3473.715	221.62
3476.618	197.62
3479.519	202.62
3482.418	181.62
3485.315	183.62
3488.209	181.62
3491.101	179.62
3493.99	159.62
3496.878	164.62
3499.763	163.62
3502.646	164.62
3505.527	151.62
3508.405	139.62
3511.281	129.62
3514.155	141.62
3517.027	133.62
3519.897	122.62
3522.764	131.62
3525.629	104.62
3528.492	111.62
3531.352	115.62
3534.211	100.62
3537.067	98.62
3539.921	92.62
3542.773	93.62
3545.622	78.62
3548.469	70.62
3551.315	71.62
3554.157	78.62
3556.998	62.62
3559.837	62.62
3562.673	70.62
3565.507	53.62
3568.339	48.62
3571.169	61.62
3573.996	54.62
3576.822	32.62
3579.645	34.62
3582.466	43.62
3585.285	50.62
3588.101	36.62
3590.916	38.62
3593.728	43.62
3596.538	36.62
3599.346	33.62
3602.152	23.62
3604.956	27.62
3607.757	25.62
3610.556	10.62
3613.354	30.62
3616.149	22.62
3618.942	22.62
3621.732	27.62
3624.521	11.62
3627.307	0.62
3630.092	-0.38
3632.874	21.62
3635.654	8.62
3638.432	2.62
3641.208	0.62
3643.982	2.62
3646.753	11.62
3649.523	-20.38
3652.29	-5.38
3655.055	-2.38
3657.818	0.62
3660.579	-5.38
3663.338	-16.38
3666.095	-8.38
3668.849	-32.38
3671.602	-4.38
3674.352	-20.38
3677.101	-0.38
3679.847	-2.38
3682.591	-15.38
3685.333	-23.38
3688.073	-17.38
3690.811	-24.38
3693.547	-25.38
3696.281	-26.38
3699.013	-17.38
3701.742	-19.38
3704.47	-24.38
3707.195	-15.38
3709.919	-18.38
3712.64	-18.38
3715.359	-30.38
3718.076	-10.38
3720.792	-20.38
3723.505	-16.38
3726.216	-10.38
3728.925	-24.38
3731.632	-26.38
3734.336	-18.38
3737.039	-20.38
3739.74	-21.38
3742.439	-42.38
3745.136	-17.38
3747.83	-22.38
3750.523	-22.38
3753.213	-84.38
3755.902	-27.38
3758.589	-39.38
3761.273	-30.38
3763.956	-18.38
3766.636	-37.38
3769.315	-19.38
3771.991	-24.38
3774.665	-31.38
3777.338	-25.38
3780.008	-35.38
3782.677	-31.38
3785.343	-46.38
3788.007	-48.38
3790.67	-19.38
3793.33	-39.38
3795.989	-33.38
3798.645	-29.38
3801.299	-38.38
3803.952	-38.38
3806.602	-30.38
3809.251	-22.38
3811.897	-27.38
3814.542	-33.38
3817.184	-30.38
3819.825	-28.38
3822.463	-45.38
3825.1	-34.38
3827.735	-26.38
3830.367	-38.38
3832.998	-17.38
3835.627	-28.38
3838.253	-23.38
3840.878	-29.38
3843.501	-14.38
3846.122	-27.38
3848.741	-24.38
3851.358	-22.38
3853.973	-41.38
3856.586	-22.38
3859.197	-34.38
3861.806	-29.38
3864.414	-42.38
3867.019	-32.38
3869.622	-24.38
3872.224	-19.38
3874.823	-14.38
3877.421	16.62
3880.016	27.62
3882.61	63.62
3885.202	85.62
3887.792	53.62
3890.38	26.62
3892.966	-9.38
3895.55	-39.38
3898.132	-21.38
3900.713	-29.38
3903.291	-24.38
3905.868	-38.38
3908.442	-32.38
3911.015	-30.38
3913.586	-38.38
3916.155	-36.38
3918.722	-39.38
3921.287	-39.38
3923.85	-41.38
3926.411	-39.38
3928.971	-41.38
3931.528	-32.38
3934.084	-37.38
3936.638	-45.38
3939.19	-28.38
3941.74	-30.38
3944.288	-38.38
3946.834	-35.38
3949.378	-25.38
3951.921	-37.38
3954.462	-37.38
3957	-36.38
3959.537	-25.38
3962.072	-37.38
3964.606	-46.38
3967.137	-32.38
3969.667	-41.38
3972.194	-32.38
3974.72	-40.38
3977.244	-60.38
3979.766	-43.38
3982.286	-38.38
3984.805	-32.38
3987.321	-23.38
3989.836	-27.38
3992.349	-36.38
3994.86	-29.38
3997.369	-43.38
3999.877	-36.38
4002.382	-35.38
4004.886	-28.38
4007.388	-31.38
4009.888	-27.38
4012.386	-28.38
4014.883	-27.38
4017.377	-31.38
4019.87	-32.38
4022.361	-43.38
4024.85	-35.38
4027.338	-31.38
4029.823	-36.38
4032.307	-34.38
4034.789	-31.38
4037.269	-31.38
4039.747	-43.38
4042.224	-22.38
4044.699	-42.38
4047.172	-31.38
4049.643	-23.38
4052.112	-59.38
4054.58	-35.38
4057.046	-44.38
4059.51	-33.38
4061.972	-33.38
4064.432	-50.38
4066.891	-19.38
4069.348	-34.38
4071.803	-29.38
4074.256	-36.38
4076.708	-29.38
4079.158	-31.38
4081.606	-19.38
4084.052	-27.38
4086.497	-29.38
4088.939	-31.38
4091.38	-33.38
4093.819	-25.38
4096.257	-1.38
4098.693	-4.38
4101.127	-2.38
4103.559	1.62
4105.989	111.62
4108.418	113.62
4110.845	101.62
4113.27	113.62
4115.694	112.62
4118.115	109.62
4120.535	-23.38
4122.954	-28.38
4125.37	-20.38
4127.785	-28.38
4130.198	-20.38
4132.609	-22.38
4135.019	7.62
4137.427	-1.38
4139.833	3.62
4142.237	-3.38
