Data from 2018-3-6_conc=4_n=8_RamanShift_05.txt Node
Date: Tue Mar 06 14:14:48 GMT+02:00 2018
User: LAB3
Spectrometer: QEPB0276
Trigger mode: 0
Integration Time (sec): 3.000000E1
Scans to average: 1
Electric dark correction enabled: true
Nonlinearity correction enabled: false
Boxcar width: 0
XAxis mode: Raman Shifts
Number of Pixels in Spectrum: 1044
>>>>>Begin Spectral Data<<<<<
160.701	60.75
166.742	81.75
172.777	130.75
178.805	263.75
184.826	630.75
190.841	1240.75
196.849	1949.75
202.85	2474.75
208.845	2637.75
214.833	2621.75
220.815	2594.75
226.789	2560.75
232.758	2570.75
238.719	2549.75
244.674	2521.75
250.623	2490.75
256.565	2464.75
262.5	2438.75
268.429	2403.75
274.351	2391.75
280.267	2391.75
286.176	2362.75
292.079	2367.75
297.975	2366.75
303.865	2381.75
309.748	2363.75
315.625	2364.75
321.495	2371.75
327.359	2363.75
333.217	2374.75
339.068	2345.75
344.912	2384.75
350.751	2366.75
356.583	2366.75
362.408	2395.75
368.227	2401.75
374.04	2390.75
379.847	2407.75
385.647	2452.75
391.44	2417.75
397.228	2424.75
403.009	2441.75
408.784	2456.75
414.553	2459.75
420.315	2476.75
426.071	2467.75
431.821	2461.75
437.565	2492.75
443.302	2455.75
449.033	2433.75
454.758	2449.75
460.477	2408.75
466.189	2381.75
471.896	2377.75
477.596	2348.75
483.29	2325.75
488.978	2328.75
494.66	2288.75
500.335	2252.75
506.005	2161.75
511.668	2048.75
517.325	1938.75
522.977	1855.75
528.622	1796.75
534.261	1763.75
539.894	1727.75
545.521	1699.75
551.141	1679.75
556.756	1654.75
562.365	1648.75
567.968	1631.75
573.565	1601.75
579.155	1607.75
584.74	1597.75
590.319	1599.75
595.892	1604.75
601.459	1591.75
607.02	1598.75
612.575	1588.75
618.124	1585.75
623.667	1545.75
629.204	1516.75
634.735	1506.75
640.261	1465.75
645.781	1455.75
651.294	1460.75
656.802	1454.75
662.304	1464.75
667.8	1465.75
673.29	1448.75
678.775	1446.75
684.254	1437.75
689.726	1416.75
695.193	1428.75
700.655	1403.75
706.11	1384.75
711.56	1389.75
717.004	1391.75
722.442	1367.75
727.874	1382.75
733.301	1381.75
738.722	1348.75
744.137	1362.75
749.547	1357.75
754.951	1363.75
760.349	1352.75
765.741	1384.75
771.128	1382.75
776.509	1397.75
781.885	1407.75
787.254	1426.75
792.618	1454.75
797.977	1441.75
803.33	1424.75
808.677	1402.75
814.019	1411.75
819.355	1390.75
824.686	1371.75
830.011	1359.75
835.33	1365.75
840.644	1361.75
845.952	1334.75
851.255	1351.75
856.552	1327.75
861.844	1310.75
867.13	1284.75
872.41	1275.75
877.686	1274.75
882.955	1273.75
888.219	1243.75
893.478	1221.75
898.731	1219.75
903.979	1191.75
909.221	1189.75
914.458	1184.75
919.69	1182.75
924.916	1169.75
930.136	1187.75
935.351	1174.75
940.561	1178.75
945.766	1189.75
950.965	1183.75
956.158	1161.75
961.347	1144.75
966.529	1147.75
971.707	1133.75
976.879	1123.75
982.046	1109.75
987.208	1089.75
992.364	1098.75
997.515	1085.75
1002.66	1103.75
1007.801	1111.75
1012.936	1118.75
1018.066	1098.75
1023.19	1127.75
1028.309	1133.75
1033.423	1140.75
1038.532	1138.75
1043.636	1129.75
1048.734	1119.75
1053.827	1109.75
1058.915	1081.75
1063.998	1102.75
1069.075	1070.75
1074.147	1101.75
1079.214	1079.75
1084.276	1110.75
1089.333	1092.75
1094.385	1108.75
1099.431	1100.75
1104.472	1093.75
1109.509	1089.75
1114.54	1054.75
1119.565	1046.75
1124.586	1047.75
1129.602	1014.75
1134.613	994.75
1139.618	1002.75
1144.619	992.75
1149.614	991.75
1154.604	1007.75
1159.589	1002.75
1164.57	1012.75
1169.545	1037.75
1174.515	1035.75
1179.48	1005.75
1184.44	1005.75
1189.395	1016.75
1194.345	992.75
1199.29	986.75
1204.23	978.75
1209.165	983.75
1214.095	994.75
1219.021	989.75
1223.941	995.75
1228.856	986.75
1233.766	1003.75
1238.672	1022.75
1243.572	1003.75
1248.467	997.75
1253.358	960.75
1258.244	965.75
1263.124	962.75
1268	949.75
1272.871	904.75
1277.737	917.75
1282.599	896.75
1287.455	906.75
1292.306	894.75
1297.153	893.75
1301.995	910.75
1306.832	898.75
1311.664	914.75
1316.491	904.75
1321.314	914.75
1326.132	906.75
1330.945	904.75
1335.753	876.75
1340.556	862.75
1345.354	839.75
1350.148	838.75
1354.937	830.75
1359.722	800.75
1364.501	821.75
1369.276	812.75
1374.046	820.75
1378.811	809.75
1383.572	813.75
1388.327	823.75
1393.079	789.75
1397.825	783.75
1402.567	794.75
1407.304	778.75
1412.036	772.75
1416.764	768.75
1421.487	770.75
1426.205	770.75
1430.919	754.75
1435.628	768.75
1440.333	769.75
1445.032	788.75
1449.727	783.75
1454.418	786.75
1459.104	789.75
1463.785	771.75
1468.462	778.75
1473.134	756.75
1477.802	749.75
1482.465	711.75
1487.123	719.75
1491.777	701.75
1496.426	687.75
1501.071	714.75
1505.711	712.75
1510.347	721.75
1514.978	734.75
1519.604	718.75
1524.226	745.75
1528.844	708.75
1533.457	730.75
1538.065	707.75
1542.669	719.75
1547.269	721.75
1551.864	723.75
1556.454	689.75
1561.041	695.75
1565.622	704.75
1570.199	705.75
1574.772	708.75
1579.34	729.75
1583.904	725.75
1588.464	743.75
1593.019	733.75
1597.569	720.75
1602.115	719.75
1606.657	719.75
1611.195	730.75
1615.728	732.75
1620.256	699.75
1624.78	694.75
1629.3	697.75
1633.816	706.75
1638.327	702.75
1642.834	709.75
1647.336	711.75
1651.834	729.75
1656.328	711.75
1660.817	706.75
1665.302	702.75
1669.783	692.75
1674.259	684.75
1678.732	670.75
1683.199	655.75
1687.663	634.75
1692.122	632.75
1696.577	620.75
1701.028	610.75
1705.474	590.75
1709.917	579.75
1714.355	569.75
1718.788	576.75
1723.218	562.75
1727.643	555.75
1732.064	544.75
1736.481	530.75
1740.893	530.75
1745.301	519.75
1749.705	482.75
1754.105	505.75
1758.501	482.75
1762.893	497.75
1767.28	465.75
1771.663	465.75
1776.042	459.75
1780.417	448.75
1784.787	469.75
1789.154	460.75
1793.516	462.75
1797.874	456.75
1802.228	452.75
1806.578	450.75
1810.924	459.75
1815.266	331.75
1819.603	445.75
1823.937	428.75
1828.266	433.75
1832.591	436.75
1836.913	429.75
1841.23	423.75
1845.543	433.75
1849.852	430.75
1854.156	429.75
1858.457	416.75
1862.754	418.75
1867.047	420.75
1871.335	433.75
1875.62	429.75
1879.9	424.75
1884.177	422.75
1888.449	418.75
1892.718	420.75
1896.982	416.75
1901.243	396.75
1905.499	405.75
1909.752	396.75
1914	381.75
1918.245	408.75
1922.485	404.75
1926.722	393.75
1930.954	396.75
1935.183	399.75
1939.408	409.75
1943.628	404.75
1947.845	399.75
1952.058	403.75
1956.267	386.75
1960.472	386.75
1964.673	382.75
1968.87	381.75
1973.063	372.75
1977.252	367.75
1981.438	363.75
1985.619	366.75
1989.797	352.75
1993.971	356.75
1998.14	365.75
2002.306	353.75
2006.469	358.75
2010.627	347.75
2014.781	346.75
2018.932	351.75
2023.078	366.75
2027.221	348.75
2031.36	329.75
2035.495	330.75
2039.627	335.75
2043.754	333.75
2047.878	318.75
2051.998	316.75
2056.114	323.75
2060.226	321.75
2064.334	320.75
2068.439	336.75
2072.54	336.75
2076.637	316.75
2080.73	324.75
2084.82	314.75
2088.906	313.75
2092.988	310.75
2097.066	314.75
2101.14	331.75
2105.211	323.75
2109.278	303.75
2113.342	301.75
2117.401	292.75
2121.457	283.75
2125.509	287.75
2129.558	291.75
2133.602	287.75
2137.643	292.75
2141.681	291.75
2145.714	294.75
2149.744	289.75
2153.77	287.75
2157.793	274.75
2161.812	255.75
2165.827	255.75
2169.838	283.75
2173.846	258.75
2177.851	247.75
2181.851	266.75
2185.848	248.75
2189.841	258.75
2193.831	242.75
2197.817	249.75
2201.799	245.75
2205.778	234.75
2209.753	233.75
2213.725	229.75
2217.693	232.75
2221.657	225.75
2225.618	235.75
2229.575	237.75
2233.529	227.75
2237.479	234.75
2241.425	222.75
2245.368	211.75
2249.307	222.75
2253.243	210.75
2257.175	225.75
2261.104	211.75
2265.029	211.75
2268.95	212.75
2272.868	200.75
2276.783	194.75
2280.694	201.75
2284.601	202.75
2288.505	194.75
2292.405	191.75
2296.302	167.75
2300.195	186.75
2304.085	159.75
2307.971	188.75
2311.854	155.75
2315.734	172.75
2319.609	177.75
2323.482	161.75
2327.351	166.75
2331.216	159.75
2335.078	168.75
2338.937	170.75
2342.792	162.75
2346.643	157.75
2350.492	167.75
2354.336	162.75
2358.178	161.75
2362.015	165.75
2365.85	162.75
2369.681	168.75
2373.508	161.75
2377.333	169.75
2381.153	165.75
2384.971	155.75
2388.785	166.75
2392.595	149.75
2396.402	146.75
2400.206	128.75
2404.007	147.75
2407.804	148.75
2411.597	151.75
2415.388	141.75
2419.174	139.75
2422.958	149.75
2426.738	142.75
2430.515	144.75
2434.289	136.75
2438.059	129.75
2441.825	136.75
2445.589	153.75
2449.349	126.75
2453.106	138.75
2456.859	135.75
2460.61	139.75
2464.356	125.75
2468.1	115.75
2471.84	127.75
2475.577	123.75
2479.311	123.75
2483.041	125.75
2486.768	136.75
2490.492	136.75
2494.213	121.75
2497.93	119.75
2501.644	106.75
2505.355	127.75
2509.062	121.75
2512.766	121.75
2516.467	110.75
2520.165	120.75
2523.859	104.75
2527.551	134.75
2531.239	109.75
2534.923	114.75
2538.605	113.75
2542.283	117.75
2545.958	110.75
2549.63	123.75
2553.299	122.75
2556.964	103.75
2560.626	112.75
2564.285	109.75
2567.941	99.75
2571.594	89.75
2575.243	110.75
2578.89	98.75
2582.533	102.75
2586.173	101.75
2589.809	108.75
2593.443	80.75
2597.073	99.75
2600.701	103.75
2604.325	94.75
2607.946	85.75
2611.564	111.75
2615.178	98.75
2618.79	94.75
2622.398	84.75
2626.004	103.75
2629.606	96.75
2633.205	79.75
2636.801	92.75
2640.394	95.75
2643.983	85.75
2647.57	88.75
2651.153	82.75
2654.734	88.75
2658.311	63.75
2661.885	73.75
2665.456	75.75
2669.025	80.75
2672.589	76.75
2676.151	92.75
2679.71	89.75
2683.266	80.75
2686.819	71.75
2690.368	79.75
2693.915	82.75
2697.458	78.75
2700.999	77.75
2704.536	78.75
2708.071	78.75
2711.602	71.75
2715.13	71.75
2718.656	53.75
2722.178	68.75
2725.697	51.75
2729.214	57.75
2732.727	65.75
2736.237	51.75
2739.744	58.75
2743.249	57.75
2746.75	62.75
2750.248	61.75
2753.743	64.75
2757.236	61.75
2760.725	71.75
2764.211	42.75
2767.695	67.75
2771.175	59.75
2774.652	64.75
2778.127	57.75
2781.598	55.75
2785.067	60.75
2788.532	49.75
2791.995	67.75
2795.455	47.75
2798.911	63.75
2802.365	50.75
2805.816	61.75
2809.264	69.75
2812.709	54.75
2816.151	59.75
2819.59	51.75
2823.026	55.75
2826.46	49.75
2829.89	61.75
2833.318	35.75
2836.742	58.75
2840.164	53.75
2843.583	56.75
2846.999	55.75
2850.412	61.75
2853.822	57.75
2857.229	69.75
2860.634	57.75
2864.035	42.75
2867.434	66.75
2870.83	63.75
2874.223	59.75
2877.613	67.75
2881	58.75
2884.385	55.75
2887.766	57.75
2891.145	61.75
2894.521	64.75
2897.894	50.75
2901.264	70.75
2904.631	71.75
2907.996	73.75
2911.358	73.75
2914.717	66.75
2918.073	64.75
2921.426	63.75
2924.777	50.75
2928.124	63.75
2931.469	80.75
2934.811	58.75
2938.15	83.75
2941.487	78.75
2944.821	94.75
2948.152	74.75
2951.48	81.75
2954.805	64.75
2958.128	93.75
2961.447	73.75
2964.765	88.75
2968.079	74.75
2971.39	76.75
2974.699	84.75
2978.005	84.75
2981.308	82.75
2984.609	77.75
2987.907	84.75
2991.202	89.75
2994.494	71.75
2997.784	90.75
3001.07	87.75
3004.355	82.75
3007.636	95.75
3010.915	87.75
3014.191	89.75
3017.464	95.75
3020.734	94.75
3024.002	101.75
3027.267	91.75
3030.53	99.75
3033.789	89.75
3037.046	96.75
3040.301	91.75
3043.552	101.75
3046.801	111.75
3050.048	104.75
3053.291	129.75
3056.532	115.75
3059.771	96.75
3063.006	121.75
3066.239	120.75
3069.469	124.75
3072.697	127.75
3075.922	117.75
3079.144	125.75
3082.364	151.75
3085.581	138.75
3088.795	153.75
3092.007	145.75
3095.216	152.75
3098.423	145.75
3101.627	129.75
3104.828	156.75
3108.026	146.75
3111.222	170.75
3114.416	177.75
3117.607	174.75
3120.795	172.75
3123.98	186.75
3127.163	171.75
3130.344	180.75
3133.521	177.75
3136.696	201.75
3139.869	197.75
3143.039	182.75
3146.206	213.75
3149.371	209.75
3152.533	198.75
3155.693	196.75
3158.85	208.75
3162.005	214.75
3165.157	212.75
3168.306	210.75
3171.453	223.75
3174.597	205.75
3177.739	210.75
3180.878	221.75
3184.014	213.75
3187.149	210.75
3190.28	214.75
3193.409	224.75
3196.536	223.75
3199.659	232.75
3202.781	231.75
3205.9	212.75
3209.016	226.75
3212.13	218.75
3215.241	212.75
3218.35	212.75
3221.456	208.75
3224.56	205.75
3227.661	208.75
3230.76	207.75
3233.856	197.75
3236.95	209.75
3240.041	196.75
3243.13	206.75
3246.216	198.75
3249.3	200.75
3252.382	202.75
3255.46	188.75
3258.537	142.75
3261.611	185.75
3264.682	189.75
3267.751	191.75
3270.818	178.75
3273.882	202.75
3276.943	190.75
3280.002	202.75
3283.059	182.75
3286.113	181.75
3289.165	171.75
3292.214	174.75
3295.261	191.75
3298.306	163.75
3301.348	176.75
3304.387	160.75
3307.425	176.75
3310.459	165.75
3313.492	174.75
3316.521	171.75
3319.549	173.75
3322.574	170.75
3325.597	162.75
3328.617	154.75
3331.635	158.75
3334.65	143.75
3337.663	162.75
3340.674	160.75
3343.682	165.75
3346.688	160.75
3349.691	148.75
3352.692	150.75
3355.691	162.75
3358.687	156.75
3361.681	160.75
3364.673	152.75
3367.662	156.75
3370.649	156.75
3373.633	141.75
3376.615	152.75
3379.595	129.75
3382.572	141.75
3385.547	128.75
3388.52	124.75
3391.49	123.75
3394.458	130.75
3397.424	130.75
3400.387	124.75
3403.348	124.75
3406.307	123.75
3409.263	116.75
3412.217	129.75
3415.168	130.75
3418.118	130.75
3421.065	118.75
3424.009	120.75
3426.951	117.75
3429.891	108.75
3432.829	108.75
3435.764	109.75
3438.697	100.75
3441.628	116.75
3444.557	90.75
3447.483	93.75
3450.407	104.75
3453.328	88.75
3456.247	90.75
3459.164	80.75
3462.079	91.75
3464.991	82.75
3467.902	80.75
3470.809	79.75
3473.715	83.75
3476.618	62.75
3479.519	68.75
3482.418	48.75
3485.315	55.75
3488.209	55.75
3491.101	54.75
3493.99	40.75
3496.878	45.75
3499.763	50.75
3502.646	49.75
3505.527	35.75
3508.405	36.75
3511.281	26.75
3514.155	40.75
3517.027	33.75
3519.897	26.75
3522.764	38.75
3525.629	14.75
3528.492	25.75
3531.352	35.75
3534.211	20.75
3537.067	14.75
3539.921	13.75
3542.773	24.75
3545.622	6.75
3548.469	1.75
3551.315	4.75
3554.157	5.75
3556.998	-2.25
3559.837	8.75
3562.673	9.75
3565.507	-4.25
3568.339	-7.25
3571.169	-3.25
3573.996	1.75
3576.822	-13.25
3579.645	-16.25
3582.466	-5.25
3585.285	-5.25
3588.101	-11.25
3590.916	-9.25
3593.728	-0.25
3596.538	-12.25
3599.346	-3.25
3602.152	-14.25
3604.956	-13.25
3607.757	-6.25
3610.556	-19.25
3613.354	-12.25
3616.149	-6.25
3618.942	-7.25
3621.732	-7.25
3624.521	-18.25
3627.307	-26.25
3630.092	-21.25
3632.874	-5.25
3635.654	-14.25
3638.432	-29.25
3641.208	-23.25
3643.982	-20.25
3646.753	-9.25
3649.523	-40.25
3652.29	-27.25
3655.055	-13.25
3657.818	-16.25
3660.579	-28.25
3663.338	-32.25
3666.095	-27.25
3668.849	-46.25
3671.602	-19.25
3674.352	-34.25
3677.101	-14.25
3679.847	-23.25
3682.591	-29.25
3685.333	-38.25
3688.073	-27.25
3690.811	-38.25
3693.547	-40.25
3696.281	-37.25
3699.013	-26.25
3701.742	-31.25
3704.47	-32.25
3707.195	-25.25
3709.919	-23.25
3712.64	-32.25
3715.359	-39.25
3718.076	-15.25
3720.792	-28.25
3723.505	-23.25
3726.216	-21.25
3728.925	-32.25
3731.632	-35.25
3734.336	-29.25
3737.039	-26.25
3739.74	-28.25
3742.439	-52.25
3745.136	-26.25
3747.83	-27.25
3750.523	-20.25
3753.213	-77.25
3755.902	-32.25
3758.589	-45.25
3761.273	-34.25
3763.956	-23.25
3766.636	-45.25
3769.315	-22.25
3771.991	-31.25
3774.665	-37.25
3777.338	-31.25
3780.008	-40.25
3782.677	-34.25
3785.343	-47.25
3788.007	-48.25
3790.67	-23.25
3793.33	-47.25
3795.989	-37.25
3798.645	-27.25
3801.299	-48.25
3803.952	-44.25
3806.602	-35.25
3809.251	-28.25
3811.897	-32.25
3814.542	-33.25
3817.184	-34.25
3819.825	-30.25
3822.463	-44.25
3825.1	-36.25
3827.735	-31.25
3830.367	-42.25
3832.998	-17.25
3835.627	-33.25
3838.253	-23.25
3840.878	-35.25
3843.501	-14.25
3846.122	-28.25
3848.741	-24.25
3851.358	-25.25
3853.973	-39.25
3856.586	-25.25
3859.197	-39.25
3861.806	-30.25
3864.414	-42.25
3867.019	-34.25
3869.622	-23.25
3872.224	-27.25
3874.823	-17.25
3877.421	0.75
3880.016	11.75
3882.61	36.75
3885.202	44.75
3887.792	28.75
3890.38	7.75
3892.966	-25.25
3895.55	-35.25
3898.132	-21.25
3900.713	-23.25
3903.291	-37.25
3905.868	-41.25
3908.442	-33.25
3911.015	-29.25
3913.586	-39.25
3916.155	-34.25
3918.722	-38.25
3921.287	-39.25
3923.85	-45.25
3926.411	-37.25
3928.971	-37.25
3931.528	-30.25
3934.084	-36.25
3936.638	-42.25
3939.19	-28.25
3941.74	-28.25
3944.288	-37.25
3946.834	-31.25
3949.378	-23.25
3951.921	-35.25
3954.462	-35.25
3957	-32.25
3959.537	-22.25
3962.072	-33.25
3964.606	-51.25
3967.137	-36.25
3969.667	-38.25
3972.194	-27.25
3974.72	-36.25
3977.244	-53.25
3979.766	-38.25
3982.286	-36.25
3984.805	-27.25
3987.321	-24.25
3989.836	-27.25
3992.349	-40.25
3994.86	-33.25
3997.369	-38.25
3999.877	-37.25
4002.382	-37.25
4004.886	-28.25
4007.388	-28.25
4009.888	-22.25
4012.386	-28.25
4014.883	-28.25
4017.377	-33.25
4019.87	-27.25
4022.361	-40.25
4024.85	-27.25
4027.338	-35.25
4029.823	-37.25
4032.307	-34.25
4034.789	-32.25
4037.269	-29.25
4039.747	-46.25
4042.224	-24.25
4044.699	-38.25
4047.172	-36.25
4049.643	-25.25
4052.112	-52.25
4054.58	-29.25
4057.046	-39.25
4059.51	-31.25
4061.972	-35.25
4064.432	-49.25
4066.891	-23.25
4069.348	-30.25
4071.803	-31.25
4074.256	-33.25
4076.708	-25.25
4079.158	-23.25
4081.606	-18.25
4084.052	-34.25
4086.497	-25.25
4088.939	-30.25
4091.38	-31.25
4093.819	-24.25
4096.257	-0.25
4098.693	-6.25
4101.127	-5.25
4103.559	-0.25
4105.989	60.75
4108.418	59.75
4110.845	47.75
4113.27	50.75
4115.694	60.75
4118.115	48.75
4120.535	-32.25
4122.954	-25.25
4125.37	-22.25
4127.785	-27.25
4130.198	-28.25
4132.609	-25.25
4135.019	9.75
4137.427	-0.25
4139.833	6.75
4142.237	-4.25
