Data from 2018-3-6_conc=0_n=7_RamanShift_01.txt Node
Date: Tue Mar 06 12:27:19 GMT+02:00 2018
User: LAB3
Spectrometer: QEPB0276
Trigger mode: 0
Integration Time (sec): 3.000000E1
Scans to average: 1
Electric dark correction enabled: true
Nonlinearity correction enabled: false
Boxcar width: 0
XAxis mode: Raman Shifts
Number of Pixels in Spectrum: 1044
>>>>>Begin Spectral Data<<<<<
160.701	177.62
166.742	225.62
172.777	333.62
178.805	688.62
184.826	1555.62
190.841	3104.62
196.849	4960.62
202.85	6335.62
208.845	6866.62
214.833	6898.62
220.815	6815.62
226.789	6853.62
232.758	6903.62
238.719	6943.62
244.674	6919.62
250.623	6914.62
256.565	6830.62
262.5	6762.62
268.429	6780.62
274.351	6727.62
280.267	6721.62
286.176	6772.62
292.079	6781.62
297.975	6762.62
303.865	6796.62
309.748	6838.62
315.625	6788.62
321.495	6828.62
327.359	6804.62
333.217	6889.62
339.068	6858.62
344.912	6915.62
350.751	6905.62
356.583	6950.62
362.408	6993.62
368.227	6993.62
374.04	7093.62
379.847	7110.62
385.647	7121.62
391.44	7149.62
397.228	7160.62
403.009	7276.62
408.784	7221.62
414.553	7319.62
420.315	7350.62
426.071	7345.62
431.821	7349.62
437.565	7338.62
443.302	7306.62
449.033	7261.62
454.758	7283.62
460.477	7197.62
466.189	7121.62
471.896	7036.62
477.596	6991.62
483.29	6951.62
488.978	6932.62
494.66	6888.62
500.335	6698.62
506.005	6457.62
511.668	6143.62
517.325	5825.62
522.977	5639.62
528.622	5445.62
534.261	5336.62
539.894	5215.62
545.521	5145.62
551.141	5079.62
556.756	5033.62
562.365	5006.62
567.968	4924.62
573.565	4925.62
579.155	4896.62
584.74	4854.62
590.319	4852.62
595.892	4862.62
601.459	4886.62
607.02	4855.62
612.575	4786.62
618.124	4764.62
623.667	4664.62
629.204	4624.62
634.735	4557.62
640.261	4498.62
645.781	4459.62
651.294	4440.62
656.802	4422.62
662.304	4405.62
667.8	4417.62
673.29	4356.62
678.775	4393.62
684.254	4364.62
689.726	4338.62
695.193	4345.62
700.655	4333.62
706.11	4282.62
711.56	4250.62
717.004	4250.62
722.442	4182.62
727.874	4231.62
733.301	4185.62
738.722	4160.62
744.137	4156.62
749.547	4133.62
754.951	4138.62
760.349	4163.62
765.741	4177.62
771.128	4216.62
776.509	4240.62
781.885	4304.62
787.254	4377.62
792.618	4370.62
797.977	4355.62
803.33	4306.62
808.677	4308.62
814.019	4255.62
819.355	4218.62
824.686	4213.62
830.011	4141.62
835.33	4130.62
840.644	4136.62
845.952	4110.62
851.255	4056.62
856.552	4049.62
861.844	4024.62
867.13	3980.62
872.41	3999.62
877.686	4023.62
882.955	4047.62
888.219	3994.62
893.478	3869.62
898.731	3803.62
903.979	3710.62
909.221	3659.62
914.458	3640.62
919.69	3617.62
924.916	3627.62
930.136	3623.62
935.351	3598.62
940.561	3617.62
945.766	3610.62
950.965	3607.62
956.158	3562.62
961.347	3525.62
966.529	3473.62
971.707	3486.62
976.879	3409.62
982.046	3365.62
987.208	3374.62
992.364	3364.62
997.515	3383.62
1002.66	3400.62
1007.801	3401.62
1012.936	3468.62
1018.066	3463.62
1023.19	3514.62
1028.309	3526.62
1033.423	3512.62
1038.532	3549.62
1043.636	3509.62
1048.734	3510.62
1053.827	3466.62
1058.915	3426.62
1063.998	3411.62
1069.075	3392.62
1074.147	3381.62
1079.214	3373.62
1084.276	3397.62
1089.333	3452.62
1094.385	3450.62
1099.431	3416.62
1104.472	3391.62
1109.509	3339.62
1114.54	3272.62
1119.565	3230.62
1124.586	3214.62
1129.602	3157.62
1134.613	3118.62
1139.618	3108.62
1144.619	3090.62
1149.614	3123.62
1154.604	3118.62
1159.589	3122.62
1164.57	3153.62
1169.545	3134.62
1174.515	3133.62
1179.48	3116.62
1184.44	3099.62
1189.395	3076.62
1194.345	3044.62
1199.29	3044.62
1204.23	3032.62
1209.165	3033.62
1214.095	3041.62
1219.021	3058.62
1223.941	3043.62
1228.856	3058.62
1233.766	3101.62
1238.672	3101.62
1243.572	3088.62
1248.467	3072.62
1253.358	3022.62
1258.244	2962.62
1263.124	2948.62
1268	2892.62
1272.871	2821.62
1277.737	2832.62
1282.599	2836.62
1287.455	2840.62
1292.306	2817.62
1297.153	2824.62
1301.995	2845.62
1306.832	2837.62
1311.664	2858.62
1316.491	2841.62
1321.314	2831.62
1326.132	2809.62
1330.945	2787.62
1335.753	2719.62
1340.556	2691.62
1345.354	2642.62
1350.148	2617.62
1354.937	2570.62
1359.722	2544.62
1364.501	2537.62
1369.276	2536.62
1374.046	2547.62
1378.811	2516.62
1383.572	2539.62
1388.327	2520.62
1393.079	2501.62
1397.825	2473.62
1402.567	2450.62
1407.304	2444.62
1412.036	2442.62
1416.764	2429.62
1421.487	2426.62
1426.205	2439.62
1430.919	2436.62
1435.628	2438.62
1440.333	2461.62
1445.032	2511.62
1449.727	2527.62
1454.418	2572.62
1459.104	2579.62
1463.785	2546.62
1468.462	2478.62
1473.134	2401.62
1477.802	2387.62
1482.465	2318.62
1487.123	2321.62
1491.777	2285.62
1496.426	2280.62
1501.071	2311.62
1505.711	2294.62
1510.347	2322.62
1514.978	2327.62
1519.604	2344.62
1524.226	2352.62
1528.844	2304.62
1533.457	2301.62
1538.065	2276.62
1542.669	2260.62
1547.269	2237.62
1551.864	2228.62
1556.454	2186.62
1561.041	2189.62
1565.622	2207.62
1570.199	2216.62
1574.772	2218.62
1579.34	2226.62
1583.904	2258.62
1588.464	2282.62
1593.019	2260.62
1597.569	2260.62
1602.115	2256.62
1606.657	2247.62
1611.195	2259.62
1615.728	2234.62
1620.256	2232.62
1624.78	2188.62
1629.3	2211.62
1633.816	2245.62
1638.327	2242.62
1642.834	2258.62
1647.336	2277.62
1651.834	2298.62
1656.328	2292.62
1660.817	2282.62
1665.302	2260.62
1669.783	2235.62
1674.259	2208.62
1678.732	2168.62
1683.199	2119.62
1687.663	2054.62
1692.122	2028.62
1696.577	1987.62
1701.028	1971.62
1705.474	1939.62
1709.917	1887.62
1714.355	1873.62
1718.788	1840.62
1723.218	1803.62
1727.643	1807.62
1732.064	1788.62
1736.481	1767.62
1740.893	1719.62
1745.301	1684.62
1749.705	1631.62
1754.105	1638.62
1758.501	1581.62
1762.893	1563.62
1767.28	1527.62
1771.663	1529.62
1776.042	1510.62
1780.417	1495.62
1784.787	1507.62
1789.154	1542.62
1793.516	1511.62
1797.874	1513.62
1802.228	1518.62
1806.578	1496.62
1810.924	1491.62
1815.266	1398.62
1819.603	1462.62
1823.937	1409.62
1828.266	1412.62
1832.591	1397.62
1836.913	1386.62
1841.23	1389.62
1845.543	1371.62
1849.852	1392.62
1854.156	1366.62
1858.457	1373.62
1862.754	1379.62
1867.047	1389.62
1871.335	1419.62
1875.62	1397.62
1879.9	1397.62
1884.177	1390.62
1888.449	1392.62
1892.718	1364.62
1896.982	1375.62
1901.243	1356.62
1905.499	1348.62
1909.752	1341.62
1914	1331.62
1918.245	1364.62
1922.485	1349.62
1926.722	1363.62
1930.954	1362.62
1935.183	1381.62
1939.408	1370.62
1943.628	1374.62
1947.845	1357.62
1952.058	1333.62
1956.267	1313.62
1960.472	1295.62
1964.673	1272.62
1968.87	1256.62
1973.063	1224.62
1977.252	1220.62
1981.438	1200.62
1985.619	1167.62
1989.797	1161.62
1993.971	1174.62
1998.14	1202.62
2002.306	1172.62
2006.469	1154.62
2010.627	1147.62
2014.781	1132.62
2018.932	1145.62
2023.078	1147.62
2027.221	1129.62
2031.36	1108.62
2035.495	1108.62
2039.627	1097.62
2043.754	1086.62
2047.878	1076.62
2051.998	1069.62
2056.114	1071.62
2060.226	1085.62
2064.334	1084.62
2068.439	1077.62
2072.54	1098.62
2076.637	1085.62
2080.73	1091.62
2084.82	1084.62
2088.906	1084.62
2092.988	1070.62
2097.066	1082.62
2101.14	1090.62
2105.211	1067.62
2109.278	1048.62
2113.342	1026.62
2117.401	1022.62
2121.457	990.62
2125.509	1003.62
2129.558	1002.62
2133.602	979.62
2137.643	971.62
2141.681	966.62
2145.714	970.62
2149.744	968.62
2153.77	949.62
2157.793	928.62
2161.812	908.62
2165.827	908.62
2169.838	905.62
2173.846	881.62
2177.851	873.62
2181.851	872.62
2185.848	854.62
2189.841	854.62
2193.831	840.62
2197.817	838.62
2201.799	819.62
2205.778	818.62
2209.753	801.62
2213.725	817.62
2217.693	804.62
2221.657	791.62
2225.618	801.62
2229.575	793.62
2233.529	784.62
2237.479	786.62
2241.425	768.62
2245.368	756.62
2249.307	761.62
2253.243	734.62
2257.175	733.62
2261.104	721.62
2265.029	706.62
2268.95	700.62
2272.868	684.62
2276.783	672.62
2280.694	670.62
2284.601	657.62
2288.505	662.62
2292.405	668.62
2296.302	631.62
2300.195	639.62
2304.085	603.62
2307.971	630.62
2311.854	595.62
2315.734	609.62
2319.609	589.62
2323.482	570.62
2327.351	577.62
2331.216	574.62
2335.078	583.62
2338.937	570.62
2342.792	553.62
2346.643	548.62
2350.492	558.62
2354.336	549.62
2358.178	563.62
2362.015	556.62
2365.85	550.62
2369.681	563.62
2373.508	561.62
2377.333	565.62
2381.153	556.62
2384.971	554.62
2388.785	550.62
2392.595	551.62
2396.402	537.62
2400.206	527.62
2404.007	528.62
2407.804	524.62
2411.597	531.62
2415.388	523.62
2419.174	509.62
2422.958	521.62
2426.738	504.62
2430.515	522.62
2434.289	497.62
2438.059	511.62
2441.825	494.62
2445.589	510.62
2449.349	481.62
2453.106	499.62
2456.859	481.62
2460.61	494.62
2464.356	463.62
2468.1	464.62
2471.84	469.62
2475.577	468.62
2479.311	467.62
2483.041	456.62
2486.768	467.62
2490.492	474.62
2494.213	457.62
2497.93	454.62
2501.644	437.62
2505.355	458.62
2509.062	448.62
2512.766	450.62
2516.467	443.62
2520.165	432.62
2523.859	429.62
2527.551	460.62
2531.239	430.62
2534.923	442.62
2538.605	433.62
2542.283	435.62
2545.958	428.62
2549.63	443.62
2553.299	440.62
2556.964	424.62
2560.626	418.62
2564.285	430.62
2567.941	401.62
2571.594	409.62
2575.243	420.62
2578.89	407.62
2582.533	403.62
2586.173	409.62
2589.809	405.62
2593.443	371.62
2597.073	386.62
2600.701	393.62
2604.325	381.62
2607.946	374.62
2611.564	383.62
2615.178	370.62
2618.79	374.62
2622.398	364.62
2626.004	372.62
2629.606	365.62
2633.205	349.62
2636.801	360.62
2640.394	359.62
2643.983	342.62
2647.57	344.62
2651.153	339.62
2654.734	343.62
2658.311	316.62
2661.885	323.62
2665.456	320.62
2669.025	319.62
2672.589	306.62
2676.151	325.62
2679.71	324.62
2683.266	310.62
2686.819	307.62
2690.368	307.62
2693.915	308.62
2697.458	303.62
2700.999	306.62
2704.536	302.62
2708.071	301.62
2711.602	299.62
2715.13	292.62
2718.656	283.62
2722.178	297.62
2725.697	277.62
2729.214	285.62
2732.727	289.62
2736.237	273.62
2739.744	280.62
2743.249	280.62
2746.75	284.62
2750.248	281.62
2753.743	286.62
2757.236	287.62
2760.725	284.62
2764.211	259.62
2767.695	283.62
2771.175	280.62
2774.652	282.62
2778.127	272.62
2781.598	266.62
2785.067	276.62
2788.532	256.62
2791.995	275.62
2795.455	267.62
2798.911	280.62
2802.365	264.62
2805.816	279.62
2809.264	283.62
2812.709	278.62
2816.151	276.62
2819.59	274.62
2823.026	282.62
2826.46	277.62
2829.89	292.62
2833.318	263.62
2836.742	284.62
2840.164	289.62
2843.583	289.62
2846.999	297.62
2850.412	294.62
2853.822	297.62
2857.229	305.62
2860.634	305.62
2864.035	295.62
2867.434	326.62
2870.83	332.62
2874.223	329.62
2877.613	331.62
2881	339.62
2884.385	352.62
2887.766	350.62
2891.145	343.62
2894.521	338.62
2897.894	331.62
2901.264	355.62
2904.631	344.62
2907.996	346.62
2911.358	353.62
2914.717	359.62
2918.073	341.62
2921.426	342.62
2924.777	335.62
2928.124	361.62
2931.469	394.62
2934.811	383.62
2938.15	422.62
2941.487	407.62
2944.821	412.62
2948.152	400.62
2951.48	402.62
2954.805	366.62
2958.128	386.62
2961.447	364.62
2964.765	390.62
2968.079	369.62
2971.39	376.62
2974.699	375.62
2978.005	379.62
2981.308	379.62
2984.609	370.62
2987.907	393.62
2991.202	398.62
2994.494	383.62
2997.784	389.62
3001.07	378.62
3004.355	378.62
3007.636	387.62
3010.915	375.62
3014.191	376.62
3017.464	389.62
3020.734	379.62
3024.002	376.62
3027.267	386.62
3030.53	386.62
3033.789	390.62
3037.046	390.62
3040.301	391.62
3043.552	400.62
3046.801	416.62
3050.048	432.62
3053.291	449.62
3056.532	434.62
3059.771	438.62
3063.006	456.62
3066.239	468.62
3069.469	480.62
3072.697	478.62
3075.922	494.62
3079.144	501.62
3082.364	535.62
3085.581	524.62
3088.795	555.62
3092.007	563.62
3095.216	571.62
3098.423	573.62
3101.627	555.62
3104.828	594.62
3108.026	604.62
3111.222	621.62
3114.416	633.62
3117.607	639.62
3120.795	647.62
3123.98	678.62
3127.163	668.62
3130.344	687.62
3133.521	690.62
3136.696	729.62
3139.869	738.62
3143.039	720.62
3146.206	764.62
3149.371	762.62
3152.533	760.62
3155.693	772.62
3158.85	784.62
3162.005	782.62
3165.157	781.62
3168.306	781.62
3171.453	801.62
3174.597	782.62
3177.739	771.62
3180.878	783.62
3184.014	796.62
3187.149	788.62
3190.28	789.62
3193.409	804.62
3196.536	806.62
3199.659	805.62
3202.781	809.62
3205.9	797.62
3209.016	807.62
3212.13	807.62
3215.241	804.62
3218.35	790.62
3221.456	773.62
3224.56	763.62
3227.661	781.62
3230.76	774.62
3233.856	753.62
3236.95	773.62
3240.041	752.62
3243.13	766.62
3246.216	742.62
3249.3	752.62
3252.382	728.62
3255.46	728.62
3258.537	686.62
3261.611	720.62
3264.682	731.62
3267.751	729.62
3270.818	709.62
3273.882	720.62
3276.943	721.62
3280.002	723.62
3283.059	698.62
3286.113	694.62
3289.165	673.62
3292.214	669.62
3295.261	680.62
3298.306	646.62
3301.348	657.62
3304.387	635.62
3307.425	641.62
3310.459	615.62
3313.492	620.62
3316.521	620.62
3319.549	620.62
3322.574	627.62
3325.597	590.62
3328.617	597.62
3331.635	600.62
3334.65	579.62
3337.663	590.62
3340.674	589.62
3343.682	578.62
3346.688	588.62
3349.691	577.62
3352.692	593.62
3355.691	585.62
3358.687	577.62
3361.681	566.62
3364.673	567.62
3367.662	568.62
3370.649	564.62
3373.633	544.62
3376.615	550.62
3379.595	524.62
3382.572	519.62
3385.547	514.62
3388.52	513.62
3391.49	512.62
3394.458	500.62
3397.424	519.62
3400.387	486.62
3403.348	496.62
3406.307	497.62
3409.263	474.62
3412.217	499.62
3415.168	486.62
3418.118	469.62
3421.065	468.62
3424.009	473.62
3426.951	452.62
3429.891	451.62
3432.829	447.62
3435.764	433.62
3438.697	412.62
3441.628	432.62
3444.557	400.62
3447.483	393.62
3450.407	387.62
3453.328	378.62
3456.247	372.62
3459.164	353.62
3462.079	362.62
3464.991	346.62
3467.902	331.62
3470.809	329.62
3473.715	331.62
3476.618	319.62
3479.519	307.62
3482.418	283.62
3485.315	286.62
3488.209	269.62
3491.101	278.62
3493.99	259.62
3496.878	259.62
3499.763	255.62
3502.646	253.62
3505.527	240.62
3508.405	235.62
3511.281	212.62
3514.155	217.62
3517.027	210.62
3519.897	197.62
3522.764	199.62
3525.629	176.62
3528.492	182.62
3531.352	176.62
3534.211	170.62
3537.067	151.62
3539.921	160.62
3542.773	154.62
3545.622	126.62
3548.469	128.62
3551.315	121.62
3554.157	126.62
3556.998	109.62
3559.837	113.62
3562.673	108.62
3565.507	94.62
3568.339	100.62
3571.169	93.62
3573.996	94.62
3576.822	69.62
3579.645	74.62
3582.466	74.62
3585.285	78.62
3588.101	77.62
3590.916	67.62
3593.728	71.62
3596.538	60.62
3599.346	57.62
3602.152	51.62
3604.956	57.62
3607.757	57.62
3610.556	30.62
3613.354	49.62
3616.149	42.62
3618.942	41.62
3621.732	44.62
3624.521	35.62
3627.307	26.62
3630.092	24.62
3632.874	43.62
3635.654	26.62
3638.432	21.62
3641.208	25.62
3643.982	20.62
3646.753	26.62
3649.523	-4.38
3652.29	12.62
3655.055	15.62
3657.818	17.62
3660.579	10.62
3663.338	-0.38
3666.095	4.62
3668.849	-15.38
3671.602	8.62
3674.352	-10.38
3677.101	8.62
3679.847	7.62
3682.591	-13.38
3685.333	-13.38
3688.073	-1.38
3690.811	-16.38
3693.547	-19.38
3696.281	-20.38
3699.013	-3.38
3701.742	-14.38
3704.47	-22.38
3707.195	-2.38
3709.919	-13.38
3712.64	-13.38
3715.359	-19.38
3718.076	-5.38
3720.792	-17.38
3723.505	-12.38
3726.216	-4.38
3728.925	-22.38
3731.632	-22.38
3734.336	-16.38
3737.039	-16.38
3739.74	-15.38
3742.439	-40.38
3745.136	-10.38
3747.83	-19.38
3750.523	-14.38
3753.213	-87.38
3755.902	-21.38
3758.589	-35.38
3761.273	-22.38
3763.956	-10.38
3766.636	-34.38
3769.315	-14.38
3771.991	-18.38
3774.665	-27.38
3777.338	-21.38
3780.008	-33.38
3782.677	-27.38
3785.343	-39.38
3788.007	-40.38
3790.67	-18.38
3793.33	-34.38
3795.989	-30.38
3798.645	-23.38
3801.299	-32.38
3803.952	-35.38
3806.602	-26.38
3809.251	-20.38
3811.897	-30.38
3814.542	-28.38
3817.184	-27.38
3819.825	-25.38
3822.463	-38.38
3825.1	-29.38
3827.735	-28.38
3830.367	-33.38
3832.998	-14.38
3835.627	-32.38
3838.253	-20.38
3840.878	-26.38
3843.501	-12.38
3846.122	-23.38
3848.741	-19.38
3851.358	-19.38
3853.973	-35.38
3856.586	-16.38
3859.197	-30.38
3861.806	-25.38
3864.414	-41.38
3867.019	-22.38
3869.622	-8.38
3872.224	-8.38
3874.823	11.62
3877.421	39.62
3880.016	76.62
3882.61	132.62
3885.202	153.62
3887.792	115.62
3890.38	60.62
3892.966	7.62
3895.55	-17.38
3898.132	-12.38
3900.713	-13.38
3903.291	-23.38
3905.868	-32.38
3908.442	-20.38
3911.015	-23.38
3913.586	-30.38
3916.155	-30.38
3918.722	-34.38
3921.287	-28.38
3923.85	-36.38
3926.411	-34.38
3928.971	-30.38
3931.528	-24.38
3934.084	-34.38
3936.638	-38.38
3939.19	-29.38
3941.74	-28.38
3944.288	-29.38
3946.834	-29.38
3949.378	-17.38
3951.921	-36.38
3954.462	-32.38
3957	-24.38
3959.537	-13.38
3962.072	-24.38
3964.606	-40.38
3967.137	-30.38
3969.667	-34.38
3972.194	-25.38
3974.72	-34.38
3977.244	-55.38
3979.766	-33.38
3982.286	-33.38
3984.805	-23.38
3987.321	-18.38
3989.836	-23.38
3992.349	-35.38
3994.86	-23.38
3997.369	-35.38
3999.877	-29.38
4002.382	-26.38
4004.886	-23.38
4007.388	-24.38
4009.888	-21.38
4012.386	-17.38
4014.883	-24.38
4017.377	-22.38
4019.87	-23.38
4022.361	-35.38
4024.85	-29.38
4027.338	-30.38
4029.823	-29.38
4032.307	-29.38
4034.789	-26.38
4037.269	-29.38
4039.747	-43.38
4042.224	-22.38
4044.699	-34.38
4047.172	-30.38
4049.643	-20.38
4052.112	-46.38
4054.58	-25.38
4057.046	-38.38
4059.51	-26.38
4061.972	-32.38
4064.432	-43.38
4066.891	-18.38
4069.348	-22.38
4071.803	-23.38
4074.256	-30.38
4076.708	-23.38
4079.158	-20.38
4081.606	-17.38
4084.052	-26.38
4086.497	-23.38
4088.939	-24.38
4091.38	-31.38
4093.819	-20.38
4096.257	3.62
4098.693	-6.38
4101.127	-3.38
4103.559	3.62
4105.989	151.62
4108.418	150.62
4110.845	139.62
4113.27	150.62
4115.694	160.62
4118.115	159.62
4120.535	-25.38
4122.954	-20.38
4125.37	-18.38
4127.785	-23.38
4130.198	-16.38
4132.609	-21.38
4135.019	3.62
4137.427	-1.38
4139.833	4.62
4142.237	-4.38
