Data from 2018-3-6_conc=3_n=2_RamanShift_05.txt Node
Date: Tue Mar 06 13:19:19 GMT+02:00 2018
User: LAB3
Spectrometer: QEPB0276
Trigger mode: 0
Integration Time (sec): 3.000000E1
Scans to average: 1
Electric dark correction enabled: true
Nonlinearity correction enabled: false
Boxcar width: 0
XAxis mode: Raman Shifts
Number of Pixels in Spectrum: 1044
>>>>>Begin Spectral Data<<<<<
160.701	125.25
166.742	172.25
172.777	267.25
178.805	520.25
184.826	1200.25
190.841	2405.25
196.849	3858.25
202.85	4889.25
208.845	5333.25
214.833	5305.25
220.815	5292.25
226.789	5280.25
232.758	5318.25
238.719	5351.25
244.674	5354.25
250.623	5285.25
256.565	5242.25
262.5	5216.25
268.429	5179.25
274.351	5186.25
280.267	5179.25
286.176	5215.25
292.079	5222.25
297.975	5225.25
303.865	5247.25
309.748	5240.25
315.625	5268.25
321.495	5261.25
327.359	5270.25
333.217	5272.25
339.068	5288.25
344.912	5326.25
350.751	5333.25
356.583	5373.25
362.408	5422.25
368.227	5443.25
374.04	5437.25
379.847	5481.25
385.647	5555.25
391.44	5511.25
397.228	5544.25
403.009	5603.25
408.784	5628.25
414.553	5626.25
420.315	5691.25
426.071	5659.25
431.821	5659.25
437.565	5664.25
443.302	5664.25
449.033	5617.25
454.758	5615.25
460.477	5547.25
466.189	5506.25
471.896	5454.25
477.596	5399.25
483.29	5380.25
488.978	5356.25
494.66	5318.25
500.335	5178.25
506.005	4960.25
511.668	4717.25
517.325	4505.25
522.977	4299.25
528.622	4144.25
534.261	4062.25
539.894	3977.25
545.521	3926.25
551.141	3881.25
556.756	3828.25
562.365	3765.25
567.968	3763.25
573.565	3727.25
579.155	3718.25
584.74	3688.25
590.319	3689.25
595.892	3685.25
601.459	3681.25
607.02	3657.25
612.575	3688.25
618.124	3604.25
623.667	3531.25
629.204	3506.25
634.735	3454.25
640.261	3416.25
645.781	3362.25
651.294	3350.25
656.802	3351.25
662.304	3335.25
667.8	3355.25
673.29	3314.25
678.775	3336.25
684.254	3280.25
689.726	3269.25
695.193	3280.25
700.655	3244.25
706.11	3237.25
711.56	3212.25
717.004	3200.25
722.442	3178.25
727.874	3153.25
733.301	3175.25
738.722	3158.25
744.137	3135.25
749.547	3142.25
754.951	3145.25
760.349	3164.25
765.741	3179.25
771.128	3172.25
776.509	3220.25
781.885	3272.25
787.254	3311.25
792.618	3333.25
797.977	3315.25
803.33	3288.25
808.677	3280.25
814.019	3230.25
819.355	3203.25
824.686	3172.25
830.011	3149.25
835.33	3136.25
840.644	3131.25
845.952	3101.25
851.255	3070.25
856.552	3061.25
861.844	3019.25
867.13	2967.25
872.41	2961.25
877.686	2927.25
882.955	2917.25
888.219	2874.25
893.478	2860.25
898.731	2789.25
903.979	2786.25
909.221	2739.25
914.458	2745.25
919.69	2740.25
924.916	2728.25
930.136	2730.25
935.351	2712.25
940.561	2720.25
945.766	2726.25
950.965	2712.25
956.158	2706.25
961.347	2665.25
966.529	2640.25
971.707	2626.25
976.879	2573.25
982.046	2542.25
987.208	2529.25
992.364	2545.25
997.515	2538.25
1002.66	2558.25
1007.801	2572.25
1012.936	2626.25
1018.066	2592.25
1023.19	2629.25
1028.309	2646.25
1033.423	2645.25
1038.532	2652.25
1043.636	2618.25
1048.734	2600.25
1053.827	2572.25
1058.915	2542.25
1063.998	2540.25
1069.075	2537.25
1074.147	2537.25
1079.214	2506.25
1084.276	2539.25
1089.333	2556.25
1094.385	2547.25
1099.431	2533.25
1104.472	2523.25
1109.509	2500.25
1114.54	2447.25
1119.565	2398.25
1124.586	2394.25
1129.602	2371.25
1134.613	2330.25
1139.618	2332.25
1144.619	2338.25
1149.614	2322.25
1154.604	2354.25
1159.589	2342.25
1164.57	2367.25
1169.545	2361.25
1174.515	2374.25
1179.48	2352.25
1184.44	2334.25
1189.395	2323.25
1194.345	2302.25
1199.29	2283.25
1204.23	2296.25
1209.165	2273.25
1214.095	2291.25
1219.021	2308.25
1223.941	2305.25
1228.856	2309.25
1233.766	2334.25
1238.672	2348.25
1243.572	2314.25
1248.467	2308.25
1253.358	2259.25
1258.244	2222.25
1263.124	2209.25
1268	2193.25
1272.871	2124.25
1277.737	2126.25
1282.599	2101.25
1287.455	2111.25
1292.306	2108.25
1297.153	2124.25
1301.995	2099.25
1306.832	2135.25
1311.664	2120.25
1316.491	2123.25
1321.314	2110.25
1326.132	2105.25
1330.945	2084.25
1335.753	2036.25
1340.556	2005.25
1345.354	1978.25
1350.148	1962.25
1354.937	1935.25
1359.722	1910.25
1364.501	1910.25
1369.276	1904.25
1374.046	1907.25
1378.811	1875.25
1383.572	1892.25
1388.327	1893.25
1393.079	1856.25
1397.825	1861.25
1402.567	1843.25
1407.304	1826.25
1412.036	1817.25
1416.764	1822.25
1421.487	1792.25
1426.205	1802.25
1430.919	1808.25
1435.628	1796.25
1440.333	1815.25
1445.032	1861.25
1449.727	1841.25
1454.418	1864.25
1459.104	1847.25
1463.785	1807.25
1468.462	1798.25
1473.134	1800.25
1477.802	1743.25
1482.465	1723.25
1487.123	1705.25
1491.777	1687.25
1496.426	1681.25
1501.071	1717.25
1505.711	1692.25
1510.347	1720.25
1514.978	1723.25
1519.604	1736.25
1524.226	1730.25
1528.844	1699.25
1533.457	1709.25
1538.065	1705.25
1542.669	1675.25
1547.269	1682.25
1551.864	1679.25
1556.454	1655.25
1561.041	1647.25
1565.622	1639.25
1570.199	1656.25
1574.772	1660.25
1579.34	1702.25
1583.904	1693.25
1588.464	1727.25
1593.019	1735.25
1597.569	1702.25
1602.115	1692.25
1606.657	1707.25
1611.195	1698.25
1615.728	1684.25
1620.256	1655.25
1624.78	1661.25
1629.3	1668.25
1633.816	1694.25
1638.327	1697.25
1642.834	1706.25
1647.336	1692.25
1651.834	1734.25
1656.328	1710.25
1660.817	1713.25
1665.302	1706.25
1669.783	1679.25
1674.259	1667.25
1678.732	1615.25
1683.199	1602.25
1687.663	1529.25
1692.122	1531.25
1696.577	1477.25
1701.028	1469.25
1705.474	1434.25
1709.917	1386.25
1714.355	1411.25
1718.788	1390.25
1723.218	1355.25
1727.643	1347.25
1732.064	1333.25
1736.481	1296.25
1740.893	1290.25
1745.301	1263.25
1749.705	1197.25
1754.105	1209.25
1758.501	1194.25
1762.893	1180.25
1767.28	1139.25
1771.663	1125.25
1776.042	1109.25
1780.417	1096.25
1784.787	1116.25
1789.154	1127.25
1793.516	1132.25
1797.874	1146.25
1802.228	1133.25
1806.578	1107.25
1810.924	1114.25
1815.266	994.25
1819.603	1082.25
1823.937	1054.25
1828.266	1048.25
1832.591	1039.25
1836.913	1044.25
1841.23	1034.25
1845.543	1026.25
1849.852	1037.25
1854.156	1017.25
1858.457	1024.25
1862.754	1018.25
1867.047	1030.25
1871.335	1045.25
1875.62	1039.25
1879.9	1040.25
1884.177	1027.25
1888.449	1035.25
1892.718	1015.25
1896.982	1025.25
1901.243	989.25
1905.499	999.25
1909.752	992.25
1914	973.25
1918.245	1010.25
1922.485	1022.25
1926.722	1009.25
1930.954	999.25
1935.183	1009.25
1939.408	1025.25
1943.628	1012.25
1947.845	1003.25
1952.058	985.25
1956.267	971.25
1960.472	970.25
1964.673	951.25
1968.87	927.25
1973.063	920.25
1977.252	907.25
1981.438	883.25
1985.619	875.25
1989.797	870.25
1993.971	875.25
1998.14	880.25
2002.306	871.25
2006.469	863.25
2010.627	864.25
2014.781	857.25
2018.932	844.25
2023.078	867.25
2027.221	852.25
2031.36	820.25
2035.495	834.25
2039.627	805.25
2043.754	812.25
2047.878	815.25
2051.998	800.25
2056.114	794.25
2060.226	798.25
2064.334	805.25
2068.439	808.25
2072.54	813.25
2076.637	808.25
2080.73	814.25
2084.82	808.25
2088.906	822.25
2092.988	806.25
2097.066	791.25
2101.14	801.25
2105.211	789.25
2109.278	775.25
2113.342	769.25
2117.401	754.25
2121.457	742.25
2125.509	733.25
2129.558	741.25
2133.602	741.25
2137.643	732.25
2141.681	728.25
2145.714	727.25
2149.744	713.25
2153.77	710.25
2157.793	694.25
2161.812	676.25
2165.827	663.25
2169.838	681.25
2173.846	656.25
2177.851	647.25
2181.851	661.25
2185.848	630.25
2189.841	641.25
2193.831	615.25
2197.817	620.25
2201.799	625.25
2205.778	602.25
2209.753	603.25
2213.725	599.25
2217.693	593.25
2221.657	584.25
2225.618	602.25
2229.575	590.25
2233.529	592.25
2237.479	589.25
2241.425	566.25
2245.368	561.25
2249.307	553.25
2253.243	550.25
2257.175	553.25
2261.104	528.25
2265.029	533.25
2268.95	516.25
2272.868	511.25
2276.783	505.25
2280.694	508.25
2284.601	500.25
2288.505	485.25
2292.405	489.25
2296.302	471.25
2300.195	482.25
2304.085	442.25
2307.971	462.25
2311.854	435.25
2315.734	444.25
2319.609	441.25
2323.482	412.25
2327.351	421.25
2331.216	427.25
2335.078	431.25
2338.937	423.25
2342.792	411.25
2346.643	401.25
2350.492	431.25
2354.336	414.25
2358.178	416.25
2362.015	419.25
2365.85	413.25
2369.681	411.25
2373.508	417.25
2377.333	415.25
2381.153	417.25
2384.971	411.25
2388.785	409.25
2392.595	402.25
2396.402	396.25
2400.206	369.25
2404.007	383.25
2407.804	396.25
2411.597	392.25
2415.388	380.25
2419.174	389.25
2422.958	386.25
2426.738	383.25
2430.515	392.25
2434.289	363.25
2438.059	368.25
2441.825	369.25
2445.589	370.25
2449.349	353.25
2453.106	369.25
2456.859	356.25
2460.61	361.25
2464.356	336.25
2468.1	343.25
2471.84	330.25
2475.577	333.25
2479.311	337.25
2483.041	330.25
2486.768	352.25
2490.492	356.25
2494.213	337.25
2497.93	330.25
2501.644	313.25
2505.355	340.25
2509.062	329.25
2512.766	329.25
2516.467	322.25
2520.165	325.25
2523.859	311.25
2527.551	347.25
2531.239	315.25
2534.923	322.25
2538.605	314.25
2542.283	315.25
2545.958	316.25
2549.63	326.25
2553.299	317.25
2556.964	299.25
2560.626	302.25
2564.285	309.25
2567.941	288.25
2571.594	297.25
2575.243	305.25
2578.89	292.25
2582.533	300.25
2586.173	294.25
2589.809	295.25
2593.443	262.25
2597.073	277.25
2600.701	278.25
2604.325	277.25
2607.946	271.25
2611.564	281.25
2615.178	272.25
2618.79	265.25
2622.398	270.25
2626.004	273.25
2629.606	269.25
2633.205	257.25
2636.801	262.25
2640.394	260.25
2643.983	251.25
2647.57	248.25
2651.153	247.25
2654.734	254.25
2658.311	227.25
2661.885	241.25
2665.456	243.25
2669.025	238.25
2672.589	224.25
2676.151	239.25
2679.71	244.25
2683.266	220.25
2686.819	220.25
2690.368	223.25
2693.915	234.25
2697.458	218.25
2700.999	224.25
2704.536	218.25
2708.071	216.25
2711.602	210.25
2715.13	209.25
2718.656	186.25
2722.178	214.25
2725.697	193.25
2729.214	203.25
2732.727	205.25
2736.237	187.25
2739.744	191.25
2743.249	189.25
2746.75	202.25
2750.248	187.25
2753.743	197.25
2757.236	205.25
2760.725	209.25
2764.211	174.25
2767.695	204.25
2771.175	202.25
2774.652	196.25
2778.127	190.25
2781.598	185.25
2785.067	200.25
2788.532	182.25
2791.995	190.25
2795.455	190.25
2798.911	200.25
2802.365	193.25
2805.816	194.25
2809.264	195.25
2812.709	182.25
2816.151	194.25
2819.59	178.25
2823.026	193.25
2826.46	188.25
2829.89	205.25
2833.318	173.25
2836.742	189.25
2840.164	198.25
2843.583	190.25
2846.999	194.25
2850.412	199.25
2853.822	192.25
2857.229	211.25
2860.634	203.25
2864.035	189.25
2867.434	212.25
2870.83	213.25
2874.223	209.25
2877.613	202.25
2881	204.25
2884.385	210.25
2887.766	205.25
2891.145	210.25
2894.521	211.25
2897.894	197.25
2901.264	222.25
2904.631	224.25
2907.996	213.25
2911.358	225.25
2914.717	228.25
2918.073	219.25
2921.426	223.25
2924.777	208.25
2928.124	216.25
2931.469	244.25
2934.811	226.25
2938.15	250.25
2941.487	238.25
2944.821	250.25
2948.152	243.25
2951.48	252.25
2954.805	233.25
2958.128	253.25
2961.447	240.25
2964.765	256.25
2968.079	241.25
2971.39	246.25
2974.699	250.25
2978.005	249.25
2981.308	249.25
2984.609	251.25
2987.907	261.25
2991.202	273.25
2994.494	257.25
2997.784	267.25
3001.07	274.25
3004.355	264.25
3007.636	268.25
3010.915	270.25
3014.191	272.25
3017.464	272.25
3020.734	279.25
3024.002	279.25
3027.267	274.25
3030.53	288.25
3033.789	283.25
3037.046	288.25
3040.301	278.25
3043.552	307.25
3046.801	298.25
3050.048	316.25
3053.291	330.25
3056.532	331.25
3059.771	322.25
3063.006	342.25
3066.239	346.25
3069.469	357.25
3072.697	355.25
3075.922	364.25
3079.144	372.25
3082.364	395.25
3085.581	393.25
3088.795	419.25
3092.007	421.25
3095.216	427.25
3098.423	421.25
3101.627	412.25
3104.828	440.25
3108.026	442.25
3111.222	469.25
3114.416	478.25
3117.607	483.25
3120.795	484.25
3123.98	488.25
3127.163	497.25
3130.344	509.25
3133.521	506.25
3136.696	547.25
3139.869	550.25
3143.039	536.25
3146.206	569.25
3149.371	578.25
3152.533	582.25
3155.693	569.25
3158.85	584.25
3162.005	600.25
3165.157	587.25
3168.306	595.25
3171.453	592.25
3174.597	588.25
3177.739	588.25
3180.878	599.25
3184.014	589.25
3187.149	594.25
3190.28	594.25
3193.409	605.25
3196.536	610.25
3199.659	605.25
3202.781	607.25
3205.9	597.25
3209.016	609.25
3212.13	606.25
3215.241	600.25
3218.35	594.25
3221.456	600.25
3224.56	589.25
3227.661	595.25
3230.76	573.25
3233.856	568.25
3236.95	572.25
3240.041	571.25
3243.13	570.25
3246.216	562.25
3249.3	567.25
3252.382	554.25
3255.46	555.25
3258.537	510.25
3261.611	542.25
3264.682	545.25
3267.751	554.25
3270.818	544.25
3273.882	551.25
3276.943	548.25
3280.002	549.25
3283.059	532.25
3286.113	527.25
3289.165	521.25
3292.214	520.25
3295.261	516.25
3298.306	497.25
3301.348	496.25
3304.387	487.25
3307.425	481.25
3310.459	486.25
3313.492	483.25
3316.521	470.25
3319.549	475.25
3322.574	469.25
3325.597	458.25
3328.617	443.25
3331.635	462.25
3334.65	443.25
3337.663	449.25
3340.674	442.25
3343.682	441.25
3346.688	453.25
3349.691	443.25
3352.692	451.25
3355.691	444.25
3358.687	442.25
3361.681	437.25
3364.673	435.25
3367.662	437.25
3370.649	433.25
3373.633	405.25
3376.615	417.25
3379.595	395.25
3382.572	399.25
3385.547	382.25
3388.52	393.25
3391.49	389.25
3394.458	388.25
3397.424	383.25
3400.387	369.25
3403.348	365.25
3406.307	368.25
3409.263	374.25
3412.217	368.25
3415.168	368.25
3418.118	370.25
3421.065	356.25
3424.009	359.25
3426.951	347.25
3429.891	334.25
3432.829	337.25
3435.764	345.25
3438.697	314.25
3441.628	328.25
3444.557	297.25
3447.483	295.25
3450.407	299.25
3453.328	286.25
3456.247	281.25
3459.164	269.25
3462.079	273.25
3464.991	257.25
3467.902	252.25
3470.809	245.25
3473.715	253.25
3476.618	239.25
3479.519	232.25
3482.418	209.25
3485.315	215.25
3488.209	204.25
3491.101	206.25
3493.99	185.25
3496.878	183.25
3499.763	196.25
3502.646	186.25
3505.527	169.25
3508.405	166.25
3511.281	158.25
3514.155	162.25
3517.027	152.25
3519.897	143.25
3522.764	143.25
3525.629	118.25
3528.492	127.25
3531.352	123.25
3534.211	119.25
3537.067	113.25
3539.921	110.25
3542.773	115.25
3545.622	97.25
3548.469	91.25
3551.315	81.25
3554.157	85.25
3556.998	77.25
3559.837	78.25
3562.673	80.25
3565.507	60.25
3568.339	62.25
3571.169	71.25
3573.996	72.25
3576.822	40.25
3579.645	48.25
3582.466	48.25
3585.285	55.25
3588.101	49.25
3590.916	39.25
3593.728	55.25
3596.538	41.25
3599.346	42.25
3602.152	32.25
3604.956	34.25
3607.757	34.25
3610.556	15.25
3613.354	38.25
3616.149	32.25
3618.942	34.25
3621.732	23.25
3624.521	14.25
3627.307	6.25
3630.092	12.25
3632.874	25.25
3635.654	10.25
3638.432	5.25
3641.208	7.25
3643.982	9.25
3646.753	9.25
3649.523	-16.75
3652.29	3.25
3655.055	8.25
3657.818	4.25
3660.579	-3.75
3663.338	-12.75
3666.095	-11.75
3668.849	-30.75
3671.602	-0.75
3674.352	-15.75
3677.101	5.25
3679.847	-1.75
3682.591	-18.75
3685.333	-24.75
3688.073	-6.75
3690.811	-22.75
3693.547	-23.75
3696.281	-25.75
3699.013	-14.75
3701.742	-17.75
3704.47	-28.75
3707.195	-16.75
3709.919	-14.75
3712.64	-16.75
3715.359	-29.75
3718.076	-9.75
3720.792	-20.75
3723.505	-13.75
3726.216	-10.75
3728.925	-22.75
3731.632	-27.75
3734.336	-21.75
3737.039	-25.75
3739.74	-20.75
3742.439	-52.75
3745.136	-15.75
3747.83	-23.75
3750.523	-17.75
3753.213	-86.75
3755.902	-28.75
3758.589	-39.75
3761.273	-28.75
3763.956	-18.75
3766.636	-43.75
3769.315	-19.75
3771.991	-22.75
3774.665	-30.75
3777.338	-25.75
3780.008	-40.75
3782.677	-26.75
3785.343	-51.75
3788.007	-47.75
3790.67	-23.75
3793.33	-35.75
3795.989	-35.75
3798.645	-24.75
3801.299	-42.75
3803.952	-36.75
3806.602	-34.75
3809.251	-27.75
3811.897	-30.75
3814.542	-31.75
3817.184	-36.75
3819.825	-31.75
3822.463	-43.75
3825.1	-31.75
3827.735	-33.75
3830.367	-41.75
3832.998	-15.75
3835.627	-31.75
3838.253	-18.75
3840.878	-32.75
3843.501	-13.75
3846.122	-27.75
3848.741	-24.75
3851.358	-25.75
3853.973	-36.75
3856.586	-19.75
3859.197	-41.75
3861.806	-28.75
3864.414	-41.75
3867.019	-24.75
3869.622	-26.75
3872.224	-14.75
3874.823	-5.75
3877.421	21.25
3880.016	32.25
3882.61	69.25
3885.202	82.25
3887.792	60.25
3890.38	28.25
3892.966	-8.75
3895.55	-33.75
3898.132	-21.75
3900.713	-20.75
3903.291	-25.75
3905.868	-37.75
3908.442	-29.75
3911.015	-34.75
3913.586	-39.75
3916.155	-33.75
3918.722	-35.75
3921.287	-40.75
3923.85	-41.75
3926.411	-36.75
3928.971	-36.75
3931.528	-31.75
3934.084	-33.75
3936.638	-43.75
3939.19	-28.75
3941.74	-29.75
3944.288	-34.75
3946.834	-35.75
3949.378	-21.75
3951.921	-37.75
3954.462	-34.75
3957	-30.75
3959.537	-21.75
3962.072	-33.75
3964.606	-45.75
3967.137	-34.75
3969.667	-36.75
3972.194	-31.75
3974.72	-33.75
3977.244	-56.75
3979.766	-42.75
3982.286	-38.75
3984.805	-27.75
3987.321	-20.75
3989.836	-23.75
3992.349	-36.75
3994.86	-30.75
3997.369	-32.75
3999.877	-35.75
4002.382	-33.75
4004.886	-29.75
4007.388	-28.75
4009.888	-17.75
4012.386	-18.75
4014.883	-29.75
4017.377	-29.75
4019.87	-21.75
4022.361	-37.75
4024.85	-31.75
4027.338	-26.75
4029.823	-38.75
4032.307	-34.75
4034.789	-28.75
4037.269	-28.75
4039.747	-40.75
4042.224	-19.75
4044.699	-34.75
4047.172	-36.75
4049.643	-19.75
4052.112	-52.75
4054.58	-29.75
4057.046	-41.75
4059.51	-32.75
4061.972	-28.75
4064.432	-45.75
4066.891	-21.75
4069.348	-28.75
4071.803	-23.75
4074.256	-27.75
4076.708	-23.75
4079.158	-30.75
4081.606	-13.75
4084.052	-26.75
4086.497	-24.75
4088.939	-28.75
4091.38	-35.75
4093.819	-24.75
4096.257	-1.75
4098.693	-8.75
4101.127	-2.75
4103.559	4.25
4105.989	116.25
4108.418	114.25
4110.845	106.25
4113.27	119.25
4115.694	125.25
4118.115	119.25
4120.535	-24.75
4122.954	-18.75
4125.37	-19.75
4127.785	-27.75
4130.198	-20.75
4132.609	-24.75
4135.019	9.25
4137.427	-0.75
4139.833	5.25
4142.237	-4.75
