Data from 2018-3-6_conc=6_n=9_RamanShift_04.txt Node
Date: Tue Mar 06 15:20:18 GMT+02:00 2018
User: LAB3
Spectrometer: QEPB0276
Trigger mode: 0
Integration Time (sec): 3.000000E1
Scans to average: 1
Electric dark correction enabled: true
Nonlinearity correction enabled: false
Boxcar width: 0
XAxis mode: Raman Shifts
Number of Pixels in Spectrum: 1044
>>>>>Begin Spectral Data<<<<<
160.701	27.88
166.742	44.88
172.777	65.88
178.805	129.88
184.826	331.88
190.841	682.88
196.849	1083.88
202.85	1355.88
208.845	1459.88
214.833	1440.88
220.815	1406.88
226.789	1382.88
232.758	1422.88
238.719	1381.88
244.674	1354.88
250.623	1346.88
256.565	1324.88
262.5	1316.88
268.429	1308.88
274.351	1274.88
280.267	1284.88
286.176	1274.88
292.079	1280.88
297.975	1268.88
303.865	1265.88
309.748	1261.88
315.625	1252.88
321.495	1251.88
327.359	1254.88
333.217	1262.88
339.068	1254.88
344.912	1255.88
350.751	1271.88
356.583	1259.88
362.408	1282.88
368.227	1268.88
374.04	1273.88
379.847	1279.88
385.647	1281.88
391.44	1277.88
397.228	1296.88
403.009	1322.88
408.784	1297.88
414.553	1312.88
420.315	1309.88
426.071	1290.88
431.821	1316.88
437.565	1320.88
443.302	1288.88
449.033	1280.88
454.758	1290.88
460.477	1258.88
466.189	1254.88
471.896	1249.88
477.596	1240.88
483.29	1228.88
488.978	1221.88
494.66	1217.88
500.335	1181.88
506.005	1138.88
511.668	1071.88
517.325	1015.88
522.977	973.88
528.622	936.88
534.261	923.88
539.894	889.88
545.521	878.88
551.141	853.88
556.756	852.88
562.365	844.88
567.968	836.88
573.565	823.88
579.155	829.88
584.74	824.88
590.319	825.88
595.892	835.88
601.459	849.88
607.02	822.88
612.575	831.88
618.124	810.88
623.667	796.88
629.204	783.88
634.735	763.88
640.261	759.88
645.781	734.88
651.294	743.88
656.802	734.88
662.304	752.88
667.8	745.88
673.29	726.88
678.775	748.88
684.254	732.88
689.726	724.88
695.193	731.88
700.655	711.88
706.11	718.88
711.56	716.88
717.004	723.88
722.442	693.88
727.874	703.88
733.301	706.88
738.722	685.88
744.137	708.88
749.547	688.88
754.951	695.88
760.349	692.88
765.741	705.88
771.128	710.88
776.509	708.88
781.885	734.88
787.254	743.88
792.618	737.88
797.977	741.88
803.33	728.88
808.677	724.88
814.019	718.88
819.355	711.88
824.686	688.88
830.011	696.88
835.33	703.88
840.644	695.88
845.952	683.88
851.255	689.88
856.552	676.88
861.844	661.88
867.13	652.88
872.41	640.88
877.686	649.88
882.955	636.88
888.219	631.88
893.478	623.88
898.731	627.88
903.979	626.88
909.221	606.88
914.458	595.88
919.69	603.88
924.916	596.88
930.136	616.88
935.351	597.88
940.561	607.88
945.766	611.88
950.965	607.88
956.158	599.88
961.347	579.88
966.529	587.88
971.707	583.88
976.879	571.88
982.046	566.88
987.208	552.88
992.364	561.88
997.515	566.88
1002.66	560.88
1007.801	555.88
1012.936	567.88
1018.066	563.88
1023.19	567.88
1028.309	571.88
1033.423	567.88
1038.532	581.88
1043.636	564.88
1048.734	570.88
1053.827	555.88
1058.915	554.88
1063.998	553.88
1069.075	545.88
1074.147	553.88
1079.214	538.88
1084.276	552.88
1089.333	557.88
1094.385	558.88
1099.431	545.88
1104.472	549.88
1109.509	525.88
1114.54	527.88
1119.565	523.88
1124.586	522.88
1129.602	527.88
1134.613	489.88
1139.618	497.88
1144.619	506.88
1149.614	511.88
1154.604	502.88
1159.589	512.88
1164.57	522.88
1169.545	527.88
1174.515	519.88
1179.48	515.88
1184.44	502.88
1189.395	527.88
1194.345	495.88
1199.29	505.88
1204.23	493.88
1209.165	476.88
1214.095	508.88
1219.021	491.88
1223.941	488.88
1228.856	496.88
1233.766	504.88
1238.672	513.88
1243.572	504.88
1248.467	502.88
1253.358	490.88
1258.244	468.88
1263.124	488.88
1268	480.88
1272.871	445.88
1277.737	459.88
1282.599	460.88
1287.455	444.88
1292.306	458.88
1297.153	441.88
1301.995	455.88
1306.832	450.88
1311.664	452.88
1316.491	450.88
1321.314	460.88
1326.132	447.88
1330.945	453.88
1335.753	435.88
1340.556	435.88
1345.354	426.88
1350.148	424.88
1354.937	415.88
1359.722	405.88
1364.501	403.88
1369.276	423.88
1374.046	422.88
1378.811	399.88
1383.572	406.88
1388.327	402.88
1393.079	390.88
1397.825	393.88
1402.567	397.88
1407.304	378.88
1412.036	374.88
1416.764	382.88
1421.487	372.88
1426.205	377.88
1430.919	388.88
1435.628	382.88
1440.333	365.88
1445.032	387.88
1449.727	392.88
1454.418	400.88
1459.104	401.88
1463.785	380.88
1468.462	387.88
1473.134	379.88
1477.802	377.88
1482.465	360.88
1487.123	364.88
1491.777	346.88
1496.426	341.88
1501.071	366.88
1505.711	360.88
1510.347	369.88
1514.978	374.88
1519.604	357.88
1524.226	373.88
1528.844	354.88
1533.457	366.88
1538.065	363.88
1542.669	355.88
1547.269	355.88
1551.864	358.88
1556.454	341.88
1561.041	344.88
1565.622	339.88
1570.199	360.88
1574.772	358.88
1579.34	363.88
1583.904	359.88
1588.464	372.88
1593.019	380.88
1597.569	358.88
1602.115	355.88
1606.657	360.88
1611.195	361.88
1615.728	371.88
1620.256	353.88
1624.78	339.88
1629.3	348.88
1633.816	350.88
1638.327	351.88
1642.834	363.88
1647.336	357.88
1651.834	369.88
1656.328	358.88
1660.817	352.88
1665.302	341.88
1669.783	344.88
1674.259	334.88
1678.732	334.88
1683.199	324.88
1687.663	305.88
1692.122	317.88
1696.577	318.88
1701.028	312.88
1705.474	295.88
1709.917	291.88
1714.355	282.88
1718.788	284.88
1723.218	267.88
1727.643	263.88
1732.064	269.88
1736.481	256.88
1740.893	274.88
1745.301	250.88
1749.705	235.88
1754.105	241.88
1758.501	233.88
1762.893	250.88
1767.28	222.88
1771.663	235.88
1776.042	230.88
1780.417	219.88
1784.787	231.88
1789.154	239.88
1793.516	233.88
1797.874	229.88
1802.228	223.88
1806.578	221.88
1810.924	228.88
1815.266	107.88
1819.603	226.88
1823.937	204.88
1828.266	212.88
1832.591	213.88
1836.913	210.88
1841.23	202.88
1845.543	203.88
1849.852	206.88
1854.156	194.88
1858.457	199.88
1862.754	188.88
1867.047	198.88
1871.335	209.88
1875.62	206.88
1879.9	206.88
1884.177	194.88
1888.449	206.88
1892.718	201.88
1896.982	215.88
1901.243	193.88
1905.499	209.88
1909.752	187.88
1914	179.88
1918.245	198.88
1922.485	203.88
1926.722	197.88
1930.954	186.88
1935.183	207.88
1939.408	209.88
1943.628	202.88
1947.845	199.88
1952.058	190.88
1956.267	182.88
1960.472	191.88
1964.673	189.88
1968.87	185.88
1973.063	179.88
1977.252	180.88
1981.438	172.88
1985.619	175.88
1989.797	167.88
1993.971	171.88
1998.14	173.88
2002.306	169.88
2006.469	174.88
2010.627	162.88
2014.781	164.88
2018.932	162.88
2023.078	182.88
2027.221	169.88
2031.36	154.88
2035.495	161.88
2039.627	161.88
2043.754	155.88
2047.878	154.88
2051.998	148.88
2056.114	151.88
2060.226	148.88
2064.334	157.88
2068.439	162.88
2072.54	164.88
2076.637	142.88
2080.73	150.88
2084.82	155.88
2088.906	154.88
2092.988	148.88
2097.066	152.88
2101.14	161.88
2105.211	155.88
2109.278	148.88
2113.342	142.88
2117.401	141.88
2121.457	126.88
2125.509	131.88
2129.558	147.88
2133.602	138.88
2137.643	137.88
2141.681	137.88
2145.714	139.88
2149.744	141.88
2153.77	140.88
2157.793	132.88
2161.812	103.88
2165.827	109.88
2169.838	129.88
2173.846	119.88
2177.851	111.88
2181.851	125.88
2185.848	114.88
2189.841	114.88
2193.831	115.88
2197.817	120.88
2201.799	108.88
2205.778	101.88
2209.753	110.88
2213.725	105.88
2217.693	111.88
2221.657	98.88
2225.618	108.88
2229.575	104.88
2233.529	115.88
2237.479	109.88
2241.425	105.88
2245.368	87.88
2249.307	101.88
2253.243	92.88
2257.175	98.88
2261.104	88.88
2265.029	95.88
2268.95	96.88
2272.868	86.88
2276.783	84.88
2280.694	92.88
2284.601	94.88
2288.505	83.88
2292.405	94.88
2296.302	75.88
2300.195	87.88
2304.085	64.88
2307.971	89.88
2311.854	65.88
2315.734	75.88
2319.609	84.88
2323.482	56.88
2327.351	68.88
2331.216	75.88
2335.078	77.88
2338.937	69.88
2342.792	64.88
2346.643	63.88
2350.492	66.88
2354.336	65.88
2358.178	70.88
2362.015	64.88
2365.85	66.88
2369.681	63.88
2373.508	68.88
2377.333	67.88
2381.153	69.88
2384.971	69.88
2388.785	67.88
2392.595	53.88
2396.402	57.88
2400.206	35.88
2404.007	51.88
2407.804	58.88
2411.597	52.88
2415.388	57.88
2419.174	51.88
2422.958	56.88
2426.738	57.88
2430.515	61.88
2434.289	43.88
2438.059	49.88
2441.825	50.88
2445.589	59.88
2449.349	41.88
2453.106	59.88
2456.859	58.88
2460.61	55.88
2464.356	40.88
2468.1	38.88
2471.84	41.88
2475.577	47.88
2479.311	42.88
2483.041	43.88
2486.768	58.88
2490.492	62.88
2494.213	46.88
2497.93	38.88
2501.644	31.88
2505.355	45.88
2509.062	38.88
2512.766	38.88
2516.467	38.88
2520.165	34.88
2523.859	21.88
2527.551	65.88
2531.239	29.88
2534.923	40.88
2538.605	40.88
2542.283	39.88
2545.958	38.88
2549.63	48.88
2553.299	44.88
2556.964	22.88
2560.626	35.88
2564.285	35.88
2567.941	25.88
2571.594	27.88
2575.243	37.88
2578.89	29.88
2582.533	31.88
2586.173	33.88
2589.809	35.88
2593.443	1.88
2597.073	31.88
2600.701	39.88
2604.325	29.88
2607.946	21.88
2611.564	39.88
2615.178	29.88
2618.79	33.88
2622.398	30.88
2626.004	36.88
2629.606	29.88
2633.205	23.88
2636.801	31.88
2640.394	35.88
2643.983	23.88
2647.57	23.88
2651.153	21.88
2654.734	33.88
2658.311	2.88
2661.885	16.88
2665.456	16.88
2669.025	21.88
2672.589	11.88
2676.151	27.88
2679.71	31.88
2683.266	14.88
2686.819	8.88
2690.368	23.88
2693.915	31.88
2697.458	18.88
2700.999	26.88
2704.536	25.88
2708.071	15.88
2711.602	16.88
2715.13	10.88
2718.656	-2.12
2722.178	17.88
2725.697	4.88
2729.214	9.88
2732.727	16.88
2736.237	4.88
2739.744	14.88
2743.249	9.88
2746.75	15.88
2750.248	13.88
2753.743	17.88
2757.236	18.88
2760.725	17.88
2764.211	-13.12
2767.695	13.88
2771.175	14.88
2774.652	11.88
2778.127	10.88
2781.598	9.88
2785.067	18.88
2788.532	5.88
2791.995	19.88
2795.455	4.88
2798.911	16.88
2802.365	9.88
2805.816	7.88
2809.264	25.88
2812.709	5.88
2816.151	12.88
2819.59	0.88
2823.026	9.88
2826.46	6.88
2829.89	17.88
2833.318	-14.12
2836.742	4.88
2840.164	8.88
2843.583	4.88
2846.999	7.88
2850.412	10.88
2853.822	5.88
2857.229	23.88
2860.634	13.88
2864.035	-3.12
2867.434	10.88
2870.83	18.88
2874.223	4.88
2877.613	8.88
2881	9.88
2884.385	4.88
2887.766	9.88
2891.145	14.88
2894.521	10.88
2897.894	1.88
2901.264	16.88
2904.631	18.88
2907.996	21.88
2911.358	22.88
2914.717	18.88
2918.073	8.88
2921.426	10.88
2924.777	-3.12
2928.124	11.88
2931.469	18.88
2934.811	7.88
2938.15	30.88
2941.487	10.88
2944.821	31.88
2948.152	11.88
2951.48	24.88
2954.805	4.88
2958.128	32.88
2961.447	14.88
2964.765	33.88
2968.079	19.88
2971.39	21.88
2974.699	26.88
2978.005	26.88
2981.308	22.88
2984.609	16.88
2987.907	32.88
2991.202	33.88
2994.494	15.88
2997.784	30.88
3001.07	22.88
3004.355	26.88
3007.636	25.88
3010.915	31.88
3014.191	22.88
3017.464	29.88
3020.734	28.88
3024.002	32.88
3027.267	35.88
3030.53	31.88
3033.789	26.88
3037.046	26.88
3040.301	23.88
3043.552	36.88
3046.801	35.88
3050.048	39.88
3053.291	53.88
3056.532	41.88
3059.771	29.88
3063.006	45.88
3066.239	42.88
3069.469	46.88
3072.697	42.88
3075.922	30.88
3079.144	38.88
3082.364	58.88
3085.581	42.88
3088.795	66.88
3092.007	56.88
3095.216	59.88
3098.423	53.88
3101.627	34.88
3104.828	60.88
3108.026	54.88
3111.222	70.88
3114.416	70.88
3117.607	68.88
3120.795	71.88
3123.98	73.88
3127.163	59.88
3130.344	70.88
3133.521	68.88
3136.696	87.88
3139.869	80.88
3143.039	63.88
3146.206	92.88
3149.371	95.88
3152.533	84.88
3155.693	76.88
3158.85	87.88
3162.005	91.88
3165.157	95.88
3168.306	91.88
3171.453	104.88
3174.597	77.88
3177.739	84.88
3180.878	103.88
3184.014	102.88
3187.149	95.88
3190.28	99.88
3193.409	104.88
3196.536	107.88
3199.659	105.88
3202.781	102.88
3205.9	90.88
3209.016	104.88
3212.13	94.88
3215.241	89.88
3218.35	92.88
3221.456	90.88
3224.56	76.88
3227.661	84.88
3230.76	85.88
3233.856	80.88
3236.95	85.88
3240.041	75.88
3243.13	88.88
3246.216	85.88
3249.3	88.88
3252.382	86.88
3255.46	77.88
3258.537	36.88
3261.611	75.88
3264.682	82.88
3267.751	80.88
3270.818	66.88
3273.882	82.88
3276.943	83.88
3280.002	92.88
3283.059	74.88
3286.113	73.88
3289.165	70.88
3292.214	76.88
3295.261	85.88
3298.306	59.88
3301.348	74.88
3304.387	66.88
3307.425	79.88
3310.459	73.88
3313.492	77.88
3316.521	73.88
3319.549	80.88
3322.574	79.88
3325.597	65.88
3328.617	58.88
3331.635	63.88
3334.65	47.88
3337.663	63.88
3340.674	65.88
3343.682	65.88
3346.688	66.88
3349.691	53.88
3352.692	56.88
3355.691	68.88
3358.687	59.88
3361.681	56.88
3364.673	59.88
3367.662	62.88
3370.649	67.88
3373.633	48.88
3376.615	60.88
3379.595	41.88
3382.572	53.88
3385.547	39.88
3388.52	39.88
3391.49	43.88
3394.458	43.88
3397.424	42.88
3400.387	37.88
3403.348	47.88
3406.307	41.88
3409.263	42.88
3412.217	49.88
3415.168	41.88
3418.118	54.88
3421.065	42.88
3424.009	52.88
3426.951	35.88
3429.891	38.88
3432.829	38.88
3435.764	44.88
3438.697	35.88
3441.628	44.88
3444.557	29.88
3447.483	24.88
3450.407	38.88
3453.328	23.88
3456.247	24.88
3459.164	18.88
3462.079	34.88
3464.991	27.88
3467.902	23.88
3470.809	26.88
3473.715	24.88
3476.618	20.88
3479.519	22.88
3482.418	-0.12
3485.315	4.88
3488.209	6.88
3491.101	10.88
3493.99	-3.12
3496.878	-5.12
3499.763	4.88
3502.646	3.88
3505.527	-5.12
3508.405	-2.12
3511.281	-13.12
3514.155	-3.12
3517.027	-5.12
3519.897	-11.12
3522.764	-2.12
3525.629	-24.12
3528.492	-7.12
3531.352	-0.12
3534.211	-6.12
3537.067	-9.12
3539.921	-10.12
3542.773	-0.12
3545.622	-17.12
3548.469	-21.12
3551.315	-21.12
3554.157	-13.12
3556.998	-30.12
3559.837	-20.12
3562.673	-9.12
3565.507	-29.12
3568.339	-26.12
3571.169	-22.12
3573.996	-16.12
3576.822	-32.12
3579.645	-27.12
3582.466	-27.12
3585.285	-16.12
3588.101	-23.12
3590.916	-30.12
3593.728	-18.12
3596.538	-25.12
3599.346	-22.12
3602.152	-31.12
3604.956	-20.12
3607.757	-20.12
3610.556	-34.12
3613.354	-14.12
3616.149	-21.12
3618.942	-20.12
3621.732	-23.12
3624.521	-29.12
3627.307	-34.12
3630.092	-32.12
3632.874	-16.12
3635.654	-26.12
3638.432	-37.12
3641.208	-38.12
3643.982	-31.12
3646.753	-26.12
3649.523	-55.12
3652.29	-39.12
3655.055	-27.12
3657.818	-28.12
3660.579	-37.12
3663.338	-42.12
3666.095	-34.12
3668.849	-54.12
3671.602	-26.12
3674.352	-41.12
3677.101	-23.12
3679.847	-25.12
3682.591	-36.12
3685.333	-38.12
3688.073	-31.12
3690.811	-40.12
3693.547	-45.12
3696.281	-43.12
3699.013	-26.12
3701.742	-35.12
3704.47	-40.12
3707.195	-33.12
3709.919	-32.12
3712.64	-31.12
3715.359	-48.12
3718.076	-21.12
3720.792	-31.12
3723.505	-25.12
3726.216	-21.12
3728.925	-38.12
3731.632	-35.12
3734.336	-37.12
3737.039	-36.12
3739.74	-31.12
3742.439	-57.12
3745.136	-32.12
3747.83	-37.12
3750.523	-31.12
3753.213	-107.12
3755.902	-40.12
3758.589	-50.12
3761.273	-40.12
3763.956	-32.12
3766.636	-48.12
3769.315	-26.12
3771.991	-36.12
3774.665	-40.12
3777.338	-32.12
3780.008	-47.12
3782.677	-39.12
3785.343	-48.12
3788.007	-54.12
3790.67	-29.12
3793.33	-40.12
3795.989	-39.12
3798.645	-32.12
3801.299	-43.12
3803.952	-44.12
3806.602	-37.12
3809.251	-31.12
3811.897	-33.12
3814.542	-33.12
3817.184	-35.12
3819.825	-36.12
3822.463	-45.12
3825.1	-39.12
3827.735	-35.12
3830.367	-43.12
3832.998	-26.12
3835.627	-41.12
3838.253	-30.12
3840.878	-42.12
3843.501	-19.12
3846.122	-34.12
3848.741	-28.12
3851.358	-30.12
3853.973	-45.12
3856.586	-25.12
3859.197	-43.12
3861.806	-38.12
3864.414	-49.12
3867.019	-38.12
3869.622	-31.12
3872.224	-31.12
3874.823	-24.12
3877.421	-4.12
3880.016	4.88
3882.61	29.88
3885.202	38.88
3887.792	27.88
3890.38	5.88
3892.966	-25.12
3895.55	-35.12
3898.132	-26.12
3900.713	-25.12
3903.291	-33.12
3905.868	-43.12
3908.442	-32.12
3911.015	-30.12
3913.586	-37.12
3916.155	-33.12
3918.722	-44.12
3921.287	-40.12
3923.85	-50.12
3926.411	-39.12
3928.971	-41.12
3931.528	-32.12
3934.084	-32.12
3936.638	-48.12
3939.19	-35.12
3941.74	-33.12
3944.288	-36.12
3946.834	-41.12
3949.378	-33.12
3951.921	-36.12
3954.462	-42.12
3957	-35.12
3959.537	-26.12
3962.072	-41.12
3964.606	-51.12
3967.137	-42.12
3969.667	-43.12
3972.194	-30.12
3974.72	-38.12
3977.244	-63.12
3979.766	-42.12
3982.286	-40.12
3984.805	-32.12
3987.321	-24.12
3989.836	-27.12
3992.349	-43.12
3994.86	-33.12
3997.369	-41.12
3999.877	-37.12
4002.382	-40.12
4004.886	-28.12
4007.388	-34.12
4009.888	-27.12
4012.386	-28.12
4014.883	-30.12
4017.377	-37.12
4019.87	-33.12
4022.361	-41.12
4024.85	-37.12
4027.338	-32.12
4029.823	-42.12
4032.307	-39.12
4034.789	-36.12
4037.269	-36.12
4039.747	-51.12
4042.224	-29.12
4044.699	-47.12
4047.172	-41.12
4049.643	-32.12
4052.112	-64.12
4054.58	-36.12
4057.046	-48.12
4059.51	-36.12
4061.972	-33.12
4064.432	-58.12
4066.891	-26.12
4069.348	-36.12
4071.803	-33.12
4074.256	-34.12
4076.708	-29.12
4079.158	-32.12
4081.606	-25.12
4084.052	-34.12
4086.497	-31.12
4088.939	-37.12
4091.38	-44.12
4093.819	-27.12
4096.257	-1.12
4098.693	-6.12
4101.127	-3.12
4103.559	-1.12
4105.989	29.88
4108.418	39.88
4110.845	24.88
4113.27	30.88
4115.694	31.88
4118.115	21.88
4120.535	-32.12
4122.954	-30.12
4125.37	-20.12
4127.785	-29.12
4130.198	-26.12
4132.609	-34.12
4135.019	7.88
4137.427	1.88
4139.833	6.88
4142.237	-5.12
