Data from 2018-3-6_conc=5_n=9_RamanShift_04.txt Node
Date: Tue Mar 06 14:48:48 GMT+02:00 2018
User: LAB3
Spectrometer: QEPB0276
Trigger mode: 0
Integration Time (sec): 3.000000E1
Scans to average: 1
Electric dark correction enabled: true
Nonlinearity correction enabled: false
Boxcar width: 0
XAxis mode: Raman Shifts
Number of Pixels in Spectrum: 1044
>>>>>Begin Spectral Data<<<<<
160.701	34.62
166.742	54.62
172.777	83.62
178.805	164.62
184.826	414.62
190.841	853.62
196.849	1343.62
202.85	1710.62
208.845	1864.62
214.833	1838.62
220.815	1788.62
226.789	1787.62
232.758	1775.62
238.719	1762.62
244.674	1727.62
250.623	1730.62
256.565	1704.62
262.5	1680.62
268.429	1646.62
274.351	1651.62
280.267	1640.62
286.176	1633.62
292.079	1625.62
297.975	1630.62
303.865	1632.62
309.748	1630.62
315.625	1621.62
321.495	1618.62
327.359	1620.62
333.217	1614.62
339.068	1601.62
344.912	1615.62
350.751	1620.62
356.583	1614.62
362.408	1638.62
368.227	1639.62
374.04	1643.62
379.847	1648.62
385.647	1682.62
391.44	1644.62
397.228	1672.62
403.009	1659.62
408.784	1680.62
414.553	1684.62
420.315	1696.62
426.071	1675.62
431.821	1685.62
437.565	1701.62
443.302	1668.62
449.033	1658.62
454.758	1676.62
460.477	1645.62
466.189	1628.62
471.896	1629.62
477.596	1604.62
483.29	1588.62
488.978	1590.62
494.66	1587.62
500.335	1544.62
506.005	1447.62
511.668	1387.62
517.325	1334.62
522.977	1268.62
528.622	1218.62
534.261	1196.62
539.894	1176.62
545.521	1149.62
551.141	1126.62
556.756	1113.62
562.365	1102.62
567.968	1090.62
573.565	1085.62
579.155	1093.62
584.74	1077.62
590.319	1079.62
595.892	1084.62
601.459	1078.62
607.02	1075.62
612.575	1074.62
618.124	1070.62
623.667	1045.62
629.204	1013.62
634.735	1025.62
640.261	997.62
645.781	965.62
651.294	978.62
656.802	980.62
662.304	986.62
667.8	988.62
673.29	971.62
678.775	977.62
684.254	962.62
689.726	948.62
695.193	962.62
700.655	940.62
706.11	953.62
711.56	932.62
717.004	954.62
722.442	907.62
727.874	929.62
733.301	932.62
738.722	913.62
744.137	918.62
749.547	895.62
754.951	922.62
760.349	914.62
765.741	926.62
771.128	928.62
776.509	935.62
781.885	968.62
787.254	972.62
792.618	983.62
797.977	983.62
803.33	964.62
808.677	944.62
814.019	954.62
819.355	943.62
824.686	929.62
830.011	913.62
835.33	926.62
840.644	937.62
845.952	898.62
851.255	914.62
856.552	889.62
861.844	894.62
867.13	880.62
872.41	856.62
877.686	857.62
882.955	849.62
888.219	841.62
893.478	827.62
898.731	815.62
903.979	816.62
909.221	791.62
914.458	785.62
919.69	792.62
924.916	798.62
930.136	798.62
935.351	799.62
940.561	809.62
945.766	798.62
950.965	800.62
956.158	785.62
961.347	759.62
966.529	762.62
971.707	774.62
976.879	745.62
982.046	746.62
987.208	727.62
992.364	746.62
997.515	747.62
1002.66	752.62
1007.801	752.62
1012.936	759.62
1018.066	737.62
1023.19	761.62
1028.309	773.62
1033.423	768.62
1038.532	770.62
1043.636	765.62
1048.734	761.62
1053.827	739.62
1058.915	742.62
1063.998	734.62
1069.075	717.62
1074.147	750.62
1079.214	716.62
1084.276	738.62
1089.333	744.62
1094.385	746.62
1099.431	730.62
1104.472	734.62
1109.509	721.62
1114.54	712.62
1119.565	709.62
1124.586	688.62
1129.602	681.62
1134.613	668.62
1139.618	663.62
1144.619	665.62
1149.614	673.62
1154.604	662.62
1159.589	671.62
1164.57	695.62
1169.545	691.62
1174.515	686.62
1179.48	679.62
1184.44	684.62
1189.395	680.62
1194.345	650.62
1199.29	680.62
1204.23	648.62
1209.165	650.62
1214.095	667.62
1219.021	666.62
1223.941	667.62
1228.856	669.62
1233.766	670.62
1238.672	672.62
1243.572	678.62
1248.467	675.62
1253.358	670.62
1258.244	635.62
1263.124	651.62
1268	630.62
1272.871	597.62
1277.737	617.62
1282.599	610.62
1287.455	606.62
1292.306	621.62
1297.153	597.62
1301.995	610.62
1306.832	610.62
1311.664	611.62
1316.491	606.62
1321.314	609.62
1326.132	598.62
1330.945	602.62
1335.753	592.62
1340.556	570.62
1345.354	571.62
1350.148	565.62
1354.937	565.62
1359.722	542.62
1364.501	549.62
1369.276	560.62
1374.046	563.62
1378.811	547.62
1383.572	558.62
1388.327	549.62
1393.079	537.62
1397.825	530.62
1402.567	532.62
1407.304	527.62
1412.036	520.62
1416.764	522.62
1421.487	501.62
1426.205	520.62
1430.919	518.62
1435.628	516.62
1440.333	503.62
1445.032	529.62
1449.727	534.62
1454.418	530.62
1459.104	540.62
1463.785	521.62
1468.462	524.62
1473.134	520.62
1477.802	503.62
1482.465	477.62
1487.123	497.62
1491.777	475.62
1496.426	469.62
1501.071	503.62
1505.711	489.62
1510.347	495.62
1514.978	504.62
1519.604	483.62
1524.226	502.62
1528.844	486.62
1533.457	492.62
1538.065	487.62
1542.669	474.62
1547.269	483.62
1551.864	487.62
1556.454	465.62
1561.041	464.62
1565.622	463.62
1570.199	477.62
1574.772	483.62
1579.34	491.62
1583.904	490.62
1588.464	492.62
1593.019	493.62
1597.569	479.62
1602.115	481.62
1606.657	478.62
1611.195	503.62
1615.728	495.62
1620.256	482.62
1624.78	470.62
1629.3	481.62
1633.816	489.62
1638.327	484.62
1642.834	492.62
1647.336	483.62
1651.834	498.62
1656.328	485.62
1660.817	481.62
1665.302	481.62
1669.783	474.62
1674.259	459.62
1678.732	458.62
1683.199	449.62
1687.663	437.62
1692.122	438.62
1696.577	420.62
1701.028	420.62
1705.474	402.62
1709.917	395.62
1714.355	389.62
1718.788	387.62
1723.218	376.62
1727.643	361.62
1732.064	365.62
1736.481	351.62
1740.893	364.62
1745.301	347.62
1749.705	323.62
1754.105	347.62
1758.501	322.62
1762.893	338.62
1767.28	308.62
1771.663	311.62
1776.042	319.62
1780.417	305.62
1784.787	319.62
1789.154	332.62
1793.516	315.62
1797.874	320.62
1802.228	308.62
1806.578	298.62
1810.924	315.62
1815.266	203.62
1819.603	310.62
1823.937	294.62
1828.266	301.62
1832.591	299.62
1836.913	292.62
1841.23	276.62
1845.543	275.62
1849.852	295.62
1854.156	277.62
1858.457	287.62
1862.754	275.62
1867.047	282.62
1871.335	290.62
1875.62	299.62
1879.9	295.62
1884.177	283.62
1888.449	282.62
1892.718	279.62
1896.982	296.62
1901.243	273.62
1905.499	276.62
1909.752	269.62
1914	259.62
1918.245	273.62
1922.485	278.62
1926.722	273.62
1930.954	270.62
1935.183	290.62
1939.408	275.62
1943.628	288.62
1947.845	274.62
1952.058	275.62
1956.267	266.62
1960.472	272.62
1964.673	263.62
1968.87	260.62
1973.063	263.62
1977.252	254.62
1981.438	241.62
1985.619	237.62
1989.797	233.62
1993.971	230.62
1998.14	248.62
2002.306	239.62
2006.469	239.62
2010.627	228.62
2014.781	214.62
2018.932	226.62
2023.078	248.62
2027.221	229.62
2031.36	221.62
2035.495	224.62
2039.627	232.62
2043.754	231.62
2047.878	216.62
2051.998	216.62
2056.114	213.62
2060.226	224.62
2064.334	222.62
2068.439	226.62
2072.54	233.62
2076.637	213.62
2080.73	221.62
2084.82	210.62
2088.906	220.62
2092.988	216.62
2097.066	225.62
2101.14	222.62
2105.211	224.62
2109.278	208.62
2113.342	208.62
2117.401	201.62
2121.457	194.62
2125.509	193.62
2129.558	200.62
2133.602	192.62
2137.643	199.62
2141.681	190.62
2145.714	197.62
2149.744	195.62
2153.77	183.62
2157.793	182.62
2161.812	159.62
2165.827	161.62
2169.838	186.62
2173.846	167.62
2177.851	166.62
2181.851	182.62
2185.848	166.62
2189.841	170.62
2193.831	162.62
2197.817	166.62
2201.799	163.62
2205.778	151.62
2209.753	146.62
2213.725	146.62
2217.693	154.62
2221.657	146.62
2225.618	158.62
2229.575	154.62
2233.529	146.62
2237.479	162.62
2241.425	145.62
2245.368	131.62
2249.307	154.62
2253.243	141.62
2257.175	147.62
2261.104	129.62
2265.029	134.62
2268.95	136.62
2272.868	139.62
2276.783	126.62
2280.694	137.62
2284.601	131.62
2288.505	129.62
2292.405	130.62
2296.302	115.62
2300.195	122.62
2304.085	94.62
2307.971	118.62
2311.854	102.62
2315.734	111.62
2319.609	112.62
2323.482	93.62
2327.351	99.62
2331.216	98.62
2335.078	117.62
2338.937	104.62
2342.792	95.62
2346.643	98.62
2350.492	107.62
2354.336	100.62
2358.178	102.62
2362.015	105.62
2365.85	97.62
2369.681	91.62
2373.508	99.62
2377.333	104.62
2381.153	105.62
2384.971	95.62
2388.785	104.62
2392.595	86.62
2396.402	83.62
2400.206	66.62
2404.007	75.62
2407.804	86.62
2411.597	88.62
2415.388	82.62
2419.174	83.62
2422.958	90.62
2426.738	89.62
2430.515	88.62
2434.289	79.62
2438.059	82.62
2441.825	82.62
2445.589	92.62
2449.349	70.62
2453.106	83.62
2456.859	84.62
2460.61	90.62
2464.356	64.62
2468.1	63.62
2471.84	71.62
2475.577	70.62
2479.311	70.62
2483.041	72.62
2486.768	84.62
2490.492	83.62
2494.213	74.62
2497.93	61.62
2501.644	63.62
2505.355	68.62
2509.062	72.62
2512.766	70.62
2516.467	70.62
2520.165	65.62
2523.859	48.62
2527.551	86.62
2531.239	54.62
2534.923	70.62
2538.605	62.62
2542.283	68.62
2545.958	65.62
2549.63	74.62
2553.299	72.62
2556.964	57.62
2560.626	67.62
2564.285	64.62
2567.941	49.62
2571.594	50.62
2575.243	63.62
2578.89	56.62
2582.533	54.62
2586.173	59.62
2589.809	61.62
2593.443	35.62
2597.073	52.62
2600.701	54.62
2604.325	53.62
2607.946	39.62
2611.564	61.62
2615.178	55.62
2618.79	57.62
2622.398	47.62
2626.004	53.62
2629.606	59.62
2633.205	40.62
2636.801	55.62
2640.394	57.62
2643.983	44.62
2647.57	51.62
2651.153	42.62
2654.734	54.62
2658.311	24.62
2661.885	38.62
2665.456	39.62
2669.025	37.62
2672.589	39.62
2676.151	52.62
2679.71	41.62
2683.266	41.62
2686.819	37.62
2690.368	47.62
2693.915	45.62
2697.458	43.62
2700.999	42.62
2704.536	45.62
2708.071	34.62
2711.602	40.62
2715.13	32.62
2718.656	17.62
2722.178	34.62
2725.697	16.62
2729.214	29.62
2732.727	29.62
2736.237	16.62
2739.744	24.62
2743.249	20.62
2746.75	29.62
2750.248	24.62
2753.743	31.62
2757.236	33.62
2760.725	41.62
2764.211	-1.38
2767.695	33.62
2771.175	27.62
2774.652	35.62
2778.127	29.62
2781.598	28.62
2785.067	31.62
2788.532	17.62
2791.995	30.62
2795.455	20.62
2798.911	35.62
2802.365	25.62
2805.816	29.62
2809.264	41.62
2812.709	27.62
2816.151	24.62
2819.59	19.62
2823.026	23.62
2826.46	22.62
2829.89	33.62
2833.318	8.62
2836.742	25.62
2840.164	24.62
2843.583	20.62
2846.999	25.62
2850.412	25.62
2853.822	20.62
2857.229	33.62
2860.634	32.62
2864.035	12.62
2867.434	33.62
2870.83	32.62
2874.223	19.62
2877.613	24.62
2881	18.62
2884.385	23.62
2887.766	27.62
2891.145	30.62
2894.521	24.62
2897.894	12.62
2901.264	42.62
2904.631	35.62
2907.996	35.62
2911.358	38.62
2914.717	35.62
2918.073	32.62
2921.426	28.62
2924.777	7.62
2928.124	27.62
2931.469	44.62
2934.811	25.62
2938.15	50.62
2941.487	35.62
2944.821	61.62
2948.152	33.62
2951.48	48.62
2954.805	24.62
2958.128	48.62
2961.447	42.62
2964.765	54.62
2968.079	35.62
2971.39	45.62
2974.699	47.62
2978.005	46.62
2981.308	42.62
2984.609	34.62
2987.907	49.62
2991.202	50.62
2994.494	37.62
2997.784	47.62
3001.07	39.62
3004.355	38.62
3007.636	41.62
3010.915	47.62
3014.191	47.62
3017.464	46.62
3020.734	48.62
3024.002	53.62
3027.267	49.62
3030.53	51.62
3033.789	53.62
3037.046	46.62
3040.301	44.62
3043.552	49.62
3046.801	54.62
3050.048	67.62
3053.291	86.62
3056.532	66.62
3059.771	51.62
3063.006	76.62
3066.239	66.62
3069.469	75.62
3072.697	64.62
3075.922	68.62
3079.144	72.62
3082.364	93.62
3085.581	70.62
3088.795	100.62
3092.007	91.62
3095.216	98.62
3098.423	81.62
3101.627	57.62
3104.828	91.62
3108.026	87.62
3111.222	101.62
3114.416	112.62
3117.607	98.62
3120.795	106.62
3123.98	108.62
3127.163	95.62
3130.344	105.62
3133.521	104.62
3136.696	119.62
3139.869	120.62
3143.039	102.62
3146.206	129.62
3149.371	134.62
3152.533	130.62
3155.693	119.62
3158.85	134.62
3162.005	132.62
3165.157	129.62
3168.306	126.62
3171.453	142.62
3174.597	126.62
3177.739	125.62
3180.878	143.62
3184.014	136.62
3187.149	130.62
3190.28	144.62
3193.409	139.62
3196.536	141.62
3199.659	147.62
3202.781	149.62
3205.9	126.62
3209.016	139.62
3212.13	139.62
3215.241	139.62
3218.35	134.62
3221.456	132.62
3224.56	119.62
3227.661	128.62
3230.76	125.62
3233.856	125.62
3236.95	125.62
3240.041	119.62
3243.13	136.62
3246.216	127.62
3249.3	125.62
3252.382	127.62
3255.46	113.62
3258.537	74.62
3261.611	109.62
3264.682	120.62
3267.751	116.62
3270.818	107.62
3273.882	126.62
3276.943	120.62
3280.002	125.62
3283.059	104.62
3286.113	111.62
3289.165	105.62
3292.214	106.62
3295.261	120.62
3298.306	94.62
3301.348	112.62
3304.387	95.62
3307.425	110.62
3310.459	106.62
3313.492	107.62
3316.521	100.62
3319.549	106.62
3322.574	104.62
3325.597	99.62
3328.617	99.62
3331.635	96.62
3334.65	70.62
3337.663	100.62
3340.674	88.62
3343.682	90.62
3346.688	98.62
3349.691	84.62
3352.692	85.62
3355.691	100.62
3358.687	90.62
3361.681	94.62
3364.673	82.62
3367.662	85.62
3370.649	91.62
3373.633	83.62
3376.615	87.62
3379.595	70.62
3382.572	79.62
3385.547	75.62
3388.52	70.62
3391.49	75.62
3394.458	73.62
3397.424	83.62
3400.387	59.62
3403.348	77.62
3406.307	75.62
3409.263	72.62
3412.217	76.62
3415.168	73.62
3418.118	73.62
3421.065	65.62
3424.009	76.62
3426.951	63.62
3429.891	63.62
3432.829	66.62
3435.764	66.62
3438.697	52.62
3441.628	72.62
3444.557	41.62
3447.483	46.62
3450.407	54.62
3453.328	47.62
3456.247	43.62
3459.164	38.62
3462.079	51.62
3464.991	39.62
3467.902	45.62
3470.809	32.62
3473.715	41.62
3476.618	34.62
3479.519	34.62
3482.418	19.62
3485.315	19.62
3488.209	20.62
3491.101	21.62
3493.99	9.62
3496.878	17.62
3499.763	18.62
3502.646	19.62
3505.527	10.62
3508.405	12.62
3511.281	-0.38
3514.155	12.62
3517.027	7.62
3519.897	0.62
3522.764	12.62
3525.629	-5.38
3528.492	6.62
3531.352	2.62
3534.211	7.62
3537.067	-3.38
3539.921	-2.38
3542.773	5.62
3545.622	-10.38
3548.469	-12.38
3551.315	-13.38
3554.157	-3.38
3556.998	-12.38
3559.837	-13.38
3562.673	-6.38
3565.507	-15.38
3568.339	-22.38
3571.169	-15.38
3573.996	-15.38
3576.822	-30.38
3579.645	-27.38
3582.466	-17.38
3585.285	-17.38
3588.101	-19.38
3590.916	-25.38
3593.728	-14.38
3596.538	-25.38
3599.346	-15.38
3602.152	-31.38
3604.956	-20.38
3607.757	-19.38
3610.556	-36.38
3613.354	-21.38
3616.149	-23.38
3618.942	-20.38
3621.732	-21.38
3624.521	-28.38
3627.307	-32.38
3630.092	-34.38
3632.874	-14.38
3635.654	-26.38
3638.432	-31.38
3641.208	-30.38
3643.982	-28.38
3646.753	-22.38
3649.523	-49.38
3652.29	-29.38
3655.055	-23.38
3657.818	-26.38
3660.579	-30.38
3663.338	-40.38
3666.095	-32.38
3668.849	-55.38
3671.602	-24.38
3674.352	-40.38
3677.101	-18.38
3679.847	-19.38
3682.591	-36.38
3685.333	-42.38
3688.073	-32.38
3690.811	-42.38
3693.547	-42.38
3696.281	-45.38
3699.013	-28.38
3701.742	-33.38
3704.47	-45.38
3707.195	-28.38
3709.919	-30.38
3712.64	-38.38
3715.359	-48.38
3718.076	-23.38
3720.792	-36.38
3723.505	-33.38
3726.216	-22.38
3728.925	-42.38
3731.632	-41.38
3734.336	-31.38
3737.039	-35.38
3739.74	-32.38
3742.439	-60.38
3745.136	-28.38
3747.83	-33.38
3750.523	-29.38
3753.213	-93.38
3755.902	-38.38
3758.589	-45.38
3761.273	-36.38
3763.956	-24.38
3766.636	-46.38
3769.315	-30.38
3771.991	-36.38
3774.665	-39.38
3777.338	-37.38
3780.008	-43.38
3782.677	-33.38
3785.343	-48.38
3788.007	-50.38
3790.67	-29.38
3793.33	-45.38
3795.989	-32.38
3798.645	-34.38
3801.299	-43.38
3803.952	-45.38
3806.602	-40.38
3809.251	-34.38
3811.897	-35.38
3814.542	-39.38
3817.184	-38.38
3819.825	-36.38
3822.463	-47.38
3825.1	-39.38
3827.735	-34.38
3830.367	-46.38
3832.998	-23.38
3835.627	-38.38
3838.253	-30.38
3840.878	-40.38
3843.501	-19.38
3846.122	-32.38
3848.741	-30.38
3851.358	-32.38
3853.973	-51.38
3856.586	-28.38
3859.197	-44.38
3861.806	-38.38
3864.414	-50.38
3867.019	-40.38
3869.622	-28.38
3872.224	-30.38
3874.823	-21.38
3877.421	-4.38
3880.016	8.62
3882.61	47.62
3885.202	52.62
3887.792	27.62
3890.38	7.62
3892.966	-23.38
3895.55	-36.38
3898.132	-31.38
3900.713	-25.38
3903.291	-30.38
3905.868	-42.38
3908.442	-35.38
3911.015	-34.38
3913.586	-43.38
3916.155	-35.38
3918.722	-40.38
3921.287	-43.38
3923.85	-49.38
3926.411	-42.38
3928.971	-42.38
3931.528	-33.38
3934.084	-37.38
3936.638	-47.38
3939.19	-30.38
3941.74	-32.38
3944.288	-38.38
3946.834	-38.38
3949.378	-23.38
3951.921	-38.38
3954.462	-36.38
3957	-37.38
3959.537	-26.38
3962.072	-44.38
3964.606	-57.38
3967.137	-42.38
3969.667	-44.38
3972.194	-37.38
3974.72	-41.38
3977.244	-61.38
3979.766	-46.38
3982.286	-40.38
3984.805	-33.38
3987.321	-29.38
3989.836	-31.38
3992.349	-39.38
3994.86	-32.38
3997.369	-44.38
3999.877	-35.38
4002.382	-38.38
4004.886	-31.38
4007.388	-30.38
4009.888	-23.38
4012.386	-27.38
4014.883	-32.38
4017.377	-32.38
4019.87	-30.38
4022.361	-46.38
4024.85	-35.38
4027.338	-35.38
4029.823	-39.38
4032.307	-39.38
4034.789	-34.38
4037.269	-36.38
4039.747	-51.38
4042.224	-30.38
4044.699	-44.38
4047.172	-39.38
4049.643	-28.38
4052.112	-64.38
4054.58	-36.38
4057.046	-48.38
4059.51	-36.38
4061.972	-38.38
4064.432	-54.38
4066.891	-25.38
4069.348	-36.38
4071.803	-32.38
4074.256	-38.38
4076.708	-30.38
4079.158	-37.38
4081.606	-25.38
4084.052	-35.38
4086.497	-33.38
4088.939	-36.38
4091.38	-40.38
4093.819	-27.38
4096.257	1.62
4098.693	-4.38
4101.127	-10.38
4103.559	2.62
4105.989	36.62
4108.418	45.62
4110.845	23.62
4113.27	32.62
4115.694	42.62
4118.115	22.62
4120.535	-34.38
4122.954	-25.38
4125.37	-23.38
4127.785	-31.38
4130.198	-28.38
4132.609	-28.38
4135.019	8.62
4137.427	-0.38
4139.833	5.62
4142.237	-3.38
