Data from 2018-3-6_conc=4_n=2_RamanShift_01.txt Node
Date: Tue Mar 06 13:53:19 GMT+02:00 2018
User: LAB3
Spectrometer: QEPB0276
Trigger mode: 0
Integration Time (sec): 3.000000E1
Scans to average: 1
Electric dark correction enabled: true
Nonlinearity correction enabled: false
Boxcar width: 0
XAxis mode: Raman Shifts
Number of Pixels in Spectrum: 1044
>>>>>Begin Spectral Data<<<<<
160.701	121.12
166.742	151.12
172.777	223.12
178.805	429.12
184.826	961.12
190.841	1933.12
196.849	3038.12
202.85	3907.12
208.845	4163.12
214.833	4161.12
220.815	4114.12
226.789	4104.12
232.758	4144.12
238.719	4140.12
244.674	4122.12
250.623	4081.12
256.565	4030.12
262.5	3980.12
268.429	3983.12
274.351	4002.12
280.267	3949.12
286.176	3967.12
292.079	3974.12
297.975	3993.12
303.865	3984.12
309.748	3967.12
315.625	4002.12
321.495	4039.12
327.359	3987.12
333.217	3999.12
339.068	4045.12
344.912	4057.12
350.751	4026.12
356.583	4093.12
362.408	4090.12
368.227	4102.12
374.04	4106.12
379.847	4153.12
385.647	4187.12
391.44	4178.12
397.228	4210.12
403.009	4274.12
408.784	4265.12
414.553	4298.12
420.315	4315.12
426.071	4287.12
431.821	4292.12
437.565	4294.12
443.302	4296.12
449.033	4255.12
454.758	4239.12
460.477	4187.12
466.189	4156.12
471.896	4166.12
477.596	4091.12
483.29	4034.12
488.978	4064.12
494.66	4016.12
500.335	3896.12
506.005	3739.12
511.668	3557.12
517.325	3361.12
522.977	3236.12
528.622	3134.12
534.261	3057.12
539.894	2974.12
545.521	2955.12
551.141	2898.12
556.756	2870.12
562.365	2850.12
567.968	2809.12
573.565	2801.12
579.155	2806.12
584.74	2769.12
590.319	2780.12
595.892	2768.12
601.459	2761.12
607.02	2745.12
612.575	2740.12
618.124	2692.12
623.667	2650.12
629.204	2613.12
634.735	2587.12
640.261	2551.12
645.781	2526.12
651.294	2512.12
656.802	2512.12
662.304	2496.12
667.8	2503.12
673.29	2491.12
678.775	2476.12
684.254	2475.12
689.726	2453.12
695.193	2445.12
700.655	2430.12
706.11	2435.12
711.56	2411.12
717.004	2402.12
722.442	2368.12
727.874	2366.12
733.301	2378.12
738.722	2364.12
744.137	2362.12
749.547	2372.12
754.951	2360.12
760.349	2341.12
765.741	2366.12
771.128	2392.12
776.509	2428.12
781.885	2467.12
787.254	2485.12
792.618	2479.12
797.977	2487.12
803.33	2485.12
808.677	2443.12
814.019	2460.12
819.355	2391.12
824.686	2387.12
830.011	2367.12
835.33	2369.12
840.644	2360.12
845.952	2316.12
851.255	2306.12
856.552	2297.12
861.844	2256.12
867.13	2247.12
872.41	2224.12
877.686	2197.12
882.955	2175.12
888.219	2161.12
893.478	2125.12
898.731	2108.12
903.979	2076.12
909.221	2057.12
914.458	2049.12
919.69	2058.12
924.916	2040.12
930.136	2056.12
935.351	2042.12
940.561	2056.12
945.766	2022.12
950.965	2027.12
956.158	1997.12
961.347	1995.12
966.529	1974.12
971.707	1961.12
976.879	1928.12
982.046	1914.12
987.208	1859.12
992.364	1882.12
997.515	1890.12
1002.66	1916.12
1007.801	1946.12
1012.936	1950.12
1018.066	1959.12
1023.19	1976.12
1028.309	1973.12
1033.423	1942.12
1038.532	1978.12
1043.636	1944.12
1048.734	1928.12
1053.827	1908.12
1058.915	1885.12
1063.998	1903.12
1069.075	1876.12
1074.147	1892.12
1079.214	1882.12
1084.276	1897.12
1089.333	1889.12
1094.385	1891.12
1099.431	1875.12
1104.472	1869.12
1109.509	1851.12
1114.54	1842.12
1119.565	1803.12
1124.586	1783.12
1129.602	1759.12
1134.613	1758.12
1139.618	1740.12
1144.619	1731.12
1149.614	1733.12
1154.604	1755.12
1159.589	1742.12
1164.57	1752.12
1169.545	1779.12
1174.515	1777.12
1179.48	1748.12
1184.44	1735.12
1189.395	1748.12
1194.345	1714.12
1199.29	1729.12
1204.23	1712.12
1209.165	1686.12
1214.095	1718.12
1219.021	1709.12
1223.941	1716.12
1228.856	1740.12
1233.766	1734.12
1238.672	1730.12
1243.572	1740.12
1248.467	1741.12
1253.358	1708.12
1258.244	1661.12
1263.124	1663.12
1268	1629.12
1272.871	1573.12
1277.737	1581.12
1282.599	1563.12
1287.455	1555.12
1292.306	1569.12
1297.153	1566.12
1301.995	1576.12
1306.832	1564.12
1311.664	1591.12
1316.491	1578.12
1321.314	1590.12
1326.132	1571.12
1330.945	1554.12
1335.753	1531.12
1340.556	1489.12
1345.354	1463.12
1350.148	1447.12
1354.937	1438.12
1359.722	1406.12
1364.501	1400.12
1369.276	1406.12
1374.046	1399.12
1378.811	1399.12
1383.572	1410.12
1388.327	1386.12
1393.079	1380.12
1397.825	1364.12
1402.567	1366.12
1407.304	1350.12
1412.036	1361.12
1416.764	1346.12
1421.487	1327.12
1426.205	1324.12
1430.919	1345.12
1435.628	1339.12
1440.333	1334.12
1445.032	1356.12
1449.727	1373.12
1454.418	1384.12
1459.104	1377.12
1463.785	1344.12
1468.462	1339.12
1473.134	1307.12
1477.802	1288.12
1482.465	1247.12
1487.123	1252.12
1491.777	1239.12
1496.426	1225.12
1501.071	1247.12
1505.711	1237.12
1510.347	1242.12
1514.978	1251.12
1519.604	1253.12
1524.226	1275.12
1528.844	1235.12
1533.457	1260.12
1538.065	1243.12
1542.669	1232.12
1547.269	1229.12
1551.864	1231.12
1556.454	1203.12
1561.041	1221.12
1565.622	1217.12
1570.199	1229.12
1574.772	1237.12
1579.34	1244.12
1583.904	1269.12
1588.464	1260.12
1593.019	1279.12
1597.569	1251.12
1602.115	1248.12
1606.657	1249.12
1611.195	1267.12
1615.728	1261.12
1620.256	1228.12
1624.78	1219.12
1629.3	1229.12
1633.816	1252.12
1638.327	1237.12
1642.834	1251.12
1647.336	1269.12
1651.834	1279.12
1656.328	1274.12
1660.817	1258.12
1665.302	1240.12
1669.783	1210.12
1674.259	1207.12
1678.732	1172.12
1683.199	1161.12
1687.663	1119.12
1692.122	1102.12
1696.577	1083.12
1701.028	1053.12
1705.474	1033.12
1709.917	1021.12
1714.355	992.12
1718.788	1004.12
1723.218	974.12
1727.643	947.12
1732.064	950.12
1736.481	921.12
1740.893	921.12
1745.301	913.12
1749.705	867.12
1754.105	858.12
1758.501	833.12
1762.893	855.12
1767.28	807.12
1771.663	816.12
1776.042	801.12
1780.417	812.12
1784.787	803.12
1789.154	808.12
1793.516	796.12
1797.874	798.12
1802.228	790.12
1806.578	785.12
1810.924	798.12
1815.266	664.12
1819.603	781.12
1823.937	747.12
1828.266	761.12
1832.591	755.12
1836.913	743.12
1841.23	736.12
1845.543	730.12
1849.852	738.12
1854.156	728.12
1858.457	741.12
1862.754	730.12
1867.047	733.12
1871.335	752.12
1875.62	740.12
1879.9	744.12
1884.177	721.12
1888.449	735.12
1892.718	721.12
1896.982	723.12
1901.243	698.12
1905.499	724.12
1909.752	707.12
1914	684.12
1918.245	697.12
1922.485	719.12
1926.722	699.12
1930.954	697.12
1935.183	711.12
1939.408	714.12
1943.628	704.12
1947.845	709.12
1952.058	689.12
1956.267	675.12
1960.472	686.12
1964.673	681.12
1968.87	660.12
1973.063	657.12
1977.252	663.12
1981.438	623.12
1985.619	639.12
1989.797	613.12
1993.971	623.12
1998.14	624.12
2002.306	626.12
2006.469	636.12
2010.627	612.12
2014.781	603.12
2018.932	603.12
2023.078	625.12
2027.221	614.12
2031.36	587.12
2035.495	590.12
2039.627	585.12
2043.754	586.12
2047.878	572.12
2051.998	565.12
2056.114	574.12
2060.226	569.12
2064.334	577.12
2068.439	586.12
2072.54	586.12
2076.637	563.12
2080.73	576.12
2084.82	568.12
2088.906	564.12
2092.988	568.12
2097.066	566.12
2101.14	566.12
2105.211	575.12
2109.278	554.12
2113.342	548.12
2117.401	537.12
2121.457	512.12
2125.509	521.12
2129.558	526.12
2133.602	522.12
2137.643	524.12
2141.681	514.12
2145.714	506.12
2149.744	519.12
2153.77	503.12
2157.793	498.12
2161.812	463.12
2165.827	468.12
2169.838	488.12
2173.846	476.12
2177.851	459.12
2181.851	473.12
2185.848	459.12
2189.841	457.12
2193.831	438.12
2197.817	447.12
2201.799	447.12
2205.778	429.12
2209.753	423.12
2213.725	422.12
2217.693	430.12
2221.657	427.12
2225.618	435.12
2229.575	427.12
2233.529	426.12
2237.479	416.12
2241.425	402.12
2245.368	395.12
2249.307	406.12
2253.243	392.12
2257.175	392.12
2261.104	380.12
2265.029	383.12
2268.95	377.12
2272.868	366.12
2276.783	352.12
2280.694	364.12
2284.601	361.12
2288.505	353.12
2292.405	364.12
2296.302	336.12
2300.195	344.12
2304.085	311.12
2307.971	333.12
2311.854	310.12
2315.734	317.12
2319.609	319.12
2323.482	294.12
2327.351	305.12
2331.216	306.12
2335.078	310.12
2338.937	304.12
2342.792	297.12
2346.643	302.12
2350.492	309.12
2354.336	290.12
2358.178	309.12
2362.015	305.12
2365.85	300.12
2369.681	305.12
2373.508	295.12
2377.333	312.12
2381.153	300.12
2384.971	292.12
2388.785	299.12
2392.595	277.12
2396.402	286.12
2400.206	263.12
2404.007	278.12
2407.804	280.12
2411.597	283.12
2415.388	267.12
2419.174	267.12
2422.958	279.12
2426.738	277.12
2430.515	280.12
2434.289	267.12
2438.059	261.12
2441.825	272.12
2445.589	281.12
2449.349	244.12
2453.106	264.12
2456.859	263.12
2460.61	266.12
2464.356	248.12
2468.1	249.12
2471.84	241.12
2475.577	239.12
2479.311	243.12
2483.041	246.12
2486.768	259.12
2490.492	249.12
2494.213	242.12
2497.93	228.12
2501.644	218.12
2505.355	233.12
2509.062	229.12
2512.766	234.12
2516.467	229.12
2520.165	221.12
2523.859	216.12
2527.551	250.12
2531.239	219.12
2534.923	231.12
2538.605	220.12
2542.283	225.12
2545.958	219.12
2549.63	226.12
2553.299	229.12
2556.964	216.12
2560.626	211.12
2564.285	222.12
2567.941	202.12
2571.594	196.12
2575.243	217.12
2578.89	201.12
2582.533	202.12
2586.173	211.12
2589.809	197.12
2593.443	180.12
2597.073	193.12
2600.701	201.12
2604.325	198.12
2607.946	192.12
2611.564	202.12
2615.178	196.12
2618.79	197.12
2622.398	182.12
2626.004	189.12
2629.606	191.12
2633.205	180.12
2636.801	191.12
2640.394	180.12
2643.983	175.12
2647.57	171.12
2651.153	165.12
2654.734	180.12
2658.311	145.12
2661.885	160.12
2665.456	158.12
2669.025	159.12
2672.589	155.12
2676.151	170.12
2679.71	166.12
2683.266	159.12
2686.819	155.12
2690.368	161.12
2693.915	165.12
2697.458	161.12
2700.999	159.12
2704.536	160.12
2708.071	149.12
2711.602	151.12
2715.13	144.12
2718.656	128.12
2722.178	140.12
2725.697	137.12
2729.214	133.12
2732.727	144.12
2736.237	127.12
2739.744	132.12
2743.249	130.12
2746.75	144.12
2750.248	131.12
2753.743	135.12
2757.236	131.12
2760.725	138.12
2764.211	110.12
2767.695	139.12
2771.175	129.12
2774.652	135.12
2778.127	124.12
2781.598	140.12
2785.067	139.12
2788.532	117.12
2791.995	131.12
2795.455	123.12
2798.911	137.12
2802.365	119.12
2805.816	132.12
2809.264	141.12
2812.709	130.12
2816.151	137.12
2819.59	123.12
2823.026	131.12
2826.46	127.12
2829.89	144.12
2833.318	120.12
2836.742	130.12
2840.164	130.12
2843.583	129.12
2846.999	130.12
2850.412	138.12
2853.822	132.12
2857.229	145.12
2860.634	139.12
2864.035	122.12
2867.434	152.12
2870.83	150.12
2874.223	149.12
2877.613	150.12
2881	145.12
2884.385	141.12
2887.766	145.12
2891.145	151.12
2894.521	146.12
2897.894	138.12
2901.264	157.12
2904.631	156.12
2907.996	159.12
2911.358	164.12
2914.717	157.12
2918.073	157.12
2921.426	153.12
2924.777	143.12
2928.124	161.12
2931.469	171.12
2934.811	151.12
2938.15	179.12
2941.487	174.12
2944.821	180.12
2948.152	173.12
2951.48	184.12
2954.805	159.12
2958.128	187.12
2961.447	163.12
2964.765	191.12
2968.079	170.12
2971.39	178.12
2974.699	182.12
2978.005	181.12
2981.308	179.12
2984.609	175.12
2987.907	192.12
2991.202	194.12
2994.494	180.12
2997.784	183.12
3001.07	193.12
3004.355	189.12
3007.636	190.12
3010.915	190.12
3014.191	202.12
3017.464	200.12
3020.734	200.12
3024.002	200.12
3027.267	198.12
3030.53	205.12
3033.789	204.12
3037.046	219.12
3040.301	210.12
3043.552	219.12
3046.801	221.12
3050.048	240.12
3053.291	253.12
3056.532	239.12
3059.771	227.12
3063.006	254.12
3066.239	253.12
3069.469	263.12
3072.697	259.12
3075.922	267.12
3079.144	277.12
3082.364	298.12
3085.581	293.12
3088.795	311.12
3092.007	304.12
3095.216	321.12
3098.423	316.12
3101.627	304.12
3104.828	324.12
3108.026	328.12
3111.222	356.12
3114.416	364.12
3117.607	367.12
3120.795	361.12
3123.98	366.12
3127.163	367.12
3130.344	380.12
3133.521	371.12
3136.696	413.12
3139.869	403.12
3143.039	392.12
3146.206	433.12
3149.371	436.12
3152.533	429.12
3155.693	417.12
3158.85	439.12
3162.005	433.12
3165.157	442.12
3168.306	433.12
3171.453	436.12
3174.597	436.12
3177.739	426.12
3180.878	448.12
3184.014	446.12
3187.149	446.12
3190.28	439.12
3193.409	452.12
3196.536	447.12
3199.659	467.12
3202.781	461.12
3205.9	449.12
3209.016	459.12
3212.13	451.12
3215.241	442.12
3218.35	450.12
3221.456	431.12
3224.56	422.12
3227.661	430.12
3230.76	424.12
3233.856	422.12
3236.95	429.12
3240.041	415.12
3243.13	426.12
3246.216	413.12
3249.3	422.12
3252.382	408.12
3255.46	406.12
3258.537	352.12
3261.611	407.12
3264.682	406.12
3267.751	394.12
3270.818	392.12
3273.882	407.12
3276.943	398.12
3280.002	412.12
3283.059	386.12
3286.113	385.12
3289.165	375.12
3292.214	377.12
3295.261	389.12
3298.306	349.12
3301.348	363.12
3304.387	350.12
3307.425	365.12
3310.459	349.12
3313.492	360.12
3316.521	355.12
3319.549	355.12
3322.574	343.12
3325.597	342.12
3328.617	331.12
3331.635	337.12
3334.65	317.12
3337.663	338.12
3340.674	338.12
3343.682	326.12
3346.688	331.12
3349.691	325.12
3352.692	323.12
3355.691	329.12
3358.687	324.12
3361.681	329.12
3364.673	317.12
3367.662	315.12
3370.649	318.12
3373.633	303.12
3376.615	307.12
3379.595	280.12
3382.572	292.12
3385.547	282.12
3388.52	275.12
3391.49	280.12
3394.458	285.12
3397.424	286.12
3400.387	271.12
3403.348	280.12
3406.307	270.12
3409.263	268.12
3412.217	281.12
3415.168	272.12
3418.118	278.12
3421.065	256.12
3424.009	266.12
3426.951	242.12
3429.891	238.12
3432.829	243.12
3435.764	246.12
3438.697	221.12
3441.628	244.12
3444.557	219.12
3447.483	217.12
3450.407	222.12
3453.328	204.12
3456.247	195.12
3459.164	196.12
3462.079	201.12
3464.991	181.12
3467.902	184.12
3470.809	183.12
3473.715	179.12
3476.618	165.12
3479.519	164.12
3482.418	141.12
3485.315	147.12
3488.209	134.12
3491.101	139.12
3493.99	134.12
3496.878	133.12
3499.763	137.12
3502.646	125.12
3505.527	117.12
3508.405	116.12
3511.281	100.12
3514.155	109.12
3517.027	100.12
3519.897	93.12
3522.764	102.12
3525.629	81.12
3528.492	92.12
3531.352	86.12
3534.211	83.12
3537.067	74.12
3539.921	73.12
3542.773	84.12
3545.622	58.12
3548.469	61.12
3551.315	51.12
3554.157	53.12
3556.998	46.12
3559.837	45.12
3562.673	55.12
3565.507	41.12
3568.339	35.12
3571.169	37.12
3573.996	39.12
3576.822	26.12
3579.645	30.12
3582.466	27.12
3585.285	36.12
3588.101	27.12
3590.916	21.12
3593.728	28.12
3596.538	20.12
3599.346	23.12
3602.152	4.12
3604.956	14.12
3607.757	19.12
3610.556	2.12
3613.354	17.12
3616.149	11.12
3618.942	10.12
3621.732	13.12
3624.521	3.12
3627.307	-4.88
3630.092	-1.88
3632.874	13.12
3635.654	3.12
3638.432	-2.88
3641.208	-1.88
3643.982	-1.88
3646.753	4.12
3649.523	-29.88
3652.29	-11.88
3655.055	-2.88
3657.818	-3.88
3660.579	-12.88
3663.338	-17.88
3666.095	-17.88
3668.849	-35.88
3671.602	-5.88
3674.352	-26.88
3677.101	-4.88
3679.847	-5.88
3682.591	-24.88
3685.333	-28.88
3688.073	-12.88
3690.811	-32.88
3693.547	-31.88
3696.281	-33.88
3699.013	-22.88
3701.742	-27.88
3704.47	-30.88
3707.195	-19.88
3709.919	-21.88
3712.64	-23.88
3715.359	-35.88
3718.076	-14.88
3720.792	-25.88
3723.505	-22.88
3726.216	-11.88
3728.925	-22.88
3731.632	-31.88
3734.336	-26.88
3737.039	-25.88
3739.74	-25.88
3742.439	-52.88
3745.136	-18.88
3747.83	-23.88
3750.523	-22.88
3753.213	-80.88
3755.902	-26.88
3758.589	-42.88
3761.273	-33.88
3763.956	-21.88
3766.636	-42.88
3769.315	-20.88
3771.991	-31.88
3774.665	-37.88
3777.338	-29.88
3780.008	-40.88
3782.677	-31.88
3785.343	-49.88
3788.007	-43.88
3790.67	-23.88
3793.33	-45.88
3795.989	-36.88
3798.645	-27.88
3801.299	-45.88
3803.952	-38.88
3806.602	-37.88
3809.251	-26.88
3811.897	-33.88
3814.542	-33.88
3817.184	-34.88
3819.825	-32.88
3822.463	-44.88
3825.1	-34.88
3827.735	-33.88
3830.367	-41.88
3832.998	-19.88
3835.627	-34.88
3838.253	-25.88
3840.878	-35.88
3843.501	-11.88
3846.122	-30.88
3848.741	-24.88
3851.358	-26.88
3853.973	-38.88
3856.586	-20.88
3859.197	-40.88
3861.806	-31.88
3864.414	-40.88
3867.019	-32.88
3869.622	-18.88
3872.224	-18.88
3874.823	-4.88
3877.421	29.12
3880.016	50.12
3882.61	96.12
3885.202	106.12
3887.792	74.12
3890.38	32.12
3892.966	-5.88
3895.55	-29.88
3898.132	-22.88
3900.713	-27.88
3903.291	-28.88
3905.868	-36.88
3908.442	-30.88
3911.015	-30.88
3913.586	-35.88
3916.155	-33.88
3918.722	-39.88
3921.287	-39.88
3923.85	-45.88
3926.411	-38.88
3928.971	-37.88
3931.528	-30.88
3934.084	-34.88
3936.638	-42.88
3939.19	-31.88
3941.74	-29.88
3944.288	-35.88
3946.834	-39.88
3949.378	-26.88
3951.921	-37.88
3954.462	-33.88
3957	-28.88
3959.537	-21.88
3962.072	-34.88
3964.606	-47.88
3967.137	-34.88
3969.667	-38.88
3972.194	-29.88
3974.72	-31.88
3977.244	-58.88
3979.766	-39.88
3982.286	-40.88
3984.805	-32.88
3987.321	-21.88
3989.836	-26.88
3992.349	-40.88
3994.86	-31.88
3997.369	-37.88
3999.877	-33.88
4002.382	-33.88
4004.886	-31.88
4007.388	-32.88
4009.888	-25.88
4012.386	-27.88
4014.883	-28.88
4017.377	-27.88
4019.87	-27.88
4022.361	-40.88
4024.85	-33.88
4027.338	-29.88
4029.823	-32.88
4032.307	-33.88
4034.789	-32.88
4037.269	-29.88
4039.747	-45.88
4042.224	-21.88
4044.699	-38.88
4047.172	-39.88
4049.643	-23.88
4052.112	-56.88
4054.58	-30.88
4057.046	-45.88
4059.51	-33.88
4061.972	-30.88
4064.432	-48.88
4066.891	-17.88
4069.348	-32.88
4071.803	-30.88
4074.256	-33.88
4076.708	-25.88
4079.158	-28.88
4081.606	-21.88
4084.052	-35.88
4086.497	-27.88
4088.939	-28.88
4091.38	-32.88
4093.819	-27.88
4096.257	2.12
4098.693	-3.88
4101.127	-4.88
4103.559	3.12
4105.989	123.12
4108.418	123.12
4110.845	114.12
4113.27	116.12
4115.694	127.12
4118.115	111.12
4120.535	-27.88
4122.954	-23.88
4125.37	-18.88
4127.785	-27.88
4130.198	-22.88
4132.609	-31.88
4135.019	7.12
4137.427	-0.88
4139.833	4.12
4142.237	-6.88
