Data from 2018-3-6_conc=3_n=1_RamanShift_02.txt Node
Date: Tue Mar 06 13:14:49 GMT+02:00 2018
User: LAB3
Spectrometer: QEPB0276
Trigger mode: 0
Integration Time (sec): 3.000000E1
Scans to average: 1
Electric dark correction enabled: true
Nonlinearity correction enabled: false
Boxcar width: 0
XAxis mode: Raman Shifts
Number of Pixels in Spectrum: 1044
>>>>>Begin Spectral Data<<<<<
160.701	158.75
166.742	204.75
172.777	293.75
178.805	573.75
184.826	1340.75
190.841	2636.75
196.849	4189.75
202.85	5326.75
208.845	5783.75
214.833	5792.75
220.815	5731.75
226.789	5732.75
232.758	5774.75
238.719	5806.75
244.674	5777.75
250.623	5739.75
256.565	5710.75
262.5	5639.75
268.429	5628.75
274.351	5585.75
280.267	5623.75
286.176	5629.75
292.079	5641.75
297.975	5642.75
303.865	5646.75
309.748	5653.75
315.625	5668.75
321.495	5651.75
327.359	5697.75
333.217	5709.75
339.068	5724.75
344.912	5758.75
350.751	5805.75
356.583	5810.75
362.408	5838.75
368.227	5846.75
374.04	5877.75
379.847	5921.75
385.647	5947.75
391.44	5969.75
397.228	6012.75
403.009	6024.75
408.784	6037.75
414.553	6080.75
420.315	6135.75
426.071	6120.75
431.821	6152.75
437.565	6148.75
443.302	6088.75
449.033	6083.75
454.758	6105.75
460.477	5994.75
466.189	5966.75
471.896	5877.75
477.596	5835.75
483.29	5762.75
488.978	5778.75
494.66	5737.75
500.335	5573.75
506.005	5357.75
511.668	5064.75
517.325	4789.75
522.977	4602.75
528.622	4407.75
534.261	4339.75
539.894	4250.75
545.521	4167.75
551.141	4107.75
556.756	4065.75
562.365	4033.75
567.968	3987.75
573.565	3947.75
579.155	3938.75
584.74	3922.75
590.319	3919.75
595.892	3916.75
601.459	3904.75
607.02	3902.75
612.575	3852.75
618.124	3810.75
623.667	3760.75
629.204	3710.75
634.735	3656.75
640.261	3591.75
645.781	3531.75
651.294	3551.75
656.802	3547.75
662.304	3536.75
667.8	3511.75
673.29	3537.75
678.775	3486.75
684.254	3465.75
689.726	3470.75
695.193	3460.75
700.655	3441.75
706.11	3406.75
711.56	3405.75
717.004	3378.75
722.442	3340.75
727.874	3365.75
733.301	3354.75
738.722	3299.75
744.137	3333.75
749.547	3329.75
754.951	3334.75
760.349	3320.75
765.741	3347.75
771.128	3371.75
776.509	3417.75
781.885	3472.75
787.254	3474.75
792.618	3485.75
797.977	3494.75
803.33	3475.75
808.677	3470.75
814.019	3445.75
819.355	3387.75
824.686	3353.75
830.011	3336.75
835.33	3355.75
840.644	3302.75
845.952	3266.75
851.255	3258.75
856.552	3207.75
861.844	3169.75
867.13	3126.75
872.41	3102.75
877.686	3091.75
882.955	3051.75
888.219	3009.75
893.478	2945.75
898.731	2961.75
903.979	2917.75
909.221	2882.75
914.458	2849.75
919.69	2850.75
924.916	2856.75
930.136	2872.75
935.351	2871.75
940.561	2882.75
945.766	2857.75
950.965	2866.75
956.158	2824.75
961.347	2782.75
966.529	2775.75
971.707	2721.75
976.879	2678.75
982.046	2675.75
987.208	2642.75
992.364	2650.75
997.515	2677.75
1002.66	2683.75
1007.801	2698.75
1012.936	2720.75
1018.066	2732.75
1023.19	2718.75
1028.309	2761.75
1033.423	2762.75
1038.532	2749.75
1043.636	2739.75
1048.734	2723.75
1053.827	2670.75
1058.915	2667.75
1063.998	2655.75
1069.075	2645.75
1074.147	2649.75
1079.214	2616.75
1084.276	2667.75
1089.333	2655.75
1094.385	2675.75
1099.431	2631.75
1104.472	2625.75
1109.509	2618.75
1114.54	2563.75
1119.565	2517.75
1124.586	2496.75
1129.602	2480.75
1134.613	2425.75
1139.618	2439.75
1144.619	2419.75
1149.614	2439.75
1154.604	2458.75
1159.589	2433.75
1164.57	2465.75
1169.545	2482.75
1174.515	2463.75
1179.48	2458.75
1184.44	2446.75
1189.395	2435.75
1194.345	2398.75
1199.29	2381.75
1204.23	2385.75
1209.165	2362.75
1214.095	2423.75
1219.021	2392.75
1223.941	2403.75
1228.856	2404.75
1233.766	2421.75
1238.672	2434.75
1243.572	2418.75
1248.467	2407.75
1253.358	2382.75
1258.244	2317.75
1263.124	2296.75
1268	2278.75
1272.871	2203.75
1277.737	2208.75
1282.599	2179.75
1287.455	2182.75
1292.306	2203.75
1297.153	2193.75
1301.995	2205.75
1306.832	2205.75
1311.664	2235.75
1316.491	2210.75
1321.314	2198.75
1326.132	2188.75
1330.945	2161.75
1335.753	2108.75
1340.556	2090.75
1345.354	2061.75
1350.148	2030.75
1354.937	2009.75
1359.722	1973.75
1364.501	1973.75
1369.276	1982.75
1374.046	1963.75
1378.811	1965.75
1383.572	1963.75
1388.327	1944.75
1393.079	1926.75
1397.825	1908.75
1402.567	1907.75
1407.304	1873.75
1412.036	1877.75
1416.764	1867.75
1421.487	1845.75
1426.205	1858.75
1430.919	1891.75
1435.628	1892.75
1440.333	1887.75
1445.032	1911.75
1449.727	1919.75
1454.418	1939.75
1459.104	1915.75
1463.785	1879.75
1468.462	1880.75
1473.134	1846.75
1477.802	1819.75
1482.465	1774.75
1487.123	1745.75
1491.777	1749.75
1496.426	1723.75
1501.071	1766.75
1505.711	1751.75
1510.347	1753.75
1514.978	1768.75
1519.604	1771.75
1524.226	1791.75
1528.844	1757.75
1533.457	1765.75
1538.065	1744.75
1542.669	1730.75
1547.269	1714.75
1551.864	1704.75
1556.454	1700.75
1561.041	1701.75
1565.622	1698.75
1570.199	1729.75
1574.772	1721.75
1579.34	1752.75
1583.904	1739.75
1588.464	1777.75
1593.019	1784.75
1597.569	1750.75
1602.115	1762.75
1606.657	1757.75
1611.195	1770.75
1615.728	1733.75
1620.256	1707.75
1624.78	1713.75
1629.3	1738.75
1633.816	1731.75
1638.327	1742.75
1642.834	1752.75
1647.336	1767.75
1651.834	1810.75
1656.328	1776.75
1660.817	1753.75
1665.302	1740.75
1669.783	1734.75
1674.259	1700.75
1678.732	1672.75
1683.199	1645.75
1687.663	1578.75
1692.122	1550.75
1696.577	1504.75
1701.028	1486.75
1705.474	1451.75
1709.917	1422.75
1714.355	1414.75
1718.788	1411.75
1723.218	1378.75
1727.643	1358.75
1732.064	1350.75
1736.481	1312.75
1740.893	1299.75
1745.301	1263.75
1749.705	1226.75
1754.105	1216.75
1758.501	1196.75
1762.893	1183.75
1767.28	1159.75
1771.663	1138.75
1776.042	1133.75
1780.417	1129.75
1784.787	1126.75
1789.154	1139.75
1793.516	1130.75
1797.874	1132.75
1802.228	1113.75
1806.578	1122.75
1810.924	1119.75
1815.266	1014.75
1819.603	1103.75
1823.937	1077.75
1828.266	1070.75
1832.591	1064.75
1836.913	1043.75
1841.23	1037.75
1845.543	1028.75
1849.852	1035.75
1854.156	1023.75
1858.457	1030.75
1862.754	1039.75
1867.047	1039.75
1871.335	1055.75
1875.62	1031.75
1879.9	1045.75
1884.177	1039.75
1888.449	1035.75
1892.718	1021.75
1896.982	1029.75
1901.243	1008.75
1905.499	994.75
1909.752	999.75
1914	979.75
1918.245	999.75
1922.485	1006.75
1926.722	1013.75
1930.954	988.75
1935.183	1016.75
1939.408	1009.75
1943.628	1011.75
1947.845	999.75
1952.058	979.75
1956.267	970.75
1960.472	967.75
1964.673	947.75
1968.87	939.75
1973.063	928.75
1977.252	909.75
1981.438	901.75
1985.619	891.75
1989.797	873.75
1993.971	880.75
1998.14	878.75
2002.306	878.75
2006.469	868.75
2010.627	857.75
2014.781	854.75
2018.932	852.75
2023.078	869.75
2027.221	853.75
2031.36	838.75
2035.495	822.75
2039.627	822.75
2043.754	815.75
2047.878	799.75
2051.998	811.75
2056.114	807.75
2060.226	789.75
2064.334	812.75
2068.439	815.75
2072.54	826.75
2076.637	803.75
2080.73	806.75
2084.82	810.75
2088.906	821.75
2092.988	808.75
2097.066	813.75
2101.14	808.75
2105.211	797.75
2109.278	772.75
2113.342	767.75
2117.401	757.75
2121.457	764.75
2125.509	738.75
2129.558	742.75
2133.602	735.75
2137.643	722.75
2141.681	723.75
2145.714	730.75
2149.744	722.75
2153.77	712.75
2157.793	696.75
2161.812	677.75
2165.827	666.75
2169.838	694.75
2173.846	664.75
2177.851	630.75
2181.851	664.75
2185.848	653.75
2189.841	633.75
2193.831	629.75
2197.817	628.75
2201.799	631.75
2205.778	610.75
2209.753	614.75
2213.725	598.75
2217.693	608.75
2221.657	597.75
2225.618	607.75
2229.575	600.75
2233.529	596.75
2237.479	586.75
2241.425	575.75
2245.368	559.75
2249.307	561.75
2253.243	542.75
2257.175	547.75
2261.104	531.75
2265.029	531.75
2268.95	539.75
2272.868	515.75
2276.783	508.75
2280.694	520.75
2284.601	509.75
2288.505	500.75
2292.405	497.75
2296.302	472.75
2300.195	479.75
2304.085	441.75
2307.971	468.75
2311.854	434.75
2315.734	456.75
2319.609	451.75
2323.482	420.75
2327.351	432.75
2331.216	428.75
2335.078	440.75
2338.937	433.75
2342.792	421.75
2346.643	417.75
2350.492	428.75
2354.336	426.75
2358.178	420.75
2362.015	426.75
2365.85	419.75
2369.681	420.75
2373.508	425.75
2377.333	429.75
2381.153	426.75
2384.971	423.75
2388.785	418.75
2392.595	406.75
2396.402	406.75
2400.206	382.75
2404.007	392.75
2407.804	397.75
2411.597	395.75
2415.388	392.75
2419.174	397.75
2422.958	385.75
2426.738	386.75
2430.515	393.75
2434.289	376.75
2438.059	375.75
2441.825	377.75
2445.589	385.75
2449.349	359.75
2453.106	370.75
2456.859	364.75
2460.61	365.75
2464.356	359.75
2468.1	344.75
2471.84	345.75
2475.577	342.75
2479.311	343.75
2483.041	346.75
2486.768	358.75
2490.492	354.75
2494.213	346.75
2497.93	342.75
2501.644	328.75
2505.355	337.75
2509.062	335.75
2512.766	329.75
2516.467	324.75
2520.165	326.75
2523.859	316.75
2527.551	347.75
2531.239	310.75
2534.923	328.75
2538.605	322.75
2542.283	334.75
2545.958	325.75
2549.63	330.75
2553.299	327.75
2556.964	301.75
2560.626	304.75
2564.285	309.75
2567.941	300.75
2571.594	296.75
2575.243	309.75
2578.89	294.75
2582.533	294.75
2586.173	299.75
2589.809	300.75
2593.443	267.75
2597.073	286.75
2600.701	286.75
2604.325	285.75
2607.946	272.75
2611.564	292.75
2615.178	281.75
2618.79	274.75
2622.398	271.75
2626.004	277.75
2629.606	270.75
2633.205	254.75
2636.801	257.75
2640.394	268.75
2643.983	258.75
2647.57	249.75
2651.153	255.75
2654.734	249.75
2658.311	229.75
2661.885	235.75
2665.456	240.75
2669.025	246.75
2672.589	230.75
2676.151	247.75
2679.71	237.75
2683.266	236.75
2686.819	227.75
2690.368	227.75
2693.915	223.75
2697.458	225.75
2700.999	223.75
2704.536	225.75
2708.071	224.75
2711.602	217.75
2715.13	209.75
2718.656	190.75
2722.178	208.75
2725.697	202.75
2729.214	198.75
2732.727	209.75
2736.237	190.75
2739.744	198.75
2743.249	204.75
2746.75	200.75
2750.248	193.75
2753.743	200.75
2757.236	192.75
2760.725	210.75
2764.211	175.75
2767.695	203.75
2771.175	200.75
2774.652	199.75
2778.127	192.75
2781.598	192.75
2785.067	201.75
2788.532	186.75
2791.995	188.75
2795.455	185.75
2798.911	196.75
2802.365	185.75
2805.816	199.75
2809.264	204.75
2812.709	197.75
2816.151	207.75
2819.59	182.75
2823.026	194.75
2826.46	188.75
2829.89	200.75
2833.318	178.75
2836.742	191.75
2840.164	201.75
2843.583	193.75
2846.999	196.75
2850.412	199.75
2853.822	186.75
2857.229	215.75
2860.634	210.75
2864.035	191.75
2867.434	218.75
2870.83	221.75
2874.223	216.75
2877.613	221.75
2881	209.75
2884.385	211.75
2887.766	215.75
2891.145	221.75
2894.521	220.75
2897.894	201.75
2901.264	231.75
2904.631	221.75
2907.996	230.75
2911.358	229.75
2914.717	233.75
2918.073	230.75
2921.426	233.75
2924.777	215.75
2928.124	237.75
2931.469	244.75
2934.811	230.75
2938.15	265.75
2941.487	257.75
2944.821	267.75
2948.152	255.75
2951.48	260.75
2954.805	244.75
2958.128	260.75
2961.447	255.75
2964.765	263.75
2968.079	251.75
2971.39	263.75
2974.699	258.75
2978.005	266.75
2981.308	273.75
2984.609	270.75
2987.907	275.75
2991.202	281.75
2994.494	268.75
2997.784	283.75
3001.07	275.75
3004.355	285.75
3007.636	287.75
3010.915	295.75
3014.191	282.75
3017.464	287.75
3020.734	296.75
3024.002	294.75
3027.267	292.75
3030.53	302.75
3033.789	296.75
3037.046	309.75
3040.301	308.75
3043.552	315.75
3046.801	324.75
3050.048	332.75
3053.291	364.75
3056.532	357.75
3059.771	351.75
3063.006	363.75
3066.239	375.75
3069.469	379.75
3072.697	383.75
3075.922	399.75
3079.144	398.75
3082.364	429.75
3085.581	416.75
3088.795	454.75
3092.007	453.75
3095.216	462.75
3098.423	466.75
3101.627	449.75
3104.828	481.75
3108.026	475.75
3111.222	503.75
3114.416	517.75
3117.607	519.75
3120.795	527.75
3123.98	542.75
3127.163	532.75
3130.344	560.75
3133.521	554.75
3136.696	582.75
3139.869	593.75
3143.039	586.75
3146.206	626.75
3149.371	638.75
3152.533	626.75
3155.693	621.75
3158.85	630.75
3162.005	639.75
3165.157	635.75
3168.306	646.75
3171.453	646.75
3174.597	630.75
3177.739	630.75
3180.878	667.75
3184.014	652.75
3187.149	643.75
3190.28	658.75
3193.409	661.75
3196.536	659.75
3199.659	665.75
3202.781	664.75
3205.9	658.75
3209.016	660.75
3212.13	656.75
3215.241	653.75
3218.35	654.75
3221.456	635.75
3224.56	636.75
3227.661	644.75
3230.76	630.75
3233.856	619.75
3236.95	626.75
3240.041	607.75
3243.13	619.75
3246.216	609.75
3249.3	621.75
3252.382	615.75
3255.46	592.75
3258.537	551.75
3261.611	593.75
3264.682	596.75
3267.751	605.75
3270.818	585.75
3273.882	605.75
3276.943	596.75
3280.002	597.75
3283.059	582.75
3286.113	572.75
3289.165	564.75
3292.214	559.75
3295.261	561.75
3298.306	528.75
3301.348	541.75
3304.387	524.75
3307.425	525.75
3310.459	508.75
3313.492	525.75
3316.521	508.75
3319.549	512.75
3322.574	510.75
3325.597	500.75
3328.617	500.75
3331.635	491.75
3334.65	479.75
3337.663	492.75
3340.674	500.75
3343.682	485.75
3346.688	493.75
3349.691	474.75
3352.692	487.75
3355.691	478.75
3358.687	473.75
3361.681	472.75
3364.673	475.75
3367.662	461.75
3370.649	462.75
3373.633	442.75
3376.615	449.75
3379.595	435.75
3382.572	429.75
3385.547	427.75
3388.52	415.75
3391.49	421.75
3394.458	420.75
3397.424	426.75
3400.387	396.75
3403.348	411.75
3406.307	390.75
3409.263	404.75
3412.217	398.75
3415.168	403.75
3418.118	395.75
3421.065	382.75
3424.009	394.75
3426.951	366.75
3429.891	369.75
3432.829	365.75
3435.764	368.75
3438.697	341.75
3441.628	355.75
3444.557	324.75
3447.483	306.75
3450.407	337.75
3453.328	311.75
3456.247	301.75
3459.164	284.75
3462.079	290.75
3464.991	287.75
3467.902	268.75
3470.809	275.75
3473.715	271.75
3476.618	247.75
3479.519	255.75
3482.418	224.75
3485.315	223.75
3488.209	228.75
3491.101	218.75
3493.99	202.75
3496.878	206.75
3499.763	206.75
3502.646	203.75
3505.527	186.75
3508.405	178.75
3511.281	171.75
3514.155	176.75
3517.027	166.75
3519.897	152.75
3522.764	159.75
3525.629	132.75
3528.492	142.75
3531.352	139.75
3534.211	144.75
3537.067	122.75
3539.921	111.75
3542.773	117.75
3545.622	106.75
3548.469	91.75
3551.315	89.75
3554.157	92.75
3556.998	80.75
3559.837	87.75
3562.673	82.75
3565.507	69.75
3568.339	64.75
3571.169	69.75
3573.996	69.75
3576.822	48.75
3579.645	54.75
3582.466	52.75
3585.285	60.75
3588.101	58.75
3590.916	45.75
3593.728	52.75
3596.538	42.75
3599.346	46.75
3602.152	29.75
3604.956	32.75
3607.757	42.75
3610.556	19.75
3613.354	36.75
3616.149	31.75
3618.942	31.75
3621.732	33.75
3624.521	15.75
3627.307	11.75
3630.092	16.75
3632.874	31.75
3635.654	17.75
3638.432	7.75
3641.208	13.75
3643.982	11.75
3646.753	17.75
3649.523	-14.25
3652.29	2.75
3655.055	8.75
3657.818	5.75
3660.579	1.75
3663.338	-10.25
3666.095	-3.25
3668.849	-31.25
3671.602	-0.25
3674.352	-19.25
3677.101	4.75
3679.847	0.75
3682.591	-13.25
3685.333	-20.25
3688.073	-10.25
3690.811	-17.25
3693.547	-25.25
3696.281	-24.25
3699.013	-11.25
3701.742	-20.25
3704.47	-25.25
3707.195	-10.25
3709.919	-18.25
3712.64	-20.25
3715.359	-26.25
3718.076	-11.25
3720.792	-17.25
3723.505	-14.25
3726.216	-13.25
3728.925	-19.25
3731.632	-27.25
3734.336	-21.25
3737.039	-23.25
3739.74	-21.25
3742.439	-43.25
3745.136	-22.25
3747.83	-21.25
3750.523	-18.25
3753.213	-81.25
3755.902	-24.25
3758.589	-37.25
3761.273	-25.25
3763.956	-21.25
3766.636	-35.25
3769.315	-14.25
3771.991	-25.25
3774.665	-32.25
3777.338	-25.25
3780.008	-33.25
3782.677	-28.25
3785.343	-43.25
3788.007	-48.25
3790.67	-21.25
3793.33	-39.25
3795.989	-25.25
3798.645	-25.25
3801.299	-38.25
3803.952	-35.25
3806.602	-31.25
3809.251	-26.25
3811.897	-31.25
3814.542	-30.25
3817.184	-31.25
3819.825	-23.25
3822.463	-39.25
3825.1	-29.25
3827.735	-26.25
3830.367	-30.25
3832.998	-14.25
3835.627	-30.25
3838.253	-18.25
3840.878	-31.25
3843.501	-14.25
3846.122	-29.25
3848.741	-23.25
3851.358	-19.25
3853.973	-42.25
3856.586	-20.25
3859.197	-33.25
3861.806	-28.25
3864.414	-37.25
3867.019	-27.25
3869.622	-18.25
3872.224	-13.25
3874.823	6.75
3877.421	36.75
3880.016	58.75
3882.61	106.75
3885.202	124.75
3887.792	86.75
3890.38	47.75
3892.966	1.75
3895.55	-19.25
3898.132	-16.25
3900.713	-18.25
3903.291	-26.25
3905.868	-35.25
3908.442	-29.25
3911.015	-29.25
3913.586	-32.25
3916.155	-33.25
3918.722	-33.25
3921.287	-43.25
3923.85	-39.25
3926.411	-38.25
3928.971	-34.25
3931.528	-24.25
3934.084	-30.25
3936.638	-45.25
3939.19	-26.25
3941.74	-27.25
3944.288	-33.25
3946.834	-27.25
3949.378	-22.25
3951.921	-36.25
3954.462	-35.25
3957	-25.25
3959.537	-18.25
3962.072	-29.25
3964.606	-44.25
3967.137	-37.25
3969.667	-35.25
3972.194	-24.25
3974.72	-34.25
3977.244	-56.25
3979.766	-43.25
3982.286	-36.25
3984.805	-24.25
3987.321	-17.25
3989.836	-24.25
3992.349	-32.25
3994.86	-29.25
3997.369	-32.25
3999.877	-30.25
4002.382	-32.25
4004.886	-26.25
4007.388	-26.25
4009.888	-22.25
4012.386	-22.25
4014.883	-30.25
4017.377	-25.25
4019.87	-24.25
4022.361	-33.25
4024.85	-33.25
4027.338	-27.25
4029.823	-30.25
4032.307	-29.25
4034.789	-25.25
4037.269	-28.25
4039.747	-40.25
4042.224	-15.25
4044.699	-31.25
4047.172	-33.25
4049.643	-24.25
4052.112	-49.25
4054.58	-24.25
4057.046	-37.25
4059.51	-27.25
4061.972	-27.25
4064.432	-41.25
4066.891	-19.25
4069.348	-25.25
4071.803	-26.25
4074.256	-31.25
4076.708	-24.25
4079.158	-25.25
4081.606	-17.25
4084.052	-30.25
4086.497	-24.25
4088.939	-28.25
4091.38	-26.25
4093.819	-18.25
4096.257	-1.25
4098.693	-6.25
4101.127	-3.25
4103.559	2.75
4105.989	146.75
4108.418	155.75
4110.845	137.75
4113.27	150.75
4115.694	153.75
4118.115	140.75
4120.535	-27.25
4122.954	-21.25
4125.37	-12.25
4127.785	-21.25
4130.198	-18.25
4132.609	-24.25
4135.019	8.75
4137.427	-2.25
4139.833	4.75
4142.237	-3.25
