Data from 2018-3-6_conc=3_n=3_RamanShift_04.txt Node
Date: Tue Mar 06 13:21:49 GMT+02:00 2018
User: LAB3
Spectrometer: QEPB0276
Trigger mode: 0
Integration Time (sec): 3.000000E1
Scans to average: 1
Electric dark correction enabled: true
Nonlinearity correction enabled: false
Boxcar width: 0
XAxis mode: Raman Shifts
Number of Pixels in Spectrum: 1044
>>>>>Begin Spectral Data<<<<<
160.701	131.5
166.742	165.5
172.777	237.5
178.805	490.5
184.826	1130.5
190.841	2257.5
196.849	3578.5
202.85	4547.5
208.845	4915.5
214.833	4926.5
220.815	4877.5
226.789	4887.5
232.758	4921.5
238.719	4957.5
244.674	4891.5
250.623	4885.5
256.565	4861.5
262.5	4786.5
268.429	4760.5
274.351	4757.5
280.267	4748.5
286.176	4754.5
292.079	4783.5
297.975	4789.5
303.865	4793.5
309.748	4810.5
315.625	4846.5
321.495	4822.5
327.359	4811.5
333.217	4860.5
339.068	4877.5
344.912	4868.5
350.751	4898.5
356.583	4924.5
362.408	4937.5
368.227	4959.5
374.04	4963.5
379.847	5005.5
385.647	5038.5
391.44	5053.5
397.228	5093.5
403.009	5105.5
408.784	5122.5
414.553	5183.5
420.315	5173.5
426.071	5156.5
431.821	5153.5
437.565	5156.5
443.302	5146.5
449.033	5108.5
454.758	5122.5
460.477	5065.5
466.189	5011.5
471.896	4961.5
477.596	4903.5
483.29	4891.5
488.978	4899.5
494.66	4876.5
500.335	4738.5
506.005	4527.5
511.668	4328.5
517.325	4093.5
522.977	3947.5
528.622	3804.5
534.261	3711.5
539.894	3637.5
545.521	3597.5
551.141	3547.5
556.756	3494.5
562.365	3485.5
567.968	3438.5
573.565	3422.5
579.155	3403.5
584.74	3354.5
590.319	3371.5
595.892	3386.5
601.459	3367.5
607.02	3348.5
612.575	3329.5
618.124	3291.5
623.667	3245.5
629.204	3175.5
634.735	3151.5
640.261	3117.5
645.781	3074.5
651.294	3082.5
656.802	3092.5
662.304	3069.5
667.8	3085.5
673.29	3031.5
678.775	3038.5
684.254	3026.5
689.726	2997.5
695.193	3020.5
700.655	2969.5
706.11	2968.5
711.56	2940.5
717.004	2924.5
722.442	2919.5
727.874	2903.5
733.301	2907.5
738.722	2889.5
744.137	2877.5
749.547	2865.5
754.951	2870.5
760.349	2879.5
765.741	2911.5
771.128	2919.5
776.509	2950.5
781.885	2994.5
787.254	3027.5
792.618	3042.5
797.977	3038.5
803.33	3002.5
808.677	2975.5
814.019	2944.5
819.355	2921.5
824.686	2899.5
830.011	2883.5
835.33	2880.5
840.644	2892.5
845.952	2832.5
851.255	2823.5
856.552	2795.5
861.844	2751.5
867.13	2726.5
872.41	2685.5
877.686	2665.5
882.955	2672.5
888.219	2632.5
893.478	2592.5
898.731	2566.5
903.979	2555.5
909.221	2498.5
914.458	2491.5
919.69	2501.5
924.916	2503.5
930.136	2477.5
935.351	2506.5
940.561	2494.5
945.766	2499.5
950.965	2503.5
956.158	2442.5
961.347	2452.5
966.529	2420.5
971.707	2398.5
976.879	2341.5
982.046	2314.5
987.208	2318.5
992.364	2317.5
997.515	2343.5
1002.66	2342.5
1007.801	2368.5
1012.936	2393.5
1018.066	2366.5
1023.19	2403.5
1028.309	2397.5
1033.423	2392.5
1038.532	2409.5
1043.636	2398.5
1048.734	2365.5
1053.827	2339.5
1058.915	2331.5
1063.998	2292.5
1069.075	2306.5
1074.147	2310.5
1079.214	2276.5
1084.276	2330.5
1089.333	2313.5
1094.385	2313.5
1099.431	2332.5
1104.472	2300.5
1109.509	2288.5
1114.54	2231.5
1119.565	2228.5
1124.586	2184.5
1129.602	2150.5
1134.613	2143.5
1139.618	2125.5
1144.619	2125.5
1149.614	2112.5
1154.604	2152.5
1159.589	2144.5
1164.57	2159.5
1169.545	2154.5
1174.515	2160.5
1179.48	2151.5
1184.44	2117.5
1189.395	2124.5
1194.345	2087.5
1199.29	2109.5
1204.23	2067.5
1209.165	2083.5
1214.095	2110.5
1219.021	2092.5
1223.941	2087.5
1228.856	2112.5
1233.766	2141.5
1238.672	2111.5
1243.572	2135.5
1248.467	2097.5
1253.358	2074.5
1258.244	2021.5
1263.124	2003.5
1268	1972.5
1272.871	1949.5
1277.737	1941.5
1282.599	1913.5
1287.455	1916.5
1292.306	1902.5
1297.153	1903.5
1301.995	1954.5
1306.832	1918.5
1311.664	1914.5
1316.491	1946.5
1321.314	1941.5
1326.132	1924.5
1330.945	1902.5
1335.753	1844.5
1340.556	1814.5
1345.354	1794.5
1350.148	1771.5
1354.937	1762.5
1359.722	1737.5
1364.501	1726.5
1369.276	1729.5
1374.046	1725.5
1378.811	1698.5
1383.572	1723.5
1388.327	1708.5
1393.079	1681.5
1397.825	1681.5
1402.567	1662.5
1407.304	1662.5
1412.036	1656.5
1416.764	1633.5
1421.487	1623.5
1426.205	1630.5
1430.919	1641.5
1435.628	1642.5
1440.333	1652.5
1445.032	1657.5
1449.727	1672.5
1454.418	1670.5
1459.104	1678.5
1463.785	1639.5
1468.462	1635.5
1473.134	1601.5
1477.802	1588.5
1482.465	1545.5
1487.123	1556.5
1491.777	1524.5
1496.426	1509.5
1501.071	1546.5
1505.711	1528.5
1510.347	1544.5
1514.978	1567.5
1519.604	1549.5
1524.226	1574.5
1528.844	1543.5
1533.457	1526.5
1538.065	1531.5
1542.669	1519.5
1547.269	1511.5
1551.864	1517.5
1556.454	1486.5
1561.041	1490.5
1565.622	1483.5
1570.199	1487.5
1574.772	1506.5
1579.34	1529.5
1583.904	1527.5
1588.464	1562.5
1593.019	1558.5
1597.569	1522.5
1602.115	1519.5
1606.657	1532.5
1611.195	1547.5
1615.728	1533.5
1620.256	1512.5
1624.78	1489.5
1629.3	1513.5
1633.816	1522.5
1638.327	1521.5
1642.834	1558.5
1647.336	1558.5
1651.834	1555.5
1656.328	1561.5
1660.817	1547.5
1665.302	1516.5
1669.783	1520.5
1674.259	1489.5
1678.732	1460.5
1683.199	1423.5
1687.663	1386.5
1692.122	1360.5
1696.577	1342.5
1701.028	1313.5
1705.474	1290.5
1709.917	1273.5
1714.355	1267.5
1718.788	1233.5
1723.218	1204.5
1727.643	1185.5
1732.064	1191.5
1736.481	1151.5
1740.893	1151.5
1745.301	1141.5
1749.705	1077.5
1754.105	1087.5
1758.501	1057.5
1762.893	1052.5
1767.28	1010.5
1771.663	1006.5
1776.042	990.5
1780.417	988.5
1784.787	992.5
1789.154	1002.5
1793.516	1005.5
1797.874	1005.5
1802.228	983.5
1806.578	984.5
1810.924	976.5
1815.266	858.5
1819.603	982.5
1823.937	935.5
1828.266	944.5
1832.591	939.5
1836.913	908.5
1841.23	920.5
1845.543	899.5
1849.852	923.5
1854.156	911.5
1858.457	920.5
1862.754	909.5
1867.047	915.5
1871.335	936.5
1875.62	918.5
1879.9	923.5
1884.177	916.5
1888.449	911.5
1892.718	904.5
1896.982	898.5
1901.243	885.5
1905.499	892.5
1909.752	868.5
1914	869.5
1918.245	894.5
1922.485	881.5
1926.722	897.5
1930.954	891.5
1935.183	888.5
1939.408	894.5
1943.628	895.5
1947.845	902.5
1952.058	879.5
1956.267	873.5
1960.472	870.5
1964.673	840.5
1968.87	828.5
1973.063	811.5
1977.252	809.5
1981.438	782.5
1985.619	784.5
1989.797	773.5
1993.971	771.5
1998.14	779.5
2002.306	776.5
2006.469	778.5
2010.627	765.5
2014.781	757.5
2018.932	756.5
2023.078	771.5
2027.221	754.5
2031.36	730.5
2035.495	718.5
2039.627	732.5
2043.754	718.5
2047.878	715.5
2051.998	712.5
2056.114	706.5
2060.226	710.5
2064.334	715.5
2068.439	722.5
2072.54	719.5
2076.637	713.5
2080.73	723.5
2084.82	720.5
2088.906	710.5
2092.988	724.5
2097.066	712.5
2101.14	720.5
2105.211	702.5
2109.278	688.5
2113.342	676.5
2117.401	669.5
2121.457	652.5
2125.509	658.5
2129.558	656.5
2133.602	657.5
2137.643	641.5
2141.681	643.5
2145.714	642.5
2149.744	643.5
2153.77	636.5
2157.793	605.5
2161.812	600.5
2165.827	586.5
2169.838	605.5
2173.846	588.5
2177.851	566.5
2181.851	585.5
2185.848	572.5
2189.841	591.5
2193.831	559.5
2197.817	551.5
2201.799	553.5
2205.778	535.5
2209.753	529.5
2213.725	522.5
2217.693	532.5
2221.657	526.5
2225.618	536.5
2229.575	515.5
2233.529	524.5
2237.479	525.5
2241.425	512.5
2245.368	496.5
2249.307	494.5
2253.243	487.5
2257.175	484.5
2261.104	460.5
2265.029	466.5
2268.95	460.5
2272.868	465.5
2276.783	439.5
2280.694	456.5
2284.601	441.5
2288.505	433.5
2292.405	430.5
2296.302	410.5
2300.195	417.5
2304.085	391.5
2307.971	413.5
2311.854	386.5
2315.734	392.5
2319.609	395.5
2323.482	371.5
2327.351	379.5
2331.216	381.5
2335.078	383.5
2338.937	381.5
2342.792	365.5
2346.643	372.5
2350.492	377.5
2354.336	367.5
2358.178	372.5
2362.015	369.5
2365.85	358.5
2369.681	374.5
2373.508	375.5
2377.333	375.5
2381.153	362.5
2384.971	369.5
2388.785	365.5
2392.595	350.5
2396.402	357.5
2400.206	323.5
2404.007	339.5
2407.804	355.5
2411.597	349.5
2415.388	342.5
2419.174	339.5
2422.958	339.5
2426.738	338.5
2430.515	331.5
2434.289	331.5
2438.059	328.5
2441.825	329.5
2445.589	334.5
2449.349	317.5
2453.106	324.5
2456.859	315.5
2460.61	324.5
2464.356	309.5
2468.1	301.5
2471.84	298.5
2475.577	302.5
2479.311	300.5
2483.041	300.5
2486.768	311.5
2490.492	315.5
2494.213	302.5
2497.93	290.5
2501.644	286.5
2505.355	297.5
2509.062	296.5
2512.766	298.5
2516.467	286.5
2520.165	297.5
2523.859	269.5
2527.551	301.5
2531.239	280.5
2534.923	282.5
2538.605	280.5
2542.283	280.5
2545.958	275.5
2549.63	289.5
2553.299	285.5
2556.964	267.5
2560.626	274.5
2564.285	278.5
2567.941	255.5
2571.594	257.5
2575.243	265.5
2578.89	255.5
2582.533	271.5
2586.173	252.5
2589.809	260.5
2593.443	229.5
2597.073	249.5
2600.701	255.5
2604.325	249.5
2607.946	232.5
2611.564	251.5
2615.178	252.5
2618.79	244.5
2622.398	238.5
2626.004	242.5
2629.606	242.5
2633.205	227.5
2636.801	235.5
2640.394	230.5
2643.983	218.5
2647.57	222.5
2651.153	216.5
2654.734	224.5
2658.311	192.5
2661.885	202.5
2665.456	202.5
2669.025	206.5
2672.589	198.5
2676.151	213.5
2679.71	214.5
2683.266	207.5
2686.819	190.5
2690.368	197.5
2693.915	204.5
2697.458	187.5
2700.999	193.5
2704.536	195.5
2708.071	185.5
2711.602	187.5
2715.13	181.5
2718.656	173.5
2722.178	186.5
2725.697	170.5
2729.214	169.5
2732.727	172.5
2736.237	166.5
2739.744	170.5
2743.249	163.5
2746.75	184.5
2750.248	166.5
2753.743	176.5
2757.236	180.5
2760.725	186.5
2764.211	150.5
2767.695	175.5
2771.175	160.5
2774.652	161.5
2778.127	170.5
2781.598	157.5
2785.067	165.5
2788.532	155.5
2791.995	167.5
2795.455	165.5
2798.911	169.5
2802.365	165.5
2805.816	167.5
2809.264	176.5
2812.709	166.5
2816.151	174.5
2819.59	157.5
2823.026	165.5
2826.46	159.5
2829.89	173.5
2833.318	143.5
2836.742	161.5
2840.164	167.5
2843.583	174.5
2846.999	166.5
2850.412	164.5
2853.822	166.5
2857.229	190.5
2860.634	182.5
2864.035	167.5
2867.434	187.5
2870.83	183.5
2874.223	186.5
2877.613	181.5
2881	173.5
2884.385	184.5
2887.766	180.5
2891.145	185.5
2894.521	184.5
2897.894	177.5
2901.264	191.5
2904.631	191.5
2907.996	190.5
2911.358	202.5
2914.717	189.5
2918.073	185.5
2921.426	191.5
2924.777	179.5
2928.124	196.5
2931.469	214.5
2934.811	187.5
2938.15	221.5
2941.487	209.5
2944.821	232.5
2948.152	219.5
2951.48	223.5
2954.805	206.5
2958.128	235.5
2961.447	210.5
2964.765	222.5
2968.079	215.5
2971.39	227.5
2974.699	223.5
2978.005	222.5
2981.308	221.5
2984.609	226.5
2987.907	234.5
2991.202	241.5
2994.494	223.5
2997.784	236.5
3001.07	248.5
3004.355	236.5
3007.636	238.5
3010.915	243.5
3014.191	236.5
3017.464	251.5
3020.734	244.5
3024.002	247.5
3027.267	246.5
3030.53	257.5
3033.789	255.5
3037.046	255.5
3040.301	252.5
3043.552	273.5
3046.801	272.5
3050.048	293.5
3053.291	306.5
3056.532	294.5
3059.771	280.5
3063.006	311.5
3066.239	314.5
3069.469	330.5
3072.697	324.5
3075.922	338.5
3079.144	340.5
3082.364	369.5
3085.581	345.5
3088.795	378.5
3092.007	375.5
3095.216	388.5
3098.423	389.5
3101.627	379.5
3104.828	405.5
3108.026	411.5
3111.222	434.5
3114.416	437.5
3117.607	438.5
3120.795	438.5
3123.98	444.5
3127.163	453.5
3130.344	474.5
3133.521	473.5
3136.696	499.5
3139.869	500.5
3143.039	481.5
3146.206	532.5
3149.371	529.5
3152.533	525.5
3155.693	516.5
3158.85	542.5
3162.005	543.5
3165.157	536.5
3168.306	544.5
3171.453	545.5
3174.597	536.5
3177.739	533.5
3180.878	544.5
3184.014	548.5
3187.149	547.5
3190.28	554.5
3193.409	560.5
3196.536	560.5
3199.659	559.5
3202.781	564.5
3205.9	553.5
3209.016	562.5
3212.13	564.5
3215.241	561.5
3218.35	546.5
3221.456	544.5
3224.56	532.5
3227.661	542.5
3230.76	540.5
3233.856	516.5
3236.95	530.5
3240.041	519.5
3243.13	528.5
3246.216	528.5
3249.3	519.5
3252.382	521.5
3255.46	513.5
3258.537	455.5
3261.611	494.5
3264.682	511.5
3267.751	505.5
3270.818	488.5
3273.882	502.5
3276.943	506.5
3280.002	512.5
3283.059	487.5
3286.113	481.5
3289.165	479.5
3292.214	465.5
3295.261	477.5
3298.306	458.5
3301.348	444.5
3304.387	437.5
3307.425	435.5
3310.459	447.5
3313.492	447.5
3316.521	427.5
3319.549	434.5
3322.574	419.5
3325.597	426.5
3328.617	414.5
3331.635	414.5
3334.65	393.5
3337.663	408.5
3340.674	405.5
3343.682	412.5
3346.688	424.5
3349.691	405.5
3352.692	407.5
3355.691	412.5
3358.687	400.5
3361.681	403.5
3364.673	398.5
3367.662	398.5
3370.649	398.5
3373.633	375.5
3376.615	386.5
3379.595	363.5
3382.572	371.5
3385.547	352.5
3388.52	348.5
3391.49	358.5
3394.458	350.5
3397.424	354.5
3400.387	334.5
3403.348	345.5
3406.307	329.5
3409.263	329.5
3412.217	340.5
3415.168	335.5
3418.118	332.5
3421.065	313.5
3424.009	331.5
3426.951	316.5
3429.891	319.5
3432.829	316.5
3435.764	305.5
3438.697	290.5
3441.628	303.5
3444.557	274.5
3447.483	269.5
3450.407	277.5
3453.328	265.5
3456.247	256.5
3459.164	242.5
3462.079	250.5
3464.991	236.5
3467.902	224.5
3470.809	231.5
3473.715	227.5
3476.618	210.5
3479.519	213.5
3482.418	193.5
3485.315	185.5
3488.209	188.5
3491.101	185.5
3493.99	164.5
3496.878	172.5
3499.763	167.5
3502.646	168.5
3505.527	149.5
3508.405	159.5
3511.281	142.5
3514.155	149.5
3517.027	139.5
3519.897	130.5
3522.764	131.5
3525.629	110.5
3528.492	121.5
3531.352	116.5
3534.211	105.5
3537.067	97.5
3539.921	102.5
3542.773	102.5
3545.622	75.5
3548.469	75.5
3551.315	77.5
3554.157	76.5
3556.998	70.5
3559.837	65.5
3562.673	76.5
3565.507	67.5
3568.339	53.5
3571.169	56.5
3573.996	57.5
3576.822	38.5
3579.645	44.5
3582.466	43.5
3585.285	50.5
3588.101	39.5
3590.916	36.5
3593.728	42.5
3596.538	31.5
3599.346	36.5
3602.152	27.5
3604.956	31.5
3607.757	30.5
3610.556	19.5
3613.354	26.5
3616.149	24.5
3618.942	26.5
3621.732	23.5
3624.521	14.5
3627.307	4.5
3630.092	8.5
3632.874	27.5
3635.654	10.5
3638.432	2.5
3641.208	5.5
3643.982	4.5
3646.753	9.5
3649.523	-18.5
3652.29	0.5
3655.055	5.5
3657.818	-0.5
3660.579	-1.5
3663.338	-10.5
3666.095	-4.5
3668.849	-28.5
3671.602	-2.5
3674.352	-16.5
3677.101	-2.5
3679.847	-0.5
3682.591	-15.5
3685.333	-19.5
3688.073	-9.5
3690.811	-20.5
3693.547	-27.5
3696.281	-29.5
3699.013	-13.5
3701.742	-20.5
3704.47	-26.5
3707.195	-9.5
3709.919	-16.5
3712.64	-19.5
3715.359	-30.5
3718.076	-8.5
3720.792	-22.5
3723.505	-17.5
3726.216	-10.5
3728.925	-21.5
3731.632	-28.5
3734.336	-21.5
3737.039	-22.5
3739.74	-20.5
3742.439	-51.5
3745.136	-16.5
3747.83	-18.5
3750.523	-16.5
3753.213	-75.5
3755.902	-25.5
3758.589	-38.5
3761.273	-27.5
3763.956	-16.5
3766.636	-37.5
3769.315	-14.5
3771.991	-20.5
3774.665	-30.5
3777.338	-23.5
3780.008	-32.5
3782.677	-25.5
3785.343	-39.5
3788.007	-44.5
3790.67	-18.5
3793.33	-36.5
3795.989	-27.5
3798.645	-26.5
3801.299	-38.5
3803.952	-30.5
3806.602	-31.5
3809.251	-17.5
3811.897	-29.5
3814.542	-29.5
3817.184	-29.5
3819.825	-20.5
3822.463	-37.5
3825.1	-32.5
3827.735	-28.5
3830.367	-35.5
3832.998	-15.5
3835.627	-31.5
3838.253	-18.5
3840.878	-26.5
3843.501	-16.5
3846.122	-22.5
3848.741	-18.5
3851.358	-19.5
3853.973	-36.5
3856.586	-18.5
3859.197	-37.5
3861.806	-23.5
3864.414	-37.5
3867.019	-25.5
3869.622	-19.5
3872.224	-15.5
3874.823	-6.5
3877.421	16.5
3880.016	33.5
3882.61	73.5
3885.202	88.5
3887.792	67.5
3890.38	35.5
3892.966	-5.5
3895.55	-29.5
3898.132	-17.5
3900.713	-18.5
3903.291	-27.5
3905.868	-38.5
3908.442	-28.5
3911.015	-26.5
3913.586	-29.5
3916.155	-29.5
3918.722	-32.5
3921.287	-36.5
3923.85	-43.5
3926.411	-35.5
3928.971	-36.5
3931.528	-28.5
3934.084	-34.5
3936.638	-44.5
3939.19	-30.5
3941.74	-26.5
3944.288	-38.5
3946.834	-31.5
3949.378	-22.5
3951.921	-36.5
3954.462	-31.5
3957	-32.5
3959.537	-20.5
3962.072	-33.5
3964.606	-45.5
3967.137	-36.5
3969.667	-37.5
3972.194	-26.5
3974.72	-32.5
3977.244	-61.5
3979.766	-35.5
3982.286	-38.5
3984.805	-27.5
3987.321	-18.5
3989.836	-22.5
3992.349	-36.5
3994.86	-34.5
3997.369	-35.5
3999.877	-31.5
4002.382	-29.5
4004.886	-24.5
4007.388	-30.5
4009.888	-15.5
4012.386	-21.5
4014.883	-26.5
4017.377	-27.5
4019.87	-27.5
4022.361	-33.5
4024.85	-24.5
4027.338	-32.5
4029.823	-32.5
4032.307	-31.5
4034.789	-32.5
4037.269	-28.5
4039.747	-48.5
4042.224	-17.5
4044.699	-37.5
4047.172	-32.5
4049.643	-23.5
4052.112	-53.5
4054.58	-28.5
4057.046	-41.5
4059.51	-31.5
4061.972	-29.5
4064.432	-51.5
4066.891	-16.5
4069.348	-32.5
4071.803	-30.5
4074.256	-34.5
4076.708	-23.5
4079.158	-27.5
4081.606	-19.5
4084.052	-30.5
4086.497	-18.5
4088.939	-29.5
4091.38	-33.5
4093.819	-26.5
4096.257	2.5
4098.693	-8.5
4101.127	-6.5
4103.559	1.5
4105.989	117.5
4108.418	124.5
4110.845	107.5
4113.27	115.5
4115.694	124.5
4118.115	114.5
4120.535	-29.5
4122.954	-21.5
4125.37	-21.5
4127.785	-26.5
4130.198	-22.5
4132.609	-25.5
4135.019	7.5
4137.427	3.5
4139.833	3.5
4142.237	-3.5
