Data from 2018-3-6_conc=3_n=8_RamanShift_03.txt Node
Date: Tue Mar 06 13:37:19 GMT+02:00 2018
User: LAB3
Spectrometer: QEPB0276
Trigger mode: 0
Integration Time (sec): 3.000000E1
Scans to average: 1
Electric dark correction enabled: true
Nonlinearity correction enabled: false
Boxcar width: 0
XAxis mode: Raman Shifts
Number of Pixels in Spectrum: 1044
>>>>>Begin Spectral Data<<<<<
160.701	124.38
166.742	153.38
172.777	226.38
178.805	440.38
184.826	1001.38
190.841	2000.38
196.849	3141.38
202.85	4001.38
208.845	4336.38
214.833	4312.38
220.815	4282.38
226.789	4295.38
232.758	4316.38
238.719	4312.38
244.674	4297.38
250.623	4262.38
256.565	4241.38
262.5	4194.38
268.429	4175.38
274.351	4129.38
280.267	4127.38
286.176	4150.38
292.079	4170.38
297.975	4165.38
303.865	4166.38
309.748	4184.38
315.625	4178.38
321.495	4190.38
327.359	4201.38
333.217	4201.38
339.068	4223.38
344.912	4242.38
350.751	4235.38
356.583	4251.38
362.408	4315.38
368.227	4288.38
374.04	4294.38
379.847	4335.38
385.647	4369.38
391.44	4358.38
397.228	4425.38
403.009	4445.38
408.784	4433.38
414.553	4483.38
420.315	4520.38
426.071	4506.38
431.821	4500.38
437.565	4504.38
443.302	4459.38
449.033	4469.38
454.758	4448.38
460.477	4409.38
466.189	4365.38
471.896	4344.38
477.596	4283.38
483.29	4270.38
488.978	4254.38
494.66	4210.38
500.335	4124.38
506.005	3932.38
511.668	3755.38
517.325	3546.38
522.977	3423.38
528.622	3292.38
534.261	3237.38
539.894	3183.38
545.521	3109.38
551.141	3055.38
556.756	3025.38
562.365	3020.38
567.968	2989.38
573.565	2950.38
579.155	2963.38
584.74	2927.38
590.319	2954.38
595.892	2935.38
601.459	2931.38
607.02	2917.38
612.575	2898.38
618.124	2872.38
623.667	2812.38
629.204	2767.38
634.735	2761.38
640.261	2697.38
645.781	2663.38
651.294	2659.38
656.802	2650.38
662.304	2677.38
667.8	2675.38
673.29	2640.38
678.775	2635.38
684.254	2627.38
689.726	2587.38
695.193	2608.38
700.655	2571.38
706.11	2586.38
711.56	2567.38
717.004	2561.38
722.442	2514.38
727.874	2551.38
733.301	2534.38
738.722	2479.38
744.137	2512.38
749.547	2489.38
754.951	2504.38
760.349	2507.38
765.741	2525.38
771.128	2532.38
776.509	2540.38
781.885	2581.38
787.254	2628.38
792.618	2641.38
797.977	2624.38
803.33	2614.38
808.677	2605.38
814.019	2568.38
819.355	2517.38
824.686	2521.38
830.011	2508.38
835.33	2522.38
840.644	2502.38
845.952	2452.38
851.255	2460.38
856.552	2415.38
861.844	2388.38
867.13	2375.38
872.41	2337.38
877.686	2322.38
882.955	2305.38
888.219	2293.38
893.478	2248.38
898.731	2234.38
903.979	2210.38
909.221	2191.38
914.458	2165.38
919.69	2175.38
924.916	2160.38
930.136	2156.38
935.351	2163.38
940.561	2181.38
945.766	2163.38
950.965	2156.38
956.158	2126.38
961.347	2114.38
966.529	2087.38
971.707	2076.38
976.879	2045.38
982.046	2014.38
987.208	1998.38
992.364	2010.38
997.515	2022.38
1002.66	2041.38
1007.801	2041.38
1012.936	2079.38
1018.066	2056.38
1023.19	2096.38
1028.309	2099.38
1033.423	2073.38
1038.532	2101.38
1043.636	2071.38
1048.734	2063.38
1053.827	2025.38
1058.915	2022.38
1063.998	2025.38
1069.075	1997.38
1074.147	2002.38
1079.214	1988.38
1084.276	2006.38
1089.333	1993.38
1094.385	2018.38
1099.431	1999.38
1104.472	2012.38
1109.509	1978.38
1114.54	1948.38
1119.565	1916.38
1124.586	1910.38
1129.602	1857.38
1134.613	1840.38
1139.618	1839.38
1144.619	1848.38
1149.614	1853.38
1154.604	1847.38
1159.589	1860.38
1164.57	1882.38
1169.545	1884.38
1174.515	1878.38
1179.48	1859.38
1184.44	1862.38
1189.395	1853.38
1194.345	1827.38
1199.29	1827.38
1204.23	1809.38
1209.165	1816.38
1214.095	1821.38
1219.021	1825.38
1223.941	1818.38
1228.856	1839.38
1233.766	1835.38
1238.672	1851.38
1243.572	1843.38
1248.467	1829.38
1253.358	1797.38
1258.244	1766.38
1263.124	1766.38
1268	1727.38
1272.871	1684.38
1277.737	1672.38
1282.599	1662.38
1287.455	1658.38
1292.306	1656.38
1297.153	1663.38
1301.995	1684.38
1306.832	1676.38
1311.664	1700.38
1316.491	1680.38
1321.314	1683.38
1326.132	1650.38
1330.945	1634.38
1335.753	1627.38
1340.556	1584.38
1345.354	1560.38
1350.148	1570.38
1354.937	1527.38
1359.722	1509.38
1364.501	1485.38
1369.276	1510.38
1374.046	1506.38
1378.811	1498.38
1383.572	1506.38
1388.327	1483.38
1393.079	1457.38
1397.825	1474.38
1402.567	1449.38
1407.304	1455.38
1412.036	1446.38
1416.764	1429.38
1421.487	1428.38
1426.205	1409.38
1430.919	1425.38
1435.628	1438.38
1440.333	1432.38
1445.032	1446.38
1449.727	1448.38
1454.418	1461.38
1459.104	1459.38
1463.785	1419.38
1468.462	1425.38
1473.134	1407.38
1477.802	1371.38
1482.465	1334.38
1487.123	1344.38
1491.777	1305.38
1496.426	1319.38
1501.071	1335.38
1505.711	1314.38
1510.347	1331.38
1514.978	1341.38
1519.604	1350.38
1524.226	1341.38
1528.844	1324.38
1533.457	1343.38
1538.065	1333.38
1542.669	1302.38
1547.269	1300.38
1551.864	1306.38
1556.454	1279.38
1561.041	1281.38
1565.622	1301.38
1570.199	1309.38
1574.772	1315.38
1579.34	1327.38
1583.904	1350.38
1588.464	1363.38
1593.019	1365.38
1597.569	1343.38
1602.115	1339.38
1606.657	1332.38
1611.195	1342.38
1615.728	1336.38
1620.256	1307.38
1624.78	1305.38
1629.3	1317.38
1633.816	1333.38
1638.327	1330.38
1642.834	1320.38
1647.336	1336.38
1651.834	1362.38
1656.328	1356.38
1660.817	1343.38
1665.302	1326.38
1669.783	1310.38
1674.259	1280.38
1678.732	1255.38
1683.199	1232.38
1687.663	1189.38
1692.122	1181.38
1696.577	1144.38
1701.028	1126.38
1705.474	1099.38
1709.917	1086.38
1714.355	1074.38
1718.788	1059.38
1723.218	1041.38
1727.643	1033.38
1732.064	1027.38
1736.481	999.38
1740.893	982.38
1745.301	974.38
1749.705	923.38
1754.105	928.38
1758.501	898.38
1762.893	897.38
1767.28	858.38
1771.663	861.38
1776.042	856.38
1780.417	850.38
1784.787	851.38
1789.154	876.38
1793.516	859.38
1797.874	849.38
1802.228	846.38
1806.578	837.38
1810.924	846.38
1815.266	715.38
1819.603	833.38
1823.937	804.38
1828.266	817.38
1832.591	798.38
1836.913	794.38
1841.23	787.38
1845.543	789.38
1849.852	797.38
1854.156	782.38
1858.457	780.38
1862.754	786.38
1867.047	785.38
1871.335	791.38
1875.62	792.38
1879.9	795.38
1884.177	781.38
1888.449	783.38
1892.718	771.38
1896.982	765.38
1901.243	753.38
1905.499	753.38
1909.752	759.38
1914	737.38
1918.245	745.38
1922.485	761.38
1926.722	760.38
1930.954	749.38
1935.183	769.38
1939.408	767.38
1943.628	761.38
1947.845	749.38
1952.058	747.38
1956.267	722.38
1960.472	731.38
1964.673	730.38
1968.87	712.38
1973.063	693.38
1977.252	684.38
1981.438	680.38
1985.619	672.38
1989.797	650.38
1993.971	655.38
1998.14	667.38
2002.306	661.38
2006.469	668.38
2010.627	647.38
2014.781	643.38
2018.932	649.38
2023.078	664.38
2027.221	649.38
2031.36	628.38
2035.495	621.38
2039.627	623.38
2043.754	629.38
2047.878	601.38
2051.998	615.38
2056.114	607.38
2060.226	607.38
2064.334	618.38
2068.439	615.38
2072.54	619.38
2076.637	608.38
2080.73	613.38
2084.82	614.38
2088.906	615.38
2092.988	610.38
2097.066	602.38
2101.14	616.38
2105.211	610.38
2109.278	588.38
2113.342	574.38
2117.401	563.38
2121.457	568.38
2125.509	564.38
2129.558	557.38
2133.602	560.38
2137.643	562.38
2141.681	547.38
2145.714	541.38
2149.744	550.38
2153.77	547.38
2157.793	532.38
2161.812	506.38
2165.827	506.38
2169.838	521.38
2173.846	501.38
2177.851	500.38
2181.851	498.38
2185.848	480.38
2189.841	486.38
2193.831	475.38
2197.817	477.38
2201.799	470.38
2205.778	462.38
2209.753	462.38
2213.725	448.38
2217.693	460.38
2221.657	456.38
2225.618	460.38
2229.575	448.38
2233.529	456.38
2237.479	444.38
2241.425	434.38
2245.368	419.38
2249.307	433.38
2253.243	414.38
2257.175	421.38
2261.104	401.38
2265.029	406.38
2268.95	396.38
2272.868	396.38
2276.783	387.38
2280.694	390.38
2284.601	384.38
2288.505	377.38
2292.405	379.38
2296.302	355.38
2300.195	369.38
2304.085	330.38
2307.971	361.38
2311.854	333.38
2315.734	344.38
2319.609	343.38
2323.482	317.38
2327.351	337.38
2331.216	330.38
2335.078	332.38
2338.937	325.38
2342.792	324.38
2346.643	310.38
2350.492	327.38
2354.336	323.38
2358.178	316.38
2362.015	322.38
2365.85	323.38
2369.681	319.38
2373.508	321.38
2377.333	323.38
2381.153	321.38
2384.971	315.38
2388.785	315.38
2392.595	297.38
2396.402	303.38
2400.206	284.38
2404.007	295.38
2407.804	296.38
2411.597	299.38
2415.388	283.38
2419.174	291.38
2422.958	291.38
2426.738	292.38
2430.515	295.38
2434.289	290.38
2438.059	282.38
2441.825	282.38
2445.589	296.38
2449.349	267.38
2453.106	277.38
2456.859	275.38
2460.61	284.38
2464.356	263.38
2468.1	258.38
2471.84	252.38
2475.577	257.38
2479.311	261.38
2483.041	258.38
2486.768	269.38
2490.492	263.38
2494.213	257.38
2497.93	253.38
2501.644	240.38
2505.355	252.38
2509.062	250.38
2512.766	250.38
2516.467	249.38
2520.165	243.38
2523.859	232.38
2527.551	269.38
2531.239	232.38
2534.923	249.38
2538.605	234.38
2542.283	237.38
2545.958	229.38
2549.63	246.38
2553.299	240.38
2556.964	224.38
2560.626	225.38
2564.285	232.38
2567.941	214.38
2571.594	213.38
2575.243	228.38
2578.89	213.38
2582.533	223.38
2586.173	218.38
2589.809	214.38
2593.443	192.38
2597.073	213.38
2600.701	218.38
2604.325	205.38
2607.946	204.38
2611.564	209.38
2615.178	204.38
2618.79	212.38
2622.398	192.38
2626.004	202.38
2629.606	199.38
2633.205	189.38
2636.801	202.38
2640.394	198.38
2643.983	192.38
2647.57	187.38
2651.153	170.38
2654.734	189.38
2658.311	169.38
2661.885	170.38
2665.456	174.38
2669.025	181.38
2672.589	173.38
2676.151	191.38
2679.71	187.38
2683.266	169.38
2686.819	165.38
2690.368	172.38
2693.915	176.38
2697.458	166.38
2700.999	172.38
2704.536	166.38
2708.071	159.38
2711.602	162.38
2715.13	160.38
2718.656	142.38
2722.178	157.38
2725.697	141.38
2729.214	148.38
2732.727	159.38
2736.237	134.38
2739.744	145.38
2743.249	141.38
2746.75	142.38
2750.248	138.38
2753.743	145.38
2757.236	143.38
2760.725	151.38
2764.211	120.38
2767.695	144.38
2771.175	134.38
2774.652	147.38
2778.127	138.38
2781.598	140.38
2785.067	138.38
2788.532	127.38
2791.995	145.38
2795.455	137.38
2798.911	149.38
2802.365	133.38
2805.816	140.38
2809.264	151.38
2812.709	135.38
2816.151	143.38
2819.59	131.38
2823.026	141.38
2826.46	138.38
2829.89	148.38
2833.318	121.38
2836.742	144.38
2840.164	150.38
2843.583	144.38
2846.999	145.38
2850.412	144.38
2853.822	137.38
2857.229	158.38
2860.634	151.38
2864.035	133.38
2867.434	156.38
2870.83	160.38
2874.223	152.38
2877.613	153.38
2881	150.38
2884.385	154.38
2887.766	156.38
2891.145	167.38
2894.521	158.38
2897.894	149.38
2901.264	165.38
2904.631	165.38
2907.996	170.38
2911.358	169.38
2914.717	166.38
2918.073	164.38
2921.426	164.38
2924.777	143.38
2928.124	159.38
2931.469	179.38
2934.811	162.38
2938.15	188.38
2941.487	182.38
2944.821	199.38
2948.152	187.38
2951.48	184.38
2954.805	166.38
2958.128	190.38
2961.447	176.38
2964.765	197.38
2968.079	177.38
2971.39	190.38
2974.699	190.38
2978.005	192.38
2981.308	186.38
2984.609	186.38
2987.907	198.38
2991.202	207.38
2994.494	190.38
2997.784	194.38
3001.07	201.38
3004.355	198.38
3007.636	200.38
3010.915	210.38
3014.191	207.38
3017.464	206.38
3020.734	213.38
3024.002	208.38
3027.267	214.38
3030.53	219.38
3033.789	213.38
3037.046	224.38
3040.301	211.38
3043.552	224.38
3046.801	233.38
3050.048	241.38
3053.291	264.38
3056.532	242.38
3059.771	236.38
3063.006	272.38
3066.239	264.38
3069.469	273.38
3072.697	272.38
3075.922	278.38
3079.144	290.38
3082.364	317.38
3085.581	301.38
3088.795	327.38
3092.007	330.38
3095.216	328.38
3098.423	330.38
3101.627	319.38
3104.828	354.38
3108.026	348.38
3111.222	359.38
3114.416	378.38
3117.607	378.38
3120.795	373.38
3123.98	386.38
3127.163	382.38
3130.344	404.38
3133.521	398.38
3136.696	420.38
3139.869	419.38
3143.039	429.38
3146.206	457.38
3149.371	458.38
3152.533	442.38
3155.693	440.38
3158.85	453.38
3162.005	461.38
3165.157	466.38
3168.306	466.38
3171.453	476.38
3174.597	459.38
3177.739	451.38
3180.878	474.38
3184.014	466.38
3187.149	467.38
3190.28	478.38
3193.409	476.38
3196.536	468.38
3199.659	484.38
3202.781	491.38
3205.9	465.38
3209.016	488.38
3212.13	477.38
3215.241	492.38
3218.35	469.38
3221.456	461.38
3224.56	451.38
3227.661	464.38
3230.76	461.38
3233.856	447.38
3236.95	442.38
3240.041	441.38
3243.13	456.38
3246.216	440.38
3249.3	449.38
3252.382	445.38
3255.46	431.38
3258.537	387.38
3261.611	425.38
3264.682	445.38
3267.751	433.38
3270.818	431.38
3273.882	435.38
3276.943	419.38
3280.002	436.38
3283.059	406.38
3286.113	410.38
3289.165	410.38
3292.214	398.38
3295.261	416.38
3298.306	395.38
3301.348	395.38
3304.387	377.38
3307.425	391.38
3310.459	370.38
3313.492	381.38
3316.521	368.38
3319.549	375.38
3322.574	375.38
3325.597	364.38
3328.617	362.38
3331.635	361.38
3334.65	341.38
3337.663	352.38
3340.674	354.38
3343.682	363.38
3346.688	363.38
3349.691	345.38
3352.692	342.38
3355.691	352.38
3358.687	339.38
3361.681	354.38
3364.673	343.38
3367.662	343.38
3370.649	333.38
3373.633	322.38
3376.615	325.38
3379.595	305.38
3382.572	321.38
3385.547	305.38
3388.52	304.38
3391.49	299.38
3394.458	301.38
3397.424	302.38
3400.387	291.38
3403.348	294.38
3406.307	283.38
3409.263	286.38
3412.217	295.38
3415.168	287.38
3418.118	289.38
3421.065	277.38
3424.009	284.38
3426.951	265.38
3429.891	266.38
3432.829	260.38
3435.764	266.38
3438.697	245.38
3441.628	250.38
3444.557	235.38
3447.483	234.38
3450.407	237.38
3453.328	218.38
3456.247	214.38
3459.164	210.38
3462.079	214.38
3464.991	203.38
3467.902	194.38
3470.809	190.38
3473.715	195.38
3476.618	181.38
3479.519	175.38
3482.418	158.38
3485.315	159.38
3488.209	159.38
3491.101	157.38
3493.99	141.38
3496.878	147.38
3499.763	143.38
3502.646	143.38
3505.527	132.38
3508.405	129.38
3511.281	112.38
3514.155	126.38
3517.027	117.38
3519.897	106.38
3522.764	113.38
3525.629	88.38
3528.492	99.38
3531.352	88.38
3534.211	90.38
3537.067	88.38
3539.921	83.38
3542.773	90.38
3545.622	67.38
3548.469	62.38
3551.315	56.38
3554.157	67.38
3556.998	55.38
3559.837	59.38
3562.673	59.38
3565.507	52.38
3568.339	39.38
3571.169	43.38
3573.996	46.38
3576.822	23.38
3579.645	35.38
3582.466	28.38
3585.285	40.38
3588.101	32.38
3590.916	23.38
3593.728	34.38
3596.538	22.38
3599.346	24.38
3602.152	19.38
3604.956	20.38
3607.757	24.38
3610.556	5.38
3613.354	20.38
3616.149	18.38
3618.942	16.38
3621.732	16.38
3624.521	8.38
3627.307	-0.62
3630.092	0.38
3632.874	17.38
3635.654	6.38
3638.432	-1.62
3641.208	0.38
3643.982	-0.62
3646.753	8.38
3649.523	-20.62
3652.29	-3.62
3655.055	-0.62
3657.818	-1.62
3660.579	-11.62
3663.338	-18.62
3666.095	-13.62
3668.849	-40.62
3671.602	-5.62
3674.352	-24.62
3677.101	-8.62
3679.847	-10.62
3682.591	-18.62
3685.333	-27.62
3688.073	-14.62
3690.811	-16.62
3693.547	-27.62
3696.281	-26.62
3699.013	-17.62
3701.742	-18.62
3704.47	-30.62
3707.195	-15.62
3709.919	-20.62
3712.64	-18.62
3715.359	-33.62
3718.076	-9.62
3720.792	-23.62
3723.505	-22.62
3726.216	-10.62
3728.925	-23.62
3731.632	-30.62
3734.336	-26.62
3737.039	-25.62
3739.74	-18.62
3742.439	-48.62
3745.136	-22.62
3747.83	-22.62
3750.523	-21.62
3753.213	-82.62
3755.902	-26.62
3758.589	-39.62
3761.273	-37.62
3763.956	-21.62
3766.636	-39.62
3769.315	-17.62
3771.991	-33.62
3774.665	-33.62
3777.338	-28.62
3780.008	-31.62
3782.677	-29.62
3785.343	-46.62
3788.007	-46.62
3790.67	-26.62
3793.33	-40.62
3795.989	-29.62
3798.645	-24.62
3801.299	-40.62
3803.952	-40.62
3806.602	-33.62
3809.251	-25.62
3811.897	-31.62
3814.542	-36.62
3817.184	-38.62
3819.825	-29.62
3822.463	-41.62
3825.1	-34.62
3827.735	-34.62
3830.367	-39.62
3832.998	-23.62
3835.627	-34.62
3838.253	-26.62
3840.878	-31.62
3843.501	-17.62
3846.122	-28.62
3848.741	-25.62
3851.358	-28.62
3853.973	-40.62
3856.586	-21.62
3859.197	-39.62
3861.806	-29.62
3864.414	-43.62
3867.019	-31.62
3869.622	-24.62
3872.224	-16.62
3874.823	-3.62
3877.421	21.38
3880.016	38.38
3882.61	80.38
3885.202	97.38
3887.792	69.38
3890.38	35.38
3892.966	-4.62
3895.55	-26.62
3898.132	-19.62
3900.713	-19.62
3903.291	-20.62
3905.868	-36.62
3908.442	-32.62
3911.015	-31.62
3913.586	-34.62
3916.155	-34.62
3918.722	-36.62
3921.287	-33.62
3923.85	-40.62
3926.411	-38.62
3928.971	-39.62
3931.528	-28.62
3934.084	-36.62
3936.638	-45.62
3939.19	-32.62
3941.74	-27.62
3944.288	-28.62
3946.834	64.38
3949.378	6.38
3951.921	-35.62
3954.462	-35.62
3957	-30.62
3959.537	-18.62
3962.072	-30.62
3964.606	-50.62
3967.137	-34.62
3969.667	-39.62
3972.194	-27.62
3974.72	-32.62
3977.244	-55.62
3979.766	-36.62
3982.286	-37.62
3984.805	-29.62
3987.321	-22.62
3989.836	-28.62
3992.349	-35.62
3994.86	-33.62
3997.369	-37.62
3999.877	-32.62
4002.382	-33.62
4004.886	-26.62
4007.388	-27.62
4009.888	-20.62
4012.386	-24.62
4014.883	-32.62
4017.377	-29.62
4019.87	-30.62
4022.361	-41.62
4024.85	-31.62
4027.338	-25.62
4029.823	-33.62
4032.307	-33.62
4034.789	-29.62
4037.269	-30.62
4039.747	-45.62
4042.224	-21.62
4044.699	-36.62
4047.172	-36.62
4049.643	-24.62
4052.112	-57.62
4054.58	-29.62
4057.046	-41.62
4059.51	-29.62
4061.972	-34.62
4064.432	-46.62
4066.891	-14.62
4069.348	-29.62
4071.803	-28.62
4074.256	-35.62
4076.708	-25.62
4079.158	-30.62
4081.606	-20.62
4084.052	-29.62
4086.497	-26.62
4088.939	-23.62
4091.38	-29.62
4093.819	-24.62
4096.257	2.38
4098.693	-6.62
4101.127	-5.62
4103.559	0.38
4105.989	116.38
4108.418	118.38
4110.845	103.38
4113.27	113.38
4115.694	119.38
4118.115	110.38
4120.535	-31.62
4122.954	-22.62
4125.37	-15.62
4127.785	-24.62
4130.198	-20.62
4132.609	-25.62
4135.019	9.38
4137.427	-1.62
4139.833	6.38
4142.237	-4.62
