Data from 2018-3-6_conc=3_n=10_RamanShift_02.txt Node
Date: Tue Mar 06 13:43:49 GMT+02:00 2018
User: LAB3
Spectrometer: QEPB0276
Trigger mode: 0
Integration Time (sec): 3.000000E1
Scans to average: 1
Electric dark correction enabled: true
Nonlinearity correction enabled: false
Boxcar width: 0
XAxis mode: Raman Shifts
Number of Pixels in Spectrum: 1044
>>>>>Begin Spectral Data<<<<<
160.701	109.75
166.742	147.75
172.777	216.75
178.805	431.75
184.826	974.75
190.841	1953.75
196.849	3105.75
202.85	3969.75
208.845	4265.75
214.833	4304.75
220.815	4234.75
226.789	4272.75
232.758	4317.75
238.719	4324.75
244.674	4311.75
250.623	4274.75
256.565	4248.75
262.5	4258.75
268.429	4204.75
274.351	4150.75
280.267	4178.75
286.176	4213.75
292.079	4211.75
297.975	4256.75
303.865	4225.75
309.748	4221.75
315.625	4225.75
321.495	4263.75
327.359	4257.75
333.217	4271.75
339.068	4273.75
344.912	4293.75
350.751	4318.75
356.583	4317.75
362.408	4342.75
368.227	4361.75
374.04	4380.75
379.847	4415.75
385.647	4440.75
391.44	4461.75
397.228	4474.75
403.009	4505.75
408.784	4532.75
414.553	4530.75
420.315	4562.75
426.071	4540.75
431.821	4526.75
437.565	4576.75
443.302	4541.75
449.033	4511.75
454.758	4484.75
460.477	4490.75
466.189	4406.75
471.896	4366.75
477.596	4347.75
483.29	4306.75
488.978	4331.75
494.66	4287.75
500.335	4158.75
506.005	4007.75
511.668	3818.75
517.325	3611.75
522.977	3464.75
528.622	3371.75
534.261	3298.75
539.894	3209.75
545.521	3161.75
551.141	3110.75
556.756	3089.75
562.365	3059.75
567.968	3044.75
573.565	3009.75
579.155	3000.75
584.74	2989.75
590.319	2998.75
595.892	2973.75
601.459	2997.75
607.02	2971.75
612.575	2940.75
618.124	2915.75
623.667	2842.75
629.204	2818.75
634.735	2786.75
640.261	2762.75
645.781	2735.75
651.294	2723.75
656.802	2724.75
662.304	2717.75
667.8	2708.75
673.29	2695.75
678.775	2691.75
684.254	2666.75
689.726	2651.75
695.193	2650.75
700.655	2628.75
706.11	2609.75
711.56	2574.75
717.004	2591.75
722.442	2558.75
727.874	2571.75
733.301	2576.75
738.722	2543.75
744.137	2563.75
749.547	2534.75
754.951	2535.75
760.349	2558.75
765.741	2571.75
771.128	2590.75
776.509	2603.75
781.885	2639.75
787.254	2690.75
792.618	2669.75
797.977	2659.75
803.33	2651.75
808.677	2637.75
814.019	2601.75
819.355	2589.75
824.686	2553.75
830.011	2556.75
835.33	2551.75
840.644	2541.75
845.952	2501.75
851.255	2502.75
856.552	2491.75
861.844	2442.75
867.13	2407.75
872.41	2398.75
877.686	2361.75
882.955	2342.75
888.219	2309.75
893.478	2285.75
898.731	2275.75
903.979	2234.75
909.221	2229.75
914.458	2206.75
919.69	2184.75
924.916	2209.75
930.136	2226.75
935.351	2208.75
940.561	2209.75
945.766	2220.75
950.965	2220.75
956.158	2180.75
961.347	2142.75
966.529	2134.75
971.707	2101.75
976.879	2084.75
982.046	2066.75
987.208	2041.75
992.364	2040.75
997.515	2056.75
1002.66	2063.75
1007.801	2069.75
1012.936	2094.75
1018.066	2095.75
1023.19	2134.75
1028.309	2131.75
1033.423	2132.75
1038.532	2146.75
1043.636	2109.75
1048.734	2083.75
1053.827	2065.75
1058.915	2054.75
1063.998	2044.75
1069.075	2032.75
1074.147	2037.75
1079.214	2024.75
1084.276	2063.75
1089.333	2039.75
1094.385	2042.75
1099.431	2032.75
1104.472	2044.75
1109.509	2008.75
1114.54	1991.75
1119.565	1950.75
1124.586	1935.75
1129.602	1896.75
1134.613	1890.75
1139.618	1870.75
1144.619	1879.75
1149.614	1886.75
1154.604	1904.75
1159.589	1898.75
1164.57	1923.75
1169.545	1926.75
1174.515	1917.75
1179.48	1901.75
1184.44	1883.75
1189.395	1878.75
1194.345	1852.75
1199.29	1834.75
1204.23	1847.75
1209.165	1826.75
1214.095	1865.75
1219.021	1854.75
1223.941	1841.75
1228.856	1864.75
1233.766	1864.75
1238.672	1881.75
1243.572	1877.75
1248.467	1842.75
1253.358	1817.75
1258.244	1789.75
1263.124	1780.75
1268	1771.75
1272.871	1710.75
1277.737	1702.75
1282.599	1691.75
1287.455	1692.75
1292.306	1696.75
1297.153	1694.75
1301.995	1713.75
1306.832	1707.75
1311.664	1730.75
1316.491	1719.75
1321.314	1735.75
1326.132	1698.75
1330.945	1653.75
1335.753	1626.75
1340.556	1603.75
1345.354	1592.75
1350.148	1550.75
1354.937	1559.75
1359.722	1536.75
1364.501	1534.75
1369.276	1537.75
1374.046	1540.75
1378.811	1522.75
1383.572	1523.75
1388.327	1541.75
1393.079	1488.75
1397.825	1494.75
1402.567	1482.75
1407.304	1469.75
1412.036	1456.75
1416.764	1454.75
1421.487	1441.75
1426.205	1441.75
1430.919	1467.75
1435.628	1463.75
1440.333	1452.75
1445.032	1477.75
1449.727	1491.75
1454.418	1520.75
1459.104	1489.75
1463.785	1460.75
1468.462	1445.75
1473.134	1430.75
1477.802	1407.75
1482.465	1369.75
1487.123	1369.75
1491.777	1344.75
1496.426	1321.75
1501.071	1375.75
1505.711	1360.75
1510.347	1363.75
1514.978	1363.75
1519.604	1363.75
1524.226	1383.75
1528.844	1349.75
1533.457	1368.75
1538.065	1360.75
1542.669	1339.75
1547.269	1344.75
1551.864	1350.75
1556.454	1324.75
1561.041	1324.75
1565.622	1327.75
1570.199	1341.75
1574.772	1344.75
1579.34	1353.75
1583.904	1364.75
1588.464	1400.75
1593.019	1377.75
1597.569	1375.75
1602.115	1356.75
1606.657	1354.75
1611.195	1377.75
1615.728	1354.75
1620.256	1336.75
1624.78	1318.75
1629.3	1331.75
1633.816	1354.75
1638.327	1355.75
1642.834	1381.75
1647.336	1364.75
1651.834	1390.75
1656.328	1358.75
1660.817	1358.75
1665.302	1349.75
1669.783	1326.75
1674.259	1328.75
1678.732	1283.75
1683.199	1260.75
1687.663	1214.75
1692.122	1191.75
1696.577	1160.75
1701.028	1157.75
1705.474	1127.75
1709.917	1114.75
1714.355	1096.75
1718.788	1098.75
1723.218	1067.75
1727.643	1058.75
1732.064	1053.75
1736.481	1018.75
1740.893	1009.75
1745.301	1009.75
1749.705	946.75
1754.105	960.75
1758.501	928.75
1762.893	924.75
1767.28	907.75
1771.663	897.75
1776.042	879.75
1780.417	881.75
1784.787	891.75
1789.154	901.75
1793.516	896.75
1797.874	895.75
1802.228	868.75
1806.578	876.75
1810.924	877.75
1815.266	766.75
1819.603	865.75
1823.937	843.75
1828.266	834.75
1832.591	836.75
1836.913	821.75
1841.23	815.75
1845.543	804.75
1849.852	824.75
1854.156	817.75
1858.457	812.75
1862.754	802.75
1867.047	815.75
1871.335	831.75
1875.62	823.75
1879.9	817.75
1884.177	792.75
1888.449	807.75
1892.718	800.75
1896.982	804.75
1901.243	778.75
1905.499	780.75
1909.752	768.75
1914	760.75
1918.245	794.75
1922.485	782.75
1926.722	779.75
1930.954	773.75
1935.183	788.75
1939.408	791.75
1943.628	783.75
1947.845	772.75
1952.058	766.75
1956.267	751.75
1960.472	749.75
1964.673	750.75
1968.87	735.75
1973.063	725.75
1977.252	704.75
1981.438	703.75
1985.619	689.75
1989.797	676.75
1993.971	697.75
1998.14	684.75
2002.306	692.75
2006.469	691.75
2010.627	670.75
2014.781	676.75
2018.932	669.75
2023.078	684.75
2027.221	663.75
2031.36	655.75
2035.495	642.75
2039.627	648.75
2043.754	647.75
2047.878	627.75
2051.998	616.75
2056.114	620.75
2060.226	624.75
2064.334	628.75
2068.439	640.75
2072.54	634.75
2076.637	623.75
2080.73	624.75
2084.82	633.75
2088.906	610.75
2092.988	622.75
2097.066	624.75
2101.14	632.75
2105.211	615.75
2109.278	603.75
2113.342	596.75
2117.401	583.75
2121.457	579.75
2125.509	570.75
2129.558	584.75
2133.602	567.75
2137.643	574.75
2141.681	558.75
2145.714	561.75
2149.744	555.75
2153.77	557.75
2157.793	542.75
2161.812	511.75
2165.827	503.75
2169.838	529.75
2173.846	504.75
2177.851	504.75
2181.851	504.75
2185.848	503.75
2189.841	490.75
2193.831	487.75
2197.817	479.75
2201.799	486.75
2205.778	468.75
2209.753	456.75
2213.725	461.75
2217.693	463.75
2221.657	466.75
2225.618	461.75
2229.575	466.75
2233.529	453.75
2237.479	465.75
2241.425	447.75
2245.368	433.75
2249.307	438.75
2253.243	419.75
2257.175	426.75
2261.104	406.75
2265.029	419.75
2268.95	409.75
2272.868	392.75
2276.783	380.75
2280.694	395.75
2284.601	380.75
2288.505	373.75
2292.405	386.75
2296.302	361.75
2300.195	377.75
2304.085	337.75
2307.971	356.75
2311.854	329.75
2315.734	341.75
2319.609	344.75
2323.482	323.75
2327.351	328.75
2331.216	320.75
2335.078	335.75
2338.937	323.75
2342.792	322.75
2346.643	320.75
2350.492	324.75
2354.336	320.75
2358.178	322.75
2362.015	324.75
2365.85	319.75
2369.681	325.75
2373.508	319.75
2377.333	326.75
2381.153	325.75
2384.971	312.75
2388.785	315.75
2392.595	310.75
2396.402	305.75
2400.206	280.75
2404.007	295.75
2407.804	307.75
2411.597	299.75
2415.388	299.75
2419.174	300.75
2422.958	304.75
2426.738	285.75
2430.515	299.75
2434.289	287.75
2438.059	286.75
2441.825	283.75
2445.589	297.75
2449.349	278.75
2453.106	281.75
2456.859	281.75
2460.61	278.75
2464.356	258.75
2468.1	256.75
2471.84	256.75
2475.577	257.75
2479.311	259.75
2483.041	251.75
2486.768	274.75
2490.492	268.75
2494.213	262.75
2497.93	248.75
2501.644	242.75
2505.355	257.75
2509.062	255.75
2512.766	255.75
2516.467	246.75
2520.165	243.75
2523.859	237.75
2527.551	261.75
2531.239	239.75
2534.923	241.75
2538.605	242.75
2542.283	241.75
2545.958	236.75
2549.63	252.75
2553.299	246.75
2556.964	235.75
2560.626	237.75
2564.285	237.75
2567.941	224.75
2571.594	220.75
2575.243	236.75
2578.89	225.75
2582.533	225.75
2586.173	224.75
2589.809	219.75
2593.443	198.75
2597.073	210.75
2600.701	217.75
2604.325	205.75
2607.946	193.75
2611.564	213.75
2615.178	208.75
2618.79	218.75
2622.398	199.75
2626.004	209.75
2629.606	205.75
2633.205	196.75
2636.801	201.75
2640.394	199.75
2643.983	187.75
2647.57	186.75
2651.153	175.75
2654.734	197.75
2658.311	169.75
2661.885	175.75
2665.456	177.75
2669.025	184.75
2672.589	172.75
2676.151	190.75
2679.71	182.75
2683.266	169.75
2686.819	172.75
2690.368	169.75
2693.915	172.75
2697.458	163.75
2700.999	176.75
2704.536	171.75
2708.071	159.75
2711.602	162.75
2715.13	159.75
2718.656	138.75
2722.178	160.75
2725.697	142.75
2729.214	151.75
2732.727	155.75
2736.237	135.75
2739.744	146.75
2743.249	144.75
2746.75	152.75
2750.248	147.75
2753.743	153.75
2757.236	147.75
2760.725	152.75
2764.211	129.75
2767.695	149.75
2771.175	144.75
2774.652	148.75
2778.127	130.75
2781.598	141.75
2785.067	139.75
2788.532	135.75
2791.995	145.75
2795.455	133.75
2798.911	152.75
2802.365	140.75
2805.816	142.75
2809.264	152.75
2812.709	138.75
2816.151	141.75
2819.59	133.75
2823.026	133.75
2826.46	129.75
2829.89	153.75
2833.318	123.75
2836.742	143.75
2840.164	137.75
2843.583	133.75
2846.999	138.75
2850.412	143.75
2853.822	137.75
2857.229	147.75
2860.634	146.75
2864.035	136.75
2867.434	149.75
2870.83	159.75
2874.223	150.75
2877.613	154.75
2881	152.75
2884.385	152.75
2887.766	152.75
2891.145	158.75
2894.521	148.75
2897.894	147.75
2901.264	164.75
2904.631	160.75
2907.996	161.75
2911.358	170.75
2914.717	163.75
2918.073	163.75
2921.426	155.75
2924.777	156.75
2928.124	157.75
2931.469	175.75
2934.811	162.75
2938.15	184.75
2941.487	184.75
2944.821	200.75
2948.152	176.75
2951.48	180.75
2954.805	169.75
2958.128	185.75
2961.447	173.75
2964.765	192.75
2968.079	188.75
2971.39	183.75
2974.699	181.75
2978.005	187.75
2981.308	181.75
2984.609	182.75
2987.907	189.75
2991.202	201.75
2994.494	182.75
2997.784	192.75
3001.07	193.75
3004.355	189.75
3007.636	195.75
3010.915	198.75
3014.191	197.75
3017.464	204.75
3020.734	204.75
3024.002	204.75
3027.267	206.75
3030.53	208.75
3033.789	200.75
3037.046	218.75
3040.301	202.75
3043.552	221.75
3046.801	234.75
3050.048	244.75
3053.291	263.75
3056.532	239.75
3059.771	237.75
3063.006	247.75
3066.239	251.75
3069.469	269.75
3072.697	269.75
3075.922	267.75
3079.144	274.75
3082.364	298.75
3085.581	293.75
3088.795	315.75
3092.007	315.75
3095.216	312.75
3098.423	315.75
3101.627	293.75
3104.828	331.75
3108.026	324.75
3111.222	351.75
3114.416	362.75
3117.607	352.75
3120.795	356.75
3123.98	370.75
3127.163	362.75
3130.344	377.75
3133.521	378.75
3136.696	399.75
3139.869	413.75
3143.039	386.75
3146.206	421.75
3149.371	420.75
3152.533	427.75
3155.693	414.75
3158.85	433.75
3162.005	438.75
3165.157	429.75
3168.306	431.75
3171.453	435.75
3174.597	435.75
3177.739	424.75
3180.878	443.75
3184.014	452.75
3187.149	458.75
3190.28	447.75
3193.409	454.75
3196.536	445.75
3199.659	462.75
3202.781	463.75
3205.9	454.75
3209.016	446.75
3212.13	455.75
3215.241	453.75
3218.35	442.75
3221.456	444.75
3224.56	429.75
3227.661	443.75
3230.76	422.75
3233.856	423.75
3236.95	432.75
3240.041	402.75
3243.13	428.75
3246.216	414.75
3249.3	423.75
3252.382	421.75
3255.46	408.75
3258.537	362.75
3261.611	397.75
3264.682	410.75
3267.751	400.75
3270.818	387.75
3273.882	403.75
3276.943	398.75
3280.002	406.75
3283.059	392.75
3286.113	389.75
3289.165	378.75
3292.214	365.75
3295.261	385.75
3298.306	356.75
3301.348	365.75
3304.387	365.75
3307.425	363.75
3310.459	353.75
3313.492	353.75
3316.521	336.75
3319.549	353.75
3322.574	348.75
3325.597	347.75
3328.617	337.75
3331.635	334.75
3334.65	323.75
3337.663	336.75
3340.674	342.75
3343.682	336.75
3346.688	340.75
3349.691	323.75
3352.692	324.75
3355.691	328.75
3358.687	328.75
3361.681	320.75
3364.673	317.75
3367.662	320.75
3370.649	313.75
3373.633	301.75
3376.615	300.75
3379.595	283.75
3382.572	283.75
3385.547	281.75
3388.52	280.75
3391.49	276.75
3394.458	284.75
3397.424	278.75
3400.387	261.75
3403.348	269.75
3406.307	269.75
3409.263	266.75
3412.217	273.75
3415.168	262.75
3418.118	272.75
3421.065	258.75
3424.009	264.75
3426.951	257.75
3429.891	246.75
3432.829	247.75
3435.764	248.75
3438.697	234.75
3441.628	235.75
3444.557	209.75
3447.483	212.75
3450.407	210.75
3453.328	208.75
3456.247	193.75
3459.164	186.75
3462.079	196.75
3464.991	187.75
3467.902	180.75
3470.809	180.75
3473.715	181.75
3476.618	163.75
3479.519	166.75
3482.418	147.75
3485.315	140.75
3488.209	146.75
3491.101	141.75
3493.99	130.75
3496.878	133.75
3499.763	131.75
3502.646	133.75
3505.527	118.75
3508.405	117.75
3511.281	104.75
3514.155	116.75
3517.027	107.75
3519.897	99.75
3522.764	108.75
3525.629	74.75
3528.492	96.75
3531.352	88.75
3534.211	86.75
3537.067	75.75
3539.921	73.75
3542.773	79.75
3545.622	60.75
3548.469	54.75
3551.315	48.75
3554.157	62.75
3556.998	46.75
3559.837	50.75
3562.673	54.75
3565.507	41.75
3568.339	36.75
3571.169	39.75
3573.996	34.75
3576.822	20.75
3579.645	26.75
3582.466	31.75
3585.285	34.75
3588.101	27.75
3590.916	21.75
3593.728	32.75
3596.538	23.75
3599.346	26.75
3602.152	13.75
3604.956	18.75
3607.757	19.75
3610.556	5.75
3613.354	18.75
3616.149	9.75
3618.942	11.75
3621.732	14.75
3624.521	0.75
3627.307	0.75
3630.092	-2.25
3632.874	18.75
3635.654	6.75
3638.432	-3.25
3641.208	-7.25
3643.982	-0.25
3646.753	8.75
3649.523	-27.25
3652.29	-6.25
3655.055	-2.25
3657.818	-7.25
3660.579	-10.25
3663.338	-15.25
3666.095	-11.25
3668.849	-39.25
3671.602	-7.25
3674.352	-26.25
3677.101	-2.25
3679.847	-9.25
3682.591	-22.25
3685.333	-27.25
3688.073	-16.25
3690.811	-28.25
3693.547	-32.25
3696.281	-26.25
3699.013	-16.25
3701.742	-24.25
3704.47	-29.25
3707.195	-19.25
3709.919	-21.25
3712.64	-26.25
3715.359	-34.25
3718.076	-15.25
3720.792	-20.25
3723.505	-23.25
3726.216	-10.25
3728.925	-25.25
3731.632	-31.25
3734.336	-28.25
3737.039	-23.25
3739.74	-24.25
3742.439	-50.25
3745.136	-20.25
3747.83	-21.25
3750.523	-25.25
3753.213	-81.25
3755.902	-28.25
3758.589	-45.25
3761.273	-33.25
3763.956	-22.25
3766.636	-38.25
3769.315	-20.25
3771.991	-32.25
3774.665	-34.25
3777.338	-26.25
3780.008	-39.25
3782.677	-28.25
3785.343	-44.25
3788.007	-51.25
3790.67	-23.25
3793.33	-46.25
3795.989	-36.25
3798.645	-26.25
3801.299	-45.25
3803.952	-39.25
3806.602	-33.25
3809.251	-27.25
3811.897	-31.25
3814.542	-36.25
3817.184	-28.25
3819.825	-30.25
3822.463	-42.25
3825.1	-31.25
3827.735	-31.25
3830.367	-42.25
3832.998	-18.25
3835.627	-36.25
3838.253	-24.25
3840.878	-33.25
3843.501	-16.25
3846.122	-27.25
3848.741	-25.25
3851.358	-24.25
3853.973	-38.25
3856.586	-25.25
3859.197	-38.25
3861.806	-34.25
3864.414	-46.25
3867.019	-32.25
3869.622	-22.25
3872.224	-23.25
3874.823	-3.25
3877.421	19.75
3880.016	34.75
3882.61	73.75
3885.202	89.75
3887.792	59.75
3890.38	17.75
3892.966	-9.25
3895.55	-31.25
3898.132	-23.25
3900.713	-23.25
3903.291	-33.25
3905.868	-39.25
3908.442	-32.25
3911.015	-33.25
3913.586	-36.25
3916.155	-35.25
3918.722	-41.25
3921.287	-42.25
3923.85	-44.25
3926.411	-40.25
3928.971	-40.25
3931.528	-30.25
3934.084	-37.25
3936.638	-45.25
3939.19	-30.25
3941.74	-31.25
3944.288	-39.25
3946.834	-39.25
3949.378	-28.25
3951.921	-41.25
3954.462	-33.25
3957	-31.25
3959.537	-21.25
3962.072	-39.25
3964.606	-48.25
3967.137	-31.25
3969.667	-42.25
3972.194	-24.25
3974.72	-38.25
3977.244	-55.25
3979.766	-40.25
3982.286	-38.25
3984.805	-31.25
3987.321	-25.25
3989.836	-29.25
3992.349	-41.25
3994.86	-30.25
3997.369	-42.25
3999.877	-31.25
4002.382	-36.25
4004.886	-28.25
4007.388	-33.25
4009.888	-20.25
4012.386	-21.25
4014.883	-32.25
4017.377	-28.25
4019.87	-29.25
4022.361	-41.25
4024.85	-33.25
4027.338	-31.25
4029.823	-37.25
4032.307	-37.25
4034.789	-35.25
4037.269	-33.25
4039.747	-43.25
4042.224	-23.25
4044.699	-36.25
4047.172	-34.25
4049.643	-26.25
4052.112	-58.25
4054.58	-28.25
4057.046	-42.25
4059.51	-32.25
4061.972	-33.25
4064.432	-47.25
4066.891	-23.25
4069.348	-30.25
4071.803	-32.25
4074.256	-39.25
4076.708	-27.25
4079.158	-31.25
4081.606	-21.25
4084.052	-31.25
4086.497	-25.25
4088.939	-30.25
4091.38	-34.25
4093.819	-23.25
4096.257	2.75
4098.693	-8.25
4101.127	-7.25
4103.559	1.75
4105.989	111.75
4108.418	114.75
4110.845	96.75
4113.27	109.75
4115.694	109.75
4118.115	107.75
4120.535	-28.25
4122.954	-28.25
4125.37	-23.25
4127.785	-25.25
4130.198	-21.25
4132.609	-29.25
4135.019	7.75
4137.427	0.75
4139.833	4.75
4142.237	-2.25
