Data from 2018-3-6_conc=3_n=2_RamanShift_03.txt Node
Date: Tue Mar 06 13:18:19 GMT+02:00 2018
User: LAB3
Spectrometer: QEPB0276
Trigger mode: 0
Integration Time (sec): 3.000000E1
Scans to average: 1
Electric dark correction enabled: true
Nonlinearity correction enabled: false
Boxcar width: 0
XAxis mode: Raman Shifts
Number of Pixels in Spectrum: 1044
>>>>>Begin Spectral Data<<<<<
160.701	160.12
166.742	197.12
172.777	285.12
178.805	553.12
184.826	1239.12
190.841	2487.12
196.849	3974.12
202.85	5053.12
208.845	5495.12
214.833	5479.12
220.815	5458.12
226.789	5455.12
232.758	5486.12
238.719	5488.12
244.674	5433.12
250.623	5488.12
256.565	5395.12
262.5	5348.12
268.429	5326.12
274.351	5306.12
280.267	5318.12
286.176	5319.12
292.079	5337.12
297.975	5343.12
303.865	5352.12
309.748	5362.12
315.625	5360.12
321.495	5402.12
327.359	5396.12
333.217	5392.12
339.068	5416.12
344.912	5444.12
350.751	5465.12
356.583	5502.12
362.408	5510.12
368.227	5535.12
374.04	5556.12
379.847	5619.12
385.647	5635.12
391.44	5627.12
397.228	5674.12
403.009	5734.12
408.784	5714.12
414.553	5757.12
420.315	5769.12
426.071	5764.12
431.821	5781.12
437.565	5778.12
443.302	5736.12
449.033	5727.12
454.758	5704.12
460.477	5685.12
466.189	5581.12
471.896	5543.12
477.596	5484.12
483.29	5488.12
488.978	5457.12
494.66	5443.12
500.335	5280.12
506.005	5040.12
511.668	4801.12
517.325	4574.12
522.977	4382.12
528.622	4235.12
534.261	4120.12
539.894	4061.12
545.521	4018.12
551.141	3933.12
556.756	3916.12
562.365	3900.12
567.968	3850.12
573.565	3802.12
579.155	3816.12
584.74	3770.12
590.319	3747.12
595.892	3754.12
601.459	3756.12
607.02	3732.12
612.575	3691.12
618.124	3703.12
623.667	3594.12
629.204	3567.12
634.735	3530.12
640.261	3482.12
645.781	3405.12
651.294	3419.12
656.802	3416.12
662.304	3417.12
667.8	3400.12
673.29	3387.12
678.775	3379.12
684.254	3377.12
689.726	3347.12
695.193	3358.12
700.655	3323.12
706.11	3292.12
711.56	3277.12
717.004	3259.12
722.442	3235.12
727.874	3241.12
733.301	3229.12
738.722	3203.12
744.137	3211.12
749.547	3204.12
754.951	3186.12
760.349	3233.12
765.741	3241.12
771.128	3258.12
776.509	3271.12
781.885	3345.12
787.254	3381.12
792.618	3370.12
797.977	3377.12
803.33	3348.12
808.677	3295.12
814.019	3294.12
819.355	3250.12
824.686	3247.12
830.011	3213.12
835.33	3213.12
840.644	3173.12
845.952	3143.12
851.255	3139.12
856.552	3117.12
861.844	3063.12
867.13	3010.12
872.41	3020.12
877.686	2979.12
882.955	2947.12
888.219	2916.12
893.478	2900.12
898.731	2845.12
903.979	2825.12
909.221	2792.12
914.458	2785.12
919.69	2775.12
924.916	2761.12
930.136	2759.12
935.351	2771.12
940.561	2775.12
945.766	2773.12
950.965	2775.12
956.158	2747.12
961.347	2700.12
966.529	2685.12
971.707	2644.12
976.879	2611.12
982.046	2581.12
987.208	2580.12
992.364	2592.12
997.515	2569.12
1002.66	2590.12
1007.801	2611.12
1012.936	2628.12
1018.066	2625.12
1023.19	2645.12
1028.309	2660.12
1033.423	2668.12
1038.532	2691.12
1043.636	2658.12
1048.734	2632.12
1053.827	2592.12
1058.915	2578.12
1063.998	2560.12
1069.075	2542.12
1074.147	2578.12
1079.214	2543.12
1084.276	2574.12
1089.333	2564.12
1094.385	2579.12
1099.431	2545.12
1104.472	2545.12
1109.509	2520.12
1114.54	2485.12
1119.565	2464.12
1124.586	2415.12
1129.602	2407.12
1134.613	2358.12
1139.618	2363.12
1144.619	2362.12
1149.614	2381.12
1154.604	2360.12
1159.589	2378.12
1164.57	2403.12
1169.545	2389.12
1174.515	2390.12
1179.48	2376.12
1184.44	2373.12
1189.395	2355.12
1194.345	2328.12
1199.29	2313.12
1204.23	2316.12
1209.165	2293.12
1214.095	2320.12
1219.021	2340.12
1223.941	2347.12
1228.856	2358.12
1233.766	2357.12
1238.672	2382.12
1243.572	2362.12
1248.467	2331.12
1253.358	2285.12
1258.244	2253.12
1263.124	2245.12
1268	2193.12
1272.871	2156.12
1277.737	2167.12
1282.599	2115.12
1287.455	2139.12
1292.306	2144.12
1297.153	2123.12
1301.995	2153.12
1306.832	2160.12
1311.664	2164.12
1316.491	2159.12
1321.314	2147.12
1326.132	2121.12
1330.945	2092.12
1335.753	2066.12
1340.556	2018.12
1345.354	1997.12
1350.148	1971.12
1354.937	1955.12
1359.722	1925.12
1364.501	1911.12
1369.276	1920.12
1374.046	1907.12
1378.811	1900.12
1383.572	1908.12
1388.327	1900.12
1393.079	1866.12
1397.825	1873.12
1402.567	1868.12
1407.304	1838.12
1412.036	1820.12
1416.764	1820.12
1421.487	1816.12
1426.205	1809.12
1430.919	1825.12
1435.628	1818.12
1440.333	1832.12
1445.032	1836.12
1449.727	1850.12
1454.418	1877.12
1459.104	1862.12
1463.785	1825.12
1468.462	1823.12
1473.134	1786.12
1477.802	1745.12
1482.465	1700.12
1487.123	1720.12
1491.777	1687.12
1496.426	1681.12
1501.071	1699.12
1505.711	1694.12
1510.347	1730.12
1514.978	1724.12
1519.604	1712.12
1524.226	1733.12
1528.844	1714.12
1533.457	1719.12
1538.065	1688.12
1542.669	1682.12
1547.269	1667.12
1551.864	1672.12
1556.454	1653.12
1561.041	1660.12
1565.622	1649.12
1570.199	1664.12
1574.772	1673.12
1579.34	1675.12
1583.904	1712.12
1588.464	1740.12
1593.019	1720.12
1597.569	1696.12
1602.115	1694.12
1606.657	1695.12
1611.195	1705.12
1615.728	1686.12
1620.256	1678.12
1624.78	1653.12
1629.3	1679.12
1633.816	1699.12
1638.327	1689.12
1642.834	1707.12
1647.336	1684.12
1651.834	1727.12
1656.328	1736.12
1660.817	1713.12
1665.302	1689.12
1669.783	1683.12
1674.259	1654.12
1678.732	1615.12
1683.199	1577.12
1687.663	1534.12
1692.122	1496.12
1696.577	1464.12
1701.028	1452.12
1705.474	1424.12
1709.917	1395.12
1714.355	1373.12
1718.788	1366.12
1723.218	1338.12
1727.643	1313.12
1732.064	1315.12
1736.481	1286.12
1740.893	1269.12
1745.301	1236.12
1749.705	1199.12
1754.105	1197.12
1758.501	1169.12
1762.893	1164.12
1767.28	1118.12
1771.663	1115.12
1776.042	1102.12
1780.417	1100.12
1784.787	1098.12
1789.154	1116.12
1793.516	1101.12
1797.874	1097.12
1802.228	1093.12
1806.578	1087.12
1810.924	1090.12
1815.266	996.12
1819.603	1074.12
1823.937	1040.12
1828.266	1037.12
1832.591	1041.12
1836.913	1004.12
1841.23	1011.12
1845.543	1016.12
1849.852	1006.12
1854.156	1009.12
1858.457	1010.12
1862.754	1010.12
1867.047	1013.12
1871.335	1021.12
1875.62	1015.12
1879.9	1023.12
1884.177	1015.12
1888.449	1003.12
1892.718	1009.12
1896.982	1006.12
1901.243	977.12
1905.499	985.12
1909.752	985.12
1914	955.12
1918.245	980.12
1922.485	992.12
1926.722	995.12
1930.954	982.12
1935.183	1013.12
1939.408	997.12
1943.628	995.12
1947.845	986.12
1952.058	974.12
1956.267	951.12
1960.472	962.12
1964.673	928.12
1968.87	903.12
1973.063	896.12
1977.252	882.12
1981.438	880.12
1985.619	862.12
1989.797	852.12
1993.971	844.12
1998.14	865.12
2002.306	852.12
2006.469	857.12
2010.627	829.12
2014.781	844.12
2018.932	830.12
2023.078	845.12
2027.221	833.12
2031.36	815.12
2035.495	805.12
2039.627	802.12
2043.754	796.12
2047.878	785.12
2051.998	771.12
2056.114	789.12
2060.226	788.12
2064.334	806.12
2068.439	798.12
2072.54	799.12
2076.637	785.12
2080.73	799.12
2084.82	793.12
2088.906	794.12
2092.988	785.12
2097.066	796.12
2101.14	790.12
2105.211	785.12
2109.278	753.12
2113.342	750.12
2117.401	742.12
2121.457	719.12
2125.509	713.12
2129.558	739.12
2133.602	727.12
2137.643	708.12
2141.681	704.12
2145.714	715.12
2149.744	706.12
2153.77	707.12
2157.793	684.12
2161.812	659.12
2165.827	650.12
2169.838	674.12
2173.846	647.12
2177.851	645.12
2181.851	648.12
2185.848	622.12
2189.841	615.12
2193.831	611.12
2197.817	616.12
2201.799	605.12
2205.778	591.12
2209.753	597.12
2213.725	572.12
2217.693	593.12
2221.657	576.12
2225.618	583.12
2229.575	591.12
2233.529	589.12
2237.479	575.12
2241.425	553.12
2245.368	543.12
2249.307	552.12
2253.243	541.12
2257.175	541.12
2261.104	518.12
2265.029	528.12
2268.95	521.12
2272.868	511.12
2276.783	488.12
2280.694	493.12
2284.601	487.12
2288.505	480.12
2292.405	488.12
2296.302	469.12
2300.195	474.12
2304.085	432.12
2307.971	449.12
2311.854	430.12
2315.734	442.12
2319.609	434.12
2323.482	414.12
2327.351	425.12
2331.216	422.12
2335.078	427.12
2338.937	417.12
2342.792	400.12
2346.643	396.12
2350.492	411.12
2354.336	407.12
2358.178	410.12
2362.015	406.12
2365.85	403.12
2369.681	407.12
2373.508	403.12
2377.333	414.12
2381.153	415.12
2384.971	404.12
2388.785	398.12
2392.595	392.12
2396.402	389.12
2400.206	368.12
2404.007	380.12
2407.804	385.12
2411.597	383.12
2415.388	377.12
2419.174	368.12
2422.958	389.12
2426.738	369.12
2430.515	380.12
2434.289	373.12
2438.059	365.12
2441.825	363.12
2445.589	364.12
2449.349	348.12
2453.106	349.12
2456.859	347.12
2460.61	363.12
2464.356	339.12
2468.1	340.12
2471.84	332.12
2475.577	329.12
2479.311	326.12
2483.041	333.12
2486.768	338.12
2490.492	336.12
2494.213	323.12
2497.93	315.12
2501.644	315.12
2505.355	319.12
2509.062	332.12
2512.766	325.12
2516.467	316.12
2520.165	324.12
2523.859	296.12
2527.551	337.12
2531.239	306.12
2534.923	310.12
2538.605	313.12
2542.283	314.12
2545.958	308.12
2549.63	321.12
2553.299	314.12
2556.964	303.12
2560.626	304.12
2564.285	309.12
2567.941	291.12
2571.594	290.12
2575.243	297.12
2578.89	283.12
2582.533	289.12
2586.173	285.12
2589.809	281.12
2593.443	261.12
2597.073	277.12
2600.701	277.12
2604.325	281.12
2607.946	264.12
2611.564	275.12
2615.178	279.12
2618.79	278.12
2622.398	259.12
2626.004	269.12
2629.606	261.12
2633.205	246.12
2636.801	256.12
2640.394	254.12
2643.983	247.12
2647.57	237.12
2651.153	236.12
2654.734	254.12
2658.311	217.12
2661.885	229.12
2665.456	239.12
2669.025	228.12
2672.589	221.12
2676.151	237.12
2679.71	231.12
2683.266	220.12
2686.819	214.12
2690.368	225.12
2693.915	223.12
2697.458	217.12
2700.999	215.12
2704.536	223.12
2708.071	201.12
2711.602	204.12
2715.13	214.12
2718.656	180.12
2722.178	199.12
2725.697	185.12
2729.214	193.12
2732.727	194.12
2736.237	190.12
2739.744	195.12
2743.249	188.12
2746.75	198.12
2750.248	189.12
2753.743	194.12
2757.236	200.12
2760.725	205.12
2764.211	175.12
2767.695	202.12
2771.175	189.12
2774.652	193.12
2778.127	186.12
2781.598	191.12
2785.067	189.12
2788.532	180.12
2791.995	191.12
2795.455	179.12
2798.911	199.12
2802.365	185.12
2805.816	188.12
2809.264	198.12
2812.709	185.12
2816.151	187.12
2819.59	175.12
2823.026	186.12
2826.46	184.12
2829.89	195.12
2833.318	173.12
2836.742	189.12
2840.164	185.12
2843.583	194.12
2846.999	188.12
2850.412	198.12
2853.822	188.12
2857.229	201.12
2860.634	203.12
2864.035	185.12
2867.434	208.12
2870.83	216.12
2874.223	204.12
2877.613	209.12
2881	203.12
2884.385	206.12
2887.766	207.12
2891.145	203.12
2894.521	214.12
2897.894	198.12
2901.264	220.12
2904.631	216.12
2907.996	221.12
2911.358	222.12
2914.717	220.12
2918.073	217.12
2921.426	220.12
2924.777	202.12
2928.124	216.12
2931.469	241.12
2934.811	223.12
2938.15	252.12
2941.487	231.12
2944.821	255.12
2948.152	237.12
2951.48	255.12
2954.805	238.12
2958.128	252.12
2961.447	241.12
2964.765	259.12
2968.079	247.12
2971.39	248.12
2974.699	250.12
2978.005	254.12
2981.308	267.12
2984.609	247.12
2987.907	274.12
2991.202	270.12
2994.494	250.12
2997.784	268.12
3001.07	268.12
3004.355	270.12
3007.636	276.12
3010.915	276.12
3014.191	266.12
3017.464	279.12
3020.734	277.12
3024.002	288.12
3027.267	288.12
3030.53	282.12
3033.789	294.12
3037.046	288.12
3040.301	289.12
3043.552	301.12
3046.801	306.12
3050.048	314.12
3053.291	332.12
3056.532	332.12
3059.771	319.12
3063.006	353.12
3066.239	349.12
3069.469	354.12
3072.697	361.12
3075.922	366.12
3079.144	366.12
3082.364	410.12
3085.581	388.12
3088.795	425.12
3092.007	423.12
3095.216	432.12
3098.423	427.12
3101.627	418.12
3104.828	448.12
3108.026	452.12
3111.222	478.12
3114.416	487.12
3117.607	486.12
3120.795	490.12
3123.98	507.12
3127.163	508.12
3130.344	522.12
3133.521	517.12
3136.696	551.12
3139.869	556.12
3143.039	544.12
3146.206	581.12
3149.371	591.12
3152.533	577.12
3155.693	575.12
3158.85	602.12
3162.005	592.12
3165.157	598.12
3168.306	593.12
3171.453	614.12
3174.597	584.12
3177.739	599.12
3180.878	607.12
3184.014	610.12
3187.149	613.12
3190.28	602.12
3193.409	616.12
3196.536	619.12
3199.659	636.12
3202.781	619.12
3205.9	617.12
3209.016	621.12
3212.13	618.12
3215.241	622.12
3218.35	603.12
3221.456	589.12
3224.56	583.12
3227.661	589.12
3230.76	589.12
3233.856	578.12
3236.95	582.12
3240.041	568.12
3243.13	580.12
3246.216	577.12
3249.3	578.12
3252.382	562.12
3255.46	558.12
3258.537	518.12
3261.611	551.12
3264.682	559.12
3267.751	558.12
3270.818	539.12
3273.882	562.12
3276.943	549.12
3280.002	557.12
3283.059	518.12
3286.113	536.12
3289.165	524.12
3292.214	515.12
3295.261	525.12
3298.306	491.12
3301.348	512.12
3304.387	489.12
3307.425	493.12
3310.459	478.12
3313.492	488.12
3316.521	465.12
3319.549	477.12
3322.574	476.12
3325.597	459.12
3328.617	452.12
3331.635	462.12
3334.65	443.12
3337.663	454.12
3340.674	454.12
3343.682	455.12
3346.688	459.12
3349.691	447.12
3352.692	456.12
3355.691	450.12
3358.687	443.12
3361.681	452.12
3364.673	441.12
3367.662	443.12
3370.649	432.12
3373.633	418.12
3376.615	430.12
3379.595	399.12
3382.572	401.12
3385.547	402.12
3388.52	389.12
3391.49	383.12
3394.458	388.12
3397.424	397.12
3400.387	373.12
3403.348	375.12
3406.307	374.12
3409.263	368.12
3412.217	378.12
3415.168	369.12
3418.118	372.12
3421.065	356.12
3424.009	357.12
3426.951	346.12
3429.891	349.12
3432.829	342.12
3435.764	342.12
3438.697	325.12
3441.628	328.12
3444.557	310.12
3447.483	304.12
3450.407	312.12
3453.328	291.12
3456.247	277.12
3459.164	261.12
3462.079	287.12
3464.991	265.12
3467.902	253.12
3470.809	252.12
3473.715	251.12
3476.618	233.12
3479.519	238.12
3482.418	211.12
3485.315	214.12
3488.209	216.12
3491.101	206.12
3493.99	188.12
3496.878	186.12
3499.763	189.12
3502.646	182.12
3505.527	174.12
3508.405	169.12
3511.281	152.12
3514.155	161.12
3517.027	151.12
3519.897	139.12
3522.764	152.12
3525.629	120.12
3528.492	130.12
3531.352	130.12
3534.211	122.12
3537.067	115.12
3539.921	111.12
3542.773	117.12
3545.622	92.12
3548.469	91.12
3551.315	82.12
3554.157	91.12
3556.998	80.12
3559.837	78.12
3562.673	80.12
3565.507	67.12
3568.339	64.12
3571.169	68.12
3573.996	57.12
3576.822	42.12
3579.645	48.12
3582.466	53.12
3585.285	53.12
3588.101	49.12
3590.916	46.12
3593.728	52.12
3596.538	41.12
3599.346	43.12
3602.152	35.12
3604.956	36.12
3607.757	31.12
3610.556	21.12
3613.354	38.12
3616.149	28.12
3618.942	28.12
3621.732	30.12
3624.521	16.12
3627.307	11.12
3630.092	14.12
3632.874	30.12
3635.654	25.12
3638.432	9.12
3641.208	11.12
3643.982	8.12
3646.753	18.12
3649.523	-19.88
3652.29	8.12
3655.055	13.12
3657.818	4.12
3660.579	5.12
3663.338	-12.88
3666.095	-5.88
3668.849	-26.88
3671.602	4.12
3674.352	-12.88
3677.101	4.12
3679.847	2.12
3682.591	-9.88
3685.333	-18.88
3688.073	-6.88
3690.811	-18.88
3693.547	-23.88
3696.281	-21.88
3699.013	-13.88
3701.742	-12.88
3704.47	-26.88
3707.195	-10.88
3709.919	-13.88
3712.64	-18.88
3715.359	-26.88
3718.076	-3.88
3720.792	-19.88
3723.505	-14.88
3726.216	-3.88
3728.925	-19.88
3731.632	-28.88
3734.336	-21.88
3737.039	-17.88
3739.74	-17.88
3742.439	-43.88
3745.136	-13.88
3747.83	-16.88
3750.523	-15.88
3753.213	-79.88
3755.902	-27.88
3758.589	-37.88
3761.273	-26.88
3763.956	-14.88
3766.636	-36.88
3769.315	-7.88
3771.991	-19.88
3774.665	-27.88
3777.338	-20.88
3780.008	-31.88
3782.677	-27.88
3785.343	-43.88
3788.007	-40.88
3790.67	-13.88
3793.33	-37.88
3795.989	-26.88
3798.645	-24.88
3801.299	-37.88
3803.952	-35.88
3806.602	-29.88
3809.251	-23.88
3811.897	-25.88
3814.542	-30.88
3817.184	-27.88
3819.825	-23.88
3822.463	-35.88
3825.1	-35.88
3827.735	-25.88
3830.367	-34.88
3832.998	-10.88
3835.627	-28.88
3838.253	-19.88
3840.878	-29.88
3843.501	-12.88
3846.122	-19.88
3848.741	-18.88
3851.358	-20.88
3853.973	-37.88
3856.586	-13.88
3859.197	-31.88
3861.806	-27.88
3864.414	-36.88
3867.019	-25.88
3869.622	-15.88
3872.224	-5.88
3874.823	3.12
3877.421	34.12
3880.016	58.12
3882.61	96.12
3885.202	115.12
3887.792	83.12
3890.38	48.12
3892.966	-0.88
3895.55	-20.88
3898.132	-10.88
3900.713	-18.88
3903.291	-26.88
3905.868	-31.88
3908.442	-27.88
3911.015	-30.88
3913.586	-31.88
3916.155	-30.88
3918.722	-36.88
3921.287	-34.88
3923.85	-42.88
3926.411	-31.88
3928.971	-33.88
3931.528	-24.88
3934.084	-33.88
3936.638	-39.88
3939.19	-23.88
3941.74	-27.88
3944.288	-30.88
3946.834	-32.88
3949.378	-21.88
3951.921	-34.88
3954.462	-28.88
3957	-28.88
3959.537	-16.88
3962.072	-27.88
3964.606	-46.88
3967.137	-31.88
3969.667	-30.88
3972.194	-26.88
3974.72	-35.88
3977.244	-53.88
3979.766	-35.88
3982.286	-36.88
3984.805	-22.88
3987.321	-19.88
3989.836	-23.88
3992.349	-36.88
3994.86	-26.88
3997.369	-37.88
3999.877	-30.88
4002.382	-29.88
4004.886	-26.88
4007.388	-24.88
4009.888	-16.88
4012.386	-18.88
4014.883	-20.88
4017.377	-27.88
4019.87	-24.88
4022.361	-34.88
4024.85	-27.88
4027.338	-28.88
4029.823	-29.88
4032.307	-31.88
4034.789	-30.88
4037.269	-30.88
4039.747	-39.88
4042.224	-20.88
4044.699	-33.88
4047.172	-36.88
4049.643	-22.88
4052.112	-55.88
4054.58	-26.88
4057.046	-43.88
4059.51	-29.88
4061.972	-21.88
4064.432	-47.88
4066.891	-20.88
4069.348	-31.88
4071.803	-25.88
4074.256	-30.88
4076.708	-27.88
4079.158	-29.88
4081.606	-20.88
4084.052	-26.88
4086.497	-24.88
4088.939	-27.88
4091.38	-30.88
4093.819	-21.88
4096.257	0.12
4098.693	-2.88
4101.127	-2.88
4103.559	-1.88
4105.989	139.12
4108.418	138.12
4110.845	132.12
4113.27	138.12
4115.694	147.12
4118.115	134.12
4120.535	-26.88
4122.954	-24.88
4125.37	-19.88
4127.785	-23.88
4130.198	-21.88
4132.609	-24.88
4135.019	10.12
4137.427	-1.88
4139.833	2.12
4142.237	-2.88
