Data from 2018-3-6_conc=0_n=4_RamanShift_02.txt Node
Date: Tue Mar 06 12:18:19 GMT+02:00 2018
User: LAB3
Spectrometer: QEPB0276
Trigger mode: 0
Integration Time (sec): 3.000000E1
Scans to average: 1
Electric dark correction enabled: true
Nonlinearity correction enabled: false
Boxcar width: 0
XAxis mode: Raman Shifts
Number of Pixels in Spectrum: 1044
>>>>>Begin Spectral Data<<<<<
160.701	97.75
166.742	132.75
172.777	217.75
178.805	476.75
184.826	1130.75
190.841	2325.75
196.849	3745.75
202.85	4819.75
208.845	5263.75
214.833	5312.75
220.815	5309.75
226.789	5345.75
232.758	5446.75
238.719	5512.75
244.674	5546.75
250.623	5540.75
256.565	5560.75
262.5	5519.75
268.429	5530.75
274.351	5551.75
280.267	5526.75
286.176	5617.75
292.079	5649.75
297.975	5687.75
303.865	5711.75
309.748	5738.75
315.625	5707.75
321.495	5761.75
327.359	5764.75
333.217	5813.75
339.068	5789.75
344.912	5831.75
350.751	5860.75
356.583	5904.75
362.408	5918.75
368.227	5927.75
374.04	5934.75
379.847	5968.75
385.647	6018.75
391.44	6002.75
397.228	6052.75
403.009	6115.75
408.784	6116.75
414.553	6161.75
420.315	6151.75
426.071	6154.75
431.821	6187.75
437.565	6171.75
443.302	6149.75
449.033	6119.75
454.758	6102.75
460.477	6052.75
466.189	6009.75
471.896	5983.75
477.596	5952.75
483.29	5902.75
488.978	5883.75
494.66	5846.75
500.335	5751.75
506.005	5580.75
511.668	5370.75
517.325	5125.75
522.977	4985.75
528.622	4835.75
534.261	4758.75
539.894	4693.75
545.521	4657.75
551.141	4616.75
556.756	4604.75
562.365	4557.75
567.968	4551.75
573.565	4509.75
579.155	4498.75
584.74	4487.75
590.319	4472.75
595.892	4460.75
601.459	4468.75
607.02	4442.75
612.575	4384.75
618.124	4380.75
623.667	4291.75
629.204	4290.75
634.735	4236.75
640.261	4191.75
645.781	4159.75
651.294	4131.75
656.802	4139.75
662.304	4119.75
667.8	4114.75
673.29	4084.75
678.775	4103.75
684.254	4083.75
689.726	4058.75
695.193	4057.75
700.655	4053.75
706.11	4007.75
711.56	3996.75
717.004	3965.75
722.442	3955.75
727.874	3943.75
733.301	3922.75
738.722	3924.75
744.137	3913.75
749.547	3915.75
754.951	3923.75
760.349	3916.75
765.741	3945.75
771.128	3941.75
776.509	3985.75
781.885	4039.75
787.254	4057.75
792.618	4067.75
797.977	4058.75
803.33	4040.75
808.677	4000.75
814.019	3966.75
819.355	3952.75
824.686	3929.75
830.011	3900.75
835.33	3910.75
840.644	3883.75
845.952	3877.75
851.255	3843.75
856.552	3846.75
861.844	3835.75
867.13	3810.75
872.41	3810.75
877.686	3847.75
882.955	3821.75
888.219	3800.75
893.478	3725.75
898.731	3631.75
903.979	3531.75
909.221	3526.75
914.458	3493.75
919.69	3483.75
924.916	3500.75
930.136	3522.75
935.351	3506.75
940.561	3521.75
945.766	3509.75
950.965	3506.75
956.158	3459.75
961.347	3454.75
966.529	3410.75
971.707	3382.75
976.879	3306.75
982.046	3294.75
987.208	3266.75
992.364	3273.75
997.515	3281.75
1002.66	3310.75
1007.801	3332.75
1012.936	3363.75
1018.066	3372.75
1023.19	3412.75
1028.309	3433.75
1033.423	3433.75
1038.532	3418.75
1043.636	3418.75
1048.734	3415.75
1053.827	3383.75
1058.915	3345.75
1063.998	3318.75
1069.075	3275.75
1074.147	3292.75
1079.214	3264.75
1084.276	3322.75
1089.333	3330.75
1094.385	3356.75
1099.431	3327.75
1104.472	3336.75
1109.509	3259.75
1114.54	3224.75
1119.565	3207.75
1124.586	3159.75
1129.602	3094.75
1134.613	3058.75
1139.618	3060.75
1144.619	3051.75
1149.614	3060.75
1154.604	3073.75
1159.589	3071.75
1164.57	3102.75
1169.545	3128.75
1174.515	3069.75
1179.48	3086.75
1184.44	3072.75
1189.395	3072.75
1194.345	3040.75
1199.29	3022.75
1204.23	2989.75
1209.165	2993.75
1214.095	3016.75
1219.021	3020.75
1223.941	3034.75
1228.856	3037.75
1233.766	3044.75
1238.672	3093.75
1243.572	3045.75
1248.467	3036.75
1253.358	2995.75
1258.244	2973.75
1263.124	2944.75
1268	2901.75
1272.871	2837.75
1277.737	2842.75
1282.599	2814.75
1287.455	2820.75
1292.306	2798.75
1297.153	2821.75
1301.995	2852.75
1306.832	2830.75
1311.664	2848.75
1316.491	2837.75
1321.314	2861.75
1326.132	2820.75
1330.945	2779.75
1335.753	2732.75
1340.556	2692.75
1345.354	2662.75
1350.148	2613.75
1354.937	2590.75
1359.722	2546.75
1364.501	2531.75
1369.276	2548.75
1374.046	2524.75
1378.811	2495.75
1383.572	2545.75
1388.327	2536.75
1393.079	2513.75
1397.825	2494.75
1402.567	2460.75
1407.304	2447.75
1412.036	2442.75
1416.764	2443.75
1421.487	2417.75
1426.205	2427.75
1430.919	2449.75
1435.628	2484.75
1440.333	2524.75
1445.032	2542.75
1449.727	2535.75
1454.418	2578.75
1459.104	2584.75
1463.785	2535.75
1468.462	2507.75
1473.134	2444.75
1477.802	2410.75
1482.465	2357.75
1487.123	2374.75
1491.777	2321.75
1496.426	2309.75
1501.071	2337.75
1505.711	2322.75
1510.347	2341.75
1514.978	2362.75
1519.604	2359.75
1524.226	2336.75
1528.844	2311.75
1533.457	2295.75
1538.065	2268.75
1542.669	2274.75
1547.269	2258.75
1551.864	2216.75
1556.454	2206.75
1561.041	2198.75
1565.622	2197.75
1570.199	2210.75
1574.772	2221.75
1579.34	2239.75
1583.904	2240.75
1588.464	2271.75
1593.019	2281.75
1597.569	2243.75
1602.115	2228.75
1606.657	2237.75
1611.195	2222.75
1615.728	2205.75
1620.256	2169.75
1624.78	2151.75
1629.3	2149.75
1633.816	2165.75
1638.327	2161.75
1642.834	2168.75
1647.336	2177.75
1651.834	2193.75
1656.328	2214.75
1660.817	2206.75
1665.302	2182.75
1669.783	2169.75
1674.259	2167.75
1678.732	2106.75
1683.199	2082.75
1687.663	2033.75
1692.122	1993.75
1696.577	1973.75
1701.028	1932.75
1705.474	1889.75
1709.917	1866.75
1714.355	1862.75
1718.788	1852.75
1723.218	1846.75
1727.643	1815.75
1732.064	1801.75
1736.481	1789.75
1740.893	1767.75
1745.301	1733.75
1749.705	1683.75
1754.105	1665.75
1758.501	1632.75
1762.893	1599.75
1767.28	1576.75
1771.663	1559.75
1776.042	1553.75
1780.417	1549.75
1784.787	1547.75
1789.154	1549.75
1793.516	1553.75
1797.874	1555.75
1802.228	1540.75
1806.578	1537.75
1810.924	1530.75
1815.266	1412.75
1819.603	1494.75
1823.937	1456.75
1828.266	1464.75
1832.591	1445.75
1836.913	1433.75
1841.23	1429.75
1845.543	1426.75
1849.852	1432.75
1854.156	1419.75
1858.457	1436.75
1862.754	1431.75
1867.047	1439.75
1871.335	1465.75
1875.62	1453.75
1879.9	1453.75
1884.177	1426.75
1888.449	1445.75
1892.718	1426.75
1896.982	1434.75
1901.243	1393.75
1905.499	1404.75
1909.752	1387.75
1914	1379.75
1918.245	1403.75
1922.485	1404.75
1926.722	1408.75
1930.954	1396.75
1935.183	1428.75
1939.408	1419.75
1943.628	1405.75
1947.845	1389.75
1952.058	1369.75
1956.267	1333.75
1960.472	1346.75
1964.673	1289.75
1968.87	1286.75
1973.063	1256.75
1977.252	1249.75
1981.438	1219.75
1985.619	1212.75
1989.797	1207.75
1993.971	1207.75
1998.14	1199.75
2002.306	1192.75
2006.469	1201.75
2010.627	1176.75
2014.781	1170.75
2018.932	1148.75
2023.078	1170.75
2027.221	1162.75
2031.36	1131.75
2035.495	1122.75
2039.627	1114.75
2043.754	1109.75
2047.878	1109.75
2051.998	1099.75
2056.114	1088.75
2060.226	1085.75
2064.334	1102.75
2068.439	1094.75
2072.54	1102.75
2076.637	1102.75
2080.73	1105.75
2084.82	1114.75
2088.906	1105.75
2092.988	1102.75
2097.066	1099.75
2101.14	1094.75
2105.211	1076.75
2109.278	1050.75
2113.342	1044.75
2117.401	1032.75
2121.457	1019.75
2125.509	1010.75
2129.558	1007.75
2133.602	1003.75
2137.643	986.75
2141.681	977.75
2145.714	986.75
2149.744	974.75
2153.77	957.75
2157.793	939.75
2161.812	924.75
2165.827	915.75
2169.838	928.75
2173.846	895.75
2177.851	885.75
2181.851	891.75
2185.848	868.75
2189.841	872.75
2193.831	855.75
2197.817	858.75
2201.799	843.75
2205.778	829.75
2209.753	831.75
2213.725	818.75
2217.693	826.75
2221.657	814.75
2225.618	839.75
2229.575	814.75
2233.529	809.75
2237.479	812.75
2241.425	806.75
2245.368	772.75
2249.307	783.75
2253.243	762.75
2257.175	765.75
2261.104	738.75
2265.029	734.75
2268.95	728.75
2272.868	710.75
2276.783	708.75
2280.694	697.75
2284.601	699.75
2288.505	692.75
2292.405	697.75
2296.302	664.75
2300.195	677.75
2304.085	628.75
2307.971	640.75
2311.854	625.75
2315.734	628.75
2319.609	628.75
2323.482	601.75
2327.351	603.75
2331.216	602.75
2335.078	610.75
2338.937	605.75
2342.792	593.75
2346.643	582.75
2350.492	598.75
2354.336	595.75
2358.178	601.75
2362.015	602.75
2365.85	593.75
2369.681	588.75
2373.508	601.75
2377.333	607.75
2381.153	597.75
2384.971	593.75
2388.785	587.75
2392.595	591.75
2396.402	573.75
2400.206	558.75
2404.007	570.75
2407.804	575.75
2411.597	574.75
2415.388	577.75
2419.174	564.75
2422.958	566.75
2426.738	560.75
2430.515	552.75
2434.289	550.75
2438.059	547.75
2441.825	541.75
2445.589	550.75
2449.349	512.75
2453.106	538.75
2456.859	532.75
2460.61	535.75
2464.356	509.75
2468.1	506.75
2471.84	489.75
2475.577	503.75
2479.311	502.75
2483.041	508.75
2486.768	518.75
2490.492	508.75
2494.213	495.75
2497.93	488.75
2501.644	488.75
2505.355	497.75
2509.062	493.75
2512.766	496.75
2516.467	483.75
2520.165	481.75
2523.859	469.75
2527.551	504.75
2531.239	464.75
2534.923	473.75
2538.605	478.75
2542.283	479.75
2545.958	468.75
2549.63	480.75
2553.299	474.75
2556.964	460.75
2560.626	457.75
2564.285	461.75
2567.941	450.75
2571.594	451.75
2575.243	460.75
2578.89	437.75
2582.533	437.75
2586.173	433.75
2589.809	442.75
2593.443	403.75
2597.073	432.75
2600.701	422.75
2604.325	419.75
2607.946	412.75
2611.564	415.75
2615.178	413.75
2618.79	407.75
2622.398	404.75
2626.004	397.75
2629.606	410.75
2633.205	380.75
2636.801	390.75
2640.394	374.75
2643.983	377.75
2647.57	371.75
2651.153	356.75
2654.734	371.75
2658.311	346.75
2661.885	349.75
2665.456	357.75
2669.025	353.75
2672.589	342.75
2676.151	347.75
2679.71	359.75
2683.266	338.75
2686.819	325.75
2690.368	337.75
2693.915	333.75
2697.458	329.75
2700.999	323.75
2704.536	319.75
2708.071	313.75
2711.602	315.75
2715.13	313.75
2718.656	301.75
2722.178	302.75
2725.697	293.75
2729.214	296.75
2732.727	302.75
2736.237	290.75
2739.744	294.75
2743.249	296.75
2746.75	300.75
2750.248	285.75
2753.743	291.75
2757.236	291.75
2760.725	291.75
2764.211	258.75
2767.695	297.75
2771.175	283.75
2774.652	273.75
2778.127	270.75
2781.598	264.75
2785.067	278.75
2788.532	266.75
2791.995	281.75
2795.455	268.75
2798.911	278.75
2802.365	265.75
2805.816	277.75
2809.264	280.75
2812.709	279.75
2816.151	274.75
2819.59	262.75
2823.026	269.75
2826.46	275.75
2829.89	290.75
2833.318	256.75
2836.742	271.75
2840.164	273.75
2843.583	276.75
2846.999	271.75
2850.412	275.75
2853.822	277.75
2857.229	292.75
2860.634	285.75
2864.035	270.75
2867.434	286.75
2870.83	301.75
2874.223	289.75
2877.613	302.75
2881	298.75
2884.385	296.75
2887.766	313.75
2891.145	306.75
2894.521	315.75
2897.894	286.75
2901.264	311.75
2904.631	301.75
2907.996	304.75
2911.358	308.75
2914.717	293.75
2918.073	303.75
2921.426	294.75
2924.777	289.75
2928.124	299.75
2931.469	326.75
2934.811	313.75
2938.15	338.75
2941.487	331.75
2944.821	336.75
2948.152	326.75
2951.48	320.75
2954.805	289.75
2958.128	313.75
2961.447	296.75
2964.765	307.75
2968.079	287.75
2971.39	296.75
2974.699	291.75
2978.005	294.75
2981.308	300.75
2984.609	285.75
2987.907	293.75
2991.202	302.75
2994.494	288.75
2997.784	293.75
3001.07	299.75
3004.355	282.75
3007.636	288.75
3010.915	281.75
3014.191	283.75
3017.464	281.75
3020.734	275.75
3024.002	276.75
3027.267	274.75
3030.53	282.75
3033.789	277.75
3037.046	271.75
3040.301	260.75
3043.552	290.75
3046.801	287.75
3050.048	297.75
3053.291	305.75
3056.532	297.75
3059.771	295.75
3063.006	320.75
3066.239	315.75
3069.469	333.75
3072.697	320.75
3075.922	331.75
3079.144	339.75
3082.364	361.75
3085.581	344.75
3088.795	369.75
3092.007	363.75
3095.216	370.75
3098.423	363.75
3101.627	356.75
3104.828	389.75
3108.026	381.75
3111.222	401.75
3114.416	408.75
3117.607	412.75
3120.795	405.75
3123.98	420.75
3127.163	413.75
3130.344	443.75
3133.521	430.75
3136.696	460.75
3139.869	458.75
3143.039	446.75
3146.206	482.75
3149.371	478.75
3152.533	481.75
3155.693	467.75
3158.85	476.75
3162.005	477.75
3165.157	481.75
3168.306	470.75
3171.453	493.75
3174.597	463.75
3177.739	469.75
3180.878	480.75
3184.014	473.75
3187.149	480.75
3190.28	481.75
3193.409	485.75
3196.536	487.75
3199.659	491.75
3202.781	488.75
3205.9	475.75
3209.016	482.75
3212.13	480.75
3215.241	489.75
3218.35	480.75
3221.456	460.75
3224.56	456.75
3227.661	465.75
3230.76	463.75
3233.856	446.75
3236.95	451.75
3240.041	440.75
3243.13	443.75
3246.216	434.75
3249.3	451.75
3252.382	442.75
3255.46	429.75
3258.537	383.75
3261.611	421.75
3264.682	435.75
3267.751	427.75
3270.818	410.75
3273.882	437.75
3276.943	424.75
3280.002	422.75
3283.059	399.75
3286.113	411.75
3289.165	404.75
3292.214	384.75
3295.261	401.75
3298.306	365.75
3301.348	375.75
3304.387	358.75
3307.425	372.75
3310.459	356.75
3313.492	360.75
3316.521	355.75
3319.549	362.75
3322.574	354.75
3325.597	338.75
3328.617	337.75
3331.635	338.75
3334.65	328.75
3337.663	344.75
3340.674	338.75
3343.682	343.75
3346.688	350.75
3349.691	330.75
3352.692	330.75
3355.691	345.75
3358.687	336.75
3361.681	336.75
3364.673	333.75
3367.662	325.75
3370.649	320.75
3373.633	313.75
3376.615	319.75
3379.595	300.75
3382.572	301.75
3385.547	291.75
3388.52	287.75
3391.49	285.75
3394.458	297.75
3397.424	294.75
3400.387	279.75
3403.348	286.75
3406.307	278.75
3409.263	277.75
3412.217	280.75
3415.168	273.75
3418.118	290.75
3421.065	264.75
3424.009	276.75
3426.951	262.75
3429.891	251.75
3432.829	253.75
3435.764	251.75
3438.697	239.75
3441.628	251.75
3444.557	225.75
3447.483	220.75
3450.407	217.75
3453.328	217.75
3456.247	208.75
3459.164	191.75
3462.079	208.75
3464.991	199.75
3467.902	187.75
3470.809	193.75
3473.715	184.75
3476.618	168.75
3479.519	171.75
3482.418	150.75
3485.315	163.75
3488.209	149.75
3491.101	146.75
3493.99	133.75
3496.878	139.75
3499.763	141.75
3502.646	135.75
3505.527	120.75
3508.405	123.75
3511.281	108.75
3514.155	119.75
3517.027	110.75
3519.897	93.75
3522.764	98.75
3525.629	79.75
3528.492	90.75
3531.352	89.75
3534.211	88.75
3537.067	78.75
3539.921	81.75
3542.773	83.75
3545.622	64.75
3548.469	57.75
3551.315	55.75
3554.157	57.75
3556.998	51.75
3559.837	53.75
3562.673	53.75
3565.507	42.75
3568.339	35.75
3571.169	39.75
3573.996	36.75
3576.822	24.75
3579.645	28.75
3582.466	27.75
3585.285	34.75
3588.101	28.75
3590.916	23.75
3593.728	31.75
3596.538	25.75
3599.346	23.75
3602.152	14.75
3604.956	18.75
3607.757	17.75
3610.556	3.75
3613.354	17.75
3616.149	9.75
3618.942	10.75
3621.732	11.75
3624.521	5.75
3627.307	-6.25
3630.092	-3.25
3632.874	17.75
3635.654	5.75
3638.432	-8.25
3641.208	-4.25
3643.982	1.75
3646.753	3.75
3649.523	-27.25
3652.29	-3.25
3655.055	1.75
3657.818	-2.25
3660.579	-6.25
3663.338	-16.25
3666.095	-12.25
3668.849	-35.25
3671.602	-7.25
3674.352	-23.25
3677.101	-4.25
3679.847	-6.25
3682.591	-24.25
3685.333	-21.25
3688.073	-14.25
3690.811	-21.25
3693.547	-27.25
3696.281	-28.25
3699.013	-22.25
3701.742	-18.25
3704.47	-33.25
3707.195	-17.25
3709.919	-15.25
3712.64	-18.25
3715.359	-31.25
3718.076	-5.25
3720.792	-18.25
3723.505	-16.25
3726.216	-10.25
3728.925	-23.25
3731.632	-29.25
3734.336	-23.25
3737.039	-26.25
3739.74	-17.25
3742.439	-46.25
3745.136	-14.25
3747.83	-23.25
3750.523	-16.25
3753.213	-76.25
3755.902	-26.25
3758.589	-39.25
3761.273	-30.25
3763.956	-14.25
3766.636	-34.25
3769.315	-13.25
3771.991	-27.25
3774.665	-29.25
3777.338	-20.25
3780.008	-37.25
3782.677	-25.25
3785.343	-38.25
3788.007	-45.25
3790.67	-20.25
3793.33	-33.25
3795.989	-25.25
3798.645	-23.25
3801.299	-41.25
3803.952	-41.25
3806.602	-28.25
3809.251	-22.25
3811.897	-29.25
3814.542	-30.25
3817.184	-31.25
3819.825	-30.25
3822.463	-39.25
3825.1	-25.25
3827.735	-26.25
3830.367	-30.25
3832.998	-15.25
3835.627	-30.25
3838.253	-19.25
3840.878	-28.25
3843.501	-8.25
3846.122	-27.25
3848.741	-21.25
3851.358	-17.25
3853.973	-36.25
3856.586	-20.25
3859.197	-33.25
3861.806	-27.25
3864.414	-38.25
3867.019	-29.25
3869.622	-21.25
3872.224	-22.25
3874.823	-14.25
3877.421	5.75
3880.016	12.75
3882.61	35.75
3885.202	45.75
3887.792	38.75
3890.38	11.75
3892.966	-17.25
3895.55	-35.25
3898.132	-19.25
3900.713	-18.25
3903.291	-23.25
3905.868	-35.25
3908.442	-27.25
3911.015	-22.25
3913.586	-33.25
3916.155	-32.25
3918.722	-36.25
3921.287	-29.25
3923.85	-41.25
3926.411	-35.25
3928.971	-34.25
3931.528	-26.25
3934.084	-32.25
3936.638	-40.25
3939.19	-30.25
3941.74	-25.25
3944.288	-35.25
3946.834	-35.25
3949.378	-24.25
3951.921	-38.25
3954.462	-32.25
3957	-30.25
3959.537	-19.25
3962.072	-32.25
3964.606	-43.25
3967.137	-33.25
3969.667	-35.25
3972.194	-26.25
3974.72	-30.25
3977.244	-51.25
3979.766	-35.25
3982.286	-33.25
3984.805	-27.25
3987.321	-22.25
3989.836	-26.25
3992.349	-36.25
3994.86	-26.25
3997.369	-36.25
3999.877	-31.25
4002.382	-33.25
4004.886	-26.25
4007.388	-30.25
4009.888	-19.25
4012.386	-22.25
4014.883	-23.25
4017.377	-27.25
4019.87	-25.25
4022.361	-34.25
4024.85	-25.25
4027.338	-23.25
4029.823	-32.25
4032.307	-29.25
4034.789	-27.25
4037.269	-29.25
4039.747	-39.25
4042.224	-23.25
4044.699	-33.25
4047.172	-35.25
4049.643	-24.25
4052.112	-57.25
4054.58	-30.25
4057.046	-37.25
4059.51	-34.25
4061.972	-31.25
4064.432	-43.25
4066.891	-16.25
4069.348	-30.25
4071.803	-27.25
4074.256	-32.25
4076.708	-27.25
4079.158	-23.25
4081.606	-13.25
4084.052	-32.25
4086.497	-22.25
4088.939	-27.25
4091.38	-32.25
4093.819	-21.25
4096.257	0.75
4098.693	-10.25
4101.127	-6.25
4103.559	0.75
4105.989	61.75
4108.418	70.75
4110.845	61.75
4113.27	70.75
4115.694	82.75
4118.115	81.75
4120.535	-24.25
4122.954	-23.25
4125.37	-15.25
4127.785	-20.25
4130.198	-19.25
4132.609	-25.25
4135.019	9.75
4137.427	-0.25
4139.833	6.75
4142.237	-1.25
