Data from 2018-3-6_conc=0_n=6_RamanShift_04.txt Node
Date: Tue Mar 06 12:25:19 GMT+02:00 2018
User: LAB3
Spectrometer: QEPB0276
Trigger mode: 0
Integration Time (sec): 3.000000E1
Scans to average: 1
Electric dark correction enabled: true
Nonlinearity correction enabled: false
Boxcar width: 0
XAxis mode: Raman Shifts
Number of Pixels in Spectrum: 1044
>>>>>Begin Spectral Data<<<<<
160.701	94.38
166.742	128.38
172.777	224.38
178.805	461.38
184.826	1127.38
190.841	2299.38
196.849	3677.38
202.85	4709.38
208.845	5125.38
214.833	5173.38
220.815	5144.38
226.789	5166.38
232.758	5253.38
238.719	5263.38
244.674	5245.38
250.623	5253.38
256.565	5263.38
262.5	5214.38
268.429	5157.38
274.351	5170.38
280.267	5180.38
286.176	5230.38
292.079	5195.38
297.975	5242.38
303.865	5282.38
309.748	5247.38
315.625	5246.38
321.495	5267.38
327.359	5274.38
333.217	5324.38
339.068	5311.38
344.912	5341.38
350.751	5338.38
356.583	5390.38
362.408	5399.38
368.227	5432.38
374.04	5452.38
379.847	5468.38
385.647	5484.38
391.44	5501.38
397.228	5542.38
403.009	5576.38
408.784	5599.38
414.553	5630.38
420.315	5638.38
426.071	5583.38
431.821	5637.38
437.565	5634.38
443.302	5648.38
449.033	5600.38
454.758	5586.38
460.477	5574.38
466.189	5497.38
471.896	5466.38
477.596	5425.38
483.29	5380.38
488.978	5403.38
494.66	5335.38
500.335	5261.38
506.005	5038.38
511.668	4866.38
517.325	4649.38
522.977	4499.38
528.622	4414.38
534.261	4317.38
539.894	4281.38
545.521	4226.38
551.141	4169.38
556.756	4131.38
562.365	4111.38
567.968	4077.38
573.565	4035.38
579.155	4016.38
584.74	4021.38
590.319	4007.38
595.892	4013.38
601.459	3998.38
607.02	3980.38
612.575	3961.38
618.124	3921.38
623.667	3859.38
629.204	3819.38
634.735	3806.38
640.261	3731.38
645.781	3706.38
651.294	3682.38
656.802	3729.38
662.304	3714.38
667.8	3708.38
673.29	3660.38
678.775	3673.38
684.254	3643.38
689.726	3640.38
695.193	3647.38
700.655	3609.38
706.11	3588.38
711.56	3566.38
717.004	3549.38
722.442	3511.38
727.874	3528.38
733.301	3523.38
738.722	3484.38
744.137	3471.38
749.547	3491.38
754.951	3482.38
760.349	3498.38
765.741	3501.38
771.128	3531.38
776.509	3555.38
781.885	3574.38
787.254	3629.38
792.618	3634.38
797.977	3628.38
803.33	3571.38
808.677	3582.38
814.019	3549.38
819.355	3527.38
824.686	3466.38
830.011	3480.38
835.33	3470.38
840.644	3468.38
845.952	3419.38
851.255	3409.38
856.552	3404.38
861.844	3366.38
867.13	3374.38
872.41	3363.38
877.686	3399.38
882.955	3462.38
888.219	3411.38
893.478	3286.38
898.731	3218.38
903.979	3179.38
909.221	3109.38
914.458	3093.38
919.69	3108.38
924.916	3111.38
930.136	3119.38
935.351	3112.38
940.561	3109.38
945.766	3099.38
950.965	3123.38
956.158	3052.38
961.347	3024.38
966.529	2999.38
971.707	2981.38
976.879	2948.38
982.046	2909.38
987.208	2888.38
992.364	2895.38
997.515	2915.38
1002.66	2932.38
1007.801	2955.38
1012.936	2966.38
1018.066	2995.38
1023.19	2997.38
1028.309	3016.38
1033.423	3026.38
1038.532	3026.38
1043.636	3006.38
1048.734	3010.38
1053.827	2974.38
1058.915	2951.38
1063.998	2911.38
1069.075	2901.38
1074.147	2900.38
1079.214	2921.38
1084.276	2925.38
1089.333	2927.38
1094.385	2956.38
1099.431	2941.38
1104.472	2908.38
1109.509	2861.38
1114.54	2837.38
1119.565	2790.38
1124.586	2786.38
1129.602	2704.38
1134.613	2688.38
1139.618	2673.38
1144.619	2701.38
1149.614	2703.38
1154.604	2692.38
1159.589	2708.38
1164.57	2713.38
1169.545	2731.38
1174.515	2723.38
1179.48	2689.38
1184.44	2706.38
1189.395	2669.38
1194.345	2641.38
1199.29	2646.38
1204.23	2629.38
1209.165	2611.38
1214.095	2658.38
1219.021	2661.38
1223.941	2656.38
1228.856	2673.38
1233.766	2696.38
1238.672	2693.38
1243.572	2668.38
1248.467	2672.38
1253.358	2622.38
1258.244	2603.38
1263.124	2555.38
1268	2532.38
1272.871	2457.38
1277.737	2467.38
1282.599	2462.38
1287.455	2463.38
1292.306	2468.38
1297.153	2459.38
1301.995	2475.38
1306.832	2496.38
1311.664	2499.38
1316.491	2484.38
1321.314	2475.38
1326.132	2456.38
1330.945	2415.38
1335.753	2378.38
1340.556	2328.38
1345.354	2306.38
1350.148	2268.38
1354.937	2248.38
1359.722	2210.38
1364.501	2212.38
1369.276	2194.38
1374.046	2226.38
1378.811	2212.38
1383.572	2189.38
1388.327	2214.38
1393.079	2188.38
1397.825	2173.38
1402.567	2171.38
1407.304	2133.38
1412.036	2129.38
1416.764	2134.38
1421.487	2101.38
1426.205	2129.38
1430.919	2149.38
1435.628	2162.38
1440.333	2154.38
1445.032	2166.38
1449.727	2204.38
1454.418	2223.38
1459.104	2257.38
1463.785	2199.38
1468.462	2177.38
1473.134	2106.38
1477.802	2081.38
1482.465	2028.38
1487.123	2017.38
1491.777	1985.38
1496.426	1975.38
1501.071	2002.38
1505.711	1988.38
1510.347	2000.38
1514.978	2022.38
1519.604	2013.38
1524.226	2017.38
1528.844	2000.38
1533.457	1989.38
1538.065	1976.38
1542.669	1975.38
1547.269	1948.38
1551.864	1924.38
1556.454	1925.38
1561.041	1927.38
1565.622	1921.38
1570.199	1930.38
1574.772	1924.38
1579.34	1951.38
1583.904	1954.38
1588.464	1985.38
1593.019	1981.38
1597.569	1939.38
1602.115	1948.38
1606.657	1925.38
1611.195	1941.38
1615.728	1934.38
1620.256	1892.38
1624.78	1897.38
1629.3	1900.38
1633.816	1924.38
1638.327	1907.38
1642.834	1911.38
1647.336	1930.38
1651.834	1950.38
1656.328	1960.38
1660.817	1941.38
1665.302	1924.38
1669.783	1916.38
1674.259	1891.38
1678.732	1862.38
1683.199	1791.38
1687.663	1755.38
1692.122	1711.38
1696.577	1699.38
1701.028	1668.38
1705.474	1636.38
1709.917	1624.38
1714.355	1591.38
1718.788	1593.38
1723.218	1563.38
1727.643	1559.38
1732.064	1552.38
1736.481	1514.38
1740.893	1498.38
1745.301	1465.38
1749.705	1407.38
1754.105	1407.38
1758.501	1392.38
1762.893	1370.38
1767.28	1341.38
1771.663	1333.38
1776.042	1308.38
1780.417	1309.38
1784.787	1323.38
1789.154	1315.38
1793.516	1322.38
1797.874	1308.38
1802.228	1301.38
1806.578	1292.38
1810.924	1307.38
1815.266	1186.38
1819.603	1264.38
1823.937	1242.38
1828.266	1246.38
1832.591	1217.38
1836.913	1221.38
1841.23	1204.38
1845.543	1207.38
1849.852	1216.38
1854.156	1188.38
1858.457	1206.38
1862.754	1203.38
1867.047	1223.38
1871.335	1217.38
1875.62	1228.38
1879.9	1220.38
1884.177	1213.38
1888.449	1202.38
1892.718	1193.38
1896.982	1202.38
1901.243	1171.38
1905.499	1170.38
1909.752	1165.38
1914	1142.38
1918.245	1161.38
1922.485	1160.38
1926.722	1168.38
1930.954	1165.38
1935.183	1183.38
1939.408	1171.38
1943.628	1165.38
1947.845	1169.38
1952.058	1132.38
1956.267	1116.38
1960.472	1121.38
1964.673	1096.38
1968.87	1078.38
1973.063	1065.38
1977.252	1062.38
1981.438	1030.38
1985.619	1023.38
1989.797	998.38
1993.971	1006.38
1998.14	1000.38
2002.306	1006.38
2006.469	1017.38
2010.627	1004.38
2014.781	1003.38
2018.932	987.38
2023.078	1007.38
2027.221	981.38
2031.36	960.38
2035.495	955.38
2039.627	951.38
2043.754	946.38
2047.878	923.38
2051.998	914.38
2056.114	925.38
2060.226	924.38
2064.334	934.38
2068.439	930.38
2072.54	940.38
2076.637	928.38
2080.73	941.38
2084.82	940.38
2088.906	940.38
2092.988	925.38
2097.066	928.38
2101.14	924.38
2105.211	928.38
2109.278	885.38
2113.342	890.38
2117.401	874.38
2121.457	861.38
2125.509	872.38
2129.558	866.38
2133.602	855.38
2137.643	844.38
2141.681	824.38
2145.714	847.38
2149.744	832.38
2153.77	826.38
2157.793	806.38
2161.812	777.38
2165.827	779.38
2169.838	800.38
2173.846	769.38
2177.851	765.38
2181.851	754.38
2185.848	740.38
2189.841	742.38
2193.831	719.38
2197.817	723.38
2201.799	718.38
2205.778	694.38
2209.753	705.38
2213.725	707.38
2217.693	708.38
2221.657	702.38
2225.618	709.38
2229.575	698.38
2233.529	698.38
2237.479	702.38
2241.425	680.38
2245.368	669.38
2249.307	662.38
2253.243	653.38
2257.175	657.38
2261.104	633.38
2265.029	632.38
2268.95	640.38
2272.868	621.38
2276.783	602.38
2280.694	599.38
2284.601	599.38
2288.505	594.38
2292.405	592.38
2296.302	558.38
2300.195	567.38
2304.085	539.38
2307.971	560.38
2311.854	534.38
2315.734	537.38
2319.609	552.38
2323.482	518.38
2327.351	508.38
2331.216	520.38
2335.078	523.38
2338.937	512.38
2342.792	504.38
2346.643	503.38
2350.492	518.38
2354.336	503.38
2358.178	508.38
2362.015	510.38
2365.85	511.38
2369.681	503.38
2373.508	511.38
2377.333	525.38
2381.153	509.38
2384.971	498.38
2388.785	500.38
2392.595	503.38
2396.402	477.38
2400.206	467.38
2404.007	480.38
2407.804	484.38
2411.597	490.38
2415.388	480.38
2419.174	479.38
2422.958	472.38
2426.738	470.38
2430.515	477.38
2434.289	468.38
2438.059	460.38
2441.825	464.38
2445.589	458.38
2449.349	440.38
2453.106	447.38
2456.859	452.38
2460.61	441.38
2464.356	434.38
2468.1	416.38
2471.84	426.38
2475.577	415.38
2479.311	424.38
2483.041	419.38
2486.768	428.38
2490.492	429.38
2494.213	421.38
2497.93	409.38
2501.644	400.38
2505.355	413.38
2509.062	413.38
2512.766	408.38
2516.467	402.38
2520.165	408.38
2523.859	385.38
2527.551	412.38
2531.239	376.38
2534.923	390.38
2538.605	376.38
2542.283	395.38
2545.958	389.38
2549.63	400.38
2553.299	396.38
2556.964	379.38
2560.626	381.38
2564.285	382.38
2567.941	362.38
2571.594	345.38
2575.243	376.38
2578.89	361.38
2582.533	365.38
2586.173	357.38
2589.809	360.38
2593.443	337.38
2597.073	349.38
2600.701	345.38
2604.325	345.38
2607.946	329.38
2611.564	348.38
2615.178	344.38
2618.79	345.38
2622.398	331.38
2626.004	327.38
2629.606	332.38
2633.205	317.38
2636.801	333.38
2640.394	320.38
2643.983	312.38
2647.57	309.38
2651.153	293.38
2654.734	308.38
2658.311	288.38
2661.885	292.38
2665.456	296.38
2669.025	283.38
2672.589	281.38
2676.151	299.38
2679.71	288.38
2683.266	279.38
2686.819	277.38
2690.368	279.38
2693.915	273.38
2697.458	268.38
2700.999	265.38
2704.536	271.38
2708.071	268.38
2711.602	271.38
2715.13	258.38
2718.656	235.38
2722.178	259.38
2725.697	238.38
2729.214	250.38
2732.727	239.38
2736.237	231.38
2739.744	245.38
2743.249	236.38
2746.75	246.38
2750.248	239.38
2753.743	248.38
2757.236	250.38
2760.725	247.38
2764.211	217.38
2767.695	245.38
2771.175	239.38
2774.652	233.38
2778.127	229.38
2781.598	227.38
2785.067	231.38
2788.532	221.38
2791.995	240.38
2795.455	218.38
2798.911	236.38
2802.365	231.38
2805.816	238.38
2809.264	234.38
2812.709	226.38
2816.151	238.38
2819.59	221.38
2823.026	236.38
2826.46	225.38
2829.89	244.38
2833.318	221.38
2836.742	235.38
2840.164	237.38
2843.583	231.38
2846.999	237.38
2850.412	247.38
2853.822	236.38
2857.229	255.38
2860.634	253.38
2864.035	237.38
2867.434	255.38
2870.83	265.38
2874.223	258.38
2877.613	263.38
2881	271.38
2884.385	273.38
2887.766	282.38
2891.145	273.38
2894.521	277.38
2897.894	268.38
2901.264	273.38
2904.631	267.38
2907.996	274.38
2911.358	276.38
2914.717	282.38
2918.073	277.38
2921.426	281.38
2924.777	268.38
2928.124	285.38
2931.469	312.38
2934.811	299.38
2938.15	323.38
2941.487	312.38
2944.821	326.38
2948.152	293.38
2951.48	309.38
2954.805	279.38
2958.128	296.38
2961.447	281.38
2964.765	290.38
2968.079	289.38
2971.39	290.38
2974.699	279.38
2978.005	298.38
2981.308	285.38
2984.609	289.38
2987.907	292.38
2991.202	300.38
2994.494	284.38
2997.784	289.38
3001.07	293.38
3004.355	286.38
3007.636	290.38
3010.915	286.38
3014.191	277.38
3017.464	291.38
3020.734	289.38
3024.002	286.38
3027.267	285.38
3030.53	291.38
3033.789	284.38
3037.046	285.38
3040.301	276.38
3043.552	295.38
3046.801	305.38
3050.048	311.38
3053.291	324.38
3056.532	315.38
3059.771	313.38
3063.006	336.38
3066.239	345.38
3069.469	347.38
3072.697	342.38
3075.922	360.38
3079.144	356.38
3082.364	384.38
3085.581	376.38
3088.795	401.38
3092.007	398.38
3095.216	402.38
3098.423	397.38
3101.627	382.38
3104.828	417.38
3108.026	414.38
3111.222	442.38
3114.416	452.38
3117.607	450.38
3120.795	456.38
3123.98	454.38
3127.163	463.38
3130.344	476.38
3133.521	487.38
3136.696	505.38
3139.869	506.38
3143.039	497.38
3146.206	529.38
3149.371	538.38
3152.533	530.38
3155.693	520.38
3158.85	537.38
3162.005	544.38
3165.157	547.38
3168.306	539.38
3171.453	553.38
3174.597	535.38
3177.739	536.38
3180.878	553.38
3184.014	546.38
3187.149	544.38
3190.28	540.38
3193.409	555.38
3196.536	562.38
3199.659	569.38
3202.781	571.38
3205.9	546.38
3209.016	554.38
3212.13	562.38
3215.241	554.38
3218.35	541.38
3221.456	534.38
3224.56	532.38
3227.661	541.38
3230.76	526.38
3233.856	514.38
3236.95	515.38
3240.041	510.38
3243.13	515.38
3246.216	513.38
3249.3	521.38
3252.382	511.38
3255.46	509.38
3258.537	463.38
3261.611	484.38
3264.682	511.38
3267.751	510.38
3270.818	489.38
3273.882	507.38
3276.943	488.38
3280.002	504.38
3283.059	485.38
3286.113	473.38
3289.165	466.38
3292.214	459.38
3295.261	466.38
3298.306	437.38
3301.348	450.38
3304.387	436.38
3307.425	437.38
3310.459	419.38
3313.492	432.38
3316.521	417.38
3319.549	420.38
3322.574	419.38
3325.597	411.38
3328.617	407.38
3331.635	400.38
3334.65	389.38
3337.663	404.38
3340.674	394.38
3343.682	395.38
3346.688	403.38
3349.691	392.38
3352.692	395.38
3355.691	391.38
3358.687	386.38
3361.681	389.38
3364.673	375.38
3367.662	385.38
3370.649	379.38
3373.633	368.38
3376.615	375.38
3379.595	347.38
3382.572	346.38
3385.547	345.38
3388.52	332.38
3391.49	332.38
3394.458	344.38
3397.424	342.38
3400.387	323.38
3403.348	337.38
3406.307	326.38
3409.263	322.38
3412.217	340.38
3415.168	324.38
3418.118	329.38
3421.065	315.38
3424.009	316.38
3426.951	313.38
3429.891	309.38
3432.829	299.38
3435.764	304.38
3438.697	282.38
3441.628	298.38
3444.557	261.38
3447.483	260.38
3450.407	275.38
3453.328	254.38
3456.247	251.38
3459.164	232.38
3462.079	248.38
3464.991	237.38
3467.902	221.38
3470.809	217.38
3473.715	228.38
3476.618	203.38
3479.519	209.38
3482.418	183.38
3485.315	187.38
3488.209	182.38
3491.101	187.38
3493.99	168.38
3496.878	164.38
3499.763	172.38
3502.646	168.38
3505.527	155.38
3508.405	149.38
3511.281	130.38
3514.155	148.38
3517.027	137.38
3519.897	125.38
3522.764	132.38
3525.629	107.38
3528.492	121.38
3531.352	116.38
3534.211	111.38
3537.067	102.38
3539.921	94.38
3542.773	97.38
3545.622	81.38
3548.469	73.38
3551.315	73.38
3554.157	78.38
3556.998	61.38
3559.837	71.38
3562.673	70.38
3565.507	58.38
3568.339	44.38
3571.169	54.38
3573.996	52.38
3576.822	40.38
3579.645	36.38
3582.466	41.38
3585.285	44.38
3588.101	46.38
3590.916	35.38
3593.728	42.38
3596.538	31.38
3599.346	38.38
3602.152	23.38
3604.956	22.38
3607.757	25.38
3610.556	13.38
3613.354	28.38
3616.149	18.38
3618.942	24.38
3621.732	22.38
3624.521	14.38
3627.307	-1.62
3630.092	3.38
3632.874	18.38
3635.654	6.38
3638.432	0.38
3641.208	-0.62
3643.982	0.38
3646.753	12.38
3649.523	-17.62
3652.29	-2.62
3655.055	0.38
3657.818	-3.62
3660.579	-2.62
3663.338	-16.62
3666.095	-9.62
3668.849	-32.62
3671.602	-2.62
3674.352	-18.62
3677.101	-6.62
3679.847	-4.62
3682.591	-17.62
3685.333	-25.62
3688.073	-11.62
3690.811	-22.62
3693.547	-28.62
3696.281	-27.62
3699.013	-15.62
3701.742	-23.62
3704.47	-29.62
3707.195	-13.62
3709.919	-17.62
3712.64	-18.62
3715.359	-26.62
3718.076	-6.62
3720.792	-22.62
3723.505	-15.62
3726.216	-8.62
3728.925	-18.62
3731.632	-26.62
3734.336	-20.62
3737.039	-19.62
3739.74	-21.62
3742.439	-46.62
3745.136	-16.62
3747.83	-16.62
3750.523	-16.62
3753.213	-80.62
3755.902	-23.62
3758.589	-36.62
3761.273	-29.62
3763.956	-17.62
3766.636	-36.62
3769.315	-19.62
3771.991	-25.62
3774.665	-30.62
3777.338	-26.62
3780.008	-29.62
3782.677	-29.62
3785.343	-42.62
3788.007	-41.62
3790.67	-18.62
3793.33	-32.62
3795.989	-27.62
3798.645	-22.62
3801.299	-36.62
3803.952	-31.62
3806.602	-30.62
3809.251	-20.62
3811.897	-33.62
3814.542	-26.62
3817.184	-31.62
3819.825	-26.62
3822.463	-38.62
3825.1	-28.62
3827.735	-22.62
3830.367	-36.62
3832.998	-16.62
3835.627	-28.62
3838.253	-22.62
3840.878	-29.62
3843.501	-13.62
3846.122	-22.62
3848.741	-21.62
3851.358	-18.62
3853.973	-39.62
3856.586	-18.62
3859.197	-32.62
3861.806	-25.62
3864.414	-41.62
3867.019	-27.62
3869.622	-23.62
3872.224	-20.62
3874.823	-12.62
3877.421	5.38
3880.016	10.38
3882.61	47.38
3885.202	60.38
3887.792	43.38
3890.38	18.38
3892.966	-13.62
3895.55	-29.62
3898.132	-26.62
3900.713	-18.62
3903.291	-24.62
3905.868	-32.62
3908.442	-28.62
3911.015	-27.62
3913.586	-35.62
3916.155	-34.62
3918.722	-37.62
3921.287	-36.62
3923.85	-44.62
3926.411	-32.62
3928.971	-34.62
3931.528	-26.62
3934.084	-31.62
3936.638	-41.62
3939.19	-26.62
3941.74	-29.62
3944.288	-32.62
3946.834	-30.62
3949.378	-23.62
3951.921	-31.62
3954.462	-25.62
3957	-28.62
3959.537	-22.62
3962.072	-34.62
3964.606	-43.62
3967.137	-33.62
3969.667	-37.62
3972.194	-22.62
3974.72	-35.62
3977.244	-50.62
3979.766	-33.62
3982.286	-38.62
3984.805	-25.62
3987.321	-19.62
3989.836	-21.62
3992.349	-29.62
3994.86	-25.62
3997.369	-31.62
3999.877	-32.62
4002.382	-31.62
4004.886	-21.62
4007.388	-24.62
4009.888	-16.62
4012.386	-22.62
4014.883	-25.62
4017.377	-27.62
4019.87	-21.62
4022.361	-38.62
4024.85	-25.62
4027.338	-27.62
4029.823	-34.62
4032.307	-30.62
4034.789	-28.62
4037.269	-30.62
4039.747	-39.62
4042.224	-19.62
4044.699	-38.62
4047.172	-32.62
4049.643	-19.62
4052.112	-52.62
4054.58	-26.62
4057.046	-39.62
4059.51	-31.62
4061.972	-29.62
4064.432	-44.62
4066.891	-22.62
4069.348	-30.62
4071.803	-27.62
4074.256	-31.62
4076.708	-24.62
4079.158	-27.62
4081.606	-16.62
4084.052	-28.62
4086.497	-21.62
4088.939	-27.62
4091.38	-30.62
4093.819	-25.62
4096.257	0.38
4098.693	-5.62
4101.127	-4.62
4103.559	1.38
4105.989	64.38
4108.418	66.38
4110.845	64.38
4113.27	72.38
4115.694	91.38
4118.115	76.38
4120.535	-26.62
4122.954	-21.62
4125.37	-19.62
4127.785	-26.62
4130.198	-19.62
4132.609	-27.62
4135.019	9.38
4137.427	-0.62
4139.833	2.38
4142.237	-2.62
