Data from 2018-3-6_conc=4_n=7_RamanShift_02.txt Node
Date: Tue Mar 06 14:09:48 GMT+02:00 2018
User: LAB3
Spectrometer: QEPB0276
Trigger mode: 0
Integration Time (sec): 3.000000E1
Scans to average: 1
Electric dark correction enabled: true
Nonlinearity correction enabled: false
Boxcar width: 0
XAxis mode: Raman Shifts
Number of Pixels in Spectrum: 1044
>>>>>Begin Spectral Data<<<<<
160.701	100.25
166.742	125.25
172.777	173.25
178.805	329.25
184.826	733.25
190.841	1466.25
196.849	2275.25
202.85	2892.25
208.845	3050.25
214.833	3057.25
220.815	2966.25
226.789	2938.25
232.758	2938.25
238.719	2914.25
244.674	2890.25
250.623	2838.25
256.565	2795.25
262.5	2740.25
268.429	2739.25
274.351	2714.25
280.267	2664.25
286.176	2681.25
292.079	2664.25
297.975	2667.25
303.865	2656.25
309.748	2660.25
315.625	2663.25
321.495	2658.25
327.359	2648.25
333.217	2652.25
339.068	2650.25
344.912	2677.25
350.751	2675.25
356.583	2688.25
362.408	2691.25
368.227	2694.25
374.04	2716.25
379.847	2721.25
385.647	2759.25
391.44	2737.25
397.228	2742.25
403.009	2784.25
408.784	2759.25
414.553	2795.25
420.315	2788.25
426.071	2782.25
431.821	2808.25
437.565	2785.25
443.302	2783.25
449.033	2767.25
454.758	2746.25
460.477	2720.25
466.189	2693.25
471.896	2671.25
477.596	2663.25
483.29	2628.25
488.978	2611.25
494.66	2600.25
500.335	2540.25
506.005	2399.25
511.668	2292.25
517.325	2164.25
522.977	2049.25
528.622	1999.25
534.261	1939.25
539.894	1882.25
545.521	1864.25
551.141	1830.25
556.756	1803.25
562.365	1800.25
567.968	1772.25
573.565	1748.25
579.155	1753.25
584.74	1744.25
590.319	1738.25
595.892	1746.25
601.459	1728.25
607.02	1722.25
612.575	1715.25
618.124	1706.25
623.667	1651.25
629.204	1648.25
634.735	1613.25
640.261	1599.25
645.781	1565.25
651.294	1566.25
656.802	1573.25
662.304	1573.25
667.8	1557.25
673.29	1550.25
678.775	1550.25
684.254	1554.25
689.726	1526.25
695.193	1517.25
700.655	1519.25
706.11	1517.25
711.56	1503.25
717.004	1483.25
722.442	1477.25
727.874	1485.25
733.301	1494.25
738.722	1457.25
744.137	1463.25
749.547	1467.25
754.951	1443.25
760.349	1453.25
765.741	1472.25
771.128	1478.25
776.509	1497.25
781.885	1544.25
787.254	1547.25
792.618	1528.25
797.977	1553.25
803.33	1544.25
808.677	1533.25
814.019	1524.25
819.355	1502.25
824.686	1489.25
830.011	1467.25
835.33	1485.25
840.644	1468.25
845.952	1431.25
851.255	1437.25
856.552	1419.25
861.844	1395.25
867.13	1361.25
872.41	1363.25
877.686	1361.25
882.955	1337.25
888.219	1316.25
893.478	1311.25
898.731	1288.25
903.979	1279.25
909.221	1261.25
914.458	1261.25
919.69	1259.25
924.916	1252.25
930.136	1264.25
935.351	1252.25
940.561	1274.25
945.766	1252.25
950.965	1255.25
956.158	1237.25
961.347	1226.25
966.529	1210.25
971.707	1202.25
976.879	1182.25
982.046	1166.25
987.208	1150.25
992.364	1155.25
997.515	1168.25
1002.66	1170.25
1007.801	1186.25
1012.936	1190.25
1018.066	1161.25
1023.19	1194.25
1028.309	1199.25
1033.423	1202.25
1038.532	1202.25
1043.636	1182.25
1048.734	1200.25
1053.827	1173.25
1058.915	1140.25
1063.998	1156.25
1069.075	1150.25
1074.147	1166.25
1079.214	1135.25
1084.276	1177.25
1089.333	1145.25
1094.385	1153.25
1099.431	1138.25
1104.472	1144.25
1109.509	1133.25
1114.54	1101.25
1119.565	1106.25
1124.586	1078.25
1129.602	1067.25
1134.613	1051.25
1139.618	1045.25
1144.619	1038.25
1149.614	1061.25
1154.604	1056.25
1159.589	1062.25
1164.57	1068.25
1169.545	1072.25
1174.515	1075.25
1179.48	1062.25
1184.44	1070.25
1189.395	1063.25
1194.345	1032.25
1199.29	1048.25
1204.23	1022.25
1209.165	1008.25
1214.095	1059.25
1219.021	1024.25
1223.941	1052.25
1228.856	1053.25
1233.766	1074.25
1238.672	1050.25
1243.572	1050.25
1248.467	1036.25
1253.358	1018.25
1258.244	996.25
1263.124	1020.25
1268	987.25
1272.871	951.25
1277.737	952.25
1282.599	939.25
1287.455	933.25
1292.306	945.25
1297.153	936.25
1301.995	950.25
1306.832	963.25
1311.664	952.25
1316.491	951.25
1321.314	954.25
1326.132	956.25
1330.945	949.25
1335.753	916.25
1340.556	898.25
1345.354	880.25
1350.148	863.25
1354.937	859.25
1359.722	843.25
1364.501	856.25
1369.276	861.25
1374.046	859.25
1378.811	831.25
1383.572	845.25
1388.327	836.25
1393.079	812.25
1397.825	823.25
1402.567	820.25
1407.304	817.25
1412.036	799.25
1416.764	814.25
1421.487	793.25
1426.205	797.25
1430.919	806.25
1435.628	807.25
1440.333	804.25
1445.032	828.25
1449.727	817.25
1454.418	824.25
1459.104	821.25
1463.785	807.25
1468.462	808.25
1473.134	789.25
1477.802	767.25
1482.465	741.25
1487.123	752.25
1491.777	720.25
1496.426	705.25
1501.071	739.25
1505.711	734.25
1510.347	746.25
1514.978	739.25
1519.604	751.25
1524.226	748.25
1528.844	718.25
1533.457	737.25
1538.065	725.25
1542.669	733.25
1547.269	719.25
1551.864	732.25
1556.454	710.25
1561.041	717.25
1565.622	712.25
1570.199	735.25
1574.772	729.25
1579.34	756.25
1583.904	750.25
1588.464	756.25
1593.019	768.25
1597.569	743.25
1602.115	738.25
1606.657	732.25
1611.195	755.25
1615.728	747.25
1620.256	743.25
1624.78	713.25
1629.3	740.25
1633.816	735.25
1638.327	725.25
1642.834	739.25
1647.336	733.25
1651.834	755.25
1656.328	748.25
1660.817	740.25
1665.302	735.25
1669.783	708.25
1674.259	698.25
1678.732	687.25
1683.199	673.25
1687.663	651.25
1692.122	641.25
1696.577	630.25
1701.028	610.25
1705.474	588.25
1709.917	570.25
1714.355	581.25
1718.788	580.25
1723.218	550.25
1727.643	546.25
1732.064	555.25
1736.481	533.25
1740.893	534.25
1745.301	514.25
1749.705	479.25
1754.105	498.25
1758.501	484.25
1762.893	492.25
1767.28	455.25
1771.663	472.25
1776.042	464.25
1780.417	448.25
1784.787	463.25
1789.154	458.25
1793.516	455.25
1797.874	447.25
1802.228	447.25
1806.578	439.25
1810.924	454.25
1815.266	338.25
1819.603	442.25
1823.937	433.25
1828.266	427.25
1832.591	423.25
1836.913	427.25
1841.23	413.25
1845.543	421.25
1849.852	431.25
1854.156	413.25
1858.457	416.25
1862.754	403.25
1867.047	411.25
1871.335	432.25
1875.62	423.25
1879.9	422.25
1884.177	411.25
1888.449	405.25
1892.718	411.25
1896.982	419.25
1901.243	394.25
1905.499	404.25
1909.752	395.25
1914	371.25
1918.245	400.25
1922.485	395.25
1926.722	379.25
1930.954	382.25
1935.183	389.25
1939.408	389.25
1943.628	391.25
1947.845	378.25
1952.058	380.25
1956.267	374.25
1960.472	386.25
1964.673	369.25
1968.87	372.25
1973.063	367.25
1977.252	360.25
1981.438	351.25
1985.619	349.25
1989.797	337.25
1993.971	351.25
1998.14	364.25
2002.306	353.25
2006.469	356.25
2010.627	338.25
2014.781	342.25
2018.932	339.25
2023.078	346.25
2027.221	343.25
2031.36	329.25
2035.495	325.25
2039.627	328.25
2043.754	326.25
2047.878	323.25
2051.998	321.25
2056.114	318.25
2060.226	310.25
2064.334	307.25
2068.439	318.25
2072.54	323.25
2076.637	305.25
2080.73	309.25
2084.82	315.25
2088.906	310.25
2092.988	312.25
2097.066	313.25
2101.14	319.25
2105.211	312.25
2109.278	305.25
2113.342	296.25
2117.401	285.25
2121.457	280.25
2125.509	282.25
2129.558	289.25
2133.602	288.25
2137.643	287.25
2141.681	284.25
2145.714	290.25
2149.744	288.25
2153.77	279.25
2157.793	271.25
2161.812	252.25
2165.827	253.25
2169.838	275.25
2173.846	258.25
2177.851	253.25
2181.851	255.25
2185.848	259.25
2189.841	257.25
2193.831	242.25
2197.817	238.25
2201.799	249.25
2205.778	228.25
2209.753	224.25
2213.725	226.25
2217.693	236.25
2221.657	234.25
2225.618	240.25
2229.575	231.25
2233.529	231.25
2237.479	232.25
2241.425	222.25
2245.368	210.25
2249.307	215.25
2253.243	212.25
2257.175	216.25
2261.104	204.25
2265.029	213.25
2268.95	206.25
2272.868	203.25
2276.783	189.25
2280.694	208.25
2284.601	192.25
2288.505	199.25
2292.405	199.25
2296.302	175.25
2300.195	177.25
2304.085	155.25
2307.971	192.25
2311.854	157.25
2315.734	167.25
2319.609	175.25
2323.482	152.25
2327.351	156.25
2331.216	164.25
2335.078	172.25
2338.937	162.25
2342.792	158.25
2346.643	158.25
2350.492	165.25
2354.336	156.25
2358.178	161.25
2362.015	162.25
2365.85	163.25
2369.681	159.25
2373.508	163.25
2377.333	166.25
2381.153	166.25
2384.971	156.25
2388.785	167.25
2392.595	145.25
2396.402	155.25
2400.206	119.25
2404.007	141.25
2407.804	149.25
2411.597	151.25
2415.388	139.25
2419.174	146.25
2422.958	152.25
2426.738	149.25
2430.515	151.25
2434.289	139.25
2438.059	134.25
2441.825	145.25
2445.589	148.25
2449.349	126.25
2453.106	143.25
2456.859	140.25
2460.61	145.25
2464.356	129.25
2468.1	122.25
2471.84	119.25
2475.577	122.25
2479.311	118.25
2483.041	125.25
2486.768	135.25
2490.492	136.25
2494.213	125.25
2497.93	108.25
2501.644	109.25
2505.355	118.25
2509.062	120.25
2512.766	120.25
2516.467	113.25
2520.165	111.25
2523.859	103.25
2527.551	129.25
2531.239	107.25
2534.923	116.25
2538.605	114.25
2542.283	108.25
2545.958	118.25
2549.63	119.25
2553.299	119.25
2556.964	101.25
2560.626	111.25
2564.285	103.25
2567.941	98.25
2571.594	92.25
2575.243	106.25
2578.89	98.25
2582.533	103.25
2586.173	98.25
2589.809	106.25
2593.443	78.25
2597.073	93.25
2600.701	99.25
2604.325	93.25
2607.946	88.25
2611.564	101.25
2615.178	106.25
2618.79	95.25
2622.398	81.25
2626.004	90.25
2629.606	90.25
2633.205	83.25
2636.801	90.25
2640.394	89.25
2643.983	84.25
2647.57	82.25
2651.153	76.25
2654.734	91.25
2658.311	65.25
2661.885	76.25
2665.456	72.25
2669.025	79.25
2672.589	75.25
2676.151	92.25
2679.71	81.25
2683.266	73.25
2686.819	62.25
2690.368	80.25
2693.915	79.25
2697.458	79.25
2700.999	77.25
2704.536	78.25
2708.071	76.25
2711.602	76.25
2715.13	71.25
2718.656	49.25
2722.178	70.25
2725.697	59.25
2729.214	62.25
2732.727	69.25
2736.237	48.25
2739.744	61.25
2743.249	53.25
2746.75	59.25
2750.248	54.25
2753.743	61.25
2757.236	61.25
2760.725	71.25
2764.211	30.25
2767.695	62.25
2771.175	58.25
2774.652	69.25
2778.127	57.25
2781.598	56.25
2785.067	63.25
2788.532	51.25
2791.995	61.25
2795.455	52.25
2798.911	72.25
2802.365	54.25
2805.816	61.25
2809.264	71.25
2812.709	51.25
2816.151	62.25
2819.59	47.25
2823.026	46.25
2826.46	58.25
2829.89	63.25
2833.318	37.25
2836.742	62.25
2840.164	55.25
2843.583	53.25
2846.999	61.25
2850.412	62.25
2853.822	55.25
2857.229	70.25
2860.634	59.25
2864.035	48.25
2867.434	65.25
2870.83	67.25
2874.223	61.25
2877.613	65.25
2881	61.25
2884.385	65.25
2887.766	65.25
2891.145	66.25
2894.521	60.25
2897.894	57.25
2901.264	69.25
2904.631	72.25
2907.996	80.25
2911.358	77.25
2914.717	60.25
2918.073	70.25
2921.426	65.25
2924.777	57.25
2928.124	71.25
2931.469	84.25
2934.811	70.25
2938.15	92.25
2941.487	81.25
2944.821	96.25
2948.152	88.25
2951.48	91.25
2954.805	70.25
2958.128	96.25
2961.447	81.25
2964.765	101.25
2968.079	84.25
2971.39	89.25
2974.699	89.25
2978.005	90.25
2981.308	92.25
2984.609	82.25
2987.907	92.25
2991.202	99.25
2994.494	80.25
2997.784	93.25
3001.07	96.25
3004.355	90.25
3007.636	95.25
3010.915	97.25
3014.191	94.25
3017.464	99.25
3020.734	101.25
3024.002	100.25
3027.267	100.25
3030.53	106.25
3033.789	100.25
3037.046	101.25
3040.301	103.25
3043.552	111.25
3046.801	110.25
3050.048	126.25
3053.291	138.25
3056.532	129.25
3059.771	110.25
3063.006	139.25
3066.239	132.25
3069.469	140.25
3072.697	130.25
3075.922	142.25
3079.144	130.25
3082.364	165.25
3085.581	148.25
3088.795	167.25
3092.007	162.25
3095.216	172.25
3098.423	166.25
3101.627	142.25
3104.828	173.25
3108.026	160.25
3111.222	193.25
3114.416	189.25
3117.607	181.25
3120.795	186.25
3123.98	192.25
3127.163	187.25
3130.344	203.25
3133.521	193.25
3136.696	220.25
3139.869	208.25
3143.039	208.25
3146.206	233.25
3149.371	231.25
3152.533	236.25
3155.693	218.25
3158.85	234.25
3162.005	245.25
3165.157	237.25
3168.306	231.25
3171.453	246.25
3174.597	224.25
3177.739	227.25
3180.878	239.25
3184.014	241.25
3187.149	237.25
3190.28	242.25
3193.409	243.25
3196.536	248.25
3199.659	249.25
3202.781	254.25
3205.9	231.25
3209.016	239.25
3212.13	240.25
3215.241	239.25
3218.35	236.25
3221.456	239.25
3224.56	219.25
3227.661	231.25
3230.76	224.25
3233.856	222.25
3236.95	225.25
3240.041	212.25
3243.13	229.25
3246.216	215.25
3249.3	224.25
3252.382	220.25
3255.46	215.25
3258.537	165.25
3261.611	204.25
3264.682	222.25
3267.751	206.25
3270.818	202.25
3273.882	220.25
3276.943	212.25
3280.002	219.25
3283.059	207.25
3286.113	215.25
3289.165	203.25
3292.214	195.25
3295.261	208.25
3298.306	188.25
3301.348	200.25
3304.387	181.25
3307.425	195.25
3310.459	180.25
3313.492	198.25
3316.521	172.25
3319.549	196.25
3322.574	191.25
3325.597	182.25
3328.617	176.25
3331.635	174.25
3334.65	166.25
3337.663	176.25
3340.674	176.25
3343.682	174.25
3346.688	185.25
3349.691	170.25
3352.692	180.25
3355.691	179.25
3358.687	169.25
3361.681	174.25
3364.673	166.25
3367.662	168.25
3370.649	167.25
3373.633	152.25
3376.615	174.25
3379.595	146.25
3382.572	151.25
3385.547	151.25
3388.52	141.25
3391.49	141.25
3394.458	142.25
3397.424	153.25
3400.387	128.25
3403.348	142.25
3406.307	139.25
3409.263	143.25
3412.217	142.25
3415.168	137.25
3418.118	150.25
3421.065	136.25
3424.009	141.25
3426.951	121.25
3429.891	121.25
3432.829	132.25
3435.764	124.25
3438.697	110.25
3441.628	119.25
3444.557	102.25
3447.483	106.25
3450.407	117.25
3453.328	102.25
3456.247	95.25
3459.164	91.25
3462.079	107.25
3464.991	95.25
3467.902	90.25
3470.809	85.25
3473.715	97.25
3476.618	73.25
3479.519	86.25
3482.418	59.25
3485.315	68.25
3488.209	63.25
3491.101	60.25
3493.99	47.25
3496.878	58.25
3499.763	58.25
3502.646	58.25
3505.527	50.25
3508.405	47.25
3511.281	33.25
3514.155	48.25
3517.027	42.25
3519.897	30.25
3522.764	38.25
3525.629	19.25
3528.492	30.25
3531.352	33.25
3534.211	30.25
3537.067	18.25
3539.921	23.25
3542.773	31.25
3545.622	19.25
3548.469	7.25
3551.315	5.25
3554.157	11.25
3556.998	5.25
3559.837	5.25
3562.673	12.25
3565.507	0.25
3568.339	-3.75
3571.169	2.25
3573.996	4.25
3576.822	-12.75
3579.645	-4.75
3582.466	-5.75
3585.285	0.25
3588.101	-0.75
3590.916	-6.75
3593.728	2.25
3596.538	-10.75
3599.346	-4.75
3602.152	-14.75
3604.956	-6.75
3607.757	-4.75
3610.556	-19.75
3613.354	-7.75
3616.149	-9.75
3618.942	-5.75
3621.732	-5.75
3624.521	-17.75
3627.307	-22.75
3630.092	-22.75
3632.874	-5.75
3635.654	-11.75
3638.432	-24.75
3641.208	-24.75
3643.982	-17.75
3646.753	-9.75
3649.523	-47.75
3652.29	-24.75
3655.055	-15.75
3657.818	-14.75
3660.579	-23.75
3663.338	-33.75
3666.095	-24.75
3668.849	-47.75
3671.602	-21.75
3674.352	-36.75
3677.101	-14.75
3679.847	-17.75
3682.591	-34.75
3685.333	-37.75
3688.073	-24.75
3690.811	-37.75
3693.547	-38.75
3696.281	-37.75
3699.013	-24.75
3701.742	-34.75
3704.47	-42.75
3707.195	-26.75
3709.919	-24.75
3712.64	-31.75
3715.359	-40.75
3718.076	-20.75
3720.792	-30.75
3723.505	-27.75
3726.216	-19.75
3728.925	-28.75
3731.632	-38.75
3734.336	-30.75
3737.039	-31.75
3739.74	-29.75
3742.439	-53.75
3745.136	-26.75
3747.83	-26.75
3750.523	-28.75
3753.213	-93.75
3755.902	-34.75
3758.589	-48.75
3761.273	-33.75
3763.956	-23.75
3766.636	-43.75
3769.315	-21.75
3771.991	-33.75
3774.665	-37.75
3777.338	-38.75
3780.008	-44.75
3782.677	-36.75
3785.343	-50.75
3788.007	-49.75
3790.67	-23.75
3793.33	-46.75
3795.989	-38.75
3798.645	-33.75
3801.299	-44.75
3803.952	-42.75
3806.602	-38.75
3809.251	-29.75
3811.897	-38.75
3814.542	-35.75
3817.184	-39.75
3819.825	-35.75
3822.463	-45.75
3825.1	-37.75
3827.735	-32.75
3830.367	-47.75
3832.998	-21.75
3835.627	-38.75
3838.253	-26.75
3840.878	-40.75
3843.501	-20.75
3846.122	-31.75
3848.741	-29.75
3851.358	-25.75
3853.973	-44.75
3856.586	-24.75
3859.197	-40.75
3861.806	-39.75
3864.414	-42.75
3867.019	-31.75
3869.622	-20.75
3872.224	-20.75
3874.823	-8.75
3877.421	18.25
3880.016	42.25
3882.61	79.25
3885.202	101.25
3887.792	63.25
3890.38	27.25
3892.966	-6.75
3895.55	-33.75
3898.132	-26.75
3900.713	-26.75
3903.291	-27.75
3905.868	-35.75
3908.442	-33.75
3911.015	-30.75
3913.586	-37.75
3916.155	-34.75
3918.722	-43.75
3921.287	-38.75
3923.85	-47.75
3926.411	-40.75
3928.971	-38.75
3931.528	-32.75
3934.084	-37.75
3936.638	-49.75
3939.19	-29.75
3941.74	-36.75
3944.288	-33.75
3946.834	-33.75
3949.378	-25.75
3951.921	-35.75
3954.462	-34.75
3957	-30.75
3959.537	-18.75
3962.072	-32.75
3964.606	-49.75
3967.137	-36.75
3969.667	-37.75
3972.194	-32.75
3974.72	-37.75
3977.244	-56.75
3979.766	-39.75
3982.286	-40.75
3984.805	-31.75
3987.321	-23.75
3989.836	-26.75
3992.349	-42.75
3994.86	-34.75
3997.369	-40.75
3999.877	-36.75
4002.382	-33.75
4004.886	-29.75
4007.388	-33.75
4009.888	-20.75
4012.386	-28.75
4014.883	-32.75
4017.377	-36.75
4019.87	-31.75
4022.361	-39.75
4024.85	-31.75
4027.338	-26.75
4029.823	-39.75
4032.307	-35.75
4034.789	-29.75
4037.269	-34.75
4039.747	-44.75
4042.224	-26.75
4044.699	-38.75
4047.172	-37.75
4049.643	-30.75
4052.112	-54.75
4054.58	-33.75
4057.046	-43.75
4059.51	-30.75
4061.972	-31.75
4064.432	-50.75
4066.891	-22.75
4069.348	-36.75
4071.803	-29.75
4074.256	-40.75
4076.708	-26.75
4079.158	-28.75
4081.606	-19.75
4084.052	-33.75
4086.497	-28.75
4088.939	-30.75
4091.38	-37.75
4093.819	-27.75
4096.257	2.25
4098.693	-6.75
4101.127	-6.75
4103.559	-2.75
4105.989	111.25
4108.418	106.25
4110.845	97.25
4113.27	93.25
4115.694	105.25
4118.115	93.25
4120.535	-30.75
4122.954	-26.75
4125.37	-20.75
4127.785	-23.75
4130.198	-19.75
4132.609	-29.75
4135.019	9.25
4137.427	1.25
4139.833	7.25
4142.237	-3.75
