Data from 2018-3-6_conc=0_n=8_RamanShift_03.txt Node
Date: Tue Mar 06 12:31:49 GMT+02:00 2018
User: LAB3
Spectrometer: QEPB0276
Trigger mode: 0
Integration Time (sec): 3.000000E1
Scans to average: 1
Electric dark correction enabled: true
Nonlinearity correction enabled: false
Boxcar width: 0
XAxis mode: Raman Shifts
Number of Pixels in Spectrum: 1044
>>>>>Begin Spectral Data<<<<<
160.701	172.75
166.742	221.75
172.777	331.75
178.805	683.75
184.826	1572.75
190.841	3192.75
196.849	5075.75
202.85	6488.75
208.845	7047.75
214.833	7083.75
220.815	7020.75
226.789	7015.75
232.758	7112.75
238.719	7098.75
244.674	7099.75
250.623	7043.75
256.565	7031.75
262.5	6976.75
268.429	6943.75
274.351	6914.75
280.267	6873.75
286.176	6908.75
292.079	6946.75
297.975	6966.75
303.865	7002.75
309.748	6975.75
315.625	6961.75
321.495	7037.75
327.359	7008.75
333.217	7067.75
339.068	7075.75
344.912	7141.75
350.751	7136.75
356.583	7204.75
362.408	7203.75
368.227	7247.75
374.04	7249.75
379.847	7299.75
385.647	7399.75
391.44	7399.75
397.228	7454.75
403.009	7463.75
408.784	7507.75
414.553	7542.75
420.315	7561.75
426.071	7562.75
431.821	7586.75
437.565	7592.75
443.302	7576.75
449.033	7531.75
454.758	7487.75
460.477	7436.75
466.189	7344.75
471.896	7302.75
477.596	7218.75
483.29	7170.75
488.978	7178.75
494.66	7115.75
500.335	6896.75
506.005	6621.75
511.668	6290.75
517.325	5967.75
522.977	5718.75
528.622	5500.75
534.261	5397.75
539.894	5295.75
545.521	5216.75
551.141	5155.75
556.756	5092.75
562.365	5001.75
567.968	4998.75
573.565	4963.75
579.155	4920.75
584.74	4888.75
590.319	4911.75
595.892	4873.75
601.459	4894.75
607.02	4856.75
612.575	4874.75
618.124	4770.75
623.667	4717.75
629.204	4619.75
634.735	4562.75
640.261	4537.75
645.781	4467.75
651.294	4447.75
656.802	4444.75
662.304	4445.75
667.8	4436.75
673.29	4409.75
678.775	4420.75
684.254	4390.75
689.726	4376.75
695.193	4334.75
700.655	4324.75
706.11	4288.75
711.56	4278.75
717.004	4280.75
722.442	4198.75
727.874	4206.75
733.301	4209.75
738.722	4152.75
744.137	4172.75
749.547	4172.75
754.951	4178.75
760.349	4185.75
765.741	4186.75
771.128	4247.75
776.509	4305.75
781.885	4346.75
787.254	4392.75
792.618	4387.75
797.977	4405.75
803.33	4354.75
808.677	4329.75
814.019	4300.75
819.355	4250.75
824.686	4228.75
830.011	4180.75
835.33	4156.75
840.644	4174.75
845.952	4110.75
851.255	4083.75
856.552	4047.75
861.844	4005.75
867.13	3976.75
872.41	3984.75
877.686	4015.75
882.955	4037.75
888.219	4013.75
893.478	3887.75
898.731	3788.75
903.979	3723.75
909.221	3664.75
914.458	3648.75
919.69	3628.75
924.916	3636.75
930.136	3635.75
935.351	3623.75
940.561	3655.75
945.766	3607.75
950.965	3610.75
956.158	3571.75
961.347	3528.75
966.529	3465.75
971.707	3461.75
976.879	3420.75
982.046	3370.75
987.208	3349.75
992.364	3356.75
997.515	3359.75
1002.66	3387.75
1007.801	3443.75
1012.936	3470.75
1018.066	3465.75
1023.19	3510.75
1028.309	3545.75
1033.423	3537.75
1038.532	3522.75
1043.636	3515.75
1048.734	3492.75
1053.827	3499.75
1058.915	3444.75
1063.998	3414.75
1069.075	3409.75
1074.147	3390.75
1079.214	3376.75
1084.276	3396.75
1089.333	3411.75
1094.385	3450.75
1099.431	3416.75
1104.472	3383.75
1109.509	3329.75
1114.54	3274.75
1119.565	3220.75
1124.586	3211.75
1129.602	3136.75
1134.613	3091.75
1139.618	3096.75
1144.619	3084.75
1149.614	3107.75
1154.604	3109.75
1159.589	3110.75
1164.57	3127.75
1169.545	3152.75
1174.515	3150.75
1179.48	3124.75
1184.44	3117.75
1189.395	3091.75
1194.345	3040.75
1199.29	3046.75
1204.23	3030.75
1209.165	3010.75
1214.095	3023.75
1219.021	3058.75
1223.941	3041.75
1228.856	3067.75
1233.766	3099.75
1238.672	3089.75
1243.572	3086.75
1248.467	3048.75
1253.358	3015.75
1258.244	2965.75
1263.124	2947.75
1268	2927.75
1272.871	2841.75
1277.737	2823.75
1282.599	2805.75
1287.455	2808.75
1292.306	2812.75
1297.153	2809.75
1301.995	2823.75
1306.832	2831.75
1311.664	2844.75
1316.491	2808.75
1321.314	2829.75
1326.132	2767.75
1330.945	2785.75
1335.753	2715.75
1340.556	2662.75
1345.354	2618.75
1350.148	2597.75
1354.937	2552.75
1359.722	2555.75
1364.501	2522.75
1369.276	2529.75
1374.046	2514.75
1378.811	2498.75
1383.572	2514.75
1388.327	2508.75
1393.079	2487.75
1397.825	2449.75
1402.567	2448.75
1407.304	2437.75
1412.036	2416.75
1416.764	2412.75
1421.487	2405.75
1426.205	2408.75
1430.919	2391.75
1435.628	2436.75
1440.333	2442.75
1445.032	2484.75
1449.727	2523.75
1454.418	2566.75
1459.104	2554.75
1463.785	2508.75
1468.462	2448.75
1473.134	2413.75
1477.802	2370.75
1482.465	2317.75
1487.123	2320.75
1491.777	2281.75
1496.426	2259.75
1501.071	2288.75
1505.711	2303.75
1510.347	2316.75
1514.978	2309.75
1519.604	2315.75
1524.226	2324.75
1528.844	2291.75
1533.457	2295.75
1538.065	2261.75
1542.669	2245.75
1547.269	2219.75
1551.864	2193.75
1556.454	2180.75
1561.041	2168.75
1565.622	2184.75
1570.199	2184.75
1574.772	2207.75
1579.34	2217.75
1583.904	2250.75
1588.464	2247.75
1593.019	2258.75
1597.569	2230.75
1602.115	2252.75
1606.657	2233.75
1611.195	2231.75
1615.728	2229.75
1620.256	2210.75
1624.78	2192.75
1629.3	2190.75
1633.816	2216.75
1638.327	2245.75
1642.834	2253.75
1647.336	2264.75
1651.834	2277.75
1656.328	2288.75
1660.817	2285.75
1665.302	2257.75
1669.783	2240.75
1674.259	2191.75
1678.732	2163.75
1683.199	2094.75
1687.663	2067.75
1692.122	2016.75
1696.577	1982.75
1701.028	1966.75
1705.474	1901.75
1709.917	1881.75
1714.355	1850.75
1718.788	1841.75
1723.218	1820.75
1727.643	1795.75
1732.064	1785.75
1736.481	1728.75
1740.893	1698.75
1745.301	1684.75
1749.705	1621.75
1754.105	1589.75
1758.501	1561.75
1762.893	1551.75
1767.28	1512.75
1771.663	1510.75
1776.042	1494.75
1780.417	1471.75
1784.787	1501.75
1789.154	1512.75
1793.516	1509.75
1797.874	1488.75
1802.228	1490.75
1806.578	1472.75
1810.924	1488.75
1815.266	1372.75
1819.603	1436.75
1823.937	1394.75
1828.266	1395.75
1832.591	1387.75
1836.913	1367.75
1841.23	1378.75
1845.543	1376.75
1849.852	1387.75
1854.156	1362.75
1858.457	1357.75
1862.754	1371.75
1867.047	1368.75
1871.335	1387.75
1875.62	1375.75
1879.9	1387.75
1884.177	1368.75
1888.449	1379.75
1892.718	1360.75
1896.982	1359.75
1901.243	1354.75
1905.499	1345.75
1909.752	1345.75
1914	1320.75
1918.245	1347.75
1922.485	1341.75
1926.722	1349.75
1930.954	1350.75
1935.183	1376.75
1939.408	1365.75
1943.628	1361.75
1947.845	1349.75
1952.058	1329.75
1956.267	1310.75
1960.472	1292.75
1964.673	1260.75
1968.87	1242.75
1973.063	1226.75
1977.252	1210.75
1981.438	1192.75
1985.619	1179.75
1989.797	1150.75
1993.971	1155.75
1998.14	1157.75
2002.306	1134.75
2006.469	1149.75
2010.627	1135.75
2014.781	1126.75
2018.932	1124.75
2023.078	1134.75
2027.221	1114.75
2031.36	1103.75
2035.495	1086.75
2039.627	1078.75
2043.754	1091.75
2047.878	1075.75
2051.998	1063.75
2056.114	1050.75
2060.226	1056.75
2064.334	1089.75
2068.439	1069.75
2072.54	1088.75
2076.637	1071.75
2080.73	1084.75
2084.82	1091.75
2088.906	1078.75
2092.988	1082.75
2097.066	1070.75
2101.14	1084.75
2105.211	1060.75
2109.278	1031.75
2113.342	1031.75
2117.401	1000.75
2121.457	987.75
2125.509	983.75
2129.558	998.75
2133.602	970.75
2137.643	962.75
2141.681	963.75
2145.714	957.75
2149.744	950.75
2153.77	928.75
2157.793	917.75
2161.812	893.75
2165.827	879.75
2169.838	909.75
2173.846	861.75
2177.851	867.75
2181.851	862.75
2185.848	846.75
2189.841	826.75
2193.831	817.75
2197.817	825.75
2201.799	823.75
2205.778	805.75
2209.753	801.75
2213.725	783.75
2217.693	790.75
2221.657	779.75
2225.618	801.75
2229.575	783.75
2233.529	773.75
2237.479	777.75
2241.425	755.75
2245.368	742.75
2249.307	738.75
2253.243	725.75
2257.175	716.75
2261.104	701.75
2265.029	695.75
2268.95	685.75
2272.868	674.75
2276.783	657.75
2280.694	655.75
2284.601	657.75
2288.505	640.75
2292.405	650.75
2296.302	627.75
2300.195	624.75
2304.085	590.75
2307.971	603.75
2311.854	570.75
2315.734	596.75
2319.609	587.75
2323.482	555.75
2327.351	547.75
2331.216	555.75
2335.078	555.75
2338.937	546.75
2342.792	546.75
2346.643	540.75
2350.492	546.75
2354.336	534.75
2358.178	554.75
2362.015	539.75
2365.85	544.75
2369.681	543.75
2373.508	541.75
2377.333	562.75
2381.153	547.75
2384.971	527.75
2388.785	544.75
2392.595	525.75
2396.402	522.75
2400.206	507.75
2404.007	508.75
2407.804	515.75
2411.597	520.75
2415.388	500.75
2419.174	500.75
2422.958	501.75
2426.738	495.75
2430.515	515.75
2434.289	493.75
2438.059	479.75
2441.825	487.75
2445.589	499.75
2449.349	471.75
2453.106	466.75
2456.859	470.75
2460.61	470.75
2464.356	448.75
2468.1	458.75
2471.84	451.75
2475.577	447.75
2479.311	456.75
2483.041	442.75
2486.768	463.75
2490.492	454.75
2494.213	444.75
2497.93	441.75
2501.644	432.75
2505.355	445.75
2509.062	437.75
2512.766	442.75
2516.467	435.75
2520.165	435.75
2523.859	419.75
2527.551	451.75
2531.239	415.75
2534.923	432.75
2538.605	419.75
2542.283	421.75
2545.958	420.75
2549.63	429.75
2553.299	434.75
2556.964	400.75
2560.626	417.75
2564.285	418.75
2567.941	404.75
2571.594	395.75
2575.243	410.75
2578.89	390.75
2582.533	394.75
2586.173	396.75
2589.809	391.75
2593.443	368.75
2597.073	371.75
2600.701	383.75
2604.325	372.75
2607.946	366.75
2611.564	387.75
2615.178	361.75
2618.79	378.75
2622.398	351.75
2626.004	364.75
2629.606	359.75
2633.205	348.75
2636.801	342.75
2640.394	343.75
2643.983	336.75
2647.57	327.75
2651.153	320.75
2654.734	340.75
2658.311	299.75
2661.885	320.75
2665.456	316.75
2669.025	316.75
2672.589	305.75
2676.151	325.75
2679.71	325.75
2683.266	310.75
2686.819	301.75
2690.368	308.75
2693.915	309.75
2697.458	302.75
2700.999	299.75
2704.536	298.75
2708.071	287.75
2711.602	284.75
2715.13	284.75
2718.656	267.75
2722.178	272.75
2725.697	270.75
2729.214	266.75
2732.727	278.75
2736.237	269.75
2739.744	278.75
2743.249	275.75
2746.75	280.75
2750.248	272.75
2753.743	279.75
2757.236	282.75
2760.725	283.75
2764.211	251.75
2767.695	279.75
2771.175	272.75
2774.652	274.75
2778.127	266.75
2781.598	263.75
2785.067	266.75
2788.532	258.75
2791.995	264.75
2795.455	256.75
2798.911	277.75
2802.365	266.75
2805.816	267.75
2809.264	278.75
2812.709	262.75
2816.151	278.75
2819.59	264.75
2823.026	265.75
2826.46	270.75
2829.89	281.75
2833.318	254.75
2836.742	276.75
2840.164	282.75
2843.583	283.75
2846.999	281.75
2850.412	292.75
2853.822	279.75
2857.229	311.75
2860.634	290.75
2864.035	291.75
2867.434	307.75
2870.83	327.75
2874.223	319.75
2877.613	323.75
2881	328.75
2884.385	343.75
2887.766	347.75
2891.145	354.75
2894.521	347.75
2897.894	334.75
2901.264	351.75
2904.631	343.75
2907.996	344.75
2911.358	351.75
2914.717	341.75
2918.073	343.75
2921.426	341.75
2924.777	343.75
2928.124	363.75
2931.469	383.75
2934.811	374.75
2938.15	419.75
2941.487	397.75
2944.821	421.75
2948.152	396.75
2951.48	397.75
2954.805	362.75
2958.128	393.75
2961.447	372.75
2964.765	369.75
2968.079	367.75
2971.39	363.75
2974.699	369.75
2978.005	378.75
2981.308	380.75
2984.609	374.75
2987.907	385.75
2991.202	396.75
2994.494	379.75
2997.784	389.75
3001.07	392.75
3004.355	383.75
3007.636	380.75
3010.915	384.75
3014.191	386.75
3017.464	385.75
3020.734	381.75
3024.002	385.75
3027.267	383.75
3030.53	382.75
3033.789	395.75
3037.046	399.75
3040.301	394.75
3043.552	412.75
3046.801	413.75
3050.048	427.75
3053.291	454.75
3056.532	445.75
3059.771	442.75
3063.006	474.75
3066.239	474.75
3069.469	488.75
3072.697	494.75
3075.922	503.75
3079.144	513.75
3082.364	534.75
3085.581	520.75
3088.795	561.75
3092.007	563.75
3095.216	593.75
3098.423	572.75
3101.627	564.75
3104.828	601.75
3108.026	609.75
3111.222	639.75
3114.416	661.75
3117.607	653.75
3120.795	660.75
3123.98	676.75
3127.163	677.75
3130.344	694.75
3133.521	705.75
3136.696	731.75
3139.869	746.75
3143.039	737.75
3146.206	784.75
3149.371	779.75
3152.533	779.75
3155.693	781.75
3158.85	786.75
3162.005	801.75
3165.157	795.75
3168.306	798.75
3171.453	828.75
3174.597	809.75
3177.739	804.75
3180.878	800.75
3184.014	820.75
3187.149	821.75
3190.28	800.75
3193.409	824.75
3196.536	812.75
3199.659	835.75
3202.781	825.75
3205.9	810.75
3209.016	813.75
3212.13	812.75
3215.241	819.75
3218.35	813.75
3221.456	790.75
3224.56	797.75
3227.661	782.75
3230.76	780.75
3233.856	767.75
3236.95	783.75
3240.041	752.75
3243.13	770.75
3246.216	769.75
3249.3	757.75
3252.382	755.75
3255.46	743.75
3258.537	710.75
3261.611	737.75
3264.682	746.75
3267.751	738.75
3270.818	724.75
3273.882	754.75
3276.943	748.75
3280.002	743.75
3283.059	714.75
3286.113	711.75
3289.165	692.75
3292.214	678.75
3295.261	703.75
3298.306	669.75
3301.348	677.75
3304.387	648.75
3307.425	657.75
3310.459	643.75
3313.492	639.75
3316.521	629.75
3319.549	634.75
3322.574	628.75
3325.597	624.75
3328.617	618.75
3331.635	622.75
3334.65	601.75
3337.663	605.75
3340.674	603.75
3343.682	601.75
3346.688	610.75
3349.691	593.75
3352.692	586.75
3355.691	605.75
3358.687	590.75
3361.681	591.75
3364.673	574.75
3367.662	584.75
3370.649	571.75
3373.633	558.75
3376.615	559.75
3379.595	549.75
3382.572	546.75
3385.547	526.75
3388.52	515.75
3391.49	524.75
3394.458	515.75
3397.424	522.75
3400.387	494.75
3403.348	504.75
3406.307	503.75
3409.263	489.75
3412.217	499.75
3415.168	483.75
3418.118	486.75
3421.065	481.75
3424.009	486.75
3426.951	462.75
3429.891	466.75
3432.829	462.75
3435.764	452.75
3438.697	428.75
3441.628	438.75
3444.557	411.75
3447.483	404.75
3450.407	413.75
3453.328	393.75
3456.247	384.75
3459.164	354.75
3462.079	368.75
3464.991	359.75
3467.902	351.75
3470.809	341.75
3473.715	331.75
3476.618	313.75
3479.519	321.75
3482.418	291.75
3485.315	283.75
3488.209	286.75
3491.101	285.75
3493.99	261.75
3496.878	265.75
3499.763	265.75
3502.646	251.75
3505.527	239.75
3508.405	234.75
3511.281	214.75
3514.155	223.75
3517.027	216.75
3519.897	203.75
3522.764	204.75
3525.629	172.75
3528.492	188.75
3531.352	180.75
3534.211	169.75
3537.067	157.75
3539.921	161.75
3542.773	162.75
3545.622	139.75
3548.469	123.75
3551.315	130.75
3554.157	129.75
3556.998	115.75
3559.837	116.75
3562.673	116.75
3565.507	101.75
3568.339	100.75
3571.169	98.75
3573.996	93.75
3576.822	74.75
3579.645	83.75
3582.466	81.75
3585.285	85.75
3588.101	81.75
3590.916	68.75
3593.728	76.75
3596.538	64.75
3599.346	65.75
3602.152	50.75
3604.956	55.75
3607.757	57.75
3610.556	42.75
3613.354	48.75
3616.149	47.75
3618.942	47.75
3621.732	44.75
3624.521	32.75
3627.307	24.75
3630.092	26.75
3632.874	40.75
3635.654	31.75
3638.432	25.75
3641.208	18.75
3643.982	23.75
3646.753	27.75
3649.523	-5.25
3652.29	16.75
3655.055	20.75
3657.818	17.75
3660.579	9.75
3663.338	1.75
3666.095	7.75
3668.849	-16.25
3671.602	13.75
3674.352	-2.25
3677.101	11.75
3679.847	7.75
3682.591	-8.25
3685.333	-9.25
3688.073	-2.25
3690.811	-12.25
3693.547	-16.25
3696.281	-16.25
3699.013	-5.25
3701.742	-10.25
3704.47	-21.25
3707.195	-2.25
3709.919	-10.25
3712.64	-13.25
3715.359	-21.25
3718.076	-2.25
3720.792	-15.25
3723.505	-9.25
3726.216	-2.25
3728.925	-17.25
3731.632	-19.25
3734.336	-20.25
3737.039	-14.25
3739.74	-16.25
3742.439	-41.25
3745.136	-11.25
3747.83	-16.25
3750.523	-11.25
3753.213	-85.25
3755.902	-22.25
3758.589	-37.25
3761.273	-21.25
3763.956	-11.25
3766.636	-34.25
3769.315	-12.25
3771.991	-25.25
3774.665	-28.25
3777.338	-16.25
3780.008	-32.25
3782.677	-22.25
3785.343	-38.25
3788.007	-44.25
3790.67	-25.25
3793.33	-34.25
3795.989	-27.25
3798.645	-24.25
3801.299	-41.25
3803.952	-33.25
3806.602	-31.25
3809.251	-16.25
3811.897	-25.25
3814.542	-28.25
3817.184	-29.25
3819.825	-25.25
3822.463	-38.25
3825.1	-31.25
3827.735	-25.25
3830.367	-34.25
3832.998	-13.25
3835.627	-28.25
3838.253	-22.25
3840.878	-28.25
3843.501	-14.25
3846.122	-23.25
3848.741	-22.25
3851.358	-15.25
3853.973	-34.25
3856.586	-13.25
3859.197	-35.25
3861.806	-25.25
3864.414	-32.25
3867.019	-27.25
3869.622	-13.25
3872.224	-6.25
3874.823	11.75
3877.421	38.75
3880.016	60.75
3882.61	113.75
3885.202	140.75
3887.792	102.75
3890.38	48.75
3892.966	6.75
3895.55	-22.25
3898.132	-14.25
3900.713	-17.25
3903.291	-20.25
3905.868	-28.25
3908.442	-25.25
3911.015	-27.25
3913.586	-26.25
3916.155	-25.25
3918.722	-31.25
3921.287	-32.25
3923.85	-35.25
3926.411	-34.25
3928.971	-32.25
3931.528	-23.25
3934.084	-28.25
3936.638	-36.25
3939.19	-20.25
3941.74	-23.25
3944.288	-27.25
3946.834	-26.25
3949.378	-23.25
3951.921	-35.25
3954.462	-32.25
3957	-26.25
3959.537	-12.25
3962.072	-30.25
3964.606	-41.25
3967.137	-30.25
3969.667	-29.25
3972.194	-20.25
3974.72	-26.25
3977.244	-50.25
3979.766	-35.25
3982.286	-30.25
3984.805	-22.25
3987.321	-16.25
3989.836	-16.25
3992.349	-28.25
3994.86	-24.25
3997.369	-30.25
3999.877	-25.25
4002.382	-26.25
4004.886	-20.25
4007.388	-19.25
4009.888	-17.25
4012.386	-20.25
4014.883	-21.25
4017.377	-24.25
4019.87	-19.25
4022.361	-28.25
4024.85	-25.25
4027.338	-21.25
4029.823	-26.25
4032.307	-26.25
4034.789	-23.25
4037.269	-21.25
4039.747	-40.25
4042.224	-18.25
4044.699	-30.25
4047.172	-29.25
4049.643	-18.25
4052.112	-44.25
4054.58	-25.25
4057.046	-32.25
4059.51	-30.25
4061.972	-27.25
4064.432	-41.25
4066.891	-12.25
4069.348	-25.25
4071.803	-23.25
4074.256	-28.25
4076.708	-21.25
4079.158	-26.25
4081.606	-14.25
4084.052	-27.25
4086.497	-16.25
4088.939	-21.25
4091.38	-26.25
4093.819	-21.25
4096.257	0.75
4098.693	-3.25
4101.127	-4.25
4103.559	1.75
4105.989	140.75
4108.418	143.75
4110.845	130.75
4113.27	155.75
4115.694	161.75
4118.115	150.75
4120.535	-22.25
4122.954	-19.25
4125.37	-13.25
4127.785	-20.25
4130.198	-16.25
4132.609	-25.25
4135.019	7.75
4137.427	-2.25
4139.833	4.75
4142.237	-5.25
