Data from 2018-3-6_conc=4_n=9_RamanShift_03.txt Node
Date: Tue Mar 06 14:16:48 GMT+02:00 2018
User: LAB3
Spectrometer: QEPB0276
Trigger mode: 0
Integration Time (sec): 3.000000E1
Scans to average: 1
Electric dark correction enabled: true
Nonlinearity correction enabled: false
Boxcar width: 0
XAxis mode: Raman Shifts
Number of Pixels in Spectrum: 1044
>>>>>Begin Spectral Data<<<<<
160.701	67.38
166.742	84.38
172.777	132.38
178.805	252.38
184.826	604.38
190.841	1209.38
196.849	1909.38
202.85	2416.38
208.845	2611.38
214.833	2557.38
220.815	2530.38
226.789	2521.38
232.758	2511.38
238.719	2496.38
244.674	2474.38
250.623	2437.38
256.565	2417.38
262.5	2375.38
268.429	2350.38
274.351	2340.38
280.267	2348.38
286.176	2310.38
292.079	2318.38
297.975	2331.38
303.865	2309.38
309.748	2318.38
315.625	2305.38
321.495	2313.38
327.359	2306.38
333.217	2310.38
339.068	2291.38
344.912	2336.38
350.751	2327.38
356.583	2335.38
362.408	2347.38
368.227	2334.38
374.04	2355.38
379.847	2365.38
385.647	2385.38
391.44	2370.38
397.228	2374.38
403.009	2397.38
408.784	2409.38
414.553	2404.38
420.315	2417.38
426.071	2392.38
431.821	2410.38
437.565	2416.38
443.302	2391.38
449.033	2375.38
454.758	2401.38
460.477	2362.38
466.189	2342.38
471.896	2312.38
477.596	2270.38
483.29	2276.38
488.978	2273.38
494.66	2262.38
500.335	2193.38
506.005	2096.38
511.668	2006.38
517.325	1890.38
522.977	1798.38
528.622	1745.38
534.261	1722.38
539.894	1674.38
545.521	1635.38
551.141	1623.38
556.756	1607.38
562.365	1589.38
567.968	1592.38
573.565	1570.38
579.155	1575.38
584.74	1544.38
590.319	1551.38
595.892	1557.38
601.459	1549.38
607.02	1552.38
612.575	1537.38
618.124	1516.38
623.667	1481.38
629.204	1480.38
634.735	1453.38
640.261	1428.38
645.781	1398.38
651.294	1414.38
656.802	1396.38
662.304	1402.38
667.8	1396.38
673.29	1389.38
678.775	1415.38
684.254	1389.38
689.726	1376.38
695.193	1369.38
700.655	1376.38
706.11	1361.38
711.56	1346.38
717.004	1355.38
722.442	1319.38
727.874	1339.38
733.301	1342.38
738.722	1310.38
744.137	1324.38
749.547	1322.38
754.951	1304.38
760.349	1297.38
765.741	1332.38
771.128	1346.38
776.509	1336.38
781.885	1376.38
787.254	1380.38
792.618	1386.38
797.977	1392.38
803.33	1373.38
808.677	1368.38
814.019	1352.38
819.355	1348.38
824.686	1328.38
830.011	1328.38
835.33	1329.38
840.644	1326.38
845.952	1288.38
851.255	1299.38
856.552	1304.38
861.844	1276.38
867.13	1256.38
872.41	1223.38
877.686	1234.38
882.955	1217.38
888.219	1217.38
893.478	1179.38
898.731	1188.38
903.979	1165.38
909.221	1146.38
914.458	1142.38
919.69	1136.38
924.916	1136.38
930.136	1141.38
935.351	1130.38
940.561	1157.38
945.766	1144.38
950.965	1139.38
956.158	1112.38
961.347	1117.38
966.529	1100.38
971.707	1097.38
976.879	1096.38
982.046	1073.38
987.208	1055.38
992.364	1069.38
997.515	1058.38
1002.66	1067.38
1007.801	1069.38
1012.936	1087.38
1018.066	1071.38
1023.19	1097.38
1028.309	1093.38
1033.423	1105.38
1038.532	1107.38
1043.636	1095.38
1048.734	1083.38
1053.827	1071.38
1058.915	1039.38
1063.998	1069.38
1069.075	1048.38
1074.147	1037.38
1079.214	1029.38
1084.276	1060.38
1089.333	1055.38
1094.385	1063.38
1099.431	1048.38
1104.472	1061.38
1109.509	1027.38
1114.54	1039.38
1119.565	1001.38
1124.586	1002.38
1129.602	980.38
1134.613	959.38
1139.618	961.38
1144.619	970.38
1149.614	979.38
1154.604	960.38
1159.589	972.38
1164.57	1012.38
1169.545	998.38
1174.515	1003.38
1179.48	980.38
1184.44	991.38
1189.395	975.38
1194.345	957.38
1199.29	956.38
1204.23	939.38
1209.165	941.38
1214.095	973.38
1219.021	960.38
1223.941	953.38
1228.856	950.38
1233.766	978.38
1238.672	971.38
1243.572	964.38
1248.467	967.38
1253.358	954.38
1258.244	920.38
1263.124	926.38
1268	919.38
1272.871	878.38
1277.737	876.38
1282.599	859.38
1287.455	864.38
1292.306	878.38
1297.153	868.38
1301.995	874.38
1306.832	876.38
1311.664	877.38
1316.491	882.38
1321.314	883.38
1326.132	880.38
1330.945	854.38
1335.753	851.38
1340.556	843.38
1345.354	819.38
1350.148	813.38
1354.937	804.38
1359.722	795.38
1364.501	793.38
1369.276	782.38
1374.046	786.38
1378.811	781.38
1383.572	797.38
1388.327	771.38
1393.079	766.38
1397.825	765.38
1402.567	756.38
1407.304	755.38
1412.036	741.38
1416.764	753.38
1421.487	736.38
1426.205	731.38
1430.919	755.38
1435.628	740.38
1440.333	748.38
1445.032	761.38
1449.727	771.38
1454.418	780.38
1459.104	773.38
1463.785	740.38
1468.462	753.38
1473.134	732.38
1477.802	714.38
1482.465	691.38
1487.123	703.38
1491.777	670.38
1496.426	666.38
1501.071	704.38
1505.711	680.38
1510.347	707.38
1514.978	695.38
1519.604	699.38
1524.226	715.38
1528.844	689.38
1533.457	689.38
1538.065	694.38
1542.669	691.38
1547.269	689.38
1551.864	688.38
1556.454	677.38
1561.041	666.38
1565.622	668.38
1570.199	680.38
1574.772	683.38
1579.34	697.38
1583.904	712.38
1588.464	722.38
1593.019	703.38
1597.569	698.38
1602.115	692.38
1606.657	691.38
1611.195	708.38
1615.728	709.38
1620.256	681.38
1624.78	657.38
1629.3	679.38
1633.816	688.38
1638.327	673.38
1642.834	703.38
1647.336	690.38
1651.834	703.38
1656.328	709.38
1660.817	697.38
1665.302	694.38
1669.783	682.38
1674.259	656.38
1678.732	648.38
1683.199	645.38
1687.663	611.38
1692.122	611.38
1696.577	603.38
1701.028	592.38
1705.474	577.38
1709.917	546.38
1714.355	549.38
1718.788	556.38
1723.218	528.38
1727.643	521.38
1732.064	529.38
1736.481	513.38
1740.893	525.38
1745.301	501.38
1749.705	463.38
1754.105	481.38
1758.501	462.38
1762.893	482.38
1767.28	451.38
1771.663	448.38
1776.042	440.38
1780.417	441.38
1784.787	447.38
1789.154	455.38
1793.516	446.38
1797.874	451.38
1802.228	442.38
1806.578	424.38
1810.924	445.38
1815.266	329.38
1819.603	436.38
1823.937	425.38
1828.266	424.38
1832.591	416.38
1836.913	420.38
1841.23	410.38
1845.543	401.38
1849.852	419.38
1854.156	397.38
1858.457	401.38
1862.754	395.38
1867.047	402.38
1871.335	422.38
1875.62	410.38
1879.9	408.38
1884.177	387.38
1888.449	412.38
1892.718	395.38
1896.982	411.38
1901.243	388.38
1905.499	387.38
1909.752	381.38
1914	373.38
1918.245	387.38
1922.485	396.38
1926.722	379.38
1930.954	372.38
1935.183	399.38
1939.408	390.38
1943.628	384.38
1947.845	382.38
1952.058	382.38
1956.267	364.38
1960.472	365.38
1964.673	370.38
1968.87	354.38
1973.063	364.38
1977.252	352.38
1981.438	341.38
1985.619	336.38
1989.797	342.38
1993.971	342.38
1998.14	355.38
2002.306	345.38
2006.469	351.38
2010.627	332.38
2014.781	342.38
2018.932	335.38
2023.078	352.38
2027.221	340.38
2031.36	318.38
2035.495	318.38
2039.627	321.38
2043.754	320.38
2047.878	307.38
2051.998	307.38
2056.114	312.38
2060.226	299.38
2064.334	311.38
2068.439	325.38
2072.54	325.38
2076.637	303.38
2080.73	305.38
2084.82	308.38
2088.906	301.38
2092.988	306.38
2097.066	308.38
2101.14	314.38
2105.211	317.38
2109.278	293.38
2113.342	288.38
2117.401	284.38
2121.457	281.38
2125.509	267.38
2129.558	279.38
2133.602	287.38
2137.643	277.38
2141.681	283.38
2145.714	272.38
2149.744	279.38
2153.77	282.38
2157.793	267.38
2161.812	242.38
2165.827	244.38
2169.838	274.38
2173.846	244.38
2177.851	242.38
2181.851	259.38
2185.848	241.38
2189.841	240.38
2193.831	236.38
2197.817	236.38
2201.799	247.38
2205.778	227.38
2209.753	228.38
2213.725	214.38
2217.693	228.38
2221.657	214.38
2225.618	233.38
2229.575	228.38
2233.529	230.38
2237.479	220.38
2241.425	213.38
2245.368	208.38
2249.307	213.38
2253.243	208.38
2257.175	217.38
2261.104	196.38
2265.029	209.38
2268.95	194.38
2272.868	192.38
2276.783	189.38
2280.694	199.38
2284.601	195.38
2288.505	189.38
2292.405	194.38
2296.302	173.38
2300.195	181.38
2304.085	152.38
2307.971	175.38
2311.854	147.38
2315.734	167.38
2319.609	173.38
2323.482	147.38
2327.351	152.38
2331.216	156.38
2335.078	162.38
2338.937	159.38
2342.792	146.38
2346.643	147.38
2350.492	161.38
2354.336	153.38
2358.178	161.38
2362.015	156.38
2365.85	151.38
2369.681	155.38
2373.508	151.38
2377.333	161.38
2381.153	157.38
2384.971	147.38
2388.785	156.38
2392.595	148.38
2396.402	138.38
2400.206	120.38
2404.007	129.38
2407.804	143.38
2411.597	145.38
2415.388	134.38
2419.174	142.38
2422.958	140.38
2426.738	134.38
2430.515	136.38
2434.289	119.38
2438.059	129.38
2441.825	139.38
2445.589	139.38
2449.349	124.38
2453.106	141.38
2456.859	122.38
2460.61	132.38
2464.356	121.38
2468.1	114.38
2471.84	114.38
2475.577	113.38
2479.311	114.38
2483.041	121.38
2486.768	130.38
2490.492	127.38
2494.213	113.38
2497.93	104.38
2501.644	107.38
2505.355	111.38
2509.062	113.38
2512.766	114.38
2516.467	103.38
2520.165	113.38
2523.859	102.38
2527.551	136.38
2531.239	94.38
2534.923	111.38
2538.605	107.38
2542.283	116.38
2545.958	106.38
2549.63	115.38
2553.299	115.38
2556.964	93.38
2560.626	102.38
2564.285	109.38
2567.941	90.38
2571.594	94.38
2575.243	99.38
2578.89	94.38
2582.533	100.38
2586.173	92.38
2589.809	99.38
2593.443	77.38
2597.073	97.38
2600.701	99.38
2604.325	93.38
2607.946	76.38
2611.564	93.38
2615.178	86.38
2618.79	91.38
2622.398	81.38
2626.004	92.38
2629.606	85.38
2633.205	78.38
2636.801	88.38
2640.394	87.38
2643.983	83.38
2647.57	74.38
2651.153	70.38
2654.734	84.38
2658.311	54.38
2661.885	63.38
2665.456	66.38
2669.025	69.38
2672.589	67.38
2676.151	88.38
2679.71	79.38
2683.266	74.38
2686.819	66.38
2690.368	77.38
2693.915	67.38
2697.458	68.38
2700.999	74.38
2704.536	76.38
2708.071	69.38
2711.602	62.38
2715.13	68.38
2718.656	46.38
2722.178	66.38
2725.697	54.38
2729.214	55.38
2732.727	61.38
2736.237	44.38
2739.744	61.38
2743.249	56.38
2746.75	58.38
2750.248	43.38
2753.743	61.38
2757.236	63.38
2760.725	62.38
2764.211	30.38
2767.695	54.38
2771.175	62.38
2774.652	58.38
2778.127	48.38
2781.598	49.38
2785.067	58.38
2788.532	45.38
2791.995	54.38
2795.455	48.38
2798.911	55.38
2802.365	47.38
2805.816	51.38
2809.264	60.38
2812.709	54.38
2816.151	53.38
2819.59	40.38
2823.026	48.38
2826.46	50.38
2829.89	63.38
2833.318	33.38
2836.742	49.38
2840.164	52.38
2843.583	56.38
2846.999	49.38
2850.412	54.38
2853.822	47.38
2857.229	64.38
2860.634	54.38
2864.035	40.38
2867.434	62.38
2870.83	58.38
2874.223	51.38
2877.613	56.38
2881	45.38
2884.385	57.38
2887.766	54.38
2891.145	59.38
2894.521	58.38
2897.894	49.38
2901.264	61.38
2904.631	65.38
2907.996	63.38
2911.358	68.38
2914.717	54.38
2918.073	62.38
2921.426	52.38
2924.777	39.38
2928.124	60.38
2931.469	73.38
2934.811	56.38
2938.15	83.38
2941.487	71.38
2944.821	90.38
2948.152	72.38
2951.48	71.38
2954.805	59.38
2958.128	79.38
2961.447	70.38
2964.765	86.38
2968.079	74.38
2971.39	71.38
2974.699	77.38
2978.005	67.38
2981.308	76.38
2984.609	69.38
2987.907	81.38
2991.202	89.38
2994.494	69.38
2997.784	86.38
3001.07	74.38
3004.355	72.38
3007.636	79.38
3010.915	74.38
3014.191	78.38
3017.464	83.38
3020.734	77.38
3024.002	93.38
3027.267	82.38
3030.53	93.38
3033.789	86.38
3037.046	91.38
3040.301	82.38
3043.552	94.38
3046.801	103.38
3050.048	102.38
3053.291	117.38
3056.532	112.38
3059.771	90.38
3063.006	115.38
3066.239	113.38
3069.469	119.38
3072.697	112.38
3075.922	113.38
3079.144	116.38
3082.364	130.38
3085.581	119.38
3088.795	142.38
3092.007	133.38
3095.216	140.38
3098.423	140.38
3101.627	117.38
3104.828	152.38
3108.026	144.38
3111.222	168.38
3114.416	160.38
3117.607	161.38
3120.795	165.38
3123.98	173.38
3127.163	160.38
3130.344	165.38
3133.521	164.38
3136.696	194.38
3139.869	177.38
3143.039	175.38
3146.206	204.38
3149.371	196.38
3152.533	192.38
3155.693	180.38
3158.85	198.38
3162.005	196.38
3165.157	192.38
3168.306	199.38
3171.453	211.38
3174.597	186.38
3177.739	196.38
3180.878	206.38
3184.014	212.38
3187.149	211.38
3190.28	206.38
3193.409	210.38
3196.536	208.38
3199.659	215.38
3202.781	215.38
3205.9	192.38
3209.016	207.38
3212.13	206.38
3215.241	207.38
3218.35	201.38
3221.456	196.38
3224.56	192.38
3227.661	198.38
3230.76	192.38
3233.856	183.38
3236.95	196.38
3240.041	180.38
3243.13	196.38
3246.216	192.38
3249.3	199.38
3252.382	183.38
3255.46	185.38
3258.537	142.38
3261.611	171.38
3264.682	182.38
3267.751	177.38
3270.818	167.38
3273.882	184.38
3276.943	174.38
3280.002	189.38
3283.059	170.38
3286.113	166.38
3289.165	166.38
3292.214	164.38
3295.261	185.38
3298.306	157.38
3301.348	179.38
3304.387	156.38
3307.425	164.38
3310.459	157.38
3313.492	163.38
3316.521	158.38
3319.549	157.38
3322.574	160.38
3325.597	160.38
3328.617	149.38
3331.635	145.38
3334.65	136.38
3337.663	147.38
3340.674	144.38
3343.682	156.38
3346.688	150.38
3349.691	143.38
3352.692	156.38
3355.691	150.38
3358.687	145.38
3361.681	147.38
3364.673	140.38
3367.662	148.38
3370.649	155.38
3373.633	132.38
3376.615	140.38
3379.595	120.38
3382.572	127.38
3385.547	122.38
3388.52	111.38
3391.49	116.38
3394.458	113.38
3397.424	131.38
3400.387	108.38
3403.348	122.38
3406.307	117.38
3409.263	115.38
3412.217	121.38
3415.168	113.38
3418.118	125.38
3421.065	112.38
3424.009	111.38
3426.951	102.38
3429.891	101.38
3432.829	105.38
3435.764	106.38
3438.697	90.38
3441.628	108.38
3444.557	81.38
3447.483	82.38
3450.407	94.38
3453.328	77.38
3456.247	80.38
3459.164	68.38
3462.079	83.38
3464.991	76.38
3467.902	73.38
3470.809	72.38
3473.715	70.38
3476.618	56.38
3479.519	69.38
3482.418	41.38
3485.315	45.38
3488.209	51.38
3491.101	52.38
3493.99	36.38
3496.878	43.38
3499.763	46.38
3502.646	48.38
3505.527	26.38
3508.405	36.38
3511.281	20.38
3514.155	32.38
3517.027	28.38
3519.897	16.38
3522.764	30.38
3525.629	8.38
3528.492	25.38
3531.352	24.38
3534.211	22.38
3537.067	15.38
3539.921	14.38
3542.773	25.38
3545.622	6.38
3548.469	3.38
3551.315	-2.62
3554.157	12.38
3556.998	-2.62
3559.837	2.38
3562.673	7.38
3565.507	-0.62
3568.339	-11.62
3571.169	-0.62
3573.996	-2.62
3576.822	-16.62
3579.645	-11.62
3582.466	-14.62
3585.285	-2.62
3588.101	-11.62
3590.916	-9.62
3593.728	-0.62
3596.538	-9.62
3599.346	-9.62
3602.152	-16.62
3604.956	-9.62
3607.757	-8.62
3610.556	-27.62
3613.354	-8.62
3616.149	-16.62
3618.942	-6.62
3621.732	-8.62
3624.521	-14.62
3627.307	-26.62
3630.092	-29.62
3632.874	-8.62
3635.654	-15.62
3638.432	-25.62
3641.208	-20.62
3643.982	-16.62
3646.753	-8.62
3649.523	-43.62
3652.29	-19.62
3655.055	-17.62
3657.818	-21.62
3660.579	-25.62
3663.338	-38.62
3666.095	-26.62
3668.849	-53.62
3671.602	-17.62
3674.352	-32.62
3677.101	-16.62
3679.847	-15.62
3682.591	-30.62
3685.333	-35.62
3688.073	-30.62
3690.811	-33.62
3693.547	-35.62
3696.281	-41.62
3699.013	-29.62
3701.742	-34.62
3704.47	-37.62
3707.195	-26.62
3709.919	-29.62
3712.64	-30.62
3715.359	-40.62
3718.076	-23.62
3720.792	-31.62
3723.505	-28.62
3726.216	-17.62
3728.925	-30.62
3731.632	-34.62
3734.336	-30.62
3737.039	-31.62
3739.74	-27.62
3742.439	-52.62
3745.136	-26.62
3747.83	-23.62
3750.523	-28.62
3753.213	-83.62
3755.902	-31.62
3758.589	-44.62
3761.273	-34.62
3763.956	-19.62
3766.636	-44.62
3769.315	-17.62
3771.991	-32.62
3774.665	-35.62
3777.338	-29.62
3780.008	-41.62
3782.677	-33.62
3785.343	-49.62
3788.007	-47.62
3790.67	-28.62
3793.33	-43.62
3795.989	-40.62
3798.645	-34.62
3801.299	-44.62
3803.952	-44.62
3806.602	-35.62
3809.251	-25.62
3811.897	-31.62
3814.542	-40.62
3817.184	-40.62
3819.825	-31.62
3822.463	-47.62
3825.1	-39.62
3827.735	-33.62
3830.367	-44.62
3832.998	-17.62
3835.627	-38.62
3838.253	-24.62
3840.878	-36.62
3843.501	-15.62
3846.122	-29.62
3848.741	-30.62
3851.358	-25.62
3853.973	-41.62
3856.586	-23.62
3859.197	-38.62
3861.806	-38.62
3864.414	-43.62
3867.019	-32.62
3869.622	-19.62
3872.224	-28.62
3874.823	-14.62
3877.421	8.38
3880.016	14.38
3882.61	38.38
3885.202	44.38
3887.792	36.38
3890.38	7.38
3892.966	-19.62
3895.55	-35.62
3898.132	-21.62
3900.713	-25.62
3903.291	-29.62
3905.868	-35.62
3908.442	-35.62
3911.015	-34.62
3913.586	-36.62
3916.155	-31.62
3918.722	-41.62
3921.287	-37.62
3923.85	-46.62
3926.411	-40.62
3928.971	-42.62
3931.528	-30.62
3934.084	-36.62
3936.638	-42.62
3939.19	-33.62
3941.74	-28.62
3944.288	-33.62
3946.834	-35.62
3949.378	-25.62
3951.921	-38.62
3954.462	-31.62
3957	-30.62
3959.537	-26.62
3962.072	-35.62
3964.606	-52.62
3967.137	-35.62
3969.667	-35.62
3972.194	-32.62
3974.72	-35.62
3977.244	-55.62
3979.766	-40.62
3982.286	-44.62
3984.805	-29.62
3987.321	-24.62
3989.836	-30.62
3992.349	-36.62
3994.86	-32.62
3997.369	-45.62
3999.877	-32.62
4002.382	-33.62
4004.886	-28.62
4007.388	-33.62
4009.888	-19.62
4012.386	-27.62
4014.883	-28.62
4017.377	-29.62
4019.87	-32.62
4022.361	-44.62
4024.85	-33.62
4027.338	-29.62
4029.823	-33.62
4032.307	-36.62
4034.789	-34.62
4037.269	-32.62
4039.747	-49.62
4042.224	-27.62
4044.699	-39.62
4047.172	-36.62
4049.643	-26.62
4052.112	-55.62
4054.58	-34.62
4057.046	-44.62
4059.51	-33.62
4061.972	-36.62
4064.432	-50.62
4066.891	-19.62
4069.348	-35.62
4071.803	-28.62
4074.256	-35.62
4076.708	-28.62
4079.158	-31.62
4081.606	-20.62
4084.052	-33.62
4086.497	-27.62
4088.939	-30.62
4091.38	-36.62
4093.819	-30.62
4096.257	2.38
4098.693	-5.62
4101.127	-6.62
4103.559	3.38
4105.989	61.38
4108.418	66.38
4110.845	55.38
4113.27	62.38
4115.694	62.38
4118.115	50.38
4120.535	-27.62
4122.954	-23.62
4125.37	-21.62
4127.785	-28.62
4130.198	-22.62
4132.609	-30.62
4135.019	6.38
4137.427	-0.62
4139.833	4.38
4142.237	-3.62
