Data from 2018-3-6_conc=3_n=5_RamanShift_02.txt Node
Date: Tue Mar 06 13:26:49 GMT+02:00 2018
User: LAB3
Spectrometer: QEPB0276
Trigger mode: 0
Integration Time (sec): 3.000000E1
Scans to average: 1
Electric dark correction enabled: true
Nonlinearity correction enabled: false
Boxcar width: 0
XAxis mode: Raman Shifts
Number of Pixels in Spectrum: 1044
>>>>>Begin Spectral Data<<<<<
160.701	139.12
166.742	179.12
172.777	262.12
178.805	513.12
184.826	1155.12
190.841	2324.12
196.849	3664.12
202.85	4670.12
208.845	5050.12
214.833	5054.12
220.815	5009.12
226.789	5000.12
232.758	5036.12
238.719	5060.12
244.674	5014.12
250.623	5011.12
256.565	4939.12
262.5	4911.12
268.429	4894.12
274.351	4866.12
280.267	4856.12
286.176	4871.12
292.079	4867.12
297.975	4905.12
303.865	4873.12
309.748	4889.12
315.625	4887.12
321.495	4908.12
327.359	4939.12
333.217	4945.12
339.068	4970.12
344.912	5003.12
350.751	4989.12
356.583	4985.12
362.408	5018.12
368.227	5083.12
374.04	5072.12
379.847	5079.12
385.647	5121.12
391.44	5122.12
397.228	5191.12
403.009	5206.12
408.784	5236.12
414.553	5276.12
420.315	5266.12
426.071	5262.12
431.821	5263.12
437.565	5288.12
443.302	5233.12
449.033	5179.12
454.758	5194.12
460.477	5179.12
466.189	5115.12
471.896	5094.12
477.596	5046.12
483.29	5010.12
488.978	4996.12
494.66	4976.12
500.335	4837.12
506.005	4612.12
511.668	4401.12
517.325	4204.12
522.977	4012.12
528.622	3897.12
534.261	3805.12
539.894	3713.12
545.521	3654.12
551.141	3625.12
556.756	3566.12
562.365	3550.12
567.968	3537.12
573.565	3496.12
579.155	3479.12
584.74	3462.12
590.319	3465.12
595.892	3427.12
601.459	3461.12
607.02	3445.12
612.575	3402.12
618.124	3377.12
623.667	3300.12
629.204	3265.12
634.735	3243.12
640.261	3206.12
645.781	3153.12
651.294	3145.12
656.802	3148.12
662.304	3155.12
667.8	3127.12
673.29	3101.12
678.775	3130.12
684.254	3091.12
689.726	3082.12
695.193	3074.12
700.655	3051.12
706.11	3056.12
711.56	3027.12
717.004	3010.12
722.442	2962.12
727.874	2970.12
733.301	2990.12
738.722	2944.12
744.137	2930.12
749.547	2937.12
754.951	2922.12
760.349	2939.12
765.741	2972.12
771.128	2968.12
776.509	3007.12
781.885	3065.12
787.254	3079.12
792.618	3096.12
797.977	3101.12
803.33	3057.12
808.677	3038.12
814.019	3036.12
819.355	2993.12
824.686	2961.12
830.011	2931.12
835.33	2941.12
840.644	2915.12
845.952	2871.12
851.255	2870.12
856.552	2842.12
861.844	2838.12
867.13	2771.12
872.41	2746.12
877.686	2753.12
882.955	2713.12
888.219	2701.12
893.478	2653.12
898.731	2632.12
903.979	2616.12
909.221	2570.12
914.458	2550.12
919.69	2534.12
924.916	2545.12
930.136	2561.12
935.351	2555.12
940.561	2559.12
945.766	2547.12
950.965	2545.12
956.158	2533.12
961.347	2468.12
966.529	2455.12
971.707	2431.12
976.879	2386.12
982.046	2376.12
987.208	2354.12
992.364	2367.12
997.515	2381.12
1002.66	2368.12
1007.801	2402.12
1012.936	2401.12
1018.066	2406.12
1023.19	2452.12
1028.309	2452.12
1033.423	2446.12
1038.532	2451.12
1043.636	2432.12
1048.734	2399.12
1053.827	2383.12
1058.915	2375.12
1063.998	2350.12
1069.075	2336.12
1074.147	2351.12
1079.214	2326.12
1084.276	2350.12
1089.333	2349.12
1094.385	2355.12
1099.431	2358.12
1104.472	2344.12
1109.509	2303.12
1114.54	2276.12
1119.565	2254.12
1124.586	2208.12
1129.602	2183.12
1134.613	2139.12
1139.618	2164.12
1144.619	2160.12
1149.614	2159.12
1154.604	2177.12
1159.589	2184.12
1164.57	2220.12
1169.545	2220.12
1174.515	2185.12
1179.48	2181.12
1184.44	2170.12
1189.395	2176.12
1194.345	2130.12
1199.29	2112.12
1204.23	2099.12
1209.165	2108.12
1214.095	2156.12
1219.021	2131.12
1223.941	2126.12
1228.856	2144.12
1233.766	2162.12
1238.672	2170.12
1243.572	2139.12
1248.467	2137.12
1253.358	2098.12
1258.244	2062.12
1263.124	2041.12
1268	2021.12
1272.871	1947.12
1277.737	1965.12
1282.599	1946.12
1287.455	1935.12
1292.306	1949.12
1297.153	1936.12
1301.995	1974.12
1306.832	1975.12
1311.664	1977.12
1316.491	1966.12
1321.314	1952.12
1326.132	1941.12
1330.945	1927.12
1335.753	1881.12
1340.556	1864.12
1345.354	1822.12
1350.148	1812.12
1354.937	1785.12
1359.722	1753.12
1364.501	1767.12
1369.276	1765.12
1374.046	1739.12
1378.811	1746.12
1383.572	1730.12
1388.327	1732.12
1393.079	1712.12
1397.825	1703.12
1402.567	1701.12
1407.304	1668.12
1412.036	1675.12
1416.764	1671.12
1421.487	1674.12
1426.205	1663.12
1430.919	1662.12
1435.628	1669.12
1440.333	1672.12
1445.032	1696.12
1449.727	1693.12
1454.418	1721.12
1459.104	1703.12
1463.785	1660.12
1468.462	1674.12
1473.134	1640.12
1477.802	1609.12
1482.465	1547.12
1487.123	1574.12
1491.777	1527.12
1496.426	1537.12
1501.071	1556.12
1505.711	1541.12
1510.347	1567.12
1514.978	1570.12
1519.604	1572.12
1524.226	1575.12
1528.844	1566.12
1533.457	1570.12
1538.065	1544.12
1542.669	1531.12
1547.269	1524.12
1551.864	1528.12
1556.454	1501.12
1561.041	1514.12
1565.622	1504.12
1570.199	1533.12
1574.772	1525.12
1579.34	1555.12
1583.904	1555.12
1588.464	1595.12
1593.019	1575.12
1597.569	1554.12
1602.115	1552.12
1606.657	1560.12
1611.195	1559.12
1615.728	1567.12
1620.256	1540.12
1624.78	1524.12
1629.3	1546.12
1633.816	1541.12
1638.327	1558.12
1642.834	1572.12
1647.336	1561.12
1651.834	1573.12
1656.328	1573.12
1660.817	1580.12
1665.302	1543.12
1669.783	1526.12
1674.259	1512.12
1678.732	1483.12
1683.199	1416.12
1687.663	1401.12
1692.122	1368.12
1696.577	1346.12
1701.028	1313.12
1705.474	1287.12
1709.917	1275.12
1714.355	1253.12
1718.788	1237.12
1723.218	1222.12
1727.643	1208.12
1732.064	1205.12
1736.481	1158.12
1740.893	1167.12
1745.301	1118.12
1749.705	1095.12
1754.105	1083.12
1758.501	1055.12
1762.893	1055.12
1767.28	1002.12
1771.663	1000.12
1776.042	986.12
1780.417	995.12
1784.787	986.12
1789.154	995.12
1793.516	995.12
1797.874	990.12
1802.228	989.12
1806.578	971.12
1810.924	996.12
1815.266	852.12
1819.603	956.12
1823.937	958.12
1828.266	945.12
1832.591	941.12
1836.913	926.12
1841.23	911.12
1845.543	916.12
1849.852	927.12
1854.156	922.12
1858.457	919.12
1862.754	921.12
1867.047	920.12
1871.335	925.12
1875.62	925.12
1879.9	922.12
1884.177	908.12
1888.449	919.12
1892.718	918.12
1896.982	906.12
1901.243	886.12
1905.499	893.12
1909.752	877.12
1914	858.12
1918.245	874.12
1922.485	884.12
1926.722	886.12
1930.954	869.12
1935.183	893.12
1939.408	885.12
1943.628	870.12
1947.845	876.12
1952.058	871.12
1956.267	846.12
1960.472	852.12
1964.673	830.12
1968.87	820.12
1973.063	804.12
1977.252	801.12
1981.438	798.12
1985.619	782.12
1989.797	771.12
1993.971	765.12
1998.14	782.12
2002.306	776.12
2006.469	766.12
2010.627	758.12
2014.781	764.12
2018.932	767.12
2023.078	778.12
2027.221	758.12
2031.36	737.12
2035.495	738.12
2039.627	725.12
2043.754	722.12
2047.878	714.12
2051.998	702.12
2056.114	696.12
2060.226	708.12
2064.334	708.12
2068.439	724.12
2072.54	712.12
2076.637	695.12
2080.73	704.12
2084.82	722.12
2088.906	710.12
2092.988	711.12
2097.066	723.12
2101.14	707.12
2105.211	699.12
2109.278	680.12
2113.342	675.12
2117.401	668.12
2121.457	657.12
2125.509	646.12
2129.558	652.12
2133.602	655.12
2137.643	644.12
2141.681	646.12
2145.714	646.12
2149.744	643.12
2153.77	627.12
2157.793	606.12
2161.812	598.12
2165.827	583.12
2169.838	611.12
2173.846	580.12
2177.851	576.12
2181.851	587.12
2185.848	566.12
2189.841	570.12
2193.831	554.12
2197.817	541.12
2201.799	540.12
2205.778	530.12
2209.753	528.12
2213.725	529.12
2217.693	521.12
2221.657	535.12
2225.618	531.12
2229.575	523.12
2233.529	521.12
2237.479	521.12
2241.425	510.12
2245.368	494.12
2249.307	497.12
2253.243	485.12
2257.175	482.12
2261.104	471.12
2265.029	476.12
2268.95	464.12
2272.868	457.12
2276.783	439.12
2280.694	450.12
2284.601	452.12
2288.505	426.12
2292.405	431.12
2296.302	413.12
2300.195	422.12
2304.085	384.12
2307.971	413.12
2311.854	386.12
2315.734	400.12
2319.609	398.12
2323.482	367.12
2327.351	380.12
2331.216	385.12
2335.078	384.12
2338.937	383.12
2342.792	366.12
2346.643	357.12
2350.492	380.12
2354.336	378.12
2358.178	370.12
2362.015	370.12
2365.85	369.12
2369.681	370.12
2373.508	379.12
2377.333	380.12
2381.153	371.12
2384.971	369.12
2388.785	364.12
2392.595	351.12
2396.402	344.12
2400.206	331.12
2404.007	347.12
2407.804	349.12
2411.597	355.12
2415.388	338.12
2419.174	335.12
2422.958	344.12
2426.738	335.12
2430.515	346.12
2434.289	330.12
2438.059	331.12
2441.825	326.12
2445.589	339.12
2449.349	318.12
2453.106	329.12
2456.859	321.12
2460.61	329.12
2464.356	305.12
2468.1	300.12
2471.84	294.12
2475.577	307.12
2479.311	295.12
2483.041	304.12
2486.768	320.12
2490.492	309.12
2494.213	298.12
2497.93	288.12
2501.644	280.12
2505.355	292.12
2509.062	295.12
2512.766	294.12
2516.467	294.12
2520.165	284.12
2523.859	282.12
2527.551	311.12
2531.239	267.12
2534.923	281.12
2538.605	274.12
2542.283	276.12
2545.958	274.12
2549.63	292.12
2553.299	282.12
2556.964	266.12
2560.626	265.12
2564.285	270.12
2567.941	260.12
2571.594	248.12
2575.243	265.12
2578.89	261.12
2582.533	254.12
2586.173	253.12
2589.809	260.12
2593.443	230.12
2597.073	252.12
2600.701	242.12
2604.325	249.12
2607.946	235.12
2611.564	256.12
2615.178	244.12
2618.79	245.12
2622.398	230.12
2626.004	233.12
2629.606	235.12
2633.205	225.12
2636.801	234.12
2640.394	225.12
2643.983	221.12
2647.57	219.12
2651.153	212.12
2654.734	225.12
2658.311	190.12
2661.885	197.12
2665.456	208.12
2669.025	214.12
2672.589	190.12
2676.151	216.12
2679.71	210.12
2683.266	204.12
2686.819	188.12
2690.368	195.12
2693.915	196.12
2697.458	186.12
2700.999	201.12
2704.536	190.12
2708.071	187.12
2711.602	185.12
2715.13	177.12
2718.656	168.12
2722.178	181.12
2725.697	160.12
2729.214	180.12
2732.727	178.12
2736.237	167.12
2739.744	169.12
2743.249	160.12
2746.75	180.12
2750.248	164.12
2753.743	175.12
2757.236	174.12
2760.725	178.12
2764.211	146.12
2767.695	178.12
2771.175	163.12
2774.652	172.12
2778.127	164.12
2781.598	163.12
2785.067	170.12
2788.532	153.12
2791.995	172.12
2795.455	156.12
2798.911	175.12
2802.365	158.12
2805.816	170.12
2809.264	182.12
2812.709	165.12
2816.151	174.12
2819.59	164.12
2823.026	166.12
2826.46	164.12
2829.89	171.12
2833.318	142.12
2836.742	165.12
2840.164	169.12
2843.583	170.12
2846.999	167.12
2850.412	170.12
2853.822	162.12
2857.229	181.12
2860.634	181.12
2864.035	163.12
2867.434	178.12
2870.83	191.12
2874.223	179.12
2877.613	189.12
2881	183.12
2884.385	188.12
2887.766	186.12
2891.145	191.12
2894.521	191.12
2897.894	184.12
2901.264	193.12
2904.631	197.12
2907.996	194.12
2911.358	201.12
2914.717	199.12
2918.073	189.12
2921.426	190.12
2924.777	181.12
2928.124	201.12
2931.469	221.12
2934.811	198.12
2938.15	222.12
2941.487	218.12
2944.821	236.12
2948.152	217.12
2951.48	225.12
2954.805	213.12
2958.128	225.12
2961.447	219.12
2964.765	237.12
2968.079	211.12
2971.39	228.12
2974.699	227.12
2978.005	232.12
2981.308	228.12
2984.609	225.12
2987.907	239.12
2991.202	243.12
2994.494	227.12
2997.784	243.12
3001.07	243.12
3004.355	243.12
3007.636	247.12
3010.915	248.12
3014.191	247.12
3017.464	249.12
3020.734	252.12
3024.002	254.12
3027.267	256.12
3030.53	259.12
3033.789	260.12
3037.046	270.12
3040.301	261.12
3043.552	274.12
3046.801	283.12
3050.048	293.12
3053.291	312.12
3056.532	300.12
3059.771	292.12
3063.006	331.12
3066.239	319.12
3069.469	339.12
3072.697	339.12
3075.922	331.12
3079.144	345.12
3082.364	366.12
3085.581	353.12
3088.795	385.12
3092.007	386.12
3095.216	388.12
3098.423	399.12
3101.627	379.12
3104.828	418.12
3108.026	417.12
3111.222	440.12
3114.416	454.12
3117.607	450.12
3120.795	461.12
3123.98	466.12
3127.163	465.12
3130.344	475.12
3133.521	484.12
3136.696	527.12
3139.869	521.12
3143.039	500.12
3146.206	539.12
3149.371	548.12
3152.533	540.12
3155.693	528.12
3158.85	550.12
3162.005	557.12
3165.157	557.12
3168.306	553.12
3171.453	575.12
3174.597	555.12
3177.739	537.12
3180.878	562.12
3184.014	567.12
3187.149	576.12
3190.28	567.12
3193.409	586.12
3196.536	577.12
3199.659	597.12
3202.781	582.12
3205.9	566.12
3209.016	585.12
3212.13	571.12
3215.241	568.12
3218.35	566.12
3221.456	549.12
3224.56	549.12
3227.661	548.12
3230.76	543.12
3233.856	539.12
3236.95	537.12
3240.041	535.12
3243.13	529.12
3246.216	533.12
3249.3	533.12
3252.382	530.12
3255.46	513.12
3258.537	470.12
3261.611	516.12
3264.682	519.12
3267.751	516.12
3270.818	504.12
3273.882	523.12
3276.943	508.12
3280.002	508.12
3283.059	499.12
3286.113	496.12
3289.165	479.12
3292.214	479.12
3295.261	490.12
3298.306	454.12
3301.348	465.12
3304.387	450.12
3307.425	461.12
3310.459	447.12
3313.492	457.12
3316.521	445.12
3319.549	446.12
3322.574	441.12
3325.597	429.12
3328.617	416.12
3331.635	419.12
3334.65	413.12
3337.663	426.12
3340.674	417.12
3343.682	417.12
3346.688	427.12
3349.691	415.12
3352.692	414.12
3355.691	419.12
3358.687	411.12
3361.681	417.12
3364.673	404.12
3367.662	410.12
3370.649	398.12
3373.633	393.12
3376.615	396.12
3379.595	368.12
3382.572	381.12
3385.547	369.12
3388.52	363.12
3391.49	353.12
3394.458	356.12
3397.424	362.12
3400.387	343.12
3403.348	353.12
3406.307	347.12
3409.263	336.12
3412.217	347.12
3415.168	340.12
3418.118	347.12
3421.065	327.12
3424.009	344.12
3426.951	321.12
3429.891	319.12
3432.829	315.12
3435.764	309.12
3438.697	298.12
3441.628	305.12
3444.557	280.12
3447.483	279.12
3450.407	290.12
3453.328	268.12
3456.247	257.12
3459.164	247.12
3462.079	257.12
3464.991	252.12
3467.902	233.12
3470.809	231.12
3473.715	235.12
3476.618	215.12
3479.519	215.12
3482.418	192.12
3485.315	200.12
3488.209	196.12
3491.101	190.12
3493.99	175.12
3496.878	178.12
3499.763	175.12
3502.646	180.12
3505.527	155.12
3508.405	153.12
3511.281	141.12
3514.155	159.12
3517.027	147.12
3519.897	130.12
3522.764	139.12
3525.629	109.12
3528.492	122.12
3531.352	120.12
3534.211	116.12
3537.067	104.12
3539.921	101.12
3542.773	109.12
3545.622	83.12
3548.469	78.12
3551.315	79.12
3554.157	82.12
3556.998	68.12
3559.837	69.12
3562.673	76.12
3565.507	62.12
3568.339	55.12
3571.169	55.12
3573.996	58.12
3576.822	39.12
3579.645	42.12
3582.466	47.12
3585.285	53.12
3588.101	48.12
3590.916	37.12
3593.728	41.12
3596.538	33.12
3599.346	38.12
3602.152	30.12
3604.956	33.12
3607.757	32.12
3610.556	12.12
3613.354	28.12
3616.149	27.12
3618.942	22.12
3621.732	25.12
3624.521	21.12
3627.307	6.12
3630.092	6.12
3632.874	27.12
3635.654	15.12
3638.432	7.12
3641.208	6.12
3643.982	4.12
3646.753	9.12
3649.523	-19.88
3652.29	-2.88
3655.055	7.12
3657.818	4.12
3660.579	-2.88
3663.338	-13.88
3666.095	-3.88
3668.849	-25.88
3671.602	2.12
3674.352	-16.88
3677.101	-1.88
3679.847	-1.88
3682.591	-11.88
3685.333	-23.88
3688.073	-8.88
3690.811	-20.88
3693.547	-21.88
3696.281	-21.88
3699.013	-10.88
3701.742	-13.88
3704.47	-25.88
3707.195	-11.88
3709.919	-14.88
3712.64	-19.88
3715.359	-30.88
3718.076	-9.88
3720.792	-19.88
3723.505	-13.88
3726.216	-6.88
3728.925	-25.88
3731.632	-28.88
3734.336	-15.88
3737.039	-18.88
3739.74	-19.88
3742.439	-49.88
3745.136	-15.88
3747.83	-20.88
3750.523	-16.88
3753.213	-89.88
3755.902	-27.88
3758.589	-40.88
3761.273	-28.88
3763.956	-17.88
3766.636	-40.88
3769.315	-15.88
3771.991	-23.88
3774.665	-34.88
3777.338	-29.88
3780.008	-37.88
3782.677	-28.88
3785.343	-43.88
3788.007	-47.88
3790.67	-22.88
3793.33	-40.88
3795.989	-27.88
3798.645	-24.88
3801.299	-41.88
3803.952	-30.88
3806.602	-31.88
3809.251	-19.88
3811.897	-27.88
3814.542	-34.88
3817.184	-33.88
3819.825	-29.88
3822.463	-40.88
3825.1	-34.88
3827.735	-28.88
3830.367	-37.88
3832.998	-19.88
3835.627	-34.88
3838.253	-22.88
3840.878	-34.88
3843.501	-15.88
3846.122	-26.88
3848.741	-24.88
3851.358	-22.88
3853.973	-42.88
3856.586	-18.88
3859.197	-36.88
3861.806	-28.88
3864.414	-39.88
3867.019	-28.88
3869.622	-16.88
3872.224	-12.88
3874.823	-0.88
3877.421	31.12
3880.016	48.12
3882.61	96.12
3885.202	111.12
3887.792	80.12
3890.38	39.12
3892.966	-0.88
3895.55	-23.88
3898.132	-19.88
3900.713	-20.88
3903.291	-28.88
3905.868	-34.88
3908.442	-32.88
3911.015	-28.88
3913.586	-38.88
3916.155	-39.88
3918.722	-40.88
3921.287	-38.88
3923.85	-42.88
3926.411	-40.88
3928.971	-33.88
3931.528	-30.88
3934.084	-38.88
3936.638	-42.88
3939.19	-29.88
3941.74	-27.88
3944.288	-34.88
3946.834	-32.88
3949.378	-23.88
3951.921	-39.88
3954.462	-29.88
3957	-27.88
3959.537	-19.88
3962.072	-30.88
3964.606	-44.88
3967.137	-33.88
3969.667	-38.88
3972.194	-30.88
3974.72	-31.88
3977.244	-55.88
3979.766	-40.88
3982.286	-39.88
3984.805	-28.88
3987.321	-18.88
3989.836	-24.88
3992.349	-35.88
3994.86	-29.88
3997.369	-38.88
3999.877	-31.88
4002.382	-35.88
4004.886	-30.88
4007.388	-29.88
4009.888	-21.88
4012.386	-22.88
4014.883	-26.88
4017.377	-26.88
4019.87	-26.88
4022.361	-37.88
4024.85	-29.88
4027.338	-29.88
4029.823	-34.88
4032.307	-34.88
4034.789	-30.88
4037.269	-26.88
4039.747	-42.88
4042.224	-22.88
4044.699	-36.88
4047.172	-34.88
4049.643	-23.88
4052.112	-55.88
4054.58	-27.88
4057.046	-40.88
4059.51	-31.88
4061.972	-33.88
4064.432	-44.88
4066.891	-15.88
4069.348	-25.88
4071.803	-27.88
4074.256	-35.88
4076.708	-25.88
4079.158	-33.88
4081.606	-14.88
4084.052	-32.88
4086.497	-24.88
4088.939	-32.88
4091.38	-32.88
4093.819	-22.88
4096.257	1.12
4098.693	-5.88
4101.127	-5.88
4103.559	1.12
4105.989	138.12
4108.418	140.12
4110.845	130.12
4113.27	136.12
4115.694	136.12
4118.115	132.12
4120.535	-25.88
4122.954	-27.88
4125.37	-17.88
4127.785	-25.88
4130.198	-16.88
4132.609	-26.88
4135.019	8.12
4137.427	1.12
4139.833	5.12
4142.237	-4.88
