Data from 2018-3-6_conc=4_n=6_RamanShift_05.txt Node
Date: Tue Mar 06 14:08:18 GMT+02:00 2018
User: LAB3
Spectrometer: QEPB0276
Trigger mode: 0
Integration Time (sec): 3.000000E1
Scans to average: 1
Electric dark correction enabled: true
Nonlinearity correction enabled: false
Boxcar width: 0
XAxis mode: Raman Shifts
Number of Pixels in Spectrum: 1044
>>>>>Begin Spectral Data<<<<<
160.701	73.88
166.742	96.88
172.777	142.88
178.805	297.88
184.826	677.88
190.841	1371.88
196.849	2195.88
202.85	2760.88
208.845	2945.88
214.833	2939.88
220.815	2872.88
226.789	2890.88
232.758	2896.88
238.719	2885.88
244.674	2844.88
250.623	2823.88
256.565	2764.88
262.5	2743.88
268.429	2737.88
274.351	2717.88
280.267	2714.88
286.176	2686.88
292.079	2701.88
297.975	2678.88
303.865	2683.88
309.748	2679.88
315.625	2670.88
321.495	2680.88
327.359	2676.88
333.217	2692.88
339.068	2684.88
344.912	2703.88
350.751	2699.88
356.583	2699.88
362.408	2699.88
368.227	2726.88
374.04	2723.88
379.847	2742.88
385.647	2766.88
391.44	2780.88
397.228	2792.88
403.009	2812.88
408.784	2796.88
414.553	2819.88
420.315	2816.88
426.071	2799.88
431.821	2820.88
437.565	2822.88
443.302	2805.88
449.033	2752.88
454.758	2774.88
460.477	2738.88
466.189	2721.88
471.896	2692.88
477.596	2686.88
483.29	2654.88
488.978	2658.88
494.66	2633.88
500.335	2559.88
506.005	2457.88
511.668	2328.88
517.325	2216.88
522.977	2120.88
528.622	2075.88
534.261	2007.88
539.894	1955.88
545.521	1949.88
551.141	1913.88
556.756	1882.88
562.365	1859.88
567.968	1869.88
573.565	1815.88
579.155	1839.88
584.74	1810.88
590.319	1823.88
595.892	1835.88
601.459	1824.88
607.02	1818.88
612.575	1791.88
618.124	1772.88
623.667	1742.88
629.204	1721.88
634.735	1690.88
640.261	1680.88
645.781	1655.88
651.294	1658.88
656.802	1629.88
662.304	1661.88
667.8	1654.88
673.29	1619.88
678.775	1627.88
684.254	1629.88
689.726	1610.88
695.193	1596.88
700.655	1612.88
706.11	1568.88
711.56	1585.88
717.004	1576.88
722.442	1551.88
727.874	1556.88
733.301	1563.88
738.722	1526.88
744.137	1542.88
749.547	1526.88
754.951	1532.88
760.349	1563.88
765.741	1541.88
771.128	1566.88
776.509	1586.88
781.885	1605.88
787.254	1634.88
792.618	1624.88
797.977	1630.88
803.33	1615.88
808.677	1592.88
814.019	1569.88
819.355	1563.88
824.686	1546.88
830.011	1530.88
835.33	1547.88
840.644	1543.88
845.952	1504.88
851.255	1528.88
856.552	1498.88
861.844	1477.88
867.13	1439.88
872.41	1433.88
877.686	1434.88
882.955	1409.88
888.219	1410.88
893.478	1372.88
898.731	1388.88
903.979	1359.88
909.221	1345.88
914.458	1315.88
919.69	1338.88
924.916	1340.88
930.136	1338.88
935.351	1333.88
940.561	1365.88
945.766	1336.88
950.965	1351.88
956.158	1310.88
961.347	1306.88
966.529	1299.88
971.707	1281.88
976.879	1269.88
982.046	1248.88
987.208	1238.88
992.364	1247.88
997.515	1247.88
1002.66	1255.88
1007.801	1249.88
1012.936	1251.88
1018.066	1245.88
1023.19	1286.88
1028.309	1294.88
1033.423	1287.88
1038.532	1291.88
1043.636	1275.88
1048.734	1258.88
1053.827	1237.88
1058.915	1246.88
1063.998	1231.88
1069.075	1220.88
1074.147	1229.88
1079.214	1202.88
1084.276	1241.88
1089.333	1243.88
1094.385	1239.88
1099.431	1219.88
1104.472	1242.88
1109.509	1210.88
1114.54	1195.88
1119.565	1173.88
1124.586	1182.88
1129.602	1140.88
1134.613	1127.88
1139.618	1114.88
1144.619	1127.88
1149.614	1134.88
1154.604	1133.88
1159.589	1129.88
1164.57	1152.88
1169.545	1159.88
1174.515	1147.88
1179.48	1154.88
1184.44	1138.88
1189.395	1151.88
1194.345	1117.88
1199.29	1125.88
1204.23	1104.88
1209.165	1075.88
1214.095	1121.88
1219.021	1118.88
1223.941	1114.88
1228.856	1127.88
1233.766	1136.88
1238.672	1137.88
1243.572	1134.88
1248.467	1123.88
1253.358	1110.88
1258.244	1072.88
1263.124	1089.88
1268	1084.88
1272.871	1033.88
1277.737	1034.88
1282.599	1035.88
1287.455	1021.88
1292.306	1026.88
1297.153	1000.88
1301.995	1020.88
1306.832	1044.88
1311.664	1029.88
1316.491	1023.88
1321.314	1033.88
1326.132	1013.88
1330.945	1013.88
1335.753	988.88
1340.556	978.88
1345.354	972.88
1350.148	938.88
1354.937	937.88
1359.722	923.88
1364.501	915.88
1369.276	915.88
1374.046	932.88
1378.811	912.88
1383.572	912.88
1388.327	908.88
1393.079	907.88
1397.825	887.88
1402.567	883.88
1407.304	879.88
1412.036	881.88
1416.764	878.88
1421.487	861.88
1426.205	869.88
1430.919	862.88
1435.628	867.88
1440.333	873.88
1445.032	877.88
1449.727	884.88
1454.418	895.88
1459.104	893.88
1463.785	864.88
1468.462	874.88
1473.134	855.88
1477.802	844.88
1482.465	799.88
1487.123	820.88
1491.777	799.88
1496.426	791.88
1501.071	808.88
1505.711	804.88
1510.347	816.88
1514.978	813.88
1519.604	802.88
1524.226	827.88
1528.844	810.88
1533.457	805.88
1538.065	804.88
1542.669	796.88
1547.269	801.88
1551.864	795.88
1556.454	772.88
1561.041	777.88
1565.622	798.88
1570.199	793.88
1574.772	804.88
1579.34	822.88
1583.904	818.88
1588.464	816.88
1593.019	840.88
1597.569	809.88
1602.115	810.88
1606.657	808.88
1611.195	827.88
1615.728	824.88
1620.256	799.88
1624.78	779.88
1629.3	798.88
1633.816	806.88
1638.327	795.88
1642.834	815.88
1647.336	804.88
1651.834	814.88
1656.328	803.88
1660.817	807.88
1665.302	786.88
1669.783	784.88
1674.259	772.88
1678.732	766.88
1683.199	723.88
1687.663	703.88
1692.122	709.88
1696.577	689.88
1701.028	687.88
1705.474	650.88
1709.917	645.88
1714.355	644.88
1718.788	644.88
1723.218	614.88
1727.643	611.88
1732.064	618.88
1736.481	593.88
1740.893	596.88
1745.301	582.88
1749.705	542.88
1754.105	555.88
1758.501	538.88
1762.893	548.88
1767.28	511.88
1771.663	522.88
1776.042	513.88
1780.417	513.88
1784.787	527.88
1789.154	516.88
1793.516	521.88
1797.874	515.88
1802.228	507.88
1806.578	490.88
1810.924	499.88
1815.266	399.88
1819.603	512.88
1823.937	483.88
1828.266	487.88
1832.591	486.88
1836.913	478.88
1841.23	475.88
1845.543	463.88
1849.852	481.88
1854.156	476.88
1858.457	471.88
1862.754	465.88
1867.047	483.88
1871.335	498.88
1875.62	474.88
1879.9	477.88
1884.177	469.88
1888.449	470.88
1892.718	462.88
1896.982	470.88
1901.243	452.88
1905.499	452.88
1909.752	451.88
1914	428.88
1918.245	446.88
1922.485	453.88
1926.722	436.88
1930.954	435.88
1935.183	441.88
1939.408	449.88
1943.628	442.88
1947.845	441.88
1952.058	440.88
1956.267	429.88
1960.472	439.88
1964.673	421.88
1968.87	408.88
1973.063	415.88
1977.252	414.88
1981.438	409.88
1985.619	405.88
1989.797	378.88
1993.971	397.88
1998.14	404.88
2002.306	399.88
2006.469	404.88
2010.627	384.88
2014.781	391.88
2018.932	384.88
2023.078	397.88
2027.221	384.88
2031.36	376.88
2035.495	375.88
2039.627	373.88
2043.754	371.88
2047.878	367.88
2051.998	358.88
2056.114	354.88
2060.226	360.88
2064.334	363.88
2068.439	379.88
2072.54	376.88
2076.637	358.88
2080.73	352.88
2084.82	356.88
2088.906	363.88
2092.988	351.88
2097.066	358.88
2101.14	372.88
2105.211	359.88
2109.278	346.88
2113.342	331.88
2117.401	327.88
2121.457	322.88
2125.509	326.88
2129.558	326.88
2133.602	325.88
2137.643	322.88
2141.681	319.88
2145.714	320.88
2149.744	324.88
2153.77	322.88
2157.793	296.88
2161.812	282.88
2165.827	286.88
2169.838	314.88
2173.846	287.88
2177.851	285.88
2181.851	298.88
2185.848	291.88
2189.841	283.88
2193.831	273.88
2197.817	280.88
2201.799	265.88
2205.778	266.88
2209.753	257.88
2213.725	260.88
2217.693	269.88
2221.657	259.88
2225.618	262.88
2229.575	257.88
2233.529	262.88
2237.479	261.88
2241.425	245.88
2245.368	239.88
2249.307	245.88
2253.243	248.88
2257.175	244.88
2261.104	230.88
2265.029	243.88
2268.95	224.88
2272.868	234.88
2276.783	214.88
2280.694	232.88
2284.601	226.88
2288.505	215.88
2292.405	217.88
2296.302	194.88
2300.195	212.88
2304.085	183.88
2307.971	207.88
2311.854	184.88
2315.734	195.88
2319.609	200.88
2323.482	180.88
2327.351	183.88
2331.216	182.88
2335.078	188.88
2338.937	190.88
2342.792	180.88
2346.643	179.88
2350.492	194.88
2354.336	175.88
2358.178	185.88
2362.015	185.88
2365.85	179.88
2369.681	182.88
2373.508	189.88
2377.333	199.88
2381.153	185.88
2384.971	178.88
2388.785	179.88
2392.595	172.88
2396.402	174.88
2400.206	146.88
2404.007	162.88
2407.804	167.88
2411.597	174.88
2415.388	170.88
2419.174	162.88
2422.958	161.88
2426.738	167.88
2430.515	171.88
2434.289	156.88
2438.059	158.88
2441.825	154.88
2445.589	165.88
2449.349	147.88
2453.106	164.88
2456.859	155.88
2460.61	158.88
2464.356	138.88
2468.1	140.88
2471.84	140.88
2475.577	136.88
2479.311	132.88
2483.041	141.88
2486.768	143.88
2490.492	147.88
2494.213	144.88
2497.93	129.88
2501.644	125.88
2505.355	139.88
2509.062	134.88
2512.766	132.88
2516.467	126.88
2520.165	124.88
2523.859	118.88
2527.551	149.88
2531.239	127.88
2534.923	129.88
2538.605	130.88
2542.283	133.88
2545.958	130.88
2549.63	140.88
2553.299	131.88
2556.964	110.88
2560.626	125.88
2564.285	128.88
2567.941	108.88
2571.594	112.88
2575.243	121.88
2578.89	114.88
2582.533	119.88
2586.173	112.88
2589.809	113.88
2593.443	90.88
2597.073	109.88
2600.701	116.88
2604.325	117.88
2607.946	95.88
2611.564	108.88
2615.178	104.88
2618.79	110.88
2622.398	107.88
2626.004	111.88
2629.606	105.88
2633.205	99.88
2636.801	105.88
2640.394	101.88
2643.983	98.88
2647.57	94.88
2651.153	84.88
2654.734	108.88
2658.311	71.88
2661.885	86.88
2665.456	91.88
2669.025	88.88
2672.589	89.88
2676.151	101.88
2679.71	103.88
2683.266	88.88
2686.819	83.88
2690.368	87.88
2693.915	94.88
2697.458	88.88
2700.999	87.88
2704.536	89.88
2708.071	93.88
2711.602	84.88
2715.13	77.88
2718.656	58.88
2722.178	76.88
2725.697	68.88
2729.214	70.88
2732.727	80.88
2736.237	50.88
2739.744	61.88
2743.249	65.88
2746.75	68.88
2750.248	67.88
2753.743	70.88
2757.236	70.88
2760.725	71.88
2764.211	46.88
2767.695	69.88
2771.175	66.88
2774.652	74.88
2778.127	66.88
2781.598	64.88
2785.067	69.88
2788.532	56.88
2791.995	66.88
2795.455	63.88
2798.911	75.88
2802.365	61.88
2805.816	73.88
2809.264	72.88
2812.709	67.88
2816.151	76.88
2819.59	58.88
2823.026	60.88
2826.46	63.88
2829.89	70.88
2833.318	46.88
2836.742	66.88
2840.164	67.88
2843.583	67.88
2846.999	69.88
2850.412	68.88
2853.822	61.88
2857.229	75.88
2860.634	73.88
2864.035	53.88
2867.434	71.88
2870.83	74.88
2874.223	67.88
2877.613	69.88
2881	67.88
2884.385	66.88
2887.766	67.88
2891.145	71.88
2894.521	69.88
2897.894	65.88
2901.264	81.88
2904.631	77.88
2907.996	86.88
2911.358	85.88
2914.717	81.88
2918.073	77.88
2921.426	65.88
2924.777	63.88
2928.124	81.88
2931.469	87.88
2934.811	72.88
2938.15	98.88
2941.487	85.88
2944.821	102.88
2948.152	82.88
2951.48	99.88
2954.805	81.88
2958.128	101.88
2961.447	84.88
2964.765	103.88
2968.079	87.88
2971.39	86.88
2974.699	93.88
2978.005	92.88
2981.308	93.88
2984.609	84.88
2987.907	95.88
2991.202	102.88
2994.494	85.88
2997.784	91.88
3001.07	99.88
3004.355	94.88
3007.636	95.88
3010.915	97.88
3014.191	93.88
3017.464	101.88
3020.734	105.88
3024.002	107.88
3027.267	98.88
3030.53	110.88
3033.789	106.88
3037.046	110.88
3040.301	103.88
3043.552	113.88
3046.801	120.88
3050.048	128.88
3053.291	139.88
3056.532	128.88
3059.771	108.88
3063.006	138.88
3066.239	143.88
3069.469	148.88
3072.697	140.88
3075.922	137.88
3079.144	138.88
3082.364	166.88
3085.581	153.88
3088.795	171.88
3092.007	173.88
3095.216	170.88
3098.423	173.88
3101.627	155.88
3104.828	174.88
3108.026	173.88
3111.222	193.88
3114.416	200.88
3117.607	194.88
3120.795	199.88
3123.98	201.88
3127.163	195.88
3130.344	209.88
3133.521	203.88
3136.696	228.88
3139.869	223.88
3143.039	219.88
3146.206	249.88
3149.371	241.88
3152.533	239.88
3155.693	226.88
3158.85	252.88
3162.005	242.88
3165.157	242.88
3168.306	243.88
3171.453	251.88
3174.597	227.88
3177.739	233.88
3180.878	253.88
3184.014	249.88
3187.149	255.88
3190.28	256.88
3193.409	259.88
3196.536	247.88
3199.659	260.88
3202.781	263.88
3205.9	245.88
3209.016	253.88
3212.13	251.88
3215.241	249.88
3218.35	245.88
3221.456	253.88
3224.56	232.88
3227.661	242.88
3230.76	235.88
3233.856	230.88
3236.95	237.88
3240.041	229.88
3243.13	227.88
3246.216	226.88
3249.3	242.88
3252.382	226.88
3255.46	224.88
3258.537	170.88
3261.611	222.88
3264.682	224.88
3267.751	217.88
3270.818	200.88
3273.882	228.88
3276.943	213.88
3280.002	228.88
3283.059	211.88
3286.113	217.88
3289.165	201.88
3292.214	201.88
3295.261	218.88
3298.306	188.88
3301.348	204.88
3304.387	190.88
3307.425	202.88
3310.459	191.88
3313.492	209.88
3316.521	193.88
3319.549	199.88
3322.574	202.88
3325.597	185.88
3328.617	184.88
3331.635	185.88
3334.65	164.88
3337.663	185.88
3340.674	186.88
3343.682	182.88
3346.688	190.88
3349.691	174.88
3352.692	174.88
3355.691	186.88
3358.687	178.88
3361.681	184.88
3364.673	174.88
3367.662	179.88
3370.649	186.88
3373.633	163.88
3376.615	177.88
3379.595	155.88
3382.572	156.88
3385.547	151.88
3388.52	152.88
3391.49	151.88
3394.458	156.88
3397.424	157.88
3400.387	140.88
3403.348	148.88
3406.307	152.88
3409.263	141.88
3412.217	154.88
3415.168	142.88
3418.118	148.88
3421.065	132.88
3424.009	138.88
3426.951	137.88
3429.891	124.88
3432.829	134.88
3435.764	136.88
3438.697	121.88
3441.628	127.88
3444.557	109.88
3447.483	104.88
3450.407	116.88
3453.328	103.88
3456.247	100.88
3459.164	96.88
3462.079	104.88
3464.991	90.88
3467.902	89.88
3470.809	91.88
3473.715	96.88
3476.618	83.88
3479.519	83.88
3482.418	68.88
3485.315	64.88
3488.209	73.88
3491.101	69.88
3493.99	53.88
3496.878	56.88
3499.763	58.88
3502.646	63.88
3505.527	48.88
3508.405	50.88
3511.281	37.88
3514.155	47.88
3517.027	42.88
3519.897	31.88
3522.764	48.88
3525.629	27.88
3528.492	32.88
3531.352	36.88
3534.211	32.88
3537.067	25.88
3539.921	26.88
3542.773	30.88
3545.622	10.88
3548.469	9.88
3551.315	10.88
3554.157	15.88
3556.998	1.88
3559.837	10.88
3562.673	14.88
3565.507	2.88
3568.339	-4.12
3571.169	-0.12
3573.996	7.88
3576.822	-10.12
3579.645	-9.12
3582.466	-3.12
3585.285	8.88
3588.101	-3.12
3590.916	-7.12
3593.728	1.88
3596.538	-7.12
3599.346	0.88
3602.152	-14.12
3604.956	-5.12
3607.757	-0.12
3610.556	-24.12
3613.354	-4.12
3616.149	-10.12
3618.942	-2.12
3621.732	-6.12
3624.521	-14.12
3627.307	-27.12
3630.092	-20.12
3632.874	-6.12
3635.654	-14.12
3638.432	-24.12
3641.208	-20.12
3643.982	-18.12
3646.753	-8.12
3649.523	-41.12
3652.29	-20.12
3655.055	-15.12
3657.818	-16.12
3660.579	-19.12
3663.338	-36.12
3666.095	-28.12
3668.849	-52.12
3671.602	-19.12
3674.352	-35.12
3677.101	-16.12
3679.847	-19.12
3682.591	-32.12
3685.333	-37.12
3688.073	-25.12
3690.811	-34.12
3693.547	-43.12
3696.281	-42.12
3699.013	-29.12
3701.742	-31.12
3704.47	-42.12
3707.195	-28.12
3709.919	-28.12
3712.64	-33.12
3715.359	-45.12
3718.076	-23.12
3720.792	-31.12
3723.505	-28.12
3726.216	-15.12
3728.925	-35.12
3731.632	-36.12
3734.336	-33.12
3737.039	-31.12
3739.74	-27.12
3742.439	-58.12
3745.136	-28.12
3747.83	-32.12
3750.523	-32.12
3753.213	-92.12
3755.902	-36.12
3758.589	-44.12
3761.273	-36.12
3763.956	-28.12
3766.636	-46.12
3769.315	-23.12
3771.991	-37.12
3774.665	-38.12
3777.338	-31.12
3780.008	-40.12
3782.677	-38.12
3785.343	-50.12
3788.007	-52.12
3790.67	-28.12
3793.33	-45.12
3795.989	-36.12
3798.645	-33.12
3801.299	-52.12
3803.952	-44.12
3806.602	-37.12
3809.251	-29.12
3811.897	-36.12
3814.542	-34.12
3817.184	-37.12
3819.825	-35.12
3822.463	-47.12
3825.1	-40.12
3827.735	-38.12
3830.367	-46.12
3832.998	-22.12
3835.627	-41.12
3838.253	-26.12
3840.878	-34.12
3843.501	-19.12
3846.122	-35.12
3848.741	-28.12
3851.358	-28.12
3853.973	-48.12
3856.586	-25.12
3859.197	-37.12
3861.806	-35.12
3864.414	-50.12
3867.019	-33.12
3869.622	-28.12
3872.224	-28.12
3874.823	-21.12
3877.421	0.88
3880.016	12.88
3882.61	46.88
3885.202	52.88
3887.792	36.88
3890.38	13.88
3892.966	-18.12
3895.55	-39.12
3898.132	-28.12
3900.713	-26.12
3903.291	-39.12
3905.868	-43.12
3908.442	-32.12
3911.015	-35.12
3913.586	-37.12
3916.155	-39.12
3918.722	-41.12
3921.287	-40.12
3923.85	-48.12
3926.411	-40.12
3928.971	-39.12
3931.528	-35.12
3934.084	-41.12
3936.638	-48.12
3939.19	-30.12
3941.74	-33.12
3944.288	-39.12
3946.834	-38.12
3949.378	-28.12
3951.921	-42.12
3954.462	-38.12
3957	-27.12
3959.537	-26.12
3962.072	-42.12
3964.606	-50.12
3967.137	-39.12
3969.667	-38.12
3972.194	-29.12
3974.72	-40.12
3977.244	-62.12
3979.766	-43.12
3982.286	-42.12
3984.805	-32.12
3987.321	-26.12
3989.836	-30.12
3992.349	-37.12
3994.86	-35.12
3997.369	-42.12
3999.877	-35.12
4002.382	-37.12
4004.886	-30.12
4007.388	-34.12
4009.888	-25.12
4012.386	-25.12
4014.883	-32.12
4017.377	-35.12
4019.87	-28.12
4022.361	-41.12
4024.85	-32.12
4027.338	-36.12
4029.823	-38.12
4032.307	-37.12
4034.789	-35.12
4037.269	-31.12
4039.747	-49.12
4042.224	-29.12
4044.699	-40.12
4047.172	-35.12
4049.643	-26.12
4052.112	-59.12
4054.58	-30.12
4057.046	-49.12
4059.51	-37.12
4061.972	-35.12
4064.432	-54.12
4066.891	-20.12
4069.348	-35.12
4071.803	-35.12
4074.256	-40.12
4076.708	-26.12
4079.158	-34.12
4081.606	-24.12
4084.052	-40.12
4086.497	-29.12
4088.939	-31.12
4091.38	-31.12
4093.819	-25.12
4096.257	0.88
4098.693	-1.12
4101.127	-6.12
4103.559	-1.12
4105.989	67.88
4108.418	77.88
4110.845	58.88
4113.27	69.88
4115.694	78.88
4118.115	65.88
4120.535	-32.12
4122.954	-26.12
4125.37	-27.12
4127.785	-32.12
4130.198	-24.12
4132.609	-27.12
4135.019	8.88
4137.427	-1.12
4139.833	1.88
4142.237	-2.12
