Data from 2018-3-6_conc=3_n=10_RamanShift_01.txt Node
Date: Tue Mar 06 13:43:19 GMT+02:00 2018
User: LAB3
Spectrometer: QEPB0276
Trigger mode: 0
Integration Time (sec): 3.000000E1
Scans to average: 1
Electric dark correction enabled: true
Nonlinearity correction enabled: false
Boxcar width: 0
XAxis mode: Raman Shifts
Number of Pixels in Spectrum: 1044
>>>>>Begin Spectral Data<<<<<
160.701	109.62
166.742	139.62
172.777	215.62
178.805	436.62
184.826	982.62
190.841	1995.62
196.849	3170.62
202.85	4031.62
208.845	4367.62
214.833	4376.62
220.815	4320.62
226.789	4377.62
232.758	4385.62
238.719	4364.62
244.674	4363.62
250.623	4360.62
256.565	4346.62
262.5	4300.62
268.429	4285.62
274.351	4276.62
280.267	4265.62
286.176	4308.62
292.079	4295.62
297.975	4291.62
303.865	4307.62
309.748	4311.62
315.625	4322.62
321.495	4351.62
327.359	4337.62
333.217	4365.62
339.068	4381.62
344.912	4420.62
350.751	4418.62
356.583	4468.62
362.408	4467.62
368.227	4514.62
374.04	4505.62
379.847	4534.62
385.647	4579.62
391.44	4583.62
397.228	4585.62
403.009	4622.62
408.784	4652.62
414.553	4657.62
420.315	4700.62
426.071	4687.62
431.821	4712.62
437.565	4673.62
443.302	4663.62
449.033	4631.62
454.758	4632.62
460.477	4570.62
466.189	4540.62
471.896	4531.62
477.596	4501.62
483.29	4447.62
488.978	4457.62
494.66	4352.62
500.335	4279.62
506.005	4115.62
511.668	3911.62
517.325	3698.62
522.977	3530.62
528.622	3429.62
534.261	3376.62
539.894	3295.62
545.521	3241.62
551.141	3186.62
556.756	3151.62
562.365	3119.62
567.968	3105.62
573.565	3076.62
579.155	3070.62
584.74	3044.62
590.319	3057.62
595.892	3056.62
601.459	3030.62
607.02	3023.62
612.575	3002.62
618.124	2977.62
623.667	2918.62
629.204	2892.62
634.735	2860.62
640.261	2828.62
645.781	2788.62
651.294	2789.62
656.802	2786.62
662.304	2787.62
667.8	2780.62
673.29	2727.62
678.775	2758.62
684.254	2737.62
689.726	2711.62
695.193	2696.62
700.655	2696.62
706.11	2695.62
711.56	2665.62
717.004	2660.62
722.442	2625.62
727.874	2621.62
733.301	2628.62
738.722	2584.62
744.137	2609.62
749.547	2609.62
754.951	2606.62
760.349	2617.62
765.741	2630.62
771.128	2635.62
776.509	2678.62
781.885	2724.62
787.254	2744.62
792.618	2737.62
797.977	2766.62
803.33	2729.62
808.677	2703.62
814.019	2697.62
819.355	2654.62
824.686	2633.62
830.011	2600.62
835.33	2616.62
840.644	2586.62
845.952	2542.62
851.255	2567.62
856.552	2555.62
861.844	2521.62
867.13	2476.62
872.41	2453.62
877.686	2451.62
882.955	2420.62
888.219	2381.62
893.478	2345.62
898.731	2340.62
903.979	2309.62
909.221	2267.62
914.458	2279.62
919.69	2257.62
924.916	2271.62
930.136	2284.62
935.351	2260.62
940.561	2263.62
945.766	2252.62
950.965	2268.62
956.158	2219.62
961.347	2205.62
966.529	2177.62
971.707	2161.62
976.879	2120.62
982.046	2114.62
987.208	2088.62
992.364	2112.62
997.515	2114.62
1002.66	2119.62
1007.801	2138.62
1012.936	2145.62
1018.066	2145.62
1023.19	2191.62
1028.309	2196.62
1033.423	2200.62
1038.532	2190.62
1043.636	2171.62
1048.734	2163.62
1053.827	2123.62
1058.915	2103.62
1063.998	2108.62
1069.075	2094.62
1074.147	2100.62
1079.214	2092.62
1084.276	2109.62
1089.333	2097.62
1094.385	2109.62
1099.431	2098.62
1104.472	2113.62
1109.509	2048.62
1114.54	2047.62
1119.565	2017.62
1124.586	1979.62
1129.602	1960.62
1134.613	1950.62
1139.618	1944.62
1144.619	1944.62
1149.614	1950.62
1154.604	1931.62
1159.589	1937.62
1164.57	1990.62
1169.545	1963.62
1174.515	1950.62
1179.48	1973.62
1184.44	1939.62
1189.395	1949.62
1194.345	1928.62
1199.29	1910.62
1204.23	1890.62
1209.165	1863.62
1214.095	1917.62
1219.021	1927.62
1223.941	1917.62
1228.856	1941.62
1233.766	1922.62
1238.672	1917.62
1243.572	1925.62
1248.467	1909.62
1253.358	1881.62
1258.244	1857.62
1263.124	1849.62
1268	1813.62
1272.871	1776.62
1277.737	1776.62
1282.599	1749.62
1287.455	1735.62
1292.306	1773.62
1297.153	1758.62
1301.995	1754.62
1306.832	1768.62
1311.664	1772.62
1316.491	1770.62
1321.314	1773.62
1326.132	1737.62
1330.945	1746.62
1335.753	1684.62
1340.556	1671.62
1345.354	1654.62
1350.148	1633.62
1354.937	1627.62
1359.722	1573.62
1364.501	1583.62
1369.276	1583.62
1374.046	1576.62
1378.811	1571.62
1383.572	1598.62
1388.327	1576.62
1393.079	1559.62
1397.825	1536.62
1402.567	1517.62
1407.304	1531.62
1412.036	1491.62
1416.764	1504.62
1421.487	1493.62
1426.205	1501.62
1430.919	1501.62
1435.628	1524.62
1440.333	1505.62
1445.032	1522.62
1449.727	1532.62
1454.418	1562.62
1459.104	1536.62
1463.785	1520.62
1468.462	1510.62
1473.134	1489.62
1477.802	1460.62
1482.465	1408.62
1487.123	1421.62
1491.777	1394.62
1496.426	1395.62
1501.071	1404.62
1505.711	1417.62
1510.347	1422.62
1514.978	1428.62
1519.604	1430.62
1524.226	1439.62
1528.844	1418.62
1533.457	1429.62
1538.065	1404.62
1542.669	1400.62
1547.269	1396.62
1551.864	1375.62
1556.454	1364.62
1561.041	1353.62
1565.622	1361.62
1570.199	1385.62
1574.772	1400.62
1579.34	1408.62
1583.904	1421.62
1588.464	1433.62
1593.019	1438.62
1597.569	1407.62
1602.115	1414.62
1606.657	1408.62
1611.195	1418.62
1615.728	1419.62
1620.256	1389.62
1624.78	1360.62
1629.3	1373.62
1633.816	1405.62
1638.327	1422.62
1642.834	1509.62
1647.336	1410.62
1651.834	1443.62
1656.328	1422.62
1660.817	1421.62
1665.302	1392.62
1669.783	1378.62
1674.259	1348.62
1678.732	1336.62
1683.199	1298.62
1687.663	1266.62
1692.122	1249.62
1696.577	1241.62
1701.028	1201.62
1705.474	1201.62
1709.917	1160.62
1714.355	1149.62
1718.788	1137.62
1723.218	1098.62
1727.643	1113.62
1732.064	1089.62
1736.481	1068.62
1740.893	1076.62
1745.301	1052.62
1749.705	992.62
1754.105	999.62
1758.501	969.62
1762.893	971.62
1767.28	936.62
1771.663	948.62
1776.042	934.62
1780.417	923.62
1784.787	936.62
1789.154	932.62
1793.516	934.62
1797.874	936.62
1802.228	931.62
1806.578	921.62
1810.924	925.62
1815.266	806.62
1819.603	915.62
1823.937	879.62
1828.266	883.62
1832.591	885.62
1836.913	852.62
1841.23	856.62
1845.543	855.62
1849.852	864.62
1854.156	857.62
1858.457	850.62
1862.754	864.62
1867.047	854.62
1871.335	861.62
1875.62	874.62
1879.9	859.62
1884.177	850.62
1888.449	849.62
1892.718	860.62
1896.982	857.62
1901.243	837.62
1905.499	833.62
1909.752	826.62
1914	812.62
1918.245	834.62
1922.485	830.62
1926.722	821.62
1930.954	830.62
1935.183	840.62
1939.408	850.62
1943.628	828.62
1947.845	834.62
1952.058	911.62
1956.267	1035.62
1960.472	842.62
1964.673	788.62
1968.87	762.62
1973.063	763.62
1977.252	765.62
1981.438	750.62
1985.619	735.62
1989.797	724.62
1993.971	720.62
1998.14	730.62
2002.306	727.62
2006.469	723.62
2010.627	706.62
2014.781	704.62
2018.932	702.62
2023.078	724.62
2027.221	713.62
2031.36	679.62
2035.495	688.62
2039.627	675.62
2043.754	672.62
2047.878	657.62
2051.998	657.62
2056.114	651.62
2060.226	666.62
2064.334	673.62
2068.439	670.62
2072.54	659.62
2076.637	646.62
2080.73	675.62
2084.82	665.62
2088.906	642.62
2092.988	657.62
2097.066	665.62
2101.14	666.62
2105.211	655.62
2109.278	638.62
2113.342	634.62
2117.401	624.62
2121.457	619.62
2125.509	610.62
2129.558	621.62
2133.602	605.62
2137.643	602.62
2141.681	599.62
2145.714	594.62
2149.744	603.62
2153.77	584.62
2157.793	580.62
2161.812	535.62
2165.827	535.62
2169.838	551.62
2173.846	541.62
2177.851	528.62
2181.851	535.62
2185.848	531.62
2189.841	511.62
2193.831	516.62
2197.817	506.62
2201.799	501.62
2205.778	500.62
2209.753	496.62
2213.725	484.62
2217.693	491.62
2221.657	485.62
2225.618	496.62
2229.575	485.62
2233.529	491.62
2237.479	491.62
2241.425	462.62
2245.368	460.62
2249.307	467.62
2253.243	449.62
2257.175	443.62
2261.104	435.62
2265.029	439.62
2268.95	427.62
2272.868	416.62
2276.783	410.62
2280.694	420.62
2284.601	410.62
2288.505	407.62
2292.405	398.62
2296.302	376.62
2300.195	381.62
2304.085	360.62
2307.971	384.62
2311.854	359.62
2315.734	368.62
2319.609	360.62
2323.482	335.62
2327.351	337.62
2331.216	350.62
2335.078	357.62
2338.937	348.62
2342.792	337.62
2346.643	341.62
2350.492	350.62
2354.336	335.62
2358.178	354.62
2362.015	342.62
2365.85	328.62
2369.681	337.62
2373.508	339.62
2377.333	348.62
2381.153	339.62
2384.971	330.62
2388.785	349.62
2392.595	325.62
2396.402	317.62
2400.206	295.62
2404.007	316.62
2407.804	319.62
2411.597	318.62
2415.388	316.62
2419.174	311.62
2422.958	308.62
2426.738	307.62
2430.515	318.62
2434.289	303.62
2438.059	296.62
2441.825	304.62
2445.589	319.62
2449.349	284.62
2453.106	297.62
2456.859	292.62
2460.61	298.62
2464.356	283.62
2468.1	266.62
2471.84	274.62
2475.577	277.62
2479.311	274.62
2483.041	273.62
2486.768	283.62
2490.492	289.62
2494.213	270.62
2497.93	269.62
2501.644	256.62
2505.355	268.62
2509.062	271.62
2512.766	266.62
2516.467	266.62
2520.165	256.62
2523.859	253.62
2527.551	284.62
2531.239	257.62
2534.923	257.62
2538.605	256.62
2542.283	260.62
2545.958	259.62
2549.63	263.62
2553.299	263.62
2556.964	251.62
2560.626	250.62
2564.285	253.62
2567.941	236.62
2571.594	232.62
2575.243	254.62
2578.89	238.62
2582.533	244.62
2586.173	239.62
2589.809	237.62
2593.443	210.62
2597.073	228.62
2600.701	227.62
2604.325	231.62
2607.946	216.62
2611.564	228.62
2615.178	228.62
2618.79	221.62
2622.398	210.62
2626.004	221.62
2629.606	220.62
2633.205	209.62
2636.801	216.62
2640.394	212.62
2643.983	206.62
2647.57	195.62
2651.153	202.62
2654.734	200.62
2658.311	176.62
2661.885	189.62
2665.456	190.62
2669.025	189.62
2672.589	183.62
2676.151	196.62
2679.71	198.62
2683.266	188.62
2686.819	181.62
2690.368	182.62
2693.915	180.62
2697.458	183.62
2700.999	183.62
2704.536	181.62
2708.071	171.62
2711.602	173.62
2715.13	172.62
2718.656	151.62
2722.178	165.62
2725.697	155.62
2729.214	163.62
2732.727	165.62
2736.237	145.62
2739.744	164.62
2743.249	160.62
2746.75	162.62
2750.248	160.62
2753.743	162.62
2757.236	157.62
2760.725	166.62
2764.211	132.62
2767.695	159.62
2771.175	155.62
2774.652	158.62
2778.127	155.62
2781.598	153.62
2785.067	162.62
2788.532	144.62
2791.995	150.62
2795.455	147.62
2798.911	164.62
2802.365	145.62
2805.816	156.62
2809.264	170.62
2812.709	150.62
2816.151	158.62
2819.59	148.62
2823.026	149.62
2826.46	148.62
2829.89	160.62
2833.318	133.62
2836.742	152.62
2840.164	160.62
2843.583	149.62
2846.999	151.62
2850.412	165.62
2853.822	153.62
2857.229	165.62
2860.634	160.62
2864.035	145.62
2867.434	173.62
2870.83	170.62
2874.223	163.62
2877.613	159.62
2881	160.62
2884.385	166.62
2887.766	175.62
2891.145	163.62
2894.521	163.62
2897.894	160.62
2901.264	172.62
2904.631	171.62
2907.996	179.62
2911.358	178.62
2914.717	179.62
2918.073	176.62
2921.426	165.62
2924.777	159.62
2928.124	177.62
2931.469	192.62
2934.811	174.62
2938.15	202.62
2941.487	186.62
2944.821	212.62
2948.152	188.62
2951.48	207.62
2954.805	184.62
2958.128	202.62
2961.447	183.62
2964.765	213.62
2968.079	202.62
2971.39	196.62
2974.699	193.62
2978.005	200.62
2981.308	204.62
2984.609	190.62
2987.907	207.62
2991.202	212.62
2994.494	206.62
2997.784	208.62
3001.07	207.62
3004.355	211.62
3007.636	209.62
3010.915	215.62
3014.191	210.62
3017.464	218.62
3020.734	220.62
3024.002	217.62
3027.267	219.62
3030.53	221.62
3033.789	221.62
3037.046	225.62
3040.301	224.62
3043.552	240.62
3046.801	244.62
3050.048	252.62
3053.291	275.62
3056.532	259.62
3059.771	254.62
3063.006	265.62
3066.239	271.62
3069.469	281.62
3072.697	290.62
3075.922	290.62
3079.144	287.62
3082.364	311.62
3085.581	301.62
3088.795	330.62
3092.007	322.62
3095.216	333.62
3098.423	331.62
3101.627	314.62
3104.828	354.62
3108.026	343.62
3111.222	370.62
3114.416	385.62
3117.607	373.62
3120.795	378.62
3123.98	384.62
3127.163	382.62
3130.344	405.62
3133.521	407.62
3136.696	425.62
3139.869	424.62
3143.039	422.62
3146.206	472.62
3149.371	449.62
3152.533	448.62
3155.693	445.62
3158.85	462.62
3162.005	463.62
3165.157	453.62
3168.306	462.62
3171.453	467.62
3174.597	454.62
3177.739	453.62
3180.878	466.62
3184.014	469.62
3187.149	468.62
3190.28	470.62
3193.409	466.62
3196.536	481.62
3199.659	485.62
3202.781	471.62
3205.9	472.62
3209.016	480.62
3212.13	479.62
3215.241	472.62
3218.35	462.62
3221.456	466.62
3224.56	451.62
3227.661	456.62
3230.76	445.62
3233.856	436.62
3236.95	442.62
3240.041	434.62
3243.13	444.62
3246.216	440.62
3249.3	455.62
3252.382	445.62
3255.46	427.62
3258.537	375.62
3261.611	431.62
3264.682	437.62
3267.751	427.62
3270.818	409.62
3273.882	433.62
3276.943	428.62
3280.002	432.62
3283.059	405.62
3286.113	413.62
3289.165	392.62
3292.214	392.62
3295.261	399.62
3298.306	381.62
3301.348	385.62
3304.387	372.62
3307.425	374.62
3310.459	367.62
3313.492	372.62
3316.521	361.62
3319.549	368.62
3322.574	355.62
3325.597	357.62
3328.617	352.62
3331.635	351.62
3334.65	335.62
3337.663	353.62
3340.674	345.62
3343.682	355.62
3346.688	360.62
3349.691	342.62
3352.692	345.62
3355.691	347.62
3358.687	342.62
3361.681	354.62
3364.673	329.62
3367.662	335.62
3370.649	342.62
3373.633	329.62
3376.615	325.62
3379.595	309.62
3382.572	306.62
3385.547	304.62
3388.52	294.62
3391.49	297.62
3394.458	302.62
3397.424	301.62
3400.387	284.62
3403.348	290.62
3406.307	283.62
3409.263	279.62
3412.217	281.62
3415.168	277.62
3418.118	288.62
3421.065	264.62
3424.009	288.62
3426.951	269.62
3429.891	263.62
3432.829	259.62
3435.764	260.62
3438.697	244.62
3441.628	255.62
3444.557	234.62
3447.483	222.62
3450.407	237.62
3453.328	220.62
3456.247	217.62
3459.164	206.62
3462.079	221.62
3464.991	208.62
3467.902	194.62
3470.809	191.62
3473.715	191.62
3476.618	171.62
3479.519	175.62
3482.418	154.62
3485.315	154.62
3488.209	156.62
3491.101	160.62
3493.99	131.62
3496.878	140.62
3499.763	143.62
3502.646	138.62
3505.527	127.62
3508.405	125.62
3511.281	112.62
3514.155	124.62
3517.027	107.62
3519.897	99.62
3522.764	112.62
3525.629	87.62
3528.492	97.62
3531.352	97.62
3534.211	82.62
3537.067	82.62
3539.921	83.62
3542.773	92.62
3545.622	71.62
3548.469	60.62
3551.315	55.62
3554.157	60.62
3556.998	53.62
3559.837	58.62
3562.673	59.62
3565.507	45.62
3568.339	39.62
3571.169	46.62
3573.996	43.62
3576.822	22.62
3579.645	36.62
3582.466	33.62
3585.285	38.62
3588.101	28.62
3590.916	28.62
3593.728	35.62
3596.538	26.62
3599.346	23.62
3602.152	14.62
3604.956	23.62
3607.757	24.62
3610.556	4.62
3613.354	21.62
3616.149	7.62
3618.942	15.62
3621.732	15.62
3624.521	8.62
3627.307	-1.38
3630.092	0.62
3632.874	15.62
3635.654	4.62
3638.432	-3.38
3641.208	0.62
3643.982	3.62
3646.753	5.62
3649.523	-24.38
3652.29	-6.38
3655.055	0.62
3657.818	-4.38
3660.579	-7.38
3663.338	-15.38
3666.095	-12.38
3668.849	-31.38
3671.602	-5.38
3674.352	-21.38
3677.101	-6.38
3679.847	-7.38
3682.591	-19.38
3685.333	-24.38
3688.073	-10.38
3690.811	-21.38
3693.547	-28.38
3696.281	-28.38
3699.013	-14.38
3701.742	-19.38
3704.47	-25.38
3707.195	-17.38
3709.919	-19.38
3712.64	-21.38
3715.359	-38.38
3718.076	-11.38
3720.792	-22.38
3723.505	-14.38
3726.216	-11.38
3728.925	-27.38
3731.632	-30.38
3734.336	-24.38
3737.039	-28.38
3739.74	-22.38
3742.439	-51.38
3745.136	-17.38
3747.83	-20.38
3750.523	-20.38
3753.213	-82.38
3755.902	-28.38
3758.589	-41.38
3761.273	-32.38
3763.956	-19.38
3766.636	-40.38
3769.315	-18.38
3771.991	-30.38
3774.665	-32.38
3777.338	-29.38
3780.008	-33.38
3782.677	-28.38
3785.343	-43.38
3788.007	-50.38
3790.67	-25.38
3793.33	-43.38
3795.989	-36.38
3798.645	-24.38
3801.299	-42.38
3803.952	-39.38
3806.602	-33.38
3809.251	-19.38
3811.897	-33.38
3814.542	-31.38
3817.184	-35.38
3819.825	-25.38
3822.463	-40.38
3825.1	-29.38
3827.735	-28.38
3830.367	-42.38
3832.998	-20.38
3835.627	-32.38
3838.253	-23.38
3840.878	-34.38
3843.501	-15.38
3846.122	-24.38
3848.741	-25.38
3851.358	-23.38
3853.973	-40.38
3856.586	-23.38
3859.197	-37.38
3861.806	-30.38
3864.414	-48.38
3867.019	-31.38
3869.622	-26.38
3872.224	-20.38
3874.823	-10.38
3877.421	19.62
3880.016	29.62
3882.61	65.62
3885.202	77.62
3887.792	56.62
3890.38	16.62
3892.966	-12.38
3895.55	-28.38
3898.132	-18.38
3900.713	-23.38
3903.291	-27.38
3905.868	-37.38
3908.442	-32.38
3911.015	-29.38
3913.586	-34.38
3916.155	-32.38
3918.722	-39.38
3921.287	-35.38
3923.85	-45.38
3926.411	-35.38
3928.971	-38.38
3931.528	-30.38
3934.084	-33.38
3936.638	-44.38
3939.19	-33.38
3941.74	-29.38
3944.288	-34.38
3946.834	-32.38
3949.378	-23.38
3951.921	-33.38
3954.462	-36.38
3957	-29.38
3959.537	-22.38
3962.072	-29.38
3964.606	-47.38
3967.137	-34.38
3969.667	-34.38
3972.194	-25.38
3974.72	-36.38
3977.244	-55.38
3979.766	-40.38
3982.286	-38.38
3984.805	-27.38
3987.321	-22.38
3989.836	-27.38
3992.349	-39.38
3994.86	-30.38
3997.369	-35.38
3999.877	-35.38
4002.382	-33.38
4004.886	-25.38
4007.388	-28.38
4009.888	-14.38
4012.386	-27.38
4014.883	-28.38
4017.377	-28.38
4019.87	-26.38
4022.361	-36.38
4024.85	-26.38
4027.338	-27.38
4029.823	-35.38
4032.307	-33.38
4034.789	-28.38
4037.269	-31.38
4039.747	-45.38
4042.224	-22.38
4044.699	-33.38
4047.172	-29.38
4049.643	-21.38
4052.112	-51.38
4054.58	-21.38
4057.046	-39.38
4059.51	-26.38
4061.972	-27.38
4064.432	-47.38
4066.891	-20.38
4069.348	-32.38
4071.803	-31.38
4074.256	-31.38
4076.708	-25.38
4079.158	-30.38
4081.606	-18.38
4084.052	-32.38
4086.497	-20.38
4088.939	-29.38
4091.38	-34.38
4093.819	-23.38
4096.257	0.62
4098.693	-8.38
4101.127	-5.38
4103.559	-1.38
4105.989	95.62
4108.418	101.62
4110.845	89.62
4113.27	95.62
4115.694	103.62
4118.115	94.62
4120.535	-25.38
4122.954	-21.38
4125.37	-17.38
4127.785	-23.38
4130.198	-20.38
4132.609	-26.38
4135.019	7.62
4137.427	3.62
4139.833	5.62
4142.237	-2.38
