Data from 2018-3-6_conc=0_n=5_RamanShift_04.txt Node
Date: Tue Mar 06 12:22:19 GMT+02:00 2018
User: LAB3
Spectrometer: QEPB0276
Trigger mode: 0
Integration Time (sec): 3.000000E1
Scans to average: 1
Electric dark correction enabled: true
Nonlinearity correction enabled: false
Boxcar width: 0
XAxis mode: Raman Shifts
Number of Pixels in Spectrum: 1044
>>>>>Begin Spectral Data<<<<<
160.701	93.5
166.742	126.5
172.777	216.5
178.805	479.5
184.826	1135.5
190.841	2342.5
196.849	3764.5
202.85	4892.5
208.845	5336.5
214.833	5403.5
220.815	5368.5
226.789	5449.5
232.758	5546.5
238.719	5593.5
244.674	5608.5
250.623	5594.5
256.565	5582.5
262.5	5616.5
268.429	5609.5
274.351	5604.5
280.267	5643.5
286.176	5665.5
292.079	5710.5
297.975	5720.5
303.865	5734.5
309.748	5786.5
315.625	5762.5
321.495	5778.5
327.359	5771.5
333.217	5822.5
339.068	5859.5
344.912	5884.5
350.751	5889.5
356.583	5923.5
362.408	5948.5
368.227	5945.5
374.04	5994.5
379.847	5969.5
385.647	6014.5
391.44	6020.5
397.228	6049.5
403.009	6093.5
408.784	6127.5
414.553	6112.5
420.315	6159.5
426.071	6140.5
431.821	6149.5
437.565	6176.5
443.302	6151.5
449.033	6104.5
454.758	6106.5
460.477	6074.5
466.189	6047.5
471.896	5965.5
477.596	5960.5
483.29	5933.5
488.978	5878.5
494.66	5882.5
500.335	5755.5
506.005	5600.5
511.668	5431.5
517.325	5230.5
522.977	5075.5
528.622	5003.5
534.261	4931.5
539.894	4814.5
545.521	4781.5
551.141	4748.5
556.756	4718.5
562.365	4709.5
567.968	4667.5
573.565	4640.5
579.155	4651.5
584.74	4594.5
590.319	4617.5
595.892	4607.5
601.459	4604.5
607.02	4587.5
612.575	4543.5
618.124	4505.5
623.667	4432.5
629.204	4404.5
634.735	4387.5
640.261	4328.5
645.781	4279.5
651.294	4286.5
656.802	4281.5
662.304	4286.5
667.8	4274.5
673.29	4228.5
678.775	4230.5
684.254	4238.5
689.726	4187.5
695.193	4203.5
700.655	4188.5
706.11	4161.5
711.56	4158.5
717.004	4122.5
722.442	4098.5
727.874	4061.5
733.301	4115.5
738.722	4076.5
744.137	4041.5
749.547	4045.5
754.951	4028.5
760.349	4084.5
765.741	4088.5
771.128	4109.5
776.509	4144.5
781.885	4167.5
787.254	4216.5
792.618	4200.5
797.977	4230.5
803.33	4188.5
808.677	4143.5
814.019	4122.5
819.355	4094.5
824.686	4059.5
830.011	4052.5
835.33	4058.5
840.644	4051.5
845.952	4033.5
851.255	4008.5
856.552	4006.5
861.844	3989.5
867.13	3972.5
872.41	3958.5
877.686	3984.5
882.955	3991.5
888.219	3968.5
893.478	3858.5
898.731	3768.5
903.979	3731.5
909.221	3686.5
914.458	3661.5
919.69	3657.5
924.916	3659.5
930.136	3658.5
935.351	3635.5
940.561	3644.5
945.766	3673.5
950.965	3640.5
956.158	3602.5
961.347	3590.5
966.529	3529.5
971.707	3542.5
976.879	3457.5
982.046	3444.5
987.208	3386.5
992.364	3439.5
997.515	3430.5
1002.66	3458.5
1007.801	3512.5
1012.936	3500.5
1018.066	3505.5
1023.19	3547.5
1028.309	3571.5
1033.423	3579.5
1038.532	3564.5
1043.636	3585.5
1048.734	3558.5
1053.827	3533.5
1058.915	3472.5
1063.998	3455.5
1069.075	3414.5
1074.147	3433.5
1079.214	3416.5
1084.276	3461.5
1089.333	3471.5
1094.385	3484.5
1099.431	3488.5
1104.472	3462.5
1109.509	3410.5
1114.54	3376.5
1119.565	3314.5
1124.586	3280.5
1129.602	3231.5
1134.613	3216.5
1139.618	3206.5
1144.619	3209.5
1149.614	3211.5
1154.604	3191.5
1159.589	3213.5
1164.57	3253.5
1169.545	3271.5
1174.515	3249.5
1179.48	3266.5
1184.44	3234.5
1189.395	3227.5
1194.345	3191.5
1199.29	3149.5
1204.23	3143.5
1209.165	3141.5
1214.095	3189.5
1219.021	3167.5
1223.941	3196.5
1228.856	3221.5
1233.766	3217.5
1238.672	3225.5
1243.572	3244.5
1248.467	3228.5
1253.358	3168.5
1258.244	3129.5
1263.124	3111.5
1268	3041.5
1272.871	2983.5
1277.737	2992.5
1282.599	2991.5
1287.455	2966.5
1292.306	2964.5
1297.153	2962.5
1301.995	2968.5
1306.832	3007.5
1311.664	3015.5
1316.491	3003.5
1321.314	3012.5
1326.132	2956.5
1330.945	2922.5
1335.753	2885.5
1340.556	2826.5
1345.354	2776.5
1350.148	2738.5
1354.937	2672.5
1359.722	2645.5
1364.501	2633.5
1369.276	2626.5
1374.046	2646.5
1378.811	2588.5
1383.572	2603.5
1388.327	2610.5
1393.079	2609.5
1397.825	2587.5
1402.567	2599.5
1407.304	2563.5
1412.036	2545.5
1416.764	2557.5
1421.487	2533.5
1426.205	2538.5
1430.919	2588.5
1435.628	2574.5
1440.333	2603.5
1445.032	2640.5
1449.727	2656.5
1454.418	2704.5
1459.104	2709.5
1463.785	2647.5
1468.462	2602.5
1473.134	2551.5
1477.802	2484.5
1482.465	2422.5
1487.123	2439.5
1491.777	2398.5
1496.426	2360.5
1501.071	2417.5
1505.711	2369.5
1510.347	2383.5
1514.978	2396.5
1519.604	2380.5
1524.226	2398.5
1528.844	2361.5
1533.457	2335.5
1538.065	2324.5
1542.669	2314.5
1547.269	2298.5
1551.864	2300.5
1556.454	2281.5
1561.041	2292.5
1565.622	2264.5
1570.199	2305.5
1574.772	2301.5
1579.34	2328.5
1583.904	2333.5
1588.464	2364.5
1593.019	2376.5
1597.569	2364.5
1602.115	2341.5
1606.657	2304.5
1611.195	2323.5
1615.728	2298.5
1620.256	2276.5
1624.78	2240.5
1629.3	2224.5
1633.816	2239.5
1638.327	2229.5
1642.834	2246.5
1647.336	2264.5
1651.834	2285.5
1656.328	2282.5
1660.817	2293.5
1665.302	2250.5
1669.783	2232.5
1674.259	2205.5
1678.732	2158.5
1683.199	2121.5
1687.663	2056.5
1692.122	2015.5
1696.577	1961.5
1701.028	1936.5
1705.474	1893.5
1709.917	1884.5
1714.355	1853.5
1718.788	1848.5
1723.218	1845.5
1727.643	1853.5
1732.064	1839.5
1736.481	1789.5
1740.893	1783.5
1745.301	1739.5
1749.705	1719.5
1754.105	1702.5
1758.501	1644.5
1762.893	1651.5
1767.28	1593.5
1771.663	1589.5
1776.042	1573.5
1780.417	1554.5
1784.787	1547.5
1789.154	1551.5
1793.516	1533.5
1797.874	1532.5
1802.228	1520.5
1806.578	1511.5
1810.924	1527.5
1815.266	1402.5
1819.603	1475.5
1823.937	1476.5
1828.266	1466.5
1832.591	1465.5
1836.913	1444.5
1841.23	1444.5
1845.543	1441.5
1849.852	1459.5
1854.156	1455.5
1858.457	1461.5
1862.754	1458.5
1867.047	1458.5
1871.335	1461.5
1875.62	1457.5
1879.9	1474.5
1884.177	1442.5
1888.449	1437.5
1892.718	1423.5
1896.982	1420.5
1901.243	1404.5
1905.499	1400.5
1909.752	1388.5
1914	1358.5
1918.245	1383.5
1922.485	1382.5
1926.722	1383.5
1930.954	1366.5
1935.183	1382.5
1939.408	1382.5
1943.628	1368.5
1947.845	1349.5
1952.058	1353.5
1956.267	1315.5
1960.472	1314.5
1964.673	1279.5
1968.87	1281.5
1973.063	1251.5
1977.252	1232.5
1981.438	1215.5
1985.619	1201.5
1989.797	1183.5
1993.971	1188.5
1998.14	1206.5
2002.306	1189.5
2006.469	1179.5
2010.627	1179.5
2014.781	1185.5
2018.932	1160.5
2023.078	1191.5
2027.221	1156.5
2031.36	1135.5
2035.495	1125.5
2039.627	1121.5
2043.754	1108.5
2047.878	1098.5
2051.998	1076.5
2056.114	1092.5
2060.226	1075.5
2064.334	1092.5
2068.439	1092.5
2072.54	1098.5
2076.637	1082.5
2080.73	1087.5
2084.82	1095.5
2088.906	1080.5
2092.988	1090.5
2097.066	1076.5
2101.14	1066.5
2105.211	1055.5
2109.278	1046.5
2113.342	1028.5
2117.401	1010.5
2121.457	996.5
2125.509	989.5
2129.558	1002.5
2133.602	994.5
2137.643	979.5
2141.681	977.5
2145.714	967.5
2149.744	959.5
2153.77	953.5
2157.793	949.5
2161.812	927.5
2165.827	921.5
2169.838	927.5
2173.846	899.5
2177.851	879.5
2181.851	891.5
2185.848	858.5
2189.841	876.5
2193.831	849.5
2197.817	862.5
2201.799	844.5
2205.778	836.5
2209.753	827.5
2213.725	830.5
2217.693	845.5
2221.657	829.5
2225.618	829.5
2229.575	828.5
2233.529	820.5
2237.479	818.5
2241.425	803.5
2245.368	779.5
2249.307	795.5
2253.243	767.5
2257.175	772.5
2261.104	741.5
2265.029	752.5
2268.95	733.5
2272.868	728.5
2276.783	714.5
2280.694	704.5
2284.601	710.5
2288.505	694.5
2292.405	697.5
2296.302	668.5
2300.195	671.5
2304.085	640.5
2307.971	671.5
2311.854	636.5
2315.734	642.5
2319.609	639.5
2323.482	611.5
2327.351	614.5
2331.216	618.5
2335.078	619.5
2338.937	618.5
2342.792	602.5
2346.643	606.5
2350.492	605.5
2354.336	617.5
2358.178	621.5
2362.015	614.5
2365.85	612.5
2369.681	616.5
2373.508	621.5
2377.333	631.5
2381.153	643.5
2384.971	619.5
2388.785	606.5
2392.595	607.5
2396.402	612.5
2400.206	576.5
2404.007	597.5
2407.804	597.5
2411.597	596.5
2415.388	585.5
2419.174	584.5
2422.958	592.5
2426.738	571.5
2430.515	594.5
2434.289	575.5
2438.059	567.5
2441.825	558.5
2445.589	571.5
2449.349	538.5
2453.106	553.5
2456.859	549.5
2460.61	546.5
2464.356	537.5
2468.1	526.5
2471.84	529.5
2475.577	530.5
2479.311	526.5
2483.041	516.5
2486.768	537.5
2490.492	534.5
2494.213	525.5
2497.93	509.5
2501.644	506.5
2505.355	513.5
2509.062	508.5
2512.766	510.5
2516.467	493.5
2520.165	490.5
2523.859	479.5
2527.551	517.5
2531.239	489.5
2534.923	485.5
2538.605	482.5
2542.283	486.5
2545.958	481.5
2549.63	489.5
2553.299	477.5
2556.964	464.5
2560.626	460.5
2564.285	477.5
2567.941	452.5
2571.594	448.5
2575.243	465.5
2578.89	440.5
2582.533	443.5
2586.173	442.5
2589.809	445.5
2593.443	415.5
2597.073	429.5
2600.701	423.5
2604.325	422.5
2607.946	412.5
2611.564	417.5
2615.178	420.5
2618.79	406.5
2622.398	401.5
2626.004	416.5
2629.606	413.5
2633.205	389.5
2636.801	402.5
2640.394	389.5
2643.983	383.5
2647.57	386.5
2651.153	379.5
2654.734	380.5
2658.311	351.5
2661.885	369.5
2665.456	366.5
2669.025	361.5
2672.589	349.5
2676.151	379.5
2679.71	366.5
2683.266	349.5
2686.819	334.5
2690.368	344.5
2693.915	343.5
2697.458	335.5
2700.999	351.5
2704.536	323.5
2708.071	324.5
2711.602	327.5
2715.13	320.5
2718.656	297.5
2722.178	313.5
2725.697	303.5
2729.214	299.5
2732.727	312.5
2736.237	285.5
2739.744	302.5
2743.249	294.5
2746.75	295.5
2750.248	295.5
2753.743	289.5
2757.236	285.5
2760.725	287.5
2764.211	262.5
2767.695	282.5
2771.175	284.5
2774.652	275.5
2778.127	269.5
2781.598	271.5
2785.067	279.5
2788.532	263.5
2791.995	272.5
2795.455	263.5
2798.911	289.5
2802.365	272.5
2805.816	267.5
2809.264	295.5
2812.709	268.5
2816.151	282.5
2819.59	263.5
2823.026	274.5
2826.46	275.5
2829.89	287.5
2833.318	259.5
2836.742	275.5
2840.164	280.5
2843.583	271.5
2846.999	285.5
2850.412	284.5
2853.822	285.5
2857.229	304.5
2860.634	299.5
2864.035	277.5
2867.434	303.5
2870.83	303.5
2874.223	303.5
2877.613	309.5
2881	307.5
2884.385	314.5
2887.766	312.5
2891.145	315.5
2894.521	310.5
2897.894	302.5
2901.264	314.5
2904.631	305.5
2907.996	309.5
2911.358	321.5
2914.717	309.5
2918.073	303.5
2921.426	309.5
2924.777	298.5
2928.124	316.5
2931.469	332.5
2934.811	323.5
2938.15	362.5
2941.487	340.5
2944.821	349.5
2948.152	339.5
2951.48	334.5
2954.805	301.5
2958.128	318.5
2961.447	297.5
2964.765	314.5
2968.079	296.5
2971.39	296.5
2974.699	296.5
2978.005	297.5
2981.308	289.5
2984.609	289.5
2987.907	317.5
2991.202	309.5
2994.494	285.5
2997.784	294.5
3001.07	298.5
3004.355	284.5
3007.636	286.5
3010.915	290.5
3014.191	281.5
3017.464	279.5
3020.734	282.5
3024.002	277.5
3027.267	276.5
3030.53	291.5
3033.789	285.5
3037.046	281.5
3040.301	275.5
3043.552	290.5
3046.801	301.5
3050.048	298.5
3053.291	325.5
3056.532	314.5
3059.771	306.5
3063.006	325.5
3066.239	325.5
3069.469	328.5
3072.697	333.5
3075.922	338.5
3079.144	344.5
3082.364	375.5
3085.581	348.5
3088.795	375.5
3092.007	370.5
3095.216	370.5
3098.423	369.5
3101.627	350.5
3104.828	372.5
3108.026	379.5
3111.222	403.5
3114.416	418.5
3117.607	418.5
3120.795	415.5
3123.98	418.5
3127.163	423.5
3130.344	432.5
3133.521	439.5
3136.696	464.5
3139.869	451.5
3143.039	446.5
3146.206	482.5
3149.371	479.5
3152.533	483.5
3155.693	473.5
3158.85	490.5
3162.005	477.5
3165.157	472.5
3168.306	480.5
3171.453	500.5
3174.597	473.5
3177.739	478.5
3180.878	487.5
3184.014	482.5
3187.149	485.5
3190.28	488.5
3193.409	492.5
3196.536	488.5
3199.659	500.5
3202.781	498.5
3205.9	482.5
3209.016	497.5
3212.13	486.5
3215.241	488.5
3218.35	487.5
3221.456	478.5
3224.56	460.5
3227.661	468.5
3230.76	463.5
3233.856	456.5
3236.95	463.5
3240.041	454.5
3243.13	459.5
3246.216	448.5
3249.3	456.5
3252.382	451.5
3255.46	437.5
3258.537	387.5
3261.611	437.5
3264.682	449.5
3267.751	440.5
3270.818	437.5
3273.882	441.5
3276.943	426.5
3280.002	436.5
3283.059	412.5
3286.113	418.5
3289.165	407.5
3292.214	402.5
3295.261	414.5
3298.306	379.5
3301.348	402.5
3304.387	376.5
3307.425	388.5
3310.459	368.5
3313.492	384.5
3316.521	362.5
3319.549	364.5
3322.574	361.5
3325.597	358.5
3328.617	352.5
3331.635	345.5
3334.65	327.5
3337.663	350.5
3340.674	341.5
3343.682	348.5
3346.688	353.5
3349.691	346.5
3352.692	341.5
3355.691	350.5
3358.687	341.5
3361.681	348.5
3364.673	330.5
3367.662	330.5
3370.649	336.5
3373.633	311.5
3376.615	322.5
3379.595	301.5
3382.572	297.5
3385.547	296.5
3388.52	284.5
3391.49	297.5
3394.458	294.5
3397.424	297.5
3400.387	286.5
3403.348	283.5
3406.307	285.5
3409.263	277.5
3412.217	286.5
3415.168	271.5
3418.118	286.5
3421.065	264.5
3424.009	274.5
3426.951	266.5
3429.891	258.5
3432.829	249.5
3435.764	247.5
3438.697	239.5
3441.628	249.5
3444.557	228.5
3447.483	220.5
3450.407	233.5
3453.328	216.5
3456.247	210.5
3459.164	198.5
3462.079	214.5
3464.991	197.5
3467.902	187.5
3470.809	187.5
3473.715	190.5
3476.618	168.5
3479.519	177.5
3482.418	153.5
3485.315	144.5
3488.209	155.5
3491.101	154.5
3493.99	132.5
3496.878	137.5
3499.763	144.5
3502.646	134.5
3505.527	132.5
3508.405	126.5
3511.281	114.5
3514.155	115.5
3517.027	110.5
3519.897	104.5
3522.764	104.5
3525.629	84.5
3528.492	96.5
3531.352	93.5
3534.211	91.5
3537.067	76.5
3539.921	78.5
3542.773	87.5
3545.622	57.5
3548.469	60.5
3551.315	54.5
3554.157	57.5
3556.998	55.5
3559.837	52.5
3562.673	54.5
3565.507	39.5
3568.339	40.5
3571.169	40.5
3573.996	42.5
3576.822	21.5
3579.645	29.5
3582.466	23.5
3585.285	34.5
3588.101	30.5
3590.916	27.5
3593.728	33.5
3596.538	28.5
3599.346	29.5
3602.152	16.5
3604.956	16.5
3607.757	24.5
3610.556	3.5
3613.354	21.5
3616.149	18.5
3618.942	17.5
3621.732	15.5
3624.521	10.5
3627.307	-5.5
3630.092	1.5
3632.874	10.5
3635.654	3.5
3638.432	-2.5
3641.208	-0.5
3643.982	-4.5
3646.753	6.5
3649.523	-21.5
3652.29	-1.5
3655.055	-2.5
3657.818	-2.5
3660.579	-9.5
3663.338	-17.5
3666.095	-12.5
3668.849	-30.5
3671.602	-4.5
3674.352	-19.5
3677.101	-0.5
3679.847	-1.5
3682.591	-20.5
3685.333	-23.5
3688.073	-13.5
3690.811	-26.5
3693.547	-29.5
3696.281	-29.5
3699.013	-15.5
3701.742	-22.5
3704.47	-29.5
3707.195	-10.5
3709.919	-18.5
3712.64	-21.5
3715.359	-32.5
3718.076	-9.5
3720.792	-23.5
3723.505	-17.5
3726.216	-10.5
3728.925	-23.5
3731.632	-28.5
3734.336	-20.5
3737.039	-19.5
3739.74	-15.5
3742.439	-48.5
3745.136	-17.5
3747.83	-24.5
3750.523	-15.5
3753.213	-81.5
3755.902	-22.5
3758.589	-39.5
3761.273	-30.5
3763.956	-14.5
3766.636	-44.5
3769.315	-13.5
3771.991	-24.5
3774.665	-32.5
3777.338	-28.5
3780.008	-34.5
3782.677	-27.5
3785.343	-46.5
3788.007	-45.5
3790.67	-22.5
3793.33	-38.5
3795.989	-30.5
3798.645	-34.5
3801.299	-41.5
3803.952	-37.5
3806.602	-34.5
3809.251	-21.5
3811.897	-28.5
3814.542	-33.5
3817.184	-27.5
3819.825	-27.5
3822.463	-35.5
3825.1	-36.5
3827.735	-30.5
3830.367	-37.5
3832.998	-16.5
3835.627	-33.5
3838.253	-23.5
3840.878	-30.5
3843.501	-18.5
3846.122	-25.5
3848.741	-25.5
3851.358	-22.5
3853.973	-36.5
3856.586	-22.5
3859.197	-39.5
3861.806	-27.5
3864.414	-44.5
3867.019	-28.5
3869.622	-22.5
3872.224	-23.5
3874.823	-21.5
3877.421	-4.5
3880.016	-0.5
3882.61	20.5
3885.202	36.5
3887.792	17.5
3890.38	0.5
3892.966	-21.5
3895.55	-42.5
3898.132	-25.5
3900.713	-27.5
3903.291	-34.5
3905.868	-42.5
3908.442	-31.5
3911.015	-35.5
3913.586	-39.5
3916.155	-39.5
3918.722	-34.5
3921.287	-44.5
3923.85	-49.5
3926.411	-37.5
3928.971	-37.5
3931.528	-34.5
3934.084	-34.5
3936.638	-45.5
3939.19	-30.5
3941.74	-28.5
3944.288	-35.5
3946.834	-38.5
3949.378	-26.5
3951.921	-34.5
3954.462	-36.5
3957	-31.5
3959.537	-29.5
3962.072	-40.5
3964.606	-49.5
3967.137	-32.5
3969.667	-42.5
3972.194	-28.5
3974.72	-35.5
3977.244	-53.5
3979.766	-41.5
3982.286	-39.5
3984.805	-31.5
3987.321	-22.5
3989.836	-28.5
3992.349	-40.5
3994.86	-30.5
3997.369	-35.5
3999.877	-32.5
4002.382	-35.5
4004.886	-25.5
4007.388	-29.5
4009.888	-24.5
4012.386	-23.5
4014.883	-25.5
4017.377	-32.5
4019.87	-27.5
4022.361	-40.5
4024.85	-30.5
4027.338	-27.5
4029.823	-38.5
4032.307	-36.5
4034.789	-31.5
4037.269	-28.5
4039.747	-40.5
4042.224	-24.5
4044.699	-34.5
4047.172	-33.5
4049.643	-23.5
4052.112	-55.5
4054.58	-26.5
4057.046	-42.5
4059.51	-31.5
4061.972	-30.5
4064.432	-47.5
4066.891	-20.5
4069.348	-30.5
4071.803	-27.5
4074.256	-36.5
4076.708	-27.5
4079.158	-31.5
4081.606	-21.5
4084.052	-31.5
4086.497	-20.5
4088.939	-29.5
4091.38	-25.5
4093.819	-26.5
4096.257	-3.5
4098.693	-4.5
4101.127	-2.5
4103.559	1.5
4105.989	46.5
4108.418	56.5
4110.845	50.5
4113.27	69.5
4115.694	83.5
4118.115	74.5
4120.535	-29.5
4122.954	-19.5
4125.37	-17.5
4127.785	-24.5
4130.198	-23.5
4132.609	-23.5
4135.019	8.5
4137.427	0.5
4139.833	4.5
4142.237	-4.5
