Data from 2018-3-6_conc=2_n=9_RamanShift_01.txt Node
Date: Tue Mar 06 13:06:19 GMT+02:00 2018
User: LAB3
Spectrometer: QEPB0276
Trigger mode: 0
Integration Time (sec): 3.000000E1
Scans to average: 1
Electric dark correction enabled: true
Nonlinearity correction enabled: false
Boxcar width: 0
XAxis mode: Raman Shifts
Number of Pixels in Spectrum: 1044
>>>>>Begin Spectral Data<<<<<
160.701	177.75
166.742	213.75
172.777	315.75
178.805	613.75
184.826	1385.75
190.841	2752.75
196.849	4396.75
202.85	5638.75
208.845	6136.75
214.833	6114.75
220.815	6060.75
226.789	6075.75
232.758	6131.75
238.719	6144.75
244.674	6116.75
250.623	6122.75
256.565	6067.75
262.5	5988.75
268.429	5986.75
274.351	5951.75
280.267	5925.75
286.176	5957.75
292.079	5985.75
297.975	6010.75
303.865	5994.75
309.748	6047.75
315.625	6010.75
321.495	6039.75
327.359	6066.75
333.217	6086.75
339.068	6102.75
344.912	6118.75
350.751	6144.75
356.583	6172.75
362.408	6217.75
368.227	6255.75
374.04	6251.75
379.847	6298.75
385.647	6355.75
391.44	6335.75
397.228	6391.75
403.009	6451.75
408.784	6469.75
414.553	6508.75
420.315	6524.75
426.071	6504.75
431.821	6519.75
437.565	6526.75
443.302	6497.75
449.033	6484.75
454.758	6422.75
460.477	6371.75
466.189	6335.75
471.896	6271.75
477.596	6217.75
483.29	6184.75
488.978	6159.75
494.66	6104.75
500.335	5980.75
506.005	5695.75
511.668	5384.75
517.325	5123.75
522.977	4882.75
528.622	4732.75
534.261	4659.75
539.894	4537.75
545.521	4476.75
551.141	4415.75
556.756	4359.75
562.365	4283.75
567.968	4283.75
573.565	4244.75
579.155	4233.75
584.74	4193.75
590.319	4216.75
595.892	4183.75
601.459	4183.75
607.02	4188.75
612.575	4138.75
618.124	4071.75
623.667	4019.75
629.204	3972.75
634.735	3957.75
640.261	3880.75
645.781	3831.75
651.294	3834.75
656.802	3826.75
662.304	3802.75
667.8	3780.75
673.29	3755.75
678.775	3751.75
684.254	3741.75
689.726	3724.75
695.193	3726.75
700.655	3691.75
706.11	3660.75
711.56	3650.75
717.004	3643.75
722.442	3606.75
727.874	3613.75
733.301	3584.75
738.722	3566.75
744.137	3569.75
749.547	3544.75
754.951	3575.75
760.349	3591.75
765.741	3596.75
771.128	3611.75
776.509	3659.75
781.885	3725.75
787.254	3770.75
792.618	3768.75
797.977	3773.75
803.33	3764.75
808.677	3721.75
814.019	3687.75
819.355	3644.75
824.686	3603.75
830.011	3580.75
835.33	3592.75
840.644	3557.75
845.952	3505.75
851.255	3489.75
856.552	3461.75
861.844	3410.75
867.13	3376.75
872.41	3354.75
877.686	3343.75
882.955	3289.75
888.219	3279.75
893.478	3223.75
898.731	3177.75
903.979	3142.75
909.221	3111.75
914.458	3089.75
919.69	3097.75
924.916	3076.75
930.136	3107.75
935.351	3112.75
940.561	3093.75
945.766	3071.75
950.965	3116.75
956.158	3035.75
961.347	3031.75
966.529	2998.75
971.707	2944.75
976.879	2907.75
982.046	2884.75
987.208	2882.75
992.364	2885.75
997.515	2893.75
1002.66	2913.75
1007.801	2924.75
1012.936	2931.75
1018.066	2937.75
1023.19	2981.75
1028.309	2971.75
1033.423	2958.75
1038.532	2990.75
1043.636	2953.75
1048.734	2951.75
1053.827	2915.75
1058.915	2878.75
1063.998	2876.75
1069.075	2862.75
1074.147	2849.75
1079.214	2830.75
1084.276	2883.75
1089.333	2871.75
1094.385	2889.75
1099.431	2850.75
1104.472	2857.75
1109.509	2830.75
1114.54	2789.75
1119.565	2764.75
1124.586	2716.75
1129.602	2685.75
1134.613	2649.75
1139.618	2628.75
1144.619	2643.75
1149.614	2652.75
1154.604	2617.75
1159.589	2665.75
1164.57	2656.75
1169.545	2682.75
1174.515	2654.75
1179.48	2649.75
1184.44	2632.75
1189.395	2638.75
1194.345	2614.75
1199.29	2592.75
1204.23	2563.75
1209.165	2586.75
1214.095	2602.75
1219.021	2593.75
1223.941	2625.75
1228.856	2640.75
1233.766	2623.75
1238.672	2614.75
1243.572	2624.75
1248.467	2613.75
1253.358	2568.75
1258.244	2526.75
1263.124	2508.75
1268	2476.75
1272.871	2406.75
1277.737	2393.75
1282.599	2369.75
1287.455	2372.75
1292.306	2387.75
1297.153	2352.75
1301.995	2385.75
1306.832	2410.75
1311.664	2398.75
1316.491	2386.75
1321.314	2403.75
1326.132	2384.75
1330.945	2351.75
1335.753	2307.75
1340.556	2268.75
1345.354	2243.75
1350.148	2203.75
1354.937	2187.75
1359.722	2163.75
1364.501	2156.75
1369.276	2147.75
1374.046	2129.75
1378.811	2119.75
1383.572	2130.75
1388.327	2117.75
1393.079	2106.75
1397.825	2065.75
1402.567	2080.75
1407.304	2059.75
1412.036	2052.75
1416.764	2034.75
1421.487	2035.75
1426.205	2032.75
1430.919	2038.75
1435.628	2048.75
1440.333	2053.75
1445.032	2068.75
1449.727	2094.75
1454.418	2107.75
1459.104	2106.75
1463.785	2044.75
1468.462	2038.75
1473.134	2004.75
1477.802	1985.75
1482.465	1929.75
1487.123	1934.75
1491.777	1905.75
1496.426	1877.75
1501.071	1929.75
1505.711	1913.75
1510.347	1951.75
1514.978	1943.75
1519.604	1939.75
1524.226	1958.75
1528.844	1937.75
1533.457	1912.75
1538.065	1918.75
1542.669	1887.75
1547.269	1865.75
1551.864	1858.75
1556.454	1869.75
1561.041	1848.75
1565.622	1867.75
1570.199	1869.75
1574.772	1876.75
1579.34	1895.75
1583.904	1907.75
1588.464	1911.75
1593.019	1945.75
1597.569	1901.75
1602.115	1912.75
1606.657	1890.75
1611.195	1918.75
1615.728	1907.75
1620.256	1888.75
1624.78	1877.75
1629.3	1915.75
1633.816	1897.75
1638.327	1894.75
1642.834	1918.75
1647.336	1937.75
1651.834	1946.75
1656.328	1947.75
1660.817	1944.75
1665.302	1926.75
1669.783	1876.75
1674.259	1861.75
1678.732	1824.75
1683.199	1775.75
1687.663	1736.75
1692.122	1697.75
1696.577	1666.75
1701.028	1635.75
1705.474	1607.75
1709.917	1565.75
1714.355	1568.75
1718.788	1560.75
1723.218	1524.75
1727.643	1490.75
1732.064	1490.75
1736.481	1445.75
1740.893	1442.75
1745.301	1400.75
1749.705	1375.75
1754.105	1343.75
1758.501	1304.75
1762.893	1311.75
1767.28	1262.75
1771.663	1275.75
1776.042	1238.75
1780.417	1241.75
1784.787	1255.75
1789.154	1256.75
1793.516	1256.75
1797.874	1241.75
1802.228	1233.75
1806.578	1222.75
1810.924	1246.75
1815.266	1107.75
1819.603	1209.75
1823.937	1194.75
1828.266	1173.75
1832.591	1146.75
1836.913	1162.75
1841.23	1155.75
1845.543	1146.75
1849.852	1145.75
1854.156	1146.75
1858.457	1144.75
1862.754	1137.75
1867.047	1148.75
1871.335	1172.75
1875.62	1150.75
1879.9	1148.75
1884.177	1138.75
1888.449	1142.75
1892.718	1146.75
1896.982	1137.75
1901.243	1100.75
1905.499	1116.75
1909.752	1105.75
1914	1102.75
1918.245	1122.75
1922.485	1130.75
1926.722	1113.75
1930.954	1102.75
1935.183	1138.75
1939.408	1135.75
1943.628	1126.75
1947.845	1113.75
1952.058	1103.75
1956.267	1088.75
1960.472	1084.75
1964.673	1047.75
1968.87	1035.75
1973.063	1027.75
1977.252	1009.75
1981.438	990.75
1985.619	960.75
1989.797	965.75
1993.971	972.75
1998.14	980.75
2002.306	955.75
2006.469	956.75
2010.627	937.75
2014.781	947.75
2018.932	938.75
2023.078	951.75
2027.221	939.75
2031.36	922.75
2035.495	908.75
2039.627	900.75
2043.754	900.75
2047.878	884.75
2051.998	883.75
2056.114	892.75
2060.226	898.75
2064.334	897.75
2068.439	918.75
2072.54	905.75
2076.637	893.75
2080.73	891.75
2084.82	897.75
2088.906	900.75
2092.988	894.75
2097.066	900.75
2101.14	891.75
2105.211	880.75
2109.278	871.75
2113.342	855.75
2117.401	837.75
2121.457	831.75
2125.509	828.75
2129.558	825.75
2133.602	812.75
2137.643	823.75
2141.681	814.75
2145.714	804.75
2149.744	799.75
2153.77	787.75
2157.793	773.75
2161.812	759.75
2165.827	737.75
2169.838	762.75
2173.846	726.75
2177.851	710.75
2181.851	737.75
2185.848	720.75
2189.841	704.75
2193.831	696.75
2197.817	693.75
2201.799	688.75
2205.778	672.75
2209.753	664.75
2213.725	675.75
2217.693	661.75
2221.657	652.75
2225.618	670.75
2229.575	650.75
2233.529	660.75
2237.479	650.75
2241.425	633.75
2245.368	625.75
2249.307	619.75
2253.243	598.75
2257.175	610.75
2261.104	594.75
2265.029	601.75
2268.95	581.75
2272.868	577.75
2276.783	550.75
2280.694	566.75
2284.601	555.75
2288.505	546.75
2292.405	552.75
2296.302	518.75
2300.195	518.75
2304.085	503.75
2307.971	516.75
2311.854	480.75
2315.734	499.75
2319.609	499.75
2323.482	461.75
2327.351	484.75
2331.216	479.75
2335.078	479.75
2338.937	472.75
2342.792	458.75
2346.643	454.75
2350.492	458.75
2354.336	462.75
2358.178	464.75
2362.015	459.75
2365.85	458.75
2369.681	466.75
2373.508	458.75
2377.333	469.75
2381.153	466.75
2384.971	452.75
2388.785	455.75
2392.595	440.75
2396.402	449.75
2400.206	414.75
2404.007	430.75
2407.804	441.75
2411.597	438.75
2415.388	425.75
2419.174	430.75
2422.958	438.75
2426.738	428.75
2430.515	432.75
2434.289	418.75
2438.059	413.75
2441.825	418.75
2445.589	426.75
2449.349	392.75
2453.106	404.75
2456.859	405.75
2460.61	402.75
2464.356	382.75
2468.1	379.75
2471.84	380.75
2475.577	383.75
2479.311	375.75
2483.041	368.75
2486.768	394.75
2490.492	378.75
2494.213	380.75
2497.93	355.75
2501.644	356.75
2505.355	380.75
2509.062	367.75
2512.766	374.75
2516.467	362.75
2520.165	366.75
2523.859	348.75
2527.551	377.75
2531.239	356.75
2534.923	359.75
2538.605	354.75
2542.283	359.75
2545.958	351.75
2549.63	361.75
2553.299	368.75
2556.964	337.75
2560.626	335.75
2564.285	345.75
2567.941	328.75
2571.594	329.75
2575.243	344.75
2578.89	329.75
2582.533	327.75
2586.173	326.75
2589.809	332.75
2593.443	304.75
2597.073	320.75
2600.701	321.75
2604.325	327.75
2607.946	304.75
2611.564	323.75
2615.178	306.75
2618.79	302.75
2622.398	295.75
2626.004	299.75
2629.606	301.75
2633.205	291.75
2636.801	294.75
2640.394	290.75
2643.983	289.75
2647.57	283.75
2651.153	275.75
2654.734	281.75
2658.311	250.75
2661.885	265.75
2665.456	265.75
2669.025	264.75
2672.589	257.75
2676.151	275.75
2679.71	270.75
2683.266	258.75
2686.819	255.75
2690.368	253.75
2693.915	252.75
2697.458	241.75
2700.999	248.75
2704.536	253.75
2708.071	239.75
2711.602	239.75
2715.13	233.75
2718.656	221.75
2722.178	236.75
2725.697	222.75
2729.214	220.75
2732.727	230.75
2736.237	219.75
2739.744	238.75
2743.249	223.75
2746.75	229.75
2750.248	221.75
2753.743	225.75
2757.236	227.75
2760.725	222.75
2764.211	200.75
2767.695	223.75
2771.175	225.75
2774.652	229.75
2778.127	211.75
2781.598	206.75
2785.067	216.75
2788.532	216.75
2791.995	221.75
2795.455	208.75
2798.911	214.75
2802.365	211.75
2805.816	219.75
2809.264	225.75
2812.709	211.75
2816.151	219.75
2819.59	208.75
2823.026	217.75
2826.46	217.75
2829.89	227.75
2833.318	201.75
2836.742	219.75
2840.164	217.75
2843.583	213.75
2846.999	225.75
2850.412	231.75
2853.822	225.75
2857.229	236.75
2860.634	238.75
2864.035	219.75
2867.434	243.75
2870.83	242.75
2874.223	240.75
2877.613	242.75
2881	242.75
2884.385	236.75
2887.766	244.75
2891.145	243.75
2894.521	248.75
2897.894	233.75
2901.264	249.75
2904.631	247.75
2907.996	251.75
2911.358	261.75
2914.717	254.75
2918.073	254.75
2921.426	248.75
2924.777	238.75
2928.124	263.75
2931.469	280.75
2934.811	263.75
2938.15	292.75
2941.487	284.75
2944.821	296.75
2948.152	285.75
2951.48	290.75
2954.805	271.75
2958.128	292.75
2961.447	279.75
2964.765	290.75
2968.079	284.75
2971.39	290.75
2974.699	289.75
2978.005	289.75
2981.308	288.75
2984.609	292.75
2987.907	305.75
2991.202	313.75
2994.494	300.75
2997.784	306.75
3001.07	308.75
3004.355	310.75
3007.636	313.75
3010.915	315.75
3014.191	317.75
3017.464	323.75
3020.734	319.75
3024.002	327.75
3027.267	319.75
3030.53	332.75
3033.789	321.75
3037.046	336.75
3040.301	327.75
3043.552	346.75
3046.801	356.75
3050.048	369.75
3053.291	384.75
3056.532	376.75
3059.771	367.75
3063.006	398.75
3066.239	397.75
3069.469	410.75
3072.697	417.75
3075.922	425.75
3079.144	437.75
3082.364	467.75
3085.581	469.75
3088.795	479.75
3092.007	490.75
3095.216	497.75
3098.423	495.75
3101.627	486.75
3104.828	509.75
3108.026	518.75
3111.222	540.75
3114.416	552.75
3117.607	560.75
3120.795	571.75
3123.98	573.75
3127.163	582.75
3130.344	596.75
3133.521	604.75
3136.696	632.75
3139.869	630.75
3143.039	624.75
3146.206	675.75
3149.371	669.75
3152.533	677.75
3155.693	665.75
3158.85	683.75
3162.005	686.75
3165.157	690.75
3168.306	686.75
3171.453	700.75
3174.597	681.75
3177.739	674.75
3180.878	694.75
3184.014	685.75
3187.149	706.75
3190.28	696.75
3193.409	710.75
3196.536	704.75
3199.659	715.75
3202.781	721.75
3205.9	695.75
3209.016	711.75
3212.13	706.75
3215.241	703.75
3218.35	701.75
3221.456	693.75
3224.56	686.75
3227.661	679.75
3230.76	678.75
3233.856	653.75
3236.95	671.75
3240.041	657.75
3243.13	659.75
3246.216	653.75
3249.3	661.75
3252.382	649.75
3255.46	641.75
3258.537	600.75
3261.611	643.75
3264.682	645.75
3267.751	644.75
3270.818	630.75
3273.882	640.75
3276.943	637.75
3280.002	642.75
3283.059	611.75
3286.113	611.75
3289.165	603.75
3292.214	604.75
3295.261	611.75
3298.306	577.75
3301.348	587.75
3304.387	551.75
3307.425	562.75
3310.459	558.75
3313.492	554.75
3316.521	542.75
3319.549	547.75
3322.574	545.75
3325.597	534.75
3328.617	519.75
3331.635	531.75
3334.65	518.75
3337.663	522.75
3340.674	515.75
3343.682	523.75
3346.688	537.75
3349.691	512.75
3352.692	516.75
3355.691	522.75
3358.687	513.75
3361.681	509.75
3364.673	497.75
3367.662	498.75
3370.649	502.75
3373.633	486.75
3376.615	494.75
3379.595	470.75
3382.572	467.75
3385.547	452.75
3388.52	444.75
3391.49	451.75
3394.458	444.75
3397.424	448.75
3400.387	434.75
3403.348	437.75
3406.307	434.75
3409.263	433.75
3412.217	431.75
3415.168	418.75
3418.118	428.75
3421.065	420.75
3424.009	420.75
3426.951	404.75
3429.891	400.75
3432.829	402.75
3435.764	392.75
3438.697	381.75
3441.628	382.75
3444.557	359.75
3447.483	348.75
3450.407	352.75
3453.328	338.75
3456.247	327.75
3459.164	317.75
3462.079	322.75
3464.991	310.75
3467.902	291.75
3470.809	293.75
3473.715	282.75
3476.618	272.75
3479.519	273.75
3482.418	251.75
3485.315	249.75
3488.209	246.75
3491.101	239.75
3493.99	226.75
3496.878	226.75
3499.763	227.75
3502.646	225.75
3505.527	210.75
3508.405	201.75
3511.281	179.75
3514.155	191.75
3517.027	181.75
3519.897	169.75
3522.764	172.75
3525.629	144.75
3528.492	156.75
3531.352	160.75
3534.211	143.75
3537.067	136.75
3539.921	135.75
3542.773	134.75
3545.622	116.75
3548.469	111.75
3551.315	101.75
3554.157	108.75
3556.998	96.75
3559.837	100.75
3562.673	103.75
3565.507	87.75
3568.339	82.75
3571.169	83.75
3573.996	77.75
3576.822	60.75
3579.645	60.75
3582.466	62.75
3585.285	73.75
3588.101	62.75
3590.916	52.75
3593.728	68.75
3596.538	52.75
3599.346	50.75
3602.152	43.75
3604.956	42.75
3607.757	51.75
3610.556	28.75
3613.354	41.75
3616.149	36.75
3618.942	37.75
3621.732	40.75
3624.521	27.75
3627.307	17.75
3630.092	24.75
3632.874	36.75
3635.654	21.75
3638.432	14.75
3641.208	17.75
3643.982	20.75
3646.753	23.75
3649.523	-4.25
3652.29	8.75
3655.055	21.75
3657.818	13.75
3660.579	0.75
3663.338	-1.25
3666.095	-4.25
3668.849	-19.25
3671.602	4.75
3674.352	-12.25
3677.101	11.75
3679.847	1.75
3682.591	-11.25
3685.333	-18.25
3688.073	-10.25
3690.811	-21.25
3693.547	-17.25
3696.281	-22.25
3699.013	-11.25
3701.742	-18.25
3704.47	-23.25
3707.195	-9.25
3709.919	-15.25
3712.64	-12.25
3715.359	-22.25
3718.076	-4.25
3720.792	-16.25
3723.505	-14.25
3726.216	-4.25
3728.925	-19.25
3731.632	-27.25
3734.336	-13.25
3737.039	-26.25
3739.74	-19.25
3742.439	-47.25
3745.136	-15.25
3747.83	-19.25
3750.523	-17.25
3753.213	-85.25
3755.902	-31.25
3758.589	-39.25
3761.273	-23.25
3763.956	-19.25
3766.636	-43.25
3769.315	-17.25
3771.991	-22.25
3774.665	-30.25
3777.338	-27.25
3780.008	-33.25
3782.677	-23.25
3785.343	-36.25
3788.007	-45.25
3790.67	-18.25
3793.33	-36.25
3795.989	-29.25
3798.645	-19.25
3801.299	-43.25
3803.952	-36.25
3806.602	-29.25
3809.251	-24.25
3811.897	-23.25
3814.542	-31.25
3817.184	-30.25
3819.825	-30.25
3822.463	-43.25
3825.1	-31.25
3827.735	-25.25
3830.367	-42.25
3832.998	-15.25
3835.627	-27.25
3838.253	-16.25
3840.878	-31.25
3843.501	-14.25
3846.122	-23.25
3848.741	-22.25
3851.358	-23.25
3853.973	-37.25
3856.586	-21.25
3859.197	-36.25
3861.806	-29.25
3864.414	-38.25
3867.019	-26.25
3869.622	-13.25
3872.224	-7.25
3874.823	8.75
3877.421	42.75
3880.016	65.75
3882.61	101.75
3885.202	120.75
3887.792	83.75
3890.38	46.75
3892.966	7.75
3895.55	-21.25
3898.132	-15.25
3900.713	-23.25
3903.291	-27.25
3905.868	-41.25
3908.442	-27.25
3911.015	-33.25
3913.586	-35.25
3916.155	-34.25
3918.722	-41.25
3921.287	-35.25
3923.85	-40.25
3926.411	-40.25
3928.971	-42.25
3931.528	-32.25
3934.084	-35.25
3936.638	-47.25
3939.19	-28.25
3941.74	-28.25
3944.288	-39.25
3946.834	-31.25
3949.378	-25.25
3951.921	-41.25
3954.462	-31.25
3957	-28.25
3959.537	-15.25
3962.072	-31.25
3964.606	-46.25
3967.137	-34.25
3969.667	-35.25
3972.194	-27.25
3974.72	-40.25
3977.244	-56.25
3979.766	-36.25
3982.286	-42.25
3984.805	-30.25
3987.321	-21.25
3989.836	-28.25
3992.349	-38.25
3994.86	-30.25
3997.369	-35.25
3999.877	-30.25
4002.382	-34.25
4004.886	-27.25
4007.388	-32.25
4009.888	-21.25
4012.386	-22.25
4014.883	-25.25
4017.377	-31.25
4019.87	-25.25
4022.361	-36.25
4024.85	-31.25
4027.338	-31.25
4029.823	-37.25
4032.307	-32.25
4034.789	-30.25
4037.269	-30.25
4039.747	-41.25
4042.224	-22.25
4044.699	-37.25
4047.172	-28.25
4049.643	-23.25
4052.112	-50.25
4054.58	-28.25
4057.046	-40.25
4059.51	-30.25
4061.972	-36.25
4064.432	-48.25
4066.891	-17.25
4069.348	-31.25
4071.803	-29.25
4074.256	-33.25
4076.708	-23.25
4079.158	-28.25
4081.606	-14.25
4084.052	-26.25
4086.497	-23.25
4088.939	-27.25
4091.38	-30.25
4093.819	-22.25
4096.257	4.75
4098.693	-9.25
4101.127	-4.25
4103.559	4.75
4105.989	160.75
4108.418	154.75
4110.845	138.75
4113.27	158.75
4115.694	163.75
4118.115	158.75
4120.535	-26.25
4122.954	-21.25
4125.37	-17.25
4127.785	-27.25
4130.198	-19.25
4132.609	-24.25
4135.019	6.75
4137.427	-3.25
4139.833	4.75
4142.237	-4.25
