Data from 2018-3-6_conc=5_n=4_RamanShift_04.txt Node
Date: Tue Mar 06 14:33:18 GMT+02:00 2018
User: LAB3
Spectrometer: QEPB0276
Trigger mode: 0
Integration Time (sec): 3.000000E1
Scans to average: 1
Electric dark correction enabled: true
Nonlinearity correction enabled: false
Boxcar width: 0
XAxis mode: Raman Shifts
Number of Pixels in Spectrum: 1044
>>>>>Begin Spectral Data<<<<<
160.701	67.88
166.742	91.88
172.777	127.88
178.805	233.88
184.826	547.88
190.841	1093.88
196.849	1710.88
202.85	2171.88
208.845	2306.88
214.833	2281.88
220.815	2229.88
226.789	2183.88
232.758	2182.88
238.719	2164.88
244.674	2118.88
250.623	2090.88
256.565	2048.88
262.5	2028.88
268.429	1991.88
274.351	1975.88
280.267	1962.88
286.176	1971.88
292.079	1978.88
297.975	1946.88
303.865	1952.88
309.748	1957.88
315.625	1925.88
321.495	1930.88
327.359	1916.88
333.217	1916.88
339.068	1918.88
344.912	1925.88
350.751	1932.88
356.583	1941.88
362.408	1947.88
368.227	1950.88
374.04	1952.88
379.847	1952.88
385.647	1978.88
391.44	1941.88
397.228	1982.88
403.009	1979.88
408.784	1973.88
414.553	2021.88
420.315	2015.88
426.071	1998.88
431.821	2007.88
437.565	2026.88
443.302	1989.88
449.033	1968.88
454.758	1982.88
460.477	1962.88
466.189	1926.88
471.896	1893.88
477.596	1905.88
483.29	1884.88
488.978	1895.88
494.66	1857.88
500.335	1824.88
506.005	1717.88
511.668	1643.88
517.325	1570.88
522.977	1489.88
528.622	1430.88
534.261	1397.88
539.894	1356.88
545.521	1356.88
551.141	1315.88
556.756	1316.88
562.365	1305.88
567.968	1293.88
573.565	1280.88
579.155	1279.88
584.74	1258.88
590.319	1273.88
595.892	1263.88
601.459	1261.88
607.02	1265.88
612.575	1244.88
618.124	1250.88
623.667	1198.88
629.204	1186.88
634.735	1195.88
640.261	1163.88
645.781	1139.88
651.294	1137.88
656.802	1143.88
662.304	1153.88
667.8	1170.88
673.29	1140.88
678.775	1135.88
684.254	1111.88
689.726	1111.88
695.193	1114.88
700.655	1102.88
706.11	1104.88
711.56	1087.88
717.004	1094.88
722.442	1078.88
727.874	1082.88
733.301	1084.88
738.722	1062.88
744.137	1069.88
749.547	1062.88
754.951	1070.88
760.349	1054.88
765.741	1069.88
771.128	1067.88
776.509	1087.88
781.885	1114.88
787.254	1135.88
792.618	1121.88
797.977	1117.88
803.33	1125.88
808.677	1106.88
814.019	1094.88
819.355	1078.88
824.686	1073.88
830.011	1053.88
835.33	1074.88
840.644	1069.88
845.952	1052.88
851.255	1056.88
856.552	1036.88
861.844	1021.88
867.13	1000.88
872.41	1003.88
877.686	984.88
882.955	980.88
888.219	972.88
893.478	944.88
898.731	953.88
903.979	933.88
909.221	918.88
914.458	905.88
919.69	909.88
924.916	912.88
930.136	915.88
935.351	908.88
940.561	935.88
945.766	921.88
950.965	934.88
956.158	884.88
961.347	885.88
966.529	880.88
971.707	879.88
976.879	872.88
982.046	851.88
987.208	832.88
992.364	846.88
997.515	840.88
1002.66	854.88
1007.801	850.88
1012.936	855.88
1018.066	854.88
1023.19	874.88
1028.309	870.88
1033.423	869.88
1038.532	884.88
1043.636	877.88
1048.734	863.88
1053.827	834.88
1058.915	841.88
1063.998	836.88
1069.075	837.88
1074.147	850.88
1079.214	824.88
1084.276	843.88
1089.333	838.88
1094.385	839.88
1099.431	830.88
1104.472	842.88
1109.509	817.88
1114.54	807.88
1119.565	808.88
1124.586	796.88
1129.602	786.88
1134.613	760.88
1139.618	757.88
1144.619	759.88
1149.614	766.88
1154.604	769.88
1159.589	765.88
1164.57	779.88
1169.545	797.88
1174.515	786.88
1179.48	776.88
1184.44	773.88
1189.395	790.88
1194.345	758.88
1199.29	763.88
1204.23	748.88
1209.165	740.88
1214.095	763.88
1219.021	765.88
1223.941	747.88
1228.856	751.88
1233.766	778.88
1238.672	775.88
1243.572	765.88
1248.467	753.88
1253.358	737.88
1258.244	722.88
1263.124	742.88
1268	722.88
1272.871	698.88
1277.737	689.88
1282.599	697.88
1287.455	686.88
1292.306	690.88
1297.153	681.88
1301.995	699.88
1306.832	689.88
1311.664	699.88
1316.491	690.88
1321.314	686.88
1326.132	685.88
1330.945	685.88
1335.753	655.88
1340.556	650.88
1345.354	638.88
1350.148	633.88
1354.937	629.88
1359.722	620.88
1364.501	632.88
1369.276	616.88
1374.046	620.88
1378.811	607.88
1383.572	615.88
1388.327	617.88
1393.079	595.88
1397.825	601.88
1402.567	586.88
1407.304	595.88
1412.036	584.88
1416.764	589.88
1421.487	568.88
1426.205	582.88
1430.919	580.88
1435.628	582.88
1440.333	589.88
1445.032	582.88
1449.727	600.88
1454.418	594.88
1459.104	605.88
1463.785	586.88
1468.462	585.88
1473.134	571.88
1477.802	573.88
1482.465	530.88
1487.123	549.88
1491.777	520.88
1496.426	516.88
1501.071	549.88
1505.711	529.88
1510.347	546.88
1514.978	548.88
1519.604	534.88
1524.226	552.88
1528.844	535.88
1533.457	544.88
1538.065	538.88
1542.669	545.88
1547.269	525.88
1551.864	532.88
1556.454	522.88
1561.041	526.88
1565.622	528.88
1570.199	528.88
1574.772	525.88
1579.34	538.88
1583.904	549.88
1588.464	556.88
1593.019	566.88
1597.569	548.88
1602.115	547.88
1606.657	546.88
1611.195	556.88
1615.728	558.88
1620.256	534.88
1624.78	509.88
1629.3	532.88
1633.816	529.88
1638.327	536.88
1642.834	550.88
1647.336	540.88
1651.834	560.88
1656.328	548.88
1660.817	540.88
1665.302	527.88
1669.783	525.88
1674.259	516.88
1678.732	509.88
1683.199	490.88
1687.663	472.88
1692.122	472.88
1696.577	465.88
1701.028	454.88
1705.474	437.88
1709.917	422.88
1714.355	424.88
1718.788	425.88
1723.218	409.88
1727.643	389.88
1732.064	404.88
1736.481	384.88
1740.893	393.88
1745.301	387.88
1749.705	354.88
1754.105	367.88
1758.501	346.88
1762.893	354.88
1767.28	337.88
1771.663	342.88
1776.042	326.88
1780.417	327.88
1784.787	334.88
1789.154	338.88
1793.516	335.88
1797.874	338.88
1802.228	324.88
1806.578	316.88
1810.924	326.88
1815.266	210.88
1819.603	333.88
1823.937	316.88
1828.266	321.88
1832.591	321.88
1836.913	312.88
1841.23	301.88
1845.543	294.88
1849.852	318.88
1854.156	298.88
1858.457	294.88
1862.754	299.88
1867.047	297.88
1871.335	314.88
1875.62	311.88
1879.9	302.88
1884.177	300.88
1888.449	302.88
1892.718	299.88
1896.982	309.88
1901.243	273.88
1905.499	283.88
1909.752	282.88
1914	261.88
1918.245	297.88
1922.485	286.88
1926.722	278.88
1930.954	279.88
1935.183	286.88
1939.408	298.88
1943.628	285.88
1947.845	282.88
1952.058	290.88
1956.267	271.88
1960.472	273.88
1964.673	275.88
1968.87	271.88
1973.063	261.88
1977.252	263.88
1981.438	266.88
1985.619	253.88
1989.797	243.88
1993.971	258.88
1998.14	256.88
2002.306	258.88
2006.469	256.88
2010.627	246.88
2014.781	247.88
2018.932	240.88
2023.078	254.88
2027.221	243.88
2031.36	232.88
2035.495	248.88
2039.627	239.88
2043.754	236.88
2047.878	222.88
2051.998	229.88
2056.114	221.88
2060.226	229.88
2064.334	230.88
2068.439	249.88
2072.54	241.88
2076.637	215.88
2080.73	225.88
2084.82	229.88
2088.906	227.88
2092.988	220.88
2097.066	231.88
2101.14	237.88
2105.211	228.88
2109.278	215.88
2113.342	215.88
2117.401	206.88
2121.457	209.88
2125.509	208.88
2129.558	208.88
2133.602	214.88
2137.643	205.88
2141.681	207.88
2145.714	206.88
2149.744	208.88
2153.77	210.88
2157.793	188.88
2161.812	166.88
2165.827	179.88
2169.838	196.88
2173.846	188.88
2177.851	175.88
2181.851	194.88
2185.848	182.88
2189.841	181.88
2193.831	172.88
2197.817	176.88
2201.799	176.88
2205.778	168.88
2209.753	158.88
2213.725	162.88
2217.693	164.88
2221.657	164.88
2225.618	168.88
2229.575	167.88
2233.529	177.88
2237.479	176.88
2241.425	160.88
2245.368	150.88
2249.307	172.88
2253.243	152.88
2257.175	158.88
2261.104	146.88
2265.029	159.88
2268.95	156.88
2272.868	147.88
2276.783	139.88
2280.694	152.88
2284.601	146.88
2288.505	134.88
2292.405	151.88
2296.302	125.88
2300.195	129.88
2304.085	101.88
2307.971	131.88
2311.854	109.88
2315.734	118.88
2319.609	129.88
2323.482	106.88
2327.351	109.88
2331.216	117.88
2335.078	118.88
2338.937	116.88
2342.792	109.88
2346.643	111.88
2350.492	119.88
2354.336	109.88
2358.178	113.88
2362.015	113.88
2365.85	111.88
2369.681	112.88
2373.508	117.88
2377.333	116.88
2381.153	120.88
2384.971	109.88
2388.785	109.88
2392.595	102.88
2396.402	107.88
2400.206	82.88
2404.007	99.88
2407.804	99.88
2411.597	106.88
2415.388	103.88
2419.174	100.88
2422.958	102.88
2426.738	96.88
2430.515	103.88
2434.289	91.88
2438.059	99.88
2441.825	90.88
2445.589	104.88
2449.349	80.88
2453.106	95.88
2456.859	93.88
2460.61	98.88
2464.356	85.88
2468.1	85.88
2471.84	86.88
2475.577	84.88
2479.311	82.88
2483.041	85.88
2486.768	97.88
2490.492	95.88
2494.213	82.88
2497.93	75.88
2501.644	69.88
2505.355	78.88
2509.062	83.88
2512.766	76.88
2516.467	70.88
2520.165	78.88
2523.859	63.88
2527.551	91.88
2531.239	67.88
2534.923	86.88
2538.605	70.88
2542.283	75.88
2545.958	77.88
2549.63	79.88
2553.299	81.88
2556.964	68.88
2560.626	64.88
2564.285	73.88
2567.941	61.88
2571.594	54.88
2575.243	79.88
2578.89	59.88
2582.533	61.88
2586.173	63.88
2589.809	67.88
2593.443	44.88
2597.073	63.88
2600.701	63.88
2604.325	56.88
2607.946	50.88
2611.564	69.88
2615.178	60.88
2618.79	62.88
2622.398	56.88
2626.004	63.88
2629.606	62.88
2633.205	46.88
2636.801	61.88
2640.394	60.88
2643.983	49.88
2647.57	54.88
2651.153	50.88
2654.734	59.88
2658.311	35.88
2661.885	38.88
2665.456	46.88
2669.025	47.88
2672.589	41.88
2676.151	55.88
2679.71	54.88
2683.266	50.88
2686.819	39.88
2690.368	48.88
2693.915	56.88
2697.458	46.88
2700.999	49.88
2704.536	47.88
2708.071	48.88
2711.602	44.88
2715.13	45.88
2718.656	25.88
2722.178	42.88
2725.697	27.88
2729.214	32.88
2732.727	35.88
2736.237	25.88
2739.744	32.88
2743.249	34.88
2746.75	31.88
2750.248	20.88
2753.743	35.88
2757.236	37.88
2760.725	46.88
2764.211	14.88
2767.695	40.88
2771.175	40.88
2774.652	37.88
2778.127	34.88
2781.598	33.88
2785.067	32.88
2788.532	22.88
2791.995	38.88
2795.455	34.88
2798.911	40.88
2802.365	33.88
2805.816	38.88
2809.264	40.88
2812.709	29.88
2816.151	34.88
2819.59	31.88
2823.026	25.88
2826.46	30.88
2829.89	44.88
2833.318	6.88
2836.742	36.88
2840.164	31.88
2843.583	24.88
2846.999	35.88
2850.412	40.88
2853.822	32.88
2857.229	44.88
2860.634	37.88
2864.035	21.88
2867.434	36.88
2870.83	45.88
2874.223	27.88
2877.613	34.88
2881	32.88
2884.385	30.88
2887.766	34.88
2891.145	41.88
2894.521	37.88
2897.894	29.88
2901.264	49.88
2904.631	42.88
2907.996	49.88
2911.358	49.88
2914.717	42.88
2918.073	41.88
2921.426	36.88
2924.777	23.88
2928.124	38.88
2931.469	54.88
2934.811	34.88
2938.15	53.88
2941.487	47.88
2944.821	62.88
2948.152	50.88
2951.48	57.88
2954.805	37.88
2958.128	65.88
2961.447	46.88
2964.765	65.88
2968.079	52.88
2971.39	52.88
2974.699	52.88
2978.005	56.88
2981.308	52.88
2984.609	43.88
2987.907	59.88
2991.202	66.88
2994.494	48.88
2997.784	54.88
3001.07	54.88
3004.355	50.88
3007.636	58.88
3010.915	58.88
3014.191	55.88
3017.464	61.88
3020.734	61.88
3024.002	73.88
3027.267	67.88
3030.53	67.88
3033.789	66.88
3037.046	61.88
3040.301	60.88
3043.552	73.88
3046.801	79.88
3050.048	82.88
3053.291	94.88
3056.532	82.88
3059.771	67.88
3063.006	87.88
3066.239	83.88
3069.469	85.88
3072.697	89.88
3075.922	88.88
3079.144	91.88
3082.364	113.88
3085.581	82.88
3088.795	116.88
3092.007	114.88
3095.216	107.88
3098.423	108.88
3101.627	90.88
3104.828	116.88
3108.026	106.88
3111.222	134.88
3114.416	136.88
3117.607	121.88
3120.795	128.88
3123.98	136.88
3127.163	127.88
3130.344	135.88
3133.521	130.88
3136.696	152.88
3139.869	147.88
3143.039	134.88
3146.206	166.88
3149.371	166.88
3152.533	161.88
3155.693	146.88
3158.85	162.88
3162.005	162.88
3165.157	160.88
3168.306	163.88
3171.453	170.88
3174.597	154.88
3177.739	155.88
3180.878	171.88
3184.014	168.88
3187.149	169.88
3190.28	166.88
3193.409	180.88
3196.536	171.88
3199.659	171.88
3202.781	177.88
3205.9	160.88
3209.016	174.88
3212.13	166.88
3215.241	168.88
3218.35	160.88
3221.456	165.88
3224.56	150.88
3227.661	164.88
3230.76	156.88
3233.856	148.88
3236.95	155.88
3240.041	148.88
3243.13	157.88
3246.216	153.88
3249.3	157.88
3252.382	155.88
3255.46	144.88
3258.537	105.88
3261.611	140.88
3264.682	145.88
3267.751	149.88
3270.818	137.88
3273.882	151.88
3276.943	144.88
3280.002	154.88
3283.059	135.88
3286.113	140.88
3289.165	137.88
3292.214	129.88
3295.261	149.88
3298.306	120.88
3301.348	137.88
3304.387	112.88
3307.425	133.88
3310.459	128.88
3313.492	137.88
3316.521	127.88
3319.549	134.88
3322.574	131.88
3325.597	124.88
3328.617	118.88
3331.635	116.88
3334.65	108.88
3337.663	119.88
3340.674	109.88
3343.682	113.88
3346.688	120.88
3349.691	112.88
3352.692	117.88
3355.691	123.88
3358.687	116.88
3361.681	115.88
3364.673	111.88
3367.662	113.88
3370.649	115.88
3373.633	102.88
3376.615	103.88
3379.595	90.88
3382.572	107.88
3385.547	92.88
3388.52	91.88
3391.49	92.88
3394.458	93.88
3397.424	95.88
3400.387	81.88
3403.348	90.88
3406.307	94.88
3409.263	99.88
3412.217	90.88
3415.168	89.88
3418.118	96.88
3421.065	87.88
3424.009	97.88
3426.951	75.88
3429.891	83.88
3432.829	82.88
3435.764	89.88
3438.697	74.88
3441.628	89.88
3444.557	64.88
3447.483	62.88
3450.407	77.88
3453.328	56.88
3456.247	59.88
3459.164	56.88
3462.079	66.88
3464.991	55.88
3467.902	54.88
3470.809	53.88
3473.715	58.88
3476.618	44.88
3479.519	47.88
3482.418	30.88
3485.315	35.88
3488.209	37.88
3491.101	33.88
3493.99	22.88
3496.878	23.88
3499.763	32.88
3502.646	29.88
3505.527	20.88
3508.405	20.88
3511.281	13.88
3514.155	24.88
3517.027	24.88
3519.897	8.88
3522.764	17.88
3525.629	1.88
3528.492	14.88
3531.352	11.88
3534.211	12.88
3537.067	5.88
3539.921	5.88
3542.773	10.88
3545.622	0.88
3548.469	-8.12
3551.315	-4.12
3554.157	-0.12
3556.998	-13.12
3559.837	-0.12
3562.673	4.88
3565.507	-15.12
3568.339	-19.12
3571.169	-12.12
3573.996	-5.12
3576.822	-20.12
3579.645	-18.12
3582.466	-13.12
3585.285	-6.12
3588.101	-12.12
3590.916	-14.12
3593.728	-7.12
3596.538	-22.12
3599.346	-12.12
3602.152	-18.12
3604.956	-13.12
3607.757	-12.12
3610.556	-27.12
3613.354	-11.12
3616.149	-16.12
3618.942	-10.12
3621.732	-13.12
3624.521	-19.12
3627.307	-31.12
3630.092	-24.12
3632.874	-12.12
3635.654	-17.12
3638.432	-25.12
3641.208	-27.12
3643.982	-24.12
3646.753	-16.12
3649.523	-50.12
3652.29	-22.12
3655.055	-20.12
3657.818	-26.12
3660.579	-27.12
3663.338	-35.12
3666.095	-37.12
3668.849	-49.12
3671.602	-21.12
3674.352	-38.12
3677.101	-18.12
3679.847	-17.12
3682.591	-36.12
3685.333	-35.12
3688.073	-28.12
3690.811	-35.12
3693.547	-40.12
3696.281	-36.12
3699.013	-31.12
3701.742	-36.12
3704.47	-40.12
3707.195	-27.12
3709.919	-29.12
3712.64	-32.12
3715.359	-44.12
3718.076	-21.12
3720.792	-29.12
3723.505	-29.12
3726.216	-20.12
3728.925	-32.12
3731.632	-38.12
3734.336	-32.12
3737.039	-34.12
3739.74	-30.12
3742.439	-53.12
3745.136	-22.12
3747.83	-33.12
3750.523	-22.12
3753.213	-93.12
3755.902	-31.12
3758.589	-47.12
3761.273	-38.12
3763.956	-24.12
3766.636	-44.12
3769.315	-21.12
3771.991	-31.12
3774.665	-37.12
3777.338	-35.12
3780.008	-43.12
3782.677	-35.12
3785.343	-52.12
3788.007	-51.12
3790.67	-27.12
3793.33	-43.12
3795.989	-34.12
3798.645	-31.12
3801.299	-48.12
3803.952	-50.12
3806.602	-35.12
3809.251	-23.12
3811.897	-34.12
3814.542	-35.12
3817.184	-41.12
3819.825	-34.12
3822.463	-47.12
3825.1	-36.12
3827.735	-32.12
3830.367	-39.12
3832.998	-23.12
3835.627	-35.12
3838.253	-24.12
3840.878	-36.12
3843.501	-23.12
3846.122	-26.12
3848.741	-29.12
3851.358	-23.12
3853.973	-44.12
3856.586	-22.12
3859.197	-40.12
3861.806	-33.12
3864.414	-49.12
3867.019	-34.12
3869.622	-25.12
3872.224	-25.12
3874.823	-9.12
3877.421	9.88
3880.016	18.88
3882.61	57.88
3885.202	67.88
3887.792	47.88
3890.38	17.88
3892.966	-14.12
3895.55	-30.12
3898.132	-28.12
3900.713	-24.12
3903.291	-29.12
3905.868	-43.12
3908.442	-34.12
3911.015	-36.12
3913.586	-40.12
3916.155	-33.12
3918.722	-39.12
3921.287	-37.12
3923.85	-43.12
3926.411	-39.12
3928.971	-40.12
3931.528	-36.12
3934.084	-35.12
3936.638	-47.12
3939.19	-32.12
3941.74	-33.12
3944.288	-34.12
3946.834	-32.12
3949.378	-29.12
3951.921	-39.12
3954.462	-37.12
3957	-30.12
3959.537	-25.12
3962.072	-34.12
3964.606	-44.12
3967.137	-38.12
3969.667	-38.12
3972.194	-32.12
3974.72	-39.12
3977.244	-55.12
3979.766	-41.12
3982.286	-42.12
3984.805	-27.12
3987.321	-23.12
3989.836	-28.12
3992.349	-37.12
3994.86	-31.12
3997.369	-37.12
3999.877	-36.12
4002.382	-38.12
4004.886	-29.12
4007.388	-31.12
4009.888	-25.12
4012.386	-29.12
4014.883	-31.12
4017.377	-31.12
4019.87	-34.12
4022.361	-41.12
4024.85	-31.12
4027.338	-31.12
4029.823	-35.12
4032.307	-37.12
4034.789	-33.12
4037.269	-30.12
4039.747	-48.12
4042.224	-27.12
4044.699	-42.12
4047.172	-38.12
4049.643	-29.12
4052.112	-66.12
4054.58	-32.12
4057.046	-40.12
4059.51	-35.12
4061.972	-34.12
4064.432	-56.12
4066.891	-25.12
4069.348	-32.12
4071.803	-31.12
4074.256	-36.12
4076.708	-30.12
4079.158	-34.12
4081.606	-23.12
4084.052	-34.12
4086.497	-31.12
4088.939	-29.12
4091.38	-36.12
4093.819	-29.12
4096.257	3.88
4098.693	-6.12
4101.127	-4.12
4103.559	-3.12
4105.989	70.88
4108.418	76.88
4110.845	61.88
4113.27	62.88
4115.694	72.88
4118.115	60.88
4120.535	-29.12
4122.954	-27.12
4125.37	-21.12
4127.785	-27.12
4130.198	-28.12
4132.609	-28.12
4135.019	7.88
4137.427	0.88
4139.833	3.88
4142.237	-3.12
