Data from 2018-3-6_conc=6_n=2_RamanShift_01.txt Node
Date: Tue Mar 06 14:56:48 GMT+02:00 2018
User: LAB3
Spectrometer: QEPB0276
Trigger mode: 0
Integration Time (sec): 3.000000E1
Scans to average: 1
Electric dark correction enabled: true
Nonlinearity correction enabled: false
Boxcar width: 0
XAxis mode: Raman Shifts
Number of Pixels in Spectrum: 1044
>>>>>Begin Spectral Data<<<<<
160.701	53.5
166.742	67.5
172.777	102.5
178.805	182.5
184.826	432.5
190.841	869.5
196.849	1350.5
202.85	1715.5
208.845	1831.5
214.833	1800.5
220.815	1761.5
226.789	1737.5
232.758	1739.5
238.719	1696.5
244.674	1678.5
250.623	1644.5
256.565	1630.5
262.5	1598.5
268.429	1589.5
274.351	1555.5
280.267	1548.5
286.176	1550.5
292.079	1524.5
297.975	1540.5
303.865	1527.5
309.748	1506.5
315.625	1507.5
321.495	1519.5
327.359	1503.5
333.217	1497.5
339.068	1494.5
344.912	1517.5
350.751	1497.5
356.583	1517.5
362.408	1514.5
368.227	1531.5
374.04	1511.5
379.847	1527.5
385.647	1531.5
391.44	1519.5
397.228	1543.5
403.009	1547.5
408.784	1554.5
414.553	1555.5
420.315	1567.5
426.071	1550.5
431.821	1571.5
437.565	1560.5
443.302	1562.5
449.033	1547.5
454.758	1532.5
460.477	1529.5
466.189	1512.5
471.896	1492.5
477.596	1480.5
483.29	1470.5
488.978	1459.5
494.66	1447.5
500.335	1416.5
506.005	1325.5
511.668	1269.5
517.325	1208.5
522.977	1151.5
528.622	1103.5
534.261	1083.5
539.894	1050.5
545.521	1034.5
551.141	1016.5
556.756	998.5
562.365	984.5
567.968	999.5
573.565	975.5
579.155	980.5
584.74	951.5
590.319	970.5
595.892	970.5
601.459	975.5
607.02	981.5
612.575	962.5
618.124	947.5
623.667	921.5
629.204	919.5
634.735	890.5
640.261	882.5
645.781	850.5
651.294	864.5
656.802	867.5
662.304	866.5
667.8	882.5
673.29	860.5
678.775	874.5
684.254	856.5
689.726	844.5
695.193	845.5
700.655	835.5
706.11	833.5
711.56	836.5
717.004	836.5
722.442	804.5
727.874	828.5
733.301	828.5
738.722	805.5
744.137	812.5
749.547	813.5
754.951	809.5
760.349	807.5
765.741	830.5
771.128	818.5
776.509	841.5
781.885	851.5
787.254	871.5
792.618	859.5
797.977	864.5
803.33	851.5
808.677	844.5
814.019	847.5
819.355	835.5
824.686	825.5
830.011	810.5
835.33	821.5
840.644	839.5
845.952	798.5
851.255	812.5
856.552	791.5
861.844	777.5
867.13	755.5
872.41	755.5
877.686	760.5
882.955	757.5
888.219	744.5
893.478	724.5
898.731	725.5
903.979	716.5
909.221	715.5
914.458	700.5
919.69	695.5
924.916	692.5
930.136	701.5
935.351	687.5
940.561	708.5
945.766	705.5
950.965	704.5
956.158	686.5
961.347	686.5
966.529	674.5
971.707	678.5
976.879	669.5
982.046	653.5
987.208	634.5
992.364	658.5
997.515	646.5
1002.66	654.5
1007.801	648.5
1012.936	654.5
1018.066	642.5
1023.19	669.5
1028.309	687.5
1033.423	667.5
1038.532	679.5
1043.636	661.5
1048.734	660.5
1053.827	646.5
1058.915	629.5
1063.998	640.5
1069.075	630.5
1074.147	645.5
1079.214	624.5
1084.276	638.5
1089.333	630.5
1094.385	648.5
1099.431	647.5
1104.472	640.5
1109.509	612.5
1114.54	624.5
1119.565	607.5
1124.586	604.5
1129.602	595.5
1134.613	578.5
1139.618	587.5
1144.619	582.5
1149.614	581.5
1154.604	580.5
1159.589	579.5
1164.57	604.5
1169.545	615.5
1174.515	603.5
1179.48	596.5
1184.44	600.5
1189.395	596.5
1194.345	577.5
1199.29	586.5
1204.23	568.5
1209.165	562.5
1214.095	589.5
1219.021	573.5
1223.941	567.5
1228.856	581.5
1233.766	587.5
1238.672	594.5
1243.572	590.5
1248.467	576.5
1253.358	589.5
1258.244	554.5
1263.124	571.5
1268	554.5
1272.871	527.5
1277.737	538.5
1282.599	528.5
1287.455	529.5
1292.306	531.5
1297.153	520.5
1301.995	531.5
1306.832	537.5
1311.664	532.5
1316.491	521.5
1321.314	540.5
1326.132	510.5
1330.945	524.5
1335.753	514.5
1340.556	505.5
1345.354	494.5
1350.148	494.5
1354.937	480.5
1359.722	478.5
1364.501	460.5
1369.276	463.5
1374.046	478.5
1378.811	467.5
1383.572	477.5
1388.327	466.5
1393.079	457.5
1397.825	461.5
1402.567	461.5
1407.304	450.5
1412.036	448.5
1416.764	452.5
1421.487	438.5
1426.205	437.5
1430.919	451.5
1435.628	451.5
1440.333	450.5
1445.032	453.5
1449.727	459.5
1454.418	465.5
1459.104	456.5
1463.785	452.5
1468.462	455.5
1473.134	444.5
1477.802	446.5
1482.465	407.5
1487.123	429.5
1491.777	401.5
1496.426	394.5
1501.071	415.5
1505.711	410.5
1510.347	423.5
1514.978	411.5
1519.604	417.5
1524.226	421.5
1528.844	398.5
1533.457	412.5
1538.065	404.5
1542.669	419.5
1547.269	401.5
1551.864	408.5
1556.454	394.5
1561.041	403.5
1565.622	393.5
1570.199	414.5
1574.772	406.5
1579.34	417.5
1583.904	416.5
1588.464	436.5
1593.019	436.5
1597.569	416.5
1602.115	416.5
1606.657	414.5
1611.195	429.5
1615.728	423.5
1620.256	404.5
1624.78	397.5
1629.3	397.5
1633.816	419.5
1638.327	397.5
1642.834	412.5
1647.336	411.5
1651.834	428.5
1656.328	415.5
1660.817	407.5
1665.302	388.5
1669.783	404.5
1674.259	388.5
1678.732	383.5
1683.199	376.5
1687.663	356.5
1692.122	353.5
1696.577	371.5
1701.028	358.5
1705.474	339.5
1709.917	334.5
1714.355	322.5
1718.788	322.5
1723.218	314.5
1727.643	298.5
1732.064	308.5
1736.481	294.5
1740.893	301.5
1745.301	289.5
1749.705	259.5
1754.105	283.5
1758.501	269.5
1762.893	284.5
1767.28	254.5
1771.663	261.5
1776.042	259.5
1780.417	250.5
1784.787	256.5
1789.154	262.5
1793.516	260.5
1797.874	245.5
1802.228	244.5
1806.578	249.5
1810.924	260.5
1815.266	139.5
1819.603	254.5
1823.937	239.5
1828.266	246.5
1832.591	237.5
1836.913	241.5
1841.23	237.5
1845.543	231.5
1849.852	240.5
1854.156	230.5
1858.457	227.5
1862.754	226.5
1867.047	230.5
1871.335	246.5
1875.62	237.5
1879.9	237.5
1884.177	225.5
1888.449	233.5
1892.718	226.5
1896.982	234.5
1901.243	215.5
1905.499	221.5
1909.752	215.5
1914	187.5
1918.245	225.5
1922.485	229.5
1926.722	212.5
1930.954	204.5
1935.183	208.5
1939.408	232.5
1943.628	215.5
1947.845	213.5
1952.058	212.5
1956.267	208.5
1960.472	222.5
1964.673	211.5
1968.87	207.5
1973.063	207.5
1977.252	203.5
1981.438	202.5
1985.619	196.5
1989.797	189.5
1993.971	192.5
1998.14	209.5
2002.306	188.5
2006.469	201.5
2010.627	182.5
2014.781	189.5
2018.932	179.5
2023.078	208.5
2027.221	195.5
2031.36	181.5
2035.495	182.5
2039.627	183.5
2043.754	186.5
2047.878	175.5
2051.998	171.5
2056.114	169.5
2060.226	174.5
2064.334	179.5
2068.439	186.5
2072.54	182.5
2076.637	172.5
2080.73	176.5
2084.82	173.5
2088.906	165.5
2092.988	167.5
2097.066	167.5
2101.14	184.5
2105.211	175.5
2109.278	166.5
2113.342	164.5
2117.401	154.5
2121.457	151.5
2125.509	148.5
2129.558	166.5
2133.602	159.5
2137.643	162.5
2141.681	162.5
2145.714	158.5
2149.744	161.5
2153.77	155.5
2157.793	147.5
2161.812	124.5
2165.827	122.5
2169.838	162.5
2173.846	142.5
2177.851	137.5
2181.851	150.5
2185.848	131.5
2189.841	140.5
2193.831	134.5
2197.817	140.5
2201.799	137.5
2205.778	122.5
2209.753	119.5
2213.725	123.5
2217.693	122.5
2221.657	122.5
2225.618	131.5
2229.575	122.5
2233.529	126.5
2237.479	132.5
2241.425	108.5
2245.368	105.5
2249.307	118.5
2253.243	109.5
2257.175	123.5
2261.104	113.5
2265.029	111.5
2268.95	116.5
2272.868	110.5
2276.783	101.5
2280.694	109.5
2284.601	110.5
2288.505	111.5
2292.405	113.5
2296.302	89.5
2300.195	105.5
2304.085	70.5
2307.971	99.5
2311.854	76.5
2315.734	93.5
2319.609	97.5
2323.482	73.5
2327.351	83.5
2331.216	84.5
2335.078	91.5
2338.937	80.5
2342.792	75.5
2346.643	73.5
2350.492	86.5
2354.336	78.5
2358.178	83.5
2362.015	81.5
2365.85	75.5
2369.681	84.5
2373.508	80.5
2377.333	95.5
2381.153	85.5
2384.971	82.5
2388.785	86.5
2392.595	77.5
2396.402	72.5
2400.206	59.5
2404.007	69.5
2407.804	80.5
2411.597	81.5
2415.388	72.5
2419.174	72.5
2422.958	70.5
2426.738	67.5
2430.515	72.5
2434.289	63.5
2438.059	61.5
2441.825	65.5
2445.589	78.5
2449.349	58.5
2453.106	68.5
2456.859	61.5
2460.61	66.5
2464.356	50.5
2468.1	50.5
2471.84	52.5
2475.577	50.5
2479.311	52.5
2483.041	53.5
2486.768	69.5
2490.492	63.5
2494.213	57.5
2497.93	40.5
2501.644	41.5
2505.355	56.5
2509.062	54.5
2512.766	55.5
2516.467	48.5
2520.165	49.5
2523.859	43.5
2527.551	73.5
2531.239	44.5
2534.923	53.5
2538.605	53.5
2542.283	53.5
2545.958	50.5
2549.63	63.5
2553.299	60.5
2556.964	43.5
2560.626	51.5
2564.285	51.5
2567.941	37.5
2571.594	36.5
2575.243	53.5
2578.89	42.5
2582.533	39.5
2586.173	43.5
2589.809	50.5
2593.443	20.5
2597.073	38.5
2600.701	43.5
2604.325	40.5
2607.946	32.5
2611.564	52.5
2615.178	42.5
2618.79	49.5
2622.398	34.5
2626.004	46.5
2629.606	35.5
2633.205	28.5
2636.801	43.5
2640.394	41.5
2643.983	35.5
2647.57	26.5
2651.153	28.5
2654.734	42.5
2658.311	19.5
2661.885	27.5
2665.456	30.5
2669.025	32.5
2672.589	33.5
2676.151	44.5
2679.71	38.5
2683.266	24.5
2686.819	23.5
2690.368	35.5
2693.915	35.5
2697.458	30.5
2700.999	37.5
2704.536	30.5
2708.071	29.5
2711.602	29.5
2715.13	29.5
2718.656	11.5
2722.178	27.5
2725.697	10.5
2729.214	17.5
2732.727	29.5
2736.237	10.5
2739.744	11.5
2743.249	14.5
2746.75	24.5
2750.248	12.5
2753.743	21.5
2757.236	25.5
2760.725	32.5
2764.211	-2.5
2767.695	24.5
2771.175	20.5
2774.652	25.5
2778.127	20.5
2781.598	20.5
2785.067	23.5
2788.532	18.5
2791.995	23.5
2795.455	16.5
2798.911	31.5
2802.365	18.5
2805.816	23.5
2809.264	30.5
2812.709	14.5
2816.151	19.5
2819.59	8.5
2823.026	11.5
2826.46	8.5
2829.89	24.5
2833.318	-0.5
2836.742	18.5
2840.164	10.5
2843.583	21.5
2846.999	15.5
2850.412	22.5
2853.822	10.5
2857.229	32.5
2860.634	18.5
2864.035	4.5
2867.434	20.5
2870.83	27.5
2874.223	16.5
2877.613	15.5
2881	11.5
2884.385	17.5
2887.766	17.5
2891.145	15.5
2894.521	20.5
2897.894	13.5
2901.264	30.5
2904.631	23.5
2907.996	31.5
2911.358	33.5
2914.717	31.5
2918.073	17.5
2921.426	22.5
2924.777	4.5
2928.124	18.5
2931.469	29.5
2934.811	8.5
2938.15	38.5
2941.487	25.5
2944.821	44.5
2948.152	31.5
2951.48	29.5
2954.805	18.5
2958.128	42.5
2961.447	20.5
2964.765	45.5
2968.079	34.5
2971.39	35.5
2974.699	34.5
2978.005	34.5
2981.308	36.5
2984.609	23.5
2987.907	42.5
2991.202	42.5
2994.494	31.5
2997.784	38.5
3001.07	38.5
3004.355	35.5
3007.636	38.5
3010.915	44.5
3014.191	34.5
3017.464	43.5
3020.734	40.5
3024.002	44.5
3027.267	41.5
3030.53	43.5
3033.789	41.5
3037.046	39.5
3040.301	33.5
3043.552	50.5
3046.801	50.5
3050.048	48.5
3053.291	70.5
3056.532	57.5
3059.771	34.5
3063.006	63.5
3066.239	50.5
3069.469	61.5
3072.697	55.5
3075.922	48.5
3079.144	57.5
3082.364	79.5
3085.581	65.5
3088.795	88.5
3092.007	80.5
3095.216	82.5
3098.423	72.5
3101.627	52.5
3104.828	84.5
3108.026	78.5
3111.222	96.5
3114.416	106.5
3117.607	86.5
3120.795	96.5
3123.98	96.5
3127.163	80.5
3130.344	94.5
3133.521	89.5
3136.696	114.5
3139.869	104.5
3143.039	92.5
3146.206	123.5
3149.371	114.5
3152.533	106.5
3155.693	103.5
3158.85	115.5
3162.005	116.5
3165.157	111.5
3168.306	113.5
3171.453	127.5
3174.597	109.5
3177.739	104.5
3180.878	124.5
3184.014	125.5
3187.149	127.5
3190.28	119.5
3193.409	126.5
3196.536	130.5
3199.659	131.5
3202.781	129.5
3205.9	115.5
3209.016	127.5
3212.13	118.5
3215.241	115.5
3218.35	119.5
3221.456	116.5
3224.56	107.5
3227.661	113.5
3230.76	108.5
3233.856	103.5
3236.95	111.5
3240.041	102.5
3243.13	112.5
3246.216	115.5
3249.3	109.5
3252.382	113.5
3255.46	96.5
3258.537	61.5
3261.611	95.5
3264.682	104.5
3267.751	99.5
3270.818	96.5
3273.882	106.5
3276.943	101.5
3280.002	113.5
3283.059	96.5
3286.113	95.5
3289.165	90.5
3292.214	86.5
3295.261	112.5
3298.306	83.5
3301.348	99.5
3304.387	87.5
3307.425	92.5
3310.459	85.5
3313.492	100.5
3316.521	85.5
3319.549	96.5
3322.574	93.5
3325.597	79.5
3328.617	74.5
3331.635	79.5
3334.65	64.5
3337.663	84.5
3340.674	79.5
3343.682	85.5
3346.688	87.5
3349.691	78.5
3352.692	80.5
3355.691	87.5
3358.687	83.5
3361.681	90.5
3364.673	75.5
3367.662	84.5
3370.649	83.5
3373.633	71.5
3376.615	83.5
3379.595	59.5
3382.572	69.5
3385.547	58.5
3388.52	58.5
3391.49	65.5
3394.458	64.5
3397.424	68.5
3400.387	55.5
3403.348	66.5
3406.307	61.5
3409.263	63.5
3412.217	61.5
3415.168	63.5
3418.118	67.5
3421.065	56.5
3424.009	63.5
3426.951	48.5
3429.891	55.5
3432.829	56.5
3435.764	53.5
3438.697	55.5
3441.628	60.5
3444.557	43.5
3447.483	36.5
3450.407	50.5
3453.328	37.5
3456.247	41.5
3459.164	31.5
3462.079	50.5
3464.991	40.5
3467.902	35.5
3470.809	36.5
3473.715	37.5
3476.618	28.5
3479.519	34.5
3482.418	9.5
3485.315	19.5
3488.209	16.5
3491.101	21.5
3493.99	4.5
3496.878	13.5
3499.763	19.5
3502.646	15.5
3505.527	5.5
3508.405	5.5
3511.281	-3.5
3514.155	14.5
3517.027	4.5
3519.897	-3.5
3522.764	1.5
3525.629	-19.5
3528.492	-1.5
3531.352	-1.5
3534.211	-1.5
3537.067	-2.5
3539.921	5.5
3542.773	4.5
3545.622	-11.5
3548.469	-16.5
3551.315	-20.5
3554.157	-7.5
3556.998	-10.5
3559.837	-10.5
3562.673	-4.5
3565.507	-13.5
3568.339	-18.5
3571.169	-16.5
3573.996	-13.5
3576.822	-26.5
3579.645	-25.5
3582.466	-22.5
3585.285	-9.5
3588.101	-17.5
3590.916	-21.5
3593.728	-10.5
3596.538	-23.5
3599.346	-17.5
3602.152	-30.5
3604.956	-20.5
3607.757	-18.5
3610.556	-36.5
3613.354	-19.5
3616.149	-20.5
3618.942	-23.5
3621.732	-22.5
3624.521	-28.5
3627.307	-38.5
3630.092	-29.5
3632.874	-13.5
3635.654	-25.5
3638.432	-29.5
3641.208	-32.5
3643.982	-27.5
3646.753	-18.5
3649.523	-51.5
3652.29	-26.5
3655.055	-25.5
3657.818	-24.5
3660.579	-29.5
3663.338	-35.5
3666.095	-28.5
3668.849	-49.5
3671.602	-20.5
3674.352	-36.5
3677.101	-21.5
3679.847	-21.5
3682.591	-34.5
3685.333	-42.5
3688.073	-27.5
3690.811	-40.5
3693.547	-41.5
3696.281	-44.5
3699.013	-30.5
3701.742	-32.5
3704.47	-39.5
3707.195	-29.5
3709.919	-34.5
3712.64	-33.5
3715.359	-45.5
3718.076	-26.5
3720.792	-36.5
3723.505	-28.5
3726.216	-22.5
3728.925	-34.5
3731.632	-37.5
3734.336	-33.5
3737.039	-34.5
3739.74	-29.5
3742.439	-53.5
3745.136	-27.5
3747.83	-28.5
3750.523	-29.5
3753.213	-86.5
3755.902	-33.5
3758.589	-44.5
3761.273	-38.5
3763.956	-23.5
3766.636	-47.5
3769.315	-24.5
3771.991	-36.5
3774.665	-36.5
3777.338	-34.5
3780.008	-42.5
3782.677	-31.5
3785.343	-51.5
3788.007	-56.5
3790.67	-25.5
3793.33	-46.5
3795.989	-37.5
3798.645	-33.5
3801.299	-50.5
3803.952	-46.5
3806.602	-37.5
3809.251	-33.5
3811.897	-43.5
3814.542	-39.5
3817.184	-42.5
3819.825	-36.5
3822.463	-46.5
3825.1	-41.5
3827.735	-32.5
3830.367	-41.5
3832.998	-22.5
3835.627	-43.5
3838.253	-29.5
3840.878	-35.5
3843.501	-20.5
3846.122	-30.5
3848.741	-30.5
3851.358	-21.5
3853.973	-48.5
3856.586	-23.5
3859.197	-36.5
3861.806	-30.5
3864.414	-46.5
3867.019	-34.5
3869.622	-23.5
3872.224	-21.5
3874.823	-15.5
3877.421	10.5
3880.016	22.5
3882.61	47.5
3885.202	59.5
3887.792	44.5
3890.38	15.5
3892.966	-16.5
3895.55	-36.5
3898.132	-25.5
3900.713	-25.5
3903.291	-31.5
3905.868	-38.5
3908.442	-35.5
3911.015	-35.5
3913.586	-36.5
3916.155	-35.5
3918.722	-42.5
3921.287	-39.5
3923.85	-45.5
3926.411	-39.5
3928.971	-43.5
3931.528	-25.5
3934.084	-34.5
3936.638	-40.5
3939.19	-29.5
3941.74	-34.5
3944.288	-39.5
3946.834	-33.5
3949.378	-26.5
3951.921	-37.5
3954.462	-34.5
3957	-34.5
3959.537	-23.5
3962.072	-35.5
3964.606	-48.5
3967.137	-39.5
3969.667	-40.5
3972.194	-28.5
3974.72	-39.5
3977.244	-60.5
3979.766	-44.5
3982.286	-44.5
3984.805	-32.5
3987.321	-28.5
3989.836	-31.5
3992.349	-42.5
3994.86	-38.5
3997.369	-42.5
3999.877	-38.5
4002.382	-38.5
4004.886	-31.5
4007.388	-34.5
4009.888	-23.5
4012.386	-25.5
4014.883	-32.5
4017.377	-33.5
4019.87	-25.5
4022.361	-43.5
4024.85	-33.5
4027.338	-35.5
4029.823	-39.5
4032.307	-36.5
4034.789	-33.5
4037.269	-31.5
4039.747	-45.5
4042.224	-25.5
4044.699	-43.5
4047.172	-39.5
4049.643	-27.5
4052.112	-62.5
4054.58	-37.5
4057.046	-45.5
4059.51	-32.5
4061.972	-35.5
4064.432	-55.5
4066.891	-25.5
4069.348	-38.5
4071.803	-32.5
4074.256	-36.5
4076.708	-31.5
4079.158	-29.5
4081.606	-25.5
4084.052	-36.5
4086.497	-28.5
4088.939	-36.5
4091.38	-38.5
4093.819	-29.5
4096.257	0.5
4098.693	-7.5
4101.127	-5.5
4103.559	-3.5
4105.989	62.5
4108.418	63.5
4110.845	49.5
4113.27	52.5
4115.694	48.5
4118.115	42.5
4120.535	-30.5
4122.954	-28.5
4125.37	-23.5
4127.785	-31.5
4130.198	-25.5
4132.609	-30.5
4135.019	11.5
4137.427	1.5
4139.833	6.5
4142.237	-3.5
