Data from 2018-3-6_conc=5_n=5_RamanShift_01.txt Node
Date: Tue Mar 06 14:34:48 GMT+02:00 2018
User: LAB3
Spectrometer: QEPB0276
Trigger mode: 0
Integration Time (sec): 3.000000E1
Scans to average: 1
Electric dark correction enabled: true
Nonlinearity correction enabled: false
Boxcar width: 0
XAxis mode: Raman Shifts
Number of Pixels in Spectrum: 1044
>>>>>Begin Spectral Data<<<<<
160.701	58.38
166.742	86.38
172.777	117.38
178.805	218.38
184.826	508.38
190.841	1008.38
196.849	1581.38
202.85	1980.38
208.845	2095.38
214.833	2062.38
220.815	2003.38
226.789	2001.38
232.758	2006.38
238.719	1970.38
244.674	1947.38
250.623	1919.38
256.565	1874.38
262.5	1845.38
268.429	1844.38
274.351	1790.38
280.267	1779.38
286.176	1769.38
292.079	1771.38
297.975	1763.38
303.865	1759.38
309.748	1771.38
315.625	1733.38
321.495	1758.38
327.359	1737.38
333.217	1735.38
339.068	1741.38
344.912	1752.38
350.751	1748.38
356.583	1736.38
362.408	1765.38
368.227	1767.38
374.04	1765.38
379.847	1761.38
385.647	1799.38
391.44	1779.38
397.228	1785.38
403.009	1801.38
408.784	1790.38
414.553	1822.38
420.315	1817.38
426.071	1811.38
431.821	1822.38
437.565	1814.38
443.302	1806.38
449.033	1784.38
454.758	1797.38
460.477	1770.38
466.189	1752.38
471.896	1748.38
477.596	1738.38
483.29	1693.38
488.978	1712.38
494.66	1683.38
500.335	1657.38
506.005	1558.38
511.668	1501.38
517.325	1414.38
522.977	1353.38
528.622	1305.38
534.261	1278.38
539.894	1246.38
545.521	1241.38
551.141	1202.38
556.756	1181.38
562.365	1198.38
567.968	1174.38
573.565	1155.38
579.155	1175.38
584.74	1142.38
590.319	1146.38
595.892	1147.38
601.459	1160.38
607.02	1156.38
612.575	1153.38
618.124	1134.38
623.667	1096.38
629.204	1092.38
634.735	1089.38
640.261	1071.38
645.781	1029.38
651.294	1044.38
656.802	1039.38
662.304	1042.38
667.8	1054.38
673.29	1037.38
678.775	1040.38
684.254	1023.38
689.726	1012.38
695.193	1006.38
700.655	1005.38
706.11	1000.38
711.56	995.38
717.004	996.38
722.442	980.38
727.874	984.38
733.301	986.38
738.722	960.38
744.137	980.38
749.547	967.38
754.951	962.38
760.349	965.38
765.741	979.38
771.128	981.38
776.509	997.38
781.885	1006.38
787.254	1015.38
792.618	1027.38
797.977	1027.38
803.33	1027.38
808.677	998.38
814.019	1007.38
819.355	988.38
824.686	966.38
830.011	965.38
835.33	969.38
840.644	985.38
845.952	933.38
851.255	958.38
856.552	939.38
861.844	928.38
867.13	904.38
872.41	900.38
877.686	918.38
882.955	891.38
888.219	895.38
893.478	862.38
898.731	857.38
903.979	868.38
909.221	838.38
914.458	845.38
919.69	838.38
924.916	833.38
930.136	833.38
935.351	826.38
940.561	849.38
945.766	842.38
950.965	837.38
956.158	820.38
961.347	806.38
966.529	810.38
971.707	810.38
976.879	791.38
982.046	771.38
987.208	757.38
992.364	786.38
997.515	774.38
1002.66	779.38
1007.801	779.38
1012.936	779.38
1018.066	767.38
1023.19	795.38
1028.309	818.38
1033.423	805.38
1038.532	814.38
1043.636	795.38
1048.734	787.38
1053.827	783.38
1058.915	781.38
1063.998	782.38
1069.075	757.38
1074.147	773.38
1079.214	756.38
1084.276	776.38
1089.333	774.38
1094.385	779.38
1099.431	760.38
1104.472	773.38
1109.509	755.38
1114.54	736.38
1119.565	724.38
1124.586	730.38
1129.602	706.38
1134.613	688.38
1139.618	691.38
1144.619	700.38
1149.614	716.38
1154.604	706.38
1159.589	714.38
1164.57	720.38
1169.545	731.38
1174.515	711.38
1179.48	712.38
1184.44	704.38
1189.395	710.38
1194.345	692.38
1199.29	701.38
1204.23	672.38
1209.165	670.38
1214.095	690.38
1219.021	685.38
1223.941	687.38
1228.856	692.38
1233.766	703.38
1238.672	714.38
1243.572	696.38
1248.467	689.38
1253.358	680.38
1258.244	660.38
1263.124	674.38
1268	659.38
1272.871	622.38
1277.737	629.38
1282.599	629.38
1287.455	631.38
1292.306	639.38
1297.153	612.38
1301.995	644.38
1306.832	616.38
1311.664	622.38
1316.491	621.38
1321.314	634.38
1326.132	625.38
1330.945	620.38
1335.753	613.38
1340.556	596.38
1345.354	582.38
1350.148	581.38
1354.937	583.38
1359.722	573.38
1364.501	565.38
1369.276	565.38
1374.046	571.38
1378.811	545.38
1383.572	566.38
1388.327	572.38
1393.079	546.38
1397.825	544.38
1402.567	546.38
1407.304	538.38
1412.036	533.38
1416.764	538.38
1421.487	532.38
1426.205	523.38
1430.919	539.38
1435.628	530.38
1440.333	536.38
1445.032	544.38
1449.727	540.38
1454.418	554.38
1459.104	547.38
1463.785	532.38
1468.462	537.38
1473.134	523.38
1477.802	512.38
1482.465	491.38
1487.123	500.38
1491.777	471.38
1496.426	477.38
1501.071	489.38
1505.711	478.38
1510.347	500.38
1514.978	500.38
1519.604	493.38
1524.226	503.38
1528.844	485.38
1533.457	490.38
1538.065	492.38
1542.669	484.38
1547.269	479.38
1551.864	482.38
1556.454	479.38
1561.041	484.38
1565.622	485.38
1570.199	488.38
1574.772	490.38
1579.34	505.38
1583.904	498.38
1588.464	515.38
1593.019	504.38
1597.569	482.38
1602.115	493.38
1606.657	487.38
1611.195	512.38
1615.728	510.38
1620.256	479.38
1624.78	469.38
1629.3	486.38
1633.816	488.38
1638.327	473.38
1642.834	494.38
1647.336	496.38
1651.834	498.38
1656.328	499.38
1660.817	498.38
1665.302	474.38
1669.783	479.38
1674.259	465.38
1678.732	452.38
1683.199	452.38
1687.663	428.38
1692.122	425.38
1696.577	418.38
1701.028	420.38
1705.474	401.38
1709.917	393.38
1714.355	390.38
1718.788	385.38
1723.218	375.38
1727.643	361.38
1732.064	370.38
1736.481	351.38
1740.893	369.38
1745.301	350.38
1749.705	317.38
1754.105	337.38
1758.501	323.38
1762.893	334.38
1767.28	304.38
1771.663	316.38
1776.042	299.38
1780.417	303.38
1784.787	303.38
1789.154	311.38
1793.516	303.38
1797.874	303.38
1802.228	290.38
1806.578	288.38
1810.924	293.38
1815.266	188.38
1819.603	297.38
1823.937	289.38
1828.266	281.38
1832.591	282.38
1836.913	278.38
1841.23	281.38
1845.543	278.38
1849.852	286.38
1854.156	269.38
1858.457	272.38
1862.754	276.38
1867.047	276.38
1871.335	285.38
1875.62	286.38
1879.9	276.38
1884.177	270.38
1888.449	275.38
1892.718	274.38
1896.982	278.38
1901.243	256.38
1905.499	264.38
1909.752	247.38
1914	242.38
1918.245	268.38
1922.485	268.38
1926.722	252.38
1930.954	256.38
1935.183	261.38
1939.408	271.38
1943.628	267.38
1947.845	255.38
1952.058	257.38
1956.267	243.38
1960.472	262.38
1964.673	248.38
1968.87	245.38
1973.063	242.38
1977.252	239.38
1981.438	241.38
1985.619	234.38
1989.797	223.38
1993.971	229.38
1998.14	239.38
2002.306	228.38
2006.469	241.38
2010.627	222.38
2014.781	224.38
2018.932	216.38
2023.078	241.38
2027.221	231.38
2031.36	218.38
2035.495	218.38
2039.627	221.38
2043.754	223.38
2047.878	214.38
2051.998	212.38
2056.114	205.38
2060.226	210.38
2064.334	213.38
2068.439	213.38
2072.54	222.38
2076.637	202.38
2080.73	204.38
2084.82	210.38
2088.906	205.38
2092.988	200.38
2097.066	213.38
2101.14	222.38
2105.211	212.38
2109.278	207.38
2113.342	202.38
2117.401	191.38
2121.457	187.38
2125.509	188.38
2129.558	194.38
2133.602	189.38
2137.643	191.38
2141.681	189.38
2145.714	190.38
2149.744	188.38
2153.77	182.38
2157.793	175.38
2161.812	154.38
2165.827	157.38
2169.838	189.38
2173.846	169.38
2177.851	158.38
2181.851	177.38
2185.848	165.38
2189.841	168.38
2193.831	164.38
2197.817	159.38
2201.799	162.38
2205.778	159.38
2209.753	163.38
2213.725	144.38
2217.693	155.38
2221.657	141.38
2225.618	156.38
2229.575	156.38
2233.529	156.38
2237.479	162.38
2241.425	146.38
2245.368	134.38
2249.307	144.38
2253.243	136.38
2257.175	144.38
2261.104	131.38
2265.029	140.38
2268.95	135.38
2272.868	134.38
2276.783	124.38
2280.694	133.38
2284.601	132.38
2288.505	129.38
2292.405	131.38
2296.302	115.38
2300.195	117.38
2304.085	93.38
2307.971	121.38
2311.854	100.38
2315.734	113.38
2319.609	116.38
2323.482	100.38
2327.351	101.38
2331.216	100.38
2335.078	117.38
2338.937	104.38
2342.792	93.38
2346.643	98.38
2350.492	110.38
2354.336	97.38
2358.178	107.38
2362.015	99.38
2365.85	94.38
2369.681	101.38
2373.508	106.38
2377.333	111.38
2381.153	110.38
2384.971	99.38
2388.785	105.38
2392.595	83.38
2396.402	88.38
2400.206	74.38
2404.007	78.38
2407.804	93.38
2411.597	97.38
2415.388	90.38
2419.174	93.38
2422.958	93.38
2426.738	90.38
2430.515	98.38
2434.289	83.38
2438.059	81.38
2441.825	81.38
2445.589	97.38
2449.349	72.38
2453.106	84.38
2456.859	83.38
2460.61	90.38
2464.356	78.38
2468.1	67.38
2471.84	67.38
2475.577	70.38
2479.311	65.38
2483.041	71.38
2486.768	85.38
2490.492	85.38
2494.213	76.38
2497.93	66.38
2501.644	59.38
2505.355	67.38
2509.062	65.38
2512.766	66.38
2516.467	66.38
2520.165	70.38
2523.859	53.38
2527.551	90.38
2531.239	55.38
2534.923	74.38
2538.605	62.38
2542.283	67.38
2545.958	65.38
2549.63	71.38
2553.299	71.38
2556.964	55.38
2560.626	54.38
2564.285	63.38
2567.941	54.38
2571.594	51.38
2575.243	64.38
2578.89	58.38
2582.533	52.38
2586.173	53.38
2589.809	59.38
2593.443	28.38
2597.073	57.38
2600.701	60.38
2604.325	56.38
2607.946	53.38
2611.564	64.38
2615.178	57.38
2618.79	58.38
2622.398	43.38
2626.004	55.38
2629.606	50.38
2633.205	38.38
2636.801	52.38
2640.394	49.38
2643.983	39.38
2647.57	47.38
2651.153	44.38
2654.734	49.38
2658.311	25.38
2661.885	38.38
2665.456	34.38
2669.025	40.38
2672.589	33.38
2676.151	47.38
2679.71	50.38
2683.266	40.38
2686.819	35.38
2690.368	38.38
2693.915	44.38
2697.458	42.38
2700.999	50.38
2704.536	44.38
2708.071	40.38
2711.602	35.38
2715.13	38.38
2718.656	10.38
2722.178	38.38
2725.697	24.38
2729.214	30.38
2732.727	36.38
2736.237	17.38
2739.744	29.38
2743.249	23.38
2746.75	30.38
2750.248	19.38
2753.743	26.38
2757.236	28.38
2760.725	37.38
2764.211	10.38
2767.695	37.38
2771.175	35.38
2774.652	32.38
2778.127	24.38
2781.598	22.38
2785.067	34.38
2788.532	19.38
2791.995	32.38
2795.455	24.38
2798.911	33.38
2802.365	24.38
2805.816	30.38
2809.264	38.38
2812.709	27.38
2816.151	28.38
2819.59	15.38
2823.026	24.38
2826.46	17.38
2829.89	35.38
2833.318	11.38
2836.742	24.38
2840.164	29.38
2843.583	26.38
2846.999	18.38
2850.412	30.38
2853.822	27.38
2857.229	41.38
2860.634	33.38
2864.035	12.38
2867.434	35.38
2870.83	34.38
2874.223	25.38
2877.613	28.38
2881	22.38
2884.385	26.38
2887.766	22.38
2891.145	31.38
2894.521	29.38
2897.894	18.38
2901.264	37.38
2904.631	34.38
2907.996	37.38
2911.358	36.38
2914.717	41.38
2918.073	33.38
2921.426	27.38
2924.777	20.38
2928.124	30.38
2931.469	46.38
2934.811	25.38
2938.15	48.38
2941.487	33.38
2944.821	62.38
2948.152	37.38
2951.48	51.38
2954.805	30.38
2958.128	54.38
2961.447	41.38
2964.765	54.38
2968.079	41.38
2971.39	46.38
2974.699	45.38
2978.005	49.38
2981.308	44.38
2984.609	39.38
2987.907	48.38
2991.202	51.38
2994.494	43.38
2997.784	48.38
3001.07	50.38
3004.355	41.38
3007.636	51.38
3010.915	51.38
3014.191	51.38
3017.464	53.38
3020.734	52.38
3024.002	57.38
3027.267	53.38
3030.53	57.38
3033.789	57.38
3037.046	55.38
3040.301	50.38
3043.552	64.38
3046.801	65.38
3050.048	72.38
3053.291	86.38
3056.532	74.38
3059.771	52.38
3063.006	72.38
3066.239	70.38
3069.469	85.38
3072.697	70.38
3075.922	70.38
3079.144	73.38
3082.364	94.38
3085.581	81.38
3088.795	101.38
3092.007	93.38
3095.216	100.38
3098.423	91.38
3101.627	76.38
3104.828	94.38
3108.026	98.38
3111.222	112.38
3114.416	116.38
3117.607	114.38
3120.795	116.38
3123.98	111.38
3127.163	108.38
3130.344	115.38
3133.521	120.38
3136.696	129.38
3139.869	133.38
3143.039	117.38
3146.206	145.38
3149.371	141.38
3152.533	136.38
3155.693	131.38
3158.85	141.38
3162.005	145.38
3165.157	138.38
3168.306	138.38
3171.453	153.38
3174.597	137.38
3177.739	130.38
3180.878	148.38
3184.014	151.38
3187.149	146.38
3190.28	150.38
3193.409	152.38
3196.536	156.38
3199.659	158.38
3202.781	163.38
3205.9	144.38
3209.016	150.38
3212.13	151.38
3215.241	155.38
3218.35	150.38
3221.456	142.38
3224.56	140.38
3227.661	141.38
3230.76	140.38
3233.856	133.38
3236.95	142.38
3240.041	129.38
3243.13	147.38
3246.216	136.38
3249.3	143.38
3252.382	139.38
3255.46	129.38
3258.537	81.38
3261.611	130.38
3264.682	137.38
3267.751	134.38
3270.818	123.38
3273.882	136.38
3276.943	129.38
3280.002	141.38
3283.059	114.38
3286.113	131.38
3289.165	117.38
3292.214	114.38
3295.261	131.38
3298.306	108.38
3301.348	123.38
3304.387	110.38
3307.425	120.38
3310.459	119.38
3313.492	119.38
3316.521	113.38
3319.549	123.38
3322.574	116.38
3325.597	110.38
3328.617	106.38
3331.635	109.38
3334.65	93.38
3337.663	115.38
3340.674	111.38
3343.682	108.38
3346.688	114.38
3349.691	103.38
3352.692	104.38
3355.691	117.38
3358.687	107.38
3361.681	110.38
3364.673	101.38
3367.662	109.38
3370.649	106.38
3373.633	93.38
3376.615	103.38
3379.595	87.38
3382.572	88.38
3385.547	87.38
3388.52	79.38
3391.49	83.38
3394.458	94.38
3397.424	96.38
3400.387	79.38
3403.348	83.38
3406.307	79.38
3409.263	75.38
3412.217	86.38
3415.168	80.38
3418.118	91.38
3421.065	71.38
3424.009	90.38
3426.951	72.38
3429.891	77.38
3432.829	75.38
3435.764	72.38
3438.697	63.38
3441.628	81.38
3444.557	52.38
3447.483	59.38
3450.407	68.38
3453.328	53.38
3456.247	57.38
3459.164	53.38
3462.079	62.38
3464.991	54.38
3467.902	48.38
3470.809	55.38
3473.715	54.38
3476.618	41.38
3479.519	46.38
3482.418	16.38
3485.315	33.38
3488.209	28.38
3491.101	35.38
3493.99	16.38
3496.878	18.38
3499.763	28.38
3502.646	29.38
3505.527	13.38
3508.405	19.38
3511.281	7.38
3514.155	23.38
3517.027	14.38
3519.897	6.38
3522.764	15.38
3525.629	-2.62
3528.492	8.38
3531.352	15.38
3534.211	10.38
3537.067	2.38
3539.921	7.38
3542.773	16.38
3545.622	-0.62
3548.469	-8.62
3551.315	-9.62
3554.157	1.38
3556.998	-18.62
3559.837	-3.62
3562.673	-0.62
3565.507	-9.62
3568.339	-20.62
3571.169	-11.62
3573.996	-7.62
3576.822	-24.62
3579.645	-21.62
3582.466	-18.62
3585.285	-4.62
3588.101	-14.62
3590.916	-22.62
3593.728	-9.62
3596.538	-18.62
3599.346	-13.62
3602.152	-21.62
3604.956	-19.62
3607.757	-17.62
3610.556	-34.62
3613.354	-13.62
3616.149	-16.62
3618.942	-20.62
3621.732	-13.62
3624.521	-23.62
3627.307	-33.62
3630.092	-30.62
3632.874	-14.62
3635.654	-21.62
3638.432	-31.62
3641.208	-32.62
3643.982	-27.62
3646.753	-15.62
3649.523	-46.62
3652.29	-30.62
3655.055	-25.62
3657.818	-23.62
3660.579	-31.62
3663.338	-40.62
3666.095	-31.62
3668.849	-56.62
3671.602	-23.62
3674.352	-41.62
3677.101	-18.62
3679.847	-22.62
3682.591	-37.62
3685.333	-44.62
3688.073	-28.62
3690.811	-40.62
3693.547	-40.62
3696.281	-41.62
3699.013	-26.62
3701.742	-35.62
3704.47	-41.62
3707.195	-29.62
3709.919	-31.62
3712.64	-31.62
3715.359	-42.62
3718.076	-25.62
3720.792	-30.62
3723.505	-30.62
3726.216	-20.62
3728.925	-36.62
3731.632	-38.62
3734.336	-32.62
3737.039	-31.62
3739.74	-30.62
3742.439	-59.62
3745.136	-27.62
3747.83	-30.62
3750.523	-24.62
3753.213	-98.62
3755.902	-35.62
3758.589	-50.62
3761.273	-33.62
3763.956	-24.62
3766.636	-45.62
3769.315	-20.62
3771.991	-34.62
3774.665	-33.62
3777.338	-39.62
3780.008	-35.62
3782.677	-37.62
3785.343	-49.62
3788.007	-52.62
3790.67	-26.62
3793.33	-43.62
3795.989	-35.62
3798.645	-32.62
3801.299	-45.62
3803.952	-41.62
3806.602	-36.62
3809.251	-29.62
3811.897	-33.62
3814.542	-33.62
3817.184	-37.62
3819.825	-32.62
3822.463	-48.62
3825.1	-37.62
3827.735	-33.62
3830.367	-37.62
3832.998	-20.62
3835.627	-35.62
3838.253	-28.62
3840.878	-30.62
3843.501	-14.62
3846.122	-30.62
3848.741	-27.62
3851.358	-26.62
3853.973	-40.62
3856.586	-22.62
3859.197	-38.62
3861.806	-30.62
3864.414	-46.62
3867.019	-33.62
3869.622	-20.62
3872.224	-18.62
3874.823	-7.62
3877.421	10.38
3880.016	24.38
3882.61	53.38
3885.202	71.38
3887.792	52.38
3890.38	18.38
3892.966	-10.62
3895.55	-30.62
3898.132	-22.62
3900.713	-26.62
3903.291	-26.62
3905.868	-35.62
3908.442	-36.62
3911.015	-28.62
3913.586	-33.62
3916.155	-35.62
3918.722	-39.62
3921.287	-38.62
3923.85	-48.62
3926.411	-40.62
3928.971	-43.62
3931.528	-30.62
3934.084	-35.62
3936.638	-40.62
3939.19	-27.62
3941.74	-27.62
3944.288	-30.62
3946.834	-35.62
3949.378	-26.62
3951.921	-41.62
3954.462	-33.62
3957	-28.62
3959.537	-19.62
3962.072	-34.62
3964.606	-46.62
3967.137	-36.62
3969.667	-36.62
3972.194	-25.62
3974.72	-38.62
3977.244	-56.62
3979.766	-38.62
3982.286	-45.62
3984.805	-32.62
3987.321	-25.62
3989.836	-32.62
3992.349	-42.62
3994.86	-31.62
3997.369	-41.62
3999.877	-32.62
4002.382	-39.62
4004.886	-29.62
4007.388	-30.62
4009.888	-23.62
4012.386	-26.62
4014.883	-29.62
4017.377	-29.62
4019.87	-30.62
4022.361	-39.62
4024.85	-29.62
4027.338	-27.62
4029.823	-35.62
4032.307	-32.62
4034.789	-28.62
4037.269	-33.62
4039.747	-48.62
4042.224	-18.62
4044.699	-39.62
4047.172	-35.62
4049.643	-30.62
4052.112	-57.62
4054.58	-33.62
4057.046	-39.62
4059.51	-31.62
4061.972	-31.62
4064.432	-49.62
4066.891	-22.62
4069.348	-28.62
4071.803	-26.62
4074.256	-35.62
4076.708	-26.62
4079.158	-30.62
4081.606	-21.62
4084.052	-31.62
4086.497	-26.62
4088.939	-33.62
4091.38	-37.62
4093.819	-25.62
4096.257	2.38
4098.693	-7.62
4101.127	-5.62
4103.559	-2.62
4105.989	64.38
4108.418	70.38
4110.845	49.38
4113.27	63.38
4115.694	72.38
4118.115	61.38
4120.535	-30.62
4122.954	-26.62
4125.37	-20.62
4127.785	-29.62
4130.198	-22.62
4132.609	-29.62
4135.019	10.38
4137.427	1.38
4139.833	6.38
4142.237	-4.62
