Data from 2018-3-6_conc=2_n=2_RamanShift_05.txt Node
Date: Tue Mar 06 12:46:49 GMT+02:00 2018
User: LAB3
Spectrometer: QEPB0276
Trigger mode: 0
Integration Time (sec): 3.000000E1
Scans to average: 1
Electric dark correction enabled: true
Nonlinearity correction enabled: false
Boxcar width: 0
XAxis mode: Raman Shifts
Number of Pixels in Spectrum: 1044
>>>>>Begin Spectral Data<<<<<
160.701	168.5
166.742	202.5
172.777	310.5
178.805	605.5
184.826	1373.5
190.841	2765.5
196.849	4369.5
202.85	5592.5
208.845	6044.5
214.833	6085.5
220.815	6027.5
226.789	6061.5
232.758	6082.5
238.719	6102.5
244.674	6074.5
250.623	6080.5
256.565	6057.5
262.5	6017.5
268.429	5968.5
274.351	5954.5
280.267	5972.5
286.176	6000.5
292.079	6037.5
297.975	6065.5
303.865	6091.5
309.748	6072.5
315.625	6074.5
321.495	6117.5
327.359	6118.5
333.217	6163.5
339.068	6208.5
344.912	6212.5
350.751	6229.5
356.583	6272.5
362.408	6296.5
368.227	6376.5
374.04	6338.5
379.847	6410.5
385.647	6454.5
391.44	6486.5
397.228	6540.5
403.009	6553.5
408.784	6568.5
414.553	6599.5
420.315	6626.5
426.071	6609.5
431.821	6660.5
437.565	6674.5
443.302	6652.5
449.033	6641.5
454.758	6578.5
460.477	6481.5
466.189	6458.5
471.896	6356.5
477.596	6302.5
483.29	6296.5
488.978	6286.5
494.66	6189.5
500.335	6023.5
506.005	5714.5
511.668	5410.5
517.325	5066.5
522.977	4828.5
528.622	4631.5
534.261	4507.5
539.894	4399.5
545.521	4340.5
551.141	4234.5
556.756	4178.5
562.365	4144.5
567.968	4121.5
573.565	4077.5
579.155	4062.5
584.74	4030.5
590.319	4017.5
595.892	4023.5
601.459	4048.5
607.02	4062.5
612.575	3993.5
618.124	3934.5
623.667	3842.5
629.204	3784.5
634.735	3733.5
640.261	3696.5
645.781	3633.5
651.294	3641.5
656.802	3614.5
662.304	3630.5
667.8	3602.5
673.29	3580.5
678.775	3606.5
684.254	3553.5
689.726	3535.5
695.193	3533.5
700.655	3493.5
706.11	3489.5
711.56	3438.5
717.004	3441.5
722.442	3416.5
727.874	3402.5
733.301	3427.5
738.722	3377.5
744.137	3401.5
749.547	3368.5
754.951	3398.5
760.349	3395.5
765.741	3422.5
771.128	3459.5
776.509	3479.5
781.885	3573.5
787.254	3596.5
792.618	3634.5
797.977	3643.5
803.33	3581.5
808.677	3585.5
814.019	3556.5
819.355	3528.5
824.686	3478.5
830.011	3446.5
835.33	3431.5
840.644	3421.5
845.952	3391.5
851.255	3351.5
856.552	3295.5
861.844	3269.5
867.13	3225.5
872.41	3165.5
877.686	3211.5
882.955	3175.5
888.219	3131.5
893.478	3081.5
898.731	2996.5
903.979	2978.5
909.221	2932.5
914.458	2890.5
919.69	2900.5
924.916	2911.5
930.136	2930.5
935.351	2917.5
940.561	2935.5
945.766	2903.5
950.965	2916.5
956.158	2843.5
961.347	2828.5
966.529	2801.5
971.707	2785.5
976.879	2730.5
982.046	2711.5
987.208	2698.5
992.364	2688.5
997.515	2683.5
1002.66	2711.5
1007.801	2751.5
1012.936	2779.5
1018.066	2757.5
1023.19	2794.5
1028.309	2828.5
1033.423	2845.5
1038.532	2847.5
1043.636	2819.5
1048.734	2818.5
1053.827	2785.5
1058.915	2756.5
1063.998	2749.5
1069.075	2710.5
1074.147	2718.5
1079.214	2704.5
1084.276	2729.5
1089.333	2753.5
1094.385	2730.5
1099.431	2727.5
1104.472	2707.5
1109.509	2640.5
1114.54	2610.5
1119.565	2585.5
1124.586	2573.5
1129.602	2518.5
1134.613	2484.5
1139.618	2480.5
1144.619	2488.5
1149.614	2507.5
1154.604	2501.5
1159.589	2507.5
1164.57	2523.5
1169.545	2534.5
1174.515	2527.5
1179.48	2499.5
1184.44	2474.5
1189.395	2478.5
1194.345	2445.5
1199.29	2445.5
1204.23	2424.5
1209.165	2421.5
1214.095	2464.5
1219.021	2442.5
1223.941	2459.5
1228.856	2477.5
1233.766	2479.5
1238.672	2480.5
1243.572	2476.5
1248.467	2438.5
1253.358	2391.5
1258.244	2367.5
1263.124	2353.5
1268	2302.5
1272.871	2259.5
1277.737	2254.5
1282.599	2222.5
1287.455	2230.5
1292.306	2232.5
1297.153	2245.5
1301.995	2240.5
1306.832	2261.5
1311.664	2247.5
1316.491	2250.5
1321.314	2272.5
1326.132	2217.5
1330.945	2193.5
1335.753	2160.5
1340.556	2124.5
1345.354	2092.5
1350.148	2073.5
1354.937	2048.5
1359.722	2036.5
1364.501	1987.5
1369.276	2010.5
1374.046	2009.5
1378.811	1987.5
1383.572	1979.5
1388.327	1992.5
1393.079	1959.5
1397.825	1938.5
1402.567	1934.5
1407.304	1904.5
1412.036	1903.5
1416.764	1938.5
1421.487	1903.5
1426.205	1906.5
1430.919	1919.5
1435.628	1940.5
1440.333	1921.5
1445.032	1933.5
1449.727	1964.5
1454.418	1994.5
1459.104	2006.5
1463.785	1947.5
1468.462	1941.5
1473.134	1898.5
1477.802	1862.5
1482.465	1818.5
1487.123	1803.5
1491.777	1788.5
1496.426	1789.5
1501.071	1820.5
1505.711	1800.5
1510.347	1802.5
1514.978	1821.5
1519.604	1825.5
1524.226	1853.5
1528.844	1826.5
1533.457	1803.5
1538.065	1788.5
1542.669	1778.5
1547.269	1755.5
1551.864	1762.5
1556.454	1724.5
1561.041	1741.5
1565.622	1733.5
1570.199	1742.5
1574.772	1765.5
1579.34	1786.5
1583.904	1803.5
1588.464	1808.5
1593.019	1790.5
1597.569	1787.5
1602.115	1799.5
1606.657	1765.5
1611.195	1787.5
1615.728	1799.5
1620.256	1748.5
1624.78	1738.5
1629.3	1776.5
1633.816	1781.5
1638.327	1778.5
1642.834	1796.5
1647.336	1819.5
1651.834	1830.5
1656.328	1823.5
1660.817	1821.5
1665.302	1800.5
1669.783	1789.5
1674.259	1750.5
1678.732	1712.5
1683.199	1679.5
1687.663	1630.5
1692.122	1603.5
1696.577	1569.5
1701.028	1557.5
1705.474	1500.5
1709.917	1490.5
1714.355	1485.5
1718.788	1451.5
1723.218	1440.5
1727.643	1418.5
1732.064	1399.5
1736.481	1365.5
1740.893	1351.5
1745.301	1321.5
1749.705	1255.5
1754.105	1265.5
1758.501	1238.5
1762.893	1212.5
1767.28	1190.5
1771.663	1186.5
1776.042	1166.5
1780.417	1171.5
1784.787	1162.5
1789.154	1167.5
1793.516	1188.5
1797.874	1175.5
1802.228	1166.5
1806.578	1172.5
1810.924	1166.5
1815.266	1055.5
1819.603	1138.5
1823.937	1105.5
1828.266	1101.5
1832.591	1091.5
1836.913	1078.5
1841.23	1055.5
1845.543	1055.5
1849.852	1079.5
1854.156	1078.5
1858.457	1063.5
1862.754	1064.5
1867.047	1070.5
1871.335	1093.5
1875.62	1092.5
1879.9	1086.5
1884.177	1071.5
1888.449	1084.5
1892.718	1069.5
1896.982	1071.5
1901.243	1052.5
1905.499	1049.5
1909.752	1047.5
1914	1033.5
1918.245	1055.5
1922.485	1053.5
1926.722	1054.5
1930.954	1055.5
1935.183	1070.5
1939.408	1074.5
1943.628	1078.5
1947.845	1065.5
1952.058	1039.5
1956.267	1031.5
1960.472	1017.5
1964.673	997.5
1968.87	973.5
1973.063	961.5
1977.252	944.5
1981.438	917.5
1985.619	928.5
1989.797	904.5
1993.971	921.5
1998.14	913.5
2002.306	906.5
2006.469	910.5
2010.627	898.5
2014.781	886.5
2018.932	874.5
2023.078	905.5
2027.221	901.5
2031.36	862.5
2035.495	866.5
2039.627	853.5
2043.754	858.5
2047.878	834.5
2051.998	833.5
2056.114	830.5
2060.226	830.5
2064.334	848.5
2068.439	851.5
2072.54	862.5
2076.637	839.5
2080.73	853.5
2084.82	850.5
2088.906	860.5
2092.988	845.5
2097.066	855.5
2101.14	849.5
2105.211	835.5
2109.278	822.5
2113.342	808.5
2117.401	795.5
2121.457	789.5
2125.509	785.5
2129.558	783.5
2133.602	766.5
2137.643	765.5
2141.681	764.5
2145.714	756.5
2149.744	751.5
2153.77	738.5
2157.793	721.5
2161.812	706.5
2165.827	701.5
2169.838	712.5
2173.846	689.5
2177.851	688.5
2181.851	684.5
2185.848	670.5
2189.841	656.5
2193.831	648.5
2197.817	651.5
2201.799	651.5
2205.778	624.5
2209.753	624.5
2213.725	616.5
2217.693	634.5
2221.657	626.5
2225.618	617.5
2229.575	623.5
2233.529	609.5
2237.479	609.5
2241.425	600.5
2245.368	593.5
2249.307	596.5
2253.243	577.5
2257.175	572.5
2261.104	550.5
2265.029	564.5
2268.95	546.5
2272.868	537.5
2276.783	530.5
2280.694	520.5
2284.601	519.5
2288.505	513.5
2292.405	522.5
2296.302	484.5
2300.195	502.5
2304.085	464.5
2307.971	481.5
2311.854	458.5
2315.734	472.5
2319.609	459.5
2323.482	433.5
2327.351	454.5
2331.216	443.5
2335.078	450.5
2338.937	436.5
2342.792	441.5
2346.643	437.5
2350.492	442.5
2354.336	430.5
2358.178	440.5
2362.015	438.5
2365.85	431.5
2369.681	430.5
2373.508	441.5
2377.333	441.5
2381.153	436.5
2384.971	422.5
2388.785	434.5
2392.595	410.5
2396.402	413.5
2400.206	400.5
2404.007	405.5
2407.804	420.5
2411.597	409.5
2415.388	402.5
2419.174	405.5
2422.958	408.5
2426.738	399.5
2430.515	407.5
2434.289	392.5
2438.059	388.5
2441.825	387.5
2445.589	400.5
2449.349	373.5
2453.106	383.5
2456.859	374.5
2460.61	378.5
2464.356	362.5
2468.1	344.5
2471.84	359.5
2475.577	358.5
2479.311	351.5
2483.041	359.5
2486.768	371.5
2490.492	365.5
2494.213	359.5
2497.93	347.5
2501.644	348.5
2505.355	352.5
2509.062	348.5
2512.766	348.5
2516.467	341.5
2520.165	336.5
2523.859	326.5
2527.551	364.5
2531.239	331.5
2534.923	342.5
2538.605	333.5
2542.283	335.5
2545.958	334.5
2549.63	339.5
2553.299	345.5
2556.964	323.5
2560.626	331.5
2564.285	329.5
2567.941	313.5
2571.594	320.5
2575.243	329.5
2578.89	318.5
2582.533	312.5
2586.173	309.5
2589.809	304.5
2593.443	285.5
2597.073	303.5
2600.701	303.5
2604.325	289.5
2607.946	280.5
2611.564	300.5
2615.178	295.5
2618.79	296.5
2622.398	276.5
2626.004	289.5
2629.606	287.5
2633.205	270.5
2636.801	279.5
2640.394	272.5
2643.983	272.5
2647.57	262.5
2651.153	256.5
2654.734	261.5
2658.311	239.5
2661.885	240.5
2665.456	251.5
2669.025	246.5
2672.589	240.5
2676.151	256.5
2679.71	252.5
2683.266	247.5
2686.819	234.5
2690.368	243.5
2693.915	235.5
2697.458	235.5
2700.999	232.5
2704.536	236.5
2708.071	228.5
2711.602	232.5
2715.13	228.5
2718.656	208.5
2722.178	229.5
2725.697	205.5
2729.214	217.5
2732.727	222.5
2736.237	207.5
2739.744	224.5
2743.249	216.5
2746.75	225.5
2750.248	210.5
2753.743	215.5
2757.236	214.5
2760.725	220.5
2764.211	189.5
2767.695	219.5
2771.175	208.5
2774.652	212.5
2778.127	209.5
2781.598	200.5
2785.067	209.5
2788.532	196.5
2791.995	211.5
2795.455	204.5
2798.911	214.5
2802.365	202.5
2805.816	209.5
2809.264	217.5
2812.709	206.5
2816.151	205.5
2819.59	205.5
2823.026	212.5
2826.46	205.5
2829.89	226.5
2833.318	188.5
2836.742	209.5
2840.164	217.5
2843.583	215.5
2846.999	215.5
2850.412	224.5
2853.822	214.5
2857.229	230.5
2860.634	225.5
2864.035	210.5
2867.434	236.5
2870.83	248.5
2874.223	239.5
2877.613	249.5
2881	247.5
2884.385	246.5
2887.766	239.5
2891.145	258.5
2894.521	249.5
2897.894	244.5
2901.264	255.5
2904.631	246.5
2907.996	258.5
2911.358	262.5
2914.717	261.5
2918.073	253.5
2921.426	250.5
2924.777	243.5
2928.124	266.5
2931.469	286.5
2934.811	268.5
2938.15	299.5
2941.487	286.5
2944.821	308.5
2948.152	284.5
2951.48	292.5
2954.805	264.5
2958.128	297.5
2961.447	271.5
2964.765	291.5
2968.079	274.5
2971.39	278.5
2974.699	290.5
2978.005	287.5
2981.308	290.5
2984.609	279.5
2987.907	291.5
2991.202	309.5
2994.494	291.5
2997.784	306.5
3001.07	296.5
3004.355	300.5
3007.636	294.5
3010.915	296.5
3014.191	310.5
3017.464	305.5
3020.734	309.5
3024.002	308.5
3027.267	302.5
3030.53	309.5
3033.789	308.5
3037.046	311.5
3040.301	306.5
3043.552	324.5
3046.801	327.5
3050.048	349.5
3053.291	360.5
3056.532	348.5
3059.771	351.5
3063.006	377.5
3066.239	372.5
3069.469	396.5
3072.697	387.5
3075.922	392.5
3079.144	407.5
3082.364	434.5
3085.581	418.5
3088.795	457.5
3092.007	459.5
3095.216	474.5
3098.423	464.5
3101.627	458.5
3104.828	484.5
3108.026	496.5
3111.222	517.5
3114.416	536.5
3117.607	532.5
3120.795	534.5
3123.98	546.5
3127.163	541.5
3130.344	557.5
3133.521	571.5
3136.696	601.5
3139.869	599.5
3143.039	590.5
3146.206	637.5
3149.371	635.5
3152.533	628.5
3155.693	621.5
3158.85	643.5
3162.005	650.5
3165.157	639.5
3168.306	632.5
3171.453	652.5
3174.597	648.5
3177.739	653.5
3180.878	654.5
3184.014	665.5
3187.149	655.5
3190.28	661.5
3193.409	662.5
3196.536	663.5
3199.659	661.5
3202.781	667.5
3205.9	656.5
3209.016	660.5
3212.13	660.5
3215.241	654.5
3218.35	661.5
3221.456	640.5
3224.56	629.5
3227.661	634.5
3230.76	630.5
3233.856	617.5
3236.95	626.5
3240.041	610.5
3243.13	619.5
3246.216	613.5
3249.3	622.5
3252.382	611.5
3255.46	604.5
3258.537	558.5
3261.611	595.5
3264.682	601.5
3267.751	593.5
3270.818	588.5
3273.882	594.5
3276.943	595.5
3280.002	598.5
3283.059	577.5
3286.113	581.5
3289.165	557.5
3292.214	551.5
3295.261	563.5
3298.306	521.5
3301.348	539.5
3304.387	518.5
3307.425	526.5
3310.459	510.5
3313.492	517.5
3316.521	510.5
3319.549	517.5
3322.574	502.5
3325.597	505.5
3328.617	489.5
3331.635	491.5
3334.65	477.5
3337.663	480.5
3340.674	482.5
3343.682	482.5
3346.688	489.5
3349.691	481.5
3352.692	482.5
3355.691	478.5
3358.687	479.5
3361.681	472.5
3364.673	468.5
3367.662	472.5
3370.649	462.5
3373.633	447.5
3376.615	450.5
3379.595	437.5
3382.572	436.5
3385.547	426.5
3388.52	417.5
3391.49	410.5
3394.458	410.5
3397.424	418.5
3400.387	402.5
3403.348	408.5
3406.307	402.5
3409.263	406.5
3412.217	404.5
3415.168	399.5
3418.118	402.5
3421.065	370.5
3424.009	387.5
3426.951	368.5
3429.891	367.5
3432.829	371.5
3435.764	359.5
3438.697	347.5
3441.628	352.5
3444.557	332.5
3447.483	333.5
3450.407	327.5
3453.328	301.5
3456.247	305.5
3459.164	289.5
3462.079	291.5
3464.991	277.5
3467.902	270.5
3470.809	273.5
3473.715	272.5
3476.618	249.5
3479.519	253.5
3482.418	230.5
3485.315	234.5
3488.209	228.5
3491.101	226.5
3493.99	211.5
3496.878	208.5
3499.763	205.5
3502.646	201.5
3505.527	189.5
3508.405	182.5
3511.281	170.5
3514.155	177.5
3517.027	175.5
3519.897	150.5
3522.764	166.5
3525.629	135.5
3528.492	145.5
3531.352	144.5
3534.211	132.5
3537.067	123.5
3539.921	120.5
3542.773	118.5
3545.622	104.5
3548.469	92.5
3551.315	93.5
3554.157	97.5
3556.998	91.5
3559.837	89.5
3562.673	84.5
3565.507	77.5
3568.339	67.5
3571.169	69.5
3573.996	71.5
3576.822	48.5
3579.645	58.5
3582.466	57.5
3585.285	66.5
3588.101	52.5
3590.916	47.5
3593.728	51.5
3596.538	42.5
3599.346	45.5
3602.152	35.5
3604.956	41.5
3607.757	36.5
3610.556	21.5
3613.354	40.5
3616.149	38.5
3618.942	34.5
3621.732	36.5
3624.521	23.5
3627.307	10.5
3630.092	14.5
3632.874	30.5
3635.654	18.5
3638.432	11.5
3641.208	10.5
3643.982	9.5
3646.753	17.5
3649.523	-6.5
3652.29	9.5
3655.055	14.5
3657.818	9.5
3660.579	2.5
3663.338	-9.5
3666.095	-2.5
3668.849	-21.5
3671.602	1.5
3674.352	-17.5
3677.101	-1.5
3679.847	0.5
3682.591	-17.5
3685.333	-20.5
3688.073	-8.5
3690.811	-21.5
3693.547	-21.5
3696.281	-28.5
3699.013	-11.5
3701.742	-13.5
3704.47	-27.5
3707.195	-11.5
3709.919	-13.5
3712.64	-20.5
3715.359	-32.5
3718.076	-7.5
3720.792	-20.5
3723.505	-14.5
3726.216	-7.5
3728.925	-27.5
3731.632	-31.5
3734.336	-22.5
3737.039	-20.5
3739.74	-17.5
3742.439	-47.5
3745.136	-15.5
3747.83	-17.5
3750.523	-18.5
3753.213	-88.5
3755.902	-27.5
3758.589	-40.5
3761.273	-29.5
3763.956	-19.5
3766.636	-40.5
3769.315	-18.5
3771.991	-26.5
3774.665	-32.5
3777.338	-26.5
3780.008	-38.5
3782.677	-26.5
3785.343	-40.5
3788.007	-50.5
3790.67	-24.5
3793.33	-37.5
3795.989	-33.5
3798.645	-27.5
3801.299	-39.5
3803.952	-36.5
3806.602	-31.5
3809.251	-27.5
3811.897	-30.5
3814.542	-32.5
3817.184	-37.5
3819.825	-28.5
3822.463	-40.5
3825.1	-35.5
3827.735	-31.5
3830.367	-40.5
3832.998	-18.5
3835.627	-36.5
3838.253	-24.5
3840.878	-33.5
3843.501	-20.5
3846.122	-30.5
3848.741	-24.5
3851.358	-24.5
3853.973	-41.5
3856.586	-26.5
3859.197	-35.5
3861.806	-28.5
3864.414	-43.5
3867.019	-29.5
3869.622	-16.5
3872.224	-13.5
3874.823	7.5
3877.421	40.5
3880.016	71.5
3882.61	132.5
3885.202	140.5
3887.792	102.5
3890.38	55.5
3892.966	6.5
3895.55	-25.5
3898.132	-19.5
3900.713	-23.5
3903.291	-30.5
3905.868	-37.5
3908.442	-32.5
3911.015	-33.5
3913.586	-41.5
3916.155	-34.5
3918.722	-40.5
3921.287	-34.5
3923.85	-42.5
3926.411	-41.5
3928.971	-42.5
3931.528	-30.5
3934.084	-34.5
3936.638	-48.5
3939.19	-28.5
3941.74	-26.5
3944.288	-36.5
3946.834	-32.5
3949.378	-28.5
3951.921	-39.5
3954.462	-33.5
3957	-29.5
3959.537	-17.5
3962.072	-32.5
3964.606	-47.5
3967.137	-37.5
3969.667	-36.5
3972.194	-26.5
3974.72	-37.5
3977.244	-54.5
3979.766	-35.5
3982.286	-37.5
3984.805	-27.5
3987.321	-18.5
3989.836	-27.5
3992.349	-34.5
3994.86	-32.5
3997.369	-36.5
3999.877	-31.5
4002.382	-32.5
4004.886	-23.5
4007.388	-29.5
4009.888	-20.5
4012.386	-25.5
4014.883	-27.5
4017.377	-29.5
4019.87	-23.5
4022.361	-36.5
4024.85	-31.5
4027.338	-22.5
4029.823	-36.5
4032.307	-32.5
4034.789	-24.5
4037.269	-27.5
4039.747	-38.5
4042.224	-18.5
4044.699	-32.5
4047.172	-28.5
4049.643	-21.5
4052.112	-49.5
4054.58	-28.5
4057.046	-39.5
4059.51	-27.5
4061.972	-26.5
4064.432	-44.5
4066.891	-14.5
4069.348	-30.5
4071.803	-27.5
4074.256	-34.5
4076.708	-19.5
4079.158	-28.5
4081.606	-17.5
4084.052	-23.5
4086.497	-25.5
4088.939	-25.5
4091.38	-31.5
4093.819	-25.5
4096.257	-2.5
4098.693	-5.5
4101.127	-4.5
4103.559	-0.5
4105.989	154.5
4108.418	154.5
4110.845	139.5
4113.27	151.5
4115.694	159.5
4118.115	143.5
4120.535	-21.5
4122.954	-23.5
4125.37	-17.5
4127.785	-23.5
4130.198	-16.5
4132.609	-27.5
4135.019	8.5
4137.427	1.5
4139.833	6.5
4142.237	-3.5
