Data from 2018-3-6_conc=6_n=9_RamanShift_02.txt Node
Date: Tue Mar 06 15:19:18 GMT+02:00 2018
User: LAB3
Spectrometer: QEPB0276
Trigger mode: 0
Integration Time (sec): 3.000000E1
Scans to average: 1
Electric dark correction enabled: true
Nonlinearity correction enabled: false
Boxcar width: 0
XAxis mode: Raman Shifts
Number of Pixels in Spectrum: 1044
>>>>>Begin Spectral Data<<<<<
160.701	40.88
166.742	54.88
172.777	76.88
178.805	142.88
184.826	358.88
190.841	730.88
196.849	1116.88
202.85	1420.88
208.845	1512.88
214.833	1480.88
220.815	1442.88
226.789	1435.88
232.758	1453.88
238.719	1418.88
244.674	1387.88
250.623	1366.88
256.565	1347.88
262.5	1328.88
268.429	1315.88
274.351	1287.88
280.267	1285.88
286.176	1289.88
292.079	1291.88
297.975	1287.88
303.865	1294.88
309.748	1260.88
315.625	1269.88
321.495	1266.88
327.359	1274.88
333.217	1272.88
339.068	1249.88
344.912	1285.88
350.751	1262.88
356.583	1280.88
362.408	1280.88
368.227	1269.88
374.04	1301.88
379.847	1300.88
385.647	1319.88
391.44	1299.88
397.228	1299.88
403.009	1317.88
408.784	1322.88
414.553	1340.88
420.315	1328.88
426.071	1308.88
431.821	1319.88
437.565	1331.88
443.302	1300.88
449.033	1291.88
454.758	1299.88
460.477	1302.88
466.189	1277.88
471.896	1288.88
477.596	1260.88
483.29	1245.88
488.978	1242.88
494.66	1229.88
500.335	1187.88
506.005	1128.88
511.668	1086.88
517.325	1016.88
522.977	959.88
528.622	941.88
534.261	930.88
539.894	888.88
545.521	884.88
551.141	854.88
556.756	845.88
562.365	848.88
567.968	836.88
573.565	818.88
579.155	837.88
584.74	817.88
590.319	828.88
595.892	819.88
601.459	830.88
607.02	818.88
612.575	812.88
618.124	815.88
623.667	788.88
629.204	775.88
634.735	781.88
640.261	751.88
645.781	730.88
651.294	735.88
656.802	743.88
662.304	743.88
667.8	754.88
673.29	737.88
678.775	733.88
684.254	748.88
689.726	723.88
695.193	721.88
700.655	718.88
706.11	718.88
711.56	700.88
717.004	707.88
722.442	679.88
727.874	696.88
733.301	700.88
738.722	672.88
744.137	688.88
749.547	670.88
754.951	681.88
760.349	687.88
765.741	703.88
771.128	685.88
776.509	709.88
781.885	727.88
787.254	740.88
792.618	721.88
797.977	733.88
803.33	724.88
808.677	709.88
814.019	723.88
819.355	702.88
824.686	699.88
830.011	681.88
835.33	690.88
840.644	719.88
845.952	678.88
851.255	684.88
856.552	671.88
861.844	663.88
867.13	645.88
872.41	638.88
877.686	651.88
882.955	638.88
888.219	634.88
893.478	617.88
898.731	629.88
903.979	627.88
909.221	604.88
914.458	593.88
919.69	595.88
924.916	596.88
930.136	607.88
935.351	590.88
940.561	605.88
945.766	608.88
950.965	601.88
956.158	581.88
961.347	581.88
966.529	585.88
971.707	576.88
976.879	562.88
982.046	554.88
987.208	536.88
992.364	558.88
997.515	551.88
1002.66	568.88
1007.801	555.88
1012.936	562.88
1018.066	535.88
1023.19	566.88
1028.309	577.88
1033.423	571.88
1038.532	576.88
1043.636	562.88
1048.734	561.88
1053.827	556.88
1058.915	538.88
1063.998	548.88
1069.075	547.88
1074.147	545.88
1079.214	535.88
1084.276	555.88
1089.333	549.88
1094.385	557.88
1099.431	540.88
1104.472	544.88
1109.509	523.88
1114.54	527.88
1119.565	521.88
1124.586	511.88
1129.602	504.88
1134.613	475.88
1139.618	487.88
1144.619	504.88
1149.614	501.88
1154.604	503.88
1159.589	495.88
1164.57	530.88
1169.545	515.88
1174.515	507.88
1179.48	496.88
1184.44	510.88
1189.395	515.88
1194.345	492.88
1199.29	494.88
1204.23	487.88
1209.165	482.88
1214.095	497.88
1219.021	487.88
1223.941	479.88
1228.856	493.88
1233.766	507.88
1238.672	496.88
1243.572	495.88
1248.467	491.88
1253.358	491.88
1258.244	475.88
1263.124	486.88
1268	475.88
1272.871	450.88
1277.737	455.88
1282.599	445.88
1287.455	450.88
1292.306	448.88
1297.153	439.88
1301.995	451.88
1306.832	444.88
1311.664	448.88
1316.491	445.88
1321.314	451.88
1326.132	448.88
1330.945	445.88
1335.753	436.88
1340.556	427.88
1345.354	419.88
1350.148	418.88
1354.937	422.88
1359.722	408.88
1364.501	399.88
1369.276	414.88
1374.046	416.88
1378.811	396.88
1383.572	408.88
1388.327	405.88
1393.079	384.88
1397.825	384.88
1402.567	385.88
1407.304	380.88
1412.036	380.88
1416.764	383.88
1421.487	360.88
1426.205	367.88
1430.919	380.88
1435.628	379.88
1440.333	374.88
1445.032	381.88
1449.727	370.88
1454.418	395.88
1459.104	392.88
1463.785	376.88
1468.462	377.88
1473.134	375.88
1477.802	372.88
1482.465	345.88
1487.123	363.88
1491.777	326.88
1496.426	337.88
1501.071	361.88
1505.711	343.88
1510.347	359.88
1514.978	363.88
1519.604	359.88
1524.226	370.88
1528.844	345.88
1533.457	357.88
1538.065	360.88
1542.669	359.88
1547.269	351.88
1551.864	354.88
1556.454	332.88
1561.041	339.88
1565.622	340.88
1570.199	349.88
1574.772	353.88
1579.34	348.88
1583.904	362.88
1588.464	364.88
1593.019	378.88
1597.569	348.88
1602.115	357.88
1606.657	355.88
1611.195	363.88
1615.728	361.88
1620.256	357.88
1624.78	326.88
1629.3	346.88
1633.816	347.88
1638.327	350.88
1642.834	355.88
1647.336	355.88
1651.834	377.88
1656.328	359.88
1660.817	350.88
1665.302	340.88
1669.783	332.88
1674.259	330.88
1678.732	330.88
1683.199	317.88
1687.663	308.88
1692.122	315.88
1696.577	309.88
1701.028	307.88
1705.474	284.88
1709.917	289.88
1714.355	274.88
1718.788	280.88
1723.218	262.88
1727.643	251.88
1732.064	268.88
1736.481	244.88
1740.893	257.88
1745.301	248.88
1749.705	228.88
1754.105	248.88
1758.501	235.88
1762.893	239.88
1767.28	219.88
1771.663	222.88
1776.042	214.88
1780.417	213.88
1784.787	231.88
1789.154	225.88
1793.516	226.88
1797.874	219.88
1802.228	215.88
1806.578	206.88
1810.924	220.88
1815.266	100.88
1819.603	220.88
1823.937	198.88
1828.266	207.88
1832.591	209.88
1836.913	205.88
1841.23	189.88
1845.543	191.88
1849.852	201.88
1854.156	194.88
1858.457	191.88
1862.754	187.88
1867.047	196.88
1871.335	212.88
1875.62	202.88
1879.9	198.88
1884.177	186.88
1888.449	195.88
1892.718	197.88
1896.982	203.88
1901.243	184.88
1905.499	194.88
1909.752	191.88
1914	178.88
1918.245	200.88
1922.485	197.88
1926.722	194.88
1930.954	182.88
1935.183	198.88
1939.408	206.88
1943.628	198.88
1947.845	189.88
1952.058	192.88
1956.267	180.88
1960.472	187.88
1964.673	178.88
1968.87	186.88
1973.063	176.88
1977.252	177.88
1981.438	166.88
1985.619	166.88
1989.797	156.88
1993.971	161.88
1998.14	168.88
2002.306	164.88
2006.469	166.88
2010.627	158.88
2014.781	160.88
2018.932	151.88
2023.078	171.88
2027.221	166.88
2031.36	158.88
2035.495	156.88
2039.627	155.88
2043.754	160.88
2047.878	143.88
2051.998	146.88
2056.114	150.88
2060.226	145.88
2064.334	150.88
2068.439	161.88
2072.54	158.88
2076.637	148.88
2080.73	145.88
2084.82	144.88
2088.906	150.88
2092.988	153.88
2097.066	163.88
2101.14	158.88
2105.211	160.88
2109.278	146.88
2113.342	143.88
2117.401	130.88
2121.457	130.88
2125.509	127.88
2129.558	141.88
2133.602	136.88
2137.643	133.88
2141.681	138.88
2145.714	128.88
2149.744	134.88
2153.77	127.88
2157.793	127.88
2161.812	103.88
2165.827	106.88
2169.838	128.88
2173.846	114.88
2177.851	118.88
2181.851	118.88
2185.848	115.88
2189.841	117.88
2193.831	110.88
2197.817	112.88
2201.799	109.88
2205.778	103.88
2209.753	103.88
2213.725	98.88
2217.693	111.88
2221.657	96.88
2225.618	113.88
2229.575	102.88
2233.529	115.88
2237.479	109.88
2241.425	100.88
2245.368	97.88
2249.307	101.88
2253.243	89.88
2257.175	101.88
2261.104	90.88
2265.029	94.88
2268.95	106.88
2272.868	84.88
2276.783	84.88
2280.694	92.88
2284.601	87.88
2288.505	85.88
2292.405	96.88
2296.302	67.88
2300.195	86.88
2304.085	55.88
2307.971	84.88
2311.854	65.88
2315.734	72.88
2319.609	78.88
2323.482	53.88
2327.351	60.88
2331.216	69.88
2335.078	74.88
2338.937	70.88
2342.792	69.88
2346.643	68.88
2350.492	73.88
2354.336	67.88
2358.178	73.88
2362.015	75.88
2365.85	65.88
2369.681	60.88
2373.508	69.88
2377.333	81.88
2381.153	72.88
2384.971	70.88
2388.785	68.88
2392.595	54.88
2396.402	61.88
2400.206	37.88
2404.007	52.88
2407.804	63.88
2411.597	65.88
2415.388	54.88
2419.174	55.88
2422.958	56.88
2426.738	54.88
2430.515	56.88
2434.289	46.88
2438.059	43.88
2441.825	51.88
2445.589	64.88
2449.349	35.88
2453.106	53.88
2456.859	49.88
2460.61	52.88
2464.356	44.88
2468.1	34.88
2471.84	40.88
2475.577	43.88
2479.311	35.88
2483.041	40.88
2486.768	56.88
2490.492	58.88
2494.213	44.88
2497.93	37.88
2501.644	34.88
2505.355	45.88
2509.062	39.88
2512.766	42.88
2516.467	32.88
2520.165	37.88
2523.859	33.88
2527.551	59.88
2531.239	35.88
2534.923	48.88
2538.605	37.88
2542.283	44.88
2545.958	44.88
2549.63	48.88
2553.299	52.88
2556.964	31.88
2560.626	34.88
2564.285	42.88
2567.941	23.88
2571.594	26.88
2575.243	42.88
2578.89	32.88
2582.533	32.88
2586.173	39.88
2589.809	37.88
2593.443	10.88
2597.073	32.88
2600.701	34.88
2604.325	29.88
2607.946	23.88
2611.564	39.88
2615.178	36.88
2618.79	37.88
2622.398	23.88
2626.004	31.88
2629.606	33.88
2633.205	24.88
2636.801	29.88
2640.394	29.88
2643.983	23.88
2647.57	22.88
2651.153	19.88
2654.734	29.88
2658.311	4.88
2661.885	17.88
2665.456	20.88
2669.025	23.88
2672.589	19.88
2676.151	33.88
2679.71	30.88
2683.266	21.88
2686.819	13.88
2690.368	18.88
2693.915	27.88
2697.458	22.88
2700.999	26.88
2704.536	27.88
2708.071	22.88
2711.602	18.88
2715.13	21.88
2718.656	6.88
2722.178	20.88
2725.697	9.88
2729.214	15.88
2732.727	18.88
2736.237	4.88
2739.744	9.88
2743.249	5.88
2746.75	21.88
2750.248	4.88
2753.743	16.88
2757.236	18.88
2760.725	18.88
2764.211	-5.12
2767.695	16.88
2771.175	11.88
2774.652	19.88
2778.127	7.88
2781.598	6.88
2785.067	18.88
2788.532	4.88
2791.995	16.88
2795.455	1.88
2798.911	16.88
2802.365	-2.12
2805.816	6.88
2809.264	17.88
2812.709	6.88
2816.151	13.88
2819.59	-0.12
2823.026	8.88
2826.46	5.88
2829.89	18.88
2833.318	-0.12
2836.742	4.88
2840.164	8.88
2843.583	10.88
2846.999	13.88
2850.412	8.88
2853.822	5.88
2857.229	20.88
2860.634	16.88
2864.035	-3.12
2867.434	17.88
2870.83	17.88
2874.223	10.88
2877.613	14.88
2881	3.88
2884.385	7.88
2887.766	5.88
2891.145	15.88
2894.521	11.88
2897.894	1.88
2901.264	23.88
2904.631	22.88
2907.996	23.88
2911.358	27.88
2914.717	17.88
2918.073	12.88
2921.426	10.88
2924.777	-1.12
2928.124	9.88
2931.469	24.88
2934.811	11.88
2938.15	27.88
2941.487	13.88
2944.821	35.88
2948.152	21.88
2951.48	24.88
2954.805	10.88
2958.128	30.88
2961.447	21.88
2964.765	32.88
2968.079	20.88
2971.39	22.88
2974.699	27.88
2978.005	29.88
2981.308	19.88
2984.609	10.88
2987.907	27.88
2991.202	32.88
2994.494	20.88
2997.784	28.88
3001.07	23.88
3004.355	23.88
3007.636	24.88
3010.915	26.88
3014.191	22.88
3017.464	28.88
3020.734	30.88
3024.002	32.88
3027.267	32.88
3030.53	32.88
3033.789	32.88
3037.046	26.88
3040.301	34.88
3043.552	37.88
3046.801	43.88
3050.048	50.88
3053.291	58.88
3056.532	46.88
3059.771	32.88
3063.006	45.88
3066.239	42.88
3069.469	55.88
3072.697	42.88
3075.922	38.88
3079.144	42.88
3082.364	64.88
3085.581	52.88
3088.795	70.88
3092.007	65.88
3095.216	65.88
3098.423	55.88
3101.627	35.88
3104.828	64.88
3108.026	54.88
3111.222	78.88
3114.416	83.88
3117.607	72.88
3120.795	72.88
3123.98	69.88
3127.163	62.88
3130.344	72.88
3133.521	66.88
3136.696	88.88
3139.869	77.88
3143.039	69.88
3146.206	100.88
3149.371	94.88
3152.533	93.88
3155.693	79.88
3158.85	99.88
3162.005	95.88
3165.157	92.88
3168.306	99.88
3171.453	104.88
3174.597	88.88
3177.739	78.88
3180.878	98.88
3184.014	104.88
3187.149	101.88
3190.28	95.88
3193.409	102.88
3196.536	105.88
3199.659	112.88
3202.781	104.88
3205.9	95.88
3209.016	100.88
3212.13	97.88
3215.241	93.88
3218.35	98.88
3221.456	92.88
3224.56	85.88
3227.661	92.88
3230.76	92.88
3233.856	83.88
3236.95	91.88
3240.041	82.88
3243.13	93.88
3246.216	91.88
3249.3	97.88
3252.382	86.88
3255.46	81.88
3258.537	34.88
3261.611	76.88
3264.682	87.88
3267.751	89.88
3270.818	71.88
3273.882	93.88
3276.943	76.88
3280.002	99.88
3283.059	72.88
3286.113	81.88
3289.165	74.88
3292.214	70.88
3295.261	91.88
3298.306	63.88
3301.348	80.88
3304.387	69.88
3307.425	80.88
3310.459	71.88
3313.492	86.88
3316.521	68.88
3319.549	80.88
3322.574	75.88
3325.597	67.88
3328.617	65.88
3331.635	73.88
3334.65	46.88
3337.663	65.88
3340.674	60.88
3343.682	66.88
3346.688	76.88
3349.691	56.88
3352.692	55.88
3355.691	70.88
3358.687	58.88
3361.681	62.88
3364.673	51.88
3367.662	61.88
3370.649	62.88
3373.633	54.88
3376.615	68.88
3379.595	42.88
3382.572	51.88
3385.547	46.88
3388.52	43.88
3391.49	52.88
3394.458	56.88
3397.424	55.88
3400.387	42.88
3403.348	52.88
3406.307	53.88
3409.263	45.88
3412.217	54.88
3415.168	49.88
3418.118	56.88
3421.065	45.88
3424.009	57.88
3426.951	43.88
3429.891	42.88
3432.829	39.88
3435.764	48.88
3438.697	34.88
3441.628	46.88
3444.557	27.88
3447.483	24.88
3450.407	35.88
3453.328	29.88
3456.247	28.88
3459.164	26.88
3462.079	33.88
3464.991	25.88
3467.902	24.88
3470.809	24.88
3473.715	28.88
3476.618	12.88
3479.519	15.88
3482.418	1.88
3485.315	9.88
3488.209	11.88
3491.101	15.88
3493.99	-1.12
3496.878	6.88
3499.763	6.88
3502.646	10.88
3505.527	2.88
3508.405	-0.12
3511.281	-9.12
3514.155	7.88
3517.027	-0.12
3519.897	-10.12
3522.764	3.88
3525.629	-15.12
3528.492	2.88
3531.352	-0.12
3534.211	0.88
3537.067	-7.12
3539.921	-5.12
3542.773	1.88
3545.622	-15.12
3548.469	-23.12
3551.315	-16.12
3554.157	-9.12
3556.998	-20.12
3559.837	-14.12
3562.673	-17.12
3565.507	-18.12
3568.339	-24.12
3571.169	-22.12
3573.996	-19.12
3576.822	-33.12
3579.645	-29.12
3582.466	-28.12
3585.285	-18.12
3588.101	-18.12
3590.916	-22.12
3593.728	-17.12
3596.538	-19.12
3599.346	-21.12
3602.152	-31.12
3604.956	-20.12
3607.757	-21.12
3610.556	-33.12
3613.354	-15.12
3616.149	-22.12
3618.942	-18.12
3621.732	-20.12
3624.521	-23.12
3627.307	-30.12
3630.092	-29.12
3632.874	-13.12
3635.654	-27.12
3638.432	-30.12
3641.208	-31.12
3643.982	-31.12
3646.753	-17.12
3649.523	-54.12
3652.29	-28.12
3655.055	-24.12
3657.818	-26.12
3660.579	-31.12
3663.338	-38.12
3666.095	-36.12
3668.849	-53.12
3671.602	-26.12
3674.352	-43.12
3677.101	-23.12
3679.847	-26.12
3682.591	-39.12
3685.333	-43.12
3688.073	-33.12
3690.811	-38.12
3693.547	-44.12
3696.281	-44.12
3699.013	-29.12
3701.742	-37.12
3704.47	-42.12
3707.195	-27.12
3709.919	-31.12
3712.64	-36.12
3715.359	-39.12
3718.076	-21.12
3720.792	-30.12
3723.505	-24.12
3726.216	-18.12
3728.925	-29.12
3731.632	-42.12
3734.336	-29.12
3737.039	-31.12
3739.74	-28.12
3742.439	-57.12
3745.136	-25.12
3747.83	-30.12
3750.523	-26.12
3753.213	-98.12
3755.902	-30.12
3758.589	-49.12
3761.273	-37.12
3763.956	-23.12
3766.636	-45.12
3769.315	-25.12
3771.991	-35.12
3774.665	-42.12
3777.338	-32.12
3780.008	-48.12
3782.677	-39.12
3785.343	-49.12
3788.007	-56.12
3790.67	-28.12
3793.33	-45.12
3795.989	-39.12
3798.645	-30.12
3801.299	-47.12
3803.952	-43.12
3806.602	-39.12
3809.251	-28.12
3811.897	-37.12
3814.542	-36.12
3817.184	-36.12
3819.825	-30.12
3822.463	-45.12
3825.1	-35.12
3827.735	-32.12
3830.367	-37.12
3832.998	-20.12
3835.627	-34.12
3838.253	-27.12
3840.878	-33.12
3843.501	-18.12
3846.122	-28.12
3848.741	-26.12
3851.358	-22.12
3853.973	-42.12
3856.586	-26.12
3859.197	-39.12
3861.806	-31.12
3864.414	-45.12
3867.019	-31.12
3869.622	-20.12
3872.224	-21.12
3874.823	-17.12
3877.421	1.88
3880.016	11.88
3882.61	39.88
3885.202	47.88
3887.792	31.88
3890.38	6.88
3892.966	-16.12
3895.55	-38.12
3898.132	-24.12
3900.713	-29.12
3903.291	-34.12
3905.868	-45.12
3908.442	-34.12
3911.015	-36.12
3913.586	-36.12
3916.155	-36.12
3918.722	-40.12
3921.287	-38.12
3923.85	-48.12
3926.411	-39.12
3928.971	-40.12
3931.528	-32.12
3934.084	-36.12
3936.638	-46.12
3939.19	-28.12
3941.74	-37.12
3944.288	-39.12
3946.834	-36.12
3949.378	-30.12
3951.921	-41.12
3954.462	-39.12
3957	-32.12
3959.537	-18.12
3962.072	-34.12
3964.606	-49.12
3967.137	-34.12
3969.667	-38.12
3972.194	-26.12
3974.72	-38.12
3977.244	-56.12
3979.766	-41.12
3982.286	-36.12
3984.805	-30.12
3987.321	-22.12
3989.836	-31.12
3992.349	-40.12
3994.86	-32.12
3997.369	-40.12
3999.877	-37.12
4002.382	-37.12
4004.886	-30.12
4007.388	-32.12
4009.888	-23.12
4012.386	-27.12
4014.883	-35.12
4017.377	-35.12
4019.87	-28.12
4022.361	-46.12
4024.85	-35.12
4027.338	-33.12
4029.823	-35.12
4032.307	-37.12
4034.789	-34.12
4037.269	-35.12
4039.747	-45.12
4042.224	-28.12
4044.699	-46.12
4047.172	-37.12
4049.643	-27.12
4052.112	-57.12
4054.58	-32.12
4057.046	-45.12
4059.51	-32.12
4061.972	-35.12
4064.432	-51.12
4066.891	-21.12
4069.348	-32.12
4071.803	-29.12
4074.256	-33.12
4076.708	-28.12
4079.158	-29.12
4081.606	-22.12
4084.052	-33.12
4086.497	-28.12
4088.939	-30.12
4091.38	-40.12
4093.819	-25.12
4096.257	0.88
4098.693	-7.12
4101.127	-3.12
4103.559	-1.12
4105.989	44.88
4108.418	45.88
4110.845	25.88
4113.27	40.88
4115.694	42.88
4118.115	31.88
4120.535	-28.12
4122.954	-24.12
4125.37	-24.12
4127.785	-30.12
4130.198	-25.12
4132.609	-28.12
4135.019	9.88
4137.427	-0.12
4139.833	5.88
4142.237	-5.12
