Data from 2018-3-6_conc=6_n=6_RamanShift_03.txt Node
Date: Tue Mar 06 15:09:48 GMT+02:00 2018
User: LAB3
Spectrometer: QEPB0276
Trigger mode: 0
Integration Time (sec): 3.000000E1
Scans to average: 1
Electric dark correction enabled: true
Nonlinearity correction enabled: false
Boxcar width: 0
XAxis mode: Raman Shifts
Number of Pixels in Spectrum: 1044
>>>>>Begin Spectral Data<<<<<
160.701	25.75
166.742	46.75
172.777	70.75
178.805	141.75
184.826	352.75
190.841	712.75
196.849	1117.75
202.85	1422.75
208.845	1519.75
214.833	1500.75
220.815	1477.75
226.789	1458.75
232.758	1472.75
238.719	1445.75
244.674	1434.75
250.623	1421.75
256.565	1406.75
262.5	1379.75
268.429	1357.75
274.351	1346.75
280.267	1344.75
286.176	1355.75
292.079	1341.75
297.975	1324.75
303.865	1337.75
309.748	1338.75
315.625	1317.75
321.495	1338.75
327.359	1330.75
333.217	1318.75
339.068	1319.75
344.912	1339.75
350.751	1324.75
356.583	1346.75
362.408	1335.75
368.227	1347.75
374.04	1348.75
379.847	1334.75
385.647	1357.75
391.44	1351.75
397.228	1380.75
403.009	1383.75
408.784	1365.75
414.553	1389.75
420.315	1375.75
426.071	1384.75
431.821	1392.75
437.565	1396.75
443.302	1367.75
449.033	1354.75
454.758	1369.75
460.477	1350.75
466.189	1343.75
471.896	1346.75
477.596	1321.75
483.29	1310.75
488.978	1292.75
494.66	1288.75
500.335	1264.75
506.005	1190.75
511.668	1153.75
517.325	1087.75
522.977	1049.75
528.622	1009.75
534.261	990.75
539.894	954.75
545.521	960.75
551.141	935.75
556.756	927.75
562.365	906.75
567.968	906.75
573.565	888.75
579.155	899.75
584.74	886.75
590.319	901.75
595.892	891.75
601.459	891.75
607.02	882.75
612.575	886.75
618.124	871.75
623.667	853.75
629.204	844.75
634.735	843.75
640.261	821.75
645.781	783.75
651.294	794.75
656.802	814.75
662.304	814.75
667.8	813.75
673.29	800.75
678.775	808.75
684.254	797.75
689.726	781.75
695.193	799.75
700.655	772.75
706.11	773.75
711.56	779.75
717.004	763.75
722.442	750.75
727.874	766.75
733.301	762.75
738.722	740.75
744.137	757.75
749.547	734.75
754.951	746.75
760.349	746.75
765.741	752.75
771.128	765.75
776.509	772.75
781.885	776.75
787.254	799.75
792.618	790.75
797.977	791.75
803.33	807.75
808.677	784.75
814.019	794.75
819.355	779.75
824.686	753.75
830.011	750.75
835.33	769.75
840.644	774.75
845.952	730.75
851.255	747.75
856.552	747.75
861.844	731.75
867.13	715.75
872.41	712.75
877.686	703.75
882.955	705.75
888.219	689.75
893.478	667.75
898.731	680.75
903.979	674.75
909.221	664.75
914.458	648.75
919.69	651.75
924.916	649.75
930.136	644.75
935.351	652.75
940.561	664.75
945.766	665.75
950.965	653.75
956.158	642.75
961.347	644.75
966.529	628.75
971.707	634.75
976.879	609.75
982.046	602.75
987.208	613.75
992.364	618.75
997.515	600.75
1002.66	614.75
1007.801	611.75
1012.936	615.75
1018.066	602.75
1023.19	627.75
1028.309	635.75
1033.423	636.75
1038.532	642.75
1043.636	608.75
1048.734	616.75
1053.827	607.75
1058.915	586.75
1063.998	593.75
1069.075	599.75
1074.147	606.75
1079.214	580.75
1084.276	595.75
1089.333	596.75
1094.385	609.75
1099.431	595.75
1104.472	605.75
1109.509	584.75
1114.54	582.75
1119.565	574.75
1124.586	562.75
1129.602	557.75
1134.613	540.75
1139.618	543.75
1144.619	542.75
1149.614	555.75
1154.604	547.75
1159.589	546.75
1164.57	558.75
1169.545	565.75
1174.515	567.75
1179.48	563.75
1184.44	556.75
1189.395	559.75
1194.345	545.75
1199.29	550.75
1204.23	537.75
1209.165	528.75
1214.095	543.75
1219.021	543.75
1223.941	530.75
1228.856	547.75
1233.766	564.75
1238.672	557.75
1243.572	549.75
1248.467	549.75
1253.358	529.75
1258.244	523.75
1263.124	530.75
1268	522.75
1272.871	494.75
1277.737	497.75
1282.599	494.75
1287.455	487.75
1292.306	501.75
1297.153	488.75
1301.995	511.75
1306.832	495.75
1311.664	501.75
1316.491	498.75
1321.314	508.75
1326.132	493.75
1330.945	499.75
1335.753	484.75
1340.556	475.75
1345.354	473.75
1350.148	465.75
1354.937	462.75
1359.722	445.75
1364.501	448.75
1369.276	452.75
1374.046	470.75
1378.811	453.75
1383.572	451.75
1388.327	446.75
1393.079	444.75
1397.825	428.75
1402.567	421.75
1407.304	426.75
1412.036	424.75
1416.764	423.75
1421.487	416.75
1426.205	416.75
1430.919	420.75
1435.628	423.75
1440.333	418.75
1445.032	422.75
1449.727	433.75
1454.418	436.75
1459.104	440.75
1463.785	424.75
1468.462	436.75
1473.134	427.75
1477.802	414.75
1482.465	379.75
1487.123	408.75
1491.777	390.75
1496.426	382.75
1501.071	415.75
1505.711	389.75
1510.347	411.75
1514.978	410.75
1519.604	395.75
1524.226	414.75
1528.844	395.75
1533.457	401.75
1538.065	408.75
1542.669	388.75
1547.269	394.75
1551.864	395.75
1556.454	381.75
1561.041	385.75
1565.622	377.75
1570.199	390.75
1574.772	396.75
1579.34	393.75
1583.904	392.75
1588.464	411.75
1593.019	410.75
1597.569	387.75
1602.115	396.75
1606.657	391.75
1611.195	407.75
1615.728	405.75
1620.256	388.75
1624.78	372.75
1629.3	389.75
1633.816	390.75
1638.327	382.75
1642.834	392.75
1647.336	386.75
1651.834	416.75
1656.328	405.75
1660.817	401.75
1665.302	382.75
1669.783	377.75
1674.259	381.75
1678.732	372.75
1683.199	375.75
1687.663	350.75
1692.122	359.75
1696.577	347.75
1701.028	359.75
1705.474	327.75
1709.917	322.75
1714.355	318.75
1718.788	322.75
1723.218	300.75
1727.643	302.75
1732.064	305.75
1736.481	288.75
1740.893	294.75
1745.301	287.75
1749.705	265.75
1754.105	287.75
1758.501	259.75
1762.893	269.75
1767.28	245.75
1771.663	259.75
1776.042	256.75
1780.417	254.75
1784.787	259.75
1789.154	267.75
1793.516	255.75
1797.874	252.75
1802.228	247.75
1806.578	238.75
1810.924	259.75
1815.266	133.75
1819.603	249.75
1823.937	233.75
1828.266	236.75
1832.591	244.75
1836.913	232.75
1841.23	223.75
1845.543	227.75
1849.852	231.75
1854.156	223.75
1858.457	231.75
1862.754	218.75
1867.047	229.75
1871.335	244.75
1875.62	235.75
1879.9	234.75
1884.177	228.75
1888.449	226.75
1892.718	231.75
1896.982	235.75
1901.243	216.75
1905.499	233.75
1909.752	222.75
1914	209.75
1918.245	230.75
1922.485	237.75
1926.722	221.75
1930.954	213.75
1935.183	231.75
1939.408	233.75
1943.628	219.75
1947.845	217.75
1952.058	220.75
1956.267	211.75
1960.472	216.75
1964.673	214.75
1968.87	202.75
1973.063	210.75
1977.252	200.75
1981.438	196.75
1985.619	190.75
1989.797	182.75
1993.971	184.75
1998.14	197.75
2002.306	189.75
2006.469	197.75
2010.627	178.75
2014.781	182.75
2018.932	185.75
2023.078	204.75
2027.221	194.75
2031.36	182.75
2035.495	184.75
2039.627	184.75
2043.754	183.75
2047.878	176.75
2051.998	169.75
2056.114	172.75
2060.226	176.75
2064.334	182.75
2068.439	186.75
2072.54	188.75
2076.637	174.75
2080.73	172.75
2084.82	170.75
2088.906	167.75
2092.988	166.75
2097.066	173.75
2101.14	177.75
2105.211	173.75
2109.278	161.75
2113.342	163.75
2117.401	158.75
2121.457	157.75
2125.509	159.75
2129.558	169.75
2133.602	159.75
2137.643	156.75
2141.681	153.75
2145.714	167.75
2149.744	163.75
2153.77	151.75
2157.793	149.75
2161.812	123.75
2165.827	131.75
2169.838	157.75
2173.846	143.75
2177.851	132.75
2181.851	147.75
2185.848	133.75
2189.841	134.75
2193.831	133.75
2197.817	128.75
2201.799	128.75
2205.778	114.75
2209.753	120.75
2213.725	117.75
2217.693	124.75
2221.657	115.75
2225.618	134.75
2229.575	118.75
2233.529	129.75
2237.479	127.75
2241.425	121.75
2245.368	109.75
2249.307	124.75
2253.243	111.75
2257.175	120.75
2261.104	111.75
2265.029	111.75
2268.95	113.75
2272.868	105.75
2276.783	104.75
2280.694	108.75
2284.601	102.75
2288.505	100.75
2292.405	106.75
2296.302	88.75
2300.195	94.75
2304.085	71.75
2307.971	95.75
2311.854	71.75
2315.734	89.75
2319.609	92.75
2323.482	67.75
2327.351	80.75
2331.216	78.75
2335.078	88.75
2338.937	83.75
2342.792	75.75
2346.643	79.75
2350.492	81.75
2354.336	82.75
2358.178	86.75
2362.015	80.75
2365.85	74.75
2369.681	79.75
2373.508	84.75
2377.333	84.75
2381.153	81.75
2384.971	71.75
2388.785	82.75
2392.595	73.75
2396.402	67.75
2400.206	48.75
2404.007	62.75
2407.804	72.75
2411.597	70.75
2415.388	62.75
2419.174	61.75
2422.958	64.75
2426.738	62.75
2430.515	67.75
2434.289	62.75
2438.059	62.75
2441.825	65.75
2445.589	71.75
2449.349	52.75
2453.106	65.75
2456.859	60.75
2460.61	71.75
2464.356	53.75
2468.1	53.75
2471.84	53.75
2475.577	60.75
2479.311	46.75
2483.041	58.75
2486.768	73.75
2490.492	67.75
2494.213	60.75
2497.93	45.75
2501.644	46.75
2505.355	57.75
2509.062	50.75
2512.766	54.75
2516.467	47.75
2520.165	48.75
2523.859	37.75
2527.551	67.75
2531.239	41.75
2534.923	52.75
2538.605	38.75
2542.283	48.75
2545.958	50.75
2549.63	58.75
2553.299	53.75
2556.964	38.75
2560.626	43.75
2564.285	48.75
2567.941	40.75
2571.594	35.75
2575.243	42.75
2578.89	39.75
2582.533	47.75
2586.173	44.75
2589.809	49.75
2593.443	13.75
2597.073	39.75
2600.701	44.75
2604.325	39.75
2607.946	31.75
2611.564	50.75
2615.178	40.75
2618.79	40.75
2622.398	37.75
2626.004	40.75
2629.606	42.75
2633.205	28.75
2636.801	40.75
2640.394	35.75
2643.983	30.75
2647.57	33.75
2651.153	22.75
2654.734	44.75
2658.311	8.75
2661.885	22.75
2665.456	21.75
2669.025	31.75
2672.589	20.75
2676.151	34.75
2679.71	41.75
2683.266	23.75
2686.819	21.75
2690.368	29.75
2693.915	34.75
2697.458	23.75
2700.999	34.75
2704.536	28.75
2708.071	23.75
2711.602	29.75
2715.13	23.75
2718.656	8.75
2722.178	24.75
2725.697	8.75
2729.214	22.75
2732.727	21.75
2736.237	8.75
2739.744	16.75
2743.249	14.75
2746.75	18.75
2750.248	17.75
2753.743	20.75
2757.236	22.75
2760.725	30.75
2764.211	-0.25
2767.695	22.75
2771.175	15.75
2774.652	18.75
2778.127	13.75
2781.598	17.75
2785.067	20.75
2788.532	10.75
2791.995	17.75
2795.455	12.75
2798.911	17.75
2802.365	6.75
2805.816	21.75
2809.264	22.75
2812.709	12.75
2816.151	14.75
2819.59	3.75
2823.026	13.75
2826.46	12.75
2829.89	23.75
2833.318	-6.25
2836.742	16.75
2840.164	15.75
2843.583	18.75
2846.999	18.75
2850.412	24.75
2853.822	12.75
2857.229	24.75
2860.634	19.75
2864.035	3.75
2867.434	25.75
2870.83	26.75
2874.223	14.75
2877.613	20.75
2881	7.75
2884.385	14.75
2887.766	7.75
2891.145	15.75
2894.521	10.75
2897.894	8.75
2901.264	21.75
2904.631	19.75
2907.996	22.75
2911.358	26.75
2914.717	22.75
2918.073	22.75
2921.426	8.75
2924.777	4.75
2928.124	18.75
2931.469	25.75
2934.811	8.75
2938.15	35.75
2941.487	22.75
2944.821	40.75
2948.152	28.75
2951.48	28.75
2954.805	14.75
2958.128	36.75
2961.447	24.75
2964.765	39.75
2968.079	31.75
2971.39	30.75
2974.699	31.75
2978.005	34.75
2981.308	28.75
2984.609	21.75
2987.907	40.75
2991.202	43.75
2994.494	25.75
2997.784	36.75
3001.07	33.75
3004.355	22.75
3007.636	29.75
3010.915	29.75
3014.191	28.75
3017.464	37.75
3020.734	34.75
3024.002	36.75
3027.267	35.75
3030.53	36.75
3033.789	35.75
3037.046	41.75
3040.301	35.75
3043.552	40.75
3046.801	43.75
3050.048	48.75
3053.291	62.75
3056.532	49.75
3059.771	37.75
3063.006	52.75
3066.239	56.75
3069.469	58.75
3072.697	53.75
3075.922	48.75
3079.144	52.75
3082.364	67.75
3085.581	59.75
3088.795	73.75
3092.007	67.75
3095.216	73.75
3098.423	60.75
3101.627	45.75
3104.828	70.75
3108.026	66.75
3111.222	83.75
3114.416	89.75
3117.607	80.75
3120.795	84.75
3123.98	82.75
3127.163	75.75
3130.344	81.75
3133.521	79.75
3136.696	99.75
3139.869	100.75
3143.039	77.75
3146.206	113.75
3149.371	101.75
3152.533	102.75
3155.693	88.75
3158.85	106.75
3162.005	110.75
3165.157	105.75
3168.306	104.75
3171.453	115.75
3174.597	99.75
3177.739	96.75
3180.878	106.75
3184.014	106.75
3187.149	110.75
3190.28	109.75
3193.409	114.75
3196.536	113.75
3199.659	116.75
3202.781	118.75
3205.9	103.75
3209.016	110.75
3212.13	110.75
3215.241	104.75
3218.35	101.75
3221.456	104.75
3224.56	97.75
3227.661	97.75
3230.76	92.75
3233.856	94.75
3236.95	101.75
3240.041	88.75
3243.13	104.75
3246.216	98.75
3249.3	112.75
3252.382	99.75
3255.46	98.75
3258.537	44.75
3261.611	81.75
3264.682	91.75
3267.751	95.75
3270.818	85.75
3273.882	98.75
3276.943	90.75
3280.002	102.75
3283.059	95.75
3286.113	87.75
3289.165	85.75
3292.214	86.75
3295.261	96.75
3298.306	76.75
3301.348	83.75
3304.387	65.75
3307.425	87.75
3310.459	77.75
3313.492	87.75
3316.521	80.75
3319.549	83.75
3322.574	82.75
3325.597	76.75
3328.617	71.75
3331.635	78.75
3334.65	57.75
3337.663	75.75
3340.674	68.75
3343.682	73.75
3346.688	82.75
3349.691	69.75
3352.692	69.75
3355.691	79.75
3358.687	74.75
3361.681	75.75
3364.673	68.75
3367.662	74.75
3370.649	77.75
3373.633	58.75
3376.615	65.75
3379.595	51.75
3382.572	59.75
3385.547	48.75
3388.52	51.75
3391.49	53.75
3394.458	54.75
3397.424	57.75
3400.387	47.75
3403.348	57.75
3406.307	52.75
3409.263	52.75
3412.217	62.75
3415.168	53.75
3418.118	61.75
3421.065	50.75
3424.009	62.75
3426.951	49.75
3429.891	40.75
3432.829	48.75
3435.764	54.75
3438.697	40.75
3441.628	56.75
3444.557	34.75
3447.483	32.75
3450.407	40.75
3453.328	36.75
3456.247	31.75
3459.164	24.75
3462.079	39.75
3464.991	35.75
3467.902	30.75
3470.809	28.75
3473.715	34.75
3476.618	20.75
3479.519	27.75
3482.418	3.75
3485.315	11.75
3488.209	10.75
3491.101	13.75
3493.99	0.75
3496.878	2.75
3499.763	11.75
3502.646	8.75
3505.527	2.75
3508.405	2.75
3511.281	-5.25
3514.155	6.75
3517.027	4.75
3519.897	-2.25
3522.764	5.75
3525.629	-14.25
3528.492	-2.25
3531.352	-4.25
3534.211	-0.25
3537.067	-6.25
3539.921	-1.25
3542.773	2.75
3545.622	-19.25
3548.469	-15.25
3551.315	-20.25
3554.157	-8.25
3556.998	-19.25
3559.837	-17.25
3562.673	-13.25
3565.507	-19.25
3568.339	-26.25
3571.169	-18.25
3573.996	-22.25
3576.822	-30.25
3579.645	-26.25
3582.466	-29.25
3585.285	-16.25
3588.101	-21.25
3590.916	-23.25
3593.728	-16.25
3596.538	-24.25
3599.346	-15.25
3602.152	-28.25
3604.956	-17.25
3607.757	-17.25
3610.556	-32.25
3613.354	-17.25
3616.149	-20.25
3618.942	-16.25
3621.732	-16.25
3624.521	-29.25
3627.307	-31.25
3630.092	-32.25
3632.874	-12.25
3635.654	-27.25
3638.432	-33.25
3641.208	-30.25
3643.982	-31.25
3646.753	-22.25
3649.523	-51.25
3652.29	-34.25
3655.055	-26.25
3657.818	-30.25
3660.579	-32.25
3663.338	-37.25
3666.095	-34.25
3668.849	-53.25
3671.602	-23.25
3674.352	-39.25
3677.101	-18.25
3679.847	-23.25
3682.591	-33.25
3685.333	-42.25
3688.073	-25.25
3690.811	-40.25
3693.547	-42.25
3696.281	-42.25
3699.013	-28.25
3701.742	-34.25
3704.47	-42.25
3707.195	-30.25
3709.919	-26.25
3712.64	-36.25
3715.359	-45.25
3718.076	-23.25
3720.792	-33.25
3723.505	-31.25
3726.216	-25.25
3728.925	-38.25
3731.632	-41.25
3734.336	-31.25
3737.039	-33.25
3739.74	-26.25
3742.439	-58.25
3745.136	-28.25
3747.83	-30.25
3750.523	-28.25
3753.213	-97.25
3755.902	-34.25
3758.589	-51.25
3761.273	-36.25
3763.956	-28.25
3766.636	-49.25
3769.315	-30.25
3771.991	-33.25
3774.665	-40.25
3777.338	-30.25
3780.008	-44.25
3782.677	-38.25
3785.343	-47.25
3788.007	-50.25
3790.67	-29.25
3793.33	-46.25
3795.989	-41.25
3798.645	-33.25
3801.299	-49.25
3803.952	-46.25
3806.602	-33.25
3809.251	-31.25
3811.897	-37.25
3814.542	-38.25
3817.184	-39.25
3819.825	-35.25
3822.463	-51.25
3825.1	-40.25
3827.735	-36.25
3830.367	-46.25
3832.998	-27.25
3835.627	-37.25
3838.253	-29.25
3840.878	-32.25
3843.501	-24.25
3846.122	-32.25
3848.741	-32.25
3851.358	-25.25
3853.973	-40.25
3856.586	-23.25
3859.197	-42.25
3861.806	-34.25
3864.414	-42.25
3867.019	-34.25
3869.622	-30.25
3872.224	-30.25
3874.823	-18.25
3877.421	-5.25
3880.016	3.75
3882.61	20.75
3885.202	24.75
3887.792	17.75
3890.38	1.75
3892.966	-27.25
3895.55	-37.25
3898.132	-31.25
3900.713	-28.25
3903.291	-32.25
3905.868	-44.25
3908.442	-32.25
3911.015	-38.25
3913.586	-39.25
3916.155	-35.25
3918.722	-42.25
3921.287	-44.25
3923.85	-51.25
3926.411	-42.25
3928.971	-44.25
3931.528	-30.25
3934.084	-40.25
3936.638	-44.25
3939.19	-30.25
3941.74	-30.25
3944.288	-36.25
3946.834	-34.25
3949.378	-25.25
3951.921	-39.25
3954.462	-35.25
3957	-31.25
3959.537	-21.25
3962.072	-39.25
3964.606	-48.25
3967.137	-39.25
3969.667	-38.25
3972.194	-34.25
3974.72	-40.25
3977.244	-55.25
3979.766	-43.25
3982.286	-37.25
3984.805	-33.25
3987.321	-29.25
3989.836	-30.25
3992.349	-42.25
3994.86	-38.25
3997.369	-43.25
3999.877	-41.25
4002.382	-39.25
4004.886	-32.25
4007.388	-38.25
4009.888	-29.25
4012.386	-30.25
4014.883	-35.25
4017.377	-32.25
4019.87	-34.25
4022.361	-46.25
4024.85	-32.25
4027.338	-34.25
4029.823	-40.25
4032.307	-36.25
4034.789	-32.25
4037.269	-30.25
4039.747	-46.25
4042.224	-23.25
4044.699	-42.25
4047.172	-32.25
4049.643	-21.25
4052.112	-60.25
4054.58	-31.25
4057.046	-43.25
4059.51	-35.25
4061.972	-35.25
4064.432	-51.25
4066.891	-26.25
4069.348	-39.25
4071.803	-30.25
4074.256	-35.25
4076.708	-33.25
4079.158	-35.25
4081.606	-22.25
4084.052	-35.25
4086.497	-34.25
4088.939	-38.25
4091.38	-38.25
4093.819	-32.25
4096.257	-1.25
4098.693	-6.25
4101.127	-6.25
4103.559	-1.25
4105.989	32.75
4108.418	38.75
4110.845	25.75
4113.27	32.75
4115.694	35.75
4118.115	23.75
4120.535	-39.25
4122.954	-29.25
4125.37	-24.25
4127.785	-34.25
4130.198	-28.25
4132.609	-33.25
4135.019	9.75
4137.427	-0.25
4139.833	6.75
4142.237	-1.25
