Data from 2018-3-6_conc=4_n=7_RamanShift_04.txt Node
Date: Tue Mar 06 14:10:48 GMT+02:00 2018
User: LAB3
Spectrometer: QEPB0276
Trigger mode: 0
Integration Time (sec): 3.000000E1
Scans to average: 1
Electric dark correction enabled: true
Nonlinearity correction enabled: false
Boxcar width: 0
XAxis mode: Raman Shifts
Number of Pixels in Spectrum: 1044
>>>>>Begin Spectral Data<<<<<
160.701	92.88
166.742	114.88
172.777	168.88
178.805	314.88
184.826	707.88
190.841	1396.88
196.849	2184.88
202.85	2746.88
208.845	2941.88
214.833	2906.88
220.815	2841.88
226.789	2832.88
232.758	2822.88
238.719	2797.88
244.674	2754.88
250.623	2748.88
256.565	2657.88
262.5	2642.88
268.429	2614.88
274.351	2569.88
280.267	2570.88
286.176	2575.88
292.079	2568.88
297.975	2569.88
303.865	2537.88
309.748	2546.88
315.625	2535.88
321.495	2551.88
327.359	2531.88
333.217	2522.88
339.068	2531.88
344.912	2563.88
350.751	2548.88
356.583	2563.88
362.408	2589.88
368.227	2597.88
374.04	2598.88
379.847	2595.88
385.647	2629.88
391.44	2625.88
397.228	2646.88
403.009	2635.88
408.784	2666.88
414.553	2665.88
420.315	2663.88
426.071	2657.88
431.821	2670.88
437.565	2660.88
443.302	2633.88
449.033	2630.88
454.758	2658.88
460.477	2611.88
466.189	2575.88
471.896	2556.88
477.596	2530.88
483.29	2507.88
488.978	2501.88
494.66	2462.88
500.335	2404.88
506.005	2268.88
511.668	2169.88
517.325	2038.88
522.977	1945.88
528.622	1877.88
534.261	1860.88
539.894	1793.88
545.521	1751.88
551.141	1731.88
556.756	1709.88
562.365	1699.88
567.968	1670.88
573.565	1677.88
579.155	1661.88
584.74	1650.88
590.319	1651.88
595.892	1647.88
601.459	1644.88
607.02	1624.88
612.575	1620.88
618.124	1619.88
623.667	1575.88
629.204	1544.88
634.735	1543.88
640.261	1516.88
645.781	1472.88
651.294	1477.88
656.802	1483.88
662.304	1484.88
667.8	1477.88
673.29	1476.88
678.775	1469.88
684.254	1455.88
689.726	1450.88
695.193	1446.88
700.655	1423.88
706.11	1437.88
711.56	1419.88
717.004	1407.88
722.442	1390.88
727.874	1400.88
733.301	1409.88
738.722	1370.88
744.137	1389.88
749.547	1392.88
754.951	1366.88
760.349	1385.88
765.741	1389.88
771.128	1389.88
776.509	1411.88
781.885	1463.88
787.254	1469.88
792.618	1475.88
797.977	1468.88
803.33	1446.88
808.677	1436.88
814.019	1443.88
819.355	1414.88
824.686	1403.88
830.011	1401.88
835.33	1405.88
840.644	1388.88
845.952	1354.88
851.255	1349.88
856.552	1340.88
861.844	1311.88
867.13	1286.88
872.41	1293.88
877.686	1285.88
882.955	1270.88
888.219	1258.88
893.478	1231.88
898.731	1223.88
903.979	1213.88
909.221	1183.88
914.458	1186.88
919.69	1174.88
924.916	1186.88
930.136	1188.88
935.351	1179.88
940.561	1207.88
945.766	1202.88
950.965	1175.88
956.158	1163.88
961.347	1143.88
966.529	1140.88
971.707	1138.88
976.879	1116.88
982.046	1098.88
987.208	1082.88
992.364	1091.88
997.515	1086.88
1002.66	1104.88
1007.801	1106.88
1012.936	1118.88
1018.066	1110.88
1023.19	1138.88
1028.309	1140.88
1033.423	1140.88
1038.532	1148.88
1043.636	1119.88
1048.734	1132.88
1053.827	1116.88
1058.915	1082.88
1063.998	1095.88
1069.075	1087.88
1074.147	1099.88
1079.214	1071.88
1084.276	1097.88
1089.333	1098.88
1094.385	1109.88
1099.431	1091.88
1104.472	1100.88
1109.509	1059.88
1114.54	1063.88
1119.565	1036.88
1124.586	1043.88
1129.602	1006.88
1134.613	985.88
1139.618	1011.88
1144.619	991.88
1149.614	1000.88
1154.604	1013.88
1159.589	997.88
1164.57	1033.88
1169.545	1037.88
1174.515	1016.88
1179.48	1008.88
1184.44	1009.88
1189.395	1011.88
1194.345	980.88
1199.29	988.88
1204.23	970.88
1209.165	956.88
1214.095	1000.88
1219.021	981.88
1223.941	979.88
1228.856	986.88
1233.766	1007.88
1238.672	1001.88
1243.572	996.88
1248.467	975.88
1253.358	973.88
1258.244	967.88
1263.124	961.88
1268	947.88
1272.871	906.88
1277.737	916.88
1282.599	891.88
1287.455	893.88
1292.306	908.88
1297.153	893.88
1301.995	912.88
1306.832	910.88
1311.664	919.88
1316.491	894.88
1321.314	895.88
1326.132	890.88
1330.945	882.88
1335.753	870.88
1340.556	853.88
1345.354	837.88
1350.148	824.88
1354.937	813.88
1359.722	789.88
1364.501	786.88
1369.276	803.88
1374.046	795.88
1378.811	790.88
1383.572	802.88
1388.327	795.88
1393.079	773.88
1397.825	778.88
1402.567	783.88
1407.304	769.88
1412.036	775.88
1416.764	775.88
1421.487	748.88
1426.205	759.88
1430.919	760.88
1435.628	753.88
1440.333	755.88
1445.032	765.88
1449.727	777.88
1454.418	781.88
1459.104	782.88
1463.785	767.88
1468.462	744.88
1473.134	739.88
1477.802	723.88
1482.465	698.88
1487.123	717.88
1491.777	685.88
1496.426	671.88
1501.071	704.88
1505.711	687.88
1510.347	705.88
1514.978	701.88
1519.604	692.88
1524.226	722.88
1528.844	685.88
1533.457	706.88
1538.065	708.88
1542.669	685.88
1547.269	690.88
1551.864	682.88
1556.454	687.88
1561.041	682.88
1565.622	683.88
1570.199	698.88
1574.772	692.88
1579.34	696.88
1583.904	713.88
1588.464	720.88
1593.019	717.88
1597.569	701.88
1602.115	703.88
1606.657	707.88
1611.195	710.88
1615.728	713.88
1620.256	679.88
1624.78	678.88
1629.3	691.88
1633.816	709.88
1638.327	684.88
1642.834	699.88
1647.336	702.88
1651.834	716.88
1656.328	712.88
1660.817	687.88
1665.302	685.88
1669.783	672.88
1674.259	667.88
1678.732	648.88
1683.199	639.88
1687.663	601.88
1692.122	605.88
1696.577	595.88
1701.028	588.88
1705.474	557.88
1709.917	553.88
1714.355	553.88
1718.788	547.88
1723.218	530.88
1727.643	522.88
1732.064	528.88
1736.481	504.88
1740.893	507.88
1745.301	492.88
1749.705	470.88
1754.105	482.88
1758.501	462.88
1762.893	461.88
1767.28	432.88
1771.663	441.88
1776.042	435.88
1780.417	421.88
1784.787	437.88
1789.154	438.88
1793.516	427.88
1797.874	429.88
1802.228	412.88
1806.578	413.88
1810.924	429.88
1815.266	303.88
1819.603	422.88
1823.937	404.88
1828.266	408.88
1832.591	407.88
1836.913	402.88
1841.23	394.88
1845.543	388.88
1849.852	410.88
1854.156	400.88
1858.457	402.88
1862.754	393.88
1867.047	395.88
1871.335	410.88
1875.62	401.88
1879.9	409.88
1884.177	380.88
1888.449	388.88
1892.718	397.88
1896.982	388.88
1901.243	377.88
1905.499	375.88
1909.752	360.88
1914	359.88
1918.245	379.88
1922.485	378.88
1926.722	360.88
1930.954	357.88
1935.183	368.88
1939.408	371.88
1943.628	378.88
1947.845	360.88
1952.058	359.88
1956.267	343.88
1960.472	361.88
1964.673	343.88
1968.87	342.88
1973.063	340.88
1977.252	338.88
1981.438	333.88
1985.619	328.88
1989.797	327.88
1993.971	331.88
1998.14	339.88
2002.306	317.88
2006.469	332.88
2010.627	309.88
2014.781	323.88
2018.932	309.88
2023.078	333.88
2027.221	318.88
2031.36	319.88
2035.495	314.88
2039.627	312.88
2043.754	313.88
2047.878	299.88
2051.998	295.88
2056.114	293.88
2060.226	298.88
2064.334	301.88
2068.439	310.88
2072.54	303.88
2076.637	287.88
2080.73	296.88
2084.82	295.88
2088.906	297.88
2092.988	286.88
2097.066	296.88
2101.14	297.88
2105.211	296.88
2109.278	287.88
2113.342	280.88
2117.401	262.88
2121.457	266.88
2125.509	265.88
2129.558	279.88
2133.602	272.88
2137.643	267.88
2141.681	265.88
2145.714	276.88
2149.744	270.88
2153.77	265.88
2157.793	249.88
2161.812	230.88
2165.827	235.88
2169.838	262.88
2173.846	241.88
2177.851	238.88
2181.851	244.88
2185.848	240.88
2189.841	233.88
2193.831	236.88
2197.817	232.88
2201.799	226.88
2205.778	216.88
2209.753	216.88
2213.725	212.88
2217.693	224.88
2221.657	220.88
2225.618	230.88
2229.575	209.88
2233.529	222.88
2237.479	226.88
2241.425	206.88
2245.368	199.88
2249.307	216.88
2253.243	204.88
2257.175	209.88
2261.104	193.88
2265.029	201.88
2268.95	194.88
2272.868	190.88
2276.783	184.88
2280.694	184.88
2284.601	185.88
2288.505	187.88
2292.405	197.88
2296.302	165.88
2300.195	178.88
2304.085	142.88
2307.971	178.88
2311.854	149.88
2315.734	160.88
2319.609	166.88
2323.482	155.88
2327.351	153.88
2331.216	159.88
2335.078	164.88
2338.937	152.88
2342.792	154.88
2346.643	151.88
2350.492	166.88
2354.336	151.88
2358.178	163.88
2362.015	160.88
2365.85	147.88
2369.681	152.88
2373.508	159.88
2377.333	165.88
2381.153	157.88
2384.971	147.88
2388.785	154.88
2392.595	145.88
2396.402	144.88
2400.206	125.88
2404.007	144.88
2407.804	139.88
2411.597	151.88
2415.388	142.88
2419.174	137.88
2422.958	141.88
2426.738	138.88
2430.515	145.88
2434.289	128.88
2438.059	130.88
2441.825	130.88
2445.589	143.88
2449.349	122.88
2453.106	135.88
2456.859	128.88
2460.61	135.88
2464.356	119.88
2468.1	115.88
2471.84	113.88
2475.577	119.88
2479.311	114.88
2483.041	120.88
2486.768	129.88
2490.492	135.88
2494.213	120.88
2497.93	105.88
2501.644	104.88
2505.355	120.88
2509.062	114.88
2512.766	113.88
2516.467	112.88
2520.165	109.88
2523.859	96.88
2527.551	131.88
2531.239	102.88
2534.923	108.88
2538.605	101.88
2542.283	104.88
2545.958	103.88
2549.63	110.88
2553.299	120.88
2556.964	97.88
2560.626	100.88
2564.285	100.88
2567.941	85.88
2571.594	92.88
2575.243	103.88
2578.89	94.88
2582.533	95.88
2586.173	99.88
2589.809	94.88
2593.443	73.88
2597.073	94.88
2600.701	90.88
2604.325	89.88
2607.946	81.88
2611.564	94.88
2615.178	94.88
2618.79	97.88
2622.398	74.88
2626.004	94.88
2629.606	89.88
2633.205	71.88
2636.801	89.88
2640.394	91.88
2643.983	76.88
2647.57	78.88
2651.153	77.88
2654.734	90.88
2658.311	62.88
2661.885	74.88
2665.456	75.88
2669.025	69.88
2672.589	64.88
2676.151	85.88
2679.71	85.88
2683.266	80.88
2686.819	65.88
2690.368	74.88
2693.915	78.88
2697.458	72.88
2700.999	75.88
2704.536	79.88
2708.071	69.88
2711.602	66.88
2715.13	64.88
2718.656	50.88
2722.178	65.88
2725.697	52.88
2729.214	59.88
2732.727	66.88
2736.237	43.88
2739.744	54.88
2743.249	53.88
2746.75	60.88
2750.248	52.88
2753.743	56.88
2757.236	65.88
2760.725	65.88
2764.211	31.88
2767.695	57.88
2771.175	53.88
2774.652	56.88
2778.127	56.88
2781.598	53.88
2785.067	54.88
2788.532	47.88
2791.995	56.88
2795.455	48.88
2798.911	67.88
2802.365	50.88
2805.816	57.88
2809.264	62.88
2812.709	53.88
2816.151	56.88
2819.59	45.88
2823.026	56.88
2826.46	46.88
2829.89	65.88
2833.318	29.88
2836.742	51.88
2840.164	48.88
2843.583	52.88
2846.999	53.88
2850.412	57.88
2853.822	50.88
2857.229	67.88
2860.634	55.88
2864.035	49.88
2867.434	65.88
2870.83	63.88
2874.223	55.88
2877.613	56.88
2881	55.88
2884.385	56.88
2887.766	58.88
2891.145	61.88
2894.521	52.88
2897.894	55.88
2901.264	68.88
2904.631	57.88
2907.996	63.88
2911.358	72.88
2914.717	69.88
2918.073	58.88
2921.426	61.88
2924.777	45.88
2928.124	63.88
2931.469	84.88
2934.811	60.88
2938.15	84.88
2941.487	71.88
2944.821	93.88
2948.152	72.88
2951.48	81.88
2954.805	70.88
2958.128	87.88
2961.447	73.88
2964.765	91.88
2968.079	74.88
2971.39	80.88
2974.699	79.88
2978.005	85.88
2981.308	84.88
2984.609	69.88
2987.907	81.88
2991.202	85.88
2994.494	66.88
2997.784	85.88
3001.07	87.88
3004.355	75.88
3007.636	80.88
3010.915	90.88
3014.191	89.88
3017.464	87.88
3020.734	94.88
3024.002	96.88
3027.267	96.88
3030.53	90.88
3033.789	95.88
3037.046	97.88
3040.301	86.88
3043.552	101.88
3046.801	105.88
3050.048	119.88
3053.291	131.88
3056.532	115.88
3059.771	103.88
3063.006	126.88
3066.239	113.88
3069.469	136.88
3072.697	119.88
3075.922	119.88
3079.144	122.88
3082.364	144.88
3085.581	137.88
3088.795	157.88
3092.007	146.88
3095.216	158.88
3098.423	153.88
3101.627	135.88
3104.828	153.88
3108.026	153.88
3111.222	181.88
3114.416	182.88
3117.607	177.88
3120.795	182.88
3123.98	180.88
3127.163	173.88
3130.344	182.88
3133.521	184.88
3136.696	204.88
3139.869	194.88
3143.039	191.88
3146.206	217.88
3149.371	216.88
3152.533	210.88
3155.693	204.88
3158.85	218.88
3162.005	226.88
3165.157	209.88
3168.306	216.88
3171.453	227.88
3174.597	207.88
3177.739	213.88
3180.878	219.88
3184.014	220.88
3187.149	228.88
3190.28	228.88
3193.409	229.88
3196.536	232.88
3199.659	237.88
3202.781	229.88
3205.9	216.88
3209.016	233.88
3212.13	222.88
3215.241	228.88
3218.35	223.88
3221.456	205.88
3224.56	205.88
3227.661	221.88
3230.76	207.88
3233.856	208.88
3236.95	201.88
3240.041	205.88
3243.13	214.88
3246.216	203.88
3249.3	210.88
3252.382	215.88
3255.46	195.88
3258.537	159.88
3261.611	190.88
3264.682	200.88
3267.751	199.88
3270.818	194.88
3273.882	201.88
3276.943	196.88
3280.002	205.88
3283.059	189.88
3286.113	199.88
3289.165	185.88
3292.214	189.88
3295.261	199.88
3298.306	171.88
3301.348	178.88
3304.387	179.88
3307.425	177.88
3310.459	173.88
3313.492	178.88
3316.521	170.88
3319.549	178.88
3322.574	173.88
3325.597	168.88
3328.617	161.88
3331.635	167.88
3334.65	144.88
3337.663	165.88
3340.674	161.88
3343.682	172.88
3346.688	169.88
3349.691	156.88
3352.692	159.88
3355.691	164.88
3358.687	167.88
3361.681	161.88
3364.673	161.88
3367.662	161.88
3370.649	158.88
3373.633	148.88
3376.615	150.88
3379.595	134.88
3382.572	138.88
3385.547	132.88
3388.52	129.88
3391.49	134.88
3394.458	135.88
3397.424	137.88
3400.387	117.88
3403.348	127.88
3406.307	129.88
3409.263	131.88
3412.217	134.88
3415.168	129.88
3418.118	134.88
3421.065	122.88
3424.009	128.88
3426.951	117.88
3429.891	113.88
3432.829	113.88
3435.764	114.88
3438.697	105.88
3441.628	120.88
3444.557	96.88
3447.483	95.88
3450.407	107.88
3453.328	88.88
3456.247	89.88
3459.164	82.88
3462.079	98.88
3464.991	86.88
3467.902	82.88
3470.809	77.88
3473.715	88.88
3476.618	73.88
3479.519	77.88
3482.418	54.88
3485.315	57.88
3488.209	62.88
3491.101	61.88
3493.99	51.88
3496.878	49.88
3499.763	53.88
3502.646	53.88
3505.527	47.88
3508.405	45.88
3511.281	28.88
3514.155	43.88
3517.027	35.88
3519.897	27.88
3522.764	35.88
3525.629	17.88
3528.492	27.88
3531.352	30.88
3534.211	28.88
3537.067	21.88
3539.921	20.88
3542.773	22.88
3545.622	13.88
3548.469	11.88
3551.315	4.88
3554.157	9.88
3556.998	0.88
3559.837	8.88
3562.673	8.88
3565.507	1.88
3568.339	-5.12
3571.169	5.88
3573.996	1.88
3576.822	-10.12
3579.645	-10.12
3582.466	-4.12
3585.285	1.88
3588.101	-2.12
3590.916	-11.12
3593.728	-1.12
3596.538	-5.12
3599.346	-3.12
3602.152	-14.12
3604.956	-8.12
3607.757	-5.12
3610.556	-23.12
3613.354	-3.12
3616.149	-11.12
3618.942	-7.12
3621.732	-6.12
3624.521	-17.12
3627.307	-24.12
3630.092	-19.12
3632.874	-1.12
3635.654	-14.12
3638.432	-23.12
3641.208	-24.12
3643.982	-20.12
3646.753	-11.12
3649.523	-47.12
3652.29	-24.12
3655.055	-18.12
3657.818	-18.12
3660.579	-23.12
3663.338	-34.12
3666.095	-27.12
3668.849	-45.12
3671.602	-19.12
3674.352	-32.12
3677.101	-18.12
3679.847	-16.12
3682.591	-35.12
3685.333	-40.12
3688.073	-20.12
3690.811	-30.12
3693.547	-36.12
3696.281	-43.12
3699.013	-26.12
3701.742	-31.12
3704.47	-40.12
3707.195	-27.12
3709.919	-26.12
3712.64	-27.12
3715.359	-40.12
3718.076	-19.12
3720.792	-29.12
3723.505	-27.12
3726.216	-18.12
3728.925	-31.12
3731.632	-36.12
3734.336	-26.12
3737.039	-30.12
3739.74	-27.12
3742.439	-52.12
3745.136	-22.12
3747.83	-24.12
3750.523	-31.12
3753.213	-93.12
3755.902	-30.12
3758.589	-44.12
3761.273	-34.12
3763.956	-21.12
3766.636	-40.12
3769.315	-20.12
3771.991	-27.12
3774.665	-31.12
3777.338	-29.12
3780.008	-41.12
3782.677	-34.12
3785.343	-45.12
3788.007	-51.12
3790.67	-24.12
3793.33	-45.12
3795.989	-35.12
3798.645	-30.12
3801.299	-41.12
3803.952	-42.12
3806.602	-35.12
3809.251	-28.12
3811.897	-34.12
3814.542	-34.12
3817.184	-39.12
3819.825	-31.12
3822.463	-41.12
3825.1	-39.12
3827.735	-31.12
3830.367	-40.12
3832.998	-18.12
3835.627	-36.12
3838.253	-24.12
3840.878	-34.12
3843.501	-16.12
3846.122	-30.12
3848.741	-25.12
3851.358	-24.12
3853.973	-41.12
3856.586	-24.12
3859.197	-36.12
3861.806	-28.12
3864.414	-37.12
3867.019	-31.12
3869.622	-17.12
3872.224	-17.12
3874.823	3.88
3877.421	28.88
3880.016	49.88
3882.61	85.88
3885.202	90.88
3887.792	61.88
3890.38	24.88
3892.966	-8.12
3895.55	-36.12
3898.132	-24.12
3900.713	-22.12
3903.291	-33.12
3905.868	-39.12
3908.442	-31.12
3911.015	-32.12
3913.586	-42.12
3916.155	-34.12
3918.722	-39.12
3921.287	-41.12
3923.85	-47.12
3926.411	-40.12
3928.971	-40.12
3931.528	-28.12
3934.084	-35.12
3936.638	-44.12
3939.19	-29.12
3941.74	-30.12
3944.288	-33.12
3946.834	-34.12
3949.378	-24.12
3951.921	-38.12
3954.462	-32.12
3957	-29.12
3959.537	-17.12
3962.072	-34.12
3964.606	-46.12
3967.137	-38.12
3969.667	-38.12
3972.194	-27.12
3974.72	-36.12
3977.244	-59.12
3979.766	-41.12
3982.286	-42.12
3984.805	-29.12
3987.321	-28.12
3989.836	-28.12
3992.349	-44.12
3994.86	-33.12
3997.369	-41.12
3999.877	-36.12
4002.382	-38.12
4004.886	-25.12
4007.388	-30.12
4009.888	-26.12
4012.386	-27.12
4014.883	-33.12
4017.377	-31.12
4019.87	-28.12
4022.361	-44.12
4024.85	-28.12
4027.338	-27.12
4029.823	-36.12
4032.307	-33.12
4034.789	-35.12
4037.269	-33.12
4039.747	-46.12
4042.224	-22.12
4044.699	-40.12
4047.172	-37.12
4049.643	-25.12
4052.112	-54.12
4054.58	-32.12
4057.046	-46.12
4059.51	-30.12
4061.972	-31.12
4064.432	-52.12
4066.891	-16.12
4069.348	-29.12
4071.803	-26.12
4074.256	-40.12
4076.708	-33.12
4079.158	-31.12
4081.606	-22.12
4084.052	-30.12
4086.497	-29.12
4088.939	-38.12
4091.38	-38.12
4093.819	-28.12
4096.257	0.88
4098.693	-6.12
4101.127	-4.12
4103.559	1.88
4105.989	106.88
4108.418	98.88
4110.845	87.88
4113.27	98.88
4115.694	98.88
4118.115	81.88
4120.535	-27.12
4122.954	-27.12
4125.37	-24.12
4127.785	-28.12
4130.198	-21.12
4132.609	-32.12
4135.019	8.88
4137.427	0.88
4139.833	3.88
4142.237	-6.12
