Data from 2018-3-6_conc=3_n=1_RamanShift_04.txt Node
Date: Tue Mar 06 13:15:49 GMT+02:00 2018
User: LAB3
Spectrometer: QEPB0276
Trigger mode: 0
Integration Time (sec): 3.000000E1
Scans to average: 1
Electric dark correction enabled: true
Nonlinearity correction enabled: false
Boxcar width: 0
XAxis mode: Raman Shifts
Number of Pixels in Spectrum: 1044
>>>>>Begin Spectral Data<<<<<
160.701	149.88
166.742	186.88
172.777	283.88
178.805	568.88
184.826	1292.88
190.841	2599.88
196.849	4143.88
202.85	5292.88
208.845	5740.88
214.833	5725.88
220.815	5659.88
226.789	5663.88
232.758	5725.88
238.719	5721.88
244.674	5723.88
250.623	5714.88
256.565	5647.88
262.5	5615.88
268.429	5556.88
274.351	5515.88
280.267	5543.88
286.176	5524.88
292.079	5540.88
297.975	5565.88
303.865	5543.88
309.748	5575.88
315.625	5562.88
321.495	5593.88
327.359	5599.88
333.217	5632.88
339.068	5656.88
344.912	5674.88
350.751	5692.88
356.583	5693.88
362.408	5710.88
368.227	5776.88
374.04	5776.88
379.847	5834.88
385.647	5876.88
391.44	5871.88
397.228	5883.88
403.009	5942.88
408.784	5965.88
414.553	6021.88
420.315	6005.88
426.071	6017.88
431.821	6031.88
437.565	6026.88
443.302	5992.88
449.033	5930.88
454.758	5951.88
460.477	5890.88
466.189	5841.88
471.896	5784.88
477.596	5761.88
483.29	5699.88
488.978	5693.88
494.66	5662.88
500.335	5492.88
506.005	5264.88
511.668	5028.88
517.325	4744.88
522.977	4579.88
528.622	4418.88
534.261	4312.88
539.894	4232.88
545.521	4156.88
551.141	4096.88
556.756	4086.88
562.365	4012.88
567.968	4004.88
573.565	3939.88
579.155	3947.88
584.74	3914.88
590.319	3937.88
595.892	3901.88
601.459	3916.88
607.02	3896.88
612.575	3877.88
618.124	3817.88
623.667	3745.88
629.204	3684.88
634.735	3664.88
640.261	3608.88
645.781	3610.88
651.294	3555.88
656.802	3538.88
662.304	3553.88
667.8	3519.88
673.29	3533.88
678.775	3510.88
684.254	3491.88
689.726	3480.88
695.193	3498.88
700.655	3453.88
706.11	3441.88
711.56	3420.88
717.004	3380.88
722.442	3351.88
727.874	3323.88
733.301	3361.88
738.722	3328.88
744.137	3346.88
749.547	3322.88
754.951	3327.88
760.349	3341.88
765.741	3352.88
771.128	3365.88
776.509	3404.88
781.885	3468.88
787.254	3505.88
792.618	3500.88
797.977	3518.88
803.33	3470.88
808.677	3456.88
814.019	3403.88
819.355	3392.88
824.686	3367.88
830.011	3326.88
835.33	3304.88
840.644	3309.88
845.952	3258.88
851.255	3263.88
856.552	3238.88
861.844	3189.88
867.13	3139.88
872.41	3118.88
877.686	3121.88
882.955	3083.88
888.219	3004.88
893.478	3000.88
898.731	2949.88
903.979	2923.88
909.221	2884.88
914.458	2859.88
919.69	2880.88
924.916	2879.88
930.136	2895.88
935.351	2884.88
940.561	2897.88
945.766	2883.88
950.965	2881.88
956.158	2850.88
961.347	2805.88
966.529	2773.88
971.707	2743.88
976.879	2716.88
982.046	2704.88
987.208	2658.88
992.364	2672.88
997.515	2687.88
1002.66	2702.88
1007.801	2715.88
1012.936	2737.88
1018.066	2727.88
1023.19	2786.88
1028.309	2775.88
1033.423	2762.88
1038.532	2795.88
1043.636	2762.88
1048.734	2751.88
1053.827	2727.88
1058.915	2673.88
1063.998	2663.88
1069.075	2649.88
1074.147	2669.88
1079.214	2648.88
1084.276	2685.88
1089.333	2667.88
1094.385	2680.88
1099.431	2663.88
1104.472	2645.88
1109.509	2607.88
1114.54	2591.88
1119.565	2552.88
1124.586	2518.88
1129.602	2490.88
1134.613	2451.88
1139.618	2441.88
1144.619	2439.88
1149.614	2469.88
1154.604	2465.88
1159.589	2475.88
1164.57	2493.88
1169.545	2490.88
1174.515	2487.88
1179.48	2456.88
1184.44	2443.88
1189.395	2450.88
1194.345	2404.88
1199.29	2423.88
1204.23	2382.88
1209.165	2370.88
1214.095	2423.88
1219.021	2421.88
1223.941	2426.88
1228.856	2438.88
1233.766	2457.88
1238.672	2440.88
1243.572	2442.88
1248.467	2427.88
1253.358	2378.88
1258.244	2335.88
1263.124	2315.88
1268	2263.88
1272.871	2223.88
1277.737	2228.88
1282.599	2213.88
1287.455	2197.88
1292.306	2218.88
1297.153	2193.88
1301.995	2236.88
1306.832	2246.88
1311.664	2235.88
1316.491	2227.88
1321.314	2236.88
1326.132	2188.88
1330.945	2165.88
1335.753	2111.88
1340.556	2088.88
1345.354	2070.88
1350.148	2044.88
1354.937	2025.88
1359.722	2006.88
1364.501	1983.88
1369.276	1974.88
1374.046	1983.88
1378.811	1939.88
1383.572	1974.88
1388.327	1980.88
1393.079	1939.88
1397.825	1924.88
1402.567	1902.88
1407.304	1903.88
1412.036	1889.88
1416.764	1892.88
1421.487	1860.88
1426.205	1873.88
1430.919	1882.88
1435.628	1897.88
1440.333	1880.88
1445.032	1921.88
1449.727	1912.88
1454.418	1938.88
1459.104	1921.88
1463.785	1888.88
1468.462	1894.88
1473.134	1844.88
1477.802	1805.88
1482.465	1776.88
1487.123	1773.88
1491.777	1744.88
1496.426	1740.88
1501.071	1796.88
1505.711	1766.88
1510.347	1793.88
1514.978	1794.88
1519.604	1777.88
1524.226	1819.88
1528.844	1782.88
1533.457	1774.88
1538.065	1763.88
1542.669	1747.88
1547.269	1719.88
1551.864	1720.88
1556.454	1702.88
1561.041	1710.88
1565.622	1710.88
1570.199	1712.88
1574.772	1726.88
1579.34	1750.88
1583.904	1753.88
1588.464	1778.88
1593.019	1770.88
1597.569	1759.88
1602.115	1776.88
1606.657	1760.88
1611.195	1755.88
1615.728	1751.88
1620.256	1733.88
1624.78	1729.88
1629.3	1733.88
1633.816	1746.88
1638.327	1760.88
1642.834	1782.88
1647.336	1762.88
1651.834	1792.88
1656.328	1809.88
1660.817	1763.88
1665.302	1760.88
1669.783	1754.88
1674.259	1709.88
1678.732	1688.88
1683.199	1653.88
1687.663	1594.88
1692.122	1587.88
1696.577	1534.88
1701.028	1498.88
1705.474	1474.88
1709.917	1448.88
1714.355	1437.88
1718.788	1421.88
1723.218	1400.88
1727.643	1382.88
1732.064	1370.88
1736.481	1336.88
1740.893	1334.88
1745.301	1285.88
1749.705	1238.88
1754.105	1242.88
1758.501	1210.88
1762.893	1205.88
1767.28	1155.88
1771.663	1156.88
1776.042	1148.88
1780.417	1141.88
1784.787	1134.88
1789.154	1144.88
1793.516	1148.88
1797.874	1146.88
1802.228	1149.88
1806.578	1134.88
1810.924	1133.88
1815.266	1034.88
1819.603	1111.88
1823.937	1061.88
1828.266	1074.88
1832.591	1054.88
1836.913	1059.88
1841.23	1055.88
1845.543	1044.88
1849.852	1058.88
1854.156	1049.88
1858.457	1038.88
1862.754	1050.88
1867.047	1059.88
1871.335	1088.88
1875.62	1070.88
1879.9	1057.88
1884.177	1040.88
1888.449	1038.88
1892.718	1033.88
1896.982	1041.88
1901.243	1023.88
1905.499	1023.88
1909.752	1010.88
1914	995.88
1918.245	1018.88
1922.485	1016.88
1926.722	1018.88
1930.954	1022.88
1935.183	1025.88
1939.408	1031.88
1943.628	1031.88
1947.845	1024.88
1952.058	1001.88
1956.267	994.88
1960.472	988.88
1964.673	976.88
1968.87	937.88
1973.063	939.88
1977.252	920.88
1981.438	904.88
1985.619	901.88
1989.797	871.88
1993.971	884.88
1998.14	897.88
2002.306	884.88
2006.469	891.88
2010.627	859.88
2014.781	867.88
2018.932	856.88
2023.078	880.88
2027.221	858.88
2031.36	837.88
2035.495	837.88
2039.627	826.88
2043.754	820.88
2047.878	813.88
2051.998	800.88
2056.114	823.88
2060.226	804.88
2064.334	823.88
2068.439	814.88
2072.54	832.88
2076.637	799.88
2080.73	822.88
2084.82	822.88
2088.906	810.88
2092.988	817.88
2097.066	810.88
2101.14	813.88
2105.211	813.88
2109.278	783.88
2113.342	772.88
2117.401	769.88
2121.457	751.88
2125.509	747.88
2129.558	752.88
2133.602	745.88
2137.643	746.88
2141.681	743.88
2145.714	744.88
2149.744	739.88
2153.77	722.88
2157.793	704.88
2161.812	677.88
2165.827	663.88
2169.838	688.88
2173.846	671.88
2177.851	646.88
2181.851	664.88
2185.848	634.88
2189.841	645.88
2193.831	628.88
2197.817	622.88
2201.799	616.88
2205.778	610.88
2209.753	600.88
2213.725	602.88
2217.693	602.88
2221.657	607.88
2225.618	599.88
2229.575	598.88
2233.529	594.88
2237.479	590.88
2241.425	564.88
2245.368	572.88
2249.307	562.88
2253.243	545.88
2257.175	545.88
2261.104	528.88
2265.029	533.88
2268.95	515.88
2272.868	506.88
2276.783	499.88
2280.694	513.88
2284.601	497.88
2288.505	494.88
2292.405	504.88
2296.302	465.88
2300.195	464.88
2304.085	444.88
2307.971	471.88
2311.854	435.88
2315.734	448.88
2319.609	452.88
2323.482	422.88
2327.351	430.88
2331.216	429.88
2335.078	429.88
2338.937	420.88
2342.792	411.88
2346.643	412.88
2350.492	428.88
2354.336	408.88
2358.178	427.88
2362.015	418.88
2365.85	421.88
2369.681	423.88
2373.508	418.88
2377.333	420.88
2381.153	419.88
2384.971	407.88
2388.785	413.88
2392.595	393.88
2396.402	404.88
2400.206	374.88
2404.007	386.88
2407.804	391.88
2411.597	396.88
2415.388	388.88
2419.174	390.88
2422.958	398.88
2426.738	392.88
2430.515	387.88
2434.289	373.88
2438.059	378.88
2441.825	371.88
2445.589	378.88
2449.349	352.88
2453.106	366.88
2456.859	364.88
2460.61	376.88
2464.356	348.88
2468.1	342.88
2471.84	339.88
2475.577	334.88
2479.311	343.88
2483.041	338.88
2486.768	357.88
2490.492	354.88
2494.213	341.88
2497.93	326.88
2501.644	320.88
2505.355	336.88
2509.062	326.88
2512.766	330.88
2516.467	330.88
2520.165	323.88
2523.859	319.88
2527.551	339.88
2531.239	319.88
2534.923	325.88
2538.605	321.88
2542.283	316.88
2545.958	312.88
2549.63	323.88
2553.299	324.88
2556.964	303.88
2560.626	309.88
2564.285	311.88
2567.941	296.88
2571.594	289.88
2575.243	305.88
2578.89	291.88
2582.533	300.88
2586.173	284.88
2589.809	288.88
2593.443	267.88
2597.073	288.88
2600.701	277.88
2604.325	272.88
2607.946	267.88
2611.564	279.88
2615.178	271.88
2618.79	278.88
2622.398	265.88
2626.004	271.88
2629.606	268.88
2633.205	253.88
2636.801	263.88
2640.394	266.88
2643.983	242.88
2647.57	247.88
2651.153	239.88
2654.734	263.88
2658.311	229.88
2661.885	226.88
2665.456	235.88
2669.025	244.88
2672.589	221.88
2676.151	245.88
2679.71	243.88
2683.266	228.88
2686.819	217.88
2690.368	225.88
2693.915	223.88
2697.458	219.88
2700.999	227.88
2704.536	222.88
2708.071	209.88
2711.602	219.88
2715.13	210.88
2718.656	190.88
2722.178	205.88
2725.697	192.88
2729.214	197.88
2732.727	206.88
2736.237	192.88
2739.744	210.88
2743.249	197.88
2746.75	198.88
2750.248	190.88
2753.743	201.88
2757.236	200.88
2760.725	203.88
2764.211	165.88
2767.695	199.88
2771.175	190.88
2774.652	194.88
2778.127	188.88
2781.598	194.88
2785.067	194.88
2788.532	174.88
2791.995	188.88
2795.455	186.88
2798.911	201.88
2802.365	187.88
2805.816	195.88
2809.264	199.88
2812.709	182.88
2816.151	201.88
2819.59	185.88
2823.026	185.88
2826.46	187.88
2829.89	204.88
2833.318	171.88
2836.742	189.88
2840.164	193.88
2843.583	193.88
2846.999	190.88
2850.412	204.88
2853.822	193.88
2857.229	206.88
2860.634	210.88
2864.035	186.88
2867.434	212.88
2870.83	216.88
2874.223	205.88
2877.613	213.88
2881	202.88
2884.385	208.88
2887.766	213.88
2891.145	214.88
2894.521	218.88
2897.894	207.88
2901.264	225.88
2904.631	221.88
2907.996	218.88
2911.358	221.88
2914.717	234.88
2918.073	219.88
2921.426	224.88
2924.777	222.88
2928.124	226.88
2931.469	245.88
2934.811	216.88
2938.15	255.88
2941.487	240.88
2944.821	262.88
2948.152	242.88
2951.48	253.88
2954.805	240.88
2958.128	257.88
2961.447	255.88
2964.765	258.88
2968.079	244.88
2971.39	259.88
2974.699	254.88
2978.005	260.88
2981.308	256.88
2984.609	253.88
2987.907	272.88
2991.202	279.88
2994.494	265.88
2997.784	272.88
3001.07	276.88
3004.355	271.88
3007.636	280.88
3010.915	279.88
3014.191	269.88
3017.464	292.88
3020.734	292.88
3024.002	298.88
3027.267	294.88
3030.53	297.88
3033.789	296.88
3037.046	306.88
3040.301	293.88
3043.552	319.88
3046.801	320.88
3050.048	331.88
3053.291	346.88
3056.532	341.88
3059.771	337.88
3063.006	363.88
3066.239	374.88
3069.469	382.88
3072.697	378.88
3075.922	385.88
3079.144	388.88
3082.364	432.88
3085.581	417.88
3088.795	438.88
3092.007	447.88
3095.216	446.88
3098.423	461.88
3101.627	440.88
3104.828	485.88
3108.026	469.88
3111.222	500.88
3114.416	506.88
3117.607	514.88
3120.795	523.88
3123.98	528.88
3127.163	532.88
3130.344	541.88
3133.521	554.88
3136.696	585.88
3139.869	580.88
3143.039	575.88
3146.206	615.88
3149.371	619.88
3152.533	610.88
3155.693	614.88
3158.85	632.88
3162.005	637.88
3165.157	625.88
3168.306	630.88
3171.453	646.88
3174.597	629.88
3177.739	634.88
3180.878	639.88
3184.014	643.88
3187.149	643.88
3190.28	644.88
3193.409	657.88
3196.536	649.88
3199.659	659.88
3202.781	664.88
3205.9	646.88
3209.016	655.88
3212.13	649.88
3215.241	646.88
3218.35	643.88
3221.456	627.88
3224.56	622.88
3227.661	640.88
3230.76	618.88
3233.856	619.88
3236.95	618.88
3240.041	603.88
3243.13	606.88
3246.216	610.88
3249.3	608.88
3252.382	614.88
3255.46	600.88
3258.537	551.88
3261.611	594.88
3264.682	589.88
3267.751	590.88
3270.818	580.88
3273.882	592.88
3276.943	577.88
3280.002	597.88
3283.059	575.88
3286.113	574.88
3289.165	561.88
3292.214	550.88
3295.261	562.88
3298.306	527.88
3301.348	526.88
3304.387	522.88
3307.425	519.88
3310.459	514.88
3313.492	514.88
3316.521	508.88
3319.549	508.88
3322.574	503.88
3325.597	497.88
3328.617	476.88
3331.635	490.88
3334.65	472.88
3337.663	495.88
3340.674	476.88
3343.682	473.88
3346.688	497.88
3349.691	472.88
3352.692	473.88
3355.691	478.88
3358.687	478.88
3361.681	475.88
3364.673	464.88
3367.662	468.88
3370.649	469.88
3373.633	445.88
3376.615	450.88
3379.595	433.88
3382.572	429.88
3385.547	415.88
3388.52	417.88
3391.49	419.88
3394.458	416.88
3397.424	422.88
3400.387	393.88
3403.348	394.88
3406.307	393.88
3409.263	397.88
3412.217	396.88
3415.168	395.88
3418.118	410.88
3421.065	384.88
3424.009	390.88
3426.951	375.88
3429.891	369.88
3432.829	365.88
3435.764	360.88
3438.697	343.88
3441.628	351.88
3444.557	321.88
3447.483	318.88
3450.407	322.88
3453.328	306.88
3456.247	300.88
3459.164	285.88
3462.079	297.88
3464.991	282.88
3467.902	269.88
3470.809	260.88
3473.715	266.88
3476.618	254.88
3479.519	258.88
3482.418	212.88
3485.315	226.88
3488.209	234.88
3491.101	224.88
3493.99	210.88
3496.878	200.88
3499.763	208.88
3502.646	199.88
3505.527	181.88
3508.405	188.88
3511.281	172.88
3514.155	182.88
3517.027	167.88
3519.897	158.88
3522.764	158.88
3525.629	132.88
3528.492	138.88
3531.352	135.88
3534.211	131.88
3537.067	116.88
3539.921	113.88
3542.773	125.88
3545.622	105.88
3548.469	95.88
3551.315	88.88
3554.157	99.88
3556.998	84.88
3559.837	86.88
3562.673	87.88
3565.507	76.88
3568.339	65.88
3571.169	74.88
3573.996	66.88
3576.822	48.88
3579.645	59.88
3582.466	56.88
3585.285	58.88
3588.101	53.88
3590.916	46.88
3593.728	54.88
3596.538	43.88
3599.346	46.88
3602.152	39.88
3604.956	39.88
3607.757	44.88
3610.556	18.88
3613.354	38.88
3616.149	30.88
3618.942	38.88
3621.732	28.88
3624.521	22.88
3627.307	15.88
3630.092	15.88
3632.874	28.88
3635.654	16.88
3638.432	11.88
3641.208	7.88
3643.982	7.88
3646.753	20.88
3649.523	-13.12
3652.29	5.88
3655.055	12.88
3657.818	5.88
3660.579	0.88
3663.338	-3.12
3666.095	-4.12
3668.849	-22.12
3671.602	8.88
3674.352	-14.12
3677.101	3.88
3679.847	0.88
3682.591	-12.12
3685.333	-20.12
3688.073	-6.12
3690.811	-17.12
3693.547	-24.12
3696.281	-21.12
3699.013	-8.12
3701.742	-17.12
3704.47	-24.12
3707.195	-12.12
3709.919	-14.12
3712.64	-11.12
3715.359	-31.12
3718.076	-7.12
3720.792	-17.12
3723.505	-14.12
3726.216	-12.12
3728.925	-19.12
3731.632	-20.12
3734.336	-18.12
3737.039	-20.12
3739.74	-17.12
3742.439	-44.12
3745.136	-18.12
3747.83	-19.12
3750.523	-22.12
3753.213	-78.12
3755.902	-23.12
3758.589	-36.12
3761.273	-27.12
3763.956	-18.12
3766.636	-36.12
3769.315	-16.12
3771.991	-27.12
3774.665	-25.12
3777.338	-25.12
3780.008	-35.12
3782.677	-28.12
3785.343	-40.12
3788.007	-45.12
3790.67	-23.12
3793.33	-40.12
3795.989	-31.12
3798.645	-24.12
3801.299	-38.12
3803.952	-35.12
3806.602	-31.12
3809.251	-23.12
3811.897	-28.12
3814.542	-27.12
3817.184	-27.12
3819.825	-27.12
3822.463	-42.12
3825.1	-33.12
3827.735	-25.12
3830.367	-41.12
3832.998	-13.12
3835.627	-34.12
3838.253	-22.12
3840.878	-28.12
3843.501	-11.12
3846.122	-23.12
3848.741	-23.12
3851.358	-21.12
3853.973	-40.12
3856.586	-17.12
3859.197	-33.12
3861.806	-25.12
3864.414	-40.12
3867.019	-23.12
3869.622	-19.12
3872.224	-16.12
3874.823	-2.12
3877.421	29.88
3880.016	42.88
3882.61	87.88
3885.202	100.88
3887.792	70.88
3890.38	33.88
3892.966	-6.12
3895.55	-29.12
3898.132	-18.12
3900.713	-17.12
3903.291	-24.12
3905.868	-37.12
3908.442	-28.12
3911.015	-30.12
3913.586	-38.12
3916.155	-30.12
3918.722	-35.12
3921.287	-40.12
3923.85	-42.12
3926.411	-36.12
3928.971	-35.12
3931.528	-24.12
3934.084	-36.12
3936.638	-40.12
3939.19	-29.12
3941.74	-33.12
3944.288	-32.12
3946.834	-30.12
3949.378	-28.12
3951.921	-36.12
3954.462	-32.12
3957	-30.12
3959.537	-17.12
3962.072	-30.12
3964.606	-48.12
3967.137	-32.12
3969.667	-35.12
3972.194	-25.12
3974.72	-38.12
3977.244	-53.12
3979.766	-41.12
3982.286	-37.12
3984.805	-28.12
3987.321	-19.12
3989.836	-28.12
3992.349	-34.12
3994.86	-31.12
3997.369	-32.12
3999.877	-28.12
4002.382	-34.12
4004.886	-24.12
4007.388	-30.12
4009.888	-19.12
4012.386	-20.12
4014.883	-25.12
4017.377	-25.12
4019.87	-25.12
4022.361	-38.12
4024.85	-27.12
4027.338	-24.12
4029.823	-29.12
4032.307	-29.12
4034.789	-26.12
4037.269	-30.12
4039.747	-40.12
4042.224	-19.12
4044.699	-31.12
4047.172	-32.12
4049.643	-22.12
4052.112	-55.12
4054.58	-30.12
4057.046	-38.12
4059.51	-26.12
4061.972	-28.12
4064.432	-41.12
4066.891	-17.12
4069.348	-31.12
4071.803	-31.12
4074.256	-31.12
4076.708	-24.12
4079.158	-30.12
4081.606	-21.12
4084.052	-24.12
4086.497	-22.12
4088.939	-29.12
4091.38	-28.12
4093.819	-20.12
4096.257	-0.12
4098.693	-10.12
4101.127	-6.12
4103.559	0.88
4105.989	125.88
4108.418	133.88
4110.845	128.88
4113.27	129.88
4115.694	132.88
4118.115	127.88
4120.535	-23.12
4122.954	-18.12
4125.37	-16.12
4127.785	-28.12
4130.198	-17.12
4132.609	-21.12
4135.019	8.88
4137.427	2.88
4139.833	5.88
4142.237	-2.12
