Data from 2018-3-6_conc=2_n=9_RamanShift_03.txt Node
Date: Tue Mar 06 13:07:19 GMT+02:00 2018
User: LAB3
Spectrometer: QEPB0276
Trigger mode: 0
Integration Time (sec): 3.000000E1
Scans to average: 1
Electric dark correction enabled: true
Nonlinearity correction enabled: false
Boxcar width: 0
XAxis mode: Raman Shifts
Number of Pixels in Spectrum: 1044
>>>>>Begin Spectral Data<<<<<
160.701	160.5
166.742	205.5
172.777	316.5
178.805	621.5
184.826	1404.5
190.841	2787.5
196.849	4464.5
202.85	5706.5
208.845	6159.5
214.833	6215.5
220.815	6131.5
226.789	6168.5
232.758	6189.5
238.719	6201.5
244.674	6164.5
250.623	6133.5
256.565	6085.5
262.5	6051.5
268.429	6012.5
274.351	5991.5
280.267	6001.5
286.176	6022.5
292.079	6023.5
297.975	6001.5
303.865	6045.5
309.748	6031.5
315.625	6077.5
321.495	6095.5
327.359	6090.5
333.217	6097.5
339.068	6117.5
344.912	6133.5
350.751	6171.5
356.583	6204.5
362.408	6264.5
368.227	6266.5
374.04	6278.5
379.847	6328.5
385.647	6383.5
391.44	6374.5
397.228	6437.5
403.009	6477.5
408.784	6493.5
414.553	6529.5
420.315	6537.5
426.071	6529.5
431.821	6567.5
437.565	6520.5
443.302	6501.5
449.033	6464.5
454.758	6485.5
460.477	6425.5
466.189	6341.5
471.896	6291.5
477.596	6218.5
483.29	6223.5
488.978	6180.5
494.66	6141.5
500.335	5988.5
506.005	5735.5
511.668	5460.5
517.325	5160.5
522.977	4935.5
528.622	4775.5
534.261	4655.5
539.894	4584.5
545.521	4512.5
551.141	4458.5
556.756	4398.5
562.365	4369.5
567.968	4310.5
573.565	4314.5
579.155	4270.5
584.74	4254.5
590.319	4238.5
595.892	4211.5
601.459	4218.5
607.02	4185.5
612.575	4178.5
618.124	4118.5
623.667	4057.5
629.204	4019.5
634.735	3975.5
640.261	3920.5
645.781	3865.5
651.294	3858.5
656.802	3849.5
662.304	3876.5
667.8	3822.5
673.29	3818.5
678.775	3821.5
684.254	3778.5
689.726	3753.5
695.193	3737.5
700.655	3723.5
706.11	3719.5
711.56	3691.5
717.004	3680.5
722.442	3658.5
727.874	3626.5
733.301	3632.5
738.722	3595.5
744.137	3603.5
749.547	3632.5
754.951	3614.5
760.349	3627.5
765.741	3645.5
771.128	3642.5
776.509	3709.5
781.885	3769.5
787.254	3811.5
792.618	3811.5
797.977	3801.5
803.33	3790.5
808.677	3735.5
814.019	3714.5
819.355	3689.5
824.686	3633.5
830.011	3614.5
835.33	3607.5
840.644	3611.5
845.952	3548.5
851.255	3524.5
856.552	3493.5
861.844	3428.5
867.13	3425.5
872.41	3393.5
877.686	3371.5
882.955	3341.5
888.219	3298.5
893.478	3244.5
898.731	3214.5
903.979	3162.5
909.221	3141.5
914.458	3140.5
919.69	3114.5
924.916	3135.5
930.136	3129.5
935.351	3125.5
940.561	3145.5
945.766	3109.5
950.965	3123.5
956.158	3049.5
961.347	3055.5
966.529	3004.5
971.707	2981.5
976.879	2944.5
982.046	2925.5
987.208	2873.5
992.364	2899.5
997.515	2908.5
1002.66	2954.5
1007.801	2943.5
1012.936	2972.5
1018.066	2946.5
1023.19	3007.5
1028.309	2993.5
1033.423	2997.5
1038.532	3004.5
1043.636	2973.5
1048.734	2959.5
1053.827	2927.5
1058.915	2903.5
1063.998	2918.5
1069.075	2897.5
1074.147	2893.5
1079.214	2862.5
1084.276	2890.5
1089.333	2891.5
1094.385	2885.5
1099.431	2893.5
1104.472	2883.5
1109.509	2851.5
1114.54	2807.5
1119.565	2742.5
1124.586	2729.5
1129.602	2697.5
1134.613	2663.5
1139.618	2656.5
1144.619	2650.5
1149.614	2659.5
1154.604	2663.5
1159.589	2669.5
1164.57	2692.5
1169.545	2714.5
1174.515	2699.5
1179.48	2676.5
1184.44	2665.5
1189.395	2657.5
1194.345	2616.5
1199.29	2595.5
1204.23	2586.5
1209.165	2577.5
1214.095	2615.5
1219.021	2612.5
1223.941	2630.5
1228.856	2637.5
1233.766	2652.5
1238.672	2647.5
1243.572	2661.5
1248.467	2629.5
1253.358	2581.5
1258.244	2531.5
1263.124	2508.5
1268	2489.5
1272.871	2414.5
1277.737	2407.5
1282.599	2365.5
1287.455	2374.5
1292.306	2385.5
1297.153	2384.5
1301.995	2415.5
1306.832	2404.5
1311.664	2430.5
1316.491	2406.5
1321.314	2411.5
1326.132	2384.5
1330.945	2356.5
1335.753	2313.5
1340.556	2263.5
1345.354	2252.5
1350.148	2206.5
1354.937	2177.5
1359.722	2149.5
1364.501	2153.5
1369.276	2144.5
1374.046	2143.5
1378.811	2146.5
1383.572	2114.5
1388.327	2143.5
1393.079	2114.5
1397.825	2091.5
1402.567	2072.5
1407.304	2045.5
1412.036	2078.5
1416.764	2050.5
1421.487	2026.5
1426.205	2036.5
1430.919	2044.5
1435.628	2058.5
1440.333	2062.5
1445.032	2071.5
1449.727	2095.5
1454.418	2099.5
1459.104	2105.5
1463.785	2059.5
1468.462	2014.5
1473.134	2009.5
1477.802	1977.5
1482.465	1920.5
1487.123	1941.5
1491.777	1904.5
1496.426	1894.5
1501.071	1923.5
1505.711	1917.5
1510.347	1960.5
1514.978	1947.5
1519.604	1944.5
1524.226	1947.5
1528.844	1915.5
1533.457	1910.5
1538.065	1913.5
1542.669	1896.5
1547.269	1878.5
1551.864	1855.5
1556.454	1831.5
1561.041	1864.5
1565.622	1859.5
1570.199	1867.5
1574.772	1865.5
1579.34	1913.5
1583.904	1909.5
1588.464	1931.5
1593.019	1945.5
1597.569	1928.5
1602.115	1929.5
1606.657	1884.5
1611.195	1930.5
1615.728	1903.5
1620.256	1898.5
1624.78	1865.5
1629.3	1893.5
1633.816	1890.5
1638.327	1910.5
1642.834	1936.5
1647.336	1921.5
1651.834	1941.5
1656.328	1944.5
1660.817	1941.5
1665.302	1915.5
1669.783	1892.5
1674.259	1866.5
1678.732	1842.5
1683.199	1788.5
1687.663	1731.5
1692.122	1704.5
1696.577	1662.5
1701.028	1622.5
1705.474	1607.5
1709.917	1572.5
1714.355	1563.5
1718.788	1535.5
1723.218	1518.5
1727.643	1493.5
1732.064	1494.5
1736.481	1455.5
1740.893	1439.5
1745.301	1415.5
1749.705	1352.5
1754.105	1344.5
1758.501	1305.5
1762.893	1302.5
1767.28	1262.5
1771.663	1266.5
1776.042	1225.5
1780.417	1226.5
1784.787	1247.5
1789.154	1255.5
1793.516	1256.5
1797.874	1248.5
1802.228	1227.5
1806.578	1223.5
1810.924	1232.5
1815.266	1107.5
1819.603	1197.5
1823.937	1185.5
1828.266	1166.5
1832.591	1156.5
1836.913	1159.5
1841.23	1134.5
1845.543	1133.5
1849.852	1145.5
1854.156	1139.5
1858.457	1139.5
1862.754	1136.5
1867.047	1141.5
1871.335	1160.5
1875.62	1151.5
1879.9	1168.5
1884.177	1137.5
1888.449	1143.5
1892.718	1133.5
1896.982	1139.5
1901.243	1113.5
1905.499	1111.5
1909.752	1113.5
1914	1090.5
1918.245	1097.5
1922.485	1120.5
1926.722	1119.5
1930.954	1105.5
1935.183	1114.5
1939.408	1130.5
1943.628	1122.5
1947.845	1097.5
1952.058	1083.5
1956.267	1073.5
1960.472	1072.5
1964.673	1050.5
1968.87	1030.5
1973.063	1001.5
1977.252	1007.5
1981.438	989.5
1985.619	972.5
1989.797	965.5
1993.971	957.5
1998.14	972.5
2002.306	966.5
2006.469	954.5
2010.627	945.5
2014.781	942.5
2018.932	926.5
2023.078	953.5
2027.221	934.5
2031.36	911.5
2035.495	913.5
2039.627	904.5
2043.754	893.5
2047.878	878.5
2051.998	883.5
2056.114	880.5
2060.226	887.5
2064.334	885.5
2068.439	888.5
2072.54	891.5
2076.637	885.5
2080.73	888.5
2084.82	893.5
2088.906	894.5
2092.988	883.5
2097.066	886.5
2101.14	887.5
2105.211	874.5
2109.278	854.5
2113.342	851.5
2117.401	836.5
2121.457	818.5
2125.509	805.5
2129.558	816.5
2133.602	820.5
2137.643	810.5
2141.681	795.5
2145.714	800.5
2149.744	791.5
2153.77	774.5
2157.793	766.5
2161.812	746.5
2165.827	734.5
2169.838	746.5
2173.846	722.5
2177.851	704.5
2181.851	716.5
2185.848	701.5
2189.841	694.5
2193.831	690.5
2197.817	687.5
2201.799	678.5
2205.778	654.5
2209.753	661.5
2213.725	654.5
2217.693	671.5
2221.657	656.5
2225.618	654.5
2229.575	656.5
2233.529	638.5
2237.479	639.5
2241.425	626.5
2245.368	596.5
2249.307	624.5
2253.243	596.5
2257.175	603.5
2261.104	577.5
2265.029	586.5
2268.95	565.5
2272.868	551.5
2276.783	543.5
2280.694	556.5
2284.601	542.5
2288.505	535.5
2292.405	535.5
2296.302	515.5
2300.195	515.5
2304.085	481.5
2307.971	515.5
2311.854	476.5
2315.734	473.5
2319.609	489.5
2323.482	456.5
2327.351	457.5
2331.216	464.5
2335.078	463.5
2338.937	465.5
2342.792	450.5
2346.643	458.5
2350.492	464.5
2354.336	453.5
2358.178	453.5
2362.015	458.5
2365.85	451.5
2369.681	454.5
2373.508	454.5
2377.333	467.5
2381.153	460.5
2384.971	442.5
2388.785	446.5
2392.595	436.5
2396.402	426.5
2400.206	412.5
2404.007	424.5
2407.804	429.5
2411.597	428.5
2415.388	430.5
2419.174	422.5
2422.958	429.5
2426.738	415.5
2430.515	424.5
2434.289	415.5
2438.059	413.5
2441.825	403.5
2445.589	409.5
2449.349	392.5
2453.106	402.5
2456.859	393.5
2460.61	402.5
2464.356	378.5
2468.1	371.5
2471.84	385.5
2475.577	369.5
2479.311	367.5
2483.041	369.5
2486.768	390.5
2490.492	384.5
2494.213	375.5
2497.93	367.5
2501.644	350.5
2505.355	361.5
2509.062	357.5
2512.766	361.5
2516.467	345.5
2520.165	358.5
2523.859	330.5
2527.551	365.5
2531.239	346.5
2534.923	356.5
2538.605	346.5
2542.283	349.5
2545.958	343.5
2549.63	359.5
2553.299	355.5
2556.964	336.5
2560.626	337.5
2564.285	342.5
2567.941	321.5
2571.594	318.5
2575.243	328.5
2578.89	321.5
2582.533	322.5
2586.173	324.5
2589.809	313.5
2593.443	283.5
2597.073	305.5
2600.701	304.5
2604.325	299.5
2607.946	295.5
2611.564	307.5
2615.178	309.5
2618.79	296.5
2622.398	290.5
2626.004	292.5
2629.606	294.5
2633.205	280.5
2636.801	287.5
2640.394	274.5
2643.983	271.5
2647.57	265.5
2651.153	264.5
2654.734	278.5
2658.311	245.5
2661.885	259.5
2665.456	254.5
2669.025	254.5
2672.589	242.5
2676.151	263.5
2679.71	262.5
2683.266	257.5
2686.819	238.5
2690.368	247.5
2693.915	252.5
2697.458	243.5
2700.999	240.5
2704.536	235.5
2708.071	234.5
2711.602	235.5
2715.13	231.5
2718.656	206.5
2722.178	224.5
2725.697	214.5
2729.214	217.5
2732.727	224.5
2736.237	214.5
2739.744	213.5
2743.249	210.5
2746.75	213.5
2750.248	207.5
2753.743	220.5
2757.236	215.5
2760.725	223.5
2764.211	183.5
2767.695	220.5
2771.175	207.5
2774.652	216.5
2778.127	211.5
2781.598	208.5
2785.067	218.5
2788.532	205.5
2791.995	208.5
2795.455	203.5
2798.911	221.5
2802.365	210.5
2805.816	216.5
2809.264	215.5
2812.709	209.5
2816.151	219.5
2819.59	201.5
2823.026	219.5
2826.46	208.5
2829.89	221.5
2833.318	196.5
2836.742	216.5
2840.164	218.5
2843.583	209.5
2846.999	220.5
2850.412	218.5
2853.822	217.5
2857.229	234.5
2860.634	224.5
2864.035	212.5
2867.434	235.5
2870.83	234.5
2874.223	229.5
2877.613	238.5
2881	228.5
2884.385	234.5
2887.766	237.5
2891.145	246.5
2894.521	227.5
2897.894	228.5
2901.264	249.5
2904.631	246.5
2907.996	247.5
2911.358	263.5
2914.717	248.5
2918.073	260.5
2921.426	245.5
2924.777	234.5
2928.124	255.5
2931.469	277.5
2934.811	255.5
2938.15	286.5
2941.487	277.5
2944.821	292.5
2948.152	279.5
2951.48	291.5
2954.805	271.5
2958.128	293.5
2961.447	279.5
2964.765	291.5
2968.079	280.5
2971.39	281.5
2974.699	289.5
2978.005	296.5
2981.308	289.5
2984.609	284.5
2987.907	299.5
2991.202	311.5
2994.494	290.5
2997.784	305.5
3001.07	307.5
3004.355	301.5
3007.636	315.5
3010.915	313.5
3014.191	312.5
3017.464	319.5
3020.734	322.5
3024.002	317.5
3027.267	324.5
3030.53	326.5
3033.789	332.5
3037.046	330.5
3040.301	322.5
3043.552	353.5
3046.801	353.5
3050.048	363.5
3053.291	389.5
3056.532	381.5
3059.771	377.5
3063.006	395.5
3066.239	403.5
3069.469	416.5
3072.697	421.5
3075.922	435.5
3079.144	436.5
3082.364	465.5
3085.581	453.5
3088.795	489.5
3092.007	488.5
3095.216	504.5
3098.423	505.5
3101.627	493.5
3104.828	523.5
3108.026	527.5
3111.222	552.5
3114.416	556.5
3117.607	568.5
3120.795	575.5
3123.98	598.5
3127.163	588.5
3130.344	601.5
3133.521	609.5
3136.696	652.5
3139.869	643.5
3143.039	644.5
3146.206	689.5
3149.371	678.5
3152.533	686.5
3155.693	673.5
3158.85	689.5
3162.005	703.5
3165.157	685.5
3168.306	697.5
3171.453	709.5
3174.597	697.5
3177.739	695.5
3180.878	705.5
3184.014	695.5
3187.149	706.5
3190.28	724.5
3193.409	721.5
3196.536	716.5
3199.659	714.5
3202.781	728.5
3205.9	715.5
3209.016	716.5
3212.13	722.5
3215.241	723.5
3218.35	713.5
3221.456	719.5
3224.56	692.5
3227.661	706.5
3230.76	682.5
3233.856	678.5
3236.95	682.5
3240.041	661.5
3243.13	683.5
3246.216	661.5
3249.3	665.5
3252.382	662.5
3255.46	663.5
3258.537	609.5
3261.611	650.5
3264.682	654.5
3267.751	646.5
3270.818	648.5
3273.882	649.5
3276.943	648.5
3280.002	658.5
3283.059	634.5
3286.113	625.5
3289.165	607.5
3292.214	603.5
3295.261	620.5
3298.306	575.5
3301.348	593.5
3304.387	576.5
3307.425	569.5
3310.459	567.5
3313.492	568.5
3316.521	549.5
3319.549	572.5
3322.574	553.5
3325.597	545.5
3328.617	530.5
3331.635	527.5
3334.65	520.5
3337.663	539.5
3340.674	527.5
3343.682	530.5
3346.688	528.5
3349.691	523.5
3352.692	510.5
3355.691	527.5
3358.687	521.5
3361.681	507.5
3364.673	508.5
3367.662	510.5
3370.649	517.5
3373.633	492.5
3376.615	495.5
3379.595	470.5
3382.572	475.5
3385.547	461.5
3388.52	458.5
3391.49	454.5
3394.458	458.5
3397.424	455.5
3400.387	433.5
3403.348	449.5
3406.307	437.5
3409.263	439.5
3412.217	436.5
3415.168	425.5
3418.118	434.5
3421.065	411.5
3424.009	419.5
3426.951	414.5
3429.891	400.5
3432.829	397.5
3435.764	395.5
3438.697	376.5
3441.628	385.5
3444.557	356.5
3447.483	355.5
3450.407	359.5
3453.328	343.5
3456.247	335.5
3459.164	319.5
3462.079	327.5
3464.991	311.5
3467.902	300.5
3470.809	290.5
3473.715	295.5
3476.618	270.5
3479.519	273.5
3482.418	246.5
3485.315	247.5
3488.209	251.5
3491.101	237.5
3493.99	222.5
3496.878	226.5
3499.763	218.5
3502.646	226.5
3505.527	207.5
3508.405	201.5
3511.281	185.5
3514.155	193.5
3517.027	186.5
3519.897	171.5
3522.764	178.5
3525.629	145.5
3528.492	154.5
3531.352	148.5
3534.211	143.5
3537.067	129.5
3539.921	138.5
3542.773	135.5
3545.622	112.5
3548.469	106.5
3551.315	105.5
3554.157	108.5
3556.998	92.5
3559.837	98.5
3562.673	98.5
3565.507	88.5
3568.339	81.5
3571.169	81.5
3573.996	79.5
3576.822	55.5
3579.645	67.5
3582.466	64.5
3585.285	70.5
3588.101	66.5
3590.916	56.5
3593.728	61.5
3596.538	54.5
3599.346	47.5
3602.152	40.5
3604.956	48.5
3607.757	49.5
3610.556	30.5
3613.354	46.5
3616.149	33.5
3618.942	33.5
3621.732	29.5
3624.521	27.5
3627.307	14.5
3630.092	19.5
3632.874	37.5
3635.654	22.5
3638.432	12.5
3641.208	9.5
3643.982	13.5
3646.753	20.5
3649.523	-9.5
3652.29	5.5
3655.055	10.5
3657.818	10.5
3660.579	0.5
3663.338	-6.5
3666.095	-4.5
3668.849	-24.5
3671.602	3.5
3674.352	-12.5
3677.101	3.5
3679.847	3.5
3682.591	-9.5
3685.333	-16.5
3688.073	-7.5
3690.811	-18.5
3693.547	-25.5
3696.281	-21.5
3699.013	-12.5
3701.742	-19.5
3704.47	-26.5
3707.195	-11.5
3709.919	-16.5
3712.64	-14.5
3715.359	-29.5
3718.076	-10.5
3720.792	-22.5
3723.505	-17.5
3726.216	-3.5
3728.925	-25.5
3731.632	-26.5
3734.336	-20.5
3737.039	-21.5
3739.74	-18.5
3742.439	-44.5
3745.136	-17.5
3747.83	-21.5
3750.523	-15.5
3753.213	-81.5
3755.902	-27.5
3758.589	-41.5
3761.273	-31.5
3763.956	-20.5
3766.636	-40.5
3769.315	-18.5
3771.991	-28.5
3774.665	-31.5
3777.338	-23.5
3780.008	-34.5
3782.677	-26.5
3785.343	-39.5
3788.007	-50.5
3790.67	-23.5
3793.33	-36.5
3795.989	-30.5
3798.645	-27.5
3801.299	-40.5
3803.952	-41.5
3806.602	-31.5
3809.251	-21.5
3811.897	-35.5
3814.542	-29.5
3817.184	-36.5
3819.825	-33.5
3822.463	-45.5
3825.1	-33.5
3827.735	-27.5
3830.367	-40.5
3832.998	-16.5
3835.627	-31.5
3838.253	-23.5
3840.878	-30.5
3843.501	-16.5
3846.122	-26.5
3848.741	-24.5
3851.358	-23.5
3853.973	-39.5
3856.586	-19.5
3859.197	-41.5
3861.806	-26.5
3864.414	-41.5
3867.019	-29.5
3869.622	-16.5
3872.224	-6.5
3874.823	10.5
3877.421	39.5
3880.016	61.5
3882.61	105.5
3885.202	111.5
3887.792	81.5
3890.38	48.5
3892.966	9.5
3895.55	-24.5
3898.132	-19.5
3900.713	-16.5
3903.291	-26.5
3905.868	-35.5
3908.442	-25.5
3911.015	-32.5
3913.586	-33.5
3916.155	-35.5
3918.722	-35.5
3921.287	-33.5
3923.85	-47.5
3926.411	-37.5
3928.971	-34.5
3931.528	-24.5
3934.084	-34.5
3936.638	-41.5
3939.19	-28.5
3941.74	-28.5
3944.288	-38.5
3946.834	-32.5
3949.378	-24.5
3951.921	-39.5
3954.462	-32.5
3957	-25.5
3959.537	-12.5
3962.072	-31.5
3964.606	-46.5
3967.137	-35.5
3969.667	-27.5
3972.194	-25.5
3974.72	-38.5
3977.244	-56.5
3979.766	-38.5
3982.286	-37.5
3984.805	-26.5
3987.321	-19.5
3989.836	-27.5
3992.349	-36.5
3994.86	-24.5
3997.369	-35.5
3999.877	-29.5
4002.382	-39.5
4004.886	-23.5
4007.388	-25.5
4009.888	-17.5
4012.386	-19.5
4014.883	-27.5
4017.377	-27.5
4019.87	-24.5
4022.361	-38.5
4024.85	-28.5
4027.338	-27.5
4029.823	-33.5
4032.307	-32.5
4034.789	-30.5
4037.269	-22.5
4039.747	-42.5
4042.224	-20.5
4044.699	-35.5
4047.172	-33.5
4049.643	-22.5
4052.112	-52.5
4054.58	-21.5
4057.046	-43.5
4059.51	-26.5
4061.972	-29.5
4064.432	-42.5
4066.891	-14.5
4069.348	-32.5
4071.803	-25.5
4074.256	-26.5
4076.708	-20.5
4079.158	-27.5
4081.606	-18.5
4084.052	-29.5
4086.497	-21.5
4088.939	-28.5
4091.38	-28.5
4093.819	-24.5
4096.257	-1.5
4098.693	-5.5
4101.127	-5.5
4103.559	2.5
4105.989	139.5
4108.418	145.5
4110.845	133.5
4113.27	140.5
4115.694	147.5
4118.115	148.5
4120.535	-22.5
4122.954	-21.5
4125.37	-20.5
4127.785	-22.5
4130.198	-19.5
4132.609	-25.5
4135.019	9.5
4137.427	0.5
4139.833	3.5
4142.237	-3.5
