Data from 2018-3-6_conc=5_n=5_RamanShift_05.txt Node
Date: Tue Mar 06 14:36:48 GMT+02:00 2018
User: LAB3
Spectrometer: QEPB0276
Trigger mode: 0
Integration Time (sec): 3.000000E1
Scans to average: 1
Electric dark correction enabled: true
Nonlinearity correction enabled: false
Boxcar width: 0
XAxis mode: Raman Shifts
Number of Pixels in Spectrum: 1044
>>>>>Begin Spectral Data<<<<<
160.701	47.5
166.742	62.5
172.777	93.5
178.805	194.5
184.826	463.5
190.841	946.5
196.849	1473.5
202.85	1914.5
208.845	2037.5
214.833	2009.5
220.815	1957.5
226.789	1933.5
232.758	1936.5
238.719	1934.5
244.674	1892.5
250.623	1875.5
256.565	1824.5
262.5	1817.5
268.429	1794.5
274.351	1772.5
280.267	1774.5
286.176	1768.5
292.079	1757.5
297.975	1775.5
303.865	1737.5
309.748	1740.5
315.625	1729.5
321.495	1746.5
327.359	1728.5
333.217	1742.5
339.068	1727.5
344.912	1732.5
350.751	1732.5
356.583	1728.5
362.408	1760.5
368.227	1754.5
374.04	1764.5
379.847	1776.5
385.647	1775.5
391.44	1746.5
397.228	1774.5
403.009	1771.5
408.784	1788.5
414.553	1793.5
420.315	1796.5
426.071	1787.5
431.821	1796.5
437.565	1805.5
443.302	1790.5
449.033	1781.5
454.758	1769.5
460.477	1747.5
466.189	1742.5
471.896	1737.5
477.596	1722.5
483.29	1690.5
488.978	1696.5
494.66	1662.5
500.335	1643.5
506.005	1568.5
511.668	1517.5
517.325	1428.5
522.977	1375.5
528.622	1331.5
534.261	1292.5
539.894	1269.5
545.521	1262.5
551.141	1241.5
556.756	1220.5
562.365	1217.5
567.968	1218.5
573.565	1191.5
579.155	1213.5
584.74	1178.5
590.319	1198.5
595.892	1175.5
601.459	1192.5
607.02	1177.5
612.575	1178.5
618.124	1161.5
623.667	1145.5
629.204	1128.5
634.735	1105.5
640.261	1099.5
645.781	1057.5
651.294	1064.5
656.802	1073.5
662.304	1089.5
667.8	1097.5
673.29	1063.5
678.775	1076.5
684.254	1069.5
689.726	1043.5
695.193	1060.5
700.655	1040.5
706.11	1044.5
711.56	1032.5
717.004	1037.5
722.442	1021.5
727.874	1021.5
733.301	1021.5
738.722	999.5
744.137	1003.5
749.547	1006.5
754.951	1004.5
760.349	1011.5
765.741	1023.5
771.128	1014.5
776.509	1026.5
781.885	1042.5
787.254	1048.5
792.618	1060.5
797.977	1054.5
803.33	1032.5
808.677	1036.5
814.019	1035.5
819.355	1020.5
824.686	1012.5
830.011	1004.5
835.33	1012.5
840.644	1022.5
845.952	985.5
851.255	997.5
856.552	977.5
861.844	964.5
867.13	940.5
872.41	950.5
877.686	949.5
882.955	930.5
888.219	924.5
893.478	887.5
898.731	917.5
903.979	891.5
909.221	887.5
914.458	875.5
919.69	867.5
924.916	879.5
930.136	876.5
935.351	870.5
940.561	882.5
945.766	880.5
950.965	879.5
956.158	863.5
961.347	851.5
966.529	844.5
971.707	839.5
976.879	838.5
982.046	813.5
987.208	813.5
992.364	820.5
997.515	819.5
1002.66	832.5
1007.801	798.5
1012.936	826.5
1018.066	811.5
1023.19	832.5
1028.309	836.5
1033.423	836.5
1038.532	855.5
1043.636	833.5
1048.734	829.5
1053.827	813.5
1058.915	800.5
1063.998	795.5
1069.075	792.5
1074.147	807.5
1079.214	780.5
1084.276	801.5
1089.333	807.5
1094.385	819.5
1099.431	790.5
1104.472	810.5
1109.509	767.5
1114.54	775.5
1119.565	767.5
1124.586	760.5
1129.602	752.5
1134.613	723.5
1139.618	733.5
1144.619	732.5
1149.614	741.5
1154.604	728.5
1159.589	747.5
1164.57	756.5
1169.545	749.5
1174.515	742.5
1179.48	736.5
1184.44	743.5
1189.395	745.5
1194.345	715.5
1199.29	731.5
1204.23	708.5
1209.165	700.5
1214.095	739.5
1219.021	733.5
1223.941	720.5
1228.856	738.5
1233.766	728.5
1238.672	742.5
1243.572	729.5
1248.467	734.5
1253.358	703.5
1258.244	693.5
1263.124	710.5
1268	695.5
1272.871	664.5
1277.737	675.5
1282.599	657.5
1287.455	654.5
1292.306	662.5
1297.153	662.5
1301.995	658.5
1306.832	658.5
1311.664	664.5
1316.491	672.5
1321.314	662.5
1326.132	654.5
1330.945	662.5
1335.753	656.5
1340.556	629.5
1345.354	621.5
1350.148	615.5
1354.937	615.5
1359.722	591.5
1364.501	596.5
1369.276	601.5
1374.046	605.5
1378.811	595.5
1383.572	598.5
1388.327	587.5
1393.079	589.5
1397.825	564.5
1402.567	567.5
1407.304	567.5
1412.036	562.5
1416.764	560.5
1421.487	559.5
1426.205	556.5
1430.919	555.5
1435.628	557.5
1440.333	552.5
1445.032	579.5
1449.727	582.5
1454.418	582.5
1459.104	584.5
1463.785	564.5
1468.462	565.5
1473.134	555.5
1477.802	544.5
1482.465	509.5
1487.123	529.5
1491.777	511.5
1496.426	495.5
1501.071	528.5
1505.711	517.5
1510.347	516.5
1514.978	522.5
1519.604	511.5
1524.226	534.5
1528.844	499.5
1533.457	520.5
1538.065	526.5
1542.669	512.5
1547.269	522.5
1551.864	518.5
1556.454	502.5
1561.041	500.5
1565.622	509.5
1570.199	519.5
1574.772	517.5
1579.34	520.5
1583.904	526.5
1588.464	533.5
1593.019	549.5
1597.569	523.5
1602.115	528.5
1606.657	524.5
1611.195	538.5
1615.728	534.5
1620.256	524.5
1624.78	495.5
1629.3	495.5
1633.816	519.5
1638.327	509.5
1642.834	521.5
1647.336	516.5
1651.834	534.5
1656.328	522.5
1660.817	527.5
1665.302	508.5
1669.783	500.5
1674.259	501.5
1678.732	501.5
1683.199	481.5
1687.663	460.5
1692.122	457.5
1696.577	453.5
1701.028	442.5
1705.474	413.5
1709.917	410.5
1714.355	406.5
1718.788	408.5
1723.218	394.5
1727.643	386.5
1732.064	389.5
1736.481	384.5
1740.893	392.5
1745.301	368.5
1749.705	342.5
1754.105	361.5
1758.501	341.5
1762.893	351.5
1767.28	329.5
1771.663	332.5
1776.042	330.5
1780.417	318.5
1784.787	333.5
1789.154	337.5
1793.516	329.5
1797.874	324.5
1802.228	315.5
1806.578	312.5
1810.924	330.5
1815.266	207.5
1819.603	333.5
1823.937	299.5
1828.266	305.5
1832.591	307.5
1836.913	306.5
1841.23	298.5
1845.543	301.5
1849.852	306.5
1854.156	297.5
1858.457	298.5
1862.754	296.5
1867.047	289.5
1871.335	303.5
1875.62	308.5
1879.9	312.5
1884.177	294.5
1888.449	293.5
1892.718	290.5
1896.982	300.5
1901.243	272.5
1905.499	278.5
1909.752	272.5
1914	259.5
1918.245	284.5
1922.485	282.5
1926.722	276.5
1930.954	268.5
1935.183	279.5
1939.408	284.5
1943.628	279.5
1947.845	278.5
1952.058	270.5
1956.267	267.5
1960.472	278.5
1964.673	268.5
1968.87	265.5
1973.063	261.5
1977.252	262.5
1981.438	252.5
1985.619	250.5
1989.797	239.5
1993.971	247.5
1998.14	262.5
2002.306	247.5
2006.469	250.5
2010.627	239.5
2014.781	239.5
2018.932	237.5
2023.078	252.5
2027.221	236.5
2031.36	229.5
2035.495	233.5
2039.627	228.5
2043.754	236.5
2047.878	220.5
2051.998	226.5
2056.114	217.5
2060.226	222.5
2064.334	228.5
2068.439	237.5
2072.54	226.5
2076.637	219.5
2080.73	224.5
2084.82	221.5
2088.906	218.5
2092.988	222.5
2097.066	221.5
2101.14	223.5
2105.211	231.5
2109.278	209.5
2113.342	213.5
2117.401	206.5
2121.457	198.5
2125.509	196.5
2129.558	211.5
2133.602	196.5
2137.643	203.5
2141.681	203.5
2145.714	203.5
2149.744	203.5
2153.77	199.5
2157.793	190.5
2161.812	169.5
2165.827	169.5
2169.838	204.5
2173.846	181.5
2177.851	178.5
2181.851	195.5
2185.848	178.5
2189.841	184.5
2193.831	175.5
2197.817	176.5
2201.799	177.5
2205.778	160.5
2209.753	153.5
2213.725	157.5
2217.693	166.5
2221.657	154.5
2225.618	172.5
2229.575	161.5
2233.529	162.5
2237.479	166.5
2241.425	154.5
2245.368	145.5
2249.307	155.5
2253.243	142.5
2257.175	155.5
2261.104	141.5
2265.029	146.5
2268.95	146.5
2272.868	131.5
2276.783	135.5
2280.694	138.5
2284.601	136.5
2288.505	137.5
2292.405	131.5
2296.302	116.5
2300.195	131.5
2304.085	98.5
2307.971	133.5
2311.854	106.5
2315.734	118.5
2319.609	124.5
2323.482	102.5
2327.351	106.5
2331.216	111.5
2335.078	117.5
2338.937	119.5
2342.792	105.5
2346.643	96.5
2350.492	109.5
2354.336	110.5
2358.178	109.5
2362.015	106.5
2365.85	106.5
2369.681	108.5
2373.508	107.5
2377.333	114.5
2381.153	113.5
2384.971	108.5
2388.785	106.5
2392.595	97.5
2396.402	106.5
2400.206	71.5
2404.007	91.5
2407.804	90.5
2411.597	97.5
2415.388	94.5
2419.174	99.5
2422.958	95.5
2426.738	93.5
2430.515	97.5
2434.289	94.5
2438.059	86.5
2441.825	88.5
2445.589	99.5
2449.349	82.5
2453.106	95.5
2456.859	81.5
2460.61	92.5
2464.356	81.5
2468.1	75.5
2471.84	74.5
2475.577	76.5
2479.311	76.5
2483.041	75.5
2486.768	96.5
2490.492	88.5
2494.213	81.5
2497.93	73.5
2501.644	64.5
2505.355	75.5
2509.062	78.5
2512.766	73.5
2516.467	70.5
2520.165	64.5
2523.859	67.5
2527.551	97.5
2531.239	68.5
2534.923	77.5
2538.605	69.5
2542.283	74.5
2545.958	77.5
2549.63	81.5
2553.299	80.5
2556.964	62.5
2560.626	64.5
2564.285	72.5
2567.941	61.5
2571.594	56.5
2575.243	69.5
2578.89	60.5
2582.533	66.5
2586.173	65.5
2589.809	68.5
2593.443	44.5
2597.073	63.5
2600.701	58.5
2604.325	64.5
2607.946	52.5
2611.564	69.5
2615.178	62.5
2618.79	65.5
2622.398	54.5
2626.004	66.5
2629.606	59.5
2633.205	52.5
2636.801	59.5
2640.394	62.5
2643.983	56.5
2647.57	51.5
2651.153	44.5
2654.734	60.5
2658.311	33.5
2661.885	49.5
2665.456	46.5
2669.025	50.5
2672.589	40.5
2676.151	57.5
2679.71	58.5
2683.266	45.5
2686.819	44.5
2690.368	50.5
2693.915	48.5
2697.458	46.5
2700.999	48.5
2704.536	46.5
2708.071	45.5
2711.602	45.5
2715.13	39.5
2718.656	29.5
2722.178	44.5
2725.697	30.5
2729.214	32.5
2732.727	39.5
2736.237	22.5
2739.744	34.5
2743.249	37.5
2746.75	38.5
2750.248	23.5
2753.743	40.5
2757.236	34.5
2760.725	39.5
2764.211	9.5
2767.695	37.5
2771.175	35.5
2774.652	41.5
2778.127	30.5
2781.598	34.5
2785.067	34.5
2788.532	28.5
2791.995	36.5
2795.455	24.5
2798.911	33.5
2802.365	35.5
2805.816	35.5
2809.264	39.5
2812.709	28.5
2816.151	36.5
2819.59	20.5
2823.026	24.5
2826.46	22.5
2829.89	37.5
2833.318	10.5
2836.742	28.5
2840.164	29.5
2843.583	29.5
2846.999	29.5
2850.412	33.5
2853.822	21.5
2857.229	38.5
2860.634	31.5
2864.035	15.5
2867.434	34.5
2870.83	34.5
2874.223	25.5
2877.613	29.5
2881	24.5
2884.385	31.5
2887.766	30.5
2891.145	37.5
2894.521	27.5
2897.894	22.5
2901.264	38.5
2904.631	38.5
2907.996	39.5
2911.358	40.5
2914.717	35.5
2918.073	36.5
2921.426	29.5
2924.777	19.5
2928.124	34.5
2931.469	47.5
2934.811	28.5
2938.15	55.5
2941.487	40.5
2944.821	58.5
2948.152	41.5
2951.48	49.5
2954.805	35.5
2958.128	58.5
2961.447	34.5
2964.765	54.5
2968.079	36.5
2971.39	51.5
2974.699	47.5
2978.005	49.5
2981.308	45.5
2984.609	36.5
2987.907	53.5
2991.202	55.5
2994.494	40.5
2997.784	45.5
3001.07	50.5
3004.355	50.5
3007.636	51.5
3010.915	51.5
3014.191	46.5
3017.464	51.5
3020.734	57.5
3024.002	62.5
3027.267	47.5
3030.53	58.5
3033.789	54.5
3037.046	58.5
3040.301	49.5
3043.552	64.5
3046.801	60.5
3050.048	73.5
3053.291	87.5
3056.532	69.5
3059.771	57.5
3063.006	77.5
3066.239	74.5
3069.469	81.5
3072.697	68.5
3075.922	72.5
3079.144	73.5
3082.364	96.5
3085.581	80.5
3088.795	105.5
3092.007	99.5
3095.216	107.5
3098.423	100.5
3101.627	71.5
3104.828	98.5
3108.026	93.5
3111.222	116.5
3114.416	116.5
3117.607	113.5
3120.795	111.5
3123.98	119.5
3127.163	100.5
3130.344	117.5
3133.521	110.5
3136.696	134.5
3139.869	128.5
3143.039	118.5
3146.206	146.5
3149.371	147.5
3152.533	143.5
3155.693	123.5
3158.85	146.5
3162.005	148.5
3165.157	140.5
3168.306	145.5
3171.453	153.5
3174.597	138.5
3177.739	135.5
3180.878	153.5
3184.014	153.5
3187.149	152.5
3190.28	150.5
3193.409	157.5
3196.536	151.5
3199.659	157.5
3202.781	155.5
3205.9	143.5
3209.016	151.5
3212.13	150.5
3215.241	146.5
3218.35	151.5
3221.456	147.5
3224.56	133.5
3227.661	144.5
3230.76	137.5
3233.856	131.5
3236.95	147.5
3240.041	129.5
3243.13	146.5
3246.216	138.5
3249.3	139.5
3252.382	137.5
3255.46	126.5
3258.537	90.5
3261.611	123.5
3264.682	139.5
3267.751	133.5
3270.818	119.5
3273.882	133.5
3276.943	130.5
3280.002	136.5
3283.059	121.5
3286.113	129.5
3289.165	118.5
3292.214	122.5
3295.261	132.5
3298.306	112.5
3301.348	123.5
3304.387	107.5
3307.425	117.5
3310.459	110.5
3313.492	123.5
3316.521	113.5
3319.549	124.5
3322.574	121.5
3325.597	110.5
3328.617	101.5
3331.635	103.5
3334.65	88.5
3337.663	110.5
3340.674	105.5
3343.682	105.5
3346.688	106.5
3349.691	101.5
3352.692	103.5
3355.691	108.5
3358.687	104.5
3361.681	104.5
3364.673	96.5
3367.662	104.5
3370.649	107.5
3373.633	87.5
3376.615	97.5
3379.595	82.5
3382.572	89.5
3385.547	82.5
3388.52	75.5
3391.49	83.5
3394.458	85.5
3397.424	92.5
3400.387	73.5
3403.348	87.5
3406.307	74.5
3409.263	80.5
3412.217	85.5
3415.168	78.5
3418.118	89.5
3421.065	71.5
3424.009	88.5
3426.951	63.5
3429.891	60.5
3432.829	71.5
3435.764	72.5
3438.697	54.5
3441.628	76.5
3444.557	49.5
3447.483	53.5
3450.407	57.5
3453.328	50.5
3456.247	50.5
3459.164	36.5
3462.079	58.5
3464.991	52.5
3467.902	51.5
3470.809	43.5
3473.715	46.5
3476.618	32.5
3479.519	42.5
3482.418	19.5
3485.315	26.5
3488.209	31.5
3491.101	34.5
3493.99	16.5
3496.878	18.5
3499.763	23.5
3502.646	24.5
3505.527	15.5
3508.405	12.5
3511.281	6.5
3514.155	23.5
3517.027	18.5
3519.897	0.5
3522.764	13.5
3525.629	-9.5
3528.492	7.5
3531.352	13.5
3534.211	13.5
3537.067	-2.5
3539.921	2.5
3542.773	9.5
3545.622	-4.5
3548.469	-10.5
3551.315	-15.5
3554.157	0.5
3556.998	-9.5
3559.837	-12.5
3562.673	-1.5
3565.507	-11.5
3568.339	-15.5
3571.169	-10.5
3573.996	-7.5
3576.822	-23.5
3579.645	-15.5
3582.466	-21.5
3585.285	-11.5
3588.101	-14.5
3590.916	-20.5
3593.728	-9.5
3596.538	-16.5
3599.346	-11.5
3602.152	-23.5
3604.956	-17.5
3607.757	-14.5
3610.556	-27.5
3613.354	-16.5
3616.149	-15.5
3618.942	-17.5
3621.732	-12.5
3624.521	-23.5
3627.307	-34.5
3630.092	-27.5
3632.874	-12.5
3635.654	-25.5
3638.432	-29.5
3641.208	-26.5
3643.982	-23.5
3646.753	-17.5
3649.523	-50.5
3652.29	-25.5
3655.055	-23.5
3657.818	-24.5
3660.579	-25.5
3663.338	-35.5
3666.095	-27.5
3668.849	-54.5
3671.602	-21.5
3674.352	-41.5
3677.101	-24.5
3679.847	-21.5
3682.591	-36.5
3685.333	-44.5
3688.073	-33.5
3690.811	-42.5
3693.547	-42.5
3696.281	-40.5
3699.013	-26.5
3701.742	-36.5
3704.47	-40.5
3707.195	-33.5
3709.919	-32.5
3712.64	-31.5
3715.359	-45.5
3718.076	-21.5
3720.792	-36.5
3723.505	-29.5
3726.216	-22.5
3728.925	-37.5
3731.632	-39.5
3734.336	-33.5
3737.039	-32.5
3739.74	-28.5
3742.439	-59.5
3745.136	-27.5
3747.83	-32.5
3750.523	-30.5
3753.213	-97.5
3755.902	-38.5
3758.589	-51.5
3761.273	-36.5
3763.956	-27.5
3766.636	-46.5
3769.315	-25.5
3771.991	-39.5
3774.665	-41.5
3777.338	-31.5
3780.008	-43.5
3782.677	-36.5
3785.343	-50.5
3788.007	-52.5
3790.67	-31.5
3793.33	-48.5
3795.989	-42.5
3798.645	-36.5
3801.299	-42.5
3803.952	-42.5
3806.602	-38.5
3809.251	-30.5
3811.897	-32.5
3814.542	-37.5
3817.184	-36.5
3819.825	-35.5
3822.463	-45.5
3825.1	-32.5
3827.735	-33.5
3830.367	-43.5
3832.998	-23.5
3835.627	-36.5
3838.253	-27.5
3840.878	-30.5
3843.501	-18.5
3846.122	-33.5
3848.741	-25.5
3851.358	-30.5
3853.973	-45.5
3856.586	-24.5
3859.197	-41.5
3861.806	-32.5
3864.414	-42.5
3867.019	-34.5
3869.622	-25.5
3872.224	-20.5
3874.823	-21.5
3877.421	6.5
3880.016	6.5
3882.61	33.5
3885.202	45.5
3887.792	26.5
3890.38	8.5
3892.966	-21.5
3895.55	-38.5
3898.132	-28.5
3900.713	-30.5
3903.291	-35.5
3905.868	-39.5
3908.442	-31.5
3911.015	-31.5
3913.586	-41.5
3916.155	-35.5
3918.722	-40.5
3921.287	-38.5
3923.85	-47.5
3926.411	-40.5
3928.971	-38.5
3931.528	-27.5
3934.084	-42.5
3936.638	-48.5
3939.19	-31.5
3941.74	-31.5
3944.288	-34.5
3946.834	-39.5
3949.378	-24.5
3951.921	-40.5
3954.462	-33.5
3957	-31.5
3959.537	-20.5
3962.072	-37.5
3964.606	-47.5
3967.137	-35.5
3969.667	-39.5
3972.194	-29.5
3974.72	-35.5
3977.244	-61.5
3979.766	-40.5
3982.286	-37.5
3984.805	-31.5
3987.321	-24.5
3989.836	-25.5
3992.349	-37.5
3994.86	-36.5
3997.369	-40.5
3999.877	-35.5
4002.382	-39.5
4004.886	-31.5
4007.388	-29.5
4009.888	-26.5
4012.386	-29.5
4014.883	-30.5
4017.377	-29.5
4019.87	-28.5
4022.361	-45.5
4024.85	-33.5
4027.338	-30.5
4029.823	-37.5
4032.307	-34.5
4034.789	-36.5
4037.269	-28.5
4039.747	-45.5
4042.224	-22.5
4044.699	-46.5
4047.172	-35.5
4049.643	-21.5
4052.112	-54.5
4054.58	-36.5
4057.046	-44.5
4059.51	-32.5
4061.972	-33.5
4064.432	-52.5
4066.891	-23.5
4069.348	-31.5
4071.803	-31.5
4074.256	-37.5
4076.708	-27.5
4079.158	-38.5
4081.606	-21.5
4084.052	-33.5
4086.497	-29.5
4088.939	-35.5
4091.38	-33.5
4093.819	-32.5
4096.257	3.5
4098.693	-6.5
4101.127	-5.5
4103.559	0.5
4105.989	46.5
4108.418	54.5
4110.845	42.5
4113.27	47.5
4115.694	55.5
4118.115	42.5
4120.535	-35.5
4122.954	-26.5
4125.37	-24.5
4127.785	-36.5
4130.198	-24.5
4132.609	-33.5
4135.019	9.5
4137.427	-1.5
4139.833	5.5
4142.237	-5.5
