Data from 2018-3-6_conc=0_n=2_RamanShift_04.txt Node
Date: Tue Mar 06 12:11:49 GMT+02:00 2018
User: LAB3
Spectrometer: QEPB0276
Trigger mode: 0
Integration Time (sec): 3.000000E1
Scans to average: 1
Electric dark correction enabled: true
Nonlinearity correction enabled: false
Boxcar width: 0
XAxis mode: Raman Shifts
Number of Pixels in Spectrum: 1044
>>>>>Begin Spectral Data<<<<<
160.701	85.75
166.742	121.75
172.777	197.75
178.805	456.75
184.826	1081.75
190.841	2208.75
196.849	3526.75
202.85	4546.75
208.845	4940.75
214.833	4992.75
220.815	4977.75
226.789	5052.75
232.758	5117.75
238.719	5160.75
244.674	5172.75
250.623	5192.75
256.565	5171.75
262.5	5133.75
268.429	5151.75
274.351	5166.75
280.267	5191.75
286.176	5247.75
292.079	5232.75
297.975	5236.75
303.865	5270.75
309.748	5295.75
315.625	5306.75
321.495	5342.75
327.359	5326.75
333.217	5343.75
339.068	5370.75
344.912	5435.75
350.751	5402.75
356.583	5417.75
362.408	5478.75
368.227	5478.75
374.04	5497.75
379.847	5530.75
385.647	5554.75
391.44	5553.75
397.228	5604.75
403.009	5640.75
408.784	5607.75
414.553	5685.75
420.315	5693.75
426.071	5679.75
431.821	5713.75
437.565	5732.75
443.302	5721.75
449.033	5669.75
454.758	5637.75
460.477	5631.75
466.189	5560.75
471.896	5531.75
477.596	5473.75
483.29	5470.75
488.978	5464.75
494.66	5437.75
500.335	5341.75
506.005	5169.75
511.668	4947.75
517.325	4789.75
522.977	4610.75
528.622	4501.75
534.261	4435.75
539.894	4389.75
545.521	4356.75
551.141	4260.75
556.756	4260.75
562.365	4235.75
567.968	4218.75
573.565	4182.75
579.155	4190.75
584.74	4147.75
590.319	4155.75
595.892	4137.75
601.459	4152.75
607.02	4130.75
612.575	4104.75
618.124	4095.75
623.667	4006.75
629.204	3964.75
634.735	3949.75
640.261	3900.75
645.781	3859.75
651.294	3863.75
656.802	3846.75
662.304	3872.75
667.8	3842.75
673.29	3839.75
678.775	3818.75
684.254	3790.75
689.726	3778.75
695.193	3786.75
700.655	3775.75
706.11	3728.75
711.56	3721.75
717.004	3720.75
722.442	3676.75
727.874	3696.75
733.301	3677.75
738.722	3667.75
744.137	3640.75
749.547	3632.75
754.951	3641.75
760.349	3646.75
765.741	3717.75
771.128	3706.75
776.509	3740.75
781.885	3759.75
787.254	3788.75
792.618	3816.75
797.977	3791.75
803.33	3763.75
808.677	3728.75
814.019	3722.75
819.355	3681.75
824.686	3659.75
830.011	3645.75
835.33	3639.75
840.644	3654.75
845.952	3609.75
851.255	3614.75
856.552	3566.75
861.844	3548.75
867.13	3580.75
872.41	3568.75
877.686	3623.75
882.955	3638.75
888.219	3640.75
893.478	3497.75
898.731	3421.75
903.979	3342.75
909.221	3302.75
914.458	3284.75
919.69	3271.75
924.916	3302.75
930.136	3291.75
935.351	3295.75
940.561	3292.75
945.766	3277.75
950.965	3295.75
956.158	3246.75
961.347	3222.75
966.529	3193.75
971.707	3165.75
976.879	3091.75
982.046	3092.75
987.208	3066.75
992.364	3101.75
997.515	3095.75
1002.66	3110.75
1007.801	3139.75
1012.936	3183.75
1018.066	3192.75
1023.19	3229.75
1028.309	3212.75
1033.423	3233.75
1038.532	3252.75
1043.636	3230.75
1048.734	3205.75
1053.827	3198.75
1058.915	3139.75
1063.998	3115.75
1069.075	3106.75
1074.147	3113.75
1079.214	3106.75
1084.276	3151.75
1089.333	3150.75
1094.385	3161.75
1099.431	3141.75
1104.472	3130.75
1109.509	3098.75
1114.54	3041.75
1119.565	3020.75
1124.586	2967.75
1129.602	2926.75
1134.613	2901.75
1139.618	2882.75
1144.619	2892.75
1149.614	2918.75
1154.604	2896.75
1159.589	2901.75
1164.57	2934.75
1169.545	2913.75
1174.515	2924.75
1179.48	2896.75
1184.44	2886.75
1189.395	2886.75
1194.345	2847.75
1199.29	2841.75
1204.23	2829.75
1209.165	2828.75
1214.095	2864.75
1219.021	2881.75
1223.941	2873.75
1228.856	2891.75
1233.766	2902.75
1238.672	2915.75
1243.572	2935.75
1248.467	2868.75
1253.358	2845.75
1258.244	2786.75
1263.124	2792.75
1268	2743.75
1272.871	2685.75
1277.737	2684.75
1282.599	2689.75
1287.455	2684.75
1292.306	2662.75
1297.153	2652.75
1301.995	2692.75
1306.832	2705.75
1311.664	2710.75
1316.491	2709.75
1321.314	2703.75
1326.132	2671.75
1330.945	2640.75
1335.753	2590.75
1340.556	2549.75
1345.354	2520.75
1350.148	2454.75
1354.937	2455.75
1359.722	2413.75
1364.501	2380.75
1369.276	2391.75
1374.046	2394.75
1378.811	2375.75
1383.572	2379.75
1388.327	2374.75
1393.079	2361.75
1397.825	2346.75
1402.567	2335.75
1407.304	2329.75
1412.036	2333.75
1416.764	2306.75
1421.487	2332.75
1426.205	2318.75
1430.919	2339.75
1435.628	2355.75
1440.333	2365.75
1445.032	2414.75
1449.727	2427.75
1454.418	2442.75
1459.104	2436.75
1463.785	2424.75
1468.462	2366.75
1473.134	2316.75
1477.802	2273.75
1482.465	2205.75
1487.123	2206.75
1491.777	2152.75
1496.426	2142.75
1501.071	2176.75
1505.711	2138.75
1510.347	2180.75
1514.978	2190.75
1519.604	2171.75
1524.226	2177.75
1528.844	2146.75
1533.457	2136.75
1538.065	2138.75
1542.669	2108.75
1547.269	2100.75
1551.864	2077.75
1556.454	2052.75
1561.041	2073.75
1565.622	2063.75
1570.199	2089.75
1574.772	2110.75
1579.34	2108.75
1583.904	2142.75
1588.464	2148.75
1593.019	2135.75
1597.569	2118.75
1602.115	2129.75
1606.657	2095.75
1611.195	2089.75
1615.728	2059.75
1620.256	2037.75
1624.78	2020.75
1629.3	2033.75
1633.816	2026.75
1638.327	2027.75
1642.834	2054.75
1647.336	2080.75
1651.834	2086.75
1656.328	2076.75
1660.817	2066.75
1665.302	2057.75
1669.783	2045.75
1674.259	2010.75
1678.732	1968.75
1683.199	1925.75
1687.663	1866.75
1692.122	1845.75
1696.577	1799.75
1701.028	1782.75
1705.474	1729.75
1709.917	1720.75
1714.355	1712.75
1718.788	1695.75
1723.218	1693.75
1727.643	1668.75
1732.064	1660.75
1736.481	1655.75
1740.893	1638.75
1745.301	1595.75
1749.705	1554.75
1754.105	1540.75
1758.501	1516.75
1762.893	1501.75
1767.28	1456.75
1771.663	1452.75
1776.042	1428.75
1780.417	1426.75
1784.787	1430.75
1789.154	1445.75
1793.516	1423.75
1797.874	1410.75
1802.228	1410.75
1806.578	1396.75
1810.924	1391.75
1815.266	1297.75
1819.603	1382.75
1823.937	1354.75
1828.266	1345.75
1832.591	1334.75
1836.913	1342.75
1841.23	1330.75
1845.543	1313.75
1849.852	1334.75
1854.156	1320.75
1858.457	1333.75
1862.754	1308.75
1867.047	1333.75
1871.335	1336.75
1875.62	1332.75
1879.9	1332.75
1884.177	1320.75
1888.449	1305.75
1892.718	1311.75
1896.982	1315.75
1901.243	1270.75
1905.499	1266.75
1909.752	1271.75
1914	1247.75
1918.245	1271.75
1922.485	1266.75
1926.722	1264.75
1930.954	1269.75
1935.183	1266.75
1939.408	1272.75
1943.628	1270.75
1947.845	1246.75
1952.058	1242.75
1956.267	1206.75
1960.472	1196.75
1964.673	1193.75
1968.87	1151.75
1973.063	1141.75
1977.252	1129.75
1981.438	1114.75
1985.619	1112.75
1989.797	1104.75
1993.971	1107.75
1998.14	1112.75
2002.306	1105.75
2006.469	1086.75
2010.627	1082.75
2014.781	1090.75
2018.932	1076.75
2023.078	1083.75
2027.221	1061.75
2031.36	1041.75
2035.495	1046.75
2039.627	1024.75
2043.754	1022.75
2047.878	1002.75
2051.998	998.75
2056.114	996.75
2060.226	994.75
2064.334	1024.75
2068.439	1021.75
2072.54	1029.75
2076.637	1006.75
2080.73	1001.75
2084.82	1001.75
2088.906	996.75
2092.988	998.75
2097.066	997.75
2101.14	1000.75
2105.211	978.75
2109.278	960.75
2113.342	953.75
2117.401	934.75
2121.457	921.75
2125.509	917.75
2129.558	930.75
2133.602	917.75
2137.643	908.75
2141.681	903.75
2145.714	907.75
2149.744	897.75
2153.77	890.75
2157.793	881.75
2161.812	858.75
2165.827	851.75
2169.838	863.75
2173.846	838.75
2177.851	810.75
2181.851	836.75
2185.848	802.75
2189.841	813.75
2193.831	794.75
2197.817	786.75
2201.799	801.75
2205.778	773.75
2209.753	770.75
2213.725	767.75
2217.693	776.75
2221.657	762.75
2225.618	779.75
2229.575	762.75
2233.529	758.75
2237.479	762.75
2241.425	747.75
2245.368	738.75
2249.307	736.75
2253.243	721.75
2257.175	701.75
2261.104	698.75
2265.029	695.75
2268.95	690.75
2272.868	685.75
2276.783	659.75
2280.694	662.75
2284.601	654.75
2288.505	656.75
2292.405	657.75
2296.302	623.75
2300.195	626.75
2304.085	588.75
2307.971	621.75
2311.854	581.75
2315.734	591.75
2319.609	597.75
2323.482	560.75
2327.351	580.75
2331.216	572.75
2335.078	583.75
2338.937	575.75
2342.792	573.75
2346.643	561.75
2350.492	567.75
2354.336	582.75
2358.178	571.75
2362.015	570.75
2365.85	573.75
2369.681	574.75
2373.508	570.75
2377.333	575.75
2381.153	576.75
2384.971	576.75
2388.785	574.75
2392.595	558.75
2396.402	565.75
2400.206	537.75
2404.007	562.75
2407.804	557.75
2411.597	556.75
2415.388	545.75
2419.174	538.75
2422.958	536.75
2426.738	529.75
2430.515	542.75
2434.289	521.75
2438.059	532.75
2441.825	523.75
2445.589	531.75
2449.349	512.75
2453.106	519.75
2456.859	512.75
2460.61	509.75
2464.356	488.75
2468.1	482.75
2471.84	492.75
2475.577	485.75
2479.311	486.75
2483.041	481.75
2486.768	504.75
2490.492	487.75
2494.213	479.75
2497.93	471.75
2501.644	459.75
2505.355	470.75
2509.062	463.75
2512.766	469.75
2516.467	467.75
2520.165	457.75
2523.859	443.75
2527.551	484.75
2531.239	444.75
2534.923	457.75
2538.605	442.75
2542.283	440.75
2545.958	437.75
2549.63	449.75
2553.299	433.75
2556.964	429.75
2560.626	429.75
2564.285	439.75
2567.941	412.75
2571.594	416.75
2575.243	427.75
2578.89	411.75
2582.533	412.75
2586.173	406.75
2589.809	409.75
2593.443	387.75
2597.073	392.75
2600.701	400.75
2604.325	395.75
2607.946	387.75
2611.564	391.75
2615.178	387.75
2618.79	389.75
2622.398	380.75
2626.004	381.75
2629.606	376.75
2633.205	362.75
2636.801	367.75
2640.394	362.75
2643.983	352.75
2647.57	355.75
2651.153	344.75
2654.734	359.75
2658.311	323.75
2661.885	329.75
2665.456	339.75
2669.025	334.75
2672.589	327.75
2676.151	338.75
2679.71	338.75
2683.266	314.75
2686.819	315.75
2690.368	318.75
2693.915	323.75
2697.458	310.75
2700.999	310.75
2704.536	320.75
2708.071	304.75
2711.602	311.75
2715.13	298.75
2718.656	276.75
2722.178	293.75
2725.697	280.75
2729.214	278.75
2732.727	291.75
2736.237	275.75
2739.744	276.75
2743.249	278.75
2746.75	279.75
2750.248	271.75
2753.743	278.75
2757.236	275.75
2760.725	273.75
2764.211	242.75
2767.695	269.75
2771.175	257.75
2774.652	262.75
2778.127	249.75
2781.598	252.75
2785.067	260.75
2788.532	234.75
2791.995	257.75
2795.455	250.75
2798.911	270.75
2802.365	254.75
2805.816	257.75
2809.264	262.75
2812.709	253.75
2816.151	264.75
2819.59	247.75
2823.026	249.75
2826.46	249.75
2829.89	265.75
2833.318	245.75
2836.742	254.75
2840.164	260.75
2843.583	261.75
2846.999	255.75
2850.412	267.75
2853.822	258.75
2857.229	280.75
2860.634	264.75
2864.035	250.75
2867.434	282.75
2870.83	284.75
2874.223	278.75
2877.613	293.75
2881	286.75
2884.385	301.75
2887.766	293.75
2891.145	295.75
2894.521	297.75
2897.894	291.75
2901.264	296.75
2904.631	295.75
2907.996	296.75
2911.358	301.75
2914.717	288.75
2918.073	279.75
2921.426	289.75
2924.777	278.75
2928.124	298.75
2931.469	322.75
2934.811	320.75
2938.15	357.75
2941.487	337.75
2944.821	341.75
2948.152	324.75
2951.48	325.75
2954.805	298.75
2958.128	314.75
2961.447	286.75
2964.765	307.75
2968.079	282.75
2971.39	291.75
2974.699	289.75
2978.005	294.75
2981.308	295.75
2984.609	288.75
2987.907	300.75
2991.202	303.75
2994.494	285.75
2997.784	290.75
3001.07	287.75
3004.355	280.75
3007.636	279.75
3010.915	274.75
3014.191	280.75
3017.464	273.75
3020.734	273.75
3024.002	270.75
3027.267	277.75
3030.53	276.75
3033.789	265.75
3037.046	269.75
3040.301	271.75
3043.552	275.75
3046.801	278.75
3050.048	291.75
3053.291	311.75
3056.532	288.75
3059.771	289.75
3063.006	319.75
3066.239	312.75
3069.469	314.75
3072.697	316.75
3075.922	315.75
3079.144	326.75
3082.364	356.75
3085.581	340.75
3088.795	359.75
3092.007	352.75
3095.216	361.75
3098.423	357.75
3101.627	346.75
3104.828	370.75
3108.026	374.75
3111.222	392.75
3114.416	403.75
3117.607	390.75
3120.795	397.75
3123.98	410.75
3127.163	406.75
3130.344	426.75
3133.521	419.75
3136.696	449.75
3139.869	444.75
3143.039	428.75
3146.206	470.75
3149.371	468.75
3152.533	465.75
3155.693	452.75
3158.85	463.75
3162.005	473.75
3165.157	462.75
3168.306	462.75
3171.453	479.75
3174.597	459.75
3177.739	460.75
3180.878	480.75
3184.014	482.75
3187.149	476.75
3190.28	467.75
3193.409	473.75
3196.536	474.75
3199.659	481.75
3202.781	493.75
3205.9	465.75
3209.016	477.75
3212.13	475.75
3215.241	468.75
3218.35	475.75
3221.456	462.75
3224.56	448.75
3227.661	455.75
3230.76	455.75
3233.856	459.75
3236.95	447.75
3240.041	438.75
3243.13	450.75
3246.216	443.75
3249.3	445.75
3252.382	443.75
3255.46	422.75
3258.537	380.75
3261.611	425.75
3264.682	439.75
3267.751	427.75
3270.818	423.75
3273.882	431.75
3276.943	412.75
3280.002	424.75
3283.059	411.75
3286.113	408.75
3289.165	398.75
3292.214	395.75
3295.261	403.75
3298.306	373.75
3301.348	378.75
3304.387	366.75
3307.425	371.75
3310.459	359.75
3313.492	375.75
3316.521	356.75
3319.549	362.75
3322.574	362.75
3325.597	342.75
3328.617	339.75
3331.635	339.75
3334.65	325.75
3337.663	341.75
3340.674	328.75
3343.682	326.75
3346.688	341.75
3349.691	318.75
3352.692	326.75
3355.691	333.75
3358.687	325.75
3361.681	333.75
3364.673	326.75
3367.662	330.75
3370.649	318.75
3373.633	308.75
3376.615	313.75
3379.595	294.75
3382.572	294.75
3385.547	290.75
3388.52	283.75
3391.49	287.75
3394.458	287.75
3397.424	287.75
3400.387	272.75
3403.348	280.75
3406.307	275.75
3409.263	272.75
3412.217	279.75
3415.168	266.75
3418.118	279.75
3421.065	273.75
3424.009	271.75
3426.951	256.75
3429.891	258.75
3432.829	250.75
3435.764	251.75
3438.697	236.75
3441.628	249.75
3444.557	229.75
3447.483	222.75
3450.407	228.75
3453.328	211.75
3456.247	196.75
3459.164	193.75
3462.079	209.75
3464.991	202.75
3467.902	186.75
3470.809	184.75
3473.715	193.75
3476.618	174.75
3479.519	172.75
3482.418	154.75
3485.315	156.75
3488.209	151.75
3491.101	147.75
3493.99	132.75
3496.878	144.75
3499.763	139.75
3502.646	130.75
3505.527	126.75
3508.405	119.75
3511.281	107.75
3514.155	119.75
3517.027	113.75
3519.897	101.75
3522.764	110.75
3525.629	79.75
3528.492	98.75
3531.352	101.75
3534.211	87.75
3537.067	78.75
3539.921	79.75
3542.773	79.75
3545.622	61.75
3548.469	61.75
3551.315	49.75
3554.157	61.75
3556.998	51.75
3559.837	49.75
3562.673	61.75
3565.507	43.75
3568.339	40.75
3571.169	49.75
3573.996	40.75
3576.822	29.75
3579.645	31.75
3582.466	32.75
3585.285	36.75
3588.101	35.75
3590.916	26.75
3593.728	30.75
3596.538	19.75
3599.346	25.75
3602.152	16.75
3604.956	20.75
3607.757	25.75
3610.556	-0.25
3613.354	15.75
3616.149	14.75
3618.942	18.75
3621.732	17.75
3624.521	5.75
3627.307	-8.25
3630.092	-3.25
3632.874	17.75
3635.654	2.75
3638.432	-2.25
3641.208	-7.25
3643.982	1.75
3646.753	1.75
3649.523	-22.25
3652.29	-11.25
3655.055	-2.25
3657.818	-5.25
3660.579	-11.25
3663.338	-18.25
3666.095	-15.25
3668.849	-35.25
3671.602	-3.25
3674.352	-24.25
3677.101	-10.25
3679.847	-11.25
3682.591	-19.25
3685.333	-26.25
3688.073	-12.25
3690.811	-28.25
3693.547	-30.25
3696.281	-30.25
3699.013	-14.25
3701.742	-23.25
3704.47	-33.25
3707.195	-19.25
3709.919	-18.25
3712.64	-26.25
3715.359	-39.25
3718.076	-14.25
3720.792	-20.25
3723.505	-22.25
3726.216	-12.25
3728.925	-26.25
3731.632	-27.25
3734.336	-25.25
3737.039	-28.25
3739.74	-27.25
3742.439	-51.25
3745.136	-17.25
3747.83	-20.25
3750.523	-17.25
3753.213	-80.25
3755.902	-29.25
3758.589	-38.25
3761.273	-33.25
3763.956	-17.25
3766.636	-38.25
3769.315	-19.25
3771.991	-25.25
3774.665	-33.25
3777.338	-25.25
3780.008	-35.25
3782.677	-24.25
3785.343	-44.25
3788.007	-46.25
3790.67	-23.25
3793.33	-37.25
3795.989	-35.25
3798.645	-30.25
3801.299	-41.25
3803.952	-40.25
3806.602	-30.25
3809.251	-24.25
3811.897	-30.25
3814.542	-30.25
3817.184	-33.25
3819.825	-28.25
3822.463	-41.25
3825.1	-32.25
3827.735	-28.25
3830.367	-38.25
3832.998	-13.25
3835.627	-34.25
3838.253	-23.25
3840.878	-35.25
3843.501	-18.25
3846.122	-26.25
3848.741	-25.25
3851.358	-20.25
3853.973	-38.25
3856.586	-22.25
3859.197	-33.25
3861.806	-31.25
3864.414	-43.25
3867.019	-29.25
3869.622	-20.25
3872.224	-24.25
3874.823	-20.25
3877.421	-10.25
3880.016	-2.25
3882.61	26.75
3885.202	31.75
3887.792	20.75
3890.38	8.75
3892.966	-25.25
3895.55	-36.25
3898.132	-24.25
3900.713	-25.25
3903.291	-30.25
3905.868	-35.25
3908.442	-29.25
3911.015	-30.25
3913.586	-34.25
3916.155	-34.25
3918.722	-39.25
3921.287	-35.25
3923.85	-44.25
3926.411	-35.25
3928.971	-37.25
3931.528	-26.25
3934.084	-33.25
3936.638	-44.25
3939.19	-29.25
3941.74	-30.25
3944.288	-37.25
3946.834	-34.25
3949.378	-25.25
3951.921	-37.25
3954.462	-32.25
3957	-29.25
3959.537	-24.25
3962.072	-33.25
3964.606	-48.25
3967.137	-39.25
3969.667	-38.25
3972.194	-22.25
3974.72	-36.25
3977.244	-57.25
3979.766	-43.25
3982.286	-39.25
3984.805	-26.25
3987.321	-22.25
3989.836	-27.25
3992.349	-43.25
3994.86	-36.25
3997.369	-36.25
3999.877	-35.25
4002.382	-39.25
4004.886	-30.25
4007.388	-27.25
4009.888	-21.25
4012.386	-25.25
4014.883	-29.25
4017.377	-27.25
4019.87	-30.25
4022.361	-41.25
4024.85	-29.25
4027.338	-30.25
4029.823	-40.25
4032.307	-32.25
4034.789	-28.25
4037.269	-33.25
4039.747	-45.25
4042.224	-21.25
4044.699	-37.25
4047.172	-33.25
4049.643	-24.25
4052.112	-53.25
4054.58	-25.25
4057.046	-43.25
4059.51	-34.25
4061.972	-36.25
4064.432	-48.25
4066.891	-16.25
4069.348	-27.25
4071.803	-30.25
4074.256	-40.25
4076.708	-27.25
4079.158	-28.25
4081.606	-15.25
4084.052	-33.25
4086.497	-24.25
4088.939	-25.25
4091.38	-30.25
4093.819	-26.25
4096.257	0.75
4098.693	-5.25
4101.127	-5.25
4103.559	-0.25
4105.989	54.75
4108.418	55.75
4110.845	50.75
4113.27	60.75
4115.694	71.75
4118.115	63.75
4120.535	-30.25
4122.954	-22.25
4125.37	-17.25
4127.785	-28.25
4130.198	-20.25
4132.609	-29.25
4135.019	9.75
4137.427	1.75
4139.833	2.75
4142.237	-4.25
