Data from 2018-3-6_conc=4_n=5_RamanShift_01.txt Node
Date: Tue Mar 06 14:02:19 GMT+02:00 2018
User: LAB3
Spectrometer: QEPB0276
Trigger mode: 0
Integration Time (sec): 3.000000E1
Scans to average: 1
Electric dark correction enabled: true
Nonlinearity correction enabled: false
Boxcar width: 0
XAxis mode: Raman Shifts
Number of Pixels in Spectrum: 1044
>>>>>Begin Spectral Data<<<<<
160.701	103.62
166.742	128.62
172.777	189.62
178.805	354.62
184.826	811.62
190.841	1595.62
196.849	2509.62
202.85	3183.62
208.845	3379.62
214.833	3382.62
220.815	3332.62
226.789	3306.62
232.758	3306.62
238.719	3285.62
244.674	3241.62
250.623	3214.62
256.565	3167.62
262.5	3133.62
268.429	3116.62
274.351	3087.62
280.267	3076.62
286.176	3074.62
292.079	3059.62
297.975	3058.62
303.865	3053.62
309.748	3047.62
315.625	3055.62
321.495	3033.62
327.359	3050.62
333.217	3078.62
339.068	3071.62
344.912	3069.62
350.751	3077.62
356.583	3109.62
362.408	3109.62
368.227	3139.62
374.04	3125.62
379.847	3122.62
385.647	3156.62
391.44	3144.62
397.228	3164.62
403.009	3191.62
408.784	3185.62
414.553	3225.62
420.315	3199.62
426.071	3212.62
431.821	3221.62
437.565	3234.62
443.302	3195.62
449.033	3158.62
454.758	3163.62
460.477	3142.62
466.189	3111.62
471.896	3072.62
477.596	3068.62
483.29	3044.62
488.978	3034.62
494.66	3000.62
500.335	2944.62
506.005	2796.62
511.668	2665.62
517.325	2517.62
522.977	2414.62
528.622	2342.62
534.261	2273.62
539.894	2225.62
545.521	2199.62
551.141	2153.62
556.756	2113.62
562.365	2114.62
567.968	2109.62
573.565	2088.62
579.155	2087.62
584.74	2054.62
590.319	2071.62
595.892	2071.62
601.459	2079.62
607.02	2041.62
612.575	2033.62
618.124	2034.62
623.667	1977.62
629.204	1951.62
634.735	1930.62
640.261	1905.62
645.781	1866.62
651.294	1858.62
656.802	1873.62
662.304	1858.62
667.8	1882.62
673.29	1851.62
678.775	1842.62
684.254	1841.62
689.726	1828.62
695.193	1832.62
700.655	1809.62
706.11	1800.62
711.56	1788.62
717.004	1783.62
722.442	1765.62
727.874	1772.62
733.301	1767.62
738.722	1749.62
744.137	1754.62
749.547	1728.62
754.951	1730.62
760.349	1747.62
765.741	1762.62
771.128	1760.62
776.509	1785.62
781.885	1815.62
787.254	1844.62
792.618	1846.62
797.977	1832.62
803.33	1828.62
808.677	1800.62
814.019	1809.62
819.355	1775.62
824.686	1767.62
830.011	1751.62
835.33	1743.62
840.644	1741.62
845.952	1703.62
851.255	1706.62
856.552	1696.62
861.844	1688.62
867.13	1650.62
872.41	1623.62
877.686	1635.62
882.955	1608.62
888.219	1605.62
893.478	1562.62
898.731	1570.62
903.979	1543.62
909.221	1520.62
914.458	1506.62
919.69	1517.62
924.916	1505.62
930.136	1509.62
935.351	1505.62
940.561	1505.62
945.766	1499.62
950.965	1505.62
956.158	1485.62
961.347	1459.62
966.529	1450.62
971.707	1453.62
976.879	1429.62
982.046	1394.62
987.208	1386.62
992.364	1405.62
997.515	1402.62
1002.66	1426.62
1007.801	1420.62
1012.936	1421.62
1018.066	1421.62
1023.19	1457.62
1028.309	1464.62
1033.423	1444.62
1038.532	1454.62
1043.636	1425.62
1048.734	1427.62
1053.827	1406.62
1058.915	1383.62
1063.998	1390.62
1069.075	1374.62
1074.147	1401.62
1079.214	1386.62
1084.276	1399.62
1089.333	1392.62
1094.385	1393.62
1099.431	1381.62
1104.472	1389.62
1109.509	1359.62
1114.54	1359.62
1119.565	1352.62
1124.586	1321.62
1129.602	1293.62
1134.613	1264.62
1139.618	1264.62
1144.619	1274.62
1149.614	1279.62
1154.604	1297.62
1159.589	1299.62
1164.57	1304.62
1169.545	1306.62
1174.515	1307.62
1179.48	1302.62
1184.44	1275.62
1189.395	1294.62
1194.345	1260.62
1199.29	1266.62
1204.23	1255.62
1209.165	1233.62
1214.095	1266.62
1219.021	1248.62
1223.941	1257.62
1228.856	1286.62
1233.766	1280.62
1238.672	1286.62
1243.572	1270.62
1248.467	1274.62
1253.358	1246.62
1258.244	1220.62
1263.124	1222.62
1268	1202.62
1272.871	1166.62
1277.737	1147.62
1282.599	1137.62
1287.455	1154.62
1292.306	1143.62
1297.153	1141.62
1301.995	1168.62
1306.832	1160.62
1311.664	1164.62
1316.491	1156.62
1321.314	1160.62
1326.132	1149.62
1330.945	1130.62
1335.753	1111.62
1340.556	1104.62
1345.354	1068.62
1350.148	1056.62
1354.937	1059.62
1359.722	1035.62
1364.501	1021.62
1369.276	1037.62
1374.046	1035.62
1378.811	1017.62
1383.572	1022.62
1388.327	1008.62
1393.079	999.62
1397.825	1003.62
1402.567	1001.62
1407.304	990.62
1412.036	991.62
1416.764	988.62
1421.487	969.62
1426.205	983.62
1430.919	980.62
1435.628	994.62
1440.333	986.62
1445.032	989.62
1449.727	1018.62
1454.418	1003.62
1459.104	1013.62
1463.785	980.62
1468.462	952.62
1473.134	950.62
1477.802	936.62
1482.465	908.62
1487.123	914.62
1491.777	877.62
1496.426	886.62
1501.071	917.62
1505.711	901.62
1510.347	897.62
1514.978	915.62
1519.604	905.62
1524.226	914.62
1528.844	897.62
1533.457	911.62
1538.065	905.62
1542.669	882.62
1547.269	885.62
1551.864	880.62
1556.454	875.62
1561.041	874.62
1565.622	877.62
1570.199	903.62
1574.772	892.62
1579.34	920.62
1583.904	905.62
1588.464	929.62
1593.019	929.62
1597.569	923.62
1602.115	924.62
1606.657	914.62
1611.195	942.62
1615.728	907.62
1620.256	903.62
1624.78	887.62
1629.3	896.62
1633.816	905.62
1638.327	888.62
1642.834	912.62
1647.336	894.62
1651.834	912.62
1656.328	930.62
1660.817	912.62
1665.302	895.62
1669.783	870.62
1674.259	860.62
1678.732	850.62
1683.199	839.62
1687.663	800.62
1692.122	799.62
1696.577	775.62
1701.028	762.62
1705.474	732.62
1709.917	708.62
1714.355	710.62
1718.788	706.62
1723.218	692.62
1727.643	671.62
1732.064	675.62
1736.481	655.62
1740.893	660.62
1745.301	640.62
1749.705	611.62
1754.105	621.62
1758.501	596.62
1762.893	595.62
1767.28	579.62
1771.663	571.62
1776.042	569.62
1780.417	559.62
1784.787	572.62
1789.154	573.62
1793.516	561.62
1797.874	560.62
1802.228	540.62
1806.578	548.62
1810.924	561.62
1815.266	431.62
1819.603	554.62
1823.937	535.62
1828.266	537.62
1832.591	536.62
1836.913	525.62
1841.23	523.62
1845.543	520.62
1849.852	512.62
1854.156	509.62
1858.457	525.62
1862.754	518.62
1867.047	510.62
1871.335	533.62
1875.62	530.62
1879.9	522.62
1884.177	508.62
1888.449	522.62
1892.718	512.62
1896.982	522.62
1901.243	501.62
1905.499	489.62
1909.752	488.62
1914	474.62
1918.245	500.62
1922.485	498.62
1926.722	483.62
1930.954	478.62
1935.183	488.62
1939.408	490.62
1943.628	500.62
1947.845	490.62
1952.058	480.62
1956.267	472.62
1960.472	473.62
1964.673	476.62
1968.87	466.62
1973.063	458.62
1977.252	448.62
1981.438	440.62
1985.619	434.62
1989.797	431.62
1993.971	433.62
1998.14	455.62
2002.306	427.62
2006.469	446.62
2010.627	435.62
2014.781	436.62
2018.932	421.62
2023.078	443.62
2027.221	431.62
2031.36	410.62
2035.495	416.62
2039.627	414.62
2043.754	405.62
2047.878	390.62
2051.998	398.62
2056.114	402.62
2060.226	398.62
2064.334	403.62
2068.439	395.62
2072.54	413.62
2076.637	392.62
2080.73	397.62
2084.82	393.62
2088.906	387.62
2092.988	386.62
2097.066	389.62
2101.14	399.62
2105.211	389.62
2109.278	380.62
2113.342	376.62
2117.401	366.62
2121.457	364.62
2125.509	359.62
2129.558	370.62
2133.602	360.62
2137.643	354.62
2141.681	356.62
2145.714	359.62
2149.744	355.62
2153.77	351.62
2157.793	338.62
2161.812	311.62
2165.827	313.62
2169.838	343.62
2173.846	318.62
2177.851	321.62
2181.851	324.62
2185.848	316.62
2189.841	314.62
2193.831	318.62
2197.817	314.62
2201.799	308.62
2205.778	297.62
2209.753	293.62
2213.725	297.62
2217.693	294.62
2221.657	290.62
2225.618	300.62
2229.575	298.62
2233.529	301.62
2237.479	298.62
2241.425	278.62
2245.368	275.62
2249.307	279.62
2253.243	277.62
2257.175	279.62
2261.104	266.62
2265.029	260.62
2268.95	257.62
2272.868	256.62
2276.783	244.62
2280.694	254.62
2284.601	254.62
2288.505	248.62
2292.405	244.62
2296.302	225.62
2300.195	231.62
2304.085	211.62
2307.971	228.62
2311.854	212.62
2315.734	225.62
2319.609	217.62
2323.482	204.62
2327.351	212.62
2331.216	214.62
2335.078	221.62
2338.937	217.62
2342.792	202.62
2346.643	210.62
2350.492	219.62
2354.336	203.62
2358.178	212.62
2362.015	209.62
2365.85	202.62
2369.681	205.62
2373.508	204.62
2377.333	225.62
2381.153	213.62
2384.971	209.62
2388.785	203.62
2392.595	198.62
2396.402	191.62
2400.206	171.62
2404.007	187.62
2407.804	198.62
2411.597	191.62
2415.388	182.62
2419.174	196.62
2422.958	194.62
2426.738	186.62
2430.515	194.62
2434.289	177.62
2438.059	181.62
2441.825	179.62
2445.589	194.62
2449.349	163.62
2453.106	187.62
2456.859	181.62
2460.61	178.62
2464.356	166.62
2468.1	159.62
2471.84	167.62
2475.577	162.62
2479.311	155.62
2483.041	171.62
2486.768	175.62
2490.492	173.62
2494.213	167.62
2497.93	153.62
2501.644	146.62
2505.355	160.62
2509.062	150.62
2512.766	158.62
2516.467	147.62
2520.165	151.62
2523.859	143.62
2527.551	168.62
2531.239	138.62
2534.923	151.62
2538.605	146.62
2542.283	151.62
2545.958	145.62
2549.63	155.62
2553.299	152.62
2556.964	140.62
2560.626	135.62
2564.285	141.62
2567.941	132.62
2571.594	129.62
2575.243	145.62
2578.89	134.62
2582.533	133.62
2586.173	125.62
2589.809	133.62
2593.443	106.62
2597.073	128.62
2600.701	136.62
2604.325	128.62
2607.946	119.62
2611.564	132.62
2615.178	134.62
2618.79	128.62
2622.398	116.62
2626.004	125.62
2629.606	122.62
2633.205	109.62
2636.801	114.62
2640.394	119.62
2643.983	116.62
2647.57	109.62
2651.153	104.62
2654.734	121.62
2658.311	88.62
2661.885	105.62
2665.456	110.62
2669.025	103.62
2672.589	104.62
2676.151	121.62
2679.71	115.62
2683.266	96.62
2686.819	99.62
2690.368	103.62
2693.915	113.62
2697.458	98.62
2700.999	107.62
2704.536	101.62
2708.071	97.62
2711.602	94.62
2715.13	90.62
2718.656	79.62
2722.178	97.62
2725.697	80.62
2729.214	89.62
2732.727	99.62
2736.237	77.62
2739.744	86.62
2743.249	78.62
2746.75	88.62
2750.248	80.62
2753.743	88.62
2757.236	84.62
2760.725	91.62
2764.211	54.62
2767.695	86.62
2771.175	85.62
2774.652	87.62
2778.127	86.62
2781.598	79.62
2785.067	91.62
2788.532	71.62
2791.995	86.62
2795.455	72.62
2798.911	94.62
2802.365	81.62
2805.816	85.62
2809.264	94.62
2812.709	82.62
2816.151	90.62
2819.59	73.62
2823.026	82.62
2826.46	76.62
2829.89	92.62
2833.318	65.62
2836.742	82.62
2840.164	82.62
2843.583	81.62
2846.999	85.62
2850.412	81.62
2853.822	77.62
2857.229	97.62
2860.634	99.62
2864.035	75.62
2867.434	99.62
2870.83	97.62
2874.223	89.62
2877.613	98.62
2881	84.62
2884.385	89.62
2887.766	86.62
2891.145	92.62
2894.521	89.62
2897.894	82.62
2901.264	106.62
2904.631	95.62
2907.996	109.62
2911.358	108.62
2914.717	103.62
2918.073	90.62
2921.426	97.62
2924.777	86.62
2928.124	96.62
2931.469	116.62
2934.811	101.62
2938.15	116.62
2941.487	112.62
2944.821	125.62
2948.152	113.62
2951.48	123.62
2954.805	100.62
2958.128	123.62
2961.447	100.62
2964.765	123.62
2968.079	114.62
2971.39	113.62
2974.699	117.62
2978.005	117.62
2981.308	118.62
2984.609	109.62
2987.907	128.62
2991.202	127.62
2994.494	111.62
2997.784	130.62
3001.07	129.62
3004.355	122.62
3007.636	128.62
3010.915	124.62
3014.191	122.62
3017.464	133.62
3020.734	128.62
3024.002	133.62
3027.267	137.62
3030.53	139.62
3033.789	133.62
3037.046	136.62
3040.301	135.62
3043.552	149.62
3046.801	154.62
3050.048	158.62
3053.291	175.62
3056.532	159.62
3059.771	149.62
3063.006	170.62
3066.239	166.62
3069.469	179.62
3072.697	179.62
3075.922	184.62
3079.144	186.62
3082.364	211.62
3085.581	191.62
3088.795	214.62
3092.007	214.62
3095.216	210.62
3098.423	211.62
3101.627	199.62
3104.828	221.62
3108.026	220.62
3111.222	244.62
3114.416	247.62
3117.607	246.62
3120.795	245.62
3123.98	251.62
3127.163	240.62
3130.344	259.62
3133.521	254.62
3136.696	272.62
3139.869	284.62
3143.039	265.62
3146.206	298.62
3149.371	296.62
3152.533	294.62
3155.693	289.62
3158.85	293.62
3162.005	303.62
3165.157	303.62
3168.306	302.62
3171.453	306.62
3174.597	300.62
3177.739	291.62
3180.878	304.62
3184.014	315.62
3187.149	306.62
3190.28	311.62
3193.409	317.62
3196.536	314.62
3199.659	319.62
3202.781	320.62
3205.9	304.62
3209.016	321.62
3212.13	320.62
3215.241	318.62
3218.35	307.62
3221.456	296.62
3224.56	289.62
3227.661	290.62
3230.76	286.62
3233.856	280.62
3236.95	290.62
3240.041	276.62
3243.13	291.62
3246.216	283.62
3249.3	289.62
3252.382	284.62
3255.46	266.62
3258.537	229.62
3261.611	272.62
3264.682	268.62
3267.751	272.62
3270.818	264.62
3273.882	281.62
3276.943	265.62
3280.002	286.62
3283.059	268.62
3286.113	257.62
3289.165	262.62
3292.214	259.62
3295.261	268.62
3298.306	247.62
3301.348	259.62
3304.387	234.62
3307.425	242.62
3310.459	236.62
3313.492	252.62
3316.521	233.62
3319.549	244.62
3322.574	246.62
3325.597	230.62
3328.617	234.62
3331.635	230.62
3334.65	208.62
3337.663	229.62
3340.674	226.62
3343.682	224.62
3346.688	235.62
3349.691	226.62
3352.692	221.62
3355.691	224.62
3358.687	224.62
3361.681	228.62
3364.673	218.62
3367.662	214.62
3370.649	225.62
3373.633	206.62
3376.615	213.62
3379.595	190.62
3382.572	197.62
3385.547	194.62
3388.52	194.62
3391.49	185.62
3394.458	194.62
3397.424	194.62
3400.387	169.62
3403.348	180.62
3406.307	183.62
3409.263	183.62
3412.217	190.62
3415.168	180.62
3418.118	190.62
3421.065	169.62
3424.009	177.62
3426.951	170.62
3429.891	173.62
3432.829	170.62
3435.764	159.62
3438.697	146.62
3441.628	163.62
3444.557	144.62
3447.483	136.62
3450.407	146.62
3453.328	138.62
3456.247	135.62
3459.164	122.62
3462.079	137.62
3464.991	121.62
3467.902	117.62
3470.809	119.62
3473.715	115.62
3476.618	104.62
3479.519	106.62
3482.418	85.62
3485.315	93.62
3488.209	88.62
3491.101	90.62
3493.99	74.62
3496.878	73.62
3499.763	87.62
3502.646	80.62
3505.527	70.62
3508.405	67.62
3511.281	60.62
3514.155	71.62
3517.027	66.62
3519.897	52.62
3522.764	60.62
3525.629	36.62
3528.492	50.62
3531.352	47.62
3534.211	48.62
3537.067	45.62
3539.921	41.62
3542.773	50.62
3545.622	31.62
3548.469	25.62
3551.315	23.62
3554.157	28.62
3556.998	21.62
3559.837	22.62
3562.673	27.62
3565.507	19.62
3568.339	13.62
3571.169	14.62
3573.996	14.62
3576.822	1.62
3579.645	5.62
3582.466	5.62
3585.285	10.62
3588.101	7.62
3590.916	9.62
3593.728	12.62
3596.538	4.62
3599.346	6.62
3602.152	-5.38
3604.956	1.62
3607.757	9.62
3610.556	-13.38
3613.354	7.62
3616.149	-2.38
3618.942	2.62
3621.732	-0.38
3624.521	-8.38
3627.307	-17.38
3630.092	-10.38
3632.874	6.62
3635.654	-8.38
3638.432	-16.38
3641.208	-19.38
3643.982	-14.38
3646.753	-3.38
3649.523	-34.38
3652.29	-17.38
3655.055	-10.38
3657.818	-13.38
3660.579	-19.38
3663.338	-27.38
3666.095	-22.38
3668.849	-43.38
3671.602	-11.38
3674.352	-27.38
3677.101	-14.38
3679.847	-9.38
3682.591	-30.38
3685.333	-35.38
3688.073	-23.38
3690.811	-31.38
3693.547	-32.38
3696.281	-34.38
3699.013	-22.38
3701.742	-30.38
3704.47	-32.38
3707.195	-18.38
3709.919	-21.38
3712.64	-28.38
3715.359	-37.38
3718.076	-18.38
3720.792	-31.38
3723.505	-23.38
3726.216	-16.38
3728.925	-26.38
3731.632	-35.38
3734.336	-26.38
3737.039	-26.38
3739.74	-26.38
3742.439	-49.38
3745.136	-20.38
3747.83	-24.38
3750.523	-22.38
3753.213	-91.38
3755.902	-29.38
3758.589	-41.38
3761.273	-29.38
3763.956	-25.38
3766.636	-41.38
3769.315	-19.38
3771.991	-31.38
3774.665	-36.38
3777.338	-29.38
3780.008	-40.38
3782.677	-30.38
3785.343	-49.38
3788.007	-51.38
3790.67	-23.38
3793.33	-43.38
3795.989	-38.38
3798.645	-29.38
3801.299	-42.38
3803.952	-41.38
3806.602	-37.38
3809.251	-23.38
3811.897	-32.38
3814.542	-38.38
3817.184	-35.38
3819.825	-29.38
3822.463	-41.38
3825.1	-31.38
3827.735	-29.38
3830.367	-41.38
3832.998	-23.38
3835.627	-36.38
3838.253	-26.38
3840.878	-31.38
3843.501	-17.38
3846.122	-25.38
3848.741	-23.38
3851.358	-23.38
3853.973	-39.38
3856.586	-24.38
3859.197	-37.38
3861.806	-35.38
3864.414	-41.38
3867.019	-33.38
3869.622	-18.38
3872.224	-14.38
3874.823	-5.38
3877.421	19.62
3880.016	33.62
3882.61	79.62
3885.202	90.62
3887.792	65.62
3890.38	32.62
3892.966	-9.38
3895.55	-30.38
3898.132	-20.38
3900.713	-23.38
3903.291	-30.38
3905.868	-38.38
3908.442	-31.38
3911.015	-33.38
3913.586	-35.38
3916.155	-36.38
3918.722	-41.38
3921.287	-37.38
3923.85	-48.38
3926.411	-40.38
3928.971	-37.38
3931.528	-34.38
3934.084	-38.38
3936.638	-48.38
3939.19	-24.38
3941.74	-28.38
3944.288	-39.38
3946.834	-31.38
3949.378	-24.38
3951.921	-36.38
3954.462	-34.38
3957	-29.38
3959.537	-19.38
3962.072	-31.38
3964.606	-49.38
3967.137	-34.38
3969.667	-39.38
3972.194	-28.38
3974.72	-37.38
3977.244	-55.38
3979.766	-37.38
3982.286	-36.38
3984.805	-33.38
3987.321	-22.38
3989.836	-26.38
3992.349	-36.38
3994.86	-32.38
3997.369	-38.38
3999.877	-32.38
4002.382	-34.38
4004.886	-30.38
4007.388	-29.38
4009.888	-20.38
4012.386	-24.38
4014.883	-26.38
4017.377	-34.38
4019.87	-30.38
4022.361	-35.38
4024.85	-31.38
4027.338	-29.38
4029.823	-37.38
4032.307	-29.38
4034.789	-28.38
4037.269	-32.38
4039.747	-43.38
4042.224	-21.38
4044.699	-39.38
4047.172	-37.38
4049.643	-22.38
4052.112	-56.38
4054.58	-27.38
4057.046	-45.38
4059.51	-33.38
4061.972	-28.38
4064.432	-50.38
4066.891	-22.38
4069.348	-35.38
4071.803	-29.38
4074.256	-33.38
4076.708	-27.38
4079.158	-27.38
4081.606	-22.38
4084.052	-30.38
4086.497	-26.38
4088.939	-31.38
4091.38	-31.38
4093.819	-25.38
4096.257	-1.38
4098.693	-6.38
4101.127	-3.38
4103.559	0.62
4105.989	111.62
4108.418	102.62
4110.845	95.62
4113.27	101.62
4115.694	101.62
4118.115	94.62
4120.535	-31.38
4122.954	-23.38
4125.37	-21.38
4127.785	-24.38
4130.198	-22.38
4132.609	-26.38
4135.019	7.62
4137.427	-0.38
4139.833	5.62
4142.237	-2.38
