Data from 2018-3-6_conc=0_n=6_RamanShift_03.txt Node
Date: Tue Mar 06 12:24:49 GMT+02:00 2018
User: LAB3
Spectrometer: QEPB0276
Trigger mode: 0
Integration Time (sec): 3.000000E1
Scans to average: 1
Electric dark correction enabled: true
Nonlinearity correction enabled: false
Boxcar width: 0
XAxis mode: Raman Shifts
Number of Pixels in Spectrum: 1044
>>>>>Begin Spectral Data<<<<<
160.701	64.12
166.742	100.12
172.777	175.12
178.805	387.12
184.826	940.12
190.841	1926.12
196.849	3073.12
202.85	3998.12
208.845	4336.12
214.833	4370.12
220.815	4320.12
226.789	4378.12
232.758	4396.12
238.719	4446.12
244.674	4450.12
250.623	4419.12
256.565	4396.12
262.5	4376.12
268.429	4359.12
274.351	4353.12
280.267	4376.12
286.176	4369.12
292.079	4372.12
297.975	4375.12
303.865	4405.12
309.748	4419.12
315.625	4425.12
321.495	4439.12
327.359	4462.12
333.217	4450.12
339.068	4470.12
344.912	4507.12
350.751	4501.12
356.583	4495.12
362.408	4540.12
368.227	4538.12
374.04	4563.12
379.847	4590.12
385.647	4596.12
391.44	4615.12
397.228	4656.12
403.009	4670.12
408.784	4668.12
414.553	4697.12
420.315	4714.12
426.071	4726.12
431.821	4733.12
437.565	4735.12
443.302	4699.12
449.033	4690.12
454.758	4659.12
460.477	4637.12
466.189	4612.12
471.896	4577.12
477.596	4549.12
483.29	4532.12
488.978	4545.12
494.66	4479.12
500.335	4389.12
506.005	4277.12
511.668	4123.12
517.325	3936.12
522.977	3815.12
528.622	3733.12
534.261	3644.12
539.894	3596.12
545.521	3572.12
551.141	3513.12
556.756	3503.12
562.365	3488.12
567.968	3475.12
573.565	3423.12
579.155	3421.12
584.74	3358.12
590.319	3398.12
595.892	3382.12
601.459	3401.12
607.02	3382.12
612.575	3343.12
618.124	3324.12
623.667	3285.12
629.204	3245.12
634.735	3207.12
640.261	3173.12
645.781	3150.12
651.294	3147.12
656.802	3132.12
662.304	3147.12
667.8	3143.12
673.29	3124.12
678.775	3134.12
684.254	3101.12
689.726	3113.12
695.193	3098.12
700.655	3077.12
706.11	3058.12
711.56	3063.12
717.004	3019.12
722.442	2995.12
727.874	2983.12
733.301	2996.12
738.722	2952.12
744.137	2963.12
749.547	2962.12
754.951	2984.12
760.349	2959.12
765.741	3022.12
771.128	3010.12
776.509	3018.12
781.885	3060.12
787.254	3078.12
792.618	3086.12
797.977	3054.12
803.33	3045.12
808.677	3043.12
814.019	3001.12
819.355	2991.12
824.686	2953.12
830.011	2947.12
835.33	2949.12
840.644	2939.12
845.952	2904.12
851.255	2924.12
856.552	2897.12
861.844	2878.12
867.13	2874.12
872.41	2890.12
877.686	2907.12
882.955	2920.12
888.219	2876.12
893.478	2789.12
898.731	2716.12
903.979	2711.12
909.221	2642.12
914.458	2629.12
919.69	2657.12
924.916	2641.12
930.136	2647.12
935.351	2639.12
940.561	2649.12
945.766	2629.12
950.965	2633.12
956.158	2612.12
961.347	2587.12
966.529	2562.12
971.707	2537.12
976.879	2506.12
982.046	2474.12
987.208	2482.12
992.364	2476.12
997.515	2479.12
1002.66	2501.12
1007.801	2526.12
1012.936	2497.12
1018.066	2519.12
1023.19	2547.12
1028.309	2559.12
1033.423	2568.12
1038.532	2575.12
1043.636	2573.12
1048.734	2554.12
1053.827	2519.12
1058.915	2484.12
1063.998	2462.12
1069.075	2451.12
1074.147	2452.12
1079.214	2466.12
1084.276	2518.12
1089.333	2490.12
1094.385	2505.12
1099.431	2510.12
1104.472	2480.12
1109.509	2460.12
1114.54	2428.12
1119.565	2348.12
1124.586	2370.12
1129.602	2326.12
1134.613	2285.12
1139.618	2293.12
1144.619	2302.12
1149.614	2317.12
1154.604	2307.12
1159.589	2284.12
1164.57	2332.12
1169.545	2325.12
1174.515	2298.12
1179.48	2297.12
1184.44	2280.12
1189.395	2291.12
1194.345	2237.12
1199.29	2226.12
1204.23	2233.12
1209.165	2217.12
1214.095	2253.12
1219.021	2277.12
1223.941	2265.12
1228.856	2281.12
1233.766	2278.12
1238.672	2281.12
1243.572	2270.12
1248.467	2260.12
1253.358	2247.12
1258.244	2196.12
1263.124	2179.12
1268	2155.12
1272.871	2110.12
1277.737	2099.12
1282.599	2103.12
1287.455	2119.12
1292.306	2085.12
1297.153	2093.12
1301.995	2108.12
1306.832	2117.12
1311.664	2137.12
1316.491	2103.12
1321.314	2124.12
1326.132	2096.12
1330.945	2070.12
1335.753	2038.12
1340.556	1994.12
1345.354	1965.12
1350.148	1957.12
1354.937	1919.12
1359.722	1904.12
1364.501	1898.12
1369.276	1894.12
1374.046	1910.12
1378.811	1899.12
1383.572	1895.12
1388.327	1902.12
1393.079	1858.12
1397.825	1850.12
1402.567	1849.12
1407.304	1833.12
1412.036	1827.12
1416.764	1811.12
1421.487	1808.12
1426.205	1785.12
1430.919	1819.12
1435.628	1836.12
1440.333	1836.12
1445.032	1866.12
1449.727	1891.12
1454.418	1904.12
1459.104	1919.12
1463.785	1881.12
1468.462	1854.12
1473.134	1817.12
1477.802	1772.12
1482.465	1742.12
1487.123	1729.12
1491.777	1711.12
1496.426	1694.12
1501.071	1737.12
1505.711	1716.12
1510.347	1736.12
1514.978	1752.12
1519.604	1733.12
1524.226	1760.12
1528.844	1723.12
1533.457	1733.12
1538.065	1718.12
1542.669	1714.12
1547.269	1676.12
1551.864	1665.12
1556.454	1634.12
1561.041	1644.12
1565.622	1647.12
1570.199	1661.12
1574.772	1660.12
1579.34	1672.12
1583.904	1699.12
1588.464	1700.12
1593.019	1687.12
1597.569	1653.12
1602.115	1657.12
1606.657	1653.12
1611.195	1663.12
1615.728	1653.12
1620.256	1640.12
1624.78	1606.12
1629.3	1625.12
1633.816	1646.12
1638.327	1639.12
1642.834	1662.12
1647.336	1669.12
1651.834	1689.12
1656.328	1686.12
1660.817	1675.12
1665.302	1654.12
1669.783	1642.12
1674.259	1629.12
1678.732	1608.12
1683.199	1561.12
1687.663	1541.12
1692.122	1515.12
1696.577	1474.12
1701.028	1483.12
1705.474	1431.12
1709.917	1409.12
1714.355	1420.12
1718.788	1386.12
1723.218	1353.12
1727.643	1345.12
1732.064	1353.12
1736.481	1327.12
1740.893	1304.12
1745.301	1271.12
1749.705	1222.12
1754.105	1242.12
1758.501	1215.12
1762.893	1185.12
1767.28	1163.12
1771.663	1160.12
1776.042	1148.12
1780.417	1137.12
1784.787	1154.12
1789.154	1161.12
1793.516	1151.12
1797.874	1152.12
1802.228	1148.12
1806.578	1134.12
1810.924	1151.12
1815.266	1044.12
1819.603	1113.12
1823.937	1089.12
1828.266	1086.12
1832.591	1059.12
1836.913	1074.12
1841.23	1047.12
1845.543	1035.12
1849.852	1073.12
1854.156	1041.12
1858.457	1054.12
1862.754	1053.12
1867.047	1053.12
1871.335	1071.12
1875.62	1073.12
1879.9	1072.12
1884.177	1056.12
1888.449	1063.12
1892.718	1041.12
1896.982	1046.12
1901.243	1033.12
1905.499	1032.12
1909.752	1043.12
1914	1004.12
1918.245	1044.12
1922.485	1032.12
1926.722	1031.12
1930.954	1038.12
1935.183	1050.12
1939.408	1058.12
1943.628	1054.12
1947.845	1039.12
1952.058	1025.12
1956.267	1003.12
1960.472	1001.12
1964.673	973.12
1968.87	958.12
1973.063	930.12
1977.252	932.12
1981.438	906.12
1985.619	911.12
1989.797	877.12
1993.971	882.12
1998.14	892.12
2002.306	891.12
2006.469	886.12
2010.627	864.12
2014.781	881.12
2018.932	861.12
2023.078	881.12
2027.221	869.12
2031.36	826.12
2035.495	844.12
2039.627	840.12
2043.754	825.12
2047.878	817.12
2051.998	806.12
2056.114	815.12
2060.226	810.12
2064.334	823.12
2068.439	827.12
2072.54	834.12
2076.637	824.12
2080.73	831.12
2084.82	828.12
2088.906	816.12
2092.988	832.12
2097.066	827.12
2101.14	827.12
2105.211	808.12
2109.278	805.12
2113.342	794.12
2117.401	775.12
2121.457	770.12
2125.509	765.12
2129.558	758.12
2133.602	766.12
2137.643	744.12
2141.681	753.12
2145.714	750.12
2149.744	748.12
2153.77	728.12
2157.793	720.12
2161.812	704.12
2165.827	679.12
2169.838	708.12
2173.846	673.12
2177.851	680.12
2181.851	677.12
2185.848	651.12
2189.841	658.12
2193.831	643.12
2197.817	650.12
2201.799	640.12
2205.778	627.12
2209.753	622.12
2213.725	609.12
2217.693	617.12
2221.657	620.12
2225.618	628.12
2229.575	625.12
2233.529	623.12
2237.479	627.12
2241.425	600.12
2245.368	572.12
2249.307	579.12
2253.243	582.12
2257.175	567.12
2261.104	550.12
2265.029	566.12
2268.95	546.12
2272.868	539.12
2276.783	535.12
2280.694	536.12
2284.601	526.12
2288.505	516.12
2292.405	526.12
2296.302	497.12
2300.195	508.12
2304.085	480.12
2307.971	488.12
2311.854	472.12
2315.734	477.12
2319.609	480.12
2323.482	444.12
2327.351	449.12
2331.216	465.12
2335.078	459.12
2338.937	450.12
2342.792	442.12
2346.643	442.12
2350.492	445.12
2354.336	450.12
2358.178	451.12
2362.015	438.12
2365.85	438.12
2369.681	447.12
2373.508	454.12
2377.333	454.12
2381.153	449.12
2384.971	446.12
2388.785	441.12
2392.595	426.12
2396.402	425.12
2400.206	398.12
2404.007	431.12
2407.804	425.12
2411.597	430.12
2415.388	413.12
2419.174	414.12
2422.958	411.12
2426.738	415.12
2430.515	423.12
2434.289	394.12
2438.059	396.12
2441.825	404.12
2445.589	403.12
2449.349	384.12
2453.106	392.12
2456.859	393.12
2460.61	394.12
2464.356	378.12
2468.1	364.12
2471.84	377.12
2475.577	371.12
2479.311	370.12
2483.041	364.12
2486.768	377.12
2490.492	387.12
2494.213	365.12
2497.93	359.12
2501.644	353.12
2505.355	354.12
2509.062	363.12
2512.766	352.12
2516.467	348.12
2520.165	362.12
2523.859	336.12
2527.551	373.12
2531.239	334.12
2534.923	349.12
2538.605	340.12
2542.283	351.12
2545.958	348.12
2549.63	355.12
2553.299	350.12
2556.964	331.12
2560.626	332.12
2564.285	332.12
2567.941	320.12
2571.594	326.12
2575.243	335.12
2578.89	327.12
2582.533	323.12
2586.173	325.12
2589.809	319.12
2593.443	284.12
2597.073	307.12
2600.701	310.12
2604.325	304.12
2607.946	292.12
2611.564	300.12
2615.178	301.12
2618.79	302.12
2622.398	280.12
2626.004	297.12
2629.606	294.12
2633.205	279.12
2636.801	285.12
2640.394	278.12
2643.983	268.12
2647.57	264.12
2651.153	261.12
2654.734	278.12
2658.311	235.12
2661.885	252.12
2665.456	252.12
2669.025	253.12
2672.589	244.12
2676.151	255.12
2679.71	263.12
2683.266	244.12
2686.819	234.12
2690.368	237.12
2693.915	247.12
2697.458	227.12
2700.999	235.12
2704.536	236.12
2708.071	230.12
2711.602	225.12
2715.13	228.12
2718.656	202.12
2722.178	220.12
2725.697	206.12
2729.214	215.12
2732.727	217.12
2736.237	201.12
2739.744	208.12
2743.249	211.12
2746.75	214.12
2750.248	207.12
2753.743	216.12
2757.236	212.12
2760.725	216.12
2764.211	188.12
2767.695	213.12
2771.175	212.12
2774.652	206.12
2778.127	200.12
2781.598	203.12
2785.067	207.12
2788.532	192.12
2791.995	201.12
2795.455	195.12
2798.911	206.12
2802.365	194.12
2805.816	206.12
2809.264	200.12
2812.709	191.12
2816.151	200.12
2819.59	194.12
2823.026	197.12
2826.46	190.12
2829.89	210.12
2833.318	174.12
2836.742	198.12
2840.164	208.12
2843.583	207.12
2846.999	205.12
2850.412	215.12
2853.822	201.12
2857.229	226.12
2860.634	219.12
2864.035	200.12
2867.434	213.12
2870.83	224.12
2874.223	231.12
2877.613	231.12
2881	223.12
2884.385	234.12
2887.766	230.12
2891.145	239.12
2894.521	244.12
2897.894	232.12
2901.264	231.12
2904.631	240.12
2907.996	230.12
2911.358	244.12
2914.717	240.12
2918.073	234.12
2921.426	230.12
2924.777	215.12
2928.124	241.12
2931.469	266.12
2934.811	251.12
2938.15	285.12
2941.487	268.12
2944.821	281.12
2948.152	263.12
2951.48	266.12
2954.805	243.12
2958.128	264.12
2961.447	239.12
2964.765	257.12
2968.079	240.12
2971.39	248.12
2974.699	245.12
2978.005	255.12
2981.308	252.12
2984.609	248.12
2987.907	260.12
2991.202	257.12
2994.494	243.12
2997.784	253.12
3001.07	252.12
3004.355	237.12
3007.636	248.12
3010.915	251.12
3014.191	236.12
3017.464	246.12
3020.734	243.12
3024.002	248.12
3027.267	248.12
3030.53	252.12
3033.789	241.12
3037.046	247.12
3040.301	239.12
3043.552	248.12
3046.801	260.12
3050.048	267.12
3053.291	289.12
3056.532	275.12
3059.771	261.12
3063.006	283.12
3066.239	286.12
3069.469	296.12
3072.697	295.12
3075.922	288.12
3079.144	304.12
3082.364	328.12
3085.581	310.12
3088.795	344.12
3092.007	339.12
3095.216	354.12
3098.423	338.12
3101.627	335.12
3104.828	356.12
3108.026	349.12
3111.222	373.12
3114.416	376.12
3117.607	381.12
3120.795	383.12
3123.98	394.12
3127.163	403.12
3130.344	413.12
3133.521	406.12
3136.696	433.12
3139.869	428.12
3143.039	417.12
3146.206	453.12
3149.371	456.12
3152.533	454.12
3155.693	435.12
3158.85	457.12
3162.005	460.12
3165.157	466.12
3168.306	462.12
3171.453	467.12
3174.597	455.12
3177.739	454.12
3180.878	464.12
3184.014	473.12
3187.149	480.12
3190.28	466.12
3193.409	468.12
3196.536	480.12
3199.659	477.12
3202.781	478.12
3205.9	462.12
3209.016	475.12
3212.13	479.12
3215.241	481.12
3218.35	478.12
3221.456	467.12
3224.56	446.12
3227.661	460.12
3230.76	454.12
3233.856	458.12
3236.95	460.12
3240.041	440.12
3243.13	453.12
3246.216	442.12
3249.3	439.12
3252.382	430.12
3255.46	430.12
3258.537	389.12
3261.611	429.12
3264.682	432.12
3267.751	427.12
3270.818	421.12
3273.882	428.12
3276.943	420.12
3280.002	440.12
3283.059	404.12
3286.113	416.12
3289.165	399.12
3292.214	385.12
3295.261	394.12
3298.306	372.12
3301.348	394.12
3304.387	375.12
3307.425	377.12
3310.459	362.12
3313.492	368.12
3316.521	359.12
3319.549	369.12
3322.574	355.12
3325.597	342.12
3328.617	351.12
3331.635	339.12
3334.65	333.12
3337.663	353.12
3340.674	332.12
3343.682	334.12
3346.688	347.12
3349.691	338.12
3352.692	335.12
3355.691	336.12
3358.687	343.12
3361.681	340.12
3364.673	331.12
3367.662	327.12
3370.649	337.12
3373.633	314.12
3376.615	317.12
3379.595	295.12
3382.572	302.12
3385.547	300.12
3388.52	289.12
3391.49	286.12
3394.458	299.12
3397.424	295.12
3400.387	275.12
3403.348	279.12
3406.307	278.12
3409.263	285.12
3412.217	276.12
3415.168	274.12
3418.118	279.12
3421.065	262.12
3424.009	275.12
3426.951	262.12
3429.891	253.12
3432.829	250.12
3435.764	248.12
3438.697	236.12
3441.628	253.12
3444.557	218.12
3447.483	225.12
3450.407	229.12
3453.328	216.12
3456.247	212.12
3459.164	200.12
3462.079	213.12
3464.991	200.12
3467.902	189.12
3470.809	195.12
3473.715	194.12
3476.618	175.12
3479.519	174.12
3482.418	146.12
3485.315	152.12
3488.209	150.12
3491.101	151.12
3493.99	134.12
3496.878	136.12
3499.763	142.12
3502.646	141.12
3505.527	125.12
3508.405	126.12
3511.281	118.12
3514.155	125.12
3517.027	115.12
3519.897	97.12
3522.764	109.12
3525.629	92.12
3528.492	100.12
3531.352	91.12
3534.211	82.12
3537.067	85.12
3539.921	79.12
3542.773	81.12
3545.622	61.12
3548.469	56.12
3551.315	55.12
3554.157	64.12
3556.998	47.12
3559.837	55.12
3562.673	58.12
3565.507	45.12
3568.339	35.12
3571.169	45.12
3573.996	39.12
3576.822	21.12
3579.645	28.12
3582.466	34.12
3585.285	35.12
3588.101	32.12
3590.916	21.12
3593.728	27.12
3596.538	30.12
3599.346	21.12
3602.152	15.12
3604.956	19.12
3607.757	21.12
3610.556	0.12
3613.354	19.12
3616.149	13.12
3618.942	13.12
3621.732	18.12
3624.521	2.12
3627.307	-5.88
3630.092	-2.88
3632.874	18.12
3635.654	0.12
3638.432	-1.88
3641.208	-1.88
3643.982	-0.88
3646.753	2.12
3649.523	-28.88
3652.29	-6.88
3655.055	-4.88
3657.818	-7.88
3660.579	-9.88
3663.338	-16.88
3666.095	-15.88
3668.849	-36.88
3671.602	-7.88
3674.352	-26.88
3677.101	-6.88
3679.847	-6.88
3682.591	-21.88
3685.333	-21.88
3688.073	-13.88
3690.811	-27.88
3693.547	-28.88
3696.281	-31.88
3699.013	-11.88
3701.742	-24.88
3704.47	-29.88
3707.195	-15.88
3709.919	-18.88
3712.64	-23.88
3715.359	-34.88
3718.076	-7.88
3720.792	-24.88
3723.505	-17.88
3726.216	-9.88
3728.925	-26.88
3731.632	-30.88
3734.336	-21.88
3737.039	-18.88
3739.74	-21.88
3742.439	-46.88
3745.136	-18.88
3747.83	-21.88
3750.523	-18.88
3753.213	-82.88
3755.902	-23.88
3758.589	-38.88
3761.273	-26.88
3763.956	-19.88
3766.636	-37.88
3769.315	-19.88
3771.991	-21.88
3774.665	-29.88
3777.338	-26.88
3780.008	-33.88
3782.677	-27.88
3785.343	-41.88
3788.007	-46.88
3790.67	-26.88
3793.33	-39.88
3795.989	-28.88
3798.645	-22.88
3801.299	-36.88
3803.952	-35.88
3806.602	-32.88
3809.251	-17.88
3811.897	-33.88
3814.542	-30.88
3817.184	-31.88
3819.825	-30.88
3822.463	-41.88
3825.1	-32.88
3827.735	-25.88
3830.367	-33.88
3832.998	-15.88
3835.627	-32.88
3838.253	-16.88
3840.878	-30.88
3843.501	-16.88
3846.122	-24.88
3848.741	-21.88
3851.358	-22.88
3853.973	-40.88
3856.586	-20.88
3859.197	-38.88
3861.806	-33.88
3864.414	-41.88
3867.019	-32.88
3869.622	-22.88
3872.224	-24.88
3874.823	-23.88
3877.421	-9.88
3880.016	-9.88
3882.61	13.12
3885.202	30.12
3887.792	19.12
3890.38	2.12
3892.966	-25.88
3895.55	-39.88
3898.132	-24.88
3900.713	-25.88
3903.291	-30.88
3905.868	-38.88
3908.442	-30.88
3911.015	-29.88
3913.586	-35.88
3916.155	-29.88
3918.722	-33.88
3921.287	-42.88
3923.85	-45.88
3926.411	-34.88
3928.971	-39.88
3931.528	-32.88
3934.084	-35.88
3936.638	-41.88
3939.19	-25.88
3941.74	-32.88
3944.288	-36.88
3946.834	-31.88
3949.378	-24.88
3951.921	-40.88
3954.462	-31.88
3957	-36.88
3959.537	-24.88
3962.072	-36.88
3964.606	-51.88
3967.137	-39.88
3969.667	-35.88
3972.194	-28.88
3974.72	-34.88
3977.244	-57.88
3979.766	-38.88
3982.286	-41.88
3984.805	-24.88
3987.321	-22.88
3989.836	-29.88
3992.349	-38.88
3994.86	-36.88
3997.369	-39.88
3999.877	-32.88
4002.382	-33.88
4004.886	-26.88
4007.388	-31.88
4009.888	-19.88
4012.386	-24.88
4014.883	-32.88
4017.377	-32.88
4019.87	-29.88
4022.361	-39.88
4024.85	-31.88
4027.338	-33.88
4029.823	-34.88
4032.307	-36.88
4034.789	-29.88
4037.269	-30.88
4039.747	-46.88
4042.224	-21.88
4044.699	-37.88
4047.172	-33.88
4049.643	-24.88
4052.112	-55.88
4054.58	-31.88
4057.046	-42.88
4059.51	-28.88
4061.972	-31.88
4064.432	-47.88
4066.891	-19.88
4069.348	-27.88
4071.803	-28.88
4074.256	-35.88
4076.708	-28.88
4079.158	-34.88
4081.606	-19.88
4084.052	-31.88
4086.497	-26.88
4088.939	-28.88
4091.38	-30.88
4093.819	-27.88
4096.257	4.12
4098.693	-3.88
4101.127	-6.88
4103.559	4.12
4105.989	44.12
4108.418	48.12
4110.845	39.12
4113.27	47.12
4115.694	63.12
4118.115	49.12
4120.535	-25.88
4122.954	-25.88
4125.37	-17.88
4127.785	-26.88
4130.198	-20.88
4132.609	-25.88
4135.019	9.12
4137.427	-0.88
4139.833	4.12
4142.237	-9.88
