Data from 2018-3-6_conc=2_n=4_RamanShift_01.txt Node
Date: Tue Mar 06 12:51:19 GMT+02:00 2018
User: LAB3
Spectrometer: QEPB0276
Trigger mode: 0
Integration Time (sec): 3.000000E1
Scans to average: 1
Electric dark correction enabled: true
Nonlinearity correction enabled: false
Boxcar width: 0
XAxis mode: Raman Shifts
Number of Pixels in Spectrum: 1044
>>>>>Begin Spectral Data<<<<<
160.701	163.62
166.742	212.62
172.777	307.62
178.805	612.62
184.826	1392.62
190.841	2791.62
196.849	4448.62
202.85	5670.62
208.845	6147.62
214.833	6166.62
220.815	6125.62
226.789	6092.62
232.758	6197.62
238.719	6144.62
244.674	6169.62
250.623	6113.62
256.565	6101.62
262.5	6036.62
268.429	5996.62
274.351	5985.62
280.267	5984.62
286.176	5978.62
292.079	6008.62
297.975	5987.62
303.865	6057.62
309.748	6052.62
315.625	6015.62
321.495	6072.62
327.359	6045.62
333.217	6094.62
339.068	6111.62
344.912	6162.62
350.751	6132.62
356.583	6189.62
362.408	6196.62
368.227	6209.62
374.04	6294.62
379.847	6320.62
385.647	6345.62
391.44	6388.62
397.228	6431.62
403.009	6450.62
408.784	6455.62
414.553	6515.62
420.315	6521.62
426.071	6537.62
431.821	6534.62
437.565	6512.62
443.302	6523.62
449.033	6449.62
454.758	6468.62
460.477	6402.62
466.189	6326.62
471.896	6270.62
477.596	6199.62
483.29	6196.62
488.978	6146.62
494.66	6138.62
500.335	5968.62
506.005	5734.62
511.668	5427.62
517.325	5158.62
522.977	4931.62
528.622	4789.62
534.261	4670.62
539.894	4579.62
545.521	4516.62
551.141	4440.62
556.756	4396.62
562.365	4353.62
567.968	4336.62
573.565	4286.62
579.155	4259.62
584.74	4235.62
590.319	4235.62
595.892	4232.62
601.459	4226.62
607.02	4210.62
612.575	4186.62
618.124	4141.62
623.667	4085.62
629.204	4015.62
634.735	3966.62
640.261	3898.62
645.781	3854.62
651.294	3849.62
656.802	3832.62
662.304	3848.62
667.8	3840.62
673.29	3820.62
678.775	3813.62
684.254	3795.62
689.726	3744.62
695.193	3769.62
700.655	3740.62
706.11	3699.62
711.56	3694.62
717.004	3684.62
722.442	3638.62
727.874	3640.62
733.301	3643.62
738.722	3598.62
744.137	3616.62
749.547	3601.62
754.951	3592.62
760.349	3621.62
765.741	3636.62
771.128	3661.62
776.509	3694.62
781.885	3744.62
787.254	3789.62
792.618	3812.62
797.977	3807.62
803.33	3747.62
808.677	3742.62
814.019	3687.62
819.355	3687.62
824.686	3625.62
830.011	3600.62
835.33	3627.62
840.644	3593.62
845.952	3546.62
851.255	3550.62
856.552	3495.62
861.844	3438.62
867.13	3437.62
872.41	3383.62
877.686	3393.62
882.955	3341.62
888.219	3317.62
893.478	3267.62
898.731	3211.62
903.979	3177.62
909.221	3133.62
914.458	3121.62
919.69	3142.62
924.916	3135.62
930.136	3125.62
935.351	3129.62
940.561	3126.62
945.766	3110.62
950.965	3120.62
956.158	3081.62
961.347	3055.62
966.529	3010.62
971.707	2993.62
976.879	2945.62
982.046	2909.62
987.208	2888.62
992.364	2921.62
997.515	2910.62
1002.66	2937.62
1007.801	2972.62
1012.936	2967.62
1018.066	2967.62
1023.19	3011.62
1028.309	3026.62
1033.423	3027.62
1038.532	3042.62
1043.636	2994.62
1048.734	2968.62
1053.827	2950.62
1058.915	2930.62
1063.998	2916.62
1069.075	2880.62
1074.147	2908.62
1079.214	2878.62
1084.276	2922.62
1089.333	2885.62
1094.385	2902.62
1099.431	2863.62
1104.472	2881.62
1109.509	2839.62
1114.54	2800.62
1119.565	2760.62
1124.586	2727.62
1129.602	2703.62
1134.613	2675.62
1139.618	2662.62
1144.619	2662.62
1149.614	2676.62
1154.604	2685.62
1159.589	2688.62
1164.57	2718.62
1169.545	2707.62
1174.515	2704.62
1179.48	2686.62
1184.44	2676.62
1189.395	2655.62
1194.345	2628.62
1199.29	2626.62
1204.23	2614.62
1209.165	2586.62
1214.095	2624.62
1219.021	2634.62
1223.941	2647.62
1228.856	2662.62
1233.766	2677.62
1238.672	2661.62
1243.572	2665.62
1248.467	2629.62
1253.358	2587.62
1258.244	2520.62
1263.124	2534.62
1268	2506.62
1272.871	2423.62
1277.737	2423.62
1282.599	2403.62
1287.455	2418.62
1292.306	2400.62
1297.153	2414.62
1301.995	2423.62
1306.832	2443.62
1311.664	2439.62
1316.491	2440.62
1321.314	2430.62
1326.132	2403.62
1330.945	2386.62
1335.753	2348.62
1340.556	2302.62
1345.354	2265.62
1350.148	2222.62
1354.937	2209.62
1359.722	2170.62
1364.501	2180.62
1369.276	2176.62
1374.046	2173.62
1378.811	2147.62
1383.572	2157.62
1388.327	2162.62
1393.079	2131.62
1397.825	2126.62
1402.567	2088.62
1407.304	2079.62
1412.036	2072.62
1416.764	2060.62
1421.487	2063.62
1426.205	2056.62
1430.919	2069.62
1435.628	2085.62
1440.333	2086.62
1445.032	2109.62
1449.727	2122.62
1454.418	2124.62
1459.104	2160.62
1463.785	2111.62
1468.462	2087.62
1473.134	2039.62
1477.802	2000.62
1482.465	1966.62
1487.123	1956.62
1491.777	1951.62
1496.426	1926.62
1501.071	1969.62
1505.711	1950.62
1510.347	1984.62
1514.978	1988.62
1519.604	1988.62
1524.226	1995.62
1528.844	1967.62
1533.457	1960.62
1538.065	1942.62
1542.669	1930.62
1547.269	1907.62
1551.864	1905.62
1556.454	1875.62
1561.041	1884.62
1565.622	1868.62
1570.199	1878.62
1574.772	1913.62
1579.34	1915.62
1583.904	1945.62
1588.464	1953.62
1593.019	1971.62
1597.569	1938.62
1602.115	1940.62
1606.657	1919.62
1611.195	1932.62
1615.728	1931.62
1620.256	1908.62
1624.78	1895.62
1629.3	1915.62
1633.816	1933.62
1638.327	1923.62
1642.834	1949.62
1647.336	1965.62
1651.834	1975.62
1656.328	1986.62
1660.817	1962.62
1665.302	1960.62
1669.783	1942.62
1674.259	1913.62
1678.732	1864.62
1683.199	1834.62
1687.663	1757.62
1692.122	1751.62
1696.577	1710.62
1701.028	1682.62
1705.474	1638.62
1709.917	1597.62
1714.355	1590.62
1718.788	1568.62
1723.218	1557.62
1727.643	1534.62
1732.064	1530.62
1736.481	1483.62
1740.893	1472.62
1745.301	1445.62
1749.705	1375.62
1754.105	1373.62
1758.501	1350.62
1762.893	1330.62
1767.28	1306.62
1771.663	1290.62
1776.042	1267.62
1780.417	1270.62
1784.787	1302.62
1789.154	1292.62
1793.516	1291.62
1797.874	1281.62
1802.228	1281.62
1806.578	1268.62
1810.924	1261.62
1815.266	1161.62
1819.603	1234.62
1823.937	1207.62
1828.266	1198.62
1832.591	1184.62
1836.913	1183.62
1841.23	1172.62
1845.543	1172.62
1849.852	1166.62
1854.156	1159.62
1858.457	1166.62
1862.754	1174.62
1867.047	1166.62
1871.335	1187.62
1875.62	1176.62
1879.9	1183.62
1884.177	1168.62
1888.449	1171.62
1892.718	1160.62
1896.982	1158.62
1901.243	1147.62
1905.499	1142.62
1909.752	1136.62
1914	1119.62
1918.245	1155.62
1922.485	1161.62
1926.722	1156.62
1930.954	1154.62
1935.183	1151.62
1939.408	1159.62
1943.628	1177.62
1947.845	1151.62
1952.058	1126.62
1956.267	1109.62
1960.472	1112.62
1964.673	1075.62
1968.87	1066.62
1973.063	1042.62
1977.252	1027.62
1981.438	1009.62
1985.619	1005.62
1989.797	973.62
1993.971	988.62
1998.14	984.62
2002.306	972.62
2006.469	982.62
2010.627	974.62
2014.781	976.62
2018.932	965.62
2023.078	974.62
2027.221	960.62
2031.36	935.62
2035.495	933.62
2039.627	929.62
2043.754	934.62
2047.878	907.62
2051.998	913.62
2056.114	909.62
2060.226	906.62
2064.334	929.62
2068.439	924.62
2072.54	918.62
2076.637	915.62
2080.73	940.62
2084.82	924.62
2088.906	931.62
2092.988	916.62
2097.066	926.62
2101.14	922.62
2105.211	908.62
2109.278	891.62
2113.342	877.62
2117.401	853.62
2121.457	853.62
2125.509	840.62
2129.558	842.62
2133.602	828.62
2137.643	835.62
2141.681	818.62
2145.714	822.62
2149.744	822.62
2153.77	806.62
2157.793	788.62
2161.812	762.62
2165.827	756.62
2169.838	769.62
2173.846	752.62
2177.851	740.62
2181.851	749.62
2185.848	723.62
2189.841	724.62
2193.831	699.62
2197.817	711.62
2201.799	691.62
2205.778	682.62
2209.753	680.62
2213.725	673.62
2217.693	674.62
2221.657	669.62
2225.618	686.62
2229.575	666.62
2233.529	666.62
2237.479	667.62
2241.425	640.62
2245.368	630.62
2249.307	636.62
2253.243	618.62
2257.175	624.62
2261.104	599.62
2265.029	598.62
2268.95	599.62
2272.868	575.62
2276.783	568.62
2280.694	570.62
2284.601	564.62
2288.505	559.62
2292.405	560.62
2296.302	542.62
2300.195	539.62
2304.085	510.62
2307.971	511.62
2311.854	503.62
2315.734	503.62
2319.609	505.62
2323.482	469.62
2327.351	480.62
2331.216	478.62
2335.078	484.62
2338.937	476.62
2342.792	468.62
2346.643	468.62
2350.492	474.62
2354.336	469.62
2358.178	459.62
2362.015	467.62
2365.85	463.62
2369.681	471.62
2373.508	478.62
2377.333	475.62
2381.153	465.62
2384.971	456.62
2388.785	463.62
2392.595	447.62
2396.402	456.62
2400.206	431.62
2404.007	441.62
2407.804	458.62
2411.597	440.62
2415.388	443.62
2419.174	429.62
2422.958	443.62
2426.738	432.62
2430.515	434.62
2434.289	425.62
2438.059	417.62
2441.825	429.62
2445.589	422.62
2449.349	408.62
2453.106	418.62
2456.859	415.62
2460.61	416.62
2464.356	394.62
2468.1	387.62
2471.84	386.62
2475.577	387.62
2479.311	379.62
2483.041	390.62
2486.768	395.62
2490.492	393.62
2494.213	383.62
2497.93	383.62
2501.644	366.62
2505.355	378.62
2509.062	376.62
2512.766	375.62
2516.467	371.62
2520.165	362.62
2523.859	360.62
2527.551	387.62
2531.239	362.62
2534.923	371.62
2538.605	360.62
2542.283	366.62
2545.958	368.62
2549.63	377.62
2553.299	367.62
2556.964	349.62
2560.626	357.62
2564.285	349.62
2567.941	336.62
2571.594	337.62
2575.243	354.62
2578.89	338.62
2582.533	337.62
2586.173	338.62
2589.809	331.62
2593.443	305.62
2597.073	330.62
2600.701	326.62
2604.325	322.62
2607.946	309.62
2611.564	325.62
2615.178	324.62
2618.79	320.62
2622.398	297.62
2626.004	309.62
2629.606	303.62
2633.205	293.62
2636.801	301.62
2640.394	296.62
2643.983	294.62
2647.57	291.62
2651.153	279.62
2654.734	288.62
2658.311	255.62
2661.885	269.62
2665.456	276.62
2669.025	263.62
2672.589	265.62
2676.151	279.62
2679.71	267.62
2683.266	268.62
2686.819	254.62
2690.368	261.62
2693.915	256.62
2697.458	249.62
2700.999	249.62
2704.536	251.62
2708.071	246.62
2711.602	249.62
2715.13	236.62
2718.656	221.62
2722.178	234.62
2725.697	216.62
2729.214	232.62
2732.727	237.62
2736.237	215.62
2739.744	229.62
2743.249	233.62
2746.75	245.62
2750.248	227.62
2753.743	235.62
2757.236	240.62
2760.725	235.62
2764.211	203.62
2767.695	234.62
2771.175	226.62
2774.652	223.62
2778.127	224.62
2781.598	217.62
2785.067	231.62
2788.532	214.62
2791.995	220.62
2795.455	219.62
2798.911	216.62
2802.365	211.62
2805.816	229.62
2809.264	235.62
2812.709	219.62
2816.151	223.62
2819.59	219.62
2823.026	229.62
2826.46	223.62
2829.89	244.62
2833.318	209.62
2836.742	223.62
2840.164	229.62
2843.583	231.62
2846.999	235.62
2850.412	234.62
2853.822	226.62
2857.229	247.62
2860.634	244.62
2864.035	229.62
2867.434	248.62
2870.83	259.62
2874.223	253.62
2877.613	249.62
2881	255.62
2884.385	252.62
2887.766	244.62
2891.145	249.62
2894.521	261.62
2897.894	247.62
2901.264	264.62
2904.631	250.62
2907.996	265.62
2911.358	271.62
2914.717	263.62
2918.073	266.62
2921.426	265.62
2924.777	251.62
2928.124	266.62
2931.469	287.62
2934.811	276.62
2938.15	303.62
2941.487	297.62
2944.821	313.62
2948.152	294.62
2951.48	296.62
2954.805	293.62
2958.128	306.62
2961.447	288.62
2964.765	302.62
2968.079	292.62
2971.39	298.62
2974.699	304.62
2978.005	299.62
2981.308	304.62
2984.609	295.62
2987.907	319.62
2991.202	322.62
2994.494	310.62
2997.784	315.62
3001.07	319.62
3004.355	317.62
3007.636	328.62
3010.915	329.62
3014.191	328.62
3017.464	326.62
3020.734	328.62
3024.002	334.62
3027.267	326.62
3030.53	342.62
3033.789	348.62
3037.046	341.62
3040.301	343.62
3043.552	357.62
3046.801	363.62
3050.048	373.62
3053.291	391.62
3056.532	390.62
3059.771	386.62
3063.006	416.62
3066.239	419.62
3069.469	430.62
3072.697	423.62
3075.922	443.62
3079.144	436.62
3082.364	488.62
3085.581	476.62
3088.795	502.62
3092.007	496.62
3095.216	506.62
3098.423	513.62
3101.627	489.62
3104.828	537.62
3108.026	537.62
3111.222	563.62
3114.416	570.62
3117.607	580.62
3120.795	587.62
3123.98	595.62
3127.163	606.62
3130.344	615.62
3133.521	624.62
3136.696	659.62
3139.869	659.62
3143.039	651.62
3146.206	700.62
3149.371	698.62
3152.533	686.62
3155.693	691.62
3158.85	710.62
3162.005	714.62
3165.157	705.62
3168.306	704.62
3171.453	721.62
3174.597	710.62
3177.739	700.62
3180.878	718.62
3184.014	709.62
3187.149	714.62
3190.28	720.62
3193.409	728.62
3196.536	718.62
3199.659	722.62
3202.781	739.62
3205.9	713.62
3209.016	733.62
3212.13	717.62
3215.241	720.62
3218.35	716.62
3221.456	713.62
3224.56	710.62
3227.661	703.62
3230.76	695.62
3233.856	681.62
3236.95	691.62
3240.041	685.62
3243.13	681.62
3246.216	682.62
3249.3	680.62
3252.382	676.62
3255.46	676.62
3258.537	610.62
3261.611	657.62
3264.682	657.62
3267.751	660.62
3270.818	645.62
3273.882	654.62
3276.943	648.62
3280.002	647.62
3283.059	628.62
3286.113	635.62
3289.165	611.62
3292.214	596.62
3295.261	610.62
3298.306	593.62
3301.348	587.62
3304.387	577.62
3307.425	574.62
3310.459	558.62
3313.492	565.62
3316.521	560.62
3319.549	562.62
3322.574	557.62
3325.597	555.62
3328.617	538.62
3331.635	526.62
3334.65	524.62
3337.663	539.62
3340.674	526.62
3343.682	527.62
3346.688	541.62
3349.691	525.62
3352.692	520.62
3355.691	533.62
3358.687	514.62
3361.681	518.62
3364.673	511.62
3367.662	509.62
3370.649	518.62
3373.633	498.62
3376.615	491.62
3379.595	471.62
3382.572	478.62
3385.547	470.62
3388.52	479.62
3391.49	454.62
3394.458	466.62
3397.424	454.62
3400.387	442.62
3403.348	450.62
3406.307	429.62
3409.263	435.62
3412.217	440.62
3415.168	439.62
3418.118	437.62
3421.065	414.62
3424.009	432.62
3426.951	418.62
3429.891	400.62
3432.829	406.62
3435.764	393.62
3438.697	384.62
3441.628	382.62
3444.557	368.62
3447.483	354.62
3450.407	357.62
3453.328	340.62
3456.247	333.62
3459.164	316.62
3462.079	327.62
3464.991	311.62
3467.902	306.62
3470.809	293.62
3473.715	309.62
3476.618	278.62
3479.519	282.62
3482.418	258.62
3485.315	255.62
3488.209	244.62
3491.101	241.62
3493.99	225.62
3496.878	230.62
3499.763	232.62
3502.646	219.62
3505.527	207.62
3508.405	205.62
3511.281	187.62
3514.155	198.62
3517.027	190.62
3519.897	175.62
3522.764	178.62
3525.629	159.62
3528.492	166.62
3531.352	152.62
3534.211	151.62
3537.067	139.62
3539.921	137.62
3542.773	142.62
3545.622	118.62
3548.469	113.62
3551.315	112.62
3554.157	114.62
3556.998	98.62
3559.837	100.62
3562.673	105.62
3565.507	83.62
3568.339	80.62
3571.169	84.62
3573.996	81.62
3576.822	57.62
3579.645	68.62
3582.466	61.62
3585.285	69.62
3588.101	63.62
3590.916	63.62
3593.728	59.62
3596.538	51.62
3599.346	56.62
3602.152	44.62
3604.956	45.62
3607.757	47.62
3610.556	30.62
3613.354	37.62
3616.149	31.62
3618.942	35.62
3621.732	39.62
3624.521	29.62
3627.307	17.62
3630.092	20.62
3632.874	33.62
3635.654	23.62
3638.432	10.62
3641.208	8.62
3643.982	14.62
3646.753	22.62
3649.523	-12.38
3652.29	12.62
3655.055	11.62
3657.818	8.62
3660.579	3.62
3663.338	-2.38
3666.095	-0.38
3668.849	-22.38
3671.602	4.62
3674.352	-12.38
3677.101	5.62
3679.847	1.62
3682.591	-14.38
3685.333	-15.38
3688.073	-0.38
3690.811	-13.38
3693.547	-20.38
3696.281	-21.38
3699.013	-6.38
3701.742	-11.38
3704.47	-24.38
3707.195	-10.38
3709.919	-15.38
3712.64	-14.38
3715.359	-25.38
3718.076	-4.38
3720.792	-21.38
3723.505	-9.38
3726.216	-4.38
3728.925	-21.38
3731.632	-28.38
3734.336	-20.38
3737.039	-20.38
3739.74	-16.38
3742.439	-45.38
3745.136	-11.38
3747.83	-20.38
3750.523	-10.38
3753.213	-75.38
3755.902	-22.38
3758.589	-35.38
3761.273	-26.38
3763.956	-16.38
3766.636	-35.38
3769.315	-13.38
3771.991	-24.38
3774.665	-25.38
3777.338	-21.38
3780.008	-33.38
3782.677	-23.38
3785.343	-39.38
3788.007	-41.38
3790.67	-22.38
3793.33	-34.38
3795.989	-34.38
3798.645	-25.38
3801.299	-29.38
3803.952	-32.38
3806.602	-28.38
3809.251	-23.38
3811.897	-25.38
3814.542	-28.38
3817.184	-30.38
3819.825	-24.38
3822.463	-40.38
3825.1	-24.38
3827.735	-29.38
3830.367	-35.38
3832.998	-11.38
3835.627	-29.38
3838.253	-21.38
3840.878	-24.38
3843.501	-7.38
3846.122	-26.38
3848.741	-23.38
3851.358	-21.38
3853.973	-35.38
3856.586	-19.38
3859.197	-30.38
3861.806	-28.38
3864.414	-39.38
3867.019	-24.38
3869.622	-14.38
3872.224	-5.38
3874.823	13.62
3877.421	46.62
3880.016	73.62
3882.61	117.62
3885.202	131.62
3887.792	100.62
3890.38	50.62
3892.966	6.62
3895.55	-22.38
3898.132	-16.38
3900.713	-20.38
3903.291	-25.38
3905.868	-31.38
3908.442	-26.38
3911.015	-29.38
3913.586	-31.38
3916.155	-30.38
3918.722	-30.38
3921.287	-35.38
3923.85	-40.38
3926.411	-37.38
3928.971	-34.38
3931.528	-27.38
3934.084	-32.38
3936.638	-46.38
3939.19	-27.38
3941.74	-31.38
3944.288	-28.38
3946.834	-29.38
3949.378	-23.38
3951.921	-32.38
3954.462	-27.38
3957	-25.38
3959.537	-16.38
3962.072	-26.38
3964.606	-44.38
3967.137	-28.38
3969.667	-36.38
3972.194	-24.38
3974.72	-36.38
3977.244	-55.38
3979.766	-34.38
3982.286	-33.38
3984.805	-27.38
3987.321	-21.38
3989.836	-25.38
3992.349	-37.38
3994.86	-27.38
3997.369	-31.38
3999.877	-31.38
4002.382	-30.38
4004.886	-26.38
4007.388	-23.38
4009.888	-18.38
4012.386	-17.38
4014.883	-25.38
4017.377	-27.38
4019.87	-24.38
4022.361	-41.38
4024.85	-24.38
4027.338	-28.38
4029.823	-35.38
4032.307	-28.38
4034.789	-29.38
4037.269	-24.38
4039.747	-40.38
4042.224	-20.38
4044.699	-28.38
4047.172	-31.38
4049.643	-22.38
4052.112	-49.38
4054.58	-28.38
4057.046	-40.38
4059.51	-30.38
4061.972	-26.38
4064.432	-45.38
4066.891	-17.38
4069.348	-28.38
4071.803	-22.38
4074.256	-33.38
4076.708	-19.38
4079.158	-25.38
4081.606	-9.38
4084.052	-25.38
4086.497	-22.38
4088.939	-23.38
4091.38	-31.38
4093.819	-21.38
4096.257	1.62
4098.693	-5.38
4101.127	-7.38
4103.559	0.62
4105.989	150.62
4108.418	158.62
4110.845	143.62
4113.27	148.62
4115.694	152.62
4118.115	146.62
4120.535	-25.38
4122.954	-21.38
4125.37	-20.38
4127.785	-21.38
4130.198	-20.38
4132.609	-21.38
4135.019	7.62
4137.427	-0.38
4139.833	7.62
4142.237	-4.38
