Data from ethanol_RamanShift_02.txt Node
Date: Tue Mar 06 11:56:19 GMT+02:00 2018
User: LAB3
Spectrometer: QEPB0276
Trigger mode: 0
Integration Time (sec): 3.000000E1
Scans to average: 1
Electric dark correction enabled: true
Nonlinearity correction enabled: false
Boxcar width: 0
XAxis mode: Raman Shifts
Number of Pixels in Spectrum: 1044
>>>>>Begin Spectral Data<<<<<
160.701	117.75
166.742	147.75
172.777	207.75
178.805	387.75
184.826	876.75
190.841	1797.75
196.849	2839.75
202.85	3609.75
208.845	3875.75
214.833	3867.75
220.815	3862.75
226.789	3857.75
232.758	3879.75
238.719	3916.75
244.674	3929.75
250.623	3919.75
256.565	3944.75
262.5	3918.75
268.429	3931.75
274.351	3933.75
280.267	3968.75
286.176	3986.75
292.079	3976.75
297.975	3973.75
303.865	3968.75
309.748	3970.75
315.625	3958.75
321.495	3989.75
327.359	3970.75
333.217	4005.75
339.068	4002.75
344.912	4048.75
350.751	4070.75
356.583	4095.75
362.408	4138.75
368.227	4177.75
374.04	4224.75
379.847	4287.75
385.647	4342.75
391.44	4393.75
397.228	4471.75
403.009	4554.75
408.784	4670.75
414.553	4871.75
420.315	5092.75
426.071	5450.75
431.821	5939.75
437.565	6275.75
443.302	6248.75
449.033	5959.75
454.758	5519.75
460.477	5133.75
466.189	4839.75
471.896	4604.75
477.596	4464.75
483.29	4373.75
488.978	4276.75
494.66	4199.75
500.335	4033.75
506.005	3806.75
511.668	3539.75
517.325	3270.75
522.977	3045.75
528.622	2902.75
534.261	2796.75
539.894	2722.75
545.521	2656.75
551.141	2600.75
556.756	2561.75
562.365	2523.75
567.968	2504.75
573.565	2465.75
579.155	2459.75
584.74	2425.75
590.319	2434.75
595.892	2445.75
601.459	2449.75
607.02	2434.75
612.575	2409.75
618.124	2385.75
623.667	2313.75
629.204	2275.75
634.735	2239.75
640.261	2200.75
645.781	2150.75
651.294	2186.75
656.802	2175.75
662.304	2167.75
667.8	2145.75
673.29	2141.75
678.775	2150.75
684.254	2097.75
689.726	2099.75
695.193	2104.75
700.655	2105.75
706.11	2082.75
711.56	2079.75
717.004	2067.75
722.442	2052.75
727.874	2050.75
733.301	2067.75
738.722	2025.75
744.137	2062.75
749.547	2045.75
754.951	2043.75
760.349	2081.75
765.741	2113.75
771.128	2142.75
776.509	2187.75
781.885	2265.75
787.254	2334.75
792.618	2382.75
797.977	2415.75
803.33	2448.75
808.677	2459.75
814.019	2467.75
819.355	2462.75
824.686	2465.75
830.011	2468.75
835.33	2495.75
840.644	2568.75
845.952	2608.75
851.255	2784.75
856.552	3021.75
861.844	3461.75
867.13	4441.75
872.41	6527.75
877.686	10420.75
882.955	15081.75
888.219	16697.75
893.478	13565.75
898.731	8510.75
903.979	5121.75
909.221	3585.75
914.458	2896.75
919.69	2598.75
924.916	2383.75
930.136	2252.75
935.351	2145.75
940.561	2121.75
945.766	2026.75
950.965	2002.75
956.158	1964.75
961.347	1933.75
966.529	1915.75
971.707	1916.75
976.879	1897.75
982.046	1885.75
987.208	1895.75
992.364	1962.75
997.515	2009.75
1002.66	2129.75
1007.801	2258.75
1012.936	2485.75
1018.066	2761.75
1023.19	3109.75
1028.309	3495.75
1033.423	3924.75
1038.532	4449.75
1043.636	5279.75
1048.734	6292.75
1053.827	6934.75
1058.915	6689.75
1063.998	5859.75
1069.075	4987.75
1074.147	4672.75
1079.214	4876.75
1084.276	5514.75
1089.333	6274.75
1094.385	6864.75
1099.431	6793.75
1104.472	5920.75
1109.509	4765.75
1114.54	3945.75
1119.565	3517.75
1124.586	3247.75
1129.602	3038.75
1134.613	2764.75
1139.618	2534.75
1144.619	2314.75
1149.614	2183.75
1154.604	2071.75
1159.589	2005.75
1164.57	1970.75
1169.545	1908.75
1174.515	1839.75
1179.48	1774.75
1184.44	1736.75
1189.395	1701.75
1194.345	1653.75
1199.29	1649.75
1204.23	1639.75
1209.165	1625.75
1214.095	1658.75
1219.021	1660.75
1223.941	1706.75
1228.856	1726.75
1233.766	1780.75
1238.672	1831.75
1243.572	1879.75
1248.467	1935.75
1253.358	2013.75
1258.244	2067.75
1263.124	2245.75
1268	2516.75
1272.871	2904.75
1277.737	3391.75
1282.599	3647.75
1287.455	3505.75
1292.306	3048.75
1297.153	2591.75
1301.995	2312.75
1306.832	2147.75
1311.664	2040.75
1316.491	1991.75
1321.314	1927.75
1326.132	1883.75
1330.945	1857.75
1335.753	1821.75
1340.556	1796.75
1345.354	1776.75
1350.148	1785.75
1354.937	1793.75
1359.722	1779.75
1364.501	1844.75
1369.276	1878.75
1374.046	1957.75
1378.811	2047.75
1383.572	2185.75
1388.327	2306.75
1393.079	2351.75
1397.825	2367.75
1402.567	2395.75
1407.304	2460.75
1412.036	2558.75
1416.764	2726.75
1421.487	2872.75
1426.205	3051.75
1430.919	3317.75
1435.628	3613.75
1440.333	4078.75
1445.032	4783.75
1449.727	5903.75
1454.418	7313.75
1459.104	8309.75
1463.785	7977.75
1468.462	6631.75
1473.134	5270.75
1477.802	4456.75
1482.465	4125.75
1487.123	4036.75
1491.777	3871.75
1496.426	3464.75
1501.071	3044.75
1505.711	2641.75
1510.347	2398.75
1514.978	2233.75
1519.604	2078.75
1524.226	1980.75
1528.844	1876.75
1533.457	1765.75
1538.065	1686.75
1542.669	1609.75
1547.269	1535.75
1551.864	1478.75
1556.454	1419.75
1561.041	1375.75
1565.622	1325.75
1570.199	1320.75
1574.772	1265.75
1579.34	1268.75
1583.904	1236.75
1588.464	1238.75
1593.019	1202.75
1597.569	1160.75
1602.115	1155.75
1606.657	1135.75
1611.195	1149.75
1615.728	1138.75
1620.256	1131.75
1624.78	1095.75
1629.3	1112.75
1633.816	1104.75
1638.327	1083.75
1642.834	1075.75
1647.336	1071.75
1651.834	1088.75
1656.328	1073.75
1660.817	1066.75
1665.302	1060.75
1669.783	1052.75
1674.259	1047.75
1678.732	1025.75
1683.199	1014.75
1687.663	995.75
1692.122	994.75
1696.577	985.75
1701.028	962.75
1705.474	944.75
1709.917	936.75
1714.355	920.75
1718.788	920.75
1723.218	894.75
1727.643	870.75
1732.064	871.75
1736.481	828.75
1740.893	833.75
1745.301	805.75
1749.705	765.75
1754.105	773.75
1758.501	746.75
1762.893	756.75
1767.28	714.75
1771.663	730.75
1776.042	706.75
1780.417	708.75
1784.787	700.75
1789.154	712.75
1793.516	705.75
1797.874	703.75
1802.228	694.75
1806.578	688.75
1810.924	687.75
1815.266	594.75
1819.603	670.75
1823.937	654.75
1828.266	646.75
1832.591	635.75
1836.913	634.75
1841.23	629.75
1845.543	624.75
1849.852	636.75
1854.156	626.75
1858.457	614.75
1862.754	627.75
1867.047	648.75
1871.335	651.75
1875.62	648.75
1879.9	647.75
1884.177	646.75
1888.449	654.75
1892.718	638.75
1896.982	652.75
1901.243	629.75
1905.499	642.75
1909.752	630.75
1914	615.75
1918.245	646.75
1922.485	650.75
1926.722	649.75
1930.954	644.75
1935.183	651.75
1939.408	651.75
1943.628	647.75
1947.845	630.75
1952.058	632.75
1956.267	612.75
1960.472	624.75
1964.673	601.75
1968.87	591.75
1973.063	572.75
1977.252	571.75
1981.438	564.75
1985.619	565.75
1989.797	540.75
1993.971	535.75
1998.14	549.75
2002.306	540.75
2006.469	536.75
2010.627	531.75
2014.781	521.75
2018.932	521.75
2023.078	538.75
2027.221	525.75
2031.36	508.75
2035.495	516.75
2039.627	517.75
2043.754	508.75
2047.878	499.75
2051.998	503.75
2056.114	515.75
2060.226	513.75
2064.334	521.75
2068.439	545.75
2072.54	540.75
2076.637	530.75
2080.73	552.75
2084.82	554.75
2088.906	553.75
2092.988	558.75
2097.066	567.75
2101.14	543.75
2105.211	550.75
2109.278	528.75
2113.342	526.75
2117.401	511.75
2121.457	502.75
2125.509	492.75
2129.558	505.75
2133.602	489.75
2137.643	495.75
2141.681	492.75
2145.714	479.75
2149.744	488.75
2153.77	475.75
2157.793	461.75
2161.812	456.75
2165.827	445.75
2169.838	460.75
2173.846	458.75
2177.851	451.75
2181.851	451.75
2185.848	439.75
2189.841	442.75
2193.831	427.75
2197.817	431.75
2201.799	421.75
2205.778	413.75
2209.753	418.75
2213.725	414.75
2217.693	414.75
2221.657	408.75
2225.618	429.75
2229.575	422.75
2233.529	422.75
2237.479	427.75
2241.425	419.75
2245.368	413.75
2249.307	418.75
2253.243	413.75
2257.175	432.75
2261.104	409.75
2265.029	426.75
2268.95	412.75
2272.868	407.75
2276.783	397.75
2280.694	405.75
2284.601	404.75
2288.505	405.75
2292.405	398.75
2296.302	382.75
2300.195	378.75
2304.085	345.75
2307.971	372.75
2311.854	339.75
2315.734	346.75
2319.609	352.75
2323.482	320.75
2327.351	318.75
2331.216	329.75
2335.078	330.75
2338.937	328.75
2342.792	324.75
2346.643	308.75
2350.492	326.75
2354.336	311.75
2358.178	317.75
2362.015	309.75
2365.85	311.75
2369.681	307.75
2373.508	316.75
2377.333	312.75
2381.153	309.75
2384.971	302.75
2388.785	306.75
2392.595	295.75
2396.402	286.75
2400.206	269.75
2404.007	286.75
2407.804	300.75
2411.597	295.75
2415.388	294.75
2419.174	291.75
2422.958	298.75
2426.738	300.75
2430.515	303.75
2434.289	292.75
2438.059	302.75
2441.825	291.75
2445.589	311.75
2449.349	289.75
2453.106	301.75
2456.859	304.75
2460.61	307.75
2464.356	289.75
2468.1	280.75
2471.84	295.75
2475.577	292.75
2479.311	284.75
2483.041	297.75
2486.768	301.75
2490.492	309.75
2494.213	292.75
2497.93	301.75
2501.644	282.75
2505.355	299.75
2509.062	304.75
2512.766	308.75
2516.467	305.75
2520.165	307.75
2523.859	301.75
2527.551	343.75
2531.239	321.75
2534.923	339.75
2538.605	341.75
2542.283	364.75
2545.958	368.75
2549.63	375.75
2553.299	381.75
2556.964	369.75
2560.626	358.75
2564.285	365.75
2567.941	351.75
2571.594	349.75
2575.243	351.75
2578.89	347.75
2582.533	338.75
2586.173	343.75
2589.809	341.75
2593.443	315.75
2597.073	333.75
2600.701	341.75
2604.325	340.75
2607.946	325.75
2611.564	335.75
2615.178	338.75
2618.79	334.75
2622.398	318.75
2626.004	328.75
2629.606	332.75
2633.205	317.75
2636.801	326.75
2640.394	325.75
2643.983	324.75
2647.57	327.75
2651.153	318.75
2654.734	345.75
2658.311	313.75
2661.885	335.75
2665.456	354.75
2669.025	533.75
2672.589	565.75
2676.151	391.75
2679.71	393.75
2683.266	391.75
2686.819	404.75
2690.368	440.75
2693.915	468.75
2697.458	493.75
2700.999	547.75
2704.536	577.75
2708.071	626.75
2711.602	680.75
2715.13	726.75
2718.656	751.75
2722.178	797.75
2725.697	811.75
2729.214	821.75
2732.727	822.75
2736.237	798.75
2739.744	775.75
2743.249	765.75
2746.75	759.75
2750.248	773.75
2753.743	777.75
2757.236	775.75
2760.725	786.75
2764.211	728.75
2767.695	737.75
2771.175	706.75
2774.652	700.75
2778.127	683.75
2781.598	675.75
2785.067	683.75
2788.532	683.75
2791.995	713.75
2795.455	728.75
2798.911	777.75
2802.365	801.75
2805.816	861.75
2809.264	914.75
2812.709	958.75
2816.151	1027.75
2819.59	1097.75
2823.026	1200.75
2826.46	1308.75
2829.89	1440.75
2833.318	1534.75
2836.742	1720.75
2840.164	1837.75
2843.583	1963.75
2846.999	2034.75
2850.412	2145.75
2853.822	2226.75
2857.229	2371.75
2860.634	2540.75
2864.035	2749.75
2867.434	3051.75
2870.83	3409.75
2874.223	3867.75
2877.613	4338.75
2881	4720.75
2884.385	4953.75
2887.766	4997.75
2891.145	4936.75
2894.521	4807.75
2897.894	4700.75
2901.264	4570.75
2904.631	4445.75
2907.996	4314.75
2911.358	4236.75
2914.717	4250.75
2918.073	4345.75
2921.426	4592.75
2924.777	5024.75
2928.124	5612.75
2931.469	6193.75
2934.811	6499.75
2938.15	6432.75
2941.487	5940.75
2944.821	5367.75
2948.152	4785.75
2951.48	4281.75
2954.805	3797.75
2958.128	3507.75
2961.447	3264.75
2964.765	3138.75
2968.079	3088.75
2971.39	3113.75
2974.699	3193.75
2978.005	3256.75
2981.308	3202.75
2984.609	3023.75
2987.907	2812.75
2991.202	2543.75
2994.494	2248.75
2997.784	1950.75
3001.07	1734.75
3004.355	1536.75
3007.636	1378.75
3010.915	1237.75
3014.191	1124.75
3017.464	1031.75
3020.734	949.75
3024.002	865.75
3027.267	804.75
3030.53	756.75
3033.789	709.75
3037.046	669.75
3040.301	616.75
3043.552	595.75
3046.801	576.75
3050.048	548.75
3053.291	540.75
3056.532	518.75
3059.771	483.75
3063.006	485.75
3066.239	464.75
3069.469	459.75
3072.697	444.75
3075.922	427.75
3079.144	422.75
3082.364	427.75
3085.581	395.75
3088.795	411.75
3092.007	397.75
3095.216	409.75
3098.423	373.75
3101.627	358.75
3104.828	378.75
3108.026	372.75
3111.222	385.75
3114.416	379.75
3117.607	360.75
3120.795	368.75
3123.98	370.75
3127.163	358.75
3130.344	367.75
3133.521	359.75
3136.696	377.75
3139.869	374.75
3143.039	358.75
3146.206	395.75
3149.371	394.75
3152.533	381.75
3155.693	360.75
3158.85	370.75
3162.005	377.75
3165.157	367.75
3168.306	367.75
3171.453	378.75
3174.597	361.75
3177.739	356.75
3180.878	372.75
3184.014	370.75
3187.149	365.75
3190.28	362.75
3193.409	374.75
3196.536	370.75
3199.659	377.75
3202.781	377.75
3205.9	363.75
3209.016	373.75
3212.13	369.75
3215.241	376.75
3218.35	367.75
3221.456	359.75
3224.56	355.75
3227.661	368.75
3230.76	358.75
3233.856	353.75
3236.95	354.75
3240.041	342.75
3243.13	353.75
3246.216	345.75
3249.3	353.75
3252.382	354.75
3255.46	341.75
3258.537	277.75
3261.611	331.75
3264.682	338.75
3267.751	344.75
3270.818	324.75
3273.882	336.75
3276.943	324.75
3280.002	340.75
3283.059	312.75
3286.113	314.75
3289.165	301.75
3292.214	294.75
3295.261	305.75
3298.306	287.75
3301.348	294.75
3304.387	281.75
3307.425	285.75
3310.459	269.75
3313.492	285.75
3316.521	282.75
3319.549	279.75
3322.574	272.75
3325.597	262.75
3328.617	255.75
3331.635	258.75
3334.65	247.75
3337.663	251.75
3340.674	243.75
3343.682	258.75
3346.688	262.75
3349.691	246.75
3352.692	253.75
3355.691	259.75
3358.687	253.75
3361.681	257.75
3364.673	244.75
3367.662	247.75
3370.649	248.75
3373.633	228.75
3376.615	243.75
3379.595	219.75
3382.572	229.75
3385.547	223.75
3388.52	226.75
3391.49	219.75
3394.458	218.75
3397.424	223.75
3400.387	201.75
3403.348	219.75
3406.307	209.75
3409.263	214.75
3412.217	222.75
3415.168	212.75
3418.118	216.75
3421.065	197.75
3424.009	216.75
3426.951	204.75
3429.891	196.75
3432.829	194.75
3435.764	191.75
3438.697	180.75
3441.628	195.75
3444.557	171.75
3447.483	170.75
3450.407	176.75
3453.328	165.75
3456.247	158.75
3459.164	154.75
3462.079	157.75
3464.991	152.75
3467.902	142.75
3470.809	135.75
3473.715	142.75
3476.618	128.75
3479.519	134.75
3482.418	102.75
3485.315	110.75
3488.209	102.75
3491.101	107.75
3493.99	93.75
3496.878	97.75
3499.763	96.75
3502.646	98.75
3505.527	85.75
3508.405	85.75
3511.281	72.75
3514.155	78.75
3517.027	79.75
3519.897	71.75
3522.764	68.75
3525.629	43.75
3528.492	64.75
3531.352	58.75
3534.211	52.75
3537.067	41.75
3539.921	51.75
3542.773	48.75
3545.622	34.75
3548.469	26.75
3551.315	27.75
3554.157	38.75
3556.998	25.75
3559.837	33.75
3562.673	32.75
3565.507	21.75
3568.339	15.75
3571.169	20.75
3573.996	24.75
3576.822	0.75
3579.645	8.75
3582.466	5.75
3585.285	17.75
3588.101	7.75
3590.916	4.75
3593.728	14.75
3596.538	6.75
3599.346	14.75
3602.152	-2.25
3604.956	4.75
3607.757	6.75
3610.556	-10.25
3613.354	7.75
3616.149	6.75
3618.942	4.75
3621.732	7.75
3624.521	-4.25
3627.307	-16.25
3630.092	-8.25
3632.874	4.75
3635.654	-6.25
3638.432	-11.25
3641.208	-13.25
3643.982	-12.25
3646.753	-3.25
3649.523	-40.25
3652.29	-18.25
3655.055	-4.25
3657.818	-15.25
3660.579	-14.25
3663.338	-27.25
3666.095	-25.25
3668.849	-43.25
3671.602	-18.25
3674.352	-32.25
3677.101	-12.25
3679.847	-10.25
3682.591	-28.25
3685.333	-30.25
3688.073	-20.25
3690.811	-30.25
3693.547	-32.25
3696.281	-35.25
3699.013	-21.25
3701.742	-27.25
3704.47	-33.25
3707.195	-20.25
3709.919	-25.25
3712.64	-21.25
3715.359	-36.25
3718.076	-13.25
3720.792	-27.25
3723.505	-20.25
3726.216	-11.25
3728.925	-24.25
3731.632	-33.25
3734.336	-22.25
3737.039	-26.25
3739.74	-22.25
3742.439	-46.25
3745.136	-19.25
3747.83	-23.25
3750.523	-20.25
3753.213	-82.25
3755.902	-30.25
3758.589	-41.25
3761.273	-27.25
3763.956	-15.25
3766.636	-38.25
3769.315	-19.25
3771.991	-30.25
3774.665	-28.25
3777.338	-27.25
3780.008	-37.25
3782.677	-33.25
3785.343	-46.25
3788.007	-44.25
3790.67	-23.25
3793.33	-36.25
3795.989	-36.25
3798.645	-28.25
3801.299	-38.25
3803.952	-39.25
3806.602	-31.25
3809.251	-26.25
3811.897	-31.25
3814.542	-37.25
3817.184	-32.25
3819.825	-29.25
3822.463	-45.25
3825.1	-35.25
3827.735	-29.25
3830.367	-41.25
3832.998	-14.25
3835.627	-33.25
3838.253	-24.25
3840.878	-35.25
3843.501	-15.25
3846.122	-24.25
3848.741	-22.25
3851.358	-19.25
3853.973	-40.25
3856.586	-20.25
3859.197	-33.25
3861.806	-28.25
3864.414	-33.25
3867.019	-31.25
3869.622	-17.25
3872.224	-13.25
3874.823	1.75
3877.421	30.75
3880.016	57.75
3882.61	92.75
3885.202	95.75
3887.792	66.75
3890.38	27.75
3892.966	-6.25
3895.55	-29.25
3898.132	-20.25
3900.713	-21.25
3903.291	-23.25
3905.868	-34.25
3908.442	-25.25
3911.015	-30.25
3913.586	-34.25
3916.155	-30.25
3918.722	-36.25
3921.287	-41.25
3923.85	-46.25
3926.411	-35.25
3928.971	-34.25
3931.528	-31.25
3934.084	-32.25
3936.638	-44.25
3939.19	-25.25
3941.74	-29.25
3944.288	-36.25
3946.834	-37.25
3949.378	-27.25
3951.921	-39.25
3954.462	-32.25
3957	-27.25
3959.537	-18.25
3962.072	-34.25
3964.606	-48.25
3967.137	-32.25
3969.667	-38.25
3972.194	-27.25
3974.72	-38.25
3977.244	-56.25
3979.766	-40.25
3982.286	-43.25
3984.805	-26.25
3987.321	-25.25
3989.836	-27.25
3992.349	-40.25
3994.86	-34.25
3997.369	-38.25
3999.877	-34.25
4002.382	-37.25
4004.886	-24.25
4007.388	-28.25
4009.888	-20.25
4012.386	-21.25
4014.883	-24.25
4017.377	-29.25
4019.87	-26.25
4022.361	-37.25
4024.85	-25.25
4027.338	-30.25
4029.823	-35.25
4032.307	-29.25
4034.789	-30.25
4037.269	-28.25
4039.747	-46.25
4042.224	-20.25
4044.699	-35.25
4047.172	-31.25
4049.643	-21.25
4052.112	-55.25
4054.58	-24.25
4057.046	-40.25
4059.51	-27.25
4061.972	-31.25
4064.432	-45.25
4066.891	-17.25
4069.348	-27.25
4071.803	-27.25
4074.256	-31.25
4076.708	-24.25
4079.158	-24.25
4081.606	-14.25
4084.052	-23.25
4086.497	-25.25
4088.939	-26.25
4091.38	-31.25
4093.819	-22.25
4096.257	-1.25
4098.693	-4.25
4101.127	-6.25
4103.559	-0.25
4105.989	114.75
4108.418	111.75
4110.845	106.75
4113.27	108.75
4115.694	117.75
4118.115	102.75
4120.535	-26.25
4122.954	-20.25
4125.37	-15.25
4127.785	-19.25
4130.198	-21.25
4132.609	-24.25
4135.019	7.75
4137.427	-0.25
4139.833	7.75
4142.237	-3.25
