Data from ethanol_RamanShift_05.txt Node
Date: Tue Mar 06 11:57:49 GMT+02:00 2018
User: LAB3
Spectrometer: QEPB0276
Trigger mode: 0
Integration Time (sec): 3.000000E1
Scans to average: 1
Electric dark correction enabled: true
Nonlinearity correction enabled: false
Boxcar width: 0
XAxis mode: Raman Shifts
Number of Pixels in Spectrum: 1044
>>>>>Begin Spectral Data<<<<<
160.701	85.5
166.742	99.5
172.777	139.5
178.805	263.5
184.826	583.5
190.841	1190.5
196.849	1869.5
202.85	2389.5
208.845	2564.5
214.833	2570.5
220.815	2555.5
226.789	2575.5
232.758	2612.5
238.719	2621.5
244.674	2648.5
250.623	2657.5
256.565	2660.5
262.5	2663.5
268.429	2698.5
274.351	2670.5
280.267	2716.5
286.176	2752.5
292.079	2742.5
297.975	2778.5
303.865	2767.5
309.748	2790.5
315.625	2790.5
321.495	2811.5
327.359	2794.5
333.217	2823.5
339.068	2826.5
344.912	2872.5
350.751	2881.5
356.583	2907.5
362.408	2967.5
368.227	2990.5
374.04	3008.5
379.847	3031.5
385.647	3082.5
391.44	3111.5
397.228	3179.5
403.009	3224.5
408.784	3297.5
414.553	3414.5
420.315	3568.5
426.071	3750.5
431.821	3997.5
437.565	4165.5
443.302	4160.5
449.033	4001.5
454.758	3749.5
460.477	3524.5
466.189	3362.5
471.896	3221.5
477.596	3144.5
483.29	3066.5
488.978	3049.5
494.66	2993.5
500.335	2859.5
506.005	2656.5
511.668	2455.5
517.325	2244.5
522.977	2100.5
528.622	1983.5
534.261	1873.5
539.894	1825.5
545.521	1772.5
551.141	1729.5
556.756	1703.5
562.365	1696.5
567.968	1656.5
573.565	1641.5
579.155	1631.5
584.74	1614.5
590.319	1628.5
595.892	1629.5
601.459	1654.5
607.02	1653.5
612.575	1620.5
618.124	1582.5
623.667	1543.5
629.204	1519.5
634.735	1479.5
640.261	1452.5
645.781	1411.5
651.294	1415.5
656.802	1415.5
662.304	1416.5
667.8	1427.5
673.29	1404.5
678.775	1403.5
684.254	1372.5
689.726	1374.5
695.193	1370.5
700.655	1374.5
706.11	1361.5
711.56	1352.5
717.004	1354.5
722.442	1343.5
727.874	1337.5
733.301	1330.5
738.722	1334.5
744.137	1342.5
749.547	1341.5
754.951	1335.5
760.349	1365.5
765.741	1365.5
771.128	1396.5
776.509	1448.5
781.885	1503.5
787.254	1571.5
792.618	1580.5
797.977	1622.5
803.33	1613.5
808.677	1604.5
814.019	1621.5
819.355	1617.5
824.686	1618.5
830.011	1614.5
835.33	1637.5
840.644	1654.5
845.952	1681.5
851.255	1759.5
856.552	1881.5
861.844	2106.5
867.13	2634.5
872.41	3802.5
877.686	5915.5
882.955	8413.5
888.219	9231.5
893.478	7514.5
898.731	4790.5
903.979	2977.5
909.221	2137.5
914.458	1768.5
919.69	1576.5
924.916	1469.5
930.136	1407.5
935.351	1345.5
940.561	1322.5
945.766	1278.5
950.965	1288.5
956.158	1244.5
961.347	1223.5
966.529	1220.5
971.707	1229.5
976.879	1214.5
982.046	1198.5
987.208	1195.5
992.364	1232.5
997.515	1273.5
1002.66	1327.5
1007.801	1406.5
1012.936	1530.5
1018.066	1680.5
1023.19	1901.5
1028.309	2098.5
1033.423	2312.5
1038.532	2634.5
1043.636	3065.5
1048.734	3647.5
1053.827	3953.5
1058.915	3817.5
1063.998	3350.5
1069.075	2920.5
1074.147	2757.5
1079.214	2839.5
1084.276	3180.5
1089.333	3567.5
1094.385	3906.5
1099.431	3836.5
1104.472	3375.5
1109.509	2771.5
1114.54	2322.5
1119.565	2067.5
1124.586	1922.5
1129.602	1817.5
1134.613	1636.5
1139.618	1503.5
1144.619	1416.5
1149.614	1344.5
1154.604	1274.5
1159.589	1240.5
1164.57	1235.5
1169.545	1194.5
1174.515	1154.5
1179.48	1114.5
1184.44	1099.5
1189.395	1082.5
1194.345	1065.5
1199.29	1051.5
1204.23	1042.5
1209.165	1033.5
1214.095	1053.5
1219.021	1060.5
1223.941	1085.5
1228.856	1095.5
1233.766	1133.5
1238.672	1149.5
1243.572	1174.5
1248.467	1205.5
1253.358	1241.5
1258.244	1279.5
1263.124	1370.5
1268	1514.5
1272.871	1716.5
1277.737	1965.5
1282.599	2131.5
1287.455	2024.5
1292.306	1793.5
1297.153	1522.5
1301.995	1407.5
1306.832	1309.5
1311.664	1255.5
1316.491	1214.5
1321.314	1202.5
1326.132	1162.5
1330.945	1151.5
1335.753	1150.5
1340.556	1128.5
1345.354	1123.5
1350.148	1132.5
1354.937	1146.5
1359.722	1143.5
1364.501	1175.5
1369.276	1203.5
1374.046	1256.5
1378.811	1311.5
1383.572	1387.5
1388.327	1446.5
1393.079	1460.5
1397.825	1456.5
1402.567	1460.5
1407.304	1499.5
1412.036	1529.5
1416.764	1633.5
1421.487	1712.5
1426.205	1786.5
1430.919	1944.5
1435.628	2110.5
1440.333	2375.5
1445.032	2783.5
1449.727	3438.5
1454.418	4276.5
1459.104	4809.5
1463.785	4640.5
1468.462	3912.5
1473.134	3164.5
1477.802	2704.5
1482.465	2531.5
1487.123	2526.5
1491.777	2418.5
1496.426	2196.5
1501.071	1961.5
1505.711	1734.5
1510.347	1585.5
1514.978	1497.5
1519.604	1396.5
1524.226	1352.5
1528.844	1242.5
1533.457	1210.5
1538.065	1136.5
1542.669	1101.5
1547.269	1043.5
1551.864	990.5
1556.454	932.5
1561.041	918.5
1565.622	883.5
1570.199	867.5
1574.772	839.5
1579.34	835.5
1583.904	818.5
1588.464	822.5
1593.019	806.5
1597.569	778.5
1602.115	775.5
1606.657	749.5
1611.195	775.5
1615.728	777.5
1620.256	747.5
1624.78	726.5
1629.3	743.5
1633.816	742.5
1638.327	719.5
1642.834	730.5
1647.336	715.5
1651.834	739.5
1656.328	734.5
1660.817	747.5
1665.302	732.5
1669.783	726.5
1674.259	738.5
1678.732	751.5
1683.199	728.5
1687.663	720.5
1692.122	743.5
1696.577	742.5
1701.028	736.5
1705.474	722.5
1709.917	715.5
1714.355	716.5
1718.788	703.5
1723.218	677.5
1727.643	649.5
1732.064	639.5
1736.481	615.5
1740.893	615.5
1745.301	603.5
1749.705	561.5
1754.105	565.5
1758.501	543.5
1762.893	556.5
1767.28	534.5
1771.663	540.5
1776.042	610.5
1780.417	545.5
1784.787	550.5
1789.154	564.5
1793.516	569.5
1797.874	559.5
1802.228	564.5
1806.578	541.5
1810.924	544.5
1815.266	458.5
1819.603	539.5
1823.937	509.5
1828.266	504.5
1832.591	490.5
1836.913	487.5
1841.23	463.5
1845.543	470.5
1849.852	478.5
1854.156	467.5
1858.457	477.5
1862.754	463.5
1867.047	471.5
1871.335	495.5
1875.62	497.5
1879.9	504.5
1884.177	494.5
1888.449	510.5
1892.718	501.5
1896.982	516.5
1901.243	493.5
1905.499	505.5
1909.752	507.5
1914	509.5
1918.245	525.5
1922.485	533.5
1926.722	517.5
1930.954	540.5
1935.183	552.5
1939.408	547.5
1943.628	550.5
1947.845	533.5
1952.058	520.5
1956.267	504.5
1960.472	504.5
1964.673	497.5
1968.87	487.5
1973.063	460.5
1977.252	461.5
1981.438	450.5
1985.619	432.5
1989.797	423.5
1993.971	436.5
1998.14	434.5
2002.306	410.5
2006.469	419.5
2010.627	403.5
2014.781	411.5
2018.932	398.5
2023.078	419.5
2027.221	402.5
2031.36	396.5
2035.495	394.5
2039.627	400.5
2043.754	395.5
2047.878	391.5
2051.998	398.5
2056.114	398.5
2060.226	412.5
2064.334	416.5
2068.439	434.5
2072.54	438.5
2076.637	420.5
2080.73	449.5
2084.82	446.5
2088.906	455.5
2092.988	458.5
2097.066	460.5
2101.14	462.5
2105.211	447.5
2109.278	432.5
2113.342	422.5
2117.401	409.5
2121.457	404.5
2125.509	396.5
2129.558	410.5
2133.602	391.5
2137.643	391.5
2141.681	383.5
2145.714	393.5
2149.744	381.5
2153.77	377.5
2157.793	358.5
2161.812	345.5
2165.827	340.5
2169.838	362.5
2173.846	343.5
2177.851	332.5
2181.851	350.5
2185.848	334.5
2189.841	334.5
2193.831	331.5
2197.817	325.5
2201.799	323.5
2205.778	317.5
2209.753	315.5
2213.725	316.5
2217.693	316.5
2221.657	313.5
2225.618	331.5
2229.575	315.5
2233.529	329.5
2237.479	327.5
2241.425	314.5
2245.368	304.5
2249.307	315.5
2253.243	307.5
2257.175	324.5
2261.104	306.5
2265.029	308.5
2268.95	306.5
2272.868	297.5
2276.783	285.5
2280.694	304.5
2284.601	289.5
2288.505	290.5
2292.405	290.5
2296.302	268.5
2300.195	278.5
2304.085	244.5
2307.971	266.5
2311.854	243.5
2315.734	242.5
2319.609	241.5
2323.482	222.5
2327.351	225.5
2331.216	244.5
2335.078	243.5
2338.937	225.5
2342.792	228.5
2346.643	215.5
2350.492	228.5
2354.336	214.5
2358.178	217.5
2362.015	222.5
2365.85	209.5
2369.681	209.5
2373.508	214.5
2377.333	215.5
2381.153	207.5
2384.971	200.5
2388.785	215.5
2392.595	197.5
2396.402	205.5
2400.206	179.5
2404.007	193.5
2407.804	197.5
2411.597	198.5
2415.388	200.5
2419.174	194.5
2422.958	193.5
2426.738	196.5
2430.515	208.5
2434.289	190.5
2438.059	193.5
2441.825	200.5
2445.589	208.5
2449.349	179.5
2453.106	196.5
2456.859	201.5
2460.61	204.5
2464.356	187.5
2468.1	190.5
2471.84	193.5
2475.577	187.5
2479.311	189.5
2483.041	193.5
2486.768	208.5
2490.492	206.5
2494.213	201.5
2497.93	186.5
2501.644	186.5
2505.355	201.5
2509.062	202.5
2512.766	200.5
2516.467	204.5
2520.165	206.5
2523.859	198.5
2527.551	233.5
2531.239	213.5
2534.923	226.5
2538.605	232.5
2542.283	229.5
2545.958	248.5
2549.63	266.5
2553.299	267.5
2556.964	246.5
2560.626	245.5
2564.285	248.5
2567.941	230.5
2571.594	226.5
2575.243	241.5
2578.89	225.5
2582.533	233.5
2586.173	221.5
2589.809	228.5
2593.443	205.5
2597.073	235.5
2600.701	232.5
2604.325	226.5
2607.946	213.5
2611.564	232.5
2615.178	221.5
2618.79	220.5
2622.398	204.5
2626.004	224.5
2629.606	211.5
2633.205	203.5
2636.801	215.5
2640.394	203.5
2643.983	207.5
2647.57	210.5
2651.153	204.5
2654.734	217.5
2658.311	191.5
2661.885	212.5
2665.456	216.5
2669.025	217.5
2672.589	223.5
2676.151	240.5
2679.71	244.5
2683.266	251.5
2686.819	249.5
2690.368	269.5
2693.915	283.5
2697.458	298.5
2700.999	330.5
2704.536	355.5
2708.071	378.5
2711.602	420.5
2715.13	446.5
2718.656	452.5
2722.178	485.5
2725.697	490.5
2729.214	508.5
2732.727	519.5
2736.237	499.5
2739.744	505.5
2743.249	497.5
2746.75	500.5
2750.248	514.5
2753.743	525.5
2757.236	521.5
2760.725	520.5
2764.211	477.5
2767.695	500.5
2771.175	477.5
2774.652	455.5
2778.127	429.5
2781.598	442.5
2785.067	448.5
2788.532	444.5
2791.995	466.5
2795.455	456.5
2798.911	489.5
2802.365	490.5
2805.816	541.5
2809.264	574.5
2812.709	607.5
2816.151	658.5
2819.59	681.5
2823.026	749.5
2826.46	822.5
2829.89	916.5
2833.318	955.5
2836.742	1053.5
2840.164	1161.5
2843.583	1224.5
2846.999	1280.5
2850.412	1340.5
2853.822	1401.5
2857.229	1476.5
2860.634	1575.5
2864.035	1669.5
2867.434	1905.5
2870.83	2104.5
2874.223	2362.5
2877.613	2668.5
2881	2903.5
2884.385	3041.5
2887.766	3027.5
2891.145	3002.5
2894.521	2925.5
2897.894	2820.5
2901.264	2758.5
2904.631	2669.5
2907.996	2580.5
2911.358	2549.5
2914.717	2543.5
2918.073	2603.5
2921.426	2743.5
2924.777	2955.5
2928.124	3289.5
2931.469	3654.5
2934.811	3841.5
2938.15	3840.5
2941.487	3522.5
2944.821	3223.5
2948.152	2846.5
2951.48	2557.5
2954.805	2304.5
2958.128	2132.5
2961.447	1989.5
2964.765	1946.5
2968.079	1902.5
2971.39	1943.5
2974.699	2001.5
2978.005	2024.5
2981.308	2016.5
2984.609	1926.5
2987.907	1790.5
2991.202	1619.5
2994.494	1421.5
2997.784	1254.5
3001.07	1113.5
3004.355	985.5
3007.636	879.5
3010.915	797.5
3014.191	716.5
3017.464	653.5
3020.734	596.5
3024.002	547.5
3027.267	498.5
3030.53	466.5
3033.789	429.5
3037.046	397.5
3040.301	374.5
3043.552	362.5
3046.801	347.5
3050.048	342.5
3053.291	331.5
3056.532	310.5
3059.771	294.5
3063.006	292.5
3066.239	279.5
3069.469	284.5
3072.697	264.5
3075.922	245.5
3079.144	252.5
3082.364	263.5
3085.581	240.5
3088.795	254.5
3092.007	242.5
3095.216	253.5
3098.423	239.5
3101.627	214.5
3104.828	234.5
3108.026	219.5
3111.222	234.5
3114.416	237.5
3117.607	233.5
3120.795	225.5
3123.98	215.5
3127.163	215.5
3130.344	217.5
3133.521	216.5
3136.696	228.5
3139.869	232.5
3143.039	211.5
3146.206	242.5
3149.371	231.5
3152.533	230.5
3155.693	209.5
3158.85	235.5
3162.005	224.5
3165.157	221.5
3168.306	216.5
3171.453	237.5
3174.597	211.5
3177.739	213.5
3180.878	216.5
3184.014	221.5
3187.149	217.5
3190.28	222.5
3193.409	224.5
3196.536	221.5
3199.659	231.5
3202.781	232.5
3205.9	219.5
3209.016	221.5
3212.13	220.5
3215.241	219.5
3218.35	214.5
3221.456	213.5
3224.56	205.5
3227.661	215.5
3230.76	213.5
3233.856	210.5
3236.95	219.5
3240.041	204.5
3243.13	221.5
3246.216	218.5
3249.3	224.5
3252.382	217.5
3255.46	219.5
3258.537	168.5
3261.611	202.5
3264.682	205.5
3267.751	215.5
3270.818	197.5
3273.882	212.5
3276.943	208.5
3280.002	220.5
3283.059	188.5
3286.113	197.5
3289.165	184.5
3292.214	173.5
3295.261	190.5
3298.306	161.5
3301.348	177.5
3304.387	156.5
3307.425	181.5
3310.459	163.5
3313.492	175.5
3316.521	161.5
3319.549	167.5
3322.574	166.5
3325.597	153.5
3328.617	151.5
3331.635	149.5
3334.65	136.5
3337.663	153.5
3340.674	138.5
3343.682	147.5
3346.688	148.5
3349.691	140.5
3352.692	138.5
3355.691	145.5
3358.687	141.5
3361.681	146.5
3364.673	140.5
3367.662	148.5
3370.649	149.5
3373.633	122.5
3376.615	133.5
3379.595	123.5
3382.572	128.5
3385.547	120.5
3388.52	118.5
3391.49	120.5
3394.458	129.5
3397.424	125.5
3400.387	113.5
3403.348	121.5
3406.307	121.5
3409.263	120.5
3412.217	128.5
3415.168	123.5
3418.118	126.5
3421.065	108.5
3424.009	129.5
3426.951	112.5
3429.891	112.5
3432.829	112.5
3435.764	109.5
3438.697	95.5
3441.628	108.5
3444.557	94.5
3447.483	85.5
3450.407	98.5
3453.328	94.5
3456.247	89.5
3459.164	82.5
3462.079	98.5
3464.991	87.5
3467.902	85.5
3470.809	83.5
3473.715	87.5
3476.618	74.5
3479.519	81.5
3482.418	52.5
3485.315	62.5
3488.209	63.5
3491.101	67.5
3493.99	52.5
3496.878	53.5
3499.763	57.5
3502.646	51.5
3505.527	47.5
3508.405	43.5
3511.281	31.5
3514.155	43.5
3517.027	43.5
3519.897	29.5
3522.764	40.5
3525.629	21.5
3528.492	33.5
3531.352	28.5
3534.211	31.5
3537.067	27.5
3539.921	22.5
3542.773	27.5
3545.622	17.5
3548.469	6.5
3551.315	1.5
3554.157	14.5
3556.998	3.5
3559.837	13.5
3562.673	12.5
3565.507	0.5
3568.339	-5.5
3571.169	1.5
3573.996	1.5
3576.822	-12.5
3579.645	-5.5
3582.466	-6.5
3585.285	-4.5
3588.101	-4.5
3590.916	-12.5
3593.728	-1.5
3596.538	-11.5
3599.346	-9.5
3602.152	-14.5
3604.956	-7.5
3607.757	-5.5
3610.556	-24.5
3613.354	-7.5
3616.149	-12.5
3618.942	-13.5
3621.732	-9.5
3624.521	-19.5
3627.307	-26.5
3630.092	-25.5
3632.874	-6.5
3635.654	-17.5
3638.432	-18.5
3641.208	-22.5
3643.982	-19.5
3646.753	-12.5
3649.523	-45.5
3652.29	-23.5
3655.055	-13.5
3657.818	-16.5
3660.579	-29.5
3663.338	-30.5
3666.095	-25.5
3668.849	-46.5
3671.602	-13.5
3674.352	-33.5
3677.101	-14.5
3679.847	-14.5
3682.591	-24.5
3685.333	-30.5
3688.073	-22.5
3690.811	-30.5
3693.547	-35.5
3696.281	-34.5
3699.013	-22.5
3701.742	-26.5
3704.47	-37.5
3707.195	-25.5
3709.919	-25.5
3712.64	-23.5
3715.359	-35.5
3718.076	-19.5
3720.792	-30.5
3723.505	-22.5
3726.216	-14.5
3728.925	-32.5
3731.632	-35.5
3734.336	-29.5
3737.039	-26.5
3739.74	-20.5
3742.439	-48.5
3745.136	-21.5
3747.83	-26.5
3750.523	-19.5
3753.213	-94.5
3755.902	-30.5
3758.589	-44.5
3761.273	-31.5
3763.956	-25.5
3766.636	-45.5
3769.315	-21.5
3771.991	-27.5
3774.665	-32.5
3777.338	-27.5
3780.008	-42.5
3782.677	-32.5
3785.343	-47.5
3788.007	-49.5
3790.67	-25.5
3793.33	-45.5
3795.989	-33.5
3798.645	-28.5
3801.299	-42.5
3803.952	-44.5
3806.602	-32.5
3809.251	-33.5
3811.897	-29.5
3814.542	-34.5
3817.184	-38.5
3819.825	-30.5
3822.463	-46.5
3825.1	-38.5
3827.735	-30.5
3830.367	-43.5
3832.998	-19.5
3835.627	-37.5
3838.253	-28.5
3840.878	-34.5
3843.501	-13.5
3846.122	-27.5
3848.741	-25.5
3851.358	-19.5
3853.973	-37.5
3856.586	-22.5
3859.197	-39.5
3861.806	-22.5
3864.414	-39.5
3867.019	-33.5
3869.622	-17.5
3872.224	-14.5
3874.823	2.5
3877.421	26.5
3880.016	47.5
3882.61	84.5
3885.202	87.5
3887.792	57.5
3890.38	25.5
3892.966	-14.5
3895.55	-30.5
3898.132	-18.5
3900.713	-23.5
3903.291	-29.5
3905.868	-37.5
3908.442	-28.5
3911.015	-30.5
3913.586	-33.5
3916.155	-32.5
3918.722	-35.5
3921.287	-38.5
3923.85	-40.5
3926.411	-34.5
3928.971	-42.5
3931.528	-29.5
3934.084	-32.5
3936.638	-43.5
3939.19	-31.5
3941.74	-31.5
3944.288	-34.5
3946.834	-36.5
3949.378	-23.5
3951.921	-38.5
3954.462	-34.5
3957	-31.5
3959.537	-23.5
3962.072	-32.5
3964.606	-48.5
3967.137	-35.5
3969.667	-38.5
3972.194	-27.5
3974.72	-35.5
3977.244	-56.5
3979.766	-36.5
3982.286	-38.5
3984.805	-27.5
3987.321	-24.5
3989.836	-26.5
3992.349	-42.5
3994.86	-33.5
3997.369	-38.5
3999.877	-34.5
4002.382	-34.5
4004.886	-29.5
4007.388	-31.5
4009.888	-19.5
4012.386	-23.5
4014.883	-30.5
4017.377	-32.5
4019.87	-28.5
4022.361	-38.5
4024.85	-29.5
4027.338	-31.5
4029.823	-36.5
4032.307	-30.5
4034.789	-24.5
4037.269	-27.5
4039.747	-41.5
4042.224	-15.5
4044.699	-33.5
4047.172	-30.5
4049.643	-21.5
4052.112	-42.5
4054.58	-27.5
4057.046	-37.5
4059.51	-29.5
4061.972	-28.5
4064.432	-45.5
4066.891	-16.5
4069.348	-31.5
4071.803	-27.5
4074.256	-34.5
4076.708	-23.5
4079.158	-26.5
4081.606	-17.5
4084.052	-29.5
4086.497	-26.5
4088.939	-32.5
4091.38	-31.5
4093.819	-23.5
4096.257	-1.5
4098.693	-4.5
4101.127	-4.5
4103.559	-0.5
4105.989	81.5
4108.418	85.5
4110.845	68.5
4113.27	75.5
4115.694	80.5
4118.115	74.5
4120.535	-30.5
4122.954	-25.5
4125.37	-22.5
4127.785	-26.5
4130.198	-21.5
4132.609	-29.5
4135.019	7.5
4137.427	3.5
4139.833	4.5
4142.237	-4.5
