Data from Ethanol_1000CFU_RamanShift_10-56-53-999.txt Node
Date: Sun Dec 18 10:56:53 IST 2016
User: aro
Spectrometer: QEPB0276
Trigger mode: 0
Integration Time (sec): 5.000000E0
Scans to average: 1
Electric dark correction enabled: true
Nonlinearity correction enabled: false
Boxcar width: 0
XAxis mode: Raman Shifts
Number of Pixels in Spectrum: 1044
>>>>>Begin Spectral Data<<<<<
160.701	11.12
166.742	17.12
172.777	32.12
178.805	77.12
184.826	226.12
190.841	528.12
196.849	993.12
202.85	1406.12
208.845	1627.12
214.833	1644.12
220.815	1602.12
226.789	1590.12
232.758	1565.12
238.719	1536.12
244.674	1550.12
250.623	1532.12
256.565	1524.12
262.5	1513.12
268.429	1511.12
274.351	1517.12
280.267	1485.12
286.176	1460.12
292.079	1442.12
297.975	1383.12
303.865	1343.12
309.748	1286.12
315.625	1241.12
321.495	1199.12
327.359	1183.12
333.217	1142.12
339.068	1131.12
344.912	1127.12
350.751	1114.12
356.583	1101.12
362.408	1126.12
368.227	1120.12
374.04	1141.12
379.847	1160.12
385.647	1170.12
391.44	1215.12
397.228	1273.12
403.009	1359.12
408.784	1476.12
414.553	1638.12
420.315	1930.12
426.071	2360.12
431.821	2960.12
437.565	3556.12
443.302	3817.12
449.033	3604.12
454.758	3124.12
460.477	2594.12
466.189	2171.12
471.896	1836.12
477.596	1612.12
483.29	1448.12
488.978	1342.12
494.66	1266.12
500.335	1213.12
506.005	1166.12
511.668	1094.12
517.325	1053.12
522.977	1007.12
528.622	1002.12
534.261	976.12
539.894	957.12
545.521	950.12
551.141	948.12
556.756	944.12
562.365	948.12
567.968	944.12
573.565	929.12
579.155	935.12
584.74	938.12
590.319	935.12
595.892	940.12
601.459	949.12
607.02	946.12
612.575	944.12
618.124	950.12
623.667	944.12
629.204	943.12
634.735	948.12
640.261	935.12
645.781	928.12
651.294	937.12
656.802	937.12
662.304	929.12
667.8	925.12
673.29	942.12
678.775	933.12
684.254	925.12
689.726	928.12
695.193	940.12
700.655	943.12
706.11	942.12
711.56	943.12
717.004	943.12
722.442	929.12
727.874	936.12
733.301	945.12
738.722	949.12
744.137	951.12
749.547	950.12
754.951	974.12
760.349	966.12
765.741	1005.12
771.128	1027.12
776.509	1023.12
781.885	1059.12
787.254	1089.12
792.618	1118.12
797.977	1163.12
803.33	1193.12
808.677	1254.12
814.019	1331.12
819.355	1356.12
824.686	1372.12
830.011	1409.12
835.33	1456.12
840.644	1525.12
845.952	1653.12
851.255	1837.12
856.552	2079.12
861.844	2509.12
867.13	3246.12
872.41	4846.12
877.686	8132.12
882.955	13993.12
888.219	20662.12
893.478	22621.12
898.731	17630.12
903.979	10266.12
909.221	5558.12
914.458	3505.12
919.69	2616.12
924.916	2147.12
930.136	1873.12
935.351	1697.12
940.561	1567.12
945.766	1474.12
950.965	1416.12
956.158	1355.12
961.347	1315.12
966.529	1302.12
971.707	1283.12
976.879	1268.12
982.046	1278.12
987.208	1308.12
992.364	1369.12
997.515	1432.12
1002.66	1506.12
1007.801	1658.12
1012.936	1815.12
1018.066	2072.12
1023.19	2424.12
1028.309	2917.12
1033.423	3576.12
1038.532	4426.12
1043.636	5469.12
1048.734	6673.12
1053.827	8006.12
1058.915	8803.12
1063.998	8450.12
1069.075	7179.12
1074.147	5893.12
1079.214	5426.12
1084.276	5543.12
1089.333	6261.12
1094.385	7472.12
1099.431	8661.12
1104.472	9112.12
1109.509	8278.12
1114.54	6600.12
1119.565	5198.12
1124.586	4396.12
1129.602	3886.12
1134.613	3438.12
1139.618	2944.12
1144.619	2549.12
1149.614	2232.12
1154.604	1991.12
1159.589	1864.12
1164.57	1767.12
1169.545	1652.12
1174.515	1556.12
1179.48	1479.12
1184.44	1390.12
1189.395	1337.12
1194.345	1299.12
1199.29	1284.12
1204.23	1282.12
1209.165	1283.12
1214.095	1293.12
1219.021	1319.12
1223.941	1345.12
1228.856	1403.12
1233.766	1461.12
1238.672	1543.12
1243.572	1637.12
1248.467	1748.12
1253.358	1872.12
1258.244	1986.12
1263.124	2209.12
1268	2544.12
1272.871	3095.12
1277.737	3839.12
1282.599	4417.12
1287.455	4429.12
1292.306	3861.12
1297.153	3145.12
1301.995	2612.12
1306.832	2317.12
1311.664	2153.12
1316.491	2049.12
1321.314	1965.12
1326.132	1897.12
1330.945	1868.12
1335.753	1836.12
1340.556	1805.12
1345.354	1805.12
1350.148	1786.12
1354.937	1809.12
1359.722	1822.12
1364.501	1883.12
1369.276	1915.12
1374.046	2022.12
1378.811	2112.12
1383.572	2315.12
1388.327	2464.12
1393.079	2595.12
1397.825	2675.12
1402.567	2718.12
1407.304	2824.12
1412.036	3008.12
1416.764	3195.12
1421.487	3446.12
1426.205	3727.12
1430.919	4074.12
1435.628	4532.12
1440.333	5138.12
1445.032	6085.12
1449.727	7455.12
1454.418	9131.12
1459.104	10655.12
1463.785	11003.12
1468.462	9997.12
1473.134	8168.12
1477.802	6642.12
1482.465	5847.12
1487.123	5531.12
1491.777	5293.12
1496.426	4816.12
1501.071	4179.12
1505.711	3573.12
1510.347	3138.12
1514.978	2806.12
1519.604	2564.12
1524.226	2363.12
1528.844	2179.12
1533.457	2040.12
1538.065	1903.12
1542.669	1780.12
1547.269	1669.12
1551.864	1586.12
1556.454	1515.12
1561.041	1443.12
1565.622	1385.12
1570.199	1329.12
1574.772	1283.12
1579.34	1242.12
1583.904	1209.12
1588.464	1191.12
1593.019	1135.12
1597.569	1121.12
1602.115	1095.12
1606.657	1073.12
1611.195	1059.12
1615.728	1062.12
1620.256	1058.12
1624.78	1050.12
1629.3	1034.12
1633.816	1005.12
1638.327	977.12
1642.834	953.12
1647.336	950.12
1651.834	924.12
1656.328	926.12
1660.817	932.12
1665.302	928.12
1669.783	933.12
1674.259	914.12
1678.732	910.12
1683.199	915.12
1687.663	905.12
1692.122	905.12
1696.577	887.12
1701.028	857.12
1705.474	832.12
1709.917	817.12
1714.355	806.12
1718.788	807.12
1723.218	813.12
1727.643	817.12
1732.064	804.12
1736.481	785.12
1740.893	767.12
1745.301	765.12
1749.705	743.12
1754.105	727.12
1758.501	721.12
1762.893	703.12
1767.28	700.12
1771.663	695.12
1776.042	688.12
1780.417	675.12
1784.787	680.12
1789.154	678.12
1793.516	682.12
1797.874	680.12
1802.228	672.12
1806.578	661.12
1810.924	652.12
1815.266	627.12
1819.603	635.12
1823.937	635.12
1828.266	623.12
1832.591	623.12
1836.913	623.12
1841.23	618.12
1845.543	621.12
1849.852	613.12
1854.156	621.12
1858.457	624.12
1862.754	617.12
1867.047	627.12
1871.335	631.12
1875.62	633.12
1879.9	655.12
1884.177	659.12
1888.449	663.12
1892.718	662.12
1896.982	651.12
1901.243	649.12
1905.499	654.12
1909.752	636.12
1914	654.12
1918.245	650.12
1922.485	646.12
1926.722	652.12
1930.954	653.12
1935.183	651.12
1939.408	645.12
1943.628	628.12
1947.845	645.12
1952.058	637.12
1956.267	631.12
1960.472	619.12
1964.673	607.12
1968.87	613.12
1973.063	607.12
1977.252	593.12
1981.438	597.12
1985.619	600.12
1989.797	591.12
1993.971	581.12
1998.14	578.12
2002.306	574.12
2006.469	592.12
2010.627	586.12
2014.781	583.12
2018.932	584.12
2023.078	582.12
2027.221	568.12
2031.36	575.12
2035.495	568.12
2039.627	572.12
2043.754	567.12
2047.878	548.12
2051.998	552.12
2056.114	560.12
2060.226	566.12
2064.334	562.12
2068.439	566.12
2072.54	571.12
2076.637	584.12
2080.73	584.12
2084.82	600.12
2088.906	607.12
2092.988	600.12
2097.066	609.12
2101.14	612.12
2105.211	604.12
2109.278	600.12
2113.342	578.12
2117.401	579.12
2121.457	573.12
2125.509	567.12
2129.558	571.12
2133.602	571.12
2137.643	565.12
2141.681	555.12
2145.714	569.12
2149.744	559.12
2153.77	552.12
2157.793	554.12
2161.812	558.12
2165.827	559.12
2169.838	558.12
2173.846	547.12
2177.851	548.12
2181.851	543.12
2185.848	542.12
2189.841	547.12
2193.831	531.12
2197.817	535.12
2201.799	526.12
2205.778	529.12
2209.753	539.12
2213.725	545.12
2217.693	539.12
2221.657	536.12
2225.618	547.12
2229.575	551.12
2233.529	566.12
2237.479	560.12
2241.425	569.12
2245.368	557.12
2249.307	574.12
2253.243	577.12
2257.175	577.12
2261.104	571.12
2265.029	567.12
2268.95	566.12
2272.868	568.12
2276.783	571.12
2280.694	557.12
2284.601	580.12
2288.505	561.12
2292.405	566.12
2296.302	555.12
2300.195	548.12
2304.085	538.12
2307.971	523.12
2311.854	516.12
2315.734	501.12
2319.609	489.12
2323.482	481.12
2327.351	486.12
2331.216	487.12
2335.078	493.12
2338.937	477.12
2342.792	485.12
2346.643	487.12
2350.492	475.12
2354.336	476.12
2358.178	478.12
2362.015	478.12
2365.85	475.12
2369.681	469.12
2373.508	478.12
2377.333	471.12
2381.153	475.12
2384.971	470.12
2388.785	467.12
2392.595	479.12
2396.402	473.12
2400.206	462.12
2404.007	486.12
2407.804	488.12
2411.597	485.12
2415.388	494.12
2419.174	490.12
2422.958	485.12
2426.738	471.12
2430.515	486.12
2434.289	492.12
2438.059	489.12
2441.825	488.12
2445.589	497.12
2449.349	495.12
2453.106	498.12
2456.859	499.12
2460.61	503.12
2464.356	510.12
2468.1	510.12
2471.84	503.12
2475.577	501.12
2479.311	514.12
2483.041	501.12
2486.768	503.12
2490.492	515.12
2494.213	508.12
2497.93	523.12
2501.644	511.12
2505.355	530.12
2509.062	514.12
2512.766	536.12
2516.467	543.12
2520.165	540.12
2523.859	541.12
2527.551	547.12
2531.239	561.12
2534.923	577.12
2538.605	600.12
2542.283	603.12
2545.958	624.12
2549.63	616.12
2553.299	646.12
2556.964	644.12
2560.626	630.12
2564.285	619.12
2567.941	618.12
2571.594	621.12
2575.243	601.12
2578.89	601.12
2582.533	612.12
2586.173	590.12
2589.809	586.12
2593.443	601.12
2597.073	599.12
2600.701	593.12
2604.325	595.12
2607.946	596.12
2611.564	603.12
2615.178	605.12
2618.79	593.12
2622.398	592.12
2626.004	595.12
2629.606	590.12
2633.205	591.12
2636.801	591.12
2640.394	592.12
2643.983	601.12
2647.57	605.12
2651.153	611.12
2654.734	607.12
2658.311	625.12
2661.885	626.12
2665.456	650.12
2669.025	651.12
2672.589	671.12
2676.151	676.12
2679.71	703.12
2683.266	732.12
2686.819	759.12
2690.368	805.12
2693.915	842.12
2697.458	901.12
2700.999	981.12
2704.536	1077.12
2708.071	1169.12
2711.602	1272.12
2715.13	1356.12
2718.656	1424.12
2722.178	1471.12
2725.697	1487.12
2729.214	1471.12
2732.727	1452.12
2736.237	1406.12
2739.744	1372.12
2743.249	1351.12
2746.75	1349.12
2750.248	1365.12
2753.743	1398.12
2757.236	1390.12
2760.725	1366.12
2764.211	1337.12
2767.695	1293.12
2771.175	1227.12
2774.652	1221.12
2778.127	1190.12
2781.598	1174.12
2785.067	1201.12
2788.532	1226.12
2791.995	1236.12
2795.455	1300.12
2798.911	1339.12
2802.365	1414.12
2805.816	1504.12
2809.264	1594.12
2812.709	1699.12
2816.151	1816.12
2819.59	1949.12
2823.026	2122.12
2826.46	2324.12
2829.89	2534.12
2833.318	2780.12
2836.742	3022.12
2840.164	3250.12
2843.583	3416.12
2846.999	3542.12
2850.412	3708.12
2853.822	3904.12
2857.229	4178.12
2860.634	4495.12
2864.035	4944.12
2867.434	5435.12
2870.83	6068.12
2874.223	6872.12
2877.613	7689.12
2881	8332.12
2884.385	8723.12
2887.766	8803.12
2891.145	8671.12
2894.521	8375.12
2897.894	8065.12
2901.264	7784.12
2904.631	7518.12
2907.996	7280.12
2911.358	7187.12
2914.717	7184.12
2918.073	7410.12
2921.426	7821.12
2924.777	8551.12
2928.124	9440.12
2931.469	10395.12
2934.811	10943.12
2938.15	10745.12
2941.487	9941.12
2944.821	8876.12
2948.152	7779.12
2951.48	6912.12
2954.805	6145.12
2958.128	5591.12
2961.447	5182.12
2964.765	4987.12
2968.079	4921.12
2971.39	5026.12
2974.699	5126.12
2978.005	5214.12
2981.308	5068.12
2984.609	4778.12
2987.907	4325.12
2991.202	3814.12
2994.494	3336.12
2997.784	2916.12
3001.07	2583.12
3004.355	2302.12
3007.636	2063.12
3010.915	1857.12
3014.191	1682.12
3017.464	1524.12
3020.734	1395.12
3024.002	1277.12
3027.267	1200.12
3030.53	1095.12
3033.789	1029.12
3037.046	949.12
3040.301	894.12
3043.552	855.12
3046.801	803.12
3050.048	757.12
3053.291	722.12
3056.532	703.12
3059.771	668.12
3063.006	653.12
3066.239	624.12
3069.469	592.12
3072.697	569.12
3075.922	551.12
3079.144	526.12
3082.364	510.12
3085.581	489.12
3088.795	469.12
3092.007	461.12
3095.216	429.12
3098.423	435.12
3101.627	423.12
3104.828	401.12
3108.026	395.12
3111.222	383.12
3114.416	377.12
3117.607	363.12
3120.795	359.12
3123.98	356.12
3127.163	344.12
3130.344	338.12
3133.521	333.12
3136.696	331.12
3139.869	333.12
3143.039	329.12
3146.206	320.12
3149.371	321.12
3152.533	323.12
3155.693	320.12
3158.85	316.12
3162.005	306.12
3165.157	308.12
3168.306	308.12
3171.453	292.12
3174.597	288.12
3177.739	300.12
3180.878	293.12
3184.014	298.12
3187.149	293.12
3190.28	297.12
3193.409	300.12
3196.536	295.12
3199.659	300.12
3202.781	300.12
3205.9	299.12
3209.016	299.12
3212.13	299.12
3215.241	298.12
3218.35	302.12
3221.456	302.12
3224.56	288.12
3227.661	291.12
3230.76	287.12
3233.856	294.12
3236.95	292.12
3240.041	276.12
3243.13	291.12
3246.216	284.12
3249.3	283.12
3252.382	288.12
3255.46	289.12
3258.537	275.12
3261.611	283.12
3264.682	281.12
3267.751	283.12
3270.818	272.12
3273.882	265.12
3276.943	269.12
3280.002	271.12
3283.059	264.12
3286.113	265.12
3289.165	259.12
3292.214	258.12
3295.261	249.12
3298.306	251.12
3301.348	245.12
3304.387	251.12
3307.425	236.12
3310.459	238.12
3313.492	236.12
3316.521	224.12
3319.549	227.12
3322.574	221.12
3325.597	223.12
3328.617	215.12
3331.635	210.12
3334.65	216.12
3337.663	209.12
3340.674	215.12
3343.682	217.12
3346.688	205.12
3349.691	220.12
3352.692	212.12
3355.691	204.12
3358.687	207.12
3361.681	202.12
3364.673	196.12
3367.662	193.12
3370.649	185.12
3373.633	187.12
3376.615	181.12
3379.595	181.12
3382.572	175.12
3385.547	175.12
3388.52	175.12
3391.49	174.12
3394.458	165.12
3397.424	159.12
3400.387	159.12
3403.348	154.12
3406.307	150.12
3409.263	147.12
3412.217	149.12
3415.168	142.12
3418.118	136.12
3421.065	138.12
3424.009	134.12
3426.951	129.12
3429.891	130.12
3432.829	124.12
3435.764	121.12
3438.697	114.12
3441.628	113.12
3444.557	112.12
3447.483	108.12
3450.407	106.12
3453.328	103.12
3456.247	99.12
3459.164	97.12
3462.079	89.12
3464.991	88.12
3467.902	83.12
3470.809	78.12
3473.715	76.12
3476.618	75.12
3479.519	67.12
3482.418	72.12
3485.315	64.12
3488.209	59.12
3491.101	53.12
3493.99	58.12
3496.878	59.12
3499.763	50.12
3502.646	56.12
3505.527	50.12
3508.405	48.12
3511.281	45.12
3514.155	48.12
3517.027	34.12
3519.897	41.12
3522.764	36.12
3525.629	29.12
3528.492	28.12
3531.352	24.12
3534.211	23.12
3537.067	18.12
3539.921	22.12
3542.773	20.12
3545.622	18.12
3548.469	17.12
3551.315	12.12
3554.157	16.12
3556.998	15.12
3559.837	14.12
3562.673	12.12
3565.507	4.12
3568.339	4.12
3571.169	2.12
3573.996	-0.88
3576.822	3.12
3579.645	3.12
3582.466	3.12
3585.285	-0.88
3588.101	-1.88
3590.916	-2.88
3593.728	-1.88
3596.538	-3.88
3599.346	-5.88
3602.152	-1.88
3604.956	-2.88
3607.757	-9.88
3610.556	-13.88
3613.354	-9.88
3616.149	-9.88
3618.942	-8.88
3621.732	-11.88
3624.521	-12.88
3627.307	-7.88
3630.092	-10.88
3632.874	-10.88
3635.654	-7.88
3638.432	-11.88
3641.208	-12.88
3643.982	-12.88
3646.753	-13.88
3649.523	-20.88
3652.29	-17.88
3655.055	-18.88
3657.818	-17.88
3660.579	-21.88
3663.338	-21.88
3666.095	-17.88
3668.849	-15.88
3671.602	-14.88
3674.352	-13.88
3677.101	-13.88
3679.847	-16.88
3682.591	-16.88
3685.333	-20.88
3688.073	-18.88
3690.811	-17.88
3693.547	-21.88
3696.281	-21.88
3699.013	-21.88
3701.742	-23.88
3704.47	-20.88
3707.195	-19.88
3709.919	-20.88
3712.64	-19.88
3715.359	-17.88
3718.076	-16.88
3720.792	-19.88
3723.505	-17.88
3726.216	-21.88
3728.925	-24.88
3731.632	-25.88
3734.336	-26.88
3737.039	-23.88
3739.74	-21.88
3742.439	-27.88
3745.136	-27.88
3747.83	-20.88
3750.523	-21.88
3753.213	-21.88
3755.902	-20.88
3758.589	-18.88
3761.273	-19.88
3763.956	-18.88
3766.636	-21.88
3769.315	-22.88
3771.991	-21.88
3774.665	-27.88
3777.338	-26.88
3780.008	-25.88
3782.677	-26.88
3785.343	-24.88
3788.007	-24.88
3790.67	-23.88
3793.33	-26.88
3795.989	-24.88
3798.645	-21.88
3801.299	-21.88
3803.952	-28.88
3806.602	-24.88
3809.251	-21.88
3811.897	-26.88
3814.542	-30.88
3817.184	-26.88
3819.825	-23.88
3822.463	-20.88
3825.1	-29.88
3827.735	-26.88
3830.367	-24.88
3832.998	-29.88
3835.627	-24.88
3838.253	-29.88
3840.878	-23.88
3843.501	-25.88
3846.122	-24.88
3848.741	-27.88
3851.358	-25.88
3853.973	-26.88
3856.586	-29.88
3859.197	-27.88
3861.806	-26.88
3864.414	-30.88
3867.019	-27.88
3869.622	-29.88
3872.224	-25.88
3874.823	-27.88
3877.421	-24.88
3880.016	-21.88
3882.61	-24.88
3885.202	-20.88
3887.792	-20.88
3890.38	-22.88
3892.966	-25.88
3895.55	-26.88
3898.132	-23.88
3900.713	-28.88
3903.291	-26.88
3905.868	-29.88
3908.442	-26.88
3911.015	-32.88
3913.586	-28.88
3916.155	-31.88
3918.722	-26.88
3921.287	-29.88
3923.85	-28.88
3926.411	-28.88
3928.971	-31.88
3931.528	-29.88
3934.084	-26.88
3936.638	-30.88
3939.19	-29.88
3941.74	-30.88
3944.288	-32.88
3946.834	-32.88
3949.378	-31.88
3951.921	-28.88
3954.462	-31.88
3957	-31.88
3959.537	-30.88
3962.072	-28.88
3964.606	-24.88
3967.137	-25.88
3969.667	-28.88
3972.194	-28.88
3974.72	-30.88
3977.244	-30.88
3979.766	-29.88
3982.286	-33.88
3984.805	-32.88
3987.321	-31.88
3989.836	-29.88
3992.349	-34.88
3994.86	-32.88
3997.369	-31.88
3999.877	-22.88
4002.382	-29.88
4004.886	-27.88
4007.388	-25.88
4009.888	-26.88
4012.386	-25.88
4014.883	-30.88
4017.377	-33.88
4019.87	-30.88
4022.361	-33.88
4024.85	-34.88
4027.338	-31.88
4029.823	-32.88
4032.307	-31.88
4034.789	-32.88
4037.269	-25.88
4039.747	-27.88
4042.224	-26.88
4044.699	-32.88
4047.172	-25.88
4049.643	-26.88
4052.112	-26.88
4054.58	-32.88
4057.046	-29.88
4059.51	-31.88
4061.972	-34.88
4064.432	-29.88
4066.891	-33.88
4069.348	-33.88
4071.803	-29.88
4074.256	-30.88
4076.708	-29.88
4079.158	-27.88
4081.606	-26.88
4084.052	-26.88
4086.497	-26.88
4088.939	-26.88
4091.38	-29.88
4093.819	-29.88
4096.257	-34.88
4098.693	-33.88
4101.127	-34.88
4103.559	-31.88
4105.989	5.12
4108.418	9.12
4110.845	8.12
4113.27	5.12
4115.694	9.12
4118.115	7.12
4120.535	-33.88
4122.954	-32.88
4125.37	-27.88
4127.785	-29.88
4130.198	-30.88
4132.609	-30.88
4135.019	-34.88
4137.427	-34.88
4139.833	-33.88
4142.237	-33.88
