Data from Water_10000000CFU_RamanShift_11-21-38-862.txt Node
Date: Sun Dec 18 11:21:38 IST 2016
User: aro
Spectrometer: QEPB0276
Trigger mode: 0
Integration Time (sec): 5.000000E0
Scans to average: 1
Electric dark correction enabled: true
Nonlinearity correction enabled: false
Boxcar width: 0
XAxis mode: Raman Shifts
Number of Pixels in Spectrum: 1044
>>>>>Begin Spectral Data<<<<<
160.701	6.12
166.742	20.12
172.777	57.12
178.805	189.12
184.826	574.12
190.841	1365.12
196.849	2532.12
202.85	3625.12
208.845	4162.12
214.833	4173.12
220.815	4020.12
226.789	3921.12
232.758	3839.12
238.719	3729.12
244.674	3601.12
250.623	3473.12
256.565	3343.12
262.5	3226.12
268.429	3087.12
274.351	2955.12
280.267	2846.12
286.176	2743.12
292.079	2674.12
297.975	2596.12
303.865	2514.12
309.748	2466.12
315.625	2397.12
321.495	2343.12
327.359	2307.12
333.217	2266.12
339.068	2265.12
344.912	2240.12
350.751	2250.12
356.583	2236.12
362.408	2213.12
368.227	2225.12
374.04	2224.12
379.847	2224.12
385.647	2212.12
391.44	2256.12
397.228	2257.12
403.009	2242.12
408.784	2274.12
414.553	2298.12
420.315	2300.12
426.071	2313.12
431.821	2310.12
437.565	2290.12
443.302	2300.12
449.033	2293.12
454.758	2288.12
460.477	2264.12
466.189	2301.12
471.896	2275.12
477.596	2239.12
483.29	2216.12
488.978	2248.12
494.66	2234.12
500.335	2207.12
506.005	2182.12
511.668	2152.12
517.325	2121.12
522.977	2080.12
528.622	2040.12
534.261	2025.12
539.894	1996.12
545.521	2015.12
551.141	2007.12
556.756	1992.12
562.365	1964.12
567.968	1970.12
573.565	1944.12
579.155	1933.12
584.74	1920.12
590.319	1910.12
595.892	1899.12
601.459	1896.12
607.02	1873.12
612.575	1868.12
618.124	1860.12
623.667	1837.12
629.204	1843.12
634.735	1805.12
640.261	1805.12
645.781	1779.12
651.294	1776.12
656.802	1764.12
662.304	1767.12
667.8	1767.12
673.29	1765.12
678.775	1752.12
684.254	1762.12
689.726	1743.12
695.193	1725.12
700.655	1719.12
706.11	1716.12
711.56	1717.12
717.004	1696.12
722.442	1677.12
727.874	1679.12
733.301	1648.12
738.722	1661.12
744.137	1657.12
749.547	1649.12
754.951	1649.12
760.349	1654.12
765.741	1642.12
771.128	1641.12
776.509	1641.12
781.885	1645.12
787.254	1651.12
792.618	1663.12
797.977	1633.12
803.33	1622.12
808.677	1610.12
814.019	1591.12
819.355	1583.12
824.686	1566.12
830.011	1561.12
835.33	1541.12
840.644	1551.12
845.952	1540.12
851.255	1540.12
856.552	1547.12
861.844	1539.12
867.13	1542.12
872.41	1524.12
877.686	1516.12
882.955	1511.12
888.219	1492.12
893.478	1491.12
898.731	1450.12
903.979	1428.12
909.221	1407.12
914.458	1409.12
919.69	1392.12
924.916	1373.12
930.136	1397.12
935.351	1404.12
940.561	1384.12
945.766	1387.12
950.965	1389.12
956.158	1377.12
961.347	1374.12
966.529	1357.12
971.707	1316.12
976.879	1316.12
982.046	1310.12
987.208	1299.12
992.364	1292.12
997.515	1300.12
1002.66	1289.12
1007.801	1302.12
1012.936	1319.12
1018.066	1346.12
1023.19	1325.12
1028.309	1334.12
1033.423	1346.12
1038.532	1341.12
1043.636	1351.12
1048.734	1318.12
1053.827	1323.12
1058.915	1305.12
1063.998	1308.12
1069.075	1283.12
1074.147	1302.12
1079.214	1298.12
1084.276	1295.12
1089.333	1315.12
1094.385	1318.12
1099.431	1342.12
1104.472	1351.12
1109.509	1336.12
1114.54	1325.12
1119.565	1317.12
1124.586	1285.12
1129.602	1271.12
1134.613	1267.12
1139.618	1269.12
1144.619	1256.12
1149.614	1262.12
1154.604	1260.12
1159.589	1269.12
1164.57	1273.12
1169.545	1284.12
1174.515	1283.12
1179.48	1276.12
1184.44	1279.12
1189.395	1286.12
1194.345	1257.12
1199.29	1272.12
1204.23	1257.12
1209.165	1260.12
1214.095	1273.12
1219.021	1261.12
1223.941	1274.12
1228.856	1292.12
1233.766	1299.12
1238.672	1298.12
1243.572	1309.12
1248.467	1322.12
1253.358	1296.12
1258.244	1276.12
1263.124	1268.12
1268	1240.12
1272.871	1236.12
1277.737	1210.12
1282.599	1221.12
1287.455	1217.12
1292.306	1217.12
1297.153	1222.12
1301.995	1228.12
1306.832	1238.12
1311.664	1248.12
1316.491	1263.12
1321.314	1252.12
1326.132	1257.12
1330.945	1239.12
1335.753	1228.12
1340.556	1216.12
1345.354	1179.12
1350.148	1176.12
1354.937	1159.12
1359.722	1166.12
1364.501	1147.12
1369.276	1156.12
1374.046	1146.12
1378.811	1139.12
1383.572	1148.12
1388.327	1130.12
1393.079	1128.12
1397.825	1122.12
1402.567	1115.12
1407.304	1118.12
1412.036	1096.12
1416.764	1102.12
1421.487	1100.12
1426.205	1100.12
1430.919	1114.12
1435.628	1115.12
1440.333	1124.12
1445.032	1144.12
1449.727	1149.12
1454.418	1146.12
1459.104	1150.12
1463.785	1156.12
1468.462	1133.12
1473.134	1125.12
1477.802	1118.12
1482.465	1115.12
1487.123	1107.12
1491.777	1115.12
1496.426	1124.12
1501.071	1120.12
1505.711	1129.12
1510.347	1145.12
1514.978	1148.12
1519.604	1170.12
1524.226	1180.12
1528.844	1172.12
1533.457	1190.12
1538.065	1165.12
1542.669	1174.12
1547.269	1152.12
1551.864	1154.12
1556.454	1160.12
1561.041	1162.12
1565.622	1170.12
1570.199	1180.12
1574.772	1190.12
1579.34	1210.12
1583.904	1228.12
1588.464	1245.12
1593.019	1256.12
1597.569	1288.12
1602.115	1280.12
1606.657	1283.12
1611.195	1292.12
1615.728	1289.12
1620.256	1311.12
1624.78	1318.12
1629.3	1336.12
1633.816	1353.12
1638.327	1363.12
1642.834	1378.12
1647.336	1384.12
1651.834	1407.12
1656.328	1414.12
1660.817	1400.12
1665.302	1406.12
1669.783	1380.12
1674.259	1351.12
1678.732	1323.12
1683.199	1298.12
1687.663	1255.12
1692.122	1211.12
1696.577	1180.12
1701.028	1151.12
1705.474	1102.12
1709.917	1072.12
1714.355	1055.12
1718.788	1031.12
1723.218	1027.12
1727.643	1004.12
1732.064	991.12
1736.481	976.12
1740.893	955.12
1745.301	923.12
1749.705	915.12
1754.105	899.12
1758.501	880.12
1762.893	848.12
1767.28	846.12
1771.663	833.12
1776.042	833.12
1780.417	814.12
1784.787	830.12
1789.154	823.12
1793.516	833.12
1797.874	836.12
1802.228	840.12
1806.578	834.12
1810.924	833.12
1815.266	813.12
1819.603	805.12
1823.937	799.12
1828.266	768.12
1832.591	786.12
1836.913	765.12
1841.23	749.12
1845.543	763.12
1849.852	764.12
1854.156	767.12
1858.457	762.12
1862.754	772.12
1867.047	777.12
1871.335	779.12
1875.62	768.12
1879.9	780.12
1884.177	781.12
1888.449	773.12
1892.718	764.12
1896.982	772.12
1901.243	769.12
1905.499	772.12
1909.752	761.12
1914	759.12
1918.245	764.12
1922.485	759.12
1926.722	761.12
1930.954	780.12
1935.183	778.12
1939.408	774.12
1943.628	785.12
1947.845	792.12
1952.058	776.12
1956.267	783.12
1960.472	779.12
1964.673	767.12
1968.87	749.12
1973.063	755.12
1977.252	730.12
1981.438	735.12
1985.619	730.12
1989.797	726.12
1993.971	716.12
1998.14	730.12
2002.306	730.12
2006.469	727.12
2010.627	732.12
2014.781	733.12
2018.932	740.12
2023.078	741.12
2027.221	724.12
2031.36	733.12
2035.495	718.12
2039.627	711.12
2043.754	713.12
2047.878	703.12
2051.998	706.12
2056.114	709.12
2060.226	708.12
2064.334	703.12
2068.439	719.12
2072.54	719.12
2076.637	716.12
2080.73	713.12
2084.82	715.12
2088.906	727.12
2092.988	728.12
2097.066	718.12
2101.14	724.12
2105.211	718.12
2109.278	714.12
2113.342	708.12
2117.401	719.12
2121.457	702.12
2125.509	705.12
2129.558	699.12
2133.602	696.12
2137.643	689.12
2141.681	680.12
2145.714	691.12
2149.744	686.12
2153.77	678.12
2157.793	670.12
2161.812	663.12
2165.827	657.12
2169.838	655.12
2173.846	653.12
2177.851	640.12
2181.851	632.12
2185.848	627.12
2189.841	619.12
2193.831	615.12
2197.817	600.12
2201.799	616.12
2205.778	603.12
2209.753	591.12
2213.725	595.12
2217.693	598.12
2221.657	610.12
2225.618	599.12
2229.575	593.12
2233.529	595.12
2237.479	596.12
2241.425	571.12
2245.368	574.12
2249.307	568.12
2253.243	568.12
2257.175	565.12
2261.104	546.12
2265.029	536.12
2268.95	540.12
2272.868	538.12
2276.783	521.12
2280.694	516.12
2284.601	518.12
2288.505	518.12
2292.405	520.12
2296.302	506.12
2300.195	496.12
2304.085	495.12
2307.971	474.12
2311.854	469.12
2315.734	472.12
2319.609	452.12
2323.482	447.12
2327.351	453.12
2331.216	455.12
2335.078	446.12
2338.937	441.12
2342.792	442.12
2346.643	432.12
2350.492	441.12
2354.336	441.12
2358.178	438.12
2362.015	439.12
2365.85	442.12
2369.681	429.12
2373.508	439.12
2377.333	437.12
2381.153	438.12
2384.971	437.12
2388.785	435.12
2392.595	433.12
2396.402	424.12
2400.206	425.12
2404.007	426.12
2407.804	423.12
2411.597	422.12
2415.388	418.12
2419.174	422.12
2422.958	414.12
2426.738	418.12
2430.515	414.12
2434.289	408.12
2438.059	410.12
2441.825	411.12
2445.589	411.12
2449.349	400.12
2453.106	398.12
2456.859	400.12
2460.61	397.12
2464.356	402.12
2468.1	392.12
2471.84	388.12
2475.577	380.12
2479.311	387.12
2483.041	387.12
2486.768	381.12
2490.492	390.12
2494.213	383.12
2497.93	382.12
2501.644	384.12
2505.355	392.12
2509.062	381.12
2512.766	386.12
2516.467	378.12
2520.165	378.12
2523.859	373.12
2527.551	375.12
2531.239	372.12
2534.923	368.12
2538.605	370.12
2542.283	358.12
2545.958	363.12
2549.63	360.12
2553.299	350.12
2556.964	362.12
2560.626	368.12
2564.285	360.12
2567.941	359.12
2571.594	358.12
2575.243	341.12
2578.89	341.12
2582.533	345.12
2586.173	343.12
2589.809	331.12
2593.443	337.12
2597.073	336.12
2600.701	332.12
2604.325	339.12
2607.946	332.12
2611.564	332.12
2615.178	335.12
2618.79	317.12
2622.398	325.12
2626.004	329.12
2629.606	329.12
2633.205	318.12
2636.801	321.12
2640.394	318.12
2643.983	316.12
2647.57	308.12
2651.153	301.12
2654.734	309.12
2658.311	302.12
2661.885	303.12
2665.456	294.12
2669.025	292.12
2672.589	289.12
2676.151	283.12
2679.71	288.12
2683.266	284.12
2686.819	279.12
2690.368	278.12
2693.915	283.12
2697.458	273.12
2700.999	273.12
2704.536	273.12
2708.071	269.12
2711.602	272.12
2715.13	261.12
2718.656	264.12
2722.178	265.12
2725.697	257.12
2729.214	259.12
2732.727	258.12
2736.237	271.12
2739.744	264.12
2743.249	261.12
2746.75	266.12
2750.248	267.12
2753.743	266.12
2757.236	266.12
2760.725	270.12
2764.211	261.12
2767.695	263.12
2771.175	250.12
2774.652	264.12
2778.127	259.12
2781.598	250.12
2785.067	248.12
2788.532	257.12
2791.995	251.12
2795.455	248.12
2798.911	248.12
2802.365	253.12
2805.816	264.12
2809.264	258.12
2812.709	263.12
2816.151	256.12
2819.59	264.12
2823.026	261.12
2826.46	259.12
2829.89	261.12
2833.318	256.12
2836.742	260.12
2840.164	257.12
2843.583	257.12
2846.999	258.12
2850.412	260.12
2853.822	267.12
2857.229	270.12
2860.634	264.12
2864.035	265.12
2867.434	266.12
2870.83	272.12
2874.223	276.12
2877.613	282.12
2881	280.12
2884.385	285.12
2887.766	284.12
2891.145	276.12
2894.521	279.12
2897.894	278.12
2901.264	292.12
2904.631	286.12
2907.996	281.12
2911.358	293.12
2914.717	288.12
2918.073	291.12
2921.426	297.12
2924.777	298.12
2928.124	295.12
2931.469	303.12
2934.811	306.12
2938.15	302.12
2941.487	312.12
2944.821	317.12
2948.152	324.12
2951.48	330.12
2954.805	328.12
2958.128	338.12
2961.447	331.12
2964.765	332.12
2968.079	342.12
2971.39	341.12
2974.699	337.12
2978.005	350.12
2981.308	361.12
2984.609	378.12
2987.907	375.12
2991.202	388.12
2994.494	391.12
2997.784	398.12
3001.07	410.12
3004.355	432.12
3007.636	436.12
3010.915	448.12
3014.191	441.12
3017.464	457.12
3020.734	459.12
3024.002	459.12
3027.267	471.12
3030.53	475.12
3033.789	476.12
3037.046	491.12
3040.301	496.12
3043.552	511.12
3046.801	518.12
3050.048	525.12
3053.291	545.12
3056.532	563.12
3059.771	573.12
3063.006	588.12
3066.239	608.12
3069.469	631.12
3072.697	633.12
3075.922	647.12
3079.144	677.12
3082.364	673.12
3085.581	696.12
3088.795	702.12
3092.007	731.12
3095.216	739.12
3098.423	748.12
3101.627	760.12
3104.828	787.12
3108.026	810.12
3111.222	826.12
3114.416	833.12
3117.607	856.12
3120.795	878.12
3123.98	889.12
3127.163	922.12
3130.344	930.12
3133.521	956.12
3136.696	972.12
3139.869	986.12
3143.039	1002.12
3146.206	1022.12
3149.371	1029.12
3152.533	1042.12
3155.693	1043.12
3158.85	1065.12
3162.005	1057.12
3165.157	1087.12
3168.306	1087.12
3171.453	1083.12
3174.597	1088.12
3177.739	1084.12
3180.878	1083.12
3184.014	1078.12
3187.149	1103.12
3190.28	1089.12
3193.409	1084.12
3196.536	1097.12
3199.659	1099.12
3202.781	1096.12
3205.9	1102.12
3209.016	1108.12
3212.13	1112.12
3215.241	1093.12
3218.35	1086.12
3221.456	1076.12
3224.56	1073.12
3227.661	1075.12
3230.76	1046.12
3233.856	1059.12
3236.95	1031.12
3240.041	1020.12
3243.13	1004.12
3246.216	1010.12
3249.3	1002.12
3252.382	1007.12
3255.46	992.12
3258.537	983.12
3261.611	992.12
3264.682	981.12
3267.751	973.12
3270.818	985.12
3273.882	981.12
3276.943	965.12
3280.002	962.12
3283.059	943.12
3286.113	936.12
3289.165	926.12
3292.214	915.12
3295.261	900.12
3298.306	894.12
3301.348	877.12
3304.387	866.12
3307.425	857.12
3310.459	843.12
3313.492	835.12
3316.521	820.12
3319.549	822.12
3322.574	813.12
3325.597	797.12
3328.617	780.12
3331.635	794.12
3334.65	788.12
3337.663	762.12
3340.674	767.12
3343.682	776.12
3346.688	779.12
3349.691	765.12
3352.692	754.12
3355.691	747.12
3358.687	747.12
3361.681	734.12
3364.673	736.12
3367.662	720.12
3370.649	711.12
3373.633	719.12
3376.615	702.12
3379.595	698.12
3382.572	673.12
3385.547	669.12
3388.52	665.12
3391.49	663.12
3394.458	641.12
3397.424	638.12
3400.387	623.12
3403.348	619.12
3406.307	618.12
3409.263	608.12
3412.217	606.12
3415.168	601.12
3418.118	590.12
3421.065	593.12
3424.009	577.12
3426.951	581.12
3429.891	578.12
3432.829	562.12
3435.764	545.12
3438.697	538.12
3441.628	523.12
3444.557	515.12
3447.483	504.12
3450.407	491.12
3453.328	478.12
3456.247	467.12
3459.164	454.12
3462.079	433.12
3464.991	420.12
3467.902	411.12
3470.809	393.12
3473.715	392.12
3476.618	372.12
3479.519	363.12
3482.418	361.12
3485.315	357.12
3488.209	340.12
3491.101	328.12
3493.99	321.12
3496.878	327.12
3499.763	305.12
3502.646	295.12
3505.527	291.12
3508.405	272.12
3511.281	271.12
3514.155	246.12
3517.027	238.12
3519.897	247.12
3522.764	227.12
3525.629	218.12
3528.492	201.12
3531.352	197.12
3534.211	183.12
3537.067	182.12
3539.921	175.12
3542.773	165.12
3545.622	153.12
3548.469	151.12
3551.315	139.12
3554.157	129.12
3556.998	127.12
3559.837	121.12
3562.673	117.12
3565.507	105.12
3568.339	106.12
3571.169	94.12
3573.996	90.12
3576.822	87.12
3579.645	85.12
3582.466	83.12
3585.285	67.12
3588.101	71.12
3590.916	66.12
3593.728	63.12
3596.538	66.12
3599.346	48.12
3602.152	49.12
3604.956	48.12
3607.757	38.12
3610.556	36.12
3613.354	30.12
3616.149	28.12
3618.942	27.12
3621.732	25.12
3624.521	17.12
3627.307	21.12
3630.092	16.12
3632.874	17.12
3635.654	12.12
3638.432	9.12
3641.208	2.12
3643.982	4.12
3646.753	-1.88
3649.523	-3.88
3652.29	-5.88
3655.055	-6.88
3657.818	-7.88
3660.579	-13.88
3663.338	-10.88
3666.095	-7.88
3668.849	-12.88
3671.602	-20.88
3674.352	-20.88
3677.101	-12.88
3679.847	-22.88
3682.591	-22.88
3685.333	-27.88
3688.073	-32.88
3690.811	-35.88
3693.547	-31.88
3696.281	-34.88
3699.013	-33.88
3701.742	-35.88
3704.47	-32.88
3707.195	-33.88
3709.919	-35.88
3712.64	-30.88
3715.359	-34.88
3718.076	-33.88
3720.792	-36.88
3723.505	-38.88
3726.216	-45.88
3728.925	-44.88
3731.632	-47.88
3734.336	-48.88
3737.039	-51.88
3739.74	-46.88
3742.439	-51.88
3745.136	-47.88
3747.83	-43.88
3750.523	-45.88
3753.213	-44.88
3755.902	-44.88
3758.589	-44.88
3761.273	-44.88
3763.956	-49.88
3766.636	-50.88
3769.315	-52.88
3771.991	-52.88
3774.665	-56.88
3777.338	-56.88
3780.008	-55.88
3782.677	-53.88
3785.343	-51.88
3788.007	-50.88
3790.67	-56.88
3793.33	-55.88
3795.989	-52.88
3798.645	-54.88
3801.299	-54.88
3803.952	-58.88
3806.602	-56.88
3809.251	-48.88
3811.897	-56.88
3814.542	-58.88
3817.184	-56.88
3819.825	-50.88
3822.463	-51.88
3825.1	-56.88
3827.735	-57.88
3830.367	-57.88
3832.998	-62.88
3835.627	-56.88
3838.253	-61.88
3840.878	-59.88
3843.501	-62.88
3846.122	-58.88
3848.741	-58.88
3851.358	-57.88
3853.973	-56.88
3856.586	-59.88
3859.197	-56.88
3861.806	-56.88
3864.414	-60.88
3867.019	-58.88
3869.622	-57.88
3872.224	-60.88
3874.823	-59.88
3877.421	-61.88
3880.016	-60.88
3882.61	-61.88
3885.202	-58.88
3887.792	-55.88
3890.38	-55.88
3892.966	-60.88
3895.55	-59.88
3898.132	-57.88
3900.713	-58.88
3903.291	-62.88
3905.868	-61.88
3908.442	-60.88
3911.015	-63.88
3913.586	-63.88
3916.155	-65.88
3918.722	-58.88
3921.287	-66.88
3923.85	-64.88
3926.411	-62.88
3928.971	-65.88
3931.528	-64.88
3934.084	-68.88
3936.638	-67.88
3939.19	-62.88
3941.74	-64.88
3944.288	-66.88
3946.834	-64.88
3949.378	-64.88
3951.921	-61.88
3954.462	-64.88
3957	-64.88
3959.537	-62.88
3962.072	-62.88
3964.606	-59.88
3967.137	-59.88
3969.667	-62.88
3972.194	-64.88
3974.72	-66.88
3977.244	-66.88
3979.766	-63.88
3982.286	-67.88
3984.805	-63.88
3987.321	-62.88
3989.836	-61.88
3992.349	-67.88
3994.86	-65.88
3997.369	-62.88
3999.877	-58.88
4002.382	-60.88
4004.886	-57.88
4007.388	-58.88
4009.888	-56.88
4012.386	-62.88
4014.883	-61.88
4017.377	-65.88
4019.87	-63.88
4022.361	-67.88
4024.85	-62.88
4027.338	-62.88
4029.823	-63.88
4032.307	-65.88
4034.789	-64.88
4037.269	-62.88
4039.747	-62.88
4042.224	-59.88
4044.699	-65.88
4047.172	-60.88
4049.643	-60.88
4052.112	-62.88
4054.58	-66.88
4057.046	-62.88
4059.51	-62.88
4061.972	-62.88
4064.432	-66.88
4066.891	-65.88
4069.348	-64.88
4071.803	-63.88
4074.256	-60.88
4076.708	-62.88
4079.158	-63.88
4081.606	-63.88
4084.052	-58.88
4086.497	-61.88
4088.939	-61.88
4091.38	-62.88
4093.819	-61.88
4096.257	-69.88
4098.693	-65.88
4101.127	-66.88
4103.559	-66.88
4105.989	-13.88
4108.418	-13.88
4110.845	-12.88
4113.27	-9.88
4115.694	-8.88
4118.115	-6.88
4120.535	-66.88
4122.954	-65.88
4125.37	-62.88
4127.785	-65.88
4130.198	-62.88
4132.609	-63.88
4135.019	-68.88
4137.427	-67.88
4139.833	-67.88
4142.237	-67.88
