Data from Water2_1000CFU_RamanShift_11-11-18-915_RamanShift_14-05-53-664.txt Node
Date: Sun Dec 18 14:05:53 IST 2016
User: aro
Spectrometer: QEPB0276
Trigger mode: 0
Integration Time (sec): 5.000000E0
Scans to average: 1
Electric dark correction enabled: true
Nonlinearity correction enabled: false
Boxcar width: 0
XAxis mode: Raman Shifts
Number of Pixels in Spectrum: 1044
>>>>>Begin Spectral Data<<<<<
160.701	5.88
166.742	23.88
172.777	64.88
178.805	200.88
184.826	607.88
190.841	1457.88
196.849	2698.88
202.85	3859.88
208.845	4447.88
214.833	4465.88
220.815	4278.88
226.789	4144.88
232.758	4026.88
238.719	3947.88
244.674	3794.88
250.623	3672.88
256.565	3508.88
262.5	3386.88
268.429	3226.88
274.351	3094.88
280.267	2963.88
286.176	2903.88
292.079	2808.88
297.975	2702.88
303.865	2639.88
309.748	2545.88
315.625	2500.88
321.495	2427.88
327.359	2394.88
333.217	2334.88
339.068	2321.88
344.912	2302.88
350.751	2286.88
356.583	2280.88
362.408	2257.88
368.227	2287.88
374.04	2284.88
379.847	2280.88
385.647	2305.88
391.44	2304.88
397.228	2314.88
403.009	2337.88
408.784	2316.88
414.553	2334.88
420.315	2347.88
426.071	2333.88
431.821	2361.88
437.565	2338.88
443.302	2337.88
449.033	2349.88
454.758	2348.88
460.477	2328.88
466.189	2319.88
471.896	2314.88
477.596	2301.88
483.29	2296.88
488.978	2273.88
494.66	2281.88
500.335	2257.88
506.005	2212.88
511.668	2167.88
517.325	2131.88
522.977	2111.88
528.622	2075.88
534.261	2082.88
539.894	2036.88
545.521	2045.88
551.141	2037.88
556.756	2028.88
562.365	1998.88
567.968	1986.88
573.565	1985.88
579.155	1984.88
584.74	1960.88
590.319	1955.88
595.892	1942.88
601.459	1933.88
607.02	1912.88
612.575	1898.88
618.124	1891.88
623.667	1871.88
629.204	1845.88
634.735	1843.88
640.261	1840.88
645.781	1806.88
651.294	1809.88
656.802	1805.88
662.304	1801.88
667.8	1788.88
673.29	1788.88
678.775	1772.88
684.254	1761.88
689.726	1771.88
695.193	1768.88
700.655	1759.88
706.11	1749.88
711.56	1738.88
717.004	1732.88
722.442	1722.88
727.874	1704.88
733.301	1693.88
738.722	1671.88
744.137	1671.88
749.547	1682.88
754.951	1671.88
760.349	1672.88
765.741	1668.88
771.128	1672.88
776.509	1671.88
781.885	1718.88
787.254	1670.88
792.618	1675.88
797.977	1669.88
803.33	1665.88
808.677	1664.88
814.019	1634.88
819.355	1623.88
824.686	1607.88
830.011	1606.88
835.33	1585.88
840.644	1578.88
845.952	1566.88
851.255	1583.88
856.552	1575.88
861.844	1562.88
867.13	1554.88
872.41	1540.88
877.686	1531.88
882.955	1531.88
888.219	1520.88
893.478	1494.88
898.731	1463.88
903.979	1460.88
909.221	1446.88
914.458	1436.88
919.69	1428.88
924.916	1431.88
930.136	1427.88
935.351	1415.88
940.561	1413.88
945.766	1440.88
950.965	1415.88
956.158	1418.88
961.347	1392.88
966.529	1364.88
971.707	1365.88
976.879	1345.88
982.046	1344.88
987.208	1331.88
992.364	1327.88
997.515	1327.88
1002.66	1329.88
1007.801	1337.88
1012.936	1357.88
1018.066	1375.88
1023.19	1369.88
1028.309	1381.88
1033.423	1388.88
1038.532	1376.88
1043.636	1386.88
1048.734	1368.88
1053.827	1356.88
1058.915	1335.88
1063.998	1322.88
1069.075	1338.88
1074.147	1339.88
1079.214	1332.88
1084.276	1357.88
1089.333	1342.88
1094.385	1354.88
1099.431	1370.88
1104.472	1358.88
1109.509	1369.88
1114.54	1370.88
1119.565	1342.88
1124.586	1329.88
1129.602	1318.88
1134.613	1315.88
1139.618	1298.88
1144.619	1301.88
1149.614	1297.88
1154.604	1296.88
1159.589	1325.88
1164.57	1325.88
1169.545	1314.88
1174.515	1343.88
1179.48	1334.88
1184.44	1333.88
1189.395	1318.88
1194.345	1311.88
1199.29	1300.88
1204.23	1307.88
1209.165	1306.88
1214.095	1309.88
1219.021	1325.88
1223.941	1327.88
1228.856	1334.88
1233.766	1337.88
1238.672	1362.88
1243.572	1351.88
1248.467	1340.88
1253.358	1323.88
1258.244	1335.88
1263.124	1306.88
1268	1277.88
1272.871	1283.88
1277.737	1263.88
1282.599	1257.88
1287.455	1274.88
1292.306	1274.88
1297.153	1264.88
1301.995	1281.88
1306.832	1296.88
1311.664	1299.88
1316.491	1317.88
1321.314	1305.88
1326.132	1295.88
1330.945	1286.88
1335.753	1274.88
1340.556	1255.88
1345.354	1232.88
1350.148	1238.88
1354.937	1239.88
1359.722	1219.88
1364.501	1203.88
1369.276	1193.88
1374.046	1177.88
1378.811	1170.88
1383.572	1158.88
1388.327	1175.88
1393.079	1177.88
1397.825	1179.88
1402.567	1167.88
1407.304	1162.88
1412.036	1161.88
1416.764	1157.88
1421.487	1162.88
1426.205	1152.88
1430.919	1163.88
1435.628	1181.88
1440.333	1187.88
1445.032	1199.88
1449.727	1217.88
1454.418	1200.88
1459.104	1213.88
1463.785	1197.88
1468.462	1191.88
1473.134	1172.88
1477.802	1169.88
1482.465	1151.88
1487.123	1151.88
1491.777	1152.88
1496.426	1157.88
1501.071	1174.88
1505.711	1168.88
1510.347	1202.88
1514.978	1195.88
1519.604	1201.88
1524.226	1213.88
1528.844	1209.88
1533.457	1215.88
1538.065	1216.88
1542.669	1212.88
1547.269	1206.88
1551.864	1200.88
1556.454	1204.88
1561.041	1204.88
1565.622	1223.88
1570.199	1217.88
1574.772	1257.88
1579.34	1264.88
1583.904	1285.88
1588.464	1300.88
1593.019	1326.88
1597.569	1340.88
1602.115	1365.88
1606.657	1345.88
1611.195	1365.88
1615.728	1376.88
1620.256	1388.88
1624.78	1400.88
1629.3	1401.88
1633.816	1435.88
1638.327	1454.88
1642.834	1473.88
1647.336	1481.88
1651.834	1486.88
1656.328	1491.88
1660.817	1482.88
1665.302	1479.88
1669.783	1456.88
1674.259	1434.88
1678.732	1407.88
1683.199	1361.88
1687.663	1316.88
1692.122	1278.88
1696.577	1235.88
1701.028	1178.88
1705.474	1137.88
1709.917	1099.88
1714.355	1074.88
1718.788	1068.88
1723.218	1061.88
1727.643	1047.88
1732.064	1035.88
1736.481	1014.88
1740.893	988.88
1745.301	976.88
1749.705	952.88
1754.105	927.88
1758.501	919.88
1762.893	895.88
1767.28	891.88
1771.663	887.88
1776.042	868.88
1780.417	865.88
1784.787	878.88
1789.154	880.88
1793.516	878.88
1797.874	868.88
1802.228	870.88
1806.578	865.88
1810.924	848.88
1815.266	839.88
1819.603	820.88
1823.937	818.88
1828.266	808.88
1832.591	813.88
1836.913	807.88
1841.23	799.88
1845.543	803.88
1849.852	803.88
1854.156	805.88
1858.457	808.88
1862.754	810.88
1867.047	819.88
1871.335	815.88
1875.62	815.88
1879.9	806.88
1884.177	817.88
1888.449	822.88
1892.718	817.88
1896.982	808.88
1901.243	806.88
1905.499	815.88
1909.752	800.88
1914	798.88
1918.245	786.88
1922.485	796.88
1926.722	791.88
1930.954	800.88
1935.183	807.88
1939.408	803.88
1943.628	815.88
1947.845	804.88
1952.058	813.88
1956.267	793.88
1960.472	810.88
1964.673	792.88
1968.87	798.88
1973.063	774.88
1977.252	777.88
1981.438	754.88
1985.619	767.88
1989.797	761.88
1993.971	771.88
1998.14	778.88
2002.306	761.88
2006.469	777.88
2010.627	777.88
2014.781	779.88
2018.932	773.88
2023.078	775.88
2027.221	777.88
2031.36	781.88
2035.495	767.88
2039.627	767.88
2043.754	771.88
2047.878	755.88
2051.998	753.88
2056.114	754.88
2060.226	752.88
2064.334	756.88
2068.439	770.88
2072.54	761.88
2076.637	769.88
2080.73	761.88
2084.82	767.88
2088.906	758.88
2092.988	759.88
2097.066	758.88
2101.14	751.88
2105.211	741.88
2109.278	745.88
2113.342	753.88
2117.401	740.88
2121.457	741.88
2125.509	728.88
2129.558	736.88
2133.602	740.88
2137.643	733.88
2141.681	743.88
2145.714	732.88
2149.744	727.88
2153.77	735.88
2157.793	726.88
2161.812	719.88
2165.827	705.88
2169.838	696.88
2173.846	685.88
2177.851	692.88
2181.851	679.88
2185.848	683.88
2189.841	665.88
2193.831	663.88
2197.817	659.88
2201.799	654.88
2205.778	651.88
2209.753	650.88
2213.725	653.88
2217.693	649.88
2221.657	657.88
2225.618	655.88
2229.575	642.88
2233.529	649.88
2237.479	644.88
2241.425	638.88
2245.368	636.88
2249.307	625.88
2253.243	620.88
2257.175	614.88
2261.104	609.88
2265.029	597.88
2268.95	584.88
2272.868	583.88
2276.783	580.88
2280.694	564.88
2284.601	577.88
2288.505	569.88
2292.405	557.88
2296.302	552.88
2300.195	548.88
2304.085	540.88
2307.971	530.88
2311.854	523.88
2315.734	522.88
2319.609	503.88
2323.482	511.88
2327.351	505.88
2331.216	506.88
2335.078	499.88
2338.937	495.88
2342.792	484.88
2346.643	485.88
2350.492	485.88
2354.336	492.88
2358.178	492.88
2362.015	497.88
2365.85	489.88
2369.681	499.88
2373.508	494.88
2377.333	505.88
2381.153	497.88
2384.971	495.88
2388.785	487.88
2392.595	491.88
2396.402	483.88
2400.206	487.88
2404.007	475.88
2407.804	483.88
2411.597	481.88
2415.388	487.88
2419.174	483.88
2422.958	487.88
2426.738	481.88
2430.515	481.88
2434.289	473.88
2438.059	474.88
2441.825	477.88
2445.589	463.88
2449.349	471.88
2453.106	463.88
2456.859	468.88
2460.61	462.88
2464.356	444.88
2468.1	448.88
2471.84	450.88
2475.577	445.88
2479.311	441.88
2483.041	440.88
2486.768	448.88
2490.492	442.88
2494.213	441.88
2497.93	444.88
2501.644	439.88
2505.355	439.88
2509.062	444.88
2512.766	436.88
2516.467	444.88
2520.165	437.88
2523.859	440.88
2527.551	436.88
2531.239	436.88
2534.923	422.88
2538.605	422.88
2542.283	413.88
2545.958	410.88
2549.63	411.88
2553.299	406.88
2556.964	415.88
2560.626	409.88
2564.285	408.88
2567.941	394.88
2571.594	405.88
2575.243	387.88
2578.89	392.88
2582.533	394.88
2586.173	390.88
2589.809	393.88
2593.443	392.88
2597.073	387.88
2600.701	388.88
2604.325	380.88
2607.946	385.88
2611.564	384.88
2615.178	390.88
2618.79	383.88
2622.398	376.88
2626.004	367.88
2629.606	379.88
2633.205	381.88
2636.801	369.88
2640.394	370.88
2643.983	369.88
2647.57	355.88
2651.153	363.88
2654.734	355.88
2658.311	348.88
2661.885	340.88
2665.456	339.88
2669.025	336.88
2672.589	345.88
2676.151	344.88
2679.71	341.88
2683.266	340.88
2686.819	330.88
2690.368	330.88
2693.915	333.88
2697.458	320.88
2700.999	318.88
2704.536	320.88
2708.071	320.88
2711.602	310.88
2715.13	305.88
2718.656	308.88
2722.178	308.88
2725.697	307.88
2729.214	296.88
2732.727	314.88
2736.237	312.88
2739.744	308.88
2743.249	308.88
2746.75	310.88
2750.248	314.88
2753.743	302.88
2757.236	311.88
2760.725	311.88
2764.211	294.88
2767.695	300.88
2771.175	288.88
2774.652	284.88
2778.127	290.88
2781.598	289.88
2785.067	284.88
2788.532	293.88
2791.995	289.88
2795.455	297.88
2798.911	295.88
2802.365	296.88
2805.816	295.88
2809.264	292.88
2812.709	299.88
2816.151	295.88
2819.59	292.88
2823.026	286.88
2826.46	288.88
2829.89	288.88
2833.318	285.88
2836.742	293.88
2840.164	288.88
2843.583	291.88
2846.999	283.88
2850.412	299.88
2853.822	300.88
2857.229	292.88
2860.634	298.88
2864.035	300.88
2867.434	306.88
2870.83	311.88
2874.223	308.88
2877.613	319.88
2881	314.88
2884.385	322.88
2887.766	314.88
2891.145	307.88
2894.521	315.88
2897.894	320.88
2901.264	313.88
2904.631	312.88
2907.996	313.88
2911.358	312.88
2914.717	324.88
2918.073	320.88
2921.426	325.88
2924.777	331.88
2928.124	332.88
2931.469	333.88
2934.811	336.88
2938.15	340.88
2941.487	344.88
2944.821	346.88
2948.152	353.88
2951.48	353.88
2954.805	354.88
2958.128	367.88
2961.447	372.88
2964.765	365.88
2968.079	370.88
2971.39	376.88
2974.699	372.88
2978.005	390.88
2981.308	394.88
2984.609	392.88
2987.907	410.88
2991.202	414.88
2994.494	426.88
2997.784	426.88
3001.07	436.88
3004.355	456.88
3007.636	456.88
3010.915	472.88
3014.191	475.88
3017.464	486.88
3020.734	493.88
3024.002	506.88
3027.267	499.88
3030.53	507.88
3033.789	516.88
3037.046	522.88
3040.301	538.88
3043.552	538.88
3046.801	559.88
3050.048	566.88
3053.291	582.88
3056.532	590.88
3059.771	613.88
3063.006	621.88
3066.239	643.88
3069.469	670.88
3072.697	678.88
3075.922	703.88
3079.144	709.88
3082.364	727.88
3085.581	734.88
3088.795	768.88
3092.007	768.88
3095.216	788.88
3098.423	797.88
3101.627	815.88
3104.828	839.88
3108.026	838.88
3111.222	872.88
3114.416	872.88
3117.607	901.88
3120.795	915.88
3123.98	938.88
3127.163	951.88
3130.344	970.88
3133.521	998.88
3136.696	1010.88
3139.869	1034.88
3143.039	1062.88
3146.206	1074.88
3149.371	1079.88
3152.533	1092.88
3155.693	1114.88
3158.85	1103.88
3162.005	1118.88
3165.157	1113.88
3168.306	1121.88
3171.453	1126.88
3174.597	1133.88
3177.739	1134.88
3180.878	1130.88
3184.014	1134.88
3187.149	1140.88
3190.28	1144.88
3193.409	1135.88
3196.536	1146.88
3199.659	1157.88
3202.781	1178.88
3205.9	1161.88
3209.016	1170.88
3212.13	1154.88
3215.241	1154.88
3218.35	1158.88
3221.456	1137.88
3224.56	1121.88
3227.661	1127.88
3230.76	1104.88
3233.856	1103.88
3236.95	1078.88
3240.041	1080.88
3243.13	1052.88
3246.216	1055.88
3249.3	1040.88
3252.382	1038.88
3255.46	1019.88
3258.537	1032.88
3261.611	1028.88
3264.682	1027.88
3267.751	1031.88
3270.818	1010.88
3273.882	1001.88
3276.943	1010.88
3280.002	1001.88
3283.059	980.88
3286.113	986.88
3289.165	967.88
3292.214	953.88
3295.261	949.88
3298.306	929.88
3301.348	916.88
3304.387	909.88
3307.425	902.88
3310.459	879.88
3313.492	871.88
3316.521	858.88
3319.549	842.88
3322.574	849.88
3325.597	838.88
3328.617	836.88
3331.635	828.88
3334.65	826.88
3337.663	822.88
3340.674	820.88
3343.682	814.88
3346.688	807.88
3349.691	805.88
3352.692	809.88
3355.691	806.88
3358.687	781.88
3361.681	776.88
3364.673	778.88
3367.662	760.88
3370.649	754.88
3373.633	748.88
3376.615	738.88
3379.595	720.88
3382.572	710.88
3385.547	711.88
3388.52	718.88
3391.49	688.88
3394.458	682.88
3397.424	689.88
3400.387	672.88
3403.348	675.88
3406.307	656.88
3409.263	649.88
3412.217	640.88
3415.168	626.88
3418.118	636.88
3421.065	620.88
3424.009	606.88
3426.951	601.88
3429.891	586.88
3432.829	589.88
3435.764	571.88
3438.697	566.88
3441.628	550.88
3444.557	538.88
3447.483	521.88
3450.407	512.88
3453.328	500.88
3456.247	493.88
3459.164	468.88
3462.079	458.88
3464.991	451.88
3467.902	437.88
3470.809	423.88
3473.715	416.88
3476.618	401.88
3479.519	385.88
3482.418	369.88
3485.315	360.88
3488.209	352.88
3491.101	346.88
3493.99	328.88
3496.878	328.88
3499.763	318.88
3502.646	308.88
3505.527	302.88
3508.405	286.88
3511.281	285.88
3514.155	275.88
3517.027	262.88
3519.897	250.88
3522.764	239.88
3525.629	229.88
3528.492	214.88
3531.352	207.88
3534.211	197.88
3537.067	185.88
3539.921	180.88
3542.773	170.88
3545.622	167.88
3548.469	156.88
3551.315	144.88
3554.157	131.88
3556.998	129.88
3559.837	124.88
3562.673	116.88
3565.507	110.88
3568.339	108.88
3571.169	102.88
3573.996	92.88
3576.822	94.88
3579.645	86.88
3582.466	82.88
3585.285	71.88
3588.101	72.88
3590.916	73.88
3593.728	56.88
3596.538	62.88
3599.346	51.88
3602.152	52.88
3604.956	46.88
3607.757	44.88
3610.556	43.88
3613.354	33.88
3616.149	30.88
3618.942	25.88
3621.732	20.88
3624.521	15.88
3627.307	18.88
3630.092	8.88
3632.874	5.88
3635.654	6.88
3638.432	5.88
3641.208	4.88
3643.982	1.88
3646.753	-0.12
3649.523	0.88
3652.29	-7.12
3655.055	-4.12
3657.818	-3.12
3660.579	-9.12
3663.338	-10.12
3666.095	-15.12
3668.849	-10.12
3671.602	-20.12
3674.352	-17.12
3677.101	-23.12
3679.847	-23.12
3682.591	-25.12
3685.333	-29.12
3688.073	-32.12
3690.811	-34.12
3693.547	-32.12
3696.281	-36.12
3699.013	-42.12
3701.742	-42.12
3704.47	-40.12
3707.195	-40.12
3709.919	-44.12
3712.64	-43.12
3715.359	-45.12
3718.076	-41.12
3720.792	-40.12
3723.505	-45.12
3726.216	-41.12
3728.925	-41.12
3731.632	-44.12
3734.336	-46.12
3737.039	-45.12
3739.74	-50.12
3742.439	-50.12
3745.136	-54.12
3747.83	-52.12
3750.523	-51.12
3753.213	-50.12
3755.902	-55.12
3758.589	-57.12
3761.273	-57.12
3763.956	-56.12
3766.636	-54.12
3769.315	-61.12
3771.991	-52.12
3774.665	-54.12
3777.338	-55.12
3780.008	-57.12
3782.677	-49.12
3785.343	-56.12
3788.007	-53.12
3790.67	-54.12
3793.33	-57.12
3795.989	-59.12
3798.645	-57.12
3801.299	-62.12
3803.952	-58.12
3806.602	-60.12
3809.251	-60.12
3811.897	-61.12
3814.542	-62.12
3817.184	-66.12
3819.825	-63.12
3822.463	-63.12
3825.1	-63.12
3827.735	-65.12
3830.367	-63.12
3832.998	-63.12
3835.627	-62.12
3838.253	-62.12
3840.878	-61.12
3843.501	-62.12
3846.122	-62.12
3848.741	-65.12
3851.358	-61.12
3853.973	-63.12
3856.586	-64.12
3859.197	-63.12
3861.806	-65.12
3864.414	-67.12
3867.019	-69.12
3869.622	-70.12
3872.224	-67.12
3874.823	-67.12
3877.421	-65.12
3880.016	-66.12
3882.61	-63.12
3885.202	-63.12
3887.792	-60.12
3890.38	-67.12
3892.966	-64.12
3895.55	-69.12
3898.132	-65.12
3900.713	-65.12
3903.291	-65.12
3905.868	-71.12
3908.442	-66.12
3911.015	-66.12
3913.586	-62.12
3916.155	-70.12
3918.722	-67.12
3921.287	-66.12
3923.85	-67.12
3926.411	-71.12
3928.971	-70.12
3931.528	-69.12
3934.084	-74.12
3936.638	-72.12
3939.19	-73.12
3941.74	-71.12
3944.288	-73.12
3946.834	-70.12
3949.378	-70.12
3951.921	-71.12
3954.462	-69.12
3957	-66.12
3959.537	-67.12
3962.072	-69.12
3964.606	-63.12
3967.137	-67.12
3969.667	-67.12
3972.194	-69.12
3974.72	-71.12
3977.244	-68.12
3979.766	-68.12
3982.286	-67.12
3984.805	-69.12
3987.321	-69.12
3989.836	-70.12
3992.349	-66.12
3994.86	-69.12
3997.369	-69.12
3999.877	-69.12
4002.382	-66.12
4004.886	-68.12
4007.388	-71.12
4009.888	-67.12
4012.386	-66.12
4014.883	-62.12
4017.377	-68.12
4019.87	-67.12
4022.361	-68.12
4024.85	-69.12
4027.338	-65.12
4029.823	-70.12
4032.307	-71.12
4034.789	-70.12
4037.269	-69.12
4039.747	-71.12
4042.224	-72.12
4044.699	-70.12
4047.172	-70.12
4049.643	-70.12
4052.112	-72.12
4054.58	-69.12
4057.046	-71.12
4059.51	-71.12
4061.972	-68.12
4064.432	-65.12
4066.891	-67.12
4069.348	-67.12
4071.803	-66.12
4074.256	-67.12
4076.708	-67.12
4079.158	-68.12
4081.606	-69.12
4084.052	-67.12
4086.497	-72.12
4088.939	-71.12
4091.38	-68.12
4093.819	-69.12
4096.257	-71.12
4098.693	-76.12
4101.127	-73.12
4103.559	-72.12
4105.989	-21.12
4108.418	-16.12
4110.845	-22.12
4113.27	-17.12
4115.694	-10.12
4118.115	-8.12
4120.535	-74.12
4122.954	-69.12
4125.37	-71.12
4127.785	-73.12
4130.198	-72.12
4132.609	-71.12
4135.019	-73.12
4137.427	-73.12
4139.833	-75.12
4142.237	-74.12
