Data from Water2_100CFU_RamanShift_11-11-18-915_RamanShift_14-04-20-279.txt Node
Date: Sun Dec 18 14:04:20 IST 2016
User: aro
Spectrometer: QEPB0276
Trigger mode: 0
Integration Time (sec): 5.000000E0
Scans to average: 1
Electric dark correction enabled: true
Nonlinearity correction enabled: false
Boxcar width: 0
XAxis mode: Raman Shifts
Number of Pixels in Spectrum: 1044
>>>>>Begin Spectral Data<<<<<
160.701	6.5
166.742	20.5
172.777	64.5
178.805	191.5
184.826	579.5
190.841	1396.5
196.849	2573.5
202.85	3720.5
208.845	4226.5
214.833	4284.5
220.815	4108.5
226.789	3928.5
232.758	3843.5
238.719	3721.5
244.674	3627.5
250.623	3442.5
256.565	3323.5
262.5	3171.5
268.429	3017.5
274.351	2895.5
280.267	2765.5
286.176	2665.5
292.079	2556.5
297.975	2475.5
303.865	2399.5
309.748	2314.5
315.625	2282.5
321.495	2206.5
327.359	2171.5
333.217	2149.5
339.068	2133.5
344.912	2102.5
350.751	2093.5
356.583	2090.5
362.408	2074.5
368.227	2065.5
374.04	2081.5
379.847	2091.5
385.647	2087.5
391.44	2122.5
397.228	2116.5
403.009	2127.5
408.784	2128.5
414.553	2122.5
420.315	2159.5
426.071	2132.5
431.821	2145.5
437.565	2146.5
443.302	2164.5
449.033	2135.5
454.758	2122.5
460.477	2112.5
466.189	2120.5
471.896	2087.5
477.596	2065.5
483.29	2084.5
488.978	2056.5
494.66	2066.5
500.335	2047.5
506.005	2004.5
511.668	1965.5
517.325	1948.5
522.977	1896.5
528.622	1860.5
534.261	1844.5
539.894	1831.5
545.521	1819.5
551.141	1802.5
556.756	1776.5
562.365	1764.5
567.968	1768.5
573.565	1747.5
579.155	1748.5
584.74	1728.5
590.319	1707.5
595.892	1698.5
601.459	1719.5
607.02	1698.5
612.575	1686.5
618.124	1680.5
623.667	1654.5
629.204	1644.5
634.735	1610.5
640.261	1602.5
645.781	1595.5
651.294	1591.5
656.802	1559.5
662.304	1566.5
667.8	1560.5
673.29	1555.5
678.775	1550.5
684.254	1539.5
689.726	1539.5
695.193	1526.5
700.655	1517.5
706.11	1516.5
711.56	1496.5
717.004	1504.5
722.442	1481.5
727.874	1455.5
733.301	1469.5
738.722	1459.5
744.137	1451.5
749.547	1444.5
754.951	1434.5
760.349	1426.5
765.741	1426.5
771.128	1412.5
776.509	1434.5
781.885	1426.5
787.254	1424.5
792.618	1423.5
797.977	1415.5
803.33	1399.5
808.677	1403.5
814.019	1379.5
819.355	1365.5
824.686	1362.5
830.011	1343.5
835.33	1336.5
840.644	1329.5
845.952	1323.5
851.255	1317.5
856.552	1295.5
861.844	1309.5
867.13	1304.5
872.41	1295.5
877.686	1271.5
882.955	1272.5
888.219	1250.5
893.478	1232.5
898.731	1210.5
903.979	1196.5
909.221	1175.5
914.458	1171.5
919.69	1141.5
924.916	1157.5
930.136	1166.5
935.351	1142.5
940.561	1160.5
945.766	1143.5
950.965	1150.5
956.158	1136.5
961.347	1146.5
966.529	1107.5
971.707	1089.5
976.879	1075.5
982.046	1067.5
987.208	1059.5
992.364	1059.5
997.515	1072.5
1002.66	1065.5
1007.801	1076.5
1012.936	1091.5
1018.066	1099.5
1023.19	1095.5
1028.309	1105.5
1033.423	1097.5
1038.532	1102.5
1043.636	1086.5
1048.734	1095.5
1053.827	1085.5
1058.915	1066.5
1063.998	1047.5
1069.075	1056.5
1074.147	1058.5
1079.214	1056.5
1084.276	1074.5
1089.333	1071.5
1094.385	1068.5
1099.431	1091.5
1104.472	1085.5
1109.509	1077.5
1114.54	1079.5
1119.565	1076.5
1124.586	1052.5
1129.602	1032.5
1134.613	1043.5
1139.618	1029.5
1144.619	1026.5
1149.614	1024.5
1154.604	1021.5
1159.589	1027.5
1164.57	1058.5
1169.545	1038.5
1174.515	1045.5
1179.48	1053.5
1184.44	1043.5
1189.395	1035.5
1194.345	1042.5
1199.29	1037.5
1204.23	1038.5
1209.165	1034.5
1214.095	1035.5
1219.021	1034.5
1223.941	1052.5
1228.856	1049.5
1233.766	1056.5
1238.672	1061.5
1243.572	1070.5
1248.467	1043.5
1253.358	1051.5
1258.244	1037.5
1263.124	1028.5
1268	1009.5
1272.871	999.5
1277.737	1005.5
1282.599	980.5
1287.455	985.5
1292.306	989.5
1297.153	984.5
1301.995	999.5
1306.832	1007.5
1311.664	1009.5
1316.491	1016.5
1321.314	1019.5
1326.132	1005.5
1330.945	1003.5
1335.753	978.5
1340.556	977.5
1345.354	964.5
1350.148	959.5
1354.937	959.5
1359.722	957.5
1364.501	927.5
1369.276	930.5
1374.046	912.5
1378.811	924.5
1383.572	907.5
1388.327	911.5
1393.079	910.5
1397.825	909.5
1402.567	904.5
1407.304	893.5
1412.036	877.5
1416.764	892.5
1421.487	891.5
1426.205	885.5
1430.919	895.5
1435.628	902.5
1440.333	905.5
1445.032	926.5
1449.727	932.5
1454.418	931.5
1459.104	931.5
1463.785	929.5
1468.462	936.5
1473.134	923.5
1477.802	909.5
1482.465	898.5
1487.123	897.5
1491.777	911.5
1496.426	917.5
1501.071	906.5
1505.711	917.5
1510.347	919.5
1514.978	921.5
1519.604	941.5
1524.226	942.5
1528.844	948.5
1533.457	954.5
1538.065	943.5
1542.669	948.5
1547.269	947.5
1551.864	939.5
1556.454	949.5
1561.041	957.5
1565.622	975.5
1570.199	961.5
1574.772	1004.5
1579.34	1017.5
1583.904	1028.5
1588.464	1057.5
1593.019	1075.5
1597.569	1083.5
1602.115	1099.5
1606.657	1102.5
1611.195	1113.5
1615.728	1114.5
1620.256	1146.5
1624.78	1150.5
1629.3	1164.5
1633.816	1189.5
1638.327	1204.5
1642.834	1205.5
1647.336	1236.5
1651.834	1242.5
1656.328	1246.5
1660.817	1225.5
1665.302	1244.5
1669.783	1198.5
1674.259	1167.5
1678.732	1135.5
1683.199	1109.5
1687.663	1066.5
1692.122	1037.5
1696.577	997.5
1701.028	955.5
1705.474	914.5
1709.917	872.5
1714.355	848.5
1718.788	833.5
1723.218	826.5
1727.643	807.5
1732.064	794.5
1736.481	795.5
1740.893	750.5
1745.301	756.5
1749.705	726.5
1754.105	710.5
1758.501	685.5
1762.893	682.5
1767.28	669.5
1771.663	663.5
1776.042	646.5
1780.417	638.5
1784.787	645.5
1789.154	651.5
1793.516	657.5
1797.874	650.5
1802.228	635.5
1806.578	634.5
1810.924	618.5
1815.266	607.5
1819.603	601.5
1823.937	605.5
1828.266	598.5
1832.591	592.5
1836.913	583.5
1841.23	582.5
1845.543	578.5
1849.852	591.5
1854.156	596.5
1858.457	596.5
1862.754	591.5
1867.047	593.5
1871.335	600.5
1875.62	604.5
1879.9	600.5
1884.177	594.5
1888.449	605.5
1892.718	599.5
1896.982	588.5
1901.243	599.5
1905.499	578.5
1909.752	580.5
1914	588.5
1918.245	577.5
1922.485	583.5
1926.722	574.5
1930.954	591.5
1935.183	580.5
1939.408	587.5
1943.628	589.5
1947.845	606.5
1952.058	590.5
1956.267	579.5
1960.472	589.5
1964.673	579.5
1968.87	584.5
1973.063	580.5
1977.252	566.5
1981.438	570.5
1985.619	564.5
1989.797	557.5
1993.971	566.5
1998.14	567.5
2002.306	576.5
2006.469	577.5
2010.627	565.5
2014.781	568.5
2018.932	580.5
2023.078	586.5
2027.221	584.5
2031.36	578.5
2035.495	568.5
2039.627	572.5
2043.754	569.5
2047.878	564.5
2051.998	578.5
2056.114	563.5
2060.226	565.5
2064.334	570.5
2068.439	562.5
2072.54	577.5
2076.637	575.5
2080.73	576.5
2084.82	578.5
2088.906	577.5
2092.988	574.5
2097.066	577.5
2101.14	567.5
2105.211	571.5
2109.278	559.5
2113.342	552.5
2117.401	559.5
2121.457	559.5
2125.509	548.5
2129.558	556.5
2133.602	548.5
2137.643	551.5
2141.681	554.5
2145.714	546.5
2149.744	549.5
2153.77	536.5
2157.793	553.5
2161.812	541.5
2165.827	536.5
2169.838	524.5
2173.846	519.5
2177.851	513.5
2181.851	498.5
2185.848	495.5
2189.841	486.5
2193.831	493.5
2197.817	496.5
2201.799	478.5
2205.778	491.5
2209.753	478.5
2213.725	484.5
2217.693	474.5
2221.657	489.5
2225.618	486.5
2229.575	478.5
2233.529	476.5
2237.479	476.5
2241.425	467.5
2245.368	464.5
2249.307	464.5
2253.243	455.5
2257.175	455.5
2261.104	440.5
2265.029	439.5
2268.95	431.5
2272.868	430.5
2276.783	427.5
2280.694	421.5
2284.601	418.5
2288.505	404.5
2292.405	403.5
2296.302	398.5
2300.195	393.5
2304.085	384.5
2307.971	386.5
2311.854	375.5
2315.734	379.5
2319.609	365.5
2323.482	366.5
2327.351	358.5
2331.216	350.5
2335.078	363.5
2338.937	363.5
2342.792	352.5
2346.643	347.5
2350.492	341.5
2354.336	344.5
2358.178	346.5
2362.015	350.5
2365.85	352.5
2369.681	351.5
2373.508	349.5
2377.333	342.5
2381.153	342.5
2384.971	344.5
2388.785	344.5
2392.595	334.5
2396.402	337.5
2400.206	338.5
2404.007	349.5
2407.804	336.5
2411.597	334.5
2415.388	342.5
2419.174	337.5
2422.958	341.5
2426.738	336.5
2430.515	340.5
2434.289	330.5
2438.059	336.5
2441.825	324.5
2445.589	331.5
2449.349	323.5
2453.106	316.5
2456.859	321.5
2460.61	318.5
2464.356	315.5
2468.1	312.5
2471.84	310.5
2475.577	307.5
2479.311	314.5
2483.041	307.5
2486.768	313.5
2490.492	311.5
2494.213	309.5
2497.93	320.5
2501.644	308.5
2505.355	313.5
2509.062	315.5
2512.766	310.5
2516.467	306.5
2520.165	308.5
2523.859	294.5
2527.551	294.5
2531.239	296.5
2534.923	296.5
2538.605	287.5
2542.283	293.5
2545.958	285.5
2549.63	283.5
2553.299	288.5
2556.964	286.5
2560.626	279.5
2564.285	282.5
2567.941	284.5
2571.594	270.5
2575.243	275.5
2578.89	269.5
2582.533	278.5
2586.173	273.5
2589.809	268.5
2593.443	274.5
2597.073	268.5
2600.701	262.5
2604.325	260.5
2607.946	260.5
2611.564	258.5
2615.178	264.5
2618.79	259.5
2622.398	257.5
2626.004	255.5
2629.606	251.5
2633.205	253.5
2636.801	256.5
2640.394	243.5
2643.983	248.5
2647.57	246.5
2651.153	241.5
2654.734	245.5
2658.311	243.5
2661.885	241.5
2665.456	241.5
2669.025	238.5
2672.589	229.5
2676.151	236.5
2679.71	232.5
2683.266	234.5
2686.819	233.5
2690.368	223.5
2693.915	223.5
2697.458	221.5
2700.999	206.5
2704.536	206.5
2708.071	207.5
2711.602	211.5
2715.13	209.5
2718.656	216.5
2722.178	211.5
2725.697	209.5
2729.214	205.5
2732.727	213.5
2736.237	208.5
2739.744	212.5
2743.249	215.5
2746.75	214.5
2750.248	218.5
2753.743	208.5
2757.236	213.5
2760.725	207.5
2764.211	212.5
2767.695	210.5
2771.175	208.5
2774.652	196.5
2778.127	190.5
2781.598	197.5
2785.067	198.5
2788.532	206.5
2791.995	199.5
2795.455	203.5
2798.911	210.5
2802.365	211.5
2805.816	209.5
2809.264	204.5
2812.709	214.5
2816.151	210.5
2819.59	213.5
2823.026	211.5
2826.46	213.5
2829.89	208.5
2833.318	210.5
2836.742	212.5
2840.164	209.5
2843.583	215.5
2846.999	211.5
2850.412	212.5
2853.822	219.5
2857.229	220.5
2860.634	223.5
2864.035	226.5
2867.434	230.5
2870.83	236.5
2874.223	231.5
2877.613	237.5
2881	244.5
2884.385	246.5
2887.766	243.5
2891.145	239.5
2894.521	247.5
2897.894	248.5
2901.264	241.5
2904.631	244.5
2907.996	250.5
2911.358	252.5
2914.717	250.5
2918.073	248.5
2921.426	253.5
2924.777	262.5
2928.124	269.5
2931.469	268.5
2934.811	274.5
2938.15	276.5
2941.487	288.5
2944.821	292.5
2948.152	291.5
2951.48	299.5
2954.805	294.5
2958.128	315.5
2961.447	302.5
2964.765	310.5
2968.079	314.5
2971.39	321.5
2974.699	328.5
2978.005	329.5
2981.308	338.5
2984.609	355.5
2987.907	358.5
2991.202	368.5
2994.494	380.5
2997.784	378.5
3001.07	390.5
3004.355	400.5
3007.636	414.5
3010.915	425.5
3014.191	438.5
3017.464	437.5
3020.734	444.5
3024.002	447.5
3027.267	466.5
3030.53	468.5
3033.789	466.5
3037.046	471.5
3040.301	487.5
3043.552	497.5
3046.801	510.5
3050.048	518.5
3053.291	547.5
3056.532	553.5
3059.771	577.5
3063.006	581.5
3066.239	595.5
3069.469	624.5
3072.697	638.5
3075.922	660.5
3079.144	672.5
3082.364	688.5
3085.581	706.5
3088.795	712.5
3092.007	749.5
3095.216	759.5
3098.423	771.5
3101.627	783.5
3104.828	795.5
3108.026	811.5
3111.222	826.5
3114.416	847.5
3117.607	867.5
3120.795	866.5
3123.98	902.5
3127.163	921.5
3130.344	943.5
3133.521	961.5
3136.696	984.5
3139.869	1005.5
3143.039	1025.5
3146.206	1044.5
3149.371	1060.5
3152.533	1070.5
3155.693	1083.5
3158.85	1089.5
3162.005	1089.5
3165.157	1095.5
3168.306	1089.5
3171.453	1088.5
3174.597	1108.5
3177.739	1117.5
3180.878	1112.5
3184.014	1116.5
3187.149	1128.5
3190.28	1132.5
3193.409	1138.5
3196.536	1141.5
3199.659	1144.5
3202.781	1147.5
3205.9	1164.5
3209.016	1151.5
3212.13	1140.5
3215.241	1145.5
3218.35	1145.5
3221.456	1133.5
3224.56	1122.5
3227.661	1121.5
3230.76	1103.5
3233.856	1085.5
3236.95	1089.5
3240.041	1070.5
3243.13	1059.5
3246.216	1053.5
3249.3	1056.5
3252.382	1042.5
3255.46	1027.5
3258.537	1018.5
3261.611	1024.5
3264.682	1017.5
3267.751	1022.5
3270.818	1008.5
3273.882	1013.5
3276.943	998.5
3280.002	989.5
3283.059	993.5
3286.113	978.5
3289.165	953.5
3292.214	954.5
3295.261	940.5
3298.306	938.5
3301.348	917.5
3304.387	908.5
3307.425	885.5
3310.459	877.5
3313.492	871.5
3316.521	856.5
3319.549	858.5
3322.574	833.5
3325.597	828.5
3328.617	833.5
3331.635	816.5
3334.65	822.5
3337.663	813.5
3340.674	816.5
3343.682	807.5
3346.688	807.5
3349.691	810.5
3352.692	807.5
3355.691	802.5
3358.687	790.5
3361.681	779.5
3364.673	781.5
3367.662	766.5
3370.649	763.5
3373.633	746.5
3376.615	735.5
3379.595	724.5
3382.572	723.5
3385.547	718.5
3388.52	701.5
3391.49	698.5
3394.458	684.5
3397.424	672.5
3400.387	666.5
3403.348	664.5
3406.307	658.5
3409.263	657.5
3412.217	646.5
3415.168	635.5
3418.118	622.5
3421.065	616.5
3424.009	623.5
3426.951	607.5
3429.891	602.5
3432.829	588.5
3435.764	576.5
3438.697	565.5
3441.628	558.5
3444.557	545.5
3447.483	527.5
3450.407	517.5
3453.328	500.5
3456.247	498.5
3459.164	481.5
3462.079	467.5
3464.991	448.5
3467.902	432.5
3470.809	426.5
3473.715	412.5
3476.618	405.5
3479.519	386.5
3482.418	384.5
3485.315	373.5
3488.209	347.5
3491.101	347.5
3493.99	337.5
3496.878	328.5
3499.763	327.5
3502.646	309.5
3505.527	293.5
3508.405	290.5
3511.281	282.5
3514.155	269.5
3517.027	259.5
3519.897	248.5
3522.764	240.5
3525.629	227.5
3528.492	224.5
3531.352	207.5
3534.211	206.5
3537.067	190.5
3539.921	178.5
3542.773	172.5
3545.622	167.5
3548.469	159.5
3551.315	150.5
3554.157	136.5
3556.998	133.5
3559.837	127.5
3562.673	121.5
3565.507	116.5
3568.339	110.5
3571.169	100.5
3573.996	95.5
3576.822	97.5
3579.645	85.5
3582.466	89.5
3585.285	81.5
3588.101	76.5
3590.916	74.5
3593.728	61.5
3596.538	62.5
3599.346	56.5
3602.152	52.5
3604.956	49.5
3607.757	39.5
3610.556	38.5
3613.354	33.5
3616.149	29.5
3618.942	30.5
3621.732	20.5
3624.521	16.5
3627.307	20.5
3630.092	11.5
3632.874	8.5
3635.654	8.5
3638.432	11.5
3641.208	6.5
3643.982	2.5
3646.753	-1.5
3649.523	1.5
3652.29	0.5
3655.055	-4.5
3657.818	-8.5
3660.579	-12.5
3663.338	-14.5
3666.095	-14.5
3668.849	-11.5
3671.602	-17.5
3674.352	-20.5
3677.101	-19.5
3679.847	-27.5
3682.591	-28.5
3685.333	-31.5
3688.073	-29.5
3690.811	-27.5
3693.547	-34.5
3696.281	-31.5
3699.013	-36.5
3701.742	-34.5
3704.47	-33.5
3707.195	-34.5
3709.919	-39.5
3712.64	-37.5
3715.359	-43.5
3718.076	-41.5
3720.792	-37.5
3723.505	-40.5
3726.216	-46.5
3728.925	-43.5
3731.632	-48.5
3734.336	-47.5
3737.039	-49.5
3739.74	-50.5
3742.439	-52.5
3745.136	-52.5
3747.83	-52.5
3750.523	-51.5
3753.213	-50.5
3755.902	-51.5
3758.589	-50.5
3761.273	-53.5
3763.956	-53.5
3766.636	-52.5
3769.315	-57.5
3771.991	-47.5
3774.665	-53.5
3777.338	-54.5
3780.008	-53.5
3782.677	-51.5
3785.343	-55.5
3788.007	-54.5
3790.67	-58.5
3793.33	-58.5
3795.989	-58.5
3798.645	-59.5
3801.299	-60.5
3803.952	-59.5
3806.602	-60.5
3809.251	-57.5
3811.897	-58.5
3814.542	-59.5
3817.184	-61.5
3819.825	-60.5
3822.463	-58.5
3825.1	-61.5
3827.735	-62.5
3830.367	-59.5
3832.998	-59.5
3835.627	-60.5
3838.253	-61.5
3840.878	-60.5
3843.501	-59.5
3846.122	-60.5
3848.741	-62.5
3851.358	-63.5
3853.973	-64.5
3856.586	-63.5
3859.197	-61.5
3861.806	-65.5
3864.414	-61.5
3867.019	-62.5
3869.622	-62.5
3872.224	-61.5
3874.823	-62.5
3877.421	-59.5
3880.016	-58.5
3882.61	-53.5
3885.202	-55.5
3887.792	-56.5
3890.38	-63.5
3892.966	-60.5
3895.55	-64.5
3898.132	-64.5
3900.713	-63.5
3903.291	-61.5
3905.868	-69.5
3908.442	-65.5
3911.015	-62.5
3913.586	-66.5
3916.155	-66.5
3918.722	-62.5
3921.287	-62.5
3923.85	-62.5
3926.411	-66.5
3928.971	-65.5
3931.528	-66.5
3934.084	-67.5
3936.638	-68.5
3939.19	-67.5
3941.74	-64.5
3944.288	-68.5
3946.834	-68.5
3949.378	-69.5
3951.921	-66.5
3954.462	-65.5
3957	-64.5
3959.537	-67.5
3962.072	-66.5
3964.606	-62.5
3967.137	-67.5
3969.667	-65.5
3972.194	-68.5
3974.72	-64.5
3977.244	-60.5
3979.766	-64.5
3982.286	-62.5
3984.805	-68.5
3987.321	-63.5
3989.836	-67.5
3992.349	-67.5
3994.86	-64.5
3997.369	-67.5
3999.877	-63.5
4002.382	-61.5
4004.886	-64.5
4007.388	-67.5
4009.888	-66.5
4012.386	-63.5
4014.883	-65.5
4017.377	-60.5
4019.87	-66.5
4022.361	-67.5
4024.85	-65.5
4027.338	-65.5
4029.823	-67.5
4032.307	-66.5
4034.789	-67.5
4037.269	-66.5
4039.747	-66.5
4042.224	-69.5
4044.699	-66.5
4047.172	-68.5
4049.643	-65.5
4052.112	-69.5
4054.58	-68.5
4057.046	-65.5
4059.51	-66.5
4061.972	-64.5
4064.432	-65.5
4066.891	-66.5
4069.348	-69.5
4071.803	-62.5
4074.256	-66.5
4076.708	-63.5
4079.158	-61.5
4081.606	-63.5
4084.052	-65.5
4086.497	-69.5
4088.939	-69.5
4091.38	-64.5
4093.819	-64.5
4096.257	-68.5
4098.693	-73.5
4101.127	-67.5
4103.559	-66.5
4105.989	-16.5
4108.418	-8.5
4110.845	-7.5
4113.27	-12.5
4115.694	-2.5
4118.115	-0.5
4120.535	-70.5
4122.954	-69.5
4125.37	-67.5
4127.785	-68.5
4130.198	-69.5
4132.609	-65.5
4135.019	-71.5
4137.427	-68.5
4139.833	-72.5
4142.237	-70.5
