Data from Water3_1000CFU_RamanShift_11-11-18-915_RamanShift_14-21-55-623.txt Node
Date: Sun Dec 18 14:21:55 IST 2016
User: aro
Spectrometer: QEPB0276
Trigger mode: 0
Integration Time (sec): 5.000000E0
Scans to average: 1
Electric dark correction enabled: true
Nonlinearity correction enabled: false
Boxcar width: 0
XAxis mode: Raman Shifts
Number of Pixels in Spectrum: 1044
>>>>>Begin Spectral Data<<<<<
160.701	1.75
166.742	23.75
172.777	71.75
178.805	212.75
184.826	626.75
190.841	1517.75
196.849	2798.75
202.85	4033.75
208.845	4641.75
214.833	4634.75
220.815	4468.75
226.789	4285.75
232.758	4205.75
238.719	4080.75
244.674	3937.75
250.623	3788.75
256.565	3616.75
262.5	3464.75
268.429	3287.75
274.351	3154.75
280.267	3029.75
286.176	2908.75
292.079	2818.75
297.975	2728.75
303.865	2615.75
309.748	2557.75
315.625	2482.75
321.495	2441.75
327.359	2372.75
333.217	2335.75
339.068	2314.75
344.912	2302.75
350.751	2277.75
356.583	2280.75
362.408	2260.75
368.227	2305.75
374.04	2282.75
379.847	2291.75
385.647	2295.75
391.44	2303.75
397.228	2322.75
403.009	2328.75
408.784	2349.75
414.553	2349.75
420.315	2352.75
426.071	2351.75
431.821	2348.75
437.565	2343.75
443.302	2350.75
449.033	2343.75
454.758	2332.75
460.477	2329.75
466.189	2324.75
471.896	2308.75
477.596	2288.75
483.29	2282.75
488.978	2268.75
494.66	2271.75
500.335	2237.75
506.005	2213.75
511.668	2171.75
517.325	2139.75
522.977	2102.75
528.622	2076.75
534.261	2016.75
539.894	2043.75
545.521	1992.75
551.141	1973.75
556.756	1963.75
562.365	1971.75
567.968	1945.75
573.565	1941.75
579.155	1938.75
584.74	1919.75
590.319	1923.75
595.892	1880.75
601.459	1887.75
607.02	1872.75
612.575	1845.75
618.124	1834.75
623.667	1826.75
629.204	1801.75
634.735	1802.75
640.261	1766.75
645.781	1770.75
651.294	1752.75
656.802	1739.75
662.304	1738.75
667.8	1743.75
673.29	1723.75
678.775	1728.75
684.254	1722.75
689.726	1701.75
695.193	1680.75
700.655	1695.75
706.11	1696.75
711.56	1677.75
717.004	1638.75
722.442	1646.75
727.874	1609.75
733.301	1625.75
738.722	1604.75
744.137	1594.75
749.547	1591.75
754.951	1591.75
760.349	1604.75
765.741	1581.75
771.128	1584.75
776.509	1576.75
781.885	1580.75
787.254	1589.75
792.618	1573.75
797.977	1570.75
803.33	1561.75
808.677	1541.75
814.019	1555.75
819.355	1517.75
824.686	1499.75
830.011	1501.75
835.33	1488.75
840.644	1469.75
845.952	1485.75
851.255	1457.75
856.552	1461.75
861.844	1434.75
867.13	1429.75
872.41	1432.75
877.686	1426.75
882.955	1409.75
888.219	1397.75
893.478	1372.75
898.731	1341.75
903.979	1333.75
909.221	1322.75
914.458	1293.75
919.69	1309.75
924.916	1293.75
930.136	1296.75
935.351	1285.75
940.561	1288.75
945.766	1284.75
950.965	1271.75
956.158	1256.75
961.347	1261.75
966.529	1242.75
971.707	1224.75
976.879	1199.75
982.046	1183.75
987.208	1167.75
992.364	1167.75
997.515	1177.75
1002.66	1193.75
1007.801	1205.75
1012.936	1201.75
1018.066	1210.75
1023.19	1219.75
1028.309	1215.75
1033.423	1230.75
1038.532	1221.75
1043.636	1212.75
1048.734	1200.75
1053.827	1199.75
1058.915	1181.75
1063.998	1168.75
1069.075	1159.75
1074.147	1162.75
1079.214	1172.75
1084.276	1187.75
1089.333	1177.75
1094.385	1206.75
1099.431	1189.75
1104.472	1208.75
1109.509	1201.75
1114.54	1198.75
1119.565	1185.75
1124.586	1172.75
1129.602	1145.75
1134.613	1135.75
1139.618	1142.75
1144.619	1137.75
1149.614	1131.75
1154.604	1144.75
1159.589	1147.75
1164.57	1154.75
1169.545	1171.75
1174.515	1176.75
1179.48	1168.75
1184.44	1146.75
1189.395	1141.75
1194.345	1152.75
1199.29	1138.75
1204.23	1130.75
1209.165	1151.75
1214.095	1149.75
1219.021	1146.75
1223.941	1160.75
1228.856	1166.75
1233.766	1157.75
1238.672	1169.75
1243.572	1177.75
1248.467	1165.75
1253.358	1156.75
1258.244	1151.75
1263.124	1135.75
1268	1129.75
1272.871	1096.75
1277.737	1093.75
1282.599	1094.75
1287.455	1083.75
1292.306	1082.75
1297.153	1096.75
1301.995	1108.75
1306.832	1108.75
1311.664	1109.75
1316.491	1116.75
1321.314	1121.75
1326.132	1105.75
1330.945	1105.75
1335.753	1082.75
1340.556	1060.75
1345.354	1065.75
1350.148	1035.75
1354.937	1044.75
1359.722	1011.75
1364.501	1009.75
1369.276	1011.75
1374.046	1006.75
1378.811	1007.75
1383.572	1010.75
1388.327	1003.75
1393.079	998.75
1397.825	1013.75
1402.567	988.75
1407.304	994.75
1412.036	970.75
1416.764	981.75
1421.487	986.75
1426.205	964.75
1430.919	976.75
1435.628	1001.75
1440.333	995.75
1445.032	1012.75
1449.727	1012.75
1454.418	1010.75
1459.104	1023.75
1463.785	1012.75
1468.462	1021.75
1473.134	1000.75
1477.802	988.75
1482.465	985.75
1487.123	980.75
1491.777	979.75
1496.426	978.75
1501.071	979.75
1505.711	980.75
1510.347	1000.75
1514.978	1015.75
1519.604	1023.75
1524.226	1027.75
1528.844	1021.75
1533.457	1040.75
1538.065	1017.75
1542.669	1025.75
1547.269	1019.75
1551.864	1026.75
1556.454	1033.75
1561.041	1028.75
1565.622	1064.75
1570.199	1066.75
1574.772	1075.75
1579.34	1082.75
1583.904	1122.75
1588.464	1134.75
1593.019	1160.75
1597.569	1179.75
1602.115	1193.75
1606.657	1197.75
1611.195	1216.75
1615.728	1225.75
1620.256	1239.75
1624.78	1245.75
1629.3	1270.75
1633.816	1289.75
1638.327	1304.75
1642.834	1331.75
1647.336	1347.75
1651.834	1343.75
1656.328	1342.75
1660.817	1325.75
1665.302	1314.75
1669.783	1308.75
1674.259	1270.75
1678.732	1230.75
1683.199	1187.75
1687.663	1154.75
1692.122	1119.75
1696.577	1057.75
1701.028	1029.75
1705.474	984.75
1709.917	944.75
1714.355	932.75
1718.788	910.75
1723.218	898.75
1727.643	887.75
1732.064	863.75
1736.481	842.75
1740.893	824.75
1745.301	800.75
1749.705	787.75
1754.105	765.75
1758.501	734.75
1762.893	721.75
1767.28	717.75
1771.663	709.75
1776.042	701.75
1780.417	696.75
1784.787	691.75
1789.154	697.75
1793.516	693.75
1797.874	704.75
1802.228	694.75
1806.578	674.75
1810.924	684.75
1815.266	662.75
1819.603	657.75
1823.937	646.75
1828.266	647.75
1832.591	651.75
1836.913	642.75
1841.23	627.75
1845.543	642.75
1849.852	633.75
1854.156	635.75
1858.457	638.75
1862.754	643.75
1867.047	643.75
1871.335	655.75
1875.62	635.75
1879.9	657.75
1884.177	649.75
1888.449	635.75
1892.718	646.75
1896.982	628.75
1901.243	638.75
1905.499	641.75
1909.752	628.75
1914	622.75
1918.245	620.75
1922.485	629.75
1926.722	635.75
1930.954	631.75
1935.183	631.75
1939.408	634.75
1943.628	621.75
1947.845	645.75
1952.058	640.75
1956.267	631.75
1960.472	633.75
1964.673	627.75
1968.87	615.75
1973.063	614.75
1977.252	611.75
1981.438	610.75
1985.619	610.75
1989.797	607.75
1993.971	614.75
1998.14	611.75
2002.306	628.75
2006.469	621.75
2010.627	609.75
2014.781	628.75
2018.932	632.75
2023.078	636.75
2027.221	629.75
2031.36	623.75
2035.495	615.75
2039.627	608.75
2043.754	603.75
2047.878	603.75
2051.998	591.75
2056.114	603.75
2060.226	611.75
2064.334	604.75
2068.439	607.75
2072.54	618.75
2076.637	620.75
2080.73	615.75
2084.82	623.75
2088.906	622.75
2092.988	620.75
2097.066	612.75
2101.14	610.75
2105.211	606.75
2109.278	612.75
2113.342	599.75
2117.401	608.75
2121.457	602.75
2125.509	596.75
2129.558	599.75
2133.602	589.75
2137.643	598.75
2141.681	597.75
2145.714	596.75
2149.744	585.75
2153.77	578.75
2157.793	579.75
2161.812	581.75
2165.827	575.75
2169.838	560.75
2173.846	548.75
2177.851	550.75
2181.851	534.75
2185.848	541.75
2189.841	527.75
2193.831	529.75
2197.817	520.75
2201.799	516.75
2205.778	514.75
2209.753	510.75
2213.725	508.75
2217.693	499.75
2221.657	513.75
2225.618	516.75
2229.575	516.75
2233.529	511.75
2237.479	502.75
2241.425	498.75
2245.368	499.75
2249.307	484.75
2253.243	482.75
2257.175	474.75
2261.104	475.75
2265.029	469.75
2268.95	464.75
2272.868	459.75
2276.783	448.75
2280.694	443.75
2284.601	443.75
2288.505	442.75
2292.405	433.75
2296.302	415.75
2300.195	421.75
2304.085	420.75
2307.971	406.75
2311.854	401.75
2315.734	389.75
2319.609	389.75
2323.482	392.75
2327.351	381.75
2331.216	373.75
2335.078	385.75
2338.937	369.75
2342.792	370.75
2346.643	374.75
2350.492	367.75
2354.336	376.75
2358.178	362.75
2362.015	364.75
2365.85	376.75
2369.681	367.75
2373.508	373.75
2377.333	369.75
2381.153	368.75
2384.971	363.75
2388.785	366.75
2392.595	369.75
2396.402	362.75
2400.206	368.75
2404.007	359.75
2407.804	365.75
2411.597	355.75
2415.388	354.75
2419.174	352.75
2422.958	351.75
2426.738	352.75
2430.515	354.75
2434.289	350.75
2438.059	346.75
2441.825	341.75
2445.589	343.75
2449.349	346.75
2453.106	338.75
2456.859	338.75
2460.61	334.75
2464.356	334.75
2468.1	331.75
2471.84	324.75
2475.577	327.75
2479.311	316.75
2483.041	322.75
2486.768	323.75
2490.492	326.75
2494.213	322.75
2497.93	325.75
2501.644	327.75
2505.355	319.75
2509.062	325.75
2512.766	325.75
2516.467	323.75
2520.165	324.75
2523.859	314.75
2527.551	317.75
2531.239	304.75
2534.923	304.75
2538.605	295.75
2542.283	297.75
2545.958	301.75
2549.63	303.75
2553.299	300.75
2556.964	296.75
2560.626	298.75
2564.285	299.75
2567.941	289.75
2571.594	285.75
2575.243	286.75
2578.89	285.75
2582.533	280.75
2586.173	289.75
2589.809	278.75
2593.443	279.75
2597.073	279.75
2600.701	276.75
2604.325	272.75
2607.946	279.75
2611.564	263.75
2615.178	270.75
2618.79	268.75
2622.398	266.75
2626.004	266.75
2629.606	267.75
2633.205	270.75
2636.801	256.75
2640.394	260.75
2643.983	254.75
2647.57	249.75
2651.153	260.75
2654.734	256.75
2658.311	246.75
2661.885	250.75
2665.456	243.75
2669.025	250.75
2672.589	238.75
2676.151	240.75
2679.71	235.75
2683.266	233.75
2686.819	239.75
2690.368	234.75
2693.915	226.75
2697.458	229.75
2700.999	233.75
2704.536	227.75
2708.071	220.75
2711.602	215.75
2715.13	221.75
2718.656	216.75
2722.178	218.75
2725.697	217.75
2729.214	215.75
2732.727	217.75
2736.237	223.75
2739.744	212.75
2743.249	221.75
2746.75	216.75
2750.248	220.75
2753.743	219.75
2757.236	224.75
2760.725	211.75
2764.211	210.75
2767.695	222.75
2771.175	207.75
2774.652	213.75
2778.127	202.75
2781.598	207.75
2785.067	213.75
2788.532	202.75
2791.995	205.75
2795.455	211.75
2798.911	208.75
2802.365	225.75
2805.816	217.75
2809.264	220.75
2812.709	221.75
2816.151	218.75
2819.59	222.75
2823.026	220.75
2826.46	225.75
2829.89	221.75
2833.318	217.75
2836.742	220.75
2840.164	219.75
2843.583	222.75
2846.999	213.75
2850.412	219.75
2853.822	229.75
2857.229	225.75
2860.634	224.75
2864.035	230.75
2867.434	240.75
2870.83	233.75
2874.223	248.75
2877.613	248.75
2881	254.75
2884.385	252.75
2887.766	257.75
2891.145	251.75
2894.521	256.75
2897.894	264.75
2901.264	262.75
2904.631	251.75
2907.996	263.75
2911.358	260.75
2914.717	260.75
2918.073	257.75
2921.426	265.75
2924.777	273.75
2928.124	276.75
2931.469	278.75
2934.811	278.75
2938.15	284.75
2941.487	299.75
2944.821	291.75
2948.152	304.75
2951.48	306.75
2954.805	317.75
2958.128	321.75
2961.447	325.75
2964.765	322.75
2968.079	327.75
2971.39	333.75
2974.699	331.75
2978.005	345.75
2981.308	348.75
2984.609	363.75
2987.907	366.75
2991.202	381.75
2994.494	387.75
2997.784	391.75
3001.07	397.75
3004.355	422.75
3007.636	435.75
3010.915	425.75
3014.191	453.75
3017.464	462.75
3020.734	459.75
3024.002	477.75
3027.267	480.75
3030.53	486.75
3033.789	501.75
3037.046	498.75
3040.301	523.75
3043.552	531.75
3046.801	538.75
3050.048	554.75
3053.291	570.75
3056.532	575.75
3059.771	588.75
3063.006	620.75
3066.239	620.75
3069.469	648.75
3072.697	673.75
3075.922	686.75
3079.144	709.75
3082.364	721.75
3085.581	750.75
3088.795	757.75
3092.007	768.75
3095.216	785.75
3098.423	795.75
3101.627	823.75
3104.828	837.75
3108.026	855.75
3111.222	875.75
3114.416	895.75
3117.607	907.75
3120.795	923.75
3123.98	937.75
3127.163	970.75
3130.344	995.75
3133.521	1019.75
3136.696	1040.75
3139.869	1058.75
3143.039	1075.75
3146.206	1090.75
3149.371	1104.75
3152.533	1124.75
3155.693	1129.75
3158.85	1132.75
3162.005	1141.75
3165.157	1149.75
3168.306	1146.75
3171.453	1153.75
3174.597	1174.75
3177.739	1165.75
3180.878	1170.75
3184.014	1175.75
3187.149	1184.75
3190.28	1184.75
3193.409	1187.75
3196.536	1189.75
3199.659	1208.75
3202.781	1208.75
3205.9	1196.75
3209.016	1192.75
3212.13	1196.75
3215.241	1200.75
3218.35	1187.75
3221.456	1189.75
3224.56	1171.75
3227.661	1162.75
3230.76	1152.75
3233.856	1136.75
3236.95	1114.75
3240.041	1114.75
3243.13	1102.75
3246.216	1095.75
3249.3	1085.75
3252.382	1093.75
3255.46	1075.75
3258.537	1070.75
3261.611	1059.75
3264.682	1052.75
3267.751	1056.75
3270.818	1065.75
3273.882	1056.75
3276.943	1052.75
3280.002	1048.75
3283.059	1028.75
3286.113	1030.75
3289.165	1023.75
3292.214	1008.75
3295.261	972.75
3298.306	988.75
3301.348	953.75
3304.387	940.75
3307.425	942.75
3310.459	915.75
3313.492	913.75
3316.521	906.75
3319.549	892.75
3322.574	884.75
3325.597	874.75
3328.617	868.75
3331.635	868.75
3334.65	858.75
3337.663	849.75
3340.674	852.75
3343.682	855.75
3346.688	850.75
3349.691	844.75
3352.692	834.75
3355.691	833.75
3358.687	827.75
3361.681	828.75
3364.673	814.75
3367.662	808.75
3370.649	784.75
3373.633	789.75
3376.615	765.75
3379.595	759.75
3382.572	745.75
3385.547	758.75
3388.52	742.75
3391.49	735.75
3394.458	718.75
3397.424	716.75
3400.387	706.75
3403.348	704.75
3406.307	689.75
3409.263	684.75
3412.217	665.75
3415.168	663.75
3418.118	648.75
3421.065	651.75
3424.009	634.75
3426.951	627.75
3429.891	629.75
3432.829	621.75
3435.764	603.75
3438.697	587.75
3441.628	583.75
3444.557	561.75
3447.483	550.75
3450.407	535.75
3453.328	520.75
3456.247	507.75
3459.164	494.75
3462.079	481.75
3464.991	473.75
3467.902	463.75
3470.809	447.75
3473.715	430.75
3476.618	412.75
3479.519	410.75
3482.418	388.75
3485.315	384.75
3488.209	361.75
3491.101	362.75
3493.99	350.75
3496.878	334.75
3499.763	334.75
3502.646	316.75
3505.527	312.75
3508.405	310.75
3511.281	293.75
3514.155	275.75
3517.027	269.75
3519.897	272.75
3522.764	251.75
3525.629	241.75
3528.492	228.75
3531.352	217.75
3534.211	208.75
3537.067	192.75
3539.921	180.75
3542.773	173.75
3545.622	164.75
3548.469	160.75
3551.315	150.75
3554.157	133.75
3556.998	132.75
3559.837	128.75
3562.673	122.75
3565.507	114.75
3568.339	112.75
3571.169	99.75
3573.996	103.75
3576.822	95.75
3579.645	97.75
3582.466	85.75
3585.285	80.75
3588.101	76.75
3590.916	73.75
3593.728	60.75
3596.538	57.75
3599.346	55.75
3602.152	45.75
3604.956	43.75
3607.757	48.75
3610.556	34.75
3613.354	29.75
3616.149	28.75
3618.942	30.75
3621.732	22.75
3624.521	17.75
3627.307	17.75
3630.092	11.75
3632.874	6.75
3635.654	8.75
3638.432	2.75
3641.208	6.75
3643.982	7.75
3646.753	-0.25
3649.523	-4.25
3652.29	-1.25
3655.055	-13.25
3657.818	-11.25
3660.579	-15.25
3663.338	-16.25
3666.095	-22.25
3668.849	-15.25
3671.602	-22.25
3674.352	-24.25
3677.101	-26.25
3679.847	-28.25
3682.591	-28.25
3685.333	-31.25
3688.073	-34.25
3690.811	-36.25
3693.547	-38.25
3696.281	-38.25
3699.013	-39.25
3701.742	-43.25
3704.47	-40.25
3707.195	-42.25
3709.919	-46.25
3712.64	-43.25
3715.359	-47.25
3718.076	-45.25
3720.792	-42.25
3723.505	-49.25
3726.216	-50.25
3728.925	-46.25
3731.632	-50.25
3734.336	-52.25
3737.039	-57.25
3739.74	-55.25
3742.439	-56.25
3745.136	-60.25
3747.83	-58.25
3750.523	-57.25
3753.213	-56.25
3755.902	-60.25
3758.589	-57.25
3761.273	-59.25
3763.956	-55.25
3766.636	-57.25
3769.315	-59.25
3771.991	-55.25
3774.665	-55.25
3777.338	-56.25
3780.008	-57.25
3782.677	-58.25
3785.343	-61.25
3788.007	-58.25
3790.67	-62.25
3793.33	-64.25
3795.989	-62.25
3798.645	-62.25
3801.299	-68.25
3803.952	-66.25
3806.602	-64.25
3809.251	-69.25
3811.897	-66.25
3814.542	-65.25
3817.184	-72.25
3819.825	-64.25
3822.463	-68.25
3825.1	-66.25
3827.735	-69.25
3830.367	-66.25
3832.998	-68.25
3835.627	-67.25
3838.253	-66.25
3840.878	-63.25
3843.501	-65.25
3846.122	-64.25
3848.741	-67.25
3851.358	-67.25
3853.973	-67.25
3856.586	-67.25
3859.197	-65.25
3861.806	-70.25
3864.414	-72.25
3867.019	-73.25
3869.622	-72.25
3872.224	-70.25
3874.823	-70.25
3877.421	-70.25
3880.016	-66.25
3882.61	-63.25
3885.202	-63.25
3887.792	-62.25
3890.38	-66.25
3892.966	-65.25
3895.55	-69.25
3898.132	-67.25
3900.713	-65.25
3903.291	-69.25
3905.868	-70.25
3908.442	-68.25
3911.015	-68.25
3913.586	-71.25
3916.155	-72.25
3918.722	-74.25
3921.287	-71.25
3923.85	-73.25
3926.411	-78.25
3928.971	-73.25
3931.528	-77.25
3934.084	-76.25
3936.638	-72.25
3939.19	-73.25
3941.74	-71.25
3944.288	-73.25
3946.834	-74.25
3949.378	-72.25
3951.921	-73.25
3954.462	-70.25
3957	-67.25
3959.537	-70.25
3962.072	-70.25
3964.606	-68.25
3967.137	-71.25
3969.667	-72.25
3972.194	-74.25
3974.72	-72.25
3977.244	-71.25
3979.766	-71.25
3982.286	-73.25
3984.805	-75.25
3987.321	-73.25
3989.836	-74.25
3992.349	-71.25
3994.86	-71.25
3997.369	-74.25
3999.877	-69.25
4002.382	-69.25
4004.886	-68.25
4007.388	-72.25
4009.888	-71.25
4012.386	-65.25
4014.883	-67.25
4017.377	-68.25
4019.87	-68.25
4022.361	-70.25
4024.85	-68.25
4027.338	-68.25
4029.823	-73.25
4032.307	-74.25
4034.789	-70.25
4037.269	-73.25
4039.747	-74.25
4042.224	-76.25
4044.699	-77.25
4047.172	-75.25
4049.643	-74.25
4052.112	-77.25
4054.58	-72.25
4057.046	-72.25
4059.51	-73.25
4061.972	-71.25
4064.432	-70.25
4066.891	-69.25
4069.348	-69.25
4071.803	-67.25
4074.256	-70.25
4076.708	-74.25
4079.158	-68.25
4081.606	-71.25
4084.052	-71.25
4086.497	-75.25
4088.939	-74.25
4091.38	-71.25
4093.819	-72.25
4096.257	-77.25
4098.693	-82.25
4101.127	-78.25
4103.559	-75.25
4105.989	-20.25
4108.418	-16.25
4110.845	-17.25
4113.27	-15.25
4115.694	-11.25
4118.115	-3.25
4120.535	-75.25
4122.954	-71.25
4125.37	-73.25
4127.785	-73.25
4130.198	-72.25
4132.609	-74.25
4135.019	-77.25
4137.427	-77.25
4139.833	-78.25
4142.237	-77.25
