Data from Water_10000CFU_RamanShift_11-17-33-877.txt Node
Date: Sun Dec 18 11:17:33 IST 2016
User: aro
Spectrometer: QEPB0276
Trigger mode: 0
Integration Time (sec): 5.000000E0
Scans to average: 1
Electric dark correction enabled: true
Nonlinearity correction enabled: false
Boxcar width: 0
XAxis mode: Raman Shifts
Number of Pixels in Spectrum: 1044
>>>>>Begin Spectral Data<<<<<
160.701	-1.5
166.742	21.5
172.777	63.5
178.805	215.5
184.826	658.5
190.841	1539.5
196.849	2825.5
202.85	3967.5
208.845	4551.5
214.833	4513.5
220.815	4339.5
226.789	4188.5
232.758	4069.5
238.719	3911.5
244.674	3759.5
250.623	3594.5
256.565	3435.5
262.5	3267.5
268.429	3067.5
274.351	2935.5
280.267	2802.5
286.176	2692.5
292.079	2569.5
297.975	2467.5
303.865	2379.5
309.748	2301.5
315.625	2241.5
321.495	2174.5
327.359	2127.5
333.217	2106.5
339.068	2099.5
344.912	2075.5
350.751	2059.5
356.583	2061.5
362.408	2054.5
368.227	2045.5
374.04	2056.5
379.847	2057.5
385.647	2054.5
391.44	2078.5
397.228	2098.5
403.009	2110.5
408.784	2117.5
414.553	2122.5
420.315	2118.5
426.071	2119.5
431.821	2131.5
437.565	2135.5
443.302	2111.5
449.033	2121.5
454.758	2110.5
460.477	2088.5
466.189	2087.5
471.896	2070.5
477.596	2060.5
483.29	2029.5
488.978	2031.5
494.66	2011.5
500.335	2008.5
506.005	1963.5
511.668	1923.5
517.325	1880.5
522.977	1826.5
528.622	1807.5
534.261	1772.5
539.894	1754.5
545.521	1733.5
551.141	1719.5
556.756	1704.5
562.365	1682.5
567.968	1674.5
573.565	1676.5
579.155	1642.5
584.74	1645.5
590.319	1617.5
595.892	1611.5
601.459	1604.5
607.02	1600.5
612.575	1555.5
618.124	1554.5
623.667	1522.5
629.204	1506.5
634.735	1505.5
640.261	1490.5
645.781	1463.5
651.294	1464.5
656.802	1440.5
662.304	1422.5
667.8	1424.5
673.29	1426.5
678.775	1411.5
684.254	1396.5
689.726	1404.5
695.193	1381.5
700.655	1376.5
706.11	1357.5
711.56	1351.5
717.004	1348.5
722.442	1331.5
727.874	1303.5
733.301	1302.5
738.722	1303.5
744.137	1290.5
749.547	1284.5
754.951	1264.5
760.349	1267.5
765.741	1258.5
771.128	1277.5
776.509	1247.5
781.885	1262.5
787.254	1241.5
792.618	1250.5
797.977	1241.5
803.33	1213.5
808.677	1207.5
814.019	1189.5
819.355	1181.5
824.686	1150.5
830.011	1157.5
835.33	1140.5
840.644	1141.5
845.952	1120.5
851.255	1108.5
856.552	1085.5
861.844	1090.5
867.13	1066.5
872.41	1058.5
877.686	1061.5
882.955	1040.5
888.219	987.5
893.478	1002.5
898.731	981.5
903.979	967.5
909.221	937.5
914.458	939.5
919.69	925.5
924.916	900.5
930.136	908.5
935.351	906.5
940.561	905.5
945.766	890.5
950.965	892.5
956.158	868.5
961.347	864.5
966.529	846.5
971.707	842.5
976.879	805.5
982.046	812.5
987.208	806.5
992.364	806.5
997.515	818.5
1002.66	783.5
1007.801	795.5
1012.936	797.5
1018.066	807.5
1023.19	802.5
1028.309	807.5
1033.423	814.5
1038.532	812.5
1043.636	806.5
1048.734	803.5
1053.827	790.5
1058.915	777.5
1063.998	753.5
1069.075	767.5
1074.147	764.5
1079.214	762.5
1084.276	770.5
1089.333	783.5
1094.385	771.5
1099.431	781.5
1104.472	777.5
1109.509	774.5
1114.54	771.5
1119.565	761.5
1124.586	742.5
1129.602	745.5
1134.613	722.5
1139.618	728.5
1144.619	717.5
1149.614	726.5
1154.604	727.5
1159.589	732.5
1164.57	736.5
1169.545	728.5
1174.515	751.5
1179.48	728.5
1184.44	736.5
1189.395	723.5
1194.345	725.5
1199.29	713.5
1204.23	704.5
1209.165	704.5
1214.095	712.5
1219.021	717.5
1223.941	731.5
1228.856	723.5
1233.766	732.5
1238.672	733.5
1243.572	727.5
1248.467	739.5
1253.358	730.5
1258.244	720.5
1263.124	711.5
1268	690.5
1272.871	671.5
1277.737	668.5
1282.599	674.5
1287.455	657.5
1292.306	670.5
1297.153	668.5
1301.995	661.5
1306.832	674.5
1311.664	680.5
1316.491	677.5
1321.314	676.5
1326.132	674.5
1330.945	663.5
1335.753	643.5
1340.556	636.5
1345.354	625.5
1350.148	604.5
1354.937	599.5
1359.722	596.5
1364.501	613.5
1369.276	600.5
1374.046	607.5
1378.811	623.5
1383.572	625.5
1388.327	633.5
1393.079	623.5
1397.825	612.5
1402.567	596.5
1407.304	585.5
1412.036	583.5
1416.764	567.5
1421.487	567.5
1426.205	567.5
1430.919	582.5
1435.628	575.5
1440.333	572.5
1445.032	584.5
1449.727	589.5
1454.418	585.5
1459.104	584.5
1463.785	590.5
1468.462	577.5
1473.134	557.5
1477.802	567.5
1482.465	563.5
1487.123	559.5
1491.777	555.5
1496.426	574.5
1501.071	581.5
1505.711	582.5
1510.347	597.5
1514.978	618.5
1519.604	620.5
1524.226	630.5
1528.844	645.5
1533.457	637.5
1538.065	644.5
1542.669	642.5
1547.269	645.5
1551.864	647.5
1556.454	645.5
1561.041	654.5
1565.622	661.5
1570.199	664.5
1574.772	695.5
1579.34	705.5
1583.904	712.5
1588.464	734.5
1593.019	760.5
1597.569	774.5
1602.115	794.5
1606.657	798.5
1611.195	810.5
1615.728	826.5
1620.256	848.5
1624.78	864.5
1629.3	883.5
1633.816	892.5
1638.327	911.5
1642.834	932.5
1647.336	933.5
1651.834	944.5
1656.328	933.5
1660.817	936.5
1665.302	913.5
1669.783	901.5
1674.259	876.5
1678.732	841.5
1683.199	797.5
1687.663	752.5
1692.122	723.5
1696.577	685.5
1701.028	670.5
1705.474	637.5
1709.917	612.5
1714.355	606.5
1718.788	585.5
1723.218	557.5
1727.643	525.5
1732.064	497.5
1736.481	474.5
1740.893	462.5
1745.301	444.5
1749.705	425.5
1754.105	401.5
1758.501	382.5
1762.893	368.5
1767.28	356.5
1771.663	340.5
1776.042	338.5
1780.417	335.5
1784.787	330.5
1789.154	323.5
1793.516	326.5
1797.874	331.5
1802.228	336.5
1806.578	333.5
1810.924	326.5
1815.266	311.5
1819.603	332.5
1823.937	310.5
1828.266	305.5
1832.591	300.5
1836.913	281.5
1841.23	283.5
1845.543	286.5
1849.852	283.5
1854.156	285.5
1858.457	279.5
1862.754	279.5
1867.047	279.5
1871.335	286.5
1875.62	274.5
1879.9	287.5
1884.177	278.5
1888.449	278.5
1892.718	276.5
1896.982	275.5
1901.243	277.5
1905.499	276.5
1909.752	276.5
1914	276.5
1918.245	278.5
1922.485	282.5
1926.722	282.5
1930.954	290.5
1935.183	296.5
1939.408	293.5
1943.628	300.5
1947.845	295.5
1952.058	291.5
1956.267	308.5
1960.472	302.5
1964.673	308.5
1968.87	292.5
1973.063	292.5
1977.252	285.5
1981.438	279.5
1985.619	286.5
1989.797	285.5
1993.971	283.5
1998.14	283.5
2002.306	283.5
2006.469	280.5
2010.627	283.5
2014.781	289.5
2018.932	285.5
2023.078	288.5
2027.221	288.5
2031.36	298.5
2035.495	282.5
2039.627	280.5
2043.754	287.5
2047.878	282.5
2051.998	289.5
2056.114	288.5
2060.226	286.5
2064.334	292.5
2068.439	296.5
2072.54	300.5
2076.637	305.5
2080.73	307.5
2084.82	302.5
2088.906	312.5
2092.988	314.5
2097.066	309.5
2101.14	306.5
2105.211	315.5
2109.278	306.5
2113.342	311.5
2117.401	305.5
2121.457	300.5
2125.509	307.5
2129.558	301.5
2133.602	303.5
2137.643	300.5
2141.681	300.5
2145.714	298.5
2149.744	292.5
2153.77	287.5
2157.793	286.5
2161.812	269.5
2165.827	274.5
2169.838	267.5
2173.846	256.5
2177.851	252.5
2181.851	256.5
2185.848	254.5
2189.841	243.5
2193.831	237.5
2197.817	241.5
2201.799	230.5
2205.778	236.5
2209.753	230.5
2213.725	224.5
2217.693	225.5
2221.657	224.5
2225.618	213.5
2229.575	220.5
2233.529	220.5
2237.479	218.5
2241.425	215.5
2245.368	200.5
2249.307	207.5
2253.243	207.5
2257.175	199.5
2261.104	192.5
2265.029	185.5
2268.95	185.5
2272.868	183.5
2276.783	180.5
2280.694	170.5
2284.601	171.5
2288.505	161.5
2292.405	170.5
2296.302	167.5
2300.195	165.5
2304.085	161.5
2307.971	155.5
2311.854	149.5
2315.734	143.5
2319.609	141.5
2323.482	130.5
2327.351	135.5
2331.216	131.5
2335.078	132.5
2338.937	134.5
2342.792	133.5
2346.643	129.5
2350.492	135.5
2354.336	131.5
2358.178	129.5
2362.015	125.5
2365.85	127.5
2369.681	119.5
2373.508	119.5
2377.333	116.5
2381.153	117.5
2384.971	113.5
2388.785	120.5
2392.595	112.5
2396.402	113.5
2400.206	107.5
2404.007	110.5
2407.804	106.5
2411.597	111.5
2415.388	104.5
2419.174	103.5
2422.958	104.5
2426.738	103.5
2430.515	103.5
2434.289	102.5
2438.059	101.5
2441.825	104.5
2445.589	94.5
2449.349	101.5
2453.106	100.5
2456.859	97.5
2460.61	95.5
2464.356	89.5
2468.1	89.5
2471.84	86.5
2475.577	82.5
2479.311	85.5
2483.041	82.5
2486.768	80.5
2490.492	84.5
2494.213	85.5
2497.93	84.5
2501.644	87.5
2505.355	85.5
2509.062	82.5
2512.766	85.5
2516.467	84.5
2520.165	82.5
2523.859	79.5
2527.551	81.5
2531.239	73.5
2534.923	76.5
2538.605	80.5
2542.283	75.5
2545.958	73.5
2549.63	70.5
2553.299	75.5
2556.964	73.5
2560.626	82.5
2564.285	78.5
2567.941	69.5
2571.594	72.5
2575.243	67.5
2578.89	71.5
2582.533	72.5
2586.173	66.5
2589.809	69.5
2593.443	63.5
2597.073	68.5
2600.701	64.5
2604.325	66.5
2607.946	60.5
2611.564	58.5
2615.178	66.5
2618.79	63.5
2622.398	62.5
2626.004	58.5
2629.606	58.5
2633.205	62.5
2636.801	50.5
2640.394	61.5
2643.983	53.5
2647.57	62.5
2651.153	59.5
2654.734	56.5
2658.311	55.5
2661.885	62.5
2665.456	50.5
2669.025	50.5
2672.589	51.5
2676.151	47.5
2679.71	43.5
2683.266	51.5
2686.819	42.5
2690.368	44.5
2693.915	47.5
2697.458	48.5
2700.999	48.5
2704.536	52.5
2708.071	47.5
2711.602	44.5
2715.13	49.5
2718.656	50.5
2722.178	44.5
2725.697	43.5
2729.214	40.5
2732.727	49.5
2736.237	48.5
2739.744	48.5
2743.249	50.5
2746.75	48.5
2750.248	50.5
2753.743	50.5
2757.236	52.5
2760.725	57.5
2764.211	61.5
2767.695	63.5
2771.175	54.5
2774.652	62.5
2778.127	62.5
2781.598	59.5
2785.067	65.5
2788.532	68.5
2791.995	62.5
2795.455	64.5
2798.911	66.5
2802.365	68.5
2805.816	66.5
2809.264	69.5
2812.709	69.5
2816.151	74.5
2819.59	72.5
2823.026	71.5
2826.46	73.5
2829.89	76.5
2833.318	88.5
2836.742	82.5
2840.164	84.5
2843.583	91.5
2846.999	93.5
2850.412	89.5
2853.822	105.5
2857.229	103.5
2860.634	96.5
2864.035	104.5
2867.434	100.5
2870.83	107.5
2874.223	110.5
2877.613	111.5
2881	117.5
2884.385	114.5
2887.766	112.5
2891.145	123.5
2894.521	123.5
2897.894	127.5
2901.264	135.5
2904.631	141.5
2907.996	139.5
2911.358	145.5
2914.717	153.5
2918.073	153.5
2921.426	151.5
2924.777	163.5
2928.124	166.5
2931.469	157.5
2934.811	176.5
2938.15	177.5
2941.487	181.5
2944.821	194.5
2948.152	199.5
2951.48	195.5
2954.805	206.5
2958.128	222.5
2961.447	209.5
2964.765	227.5
2968.079	231.5
2971.39	241.5
2974.699	238.5
2978.005	258.5
2981.308	261.5
2984.609	281.5
2987.907	294.5
2991.202	301.5
2994.494	300.5
2997.784	331.5
3001.07	326.5
3004.355	347.5
3007.636	361.5
3010.915	371.5
3014.191	384.5
3017.464	397.5
3020.734	405.5
3024.002	421.5
3027.267	420.5
3030.53	429.5
3033.789	440.5
3037.046	453.5
3040.301	453.5
3043.552	483.5
3046.801	487.5
3050.048	509.5
3053.291	522.5
3056.532	543.5
3059.771	552.5
3063.006	573.5
3066.239	603.5
3069.469	618.5
3072.697	634.5
3075.922	652.5
3079.144	680.5
3082.364	692.5
3085.581	709.5
3088.795	729.5
3092.007	750.5
3095.216	768.5
3098.423	800.5
3101.627	817.5
3104.828	833.5
3108.026	852.5
3111.222	885.5
3114.416	908.5
3117.607	922.5
3120.795	939.5
3123.98	967.5
3127.163	991.5
3130.344	1016.5
3133.521	1042.5
3136.696	1059.5
3139.869	1094.5
3143.039	1121.5
3146.206	1129.5
3149.371	1157.5
3152.533	1175.5
3155.693	1176.5
3158.85	1180.5
3162.005	1197.5
3165.157	1214.5
3168.306	1199.5
3171.453	1192.5
3174.597	1211.5
3177.739	1218.5
3180.878	1220.5
3184.014	1224.5
3187.149	1233.5
3190.28	1241.5
3193.409	1249.5
3196.536	1243.5
3199.659	1226.5
3202.781	1255.5
3205.9	1247.5
3209.016	1256.5
3212.13	1252.5
3215.241	1247.5
3218.35	1240.5
3221.456	1229.5
3224.56	1210.5
3227.661	1205.5
3230.76	1197.5
3233.856	1180.5
3236.95	1162.5
3240.041	1167.5
3243.13	1154.5
3246.216	1152.5
3249.3	1143.5
3252.382	1137.5
3255.46	1130.5
3258.537	1137.5
3261.611	1127.5
3264.682	1122.5
3267.751	1127.5
3270.818	1102.5
3273.882	1101.5
3276.943	1095.5
3280.002	1076.5
3283.059	1085.5
3286.113	1074.5
3289.165	1047.5
3292.214	1045.5
3295.261	1036.5
3298.306	1003.5
3301.348	991.5
3304.387	995.5
3307.425	977.5
3310.459	961.5
3313.492	951.5
3316.521	950.5
3319.549	924.5
3322.574	919.5
3325.597	917.5
3328.617	896.5
3331.635	892.5
3334.65	899.5
3337.663	882.5
3340.674	880.5
3343.682	884.5
3346.688	878.5
3349.691	876.5
3352.692	857.5
3355.691	869.5
3358.687	851.5
3361.681	845.5
3364.673	843.5
3367.662	826.5
3370.649	815.5
3373.633	816.5
3376.615	792.5
3379.595	790.5
3382.572	792.5
3385.547	777.5
3388.52	768.5
3391.49	757.5
3394.458	742.5
3397.424	732.5
3400.387	728.5
3403.348	717.5
3406.307	715.5
3409.263	705.5
3412.217	691.5
3415.168	688.5
3418.118	675.5
3421.065	678.5
3424.009	676.5
3426.951	653.5
3429.891	655.5
3432.829	644.5
3435.764	612.5
3438.697	609.5
3441.628	594.5
3444.557	587.5
3447.483	569.5
3450.407	549.5
3453.328	551.5
3456.247	528.5
3459.164	506.5
3462.079	493.5
3464.991	480.5
3467.902	475.5
3470.809	455.5
3473.715	447.5
3476.618	427.5
3479.519	413.5
3482.418	411.5
3485.315	395.5
3488.209	386.5
3491.101	373.5
3493.99	365.5
3496.878	355.5
3499.763	350.5
3502.646	336.5
3505.527	325.5
3508.405	308.5
3511.281	307.5
3514.155	298.5
3517.027	287.5
3519.897	270.5
3522.764	262.5
3525.629	243.5
3528.492	230.5
3531.352	220.5
3534.211	210.5
3537.067	197.5
3539.921	186.5
3542.773	178.5
3545.622	167.5
3548.469	159.5
3551.315	151.5
3554.157	143.5
3556.998	139.5
3559.837	131.5
3562.673	132.5
3565.507	123.5
3568.339	111.5
3571.169	107.5
3573.996	103.5
3576.822	97.5
3579.645	88.5
3582.466	80.5
3585.285	81.5
3588.101	68.5
3590.916	68.5
3593.728	63.5
3596.538	61.5
3599.346	52.5
3602.152	48.5
3604.956	37.5
3607.757	40.5
3610.556	33.5
3613.354	25.5
3616.149	28.5
3618.942	22.5
3621.732	22.5
3624.521	18.5
3627.307	16.5
3630.092	16.5
3632.874	13.5
3635.654	9.5
3638.432	-0.5
3641.208	-2.5
3643.982	-2.5
3646.753	-9.5
3649.523	-9.5
3652.29	-14.5
3655.055	-15.5
3657.818	-18.5
3660.579	-25.5
3663.338	-22.5
3666.095	-19.5
3668.849	-23.5
3671.602	-24.5
3674.352	-24.5
3677.101	-24.5
3679.847	-29.5
3682.591	-36.5
3685.333	-31.5
3688.073	-39.5
3690.811	-41.5
3693.547	-45.5
3696.281	-45.5
3699.013	-48.5
3701.742	-48.5
3704.47	-48.5
3707.195	-45.5
3709.919	-49.5
3712.64	-47.5
3715.359	-50.5
3718.076	-45.5
3720.792	-53.5
3723.505	-51.5
3726.216	-55.5
3728.925	-54.5
3731.632	-52.5
3734.336	-57.5
3737.039	-57.5
3739.74	-56.5
3742.439	-61.5
3745.136	-59.5
3747.83	-56.5
3750.523	-61.5
3753.213	-60.5
3755.902	-58.5
3758.589	-61.5
3761.273	-61.5
3763.956	-63.5
3766.636	-64.5
3769.315	-63.5
3771.991	-65.5
3774.665	-65.5
3777.338	-65.5
3780.008	-63.5
3782.677	-62.5
3785.343	-63.5
3788.007	-62.5
3790.67	-64.5
3793.33	-68.5
3795.989	-66.5
3798.645	-63.5
3801.299	-67.5
3803.952	-73.5
3806.602	-72.5
3809.251	-70.5
3811.897	-71.5
3814.542	-71.5
3817.184	-68.5
3819.825	-64.5
3822.463	-66.5
3825.1	-66.5
3827.735	-69.5
3830.367	-66.5
3832.998	-72.5
3835.627	-69.5
3838.253	-68.5
3840.878	-70.5
3843.501	-71.5
3846.122	-72.5
3848.741	-73.5
3851.358	-70.5
3853.973	-72.5
3856.586	-71.5
3859.197	-70.5
3861.806	-70.5
3864.414	-75.5
3867.019	-69.5
3869.622	-67.5
3872.224	-71.5
3874.823	-68.5
3877.421	-70.5
3880.016	-65.5
3882.61	-66.5
3885.202	-61.5
3887.792	-63.5
3890.38	-63.5
3892.966	-72.5
3895.55	-69.5
3898.132	-68.5
3900.713	-70.5
3903.291	-70.5
3905.868	-74.5
3908.442	-73.5
3911.015	-77.5
3913.586	-75.5
3916.155	-77.5
3918.722	-71.5
3921.287	-78.5
3923.85	-75.5
3926.411	-71.5
3928.971	-74.5
3931.528	-71.5
3934.084	-74.5
3936.638	-73.5
3939.19	-71.5
3941.74	-71.5
3944.288	-75.5
3946.834	-73.5
3949.378	-78.5
3951.921	-71.5
3954.462	-77.5
3957	-78.5
3959.537	-73.5
3962.072	-74.5
3964.606	-73.5
3967.137	-72.5
3969.667	-74.5
3972.194	-72.5
3974.72	-76.5
3977.244	-72.5
3979.766	-70.5
3982.286	-71.5
3984.805	-73.5
3987.321	-73.5
3989.836	-72.5
3992.349	-76.5
3994.86	-73.5
3997.369	-73.5
3999.877	-70.5
4002.382	-74.5
4004.886	-71.5
4007.388	-68.5
4009.888	-71.5
4012.386	-72.5
4014.883	-74.5
4017.377	-75.5
4019.87	-72.5
4022.361	-75.5
4024.85	-74.5
4027.338	-71.5
4029.823	-73.5
4032.307	-74.5
4034.789	-73.5
4037.269	-72.5
4039.747	-75.5
4042.224	-70.5
4044.699	-77.5
4047.172	-69.5
4049.643	-73.5
4052.112	-73.5
4054.58	-77.5
4057.046	-78.5
4059.51	-77.5
4061.972	-76.5
4064.432	-71.5
4066.891	-76.5
4069.348	-71.5
4071.803	-68.5
4074.256	-70.5
4076.708	-71.5
4079.158	-72.5
4081.606	-72.5
4084.052	-69.5
4086.497	-71.5
4088.939	-72.5
4091.38	-77.5
4093.819	-74.5
4096.257	-78.5
4098.693	-76.5
4101.127	-76.5
4103.559	-77.5
4105.989	-15.5
4108.418	-15.5
4110.845	-13.5
4113.27	-13.5
4115.694	-5.5
4118.115	-2.5
4120.535	-77.5
4122.954	-76.5
4125.37	-74.5
4127.785	-76.5
4130.198	-74.5
4132.609	-74.5
4135.019	-75.5
4137.427	-75.5
4139.833	-74.5
4142.237	-73.5
