Data from Water3_RamanShift_11-11-18-915_RamanShift_14-16-14-809.txt Node
Date: Sun Dec 18 14:16:14 IST 2016
User: aro
Spectrometer: QEPB0276
Trigger mode: 0
Integration Time (sec): 5.000000E0
Scans to average: 1
Electric dark correction enabled: true
Nonlinearity correction enabled: false
Boxcar width: 0
XAxis mode: Raman Shifts
Number of Pixels in Spectrum: 1044
>>>>>Begin Spectral Data<<<<<
160.701	1.38
166.742	20.38
172.777	61.38
178.805	199.38
184.826	604.38
190.841	1479.38
196.849	2717.38
202.85	3866.38
208.845	4466.38
214.833	4504.38
220.815	4296.38
226.789	4133.38
232.758	4047.38
238.719	3912.38
244.674	3786.38
250.623	3645.38
256.565	3481.38
262.5	3319.38
268.429	3158.38
274.351	3038.38
280.267	2894.38
286.176	2784.38
292.079	2691.38
297.975	2606.38
303.865	2518.38
309.748	2423.38
315.625	2367.38
321.495	2307.38
327.359	2262.38
333.217	2234.38
339.068	2206.38
344.912	2180.38
350.751	2177.38
356.583	2163.38
362.408	2167.38
368.227	2177.38
374.04	2157.38
379.847	2171.38
385.647	2172.38
391.44	2181.38
397.228	2193.38
403.009	2218.38
408.784	2224.38
414.553	2228.38
420.315	2230.38
426.071	2234.38
431.821	2216.38
437.565	2227.38
443.302	2210.38
449.033	2219.38
454.758	2206.38
460.477	2201.38
466.189	2188.38
471.896	2195.38
477.596	2172.38
483.29	2173.38
488.978	2151.38
494.66	2159.38
500.335	2117.38
506.005	2090.38
511.668	2042.38
517.325	2018.38
522.977	1996.38
528.622	1956.38
534.261	1936.38
539.894	1921.38
545.521	1877.38
551.141	1876.38
556.756	1879.38
562.365	1875.38
567.968	1852.38
573.565	1837.38
579.155	1836.38
584.74	1820.38
590.319	1813.38
595.892	1798.38
601.459	1766.38
607.02	1775.38
612.575	1758.38
618.124	1750.38
623.667	1717.38
629.204	1707.38
634.735	1702.38
640.261	1661.38
645.781	1668.38
651.294	1645.38
656.802	1645.38
662.304	1630.38
667.8	1627.38
673.29	1641.38
678.775	1625.38
684.254	1605.38
689.726	1601.38
695.193	1595.38
700.655	1587.38
706.11	1570.38
711.56	1570.38
717.004	1566.38
722.442	1545.38
727.874	1531.38
733.301	1524.38
738.722	1501.38
744.137	1503.38
749.547	1510.38
754.951	1505.38
760.349	1502.38
765.741	1504.38
771.128	1501.38
776.509	1476.38
781.885	1494.38
787.254	1496.38
792.618	1474.38
797.977	1466.38
803.33	1464.38
808.677	1457.38
814.019	1430.38
819.355	1413.38
824.686	1411.38
830.011	1395.38
835.33	1397.38
840.644	1385.38
845.952	1390.38
851.255	1358.38
856.552	1365.38
861.844	1355.38
867.13	1356.38
872.41	1328.38
877.686	1342.38
882.955	1308.38
888.219	1309.38
893.478	1284.38
898.731	1253.38
903.979	1241.38
909.221	1239.38
914.458	1222.38
919.69	1198.38
924.916	1211.38
930.136	1207.38
935.351	1186.38
940.561	1195.38
945.766	1206.38
950.965	1195.38
956.158	1196.38
961.347	1178.38
966.529	1149.38
971.707	1146.38
976.879	1124.38
982.046	1118.38
987.208	1096.38
992.364	1104.38
997.515	1112.38
1002.66	1100.38
1007.801	1114.38
1012.936	1118.38
1018.066	1118.38
1023.19	1133.38
1028.309	1143.38
1033.423	1137.38
1038.532	1136.38
1043.636	1133.38
1048.734	1125.38
1053.827	1115.38
1058.915	1096.38
1063.998	1097.38
1069.075	1092.38
1074.147	1087.38
1079.214	1090.38
1084.276	1101.38
1089.333	1092.38
1094.385	1115.38
1099.431	1115.38
1104.472	1119.38
1109.509	1120.38
1114.54	1117.38
1119.565	1103.38
1124.586	1087.38
1129.602	1080.38
1134.613	1073.38
1139.618	1064.38
1144.619	1063.38
1149.614	1054.38
1154.604	1064.38
1159.589	1072.38
1164.57	1072.38
1169.545	1087.38
1174.515	1076.38
1179.48	1079.38
1184.44	1077.38
1189.395	1081.38
1194.345	1052.38
1199.29	1062.38
1204.23	1050.38
1209.165	1067.38
1214.095	1055.38
1219.021	1074.38
1223.941	1080.38
1228.856	1089.38
1233.766	1094.38
1238.672	1086.38
1243.572	1098.38
1248.467	1090.38
1253.358	1081.38
1258.244	1082.38
1263.124	1058.38
1268	1038.38
1272.871	1052.38
1277.737	1021.38
1282.599	1013.38
1287.455	1030.38
1292.306	1010.38
1297.153	1018.38
1301.995	1027.38
1306.832	1044.38
1311.664	1038.38
1316.491	1045.38
1321.314	1045.38
1326.132	1038.38
1330.945	1028.38
1335.753	1018.38
1340.556	1006.38
1345.354	984.38
1350.148	980.38
1354.937	978.38
1359.722	966.38
1364.501	944.38
1369.276	939.38
1374.046	935.38
1378.811	941.38
1383.572	950.38
1388.327	944.38
1393.079	919.38
1397.825	951.38
1402.567	926.38
1407.304	922.38
1412.036	930.38
1416.764	902.38
1421.487	907.38
1426.205	916.38
1430.919	904.38
1435.628	930.38
1440.333	933.38
1445.032	949.38
1449.727	942.38
1454.418	955.38
1459.104	969.38
1463.785	967.38
1468.462	950.38
1473.134	941.38
1477.802	920.38
1482.465	931.38
1487.123	916.38
1491.777	928.38
1496.426	915.38
1501.071	918.38
1505.711	927.38
1510.347	930.38
1514.978	956.38
1519.604	951.38
1524.226	967.38
1528.844	965.38
1533.457	970.38
1538.065	973.38
1542.669	964.38
1547.269	962.38
1551.864	955.38
1556.454	953.38
1561.041	978.38
1565.622	996.38
1570.199	1005.38
1574.772	1003.38
1579.34	1043.38
1583.904	1042.38
1588.464	1078.38
1593.019	1086.38
1597.569	1107.38
1602.115	1111.38
1606.657	1140.38
1611.195	1150.38
1615.728	1158.38
1620.256	1154.38
1624.78	1182.38
1629.3	1197.38
1633.816	1207.38
1638.327	1246.38
1642.834	1245.38
1647.336	1271.38
1651.834	1254.38
1656.328	1258.38
1660.817	1253.38
1665.302	1254.38
1669.783	1232.38
1674.259	1204.38
1678.732	1164.38
1683.199	1132.38
1687.663	1096.38
1692.122	1050.38
1696.577	1014.38
1701.028	965.38
1705.474	921.38
1709.917	893.38
1714.355	857.38
1718.788	849.38
1723.218	838.38
1727.643	808.38
1732.064	799.38
1736.481	780.38
1740.893	775.38
1745.301	759.38
1749.705	724.38
1754.105	714.38
1758.501	698.38
1762.893	680.38
1767.28	667.38
1771.663	659.38
1776.042	657.38
1780.417	656.38
1784.787	655.38
1789.154	652.38
1793.516	643.38
1797.874	655.38
1802.228	650.38
1806.578	645.38
1810.924	630.38
1815.266	623.38
1819.603	627.38
1823.937	597.38
1828.266	599.38
1832.591	594.38
1836.913	583.38
1841.23	579.38
1845.543	595.38
1849.852	582.38
1854.156	592.38
1858.457	594.38
1862.754	603.38
1867.047	602.38
1871.335	600.38
1875.62	598.38
1879.9	598.38
1884.177	599.38
1888.449	594.38
1892.718	598.38
1896.982	607.38
1901.243	582.38
1905.499	587.38
1909.752	599.38
1914	586.38
1918.245	580.38
1922.485	578.38
1926.722	584.38
1930.954	584.38
1935.183	600.38
1939.408	594.38
1943.628	601.38
1947.845	594.38
1952.058	597.38
1956.267	595.38
1960.472	583.38
1964.673	581.38
1968.87	583.38
1973.063	563.38
1977.252	568.38
1981.438	565.38
1985.619	568.38
1989.797	575.38
1993.971	575.38
1998.14	567.38
2002.306	573.38
2006.469	595.38
2010.627	573.38
2014.781	581.38
2018.932	584.38
2023.078	578.38
2027.221	588.38
2031.36	570.38
2035.495	579.38
2039.627	578.38
2043.754	569.38
2047.878	554.38
2051.998	579.38
2056.114	569.38
2060.226	568.38
2064.334	574.38
2068.439	575.38
2072.54	570.38
2076.637	574.38
2080.73	577.38
2084.82	576.38
2088.906	580.38
2092.988	578.38
2097.066	569.38
2101.14	574.38
2105.211	565.38
2109.278	564.38
2113.342	560.38
2117.401	563.38
2121.457	563.38
2125.509	555.38
2129.558	555.38
2133.602	552.38
2137.643	556.38
2141.681	560.38
2145.714	558.38
2149.744	552.38
2153.77	561.38
2157.793	544.38
2161.812	541.38
2165.827	536.38
2169.838	518.38
2173.846	527.38
2177.851	510.38
2181.851	517.38
2185.848	503.38
2189.841	500.38
2193.831	489.38
2197.817	485.38
2201.799	488.38
2205.778	487.38
2209.753	473.38
2213.725	486.38
2217.693	477.38
2221.657	481.38
2225.618	482.38
2229.575	482.38
2233.529	472.38
2237.479	474.38
2241.425	468.38
2245.368	458.38
2249.307	460.38
2253.243	450.38
2257.175	445.38
2261.104	437.38
2265.029	437.38
2268.95	430.38
2272.868	420.38
2276.783	420.38
2280.694	411.38
2284.601	409.38
2288.505	410.38
2292.405	401.38
2296.302	396.38
2300.195	401.38
2304.085	385.38
2307.971	366.38
2311.854	374.38
2315.734	377.38
2319.609	359.38
2323.482	360.38
2327.351	357.38
2331.216	360.38
2335.078	350.38
2338.937	351.38
2342.792	347.38
2346.643	345.38
2350.492	345.38
2354.336	340.38
2358.178	346.38
2362.015	344.38
2365.85	351.38
2369.681	340.38
2373.508	337.38
2377.333	349.38
2381.153	349.38
2384.971	338.38
2388.785	343.38
2392.595	350.38
2396.402	350.38
2400.206	341.38
2404.007	332.38
2407.804	331.38
2411.597	333.38
2415.388	338.38
2419.174	333.38
2422.958	333.38
2426.738	337.38
2430.515	325.38
2434.289	327.38
2438.059	336.38
2441.825	321.38
2445.589	325.38
2449.349	321.38
2453.106	314.38
2456.859	313.38
2460.61	312.38
2464.356	304.38
2468.1	305.38
2471.84	304.38
2475.577	303.38
2479.311	302.38
2483.041	299.38
2486.768	295.38
2490.492	310.38
2494.213	304.38
2497.93	295.38
2501.644	312.38
2505.355	307.38
2509.062	308.38
2512.766	302.38
2516.467	295.38
2520.165	304.38
2523.859	294.38
2527.551	290.38
2531.239	284.38
2534.923	284.38
2538.605	292.38
2542.283	284.38
2545.958	282.38
2549.63	276.38
2553.299	274.38
2556.964	278.38
2560.626	274.38
2564.285	271.38
2567.941	270.38
2571.594	270.38
2575.243	256.38
2578.89	263.38
2582.533	259.38
2586.173	273.38
2589.809	263.38
2593.443	258.38
2597.073	263.38
2600.701	253.38
2604.325	260.38
2607.946	258.38
2611.564	260.38
2615.178	260.38
2618.79	252.38
2622.398	250.38
2626.004	249.38
2629.606	251.38
2633.205	251.38
2636.801	243.38
2640.394	234.38
2643.983	248.38
2647.57	240.38
2651.153	246.38
2654.734	237.38
2658.311	234.38
2661.885	235.38
2665.456	231.38
2669.025	230.38
2672.589	230.38
2676.151	227.38
2679.71	233.38
2683.266	228.38
2686.819	224.38
2690.368	226.38
2693.915	218.38
2697.458	220.38
2700.999	216.38
2704.536	208.38
2708.071	204.38
2711.602	203.38
2715.13	199.38
2718.656	203.38
2722.178	202.38
2725.697	211.38
2729.214	197.38
2732.727	210.38
2736.237	208.38
2739.744	204.38
2743.249	211.38
2746.75	206.38
2750.248	211.38
2753.743	207.38
2757.236	210.38
2760.725	204.38
2764.211	206.38
2767.695	203.38
2771.175	198.38
2774.652	194.38
2778.127	194.38
2781.598	192.38
2785.067	195.38
2788.532	200.38
2791.995	203.38
2795.455	198.38
2798.911	196.38
2802.365	200.38
2805.816	207.38
2809.264	208.38
2812.709	207.38
2816.151	202.38
2819.59	204.38
2823.026	200.38
2826.46	210.38
2829.89	206.38
2833.318	207.38
2836.742	209.38
2840.164	213.38
2843.583	210.38
2846.999	208.38
2850.412	212.38
2853.822	221.38
2857.229	220.38
2860.634	217.38
2864.035	221.38
2867.434	223.38
2870.83	232.38
2874.223	232.38
2877.613	239.38
2881	235.38
2884.385	238.38
2887.766	258.38
2891.145	245.38
2894.521	243.38
2897.894	249.38
2901.264	247.38
2904.631	251.38
2907.996	252.38
2911.358	248.38
2914.717	247.38
2918.073	250.38
2921.426	262.38
2924.777	260.38
2928.124	272.38
2931.469	274.38
2934.811	269.38
2938.15	275.38
2941.487	290.38
2944.821	285.38
2948.152	291.38
2951.48	300.38
2954.805	299.38
2958.128	297.38
2961.447	312.38
2964.765	314.38
2968.079	311.38
2971.39	322.38
2974.699	333.38
2978.005	331.38
2981.308	345.38
2984.609	343.38
2987.907	360.38
2991.202	372.38
2994.494	375.38
2997.784	383.38
3001.07	398.38
3004.355	416.38
3007.636	407.38
3010.915	426.38
3014.191	434.38
3017.464	441.38
3020.734	449.38
3024.002	459.38
3027.267	473.38
3030.53	474.38
3033.789	487.38
3037.046	488.38
3040.301	505.38
3043.552	511.38
3046.801	524.38
3050.048	535.38
3053.291	553.38
3056.532	568.38
3059.771	581.38
3063.006	592.38
3066.239	610.38
3069.469	634.38
3072.697	650.38
3075.922	664.38
3079.144	686.38
3082.364	700.38
3085.581	725.38
3088.795	733.38
3092.007	750.38
3095.216	764.38
3098.423	779.38
3101.627	799.38
3104.828	831.38
3108.026	826.38
3111.222	857.38
3114.416	864.38
3117.607	887.38
3120.795	890.38
3123.98	913.38
3127.163	959.38
3130.344	959.38
3133.521	988.38
3136.696	1000.38
3139.869	1025.38
3143.039	1057.38
3146.206	1063.38
3149.371	1073.38
3152.533	1092.38
3155.693	1093.38
3158.85	1108.38
3162.005	1118.38
3165.157	1130.38
3168.306	1122.38
3171.453	1128.38
3174.597	1131.38
3177.739	1136.38
3180.878	1145.38
3184.014	1145.38
3187.149	1151.38
3190.28	1138.38
3193.409	1159.38
3196.536	1162.38
3199.659	1161.38
3202.781	1162.38
3205.9	1184.38
3209.016	1172.38
3212.13	1168.38
3215.241	1161.38
3218.35	1169.38
3221.456	1155.38
3224.56	1134.38
3227.661	1127.38
3230.76	1125.38
3233.856	1112.38
3236.95	1100.38
3240.041	1100.38
3243.13	1074.38
3246.216	1069.38
3249.3	1064.38
3252.382	1070.38
3255.46	1043.38
3258.537	1040.38
3261.611	1040.38
3264.682	1029.38
3267.751	1035.38
3270.818	1030.38
3273.882	1041.38
3276.943	1040.38
3280.002	1018.38
3283.059	1009.38
3286.113	1001.38
3289.165	983.38
3292.214	978.38
3295.261	972.38
3298.306	953.38
3301.348	926.38
3304.387	931.38
3307.425	912.38
3310.459	894.38
3313.492	895.38
3316.521	879.38
3319.549	882.38
3322.574	864.38
3325.597	860.38
3328.617	854.38
3331.635	852.38
3334.65	837.38
3337.663	837.38
3340.674	832.38
3343.682	838.38
3346.688	836.38
3349.691	824.38
3352.692	818.38
3355.691	818.38
3358.687	811.38
3361.681	792.38
3364.673	801.38
3367.662	774.38
3370.649	784.38
3373.633	757.38
3376.615	759.38
3379.595	736.38
3382.572	734.38
3385.547	727.38
3388.52	720.38
3391.49	697.38
3394.458	693.38
3397.424	693.38
3400.387	680.38
3403.348	676.38
3406.307	669.38
3409.263	659.38
3412.217	652.38
3415.168	647.38
3418.118	647.38
3421.065	631.38
3424.009	625.38
3426.951	623.38
3429.891	607.38
3432.829	604.38
3435.764	580.38
3438.697	580.38
3441.628	567.38
3444.557	547.38
3447.483	533.38
3450.407	532.38
3453.328	518.38
3456.247	505.38
3459.164	487.38
3462.079	478.38
3464.991	454.38
3467.902	443.38
3470.809	443.38
3473.715	409.38
3476.618	416.38
3479.519	388.38
3482.418	382.38
3485.315	374.38
3488.209	360.38
3491.101	351.38
3493.99	339.38
3496.878	342.38
3499.763	333.38
3502.646	317.38
3505.527	303.38
3508.405	301.38
3511.281	280.38
3514.155	273.38
3517.027	265.38
3519.897	256.38
3522.764	241.38
3525.629	236.38
3528.492	231.38
3531.352	221.38
3534.211	209.38
3537.067	196.38
3539.921	191.38
3542.773	179.38
3545.622	172.38
3548.469	160.38
3551.315	153.38
3554.157	137.38
3556.998	137.38
3559.837	131.38
3562.673	120.38
3565.507	114.38
3568.339	114.38
3571.169	105.38
3573.996	97.38
3576.822	94.38
3579.645	88.38
3582.466	84.38
3585.285	79.38
3588.101	74.38
3590.916	69.38
3593.728	64.38
3596.538	56.38
3599.346	57.38
3602.152	54.38
3604.956	50.38
3607.757	48.38
3610.556	41.38
3613.354	39.38
3616.149	31.38
3618.942	29.38
3621.732	22.38
3624.521	24.38
3627.307	19.38
3630.092	20.38
3632.874	7.38
3635.654	6.38
3638.432	10.38
3641.208	5.38
3643.982	-0.62
3646.753	-3.62
3649.523	-2.62
3652.29	-4.62
3655.055	-6.62
3657.818	-4.62
3660.579	-9.62
3663.338	-13.62
3666.095	-15.62
3668.849	-11.62
3671.602	-19.62
3674.352	-21.62
3677.101	-21.62
3679.847	-25.62
3682.591	-27.62
3685.333	-32.62
3688.073	-34.62
3690.811	-34.62
3693.547	-34.62
3696.281	-38.62
3699.013	-40.62
3701.742	-40.62
3704.47	-39.62
3707.195	-40.62
3709.919	-42.62
3712.64	-41.62
3715.359	-45.62
3718.076	-43.62
3720.792	-43.62
3723.505	-45.62
3726.216	-43.62
3728.925	-42.62
3731.632	-45.62
3734.336	-49.62
3737.039	-46.62
3739.74	-49.62
3742.439	-51.62
3745.136	-56.62
3747.83	-55.62
3750.523	-54.62
3753.213	-53.62
3755.902	-58.62
3758.589	-54.62
3761.273	-57.62
3763.956	-58.62
3766.636	-57.62
3769.315	-59.62
3771.991	-54.62
3774.665	-52.62
3777.338	-60.62
3780.008	-56.62
3782.677	-53.62
3785.343	-58.62
3788.007	-55.62
3790.67	-56.62
3793.33	-60.62
3795.989	-55.62
3798.645	-57.62
3801.299	-59.62
3803.952	-58.62
3806.602	-62.62
3809.251	-65.62
3811.897	-61.62
3814.542	-63.62
3817.184	-66.62
3819.825	-64.62
3822.463	-64.62
3825.1	-64.62
3827.735	-66.62
3830.367	-65.62
3832.998	-65.62
3835.627	-61.62
3838.253	-67.62
3840.878	-62.62
3843.501	-61.62
3846.122	-62.62
3848.741	-61.62
3851.358	-62.62
3853.973	-61.62
3856.586	-63.62
3859.197	-61.62
3861.806	-66.62
3864.414	-65.62
3867.019	-67.62
3869.622	-69.62
3872.224	-64.62
3874.823	-65.62
3877.421	-66.62
3880.016	-63.62
3882.61	-62.62
3885.202	-60.62
3887.792	-59.62
3890.38	-63.62
3892.966	-62.62
3895.55	-66.62
3898.132	-65.62
3900.713	-64.62
3903.291	-62.62
3905.868	-67.62
3908.442	-65.62
3911.015	-62.62
3913.586	-64.62
3916.155	-65.62
3918.722	-68.62
3921.287	-65.62
3923.85	-66.62
3926.411	-72.62
3928.971	-71.62
3931.528	-72.62
3934.084	-72.62
3936.638	-72.62
3939.19	-72.62
3941.74	-64.62
3944.288	-70.62
3946.834	-69.62
3949.378	-68.62
3951.921	-67.62
3954.462	-69.62
3957	-65.62
3959.537	-68.62
3962.072	-67.62
3964.606	-64.62
3967.137	-68.62
3969.667	-65.62
3972.194	-70.62
3974.72	-70.62
3977.244	-65.62
3979.766	-69.62
3982.286	-66.62
3984.805	-72.62
3987.321	-71.62
3989.836	-72.62
3992.349	-70.62
3994.86	-68.62
3997.369	-70.62
3999.877	-66.62
4002.382	-64.62
4004.886	-64.62
4007.388	-67.62
4009.888	-67.62
4012.386	-61.62
4014.883	-64.62
4017.377	-65.62
4019.87	-68.62
4022.361	-66.62
4024.85	-69.62
4027.338	-68.62
4029.823	-67.62
4032.307	-72.62
4034.789	-71.62
4037.269	-73.62
4039.747	-70.62
4042.224	-70.62
4044.699	-70.62
4047.172	-73.62
4049.643	-67.62
4052.112	-68.62
4054.58	-68.62
4057.046	-66.62
4059.51	-67.62
4061.972	-64.62
4064.432	-64.62
4066.891	-67.62
4069.348	-65.62
4071.803	-67.62
4074.256	-65.62
4076.708	-67.62
4079.158	-67.62
4081.606	-69.62
4084.052	-70.62
4086.497	-71.62
4088.939	-72.62
4091.38	-67.62
4093.819	-71.62
4096.257	-71.62
4098.693	-73.62
4101.127	-68.62
4103.559	-73.62
4105.989	-20.62
4108.418	-15.62
4110.845	-15.62
4113.27	-13.62
4115.694	-15.62
4118.115	-6.62
4120.535	-74.62
4122.954	-67.62
4125.37	-68.62
4127.785	-70.62
4130.198	-69.62
4132.609	-67.62
4135.019	-68.62
4137.427	-71.62
4139.833	-70.62
4142.237	-71.62
