Data from Water2_100000000CFU_RamanShift_11-11-18-915_RamanShift_14-14-01-117.txt Node
Date: Sun Dec 18 14:14:01 IST 2016
User: aro
Spectrometer: QEPB0276
Trigger mode: 0
Integration Time (sec): 5.000000E0
Scans to average: 1
Electric dark correction enabled: true
Nonlinearity correction enabled: false
Boxcar width: 0
XAxis mode: Raman Shifts
Number of Pixels in Spectrum: 1044
>>>>>Begin Spectral Data<<<<<
160.701	4.62
166.742	13.62
172.777	44.62
178.805	148.62
184.826	438.62
190.841	1009.62
196.849	1832.62
202.85	2653.62
208.845	3028.62
214.833	3055.62
220.815	2933.62
226.789	2823.62
232.758	2752.62
238.719	2672.62
244.674	2573.62
250.623	2485.62
256.565	2369.62
262.5	2279.62
268.429	2164.62
274.351	2085.62
280.267	1980.62
286.176	1919.62
292.079	1832.62
297.975	1799.62
303.865	1728.62
309.748	1678.62
315.625	1643.62
321.495	1618.62
327.359	1591.62
333.217	1568.62
339.068	1529.62
344.912	1524.62
350.751	1531.62
356.583	1524.62
362.408	1509.62
368.227	1517.62
374.04	1510.62
379.847	1532.62
385.647	1533.62
391.44	1552.62
397.228	1543.62
403.009	1553.62
408.784	1558.62
414.553	1555.62
420.315	1553.62
426.071	1572.62
431.821	1572.62
437.565	1556.62
443.302	1563.62
449.033	1554.62
454.758	1543.62
460.477	1538.62
466.189	1541.62
471.896	1526.62
477.596	1522.62
483.29	1518.62
488.978	1516.62
494.66	1483.62
500.335	1497.62
506.005	1450.62
511.668	1433.62
517.325	1404.62
522.977	1370.62
528.622	1349.62
534.261	1322.62
539.894	1319.62
545.521	1296.62
551.141	1292.62
556.756	1282.62
562.365	1277.62
567.968	1249.62
573.565	1259.62
579.155	1238.62
584.74	1235.62
590.319	1225.62
595.892	1231.62
601.459	1197.62
607.02	1194.62
612.575	1186.62
618.124	1173.62
623.667	1176.62
629.204	1163.62
634.735	1153.62
640.261	1130.62
645.781	1143.62
651.294	1136.62
656.802	1106.62
662.304	1113.62
667.8	1100.62
673.29	1110.62
678.775	1103.62
684.254	1087.62
689.726	1082.62
695.193	1073.62
700.655	1070.62
706.11	1062.62
711.56	1065.62
717.004	1040.62
722.442	1038.62
727.874	1023.62
733.301	1032.62
738.722	1014.62
744.137	1021.62
749.547	1014.62
754.951	1003.62
760.349	1004.62
765.741	1005.62
771.128	1000.62
776.509	1003.62
781.885	1001.62
787.254	1018.62
792.618	1000.62
797.977	988.62
803.33	986.62
808.677	972.62
814.019	964.62
819.355	956.62
824.686	943.62
830.011	946.62
835.33	931.62
840.644	929.62
845.952	916.62
851.255	922.62
856.552	914.62
861.844	912.62
867.13	903.62
872.41	884.62
877.686	881.62
882.955	886.62
888.219	871.62
893.478	849.62
898.731	834.62
903.979	820.62
909.221	814.62
914.458	803.62
919.69	791.62
924.916	787.62
930.136	793.62
935.351	790.62
940.561	791.62
945.766	786.62
950.965	773.62
956.158	762.62
961.347	761.62
966.529	752.62
971.707	741.62
976.879	752.62
982.046	729.62
987.208	722.62
992.364	717.62
997.515	722.62
1002.66	721.62
1007.801	722.62
1012.936	730.62
1018.066	739.62
1023.19	730.62
1028.309	743.62
1033.423	745.62
1038.532	727.62
1043.636	739.62
1048.734	723.62
1053.827	726.62
1058.915	716.62
1063.998	711.62
1069.075	704.62
1074.147	712.62
1079.214	710.62
1084.276	718.62
1089.333	715.62
1094.385	729.62
1099.431	735.62
1104.472	737.62
1109.509	734.62
1114.54	713.62
1119.565	710.62
1124.586	707.62
1129.602	696.62
1134.613	685.62
1139.618	688.62
1144.619	683.62
1149.614	678.62
1154.604	685.62
1159.589	699.62
1164.57	680.62
1169.545	696.62
1174.515	696.62
1179.48	707.62
1184.44	708.62
1189.395	696.62
1194.345	689.62
1199.29	697.62
1204.23	683.62
1209.165	690.62
1214.095	686.62
1219.021	689.62
1223.941	697.62
1228.856	699.62
1233.766	698.62
1238.672	702.62
1243.572	713.62
1248.467	708.62
1253.358	683.62
1258.244	690.62
1263.124	671.62
1268	673.62
1272.871	657.62
1277.737	651.62
1282.599	644.62
1287.455	646.62
1292.306	646.62
1297.153	655.62
1301.995	656.62
1306.832	661.62
1311.664	651.62
1316.491	675.62
1321.314	664.62
1326.132	666.62
1330.945	657.62
1335.753	649.62
1340.556	641.62
1345.354	619.62
1350.148	618.62
1354.937	614.62
1359.722	599.62
1364.501	592.62
1369.276	601.62
1374.046	591.62
1378.811	599.62
1383.572	593.62
1388.327	596.62
1393.079	584.62
1397.825	591.62
1402.567	583.62
1407.304	587.62
1412.036	586.62
1416.764	572.62
1421.487	578.62
1426.205	562.62
1430.919	583.62
1435.628	582.62
1440.333	585.62
1445.032	601.62
1449.727	598.62
1454.418	587.62
1459.104	598.62
1463.785	588.62
1468.462	593.62
1473.134	580.62
1477.802	581.62
1482.465	566.62
1487.123	562.62
1491.777	568.62
1496.426	570.62
1501.071	584.62
1505.711	585.62
1510.347	590.62
1514.978	597.62
1519.604	587.62
1524.226	610.62
1528.844	607.62
1533.457	612.62
1538.065	597.62
1542.669	619.62
1547.269	612.62
1551.864	609.62
1556.454	609.62
1561.041	617.62
1565.622	623.62
1570.199	637.62
1574.772	643.62
1579.34	656.62
1583.904	674.62
1588.464	683.62
1593.019	682.62
1597.569	708.62
1602.115	706.62
1606.657	725.62
1611.195	725.62
1615.728	725.62
1620.256	737.62
1624.78	754.62
1629.3	757.62
1633.816	772.62
1638.327	789.62
1642.834	792.62
1647.336	810.62
1651.834	811.62
1656.328	815.62
1660.817	802.62
1665.302	812.62
1669.783	788.62
1674.259	770.62
1678.732	750.62
1683.199	711.62
1687.663	681.62
1692.122	660.62
1696.577	627.62
1701.028	598.62
1705.474	585.62
1709.917	571.62
1714.355	552.62
1718.788	540.62
1723.218	527.62
1727.643	505.62
1732.064	500.62
1736.481	481.62
1740.893	481.62
1745.301	463.62
1749.705	446.62
1754.105	439.62
1758.501	427.62
1762.893	413.62
1767.28	415.62
1771.663	394.62
1776.042	391.62
1780.417	395.62
1784.787	395.62
1789.154	390.62
1793.516	394.62
1797.874	396.62
1802.228	395.62
1806.578	391.62
1810.924	382.62
1815.266	379.62
1819.603	372.62
1823.937	362.62
1828.266	368.62
1832.591	355.62
1836.913	354.62
1841.23	352.62
1845.543	361.62
1849.852	351.62
1854.156	350.62
1858.457	353.62
1862.754	353.62
1867.047	360.62
1871.335	355.62
1875.62	357.62
1879.9	362.62
1884.177	363.62
1888.449	360.62
1892.718	352.62
1896.982	357.62
1901.243	354.62
1905.499	351.62
1909.752	345.62
1914	346.62
1918.245	346.62
1922.485	344.62
1926.722	349.62
1930.954	347.62
1935.183	347.62
1939.408	353.62
1943.628	349.62
1947.845	362.62
1952.058	361.62
1956.267	360.62
1960.472	351.62
1964.673	358.62
1968.87	351.62
1973.063	342.62
1977.252	355.62
1981.438	340.62
1985.619	346.62
1989.797	338.62
1993.971	340.62
1998.14	339.62
2002.306	344.62
2006.469	346.62
2010.627	349.62
2014.781	347.62
2018.932	358.62
2023.078	349.62
2027.221	347.62
2031.36	342.62
2035.495	343.62
2039.627	341.62
2043.754	340.62
2047.878	335.62
2051.998	336.62
2056.114	342.62
2060.226	342.62
2064.334	336.62
2068.439	346.62
2072.54	358.62
2076.637	353.62
2080.73	348.62
2084.82	338.62
2088.906	352.62
2092.988	356.62
2097.066	352.62
2101.14	355.62
2105.211	341.62
2109.278	344.62
2113.342	329.62
2117.401	337.62
2121.457	333.62
2125.509	333.62
2129.558	332.62
2133.602	334.62
2137.643	341.62
2141.681	340.62
2145.714	339.62
2149.744	332.62
2153.77	327.62
2157.793	328.62
2161.812	320.62
2165.827	315.62
2169.838	317.62
2173.846	316.62
2177.851	308.62
2181.851	302.62
2185.848	304.62
2189.841	299.62
2193.831	287.62
2197.817	290.62
2201.799	291.62
2205.778	281.62
2209.753	286.62
2213.725	285.62
2217.693	282.62
2221.657	282.62
2225.618	284.62
2229.575	288.62
2233.529	286.62
2237.479	281.62
2241.425	290.62
2245.368	274.62
2249.307	274.62
2253.243	275.62
2257.175	260.62
2261.104	264.62
2265.029	254.62
2268.95	253.62
2272.868	243.62
2276.783	233.62
2280.694	236.62
2284.601	231.62
2288.505	232.62
2292.405	232.62
2296.302	230.62
2300.195	225.62
2304.085	226.62
2307.971	214.62
2311.854	216.62
2315.734	216.62
2319.609	210.62
2323.482	212.62
2327.351	208.62
2331.216	200.62
2335.078	210.62
2338.937	200.62
2342.792	199.62
2346.643	197.62
2350.492	197.62
2354.336	199.62
2358.178	196.62
2362.015	197.62
2365.85	195.62
2369.681	192.62
2373.508	200.62
2377.333	198.62
2381.153	199.62
2384.971	200.62
2388.785	199.62
2392.595	196.62
2396.402	200.62
2400.206	194.62
2404.007	197.62
2407.804	193.62
2411.597	191.62
2415.388	200.62
2419.174	191.62
2422.958	185.62
2426.738	194.62
2430.515	188.62
2434.289	188.62
2438.059	184.62
2441.825	182.62
2445.589	183.62
2449.349	175.62
2453.106	177.62
2456.859	179.62
2460.61	167.62
2464.356	171.62
2468.1	162.62
2471.84	172.62
2475.577	169.62
2479.311	174.62
2483.041	172.62
2486.768	169.62
2490.492	170.62
2494.213	172.62
2497.93	172.62
2501.644	164.62
2505.355	177.62
2509.062	162.62
2512.766	171.62
2516.467	170.62
2520.165	169.62
2523.859	159.62
2527.551	161.62
2531.239	165.62
2534.923	152.62
2538.605	152.62
2542.283	150.62
2545.958	156.62
2549.63	150.62
2553.299	161.62
2556.964	155.62
2560.626	150.62
2564.285	151.62
2567.941	148.62
2571.594	155.62
2575.243	150.62
2578.89	148.62
2582.533	145.62
2586.173	156.62
2589.809	141.62
2593.443	139.62
2597.073	140.62
2600.701	140.62
2604.325	138.62
2607.946	141.62
2611.564	141.62
2615.178	137.62
2618.79	144.62
2622.398	143.62
2626.004	137.62
2629.606	137.62
2633.205	134.62
2636.801	131.62
2640.394	130.62
2643.983	133.62
2647.57	134.62
2651.153	134.62
2654.734	132.62
2658.311	127.62
2661.885	131.62
2665.456	131.62
2669.025	131.62
2672.589	126.62
2676.151	122.62
2679.71	120.62
2683.266	120.62
2686.819	118.62
2690.368	119.62
2693.915	124.62
2697.458	117.62
2700.999	115.62
2704.536	113.62
2708.071	117.62
2711.602	107.62
2715.13	112.62
2718.656	113.62
2722.178	114.62
2725.697	116.62
2729.214	109.62
2732.727	111.62
2736.237	111.62
2739.744	115.62
2743.249	116.62
2746.75	122.62
2750.248	117.62
2753.743	112.62
2757.236	113.62
2760.725	116.62
2764.211	114.62
2767.695	117.62
2771.175	111.62
2774.652	101.62
2778.127	108.62
2781.598	107.62
2785.067	106.62
2788.532	108.62
2791.995	108.62
2795.455	114.62
2798.911	114.62
2802.365	118.62
2805.816	115.62
2809.264	117.62
2812.709	116.62
2816.151	124.62
2819.59	118.62
2823.026	119.62
2826.46	122.62
2829.89	119.62
2833.318	116.62
2836.742	125.62
2840.164	117.62
2843.583	126.62
2846.999	121.62
2850.412	123.62
2853.822	128.62
2857.229	121.62
2860.634	131.62
2864.035	130.62
2867.434	136.62
2870.83	133.62
2874.223	142.62
2877.613	149.62
2881	143.62
2884.385	149.62
2887.766	151.62
2891.145	148.62
2894.521	150.62
2897.894	156.62
2901.264	149.62
2904.631	151.62
2907.996	152.62
2911.358	150.62
2914.717	150.62
2918.073	149.62
2921.426	157.62
2924.777	161.62
2928.124	161.62
2931.469	164.62
2934.811	171.62
2938.15	167.62
2941.487	177.62
2944.821	180.62
2948.152	178.62
2951.48	184.62
2954.805	186.62
2958.128	192.62
2961.447	194.62
2964.765	198.62
2968.079	196.62
2971.39	209.62
2974.699	214.62
2978.005	217.62
2981.308	216.62
2984.609	230.62
2987.907	237.62
2991.202	237.62
2994.494	240.62
2997.784	253.62
3001.07	253.62
3004.355	264.62
3007.636	271.62
3010.915	276.62
3014.191	287.62
3017.464	290.62
3020.734	300.62
3024.002	305.62
3027.267	316.62
3030.53	316.62
3033.789	315.62
3037.046	329.62
3040.301	333.62
3043.552	345.62
3046.801	345.62
3050.048	364.62
3053.291	368.62
3056.532	378.62
3059.771	392.62
3063.006	406.62
3066.239	413.62
3069.469	430.62
3072.697	431.62
3075.922	447.62
3079.144	471.62
3082.364	475.62
3085.581	490.62
3088.795	492.62
3092.007	503.62
3095.216	516.62
3098.423	526.62
3101.627	546.62
3104.828	560.62
3108.026	568.62
3111.222	580.62
3114.416	582.62
3117.607	614.62
3120.795	615.62
3123.98	632.62
3127.163	649.62
3130.344	659.62
3133.521	686.62
3136.696	694.62
3139.869	713.62
3143.039	714.62
3146.206	733.62
3149.371	751.62
3152.533	741.62
3155.693	765.62
3158.85	759.62
3162.005	770.62
3165.157	772.62
3168.306	776.62
3171.453	775.62
3174.597	775.62
3177.739	783.62
3180.878	788.62
3184.014	791.62
3187.149	791.62
3190.28	795.62
3193.409	801.62
3196.536	795.62
3199.659	810.62
3202.781	814.62
3205.9	800.62
3209.016	801.62
3212.13	813.62
3215.241	794.62
3218.35	803.62
3221.456	800.62
3224.56	785.62
3227.661	792.62
3230.76	758.62
3233.856	767.62
3236.95	746.62
3240.041	747.62
3243.13	743.62
3246.216	740.62
3249.3	736.62
3252.382	735.62
3255.46	714.62
3258.537	720.62
3261.611	718.62
3264.682	710.62
3267.751	731.62
3270.818	712.62
3273.882	716.62
3276.943	713.62
3280.002	704.62
3283.059	701.62
3286.113	700.62
3289.165	679.62
3292.214	675.62
3295.261	677.62
3298.306	668.62
3301.348	655.62
3304.387	635.62
3307.425	635.62
3310.459	618.62
3313.492	607.62
3316.521	599.62
3319.549	598.62
3322.574	591.62
3325.597	585.62
3328.617	593.62
3331.635	588.62
3334.65	583.62
3337.663	588.62
3340.674	585.62
3343.682	576.62
3346.688	570.62
3349.691	567.62
3352.692	570.62
3355.691	570.62
3358.687	560.62
3361.681	548.62
3364.673	553.62
3367.662	545.62
3370.649	544.62
3373.633	532.62
3376.615	523.62
3379.595	513.62
3382.572	506.62
3385.547	494.62
3388.52	508.62
3391.49	484.62
3394.458	477.62
3397.424	477.62
3400.387	477.62
3403.348	469.62
3406.307	468.62
3409.263	458.62
3412.217	462.62
3415.168	448.62
3418.118	441.62
3421.065	429.62
3424.009	424.62
3426.951	438.62
3429.891	428.62
3432.829	420.62
3435.764	414.62
3438.697	399.62
3441.628	398.62
3444.557	381.62
3447.483	371.62
3450.407	363.62
3453.328	358.62
3456.247	342.62
3459.164	331.62
3462.079	326.62
3464.991	314.62
3467.902	303.62
3470.809	302.62
3473.715	292.62
3476.618	285.62
3479.519	273.62
3482.418	266.62
3485.315	252.62
3488.209	251.62
3491.101	254.62
3493.99	243.62
3496.878	232.62
3499.763	224.62
3502.646	221.62
3505.527	206.62
3508.405	204.62
3511.281	204.62
3514.155	186.62
3517.027	186.62
3519.897	175.62
3522.764	173.62
3525.629	158.62
3528.492	150.62
3531.352	147.62
3534.211	141.62
3537.067	132.62
3539.921	126.62
3542.773	122.62
3545.622	116.62
3548.469	118.62
3551.315	104.62
3554.157	95.62
3556.998	89.62
3559.837	89.62
3562.673	82.62
3565.507	79.62
3568.339	76.62
3571.169	71.62
3573.996	58.62
3576.822	65.62
3579.645	58.62
3582.466	56.62
3585.285	51.62
3588.101	50.62
3590.916	49.62
3593.728	39.62
3596.538	46.62
3599.346	35.62
3602.152	34.62
3604.956	37.62
3607.757	32.62
3610.556	25.62
3613.354	21.62
3616.149	13.62
3618.942	16.62
3621.732	15.62
3624.521	13.62
3627.307	8.62
3630.092	8.62
3632.874	4.62
3635.654	3.62
3638.432	-1.38
3641.208	1.62
3643.982	-3.38
3646.753	-7.38
3649.523	-6.38
3652.29	-3.38
3655.055	-3.38
3657.818	-7.38
3660.579	-9.38
3663.338	-10.38
3666.095	-13.38
3668.849	-13.38
3671.602	-14.38
3674.352	-19.38
3677.101	-13.38
3679.847	-20.38
3682.591	-21.38
3685.333	-24.38
3688.073	-27.38
3690.811	-24.38
3693.547	-28.38
3696.281	-31.38
3699.013	-32.38
3701.742	-33.38
3704.47	-28.38
3707.195	-32.38
3709.919	-35.38
3712.64	-30.38
3715.359	-37.38
3718.076	-34.38
3720.792	-32.38
3723.505	-32.38
3726.216	-34.38
3728.925	-34.38
3731.632	-37.38
3734.336	-36.38
3737.039	-35.38
3739.74	-38.38
3742.439	-42.38
3745.136	-44.38
3747.83	-41.38
3750.523	-41.38
3753.213	-40.38
3755.902	-42.38
3758.589	-42.38
3761.273	-44.38
3763.956	-42.38
3766.636	-44.38
3769.315	-43.38
3771.991	-39.38
3774.665	-42.38
3777.338	-45.38
3780.008	-43.38
3782.677	-39.38
3785.343	-40.38
3788.007	-41.38
3790.67	-43.38
3793.33	-44.38
3795.989	-43.38
3798.645	-44.38
3801.299	-48.38
3803.952	-45.38
3806.602	-50.38
3809.251	-48.38
3811.897	-49.38
3814.542	-49.38
3817.184	-52.38
3819.825	-47.38
3822.463	-49.38
3825.1	-51.38
3827.735	-50.38
3830.367	-48.38
3832.998	-49.38
3835.627	-47.38
3838.253	-46.38
3840.878	-44.38
3843.501	-44.38
3846.122	-45.38
3848.741	-46.38
3851.358	-44.38
3853.973	-48.38
3856.586	-48.38
3859.197	-46.38
3861.806	-50.38
3864.414	-50.38
3867.019	-52.38
3869.622	-52.38
3872.224	-52.38
3874.823	-51.38
3877.421	-51.38
3880.016	-46.38
3882.61	-46.38
3885.202	-47.38
3887.792	-44.38
3890.38	-47.38
3892.966	-44.38
3895.55	-47.38
3898.132	-46.38
3900.713	-46.38
3903.291	-48.38
3905.868	-47.38
3908.442	-47.38
3911.015	-46.38
3913.586	-50.38
3916.155	-50.38
3918.722	-49.38
3921.287	-46.38
3923.85	-53.38
3926.411	-53.38
3928.971	-53.38
3931.528	-53.38
3934.084	-54.38
3936.638	-53.38
3939.19	-55.38
3941.74	-50.38
3944.288	-51.38
3946.834	-50.38
3949.378	-50.38
3951.921	-50.38
3954.462	-49.38
3957	-47.38
3959.537	-47.38
3962.072	-49.38
3964.606	-48.38
3967.137	-48.38
3969.667	-48.38
3972.194	-56.38
3974.72	-51.38
3977.244	-50.38
3979.766	-53.38
3982.286	-52.38
3984.805	-53.38
3987.321	-54.38
3989.836	-51.38
3992.349	-53.38
3994.86	-52.38
3997.369	-52.38
3999.877	-50.38
4002.382	-48.38
4004.886	-47.38
4007.388	-50.38
4009.888	-50.38
4012.386	-45.38
4014.883	-44.38
4017.377	-49.38
4019.87	-52.38
4022.361	-54.38
4024.85	-51.38
4027.338	-49.38
4029.823	-52.38
4032.307	-55.38
4034.789	-52.38
4037.269	-52.38
4039.747	-52.38
4042.224	-54.38
4044.699	-50.38
4047.172	-55.38
4049.643	-55.38
4052.112	-50.38
4054.58	-48.38
4057.046	-49.38
4059.51	-50.38
4061.972	-47.38
4064.432	-47.38
4066.891	-47.38
4069.348	-52.38
4071.803	-49.38
4074.256	-47.38
4076.708	-51.38
4079.158	-49.38
4081.606	-50.38
4084.052	-54.38
4086.497	-52.38
4088.939	-54.38
4091.38	-55.38
4093.819	-52.38
4096.257	-50.38
4098.693	-57.38
4101.127	-54.38
4103.559	-57.38
4105.989	-15.38
4108.418	-9.38
4110.845	-7.38
4113.27	-6.38
4115.694	-1.38
4118.115	-4.38
4120.535	-56.38
4122.954	-51.38
4125.37	-54.38
4127.785	-52.38
4130.198	-51.38
4132.609	-48.38
4135.019	-54.38
4137.427	-54.38
4139.833	-52.38
4142.237	-50.38
