Data from Water2_10CFU_RamanShift_11-11-18-915_RamanShift_14-02-26-946.txt Node
Date: Sun Dec 18 14:02:26 IST 2016
User: aro
Spectrometer: QEPB0276
Trigger mode: 0
Integration Time (sec): 5.000000E0
Scans to average: 1
Electric dark correction enabled: true
Nonlinearity correction enabled: false
Boxcar width: 0
XAxis mode: Raman Shifts
Number of Pixels in Spectrum: 1044
>>>>>Begin Spectral Data<<<<<
160.701	7.12
166.742	19.12
172.777	63.12
178.805	190.12
184.826	595.12
190.841	1428.12
196.849	2637.12
202.85	3776.12
208.845	4317.12
214.833	4316.12
220.815	4154.12
226.789	3996.12
232.758	3899.12
238.719	3785.12
244.674	3646.12
250.623	3479.12
256.565	3370.12
262.5	3194.12
268.429	3054.12
274.351	2932.12
280.267	2843.12
286.176	2708.12
292.079	2606.12
297.975	2504.12
303.865	2422.12
309.748	2360.12
315.625	2305.12
321.495	2234.12
327.359	2214.12
333.217	2189.12
339.068	2139.12
344.912	2137.12
350.751	2120.12
356.583	2119.12
362.408	2104.12
368.227	2101.12
374.04	2098.12
379.847	2100.12
385.647	2149.12
391.44	2132.12
397.228	2129.12
403.009	2154.12
408.784	2163.12
414.553	2146.12
420.315	2169.12
426.071	2182.12
431.821	2159.12
437.565	2165.12
443.302	2173.12
449.033	2145.12
454.758	2154.12
460.477	2153.12
466.189	2148.12
471.896	2122.12
477.596	2125.12
483.29	2112.12
488.978	2102.12
494.66	2098.12
500.335	2074.12
506.005	2025.12
511.668	2003.12
517.325	1962.12
522.977	1936.12
528.622	1911.12
534.261	1882.12
539.894	1864.12
545.521	1852.12
551.141	1832.12
556.756	1821.12
562.365	1815.12
567.968	1799.12
573.565	1789.12
579.155	1766.12
584.74	1769.12
590.319	1756.12
595.892	1755.12
601.459	1743.12
607.02	1732.12
612.575	1731.12
618.124	1700.12
623.667	1678.12
629.204	1670.12
634.735	1637.12
640.261	1646.12
645.781	1625.12
651.294	1610.12
656.802	1611.12
662.304	1593.12
667.8	1576.12
673.29	1584.12
678.775	1576.12
684.254	1549.12
689.726	1575.12
695.193	1579.12
700.655	1563.12
706.11	1528.12
711.56	1528.12
717.004	1526.12
722.442	1518.12
727.874	1508.12
733.301	1499.12
738.722	1477.12
744.137	1483.12
749.547	1493.12
754.951	1494.12
760.349	1457.12
765.741	1469.12
771.128	1460.12
776.509	1464.12
781.885	1467.12
787.254	1458.12
792.618	1447.12
797.977	1456.12
803.33	1435.12
808.677	1416.12
814.019	1439.12
819.355	1412.12
824.686	1383.12
830.011	1373.12
835.33	1372.12
840.644	1365.12
845.952	1346.12
851.255	1357.12
856.552	1339.12
861.844	1324.12
867.13	1332.12
872.41	1312.12
877.686	1306.12
882.955	1288.12
888.219	1275.12
893.478	1266.12
898.731	1239.12
903.979	1215.12
909.221	1208.12
914.458	1207.12
919.69	1193.12
924.916	1193.12
930.136	1188.12
935.351	1187.12
940.561	1188.12
945.766	1196.12
950.965	1175.12
956.158	1179.12
961.347	1147.12
966.529	1156.12
971.707	1129.12
976.879	1112.12
982.046	1109.12
987.208	1084.12
992.364	1091.12
997.515	1111.12
1002.66	1105.12
1007.801	1107.12
1012.936	1122.12
1018.066	1118.12
1023.19	1136.12
1028.309	1132.12
1033.423	1140.12
1038.532	1124.12
1043.636	1131.12
1048.734	1120.12
1053.827	1104.12
1058.915	1079.12
1063.998	1096.12
1069.075	1066.12
1074.147	1093.12
1079.214	1090.12
1084.276	1080.12
1089.333	1090.12
1094.385	1105.12
1099.431	1115.12
1104.472	1108.12
1109.509	1118.12
1114.54	1112.12
1119.565	1091.12
1124.586	1080.12
1129.602	1066.12
1134.613	1063.12
1139.618	1051.12
1144.619	1063.12
1149.614	1057.12
1154.604	1057.12
1159.589	1065.12
1164.57	1074.12
1169.545	1090.12
1174.515	1077.12
1179.48	1086.12
1184.44	1074.12
1189.395	1067.12
1194.345	1067.12
1199.29	1058.12
1204.23	1050.12
1209.165	1056.12
1214.095	1060.12
1219.021	1073.12
1223.941	1067.12
1228.856	1082.12
1233.766	1087.12
1238.672	1092.12
1243.572	1107.12
1248.467	1098.12
1253.358	1086.12
1258.244	1071.12
1263.124	1057.12
1268	1043.12
1272.871	1035.12
1277.737	1013.12
1282.599	1026.12
1287.455	1028.12
1292.306	1022.12
1297.153	1026.12
1301.995	1027.12
1306.832	1040.12
1311.664	1049.12
1316.491	1050.12
1321.314	1041.12
1326.132	1044.12
1330.945	1020.12
1335.753	1024.12
1340.556	1001.12
1345.354	1005.12
1350.148	988.12
1354.937	968.12
1359.722	977.12
1364.501	958.12
1369.276	961.12
1374.046	951.12
1378.811	938.12
1383.572	955.12
1388.327	951.12
1393.079	944.12
1397.825	943.12
1402.567	931.12
1407.304	929.12
1412.036	931.12
1416.764	915.12
1421.487	925.12
1426.205	917.12
1430.919	942.12
1435.628	939.12
1440.333	939.12
1445.032	958.12
1449.727	966.12
1454.418	967.12
1459.104	971.12
1463.785	963.12
1468.462	958.12
1473.134	963.12
1477.802	941.12
1482.465	938.12
1487.123	926.12
1491.777	937.12
1496.426	943.12
1501.071	924.12
1505.711	938.12
1510.347	938.12
1514.978	955.12
1519.604	963.12
1524.226	987.12
1528.844	966.12
1533.457	978.12
1538.065	960.12
1542.669	969.12
1547.269	963.12
1551.864	977.12
1556.454	983.12
1561.041	986.12
1565.622	998.12
1570.199	1007.12
1574.772	1012.12
1579.34	1056.12
1583.904	1055.12
1588.464	1088.12
1593.019	1103.12
1597.569	1112.12
1602.115	1126.12
1606.657	1133.12
1611.195	1144.12
1615.728	1150.12
1620.256	1165.12
1624.78	1191.12
1629.3	1201.12
1633.816	1223.12
1638.327	1232.12
1642.834	1249.12
1647.336	1265.12
1651.834	1263.12
1656.328	1273.12
1660.817	1256.12
1665.302	1249.12
1669.783	1231.12
1674.259	1202.12
1678.732	1166.12
1683.199	1124.12
1687.663	1099.12
1692.122	1051.12
1696.577	1022.12
1701.028	982.12
1705.474	917.12
1709.917	889.12
1714.355	857.12
1718.788	864.12
1723.218	846.12
1727.643	832.12
1732.064	815.12
1736.481	797.12
1740.893	779.12
1745.301	765.12
1749.705	748.12
1754.105	706.12
1758.501	709.12
1762.893	694.12
1767.28	680.12
1771.663	678.12
1776.042	670.12
1780.417	670.12
1784.787	671.12
1789.154	661.12
1793.516	666.12
1797.874	669.12
1802.228	656.12
1806.578	653.12
1810.924	637.12
1815.266	636.12
1819.603	632.12
1823.937	628.12
1828.266	619.12
1832.591	609.12
1836.913	612.12
1841.23	602.12
1845.543	609.12
1849.852	613.12
1854.156	600.12
1858.457	610.12
1862.754	626.12
1867.047	619.12
1871.335	617.12
1875.62	617.12
1879.9	625.12
1884.177	618.12
1888.449	622.12
1892.718	616.12
1896.982	617.12
1901.243	609.12
1905.499	604.12
1909.752	605.12
1914	600.12
1918.245	602.12
1922.485	609.12
1926.722	601.12
1930.954	607.12
1935.183	606.12
1939.408	611.12
1943.628	617.12
1947.845	606.12
1952.058	615.12
1956.267	613.12
1960.472	613.12
1964.673	612.12
1968.87	597.12
1973.063	584.12
1977.252	585.12
1981.438	586.12
1985.619	584.12
1989.797	574.12
1993.971	584.12
1998.14	579.12
2002.306	591.12
2006.469	594.12
2010.627	588.12
2014.781	598.12
2018.932	606.12
2023.078	610.12
2027.221	607.12
2031.36	609.12
2035.495	599.12
2039.627	588.12
2043.754	589.12
2047.878	589.12
2051.998	586.12
2056.114	588.12
2060.226	593.12
2064.334	581.12
2068.439	583.12
2072.54	591.12
2076.637	587.12
2080.73	589.12
2084.82	593.12
2088.906	588.12
2092.988	596.12
2097.066	596.12
2101.14	584.12
2105.211	588.12
2109.278	566.12
2113.342	582.12
2117.401	585.12
2121.457	577.12
2125.509	574.12
2129.558	577.12
2133.602	563.12
2137.643	566.12
2141.681	579.12
2145.714	566.12
2149.744	569.12
2153.77	570.12
2157.793	562.12
2161.812	562.12
2165.827	542.12
2169.838	532.12
2173.846	540.12
2177.851	525.12
2181.851	511.12
2185.848	514.12
2189.841	504.12
2193.831	504.12
2197.817	514.12
2201.799	504.12
2205.778	495.12
2209.753	509.12
2213.725	503.12
2217.693	495.12
2221.657	499.12
2225.618	503.12
2229.575	494.12
2233.529	494.12
2237.479	487.12
2241.425	489.12
2245.368	484.12
2249.307	481.12
2253.243	472.12
2257.175	475.12
2261.104	454.12
2265.029	445.12
2268.95	449.12
2272.868	434.12
2276.783	432.12
2280.694	431.12
2284.601	425.12
2288.505	419.12
2292.405	418.12
2296.302	419.12
2300.195	409.12
2304.085	406.12
2307.971	393.12
2311.854	395.12
2315.734	390.12
2319.609	385.12
2323.482	382.12
2327.351	383.12
2331.216	378.12
2335.078	371.12
2338.937	379.12
2342.792	374.12
2346.643	362.12
2350.492	359.12
2354.336	364.12
2358.178	361.12
2362.015	363.12
2365.85	364.12
2369.681	363.12
2373.508	364.12
2377.333	367.12
2381.153	360.12
2384.971	364.12
2388.785	368.12
2392.595	364.12
2396.402	364.12
2400.206	354.12
2404.007	356.12
2407.804	363.12
2411.597	359.12
2415.388	355.12
2419.174	353.12
2422.958	352.12
2426.738	346.12
2430.515	352.12
2434.289	346.12
2438.059	339.12
2441.825	348.12
2445.589	331.12
2449.349	343.12
2453.106	338.12
2456.859	330.12
2460.61	337.12
2464.356	322.12
2468.1	337.12
2471.84	330.12
2475.577	327.12
2479.311	325.12
2483.041	325.12
2486.768	319.12
2490.492	328.12
2494.213	330.12
2497.93	329.12
2501.644	319.12
2505.355	322.12
2509.062	324.12
2512.766	322.12
2516.467	315.12
2520.165	322.12
2523.859	318.12
2527.551	307.12
2531.239	311.12
2534.923	302.12
2538.605	304.12
2542.283	295.12
2545.958	305.12
2549.63	291.12
2553.299	298.12
2556.964	293.12
2560.626	292.12
2564.285	295.12
2567.941	287.12
2571.594	291.12
2575.243	286.12
2578.89	287.12
2582.533	287.12
2586.173	282.12
2589.809	284.12
2593.443	283.12
2597.073	279.12
2600.701	283.12
2604.325	273.12
2607.946	277.12
2611.564	267.12
2615.178	274.12
2618.79	270.12
2622.398	277.12
2626.004	266.12
2629.606	258.12
2633.205	261.12
2636.801	266.12
2640.394	260.12
2643.983	259.12
2647.57	259.12
2651.153	256.12
2654.734	254.12
2658.311	255.12
2661.885	254.12
2665.456	249.12
2669.025	251.12
2672.589	238.12
2676.151	241.12
2679.71	240.12
2683.266	234.12
2686.819	235.12
2690.368	236.12
2693.915	229.12
2697.458	231.12
2700.999	229.12
2704.536	222.12
2708.071	217.12
2711.602	219.12
2715.13	224.12
2718.656	223.12
2722.178	215.12
2725.697	215.12
2729.214	215.12
2732.727	216.12
2736.237	223.12
2739.744	229.12
2743.249	215.12
2746.75	214.12
2750.248	221.12
2753.743	219.12
2757.236	226.12
2760.725	213.12
2764.211	219.12
2767.695	218.12
2771.175	214.12
2774.652	206.12
2778.127	206.12
2781.598	209.12
2785.067	208.12
2788.532	214.12
2791.995	210.12
2795.455	215.12
2798.911	210.12
2802.365	219.12
2805.816	214.12
2809.264	211.12
2812.709	213.12
2816.151	214.12
2819.59	217.12
2823.026	202.12
2826.46	219.12
2829.89	210.12
2833.318	215.12
2836.742	219.12
2840.164	221.12
2843.583	221.12
2846.999	229.12
2850.412	226.12
2853.822	229.12
2857.229	226.12
2860.634	225.12
2864.035	238.12
2867.434	243.12
2870.83	241.12
2874.223	247.12
2877.613	244.12
2881	243.12
2884.385	245.12
2887.766	243.12
2891.145	247.12
2894.521	251.12
2897.894	253.12
2901.264	246.12
2904.631	255.12
2907.996	258.12
2911.358	257.12
2914.717	266.12
2918.073	250.12
2921.426	270.12
2924.777	273.12
2928.124	269.12
2931.469	283.12
2934.811	281.12
2938.15	288.12
2941.487	292.12
2944.821	286.12
2948.152	294.12
2951.48	301.12
2954.805	305.12
2958.128	307.12
2961.447	314.12
2964.765	318.12
2968.079	310.12
2971.39	327.12
2974.699	333.12
2978.005	342.12
2981.308	350.12
2984.609	359.12
2987.907	359.12
2991.202	374.12
2994.494	383.12
2997.784	383.12
3001.07	403.12
3004.355	417.12
3007.636	426.12
3010.915	422.12
3014.191	430.12
3017.464	442.12
3020.734	458.12
3024.002	454.12
3027.267	463.12
3030.53	472.12
3033.789	484.12
3037.046	491.12
3040.301	500.12
3043.552	511.12
3046.801	520.12
3050.048	533.12
3053.291	558.12
3056.532	555.12
3059.771	579.12
3063.006	594.12
3066.239	614.12
3069.469	625.12
3072.697	635.12
3075.922	660.12
3079.144	675.12
3082.364	696.12
3085.581	710.12
3088.795	723.12
3092.007	749.12
3095.216	749.12
3098.423	779.12
3101.627	788.12
3104.828	803.12
3108.026	806.12
3111.222	851.12
3114.416	853.12
3117.607	886.12
3120.795	896.12
3123.98	913.12
3127.163	938.12
3130.344	946.12
3133.521	981.12
3136.696	999.12
3139.869	1015.12
3143.039	1042.12
3146.206	1060.12
3149.371	1067.12
3152.533	1075.12
3155.693	1078.12
3158.85	1089.12
3162.005	1111.12
3165.157	1111.12
3168.306	1112.12
3171.453	1124.12
3174.597	1127.12
3177.739	1120.12
3180.878	1131.12
3184.014	1130.12
3187.149	1140.12
3190.28	1130.12
3193.409	1147.12
3196.536	1133.12
3199.659	1143.12
3202.781	1150.12
3205.9	1156.12
3209.016	1157.12
3212.13	1152.12
3215.241	1144.12
3218.35	1143.12
3221.456	1134.12
3224.56	1108.12
3227.661	1125.12
3230.76	1116.12
3233.856	1087.12
3236.95	1079.12
3240.041	1078.12
3243.13	1067.12
3246.216	1046.12
3249.3	1045.12
3252.382	1047.12
3255.46	1024.12
3258.537	1031.12
3261.611	1025.12
3264.682	1011.12
3267.751	1030.12
3270.818	1022.12
3273.882	1014.12
3276.943	1016.12
3280.002	1004.12
3283.059	999.12
3286.113	995.12
3289.165	976.12
3292.214	965.12
3295.261	944.12
3298.306	929.12
3301.348	930.12
3304.387	923.12
3307.425	890.12
3310.459	882.12
3313.492	872.12
3316.521	870.12
3319.549	855.12
3322.574	858.12
3325.597	839.12
3328.617	834.12
3331.635	837.12
3334.65	830.12
3337.663	822.12
3340.674	819.12
3343.682	809.12
3346.688	813.12
3349.691	810.12
3352.692	808.12
3355.691	804.12
3358.687	799.12
3361.681	782.12
3364.673	778.12
3367.662	770.12
3370.649	763.12
3373.633	751.12
3376.615	735.12
3379.595	722.12
3382.572	723.12
3385.547	712.12
3388.52	706.12
3391.49	697.12
3394.458	688.12
3397.424	685.12
3400.387	664.12
3403.348	674.12
3406.307	654.12
3409.263	645.12
3412.217	655.12
3415.168	634.12
3418.118	636.12
3421.065	630.12
3424.009	622.12
3426.951	619.12
3429.891	596.12
3432.829	583.12
3435.764	576.12
3438.697	569.12
3441.628	565.12
3444.557	543.12
3447.483	533.12
3450.407	519.12
3453.328	503.12
3456.247	490.12
3459.164	484.12
3462.079	468.12
3464.991	452.12
3467.902	437.12
3470.809	433.12
3473.715	422.12
3476.618	397.12
3479.519	391.12
3482.418	375.12
3485.315	371.12
3488.209	346.12
3491.101	355.12
3493.99	337.12
3496.878	335.12
3499.763	331.12
3502.646	309.12
3505.527	301.12
3508.405	297.12
3511.281	283.12
3514.155	269.12
3517.027	266.12
3519.897	256.12
3522.764	240.12
3525.629	230.12
3528.492	224.12
3531.352	215.12
3534.211	197.12
3537.067	187.12
3539.921	184.12
3542.773	174.12
3545.622	165.12
3548.469	151.12
3551.315	138.12
3554.157	136.12
3556.998	135.12
3559.837	130.12
3562.673	119.12
3565.507	110.12
3568.339	107.12
3571.169	107.12
3573.996	92.12
3576.822	100.12
3579.645	90.12
3582.466	85.12
3585.285	76.12
3588.101	77.12
3590.916	71.12
3593.728	60.12
3596.538	65.12
3599.346	55.12
3602.152	54.12
3604.956	51.12
3607.757	50.12
3610.556	40.12
3613.354	37.12
3616.149	33.12
3618.942	30.12
3621.732	25.12
3624.521	23.12
3627.307	19.12
3630.092	18.12
3632.874	10.12
3635.654	9.12
3638.432	6.12
3641.208	8.12
3643.982	5.12
3646.753	0.12
3649.523	1.12
3652.29	0.12
3655.055	-1.88
3657.818	-6.88
3660.579	-5.88
3663.338	-12.88
3666.095	-14.88
3668.849	-9.88
3671.602	-19.88
3674.352	-16.88
3677.101	-18.88
3679.847	-21.88
3682.591	-24.88
3685.333	-29.88
3688.073	-29.88
3690.811	-33.88
3693.547	-33.88
3696.281	-32.88
3699.013	-34.88
3701.742	-38.88
3704.47	-36.88
3707.195	-39.88
3709.919	-38.88
3712.64	-39.88
3715.359	-42.88
3718.076	-40.88
3720.792	-35.88
3723.505	-42.88
3726.216	-40.88
3728.925	-39.88
3731.632	-46.88
3734.336	-43.88
3737.039	-46.88
3739.74	-48.88
3742.439	-47.88
3745.136	-53.88
3747.83	-52.88
3750.523	-52.88
3753.213	-52.88
3755.902	-53.88
3758.589	-50.88
3761.273	-54.88
3763.956	-52.88
3766.636	-50.88
3769.315	-54.88
3771.991	-47.88
3774.665	-49.88
3777.338	-54.88
3780.008	-54.88
3782.677	-52.88
3785.343	-55.88
3788.007	-50.88
3790.67	-55.88
3793.33	-54.88
3795.989	-54.88
3798.645	-58.88
3801.299	-58.88
3803.952	-57.88
3806.602	-61.88
3809.251	-64.88
3811.897	-60.88
3814.542	-63.88
3817.184	-61.88
3819.825	-59.88
3822.463	-58.88
3825.1	-59.88
3827.735	-61.88
3830.367	-61.88
3832.998	-59.88
3835.627	-61.88
3838.253	-61.88
3840.878	-58.88
3843.501	-59.88
3846.122	-57.88
3848.741	-60.88
3851.358	-59.88
3853.973	-60.88
3856.586	-59.88
3859.197	-63.88
3861.806	-64.88
3864.414	-62.88
3867.019	-65.88
3869.622	-61.88
3872.224	-63.88
3874.823	-64.88
3877.421	-59.88
3880.016	-60.88
3882.61	-61.88
3885.202	-59.88
3887.792	-56.88
3890.38	-60.88
3892.966	-60.88
3895.55	-61.88
3898.132	-61.88
3900.713	-63.88
3903.291	-63.88
3905.868	-64.88
3908.442	-65.88
3911.015	-65.88
3913.586	-65.88
3916.155	-67.88
3918.722	-66.88
3921.287	-65.88
3923.85	-66.88
3926.411	-68.88
3928.971	-67.88
3931.528	-68.88
3934.084	-67.88
3936.638	-65.88
3939.19	-68.88
3941.74	-64.88
3944.288	-66.88
3946.834	-66.88
3949.378	-64.88
3951.921	-65.88
3954.462	-66.88
3957	-63.88
3959.537	-65.88
3962.072	-63.88
3964.606	-65.88
3967.137	-66.88
3969.667	-64.88
3972.194	-67.88
3974.72	-67.88
3977.244	-65.88
3979.766	-65.88
3982.286	-64.88
3984.805	-68.88
3987.321	-65.88
3989.836	-69.88
3992.349	-65.88
3994.86	-64.88
3997.369	-62.88
3999.877	-61.88
4002.382	-63.88
4004.886	-65.88
4007.388	-63.88
4009.888	-62.88
4012.386	-62.88
4014.883	-62.88
4017.377	-64.88
4019.87	-64.88
4022.361	-67.88
4024.85	-68.88
4027.338	-64.88
4029.823	-67.88
4032.307	-65.88
4034.789	-64.88
4037.269	-67.88
4039.747	-67.88
4042.224	-68.88
4044.699	-65.88
4047.172	-68.88
4049.643	-66.88
4052.112	-65.88
4054.58	-64.88
4057.046	-63.88
4059.51	-64.88
4061.972	-62.88
4064.432	-64.88
4066.891	-66.88
4069.348	-64.88
4071.803	-63.88
4074.256	-66.88
4076.708	-69.88
4079.158	-67.88
4081.606	-67.88
4084.052	-67.88
4086.497	-68.88
4088.939	-67.88
4091.38	-65.88
4093.819	-63.88
4096.257	-66.88
4098.693	-70.88
4101.127	-66.88
4103.559	-66.88
4105.989	-15.88
4108.418	-10.88
4110.845	-14.88
4113.27	-12.88
4115.694	-9.88
4118.115	-6.88
4120.535	-68.88
4122.954	-66.88
4125.37	-64.88
4127.785	-64.88
4130.198	-65.88
4132.609	-62.88
4135.019	-65.88
4137.427	-70.88
4139.833	-72.88
4142.237	-69.88
