Data from Water2_100000CFU_RamanShift_11-11-18-915_RamanShift_14-09-10-256.txt Node
Date: Sun Dec 18 14:09:10 IST 2016
User: aro
Spectrometer: QEPB0276
Trigger mode: 0
Integration Time (sec): 5.000000E0
Scans to average: 1
Electric dark correction enabled: true
Nonlinearity correction enabled: false
Boxcar width: 0
XAxis mode: Raman Shifts
Number of Pixels in Spectrum: 1044
>>>>>Begin Spectral Data<<<<<
160.701	2.25
166.742	23.25
172.777	60.25
178.805	199.25
184.826	585.25
190.841	1418.25
196.849	2636.25
202.85	3776.25
208.845	4364.25
214.833	4371.25
220.815	4202.25
226.789	4061.25
232.758	3933.25
238.719	3836.25
244.674	3720.25
250.623	3561.25
256.565	3394.25
262.5	3245.25
268.429	3083.25
274.351	2950.25
280.267	2829.25
286.176	2720.25
292.079	2635.25
297.975	2552.25
303.865	2460.25
309.748	2387.25
315.625	2325.25
321.495	2283.25
327.359	2252.25
333.217	2208.25
339.068	2184.25
344.912	2171.25
350.751	2124.25
356.583	2133.25
362.408	2118.25
368.227	2140.25
374.04	2131.25
379.847	2124.25
385.647	2156.25
391.44	2159.25
397.228	2173.25
403.009	2172.25
408.784	2184.25
414.553	2192.25
420.315	2195.25
426.071	2207.25
431.821	2202.25
437.565	2189.25
443.302	2184.25
449.033	2176.25
454.758	2196.25
460.477	2184.25
466.189	2158.25
471.896	2149.25
477.596	2151.25
483.29	2147.25
488.978	2108.25
494.66	2115.25
500.335	2075.25
506.005	2073.25
511.668	2040.25
517.325	1993.25
522.977	1951.25
528.622	1942.25
534.261	1901.25
539.894	1885.25
545.521	1878.25
551.141	1879.25
556.756	1870.25
562.365	1833.25
567.968	1821.25
573.565	1815.25
579.155	1810.25
584.74	1801.25
590.319	1786.25
595.892	1769.25
601.459	1766.25
607.02	1740.25
612.575	1734.25
618.124	1721.25
623.667	1697.25
629.204	1707.25
634.735	1668.25
640.261	1664.25
645.781	1625.25
651.294	1619.25
656.802	1633.25
662.304	1608.25
667.8	1626.25
673.29	1617.25
678.775	1601.25
684.254	1589.25
689.726	1580.25
695.193	1576.25
700.655	1575.25
706.11	1559.25
711.56	1556.25
717.004	1556.25
722.442	1535.25
727.874	1531.25
733.301	1510.25
738.722	1489.25
744.137	1501.25
749.547	1497.25
754.951	1476.25
760.349	1488.25
765.741	1482.25
771.128	1490.25
776.509	1473.25
781.885	1486.25
787.254	1485.25
792.618	1471.25
797.977	1466.25
803.33	1471.25
808.677	1441.25
814.019	1434.25
819.355	1407.25
824.686	1409.25
830.011	1376.25
835.33	1387.25
840.644	1376.25
845.952	1368.25
851.255	1365.25
856.552	1379.25
861.844	1353.25
867.13	1360.25
872.41	1339.25
877.686	1324.25
882.955	1325.25
888.219	1296.25
893.478	1285.25
898.731	1261.25
903.979	1238.25
909.221	1227.25
914.458	1226.25
919.69	1214.25
924.916	1210.25
930.136	1202.25
935.351	1209.25
940.561	1193.25
945.766	1195.25
950.965	1190.25
956.158	1173.25
961.347	1171.25
966.529	1165.25
971.707	1143.25
976.879	1144.25
982.046	1131.25
987.208	1112.25
992.364	1095.25
997.515	1116.25
1002.66	1105.25
1007.801	1128.25
1012.936	1138.25
1018.066	1143.25
1023.19	1143.25
1028.309	1158.25
1033.423	1152.25
1038.532	1153.25
1043.636	1143.25
1048.734	1129.25
1053.827	1116.25
1058.915	1106.25
1063.998	1099.25
1069.075	1092.25
1074.147	1089.25
1079.214	1109.25
1084.276	1113.25
1089.333	1117.25
1094.385	1138.25
1099.431	1130.25
1104.472	1128.25
1109.509	1138.25
1114.54	1128.25
1119.565	1107.25
1124.586	1085.25
1129.602	1078.25
1134.613	1081.25
1139.618	1071.25
1144.619	1075.25
1149.614	1064.25
1154.604	1066.25
1159.589	1090.25
1164.57	1087.25
1169.545	1098.25
1174.515	1091.25
1179.48	1086.25
1184.44	1091.25
1189.395	1090.25
1194.345	1083.25
1199.29	1081.25
1204.23	1058.25
1209.165	1080.25
1214.095	1082.25
1219.021	1080.25
1223.941	1089.25
1228.856	1115.25
1233.766	1102.25
1238.672	1104.25
1243.572	1108.25
1248.467	1092.25
1253.358	1088.25
1258.244	1089.25
1263.124	1076.25
1268	1051.25
1272.871	1050.25
1277.737	1022.25
1282.599	1022.25
1287.455	1029.25
1292.306	1039.25
1297.153	1036.25
1301.995	1043.25
1306.832	1043.25
1311.664	1054.25
1316.491	1062.25
1321.314	1058.25
1326.132	1065.25
1330.945	1056.25
1335.753	1022.25
1340.556	1019.25
1345.354	1015.25
1350.148	987.25
1354.937	983.25
1359.722	967.25
1364.501	956.25
1369.276	948.25
1374.046	954.25
1378.811	939.25
1383.572	944.25
1388.327	936.25
1393.079	936.25
1397.825	940.25
1402.567	934.25
1407.304	933.25
1412.036	911.25
1416.764	933.25
1421.487	937.25
1426.205	925.25
1430.919	929.25
1435.628	943.25
1440.333	948.25
1445.032	969.25
1449.727	964.25
1454.418	969.25
1459.104	965.25
1463.785	962.25
1468.462	965.25
1473.134	941.25
1477.802	949.25
1482.465	938.25
1487.123	918.25
1491.777	926.25
1496.426	919.25
1501.071	942.25
1505.711	929.25
1510.347	955.25
1514.978	954.25
1519.604	972.25
1524.226	966.25
1528.844	977.25
1533.457	978.25
1538.065	972.25
1542.669	977.25
1547.269	976.25
1551.864	968.25
1556.454	970.25
1561.041	985.25
1565.622	989.25
1570.199	1012.25
1574.772	1032.25
1579.34	1050.25
1583.904	1064.25
1588.464	1071.25
1593.019	1106.25
1597.569	1120.25
1602.115	1140.25
1606.657	1128.25
1611.195	1144.25
1615.728	1158.25
1620.256	1171.25
1624.78	1192.25
1629.3	1197.25
1633.816	1242.25
1638.327	1229.25
1642.834	1252.25
1647.336	1271.25
1651.834	1274.25
1656.328	1274.25
1660.817	1250.25
1665.302	1249.25
1669.783	1238.25
1674.259	1213.25
1678.732	1162.25
1683.199	1122.25
1687.663	1086.25
1692.122	1049.25
1696.577	1016.25
1701.028	977.25
1705.474	917.25
1709.917	889.25
1714.355	878.25
1718.788	864.25
1723.218	843.25
1727.643	837.25
1732.064	818.25
1736.481	792.25
1740.893	782.25
1745.301	771.25
1749.705	740.25
1754.105	725.25
1758.501	703.25
1762.893	694.25
1767.28	680.25
1771.663	678.25
1776.042	678.25
1780.417	669.25
1784.787	664.25
1789.154	676.25
1793.516	668.25
1797.874	667.25
1802.228	659.25
1806.578	652.25
1810.924	643.25
1815.266	637.25
1819.603	624.25
1823.937	623.25
1828.266	618.25
1832.591	613.25
1836.913	609.25
1841.23	609.25
1845.543	599.25
1849.852	604.25
1854.156	610.25
1858.457	613.25
1862.754	615.25
1867.047	614.25
1871.335	615.25
1875.62	619.25
1879.9	625.25
1884.177	614.25
1888.449	624.25
1892.718	604.25
1896.982	617.25
1901.243	621.25
1905.499	601.25
1909.752	601.25
1914	602.25
1918.245	600.25
1922.485	608.25
1926.722	603.25
1930.954	599.25
1935.183	609.25
1939.408	607.25
1943.628	618.25
1947.845	610.25
1952.058	620.25
1956.267	611.25
1960.472	601.25
1964.673	599.25
1968.87	597.25
1973.063	588.25
1977.252	585.25
1981.438	575.25
1985.619	584.25
1989.797	585.25
1993.971	587.25
1998.14	584.25
2002.306	589.25
2006.469	593.25
2010.627	593.25
2014.781	604.25
2018.932	599.25
2023.078	610.25
2027.221	601.25
2031.36	601.25
2035.495	591.25
2039.627	590.25
2043.754	589.25
2047.878	588.25
2051.998	585.25
2056.114	585.25
2060.226	584.25
2064.334	585.25
2068.439	592.25
2072.54	585.25
2076.637	593.25
2080.73	587.25
2084.82	591.25
2088.906	591.25
2092.988	588.25
2097.066	591.25
2101.14	587.25
2105.211	583.25
2109.278	583.25
2113.342	582.25
2117.401	577.25
2121.457	576.25
2125.509	574.25
2129.558	583.25
2133.602	571.25
2137.643	571.25
2141.681	564.25
2145.714	568.25
2149.744	562.25
2153.77	564.25
2157.793	561.25
2161.812	557.25
2165.827	549.25
2169.838	528.25
2173.846	531.25
2177.851	532.25
2181.851	526.25
2185.848	519.25
2189.841	505.25
2193.831	501.25
2197.817	507.25
2201.799	515.25
2205.778	499.25
2209.753	485.25
2213.725	497.25
2217.693	493.25
2221.657	489.25
2225.618	499.25
2229.575	488.25
2233.529	492.25
2237.479	487.25
2241.425	482.25
2245.368	480.25
2249.307	474.25
2253.243	472.25
2257.175	459.25
2261.104	459.25
2265.029	447.25
2268.95	450.25
2272.868	437.25
2276.783	433.25
2280.694	427.25
2284.601	422.25
2288.505	418.25
2292.405	420.25
2296.302	418.25
2300.195	404.25
2304.085	404.25
2307.971	402.25
2311.854	392.25
2315.734	389.25
2319.609	376.25
2323.482	379.25
2327.351	371.25
2331.216	370.25
2335.078	373.25
2338.937	366.25
2342.792	363.25
2346.643	363.25
2350.492	363.25
2354.336	362.25
2358.178	363.25
2362.015	354.25
2365.85	371.25
2369.681	370.25
2373.508	368.25
2377.333	367.25
2381.153	367.25
2384.971	361.25
2388.785	359.25
2392.595	364.25
2396.402	360.25
2400.206	360.25
2404.007	359.25
2407.804	362.25
2411.597	350.25
2415.388	354.25
2419.174	353.25
2422.958	352.25
2426.738	349.25
2430.515	348.25
2434.289	344.25
2438.059	341.25
2441.825	345.25
2445.589	341.25
2449.349	338.25
2453.106	343.25
2456.859	334.25
2460.61	332.25
2464.356	322.25
2468.1	328.25
2471.84	323.25
2475.577	322.25
2479.311	314.25
2483.041	320.25
2486.768	329.25
2490.492	331.25
2494.213	327.25
2497.93	324.25
2501.644	324.25
2505.355	325.25
2509.062	317.25
2512.766	324.25
2516.467	312.25
2520.165	320.25
2523.859	313.25
2527.551	300.25
2531.239	304.25
2534.923	289.25
2538.605	305.25
2542.283	303.25
2545.958	294.25
2549.63	290.25
2553.299	285.25
2556.964	290.25
2560.626	292.25
2564.285	287.25
2567.941	285.25
2571.594	290.25
2575.243	284.25
2578.89	283.25
2582.533	282.25
2586.173	289.25
2589.809	278.25
2593.443	277.25
2597.073	283.25
2600.701	275.25
2604.325	268.25
2607.946	280.25
2611.564	270.25
2615.178	273.25
2618.79	273.25
2622.398	270.25
2626.004	267.25
2629.606	260.25
2633.205	258.25
2636.801	266.25
2640.394	252.25
2643.983	254.25
2647.57	259.25
2651.153	248.25
2654.734	256.25
2658.311	252.25
2661.885	248.25
2665.456	249.25
2669.025	246.25
2672.589	245.25
2676.151	247.25
2679.71	242.25
2683.266	240.25
2686.819	238.25
2690.368	234.25
2693.915	238.25
2697.458	222.25
2700.999	224.25
2704.536	223.25
2708.071	216.25
2711.602	224.25
2715.13	215.25
2718.656	219.25
2722.178	215.25
2725.697	220.25
2729.214	204.25
2732.727	223.25
2736.237	220.25
2739.744	228.25
2743.249	222.25
2746.75	228.25
2750.248	217.25
2753.743	229.25
2757.236	225.25
2760.725	215.25
2764.211	211.25
2767.695	216.25
2771.175	209.25
2774.652	216.25
2778.127	200.25
2781.598	198.25
2785.067	201.25
2788.532	211.25
2791.995	208.25
2795.455	209.25
2798.911	208.25
2802.365	220.25
2805.816	219.25
2809.264	210.25
2812.709	213.25
2816.151	223.25
2819.59	216.25
2823.026	212.25
2826.46	216.25
2829.89	213.25
2833.318	215.25
2836.742	225.25
2840.164	214.25
2843.583	228.25
2846.999	216.25
2850.412	229.25
2853.822	226.25
2857.229	222.25
2860.634	228.25
2864.035	232.25
2867.434	236.25
2870.83	235.25
2874.223	245.25
2877.613	240.25
2881	242.25
2884.385	252.25
2887.766	251.25
2891.145	244.25
2894.521	247.25
2897.894	251.25
2901.264	250.25
2904.631	252.25
2907.996	254.25
2911.358	255.25
2914.717	260.25
2918.073	260.25
2921.426	259.25
2924.777	273.25
2928.124	276.25
2931.469	284.25
2934.811	273.25
2938.15	283.25
2941.487	294.25
2944.821	287.25
2948.152	295.25
2951.48	305.25
2954.805	299.25
2958.128	308.25
2961.447	310.25
2964.765	309.25
2968.079	319.25
2971.39	320.25
2974.699	326.25
2978.005	334.25
2981.308	344.25
2984.609	353.25
2987.907	352.25
2991.202	359.25
2994.494	372.25
2997.784	376.25
3001.07	384.25
3004.355	416.25
3007.636	414.25
3010.915	424.25
3014.191	436.25
3017.464	431.25
3020.734	449.25
3024.002	440.25
3027.267	464.25
3030.53	467.25
3033.789	474.25
3037.046	478.25
3040.301	485.25
3043.552	503.25
3046.801	516.25
3050.048	528.25
3053.291	538.25
3056.532	552.25
3059.771	572.25
3063.006	583.25
3066.239	609.25
3069.469	619.25
3072.697	646.25
3075.922	650.25
3079.144	675.25
3082.364	686.25
3085.581	692.25
3088.795	722.25
3092.007	731.25
3095.216	755.25
3098.423	764.25
3101.627	779.25
3104.828	786.25
3108.026	811.25
3111.222	826.25
3114.416	836.25
3117.607	870.25
3120.795	876.25
3123.98	907.25
3127.163	935.25
3130.344	937.25
3133.521	948.25
3136.696	974.25
3139.869	1005.25
3143.039	1007.25
3146.206	1028.25
3149.371	1044.25
3152.533	1050.25
3155.693	1065.25
3158.85	1081.25
3162.005	1075.25
3165.157	1063.25
3168.306	1097.25
3171.453	1109.25
3174.597	1100.25
3177.739	1102.25
3180.878	1108.25
3184.014	1108.25
3187.149	1108.25
3190.28	1114.25
3193.409	1115.25
3196.536	1124.25
3199.659	1115.25
3202.781	1118.25
3205.9	1137.25
3209.016	1141.25
3212.13	1138.25
3215.241	1134.25
3218.35	1124.25
3221.456	1110.25
3224.56	1106.25
3227.661	1103.25
3230.76	1080.25
3233.856	1078.25
3236.95	1059.25
3240.041	1050.25
3243.13	1040.25
3246.216	1028.25
3249.3	1030.25
3252.382	1013.25
3255.46	1010.25
3258.537	1005.25
3261.611	993.25
3264.682	1004.25
3267.751	1002.25
3270.818	991.25
3273.882	993.25
3276.943	983.25
3280.002	978.25
3283.059	972.25
3286.113	973.25
3289.165	956.25
3292.214	945.25
3295.261	921.25
3298.306	914.25
3301.348	907.25
3304.387	899.25
3307.425	880.25
3310.459	862.25
3313.492	857.25
3316.521	842.25
3319.549	846.25
3322.574	840.25
3325.597	827.25
3328.617	831.25
3331.635	809.25
3334.65	814.25
3337.663	807.25
3340.674	799.25
3343.682	795.25
3346.688	788.25
3349.691	793.25
3352.692	802.25
3355.691	787.25
3358.687	788.25
3361.681	772.25
3364.673	768.25
3367.662	768.25
3370.649	739.25
3373.633	740.25
3376.615	733.25
3379.595	725.25
3382.572	700.25
3385.547	701.25
3388.52	693.25
3391.49	684.25
3394.458	670.25
3397.424	664.25
3400.387	648.25
3403.348	660.25
3406.307	647.25
3409.263	648.25
3412.217	638.25
3415.168	625.25
3418.118	618.25
3421.065	618.25
3424.009	600.25
3426.951	598.25
3429.891	577.25
3432.829	584.25
3435.764	577.25
3438.697	557.25
3441.628	553.25
3444.557	535.25
3447.483	523.25
3450.407	502.25
3453.328	487.25
3456.247	484.25
3459.164	485.25
3462.079	449.25
3464.991	437.25
3467.902	427.25
3470.809	418.25
3473.715	394.25
3476.618	389.25
3479.519	388.25
3482.418	383.25
3485.315	356.25
3488.209	346.25
3491.101	346.25
3493.99	328.25
3496.878	324.25
3499.763	317.25
3502.646	310.25
3505.527	291.25
3508.405	285.25
3511.281	286.25
3514.155	267.25
3517.027	256.25
3519.897	247.25
3522.764	238.25
3525.629	227.25
3528.492	216.25
3531.352	200.25
3534.211	192.25
3537.067	187.25
3539.921	177.25
3542.773	167.25
3545.622	168.25
3548.469	148.25
3551.315	147.25
3554.157	139.25
3556.998	137.25
3559.837	124.25
3562.673	120.25
3565.507	113.25
3568.339	110.25
3571.169	101.25
3573.996	95.25
3576.822	92.25
3579.645	85.25
3582.466	83.25
3585.285	79.25
3588.101	70.25
3590.916	69.25
3593.728	58.25
3596.538	55.25
3599.346	56.25
3602.152	52.25
3604.956	48.25
3607.757	48.25
3610.556	40.25
3613.354	37.25
3616.149	32.25
3618.942	27.25
3621.732	27.25
3624.521	22.25
3627.307	16.25
3630.092	11.25
3632.874	9.25
3635.654	6.25
3638.432	5.25
3641.208	5.25
3643.982	-0.75
3646.753	0.25
3649.523	-1.75
3652.29	-7.75
3655.055	-8.75
3657.818	-8.75
3660.579	-12.75
3663.338	-15.75
3666.095	-14.75
3668.849	-9.75
3671.602	-17.75
3674.352	-18.75
3677.101	-21.75
3679.847	-23.75
3682.591	-29.75
3685.333	-24.75
3688.073	-28.75
3690.811	-32.75
3693.547	-35.75
3696.281	-33.75
3699.013	-39.75
3701.742	-40.75
3704.47	-40.75
3707.195	-41.75
3709.919	-42.75
3712.64	-40.75
3715.359	-46.75
3718.076	-43.75
3720.792	-36.75
3723.505	-41.75
3726.216	-46.75
3728.925	-41.75
3731.632	-45.75
3734.336	-46.75
3737.039	-48.75
3739.74	-48.75
3742.439	-54.75
3745.136	-57.75
3747.83	-51.75
3750.523	-52.75
3753.213	-54.75
3755.902	-56.75
3758.589	-55.75
3761.273	-55.75
3763.956	-55.75
3766.636	-54.75
3769.315	-57.75
3771.991	-50.75
3774.665	-51.75
3777.338	-54.75
3780.008	-53.75
3782.677	-51.75
3785.343	-56.75
3788.007	-56.75
3790.67	-58.75
3793.33	-59.75
3795.989	-61.75
3798.645	-59.75
3801.299	-61.75
3803.952	-59.75
3806.602	-65.75
3809.251	-63.75
3811.897	-62.75
3814.542	-62.75
3817.184	-65.75
3819.825	-60.75
3822.463	-62.75
3825.1	-62.75
3827.735	-64.75
3830.367	-60.75
3832.998	-60.75
3835.627	-59.75
3838.253	-60.75
3840.878	-63.75
3843.501	-61.75
3846.122	-59.75
3848.741	-62.75
3851.358	-62.75
3853.973	-65.75
3856.586	-64.75
3859.197	-64.75
3861.806	-63.75
3864.414	-67.75
3867.019	-66.75
3869.622	-67.75
3872.224	-63.75
3874.823	-65.75
3877.421	-64.75
3880.016	-61.75
3882.61	-58.75
3885.202	-58.75
3887.792	-58.75
3890.38	-61.75
3892.966	-59.75
3895.55	-63.75
3898.132	-63.75
3900.713	-63.75
3903.291	-64.75
3905.868	-65.75
3908.442	-66.75
3911.015	-64.75
3913.586	-66.75
3916.155	-69.75
3918.722	-67.75
3921.287	-69.75
3923.85	-67.75
3926.411	-74.75
3928.971	-70.75
3931.528	-70.75
3934.084	-70.75
3936.638	-69.75
3939.19	-67.75
3941.74	-66.75
3944.288	-65.75
3946.834	-68.75
3949.378	-65.75
3951.921	-64.75
3954.462	-63.75
3957	-66.75
3959.537	-65.75
3962.072	-65.75
3964.606	-63.75
3967.137	-68.75
3969.667	-64.75
3972.194	-70.75
3974.72	-67.75
3977.244	-68.75
3979.766	-67.75
3982.286	-69.75
3984.805	-69.75
3987.321	-68.75
3989.836	-72.75
3992.349	-67.75
3994.86	-69.75
3997.369	-66.75
3999.877	-64.75
4002.382	-64.75
4004.886	-64.75
4007.388	-66.75
4009.888	-64.75
4012.386	-62.75
4014.883	-64.75
4017.377	-62.75
4019.87	-63.75
4022.361	-70.75
4024.85	-66.75
4027.338	-64.75
4029.823	-66.75
4032.307	-69.75
4034.789	-68.75
4037.269	-70.75
4039.747	-69.75
4042.224	-69.75
4044.699	-71.75
4047.172	-69.75
4049.643	-68.75
4052.112	-70.75
4054.58	-67.75
4057.046	-67.75
4059.51	-68.75
4061.972	-64.75
4064.432	-60.75
4066.891	-67.75
4069.348	-63.75
4071.803	-60.75
4074.256	-64.75
4076.708	-65.75
4079.158	-63.75
4081.606	-68.75
4084.052	-68.75
4086.497	-69.75
4088.939	-68.75
4091.38	-71.75
4093.819	-68.75
4096.257	-70.75
4098.693	-72.75
4101.127	-70.75
4103.559	-70.75
4105.989	-18.75
4108.418	-16.75
4110.845	-15.75
4113.27	-14.75
4115.694	-9.75
4118.115	-11.75
4120.535	-71.75
4122.954	-71.75
4125.37	-69.75
4127.785	-68.75
4130.198	-66.75
4132.609	-64.75
4135.019	-73.75
4137.427	-68.75
4139.833	-71.75
4142.237	-70.75
