Data from DW_1 (I=1 T=5x3 V=3ml)_RamanShift_1.txt Node
Date: Mon Jun 05 13:02:46 IDT 2017
User: aro
Spectrometer: QEPB0276
Trigger mode: 0
Integration Time (sec): 5.000000E0
Scans to average: 1
Electric dark correction enabled: true
Nonlinearity correction enabled: false
Boxcar width: 0
XAxis mode: Raman Shifts
Number of Pixels in Spectrum: 1044
>>>>>Begin Spectral Data<<<<<
160.701	-27.38
166.742	3.29
172.777	84.29
178.805	356.62
184.826	987.96
190.841	2093.96
196.849	3306.29
202.85	4083.29
208.845	4263.62
214.833	4137.62
220.815	3941.29
226.789	3797.29
232.758	3674.62
238.719	3533.96
244.674	3362.96
250.623	3211.62
256.565	3038.96
262.5	2885.62
268.429	2725.29
274.351	2601.29
280.267	2496.29
286.176	2382.96
292.079	2274.96
297.975	2213.29
303.865	2153.96
309.748	2068.62
315.625	2026.29
321.495	1994.29
327.359	1940.62
333.217	1925.29
339.068	1917.62
344.912	1886.96
350.751	1870.29
356.583	1870.29
362.408	1887.29
368.227	1867.62
374.04	1896.29
379.847	1928.96
385.647	1922.96
391.44	1921.29
397.228	1924.62
403.009	1929.29
408.784	1963.29
414.553	2022.29
420.315	2077.96
426.071	2093.29
431.821	2013.96
437.565	1936.29
443.302	1927.29
449.033	1895.62
454.758	1887.96
460.477	1883.29
466.189	1856.62
471.896	1852.62
477.596	1826.29
483.29	1803.96
488.978	1791.29
494.66	1771.29
500.335	1748.29
506.005	1708.96
511.668	1670.96
517.325	1629.62
522.977	1601.29
528.622	1578.96
534.261	1551.29
539.894	1518.62
545.521	1508.62
551.141	1493.62
556.756	1494.62
562.365	1470.29
567.968	1465.29
573.565	1431.62
579.155	1431.96
584.74	1416.29
590.319	1386.29
595.892	1380.96
601.459	1363.96
607.02	1362.29
612.575	1322.29
618.124	1300.29
623.667	1281.62
629.204	1276.62
634.735	1257.29
640.261	1280.96
645.781	1291.29
651.294	1281.62
656.802	1261.62
662.304	1228.62
667.8	1199.62
673.29	1178.96
678.775	1168.62
684.254	1173.62
689.726	1144.62
695.193	1133.96
700.655	1122.96
706.11	1109.29
711.56	1105.96
717.004	1083.29
722.442	1082.29
727.874	1049.96
733.301	1070.62
738.722	1055.29
744.137	1042.62
749.547	1038.96
754.951	1034.96
760.349	1017.29
765.741	1017.29
771.128	1021.29
776.509	996.96
781.885	994.96
787.254	995.29
792.618	966.62
797.977	962.29
803.33	949.96
808.677	931.96
814.019	921.29
819.355	895.96
824.686	875.62
830.011	880.62
835.33	864.29
840.644	850.29
845.952	845.29
851.255	847.29
856.552	822.29
861.844	808.29
867.13	793.62
872.41	794.62
877.686	783.29
882.955	767.62
888.219	753.29
893.478	721.62
898.731	704.29
903.979	689.62
909.221	675.96
914.458	660.29
919.69	651.96
924.916	645.29
930.136	642.62
935.351	634.62
940.561	621.96
945.766	615.96
950.965	602.29
956.158	595.96
961.347	582.62
966.529	572.96
971.707	572.29
976.879	551.96
982.046	541.29
987.208	541.96
992.364	533.62
997.515	531.96
1002.66	539.29
1007.801	540.62
1012.936	541.29
1018.066	544.96
1023.19	544.29
1028.309	544.29
1033.423	539.29
1038.532	532.29
1043.636	536.62
1048.734	528.62
1053.827	510.62
1058.915	514.62
1063.998	503.29
1069.075	495.96
1074.147	494.29
1079.214	498.29
1084.276	509.62
1089.333	512.96
1094.385	511.62
1099.431	502.62
1104.472	496.62
1109.509	487.29
1114.54	482.62
1119.565	486.29
1124.586	469.96
1129.602	469.62
1134.613	460.96
1139.618	452.62
1144.619	455.62
1149.614	451.96
1154.604	460.62
1159.589	461.29
1164.57	456.29
1169.545	467.29
1174.515	465.96
1179.48	453.96
1184.44	447.96
1189.395	439.62
1194.345	441.29
1199.29	437.29
1204.23	441.96
1209.165	443.29
1214.095	456.96
1219.021	449.29
1223.941	448.96
1228.856	454.29
1233.766	456.62
1238.672	454.29
1243.572	448.29
1248.467	445.29
1253.358	424.96
1258.244	424.96
1263.124	419.96
1268	403.62
1272.871	408.62
1277.737	403.29
1282.599	397.96
1287.455	399.96
1292.306	396.96
1297.153	390.96
1301.995	398.96
1306.832	406.62
1311.664	398.96
1316.491	398.96
1321.314	395.96
1326.132	387.62
1330.945	381.96
1335.753	367.62
1340.556	360.96
1345.354	351.96
1350.148	353.29
1354.937	350.62
1359.722	339.96
1364.501	338.96
1369.276	343.96
1374.046	343.96
1378.811	342.96
1383.572	348.29
1388.327	357.96
1393.079	342.62
1397.825	330.96
1402.567	333.62
1407.304	324.29
1412.036	316.29
1416.764	326.29
1421.487	315.29
1426.205	318.62
1430.919	318.29
1435.628	313.96
1440.333	324.29
1445.032	326.62
1449.727	331.96
1454.418	330.96
1459.104	338.29
1463.785	323.62
1468.462	331.96
1473.134	314.29
1477.802	312.96
1482.465	311.62
1487.123	314.29
1491.777	324.29
1496.426	323.96
1501.071	329.62
1505.711	333.62
1510.347	343.96
1514.978	352.62
1519.604	361.29
1524.226	365.62
1528.844	365.96
1533.457	372.29
1538.065	370.96
1542.669	377.96
1547.269	377.29
1551.864	379.29
1556.454	391.62
1561.041	395.62
1565.622	408.29
1570.199	415.29
1574.772	431.96
1579.34	449.29
1583.904	462.62
1588.464	492.62
1593.019	502.29
1597.569	513.29
1602.115	525.62
1606.657	553.96
1611.195	561.62
1615.728	592.62
1620.256	619.96
1624.78	624.96
1629.3	644.29
1633.816	658.62
1638.327	668.29
1642.834	688.96
1647.336	684.29
1651.834	674.96
1656.328	688.29
1660.817	659.62
1665.302	650.29
1669.783	609.96
1674.259	590.29
1678.732	553.62
1683.199	515.62
1687.663	488.96
1692.122	446.62
1696.577	425.96
1701.028	402.62
1705.474	371.62
1709.917	351.29
1714.355	327.62
1718.788	311.96
1723.218	287.29
1727.643	265.29
1732.064	243.29
1736.481	223.96
1740.893	216.62
1745.301	190.96
1749.705	170.96
1754.105	158.96
1758.501	148.62
1762.893	141.96
1767.28	127.62
1771.663	127.62
1776.042	117.96
1780.417	123.29
1784.787	115.62
1789.154	115.62
1793.516	112.29
1797.874	108.96
1802.228	107.96
1806.578	100.29
1810.924	94.62
1815.266	92.96
1819.603	89.96
1823.937	84.29
1828.266	75.62
1832.591	80.29
1836.913	77.29
1841.23	67.96
1845.543	73.62
1849.852	70.29
1854.156	70.29
1858.457	68.29
1862.754	68.29
1867.047	74.62
1871.335	68.96
1875.62	69.96
1879.9	69.29
1884.177	68.62
1888.449	67.29
1892.718	63.96
1896.982	70.62
1901.243	62.96
1905.499	70.29
1909.752	65.62
1914	75.62
1918.245	66.29
1922.485	71.29
1926.722	76.96
1930.954	77.62
1935.183	80.96
1939.408	74.96
1943.628	79.96
1947.845	84.62
1952.058	80.62
1956.267	75.29
1960.472	77.29
1964.673	80.62
1968.87	78.62
1973.063	82.96
1977.252	84.29
1981.438	74.29
1985.619	71.62
1989.797	82.62
1993.971	78.29
1998.14	85.29
2002.306	70.29
2006.469	83.96
2010.627	90.96
2014.781	89.29
2018.932	80.96
2023.078	80.62
2027.221	86.96
2031.36	79.96
2035.495	84.96
2039.627	90.62
2043.754	82.62
2047.878	91.62
2051.998	91.96
2056.114	85.29
2060.226	93.62
2064.334	99.62
2068.439	101.96
2072.54	95.62
2076.637	93.96
2080.73	101.29
2084.82	98.96
2088.906	103.62
2092.988	102.96
2097.066	102.96
2101.14	100.62
2105.211	105.96
2109.278	100.96
2113.342	100.62
2117.401	98.29
2121.457	96.62
2125.509	96.29
2129.558	93.96
2133.602	93.96
2137.643	90.62
2141.681	93.29
2145.714	84.62
2149.744	84.29
2153.77	78.96
2157.793	76.62
2161.812	72.96
2165.827	71.96
2169.838	67.62
2173.846	65.96
2177.851	60.96
2181.851	57.62
2185.848	46.96
2189.841	51.62
2193.831	44.96
2197.817	44.96
2201.799	40.62
2205.778	42.62
2209.753	34.62
2213.725	37.96
2217.693	34.29
2221.657	33.62
2225.618	31.62
2229.575	33.29
2233.529	30.96
2237.479	26.96
2241.425	24.96
2245.368	24.29
2249.307	17.62
2253.243	11.96
2257.175	9.29
2261.104	5.96
2265.029	-0.38
2268.95	4.62
2272.868	-4.04
2276.783	-0.38
2280.694	-1.38
2284.601	-8.04
2288.505	-10.38
2292.405	-11.71
2296.302	-8.04
2300.195	-8.71
2304.085	-12.38
2307.971	-14.04
2311.854	-10.38
2315.734	-25.04
2319.609	-22.04
2323.482	-27.04
2327.351	-22.38
2331.216	-19.71
2335.078	-25.04
2338.937	-27.71
2342.792	-31.71
2346.643	-28.71
2350.492	-30.38
2354.336	-32.04
2358.178	-31.38
2362.015	-31.04
2365.85	-33.71
2369.681	-35.38
2373.508	-32.38
2377.333	-37.71
2381.153	-38.04
2384.971	-37.04
2388.785	-41.04
2392.595	-38.71
2396.402	-39.71
2400.206	-39.04
2404.007	-44.38
2407.804	-43.71
2411.597	-42.04
2415.388	-42.38
2419.174	-44.71
2422.958	-46.71
2426.738	-42.71
2430.515	-43.04
2434.289	-46.38
2438.059	-47.71
2441.825	-48.04
2445.589	-50.71
2449.349	-49.38
2453.106	-49.04
2456.859	-52.71
2460.61	-54.71
2464.356	-51.71
2468.1	-52.38
2471.84	-52.04
2475.577	-48.04
2479.311	-54.04
2483.041	-50.38
2486.768	-52.38
2490.492	-50.71
2494.213	-51.04
2497.93	-56.04
2501.644	-54.04
2505.355	-55.71
2509.062	-58.04
2512.766	-62.04
2516.467	-55.71
2520.165	-54.38
2523.859	-59.71
2527.551	-56.04
2531.239	-59.38
2534.923	-53.38
2538.605	-51.71
2542.283	-57.38
2545.958	-55.38
2549.63	-55.04
2553.299	-59.38
2556.964	-55.71
2560.626	-57.04
2564.285	-55.71
2567.941	-60.04
2571.594	-62.04
2575.243	-60.04
2578.89	-64.04
2582.533	-59.04
2586.173	-62.38
2589.809	-61.38
2593.443	-63.38
2597.073	-59.71
2600.701	-55.04
2604.325	-54.71
2607.946	-58.38
2611.564	-62.71
2615.178	-63.04
2618.79	-60.04
2622.398	-62.71
2626.004	-61.71
2629.606	-64.38
2633.205	-63.71
2636.801	-63.71
2640.394	-57.04
2643.983	-62.04
2647.57	-59.71
2651.153	-59.04
2654.734	-59.04
2658.311	-62.38
2661.885	-60.71
2665.456	-63.71
2669.025	-64.38
2672.589	-65.04
2676.151	-62.04
2679.71	-63.38
2683.266	-61.71
2686.819	-66.04
2690.368	-59.71
2693.915	-62.38
2697.458	-60.38
2700.999	-61.04
2704.536	-58.71
2708.071	-60.71
2711.602	-60.71
2715.13	-58.38
2718.656	-60.71
2722.178	-59.71
2725.697	-61.38
2729.214	-57.38
2732.727	-56.71
2736.237	-56.38
2739.744	-54.04
2743.249	-54.04
2746.75	-55.38
2750.248	-52.04
2753.743	-50.71
2757.236	-49.04
2760.725	-46.04
2764.211	-48.71
2767.695	-47.71
2771.175	-42.71
2774.652	-43.38
2778.127	-46.38
2781.598	-45.04
2785.067	-47.04
2788.532	-45.71
2791.995	-43.04
2795.455	-43.71
2798.911	-40.71
2802.365	-45.71
2805.816	-33.04
2809.264	-34.38
2812.709	-35.04
2816.151	-31.71
2819.59	-31.71
2823.026	-30.38
2826.46	-24.38
2829.89	-22.71
2833.318	-20.04
2836.742	-16.38
2840.164	-14.04
2843.583	-16.04
2846.999	-20.04
2850.412	-12.04
2853.822	-11.38
2857.229	-9.04
2860.634	-7.04
2864.035	-0.71
2867.434	3.62
2870.83	6.96
2874.223	10.62
2877.613	15.96
2881	21.29
2884.385	22.29
2887.766	24.62
2891.145	28.96
2894.521	24.62
2897.894	31.96
2901.264	28.96
2904.631	31.62
2907.996	30.96
2911.358	36.96
2914.717	43.29
2918.073	47.96
2921.426	51.62
2924.777	55.96
2928.124	61.62
2931.469	70.96
2934.811	75.29
2938.15	76.96
2941.487	85.29
2944.821	81.96
2948.152	90.29
2951.48	96.62
2954.805	95.96
2958.128	96.29
2961.447	102.62
2964.765	109.96
2968.079	117.96
2971.39	131.29
2974.699	130.62
2978.005	139.62
2981.308	149.29
2984.609	162.96
2987.907	165.62
2991.202	173.29
2994.494	184.96
2997.784	196.96
3001.07	206.62
3004.355	215.62
3007.636	218.96
3010.915	224.96
3014.191	241.62
3017.464	242.96
3020.734	246.62
3024.002	260.62
3027.267	269.96
3030.53	281.29
3033.789	284.29
3037.046	295.62
3040.301	301.62
3043.552	314.29
3046.801	336.96
3050.048	347.29
3053.291	354.62
3056.532	369.96
3059.771	385.29
3063.006	394.96
3066.239	425.29
3069.469	438.62
3072.697	446.96
3075.922	475.62
3079.144	488.96
3082.364	503.62
3085.581	522.29
3088.795	527.96
3092.007	544.62
3095.216	562.62
3098.423	592.96
3101.627	598.29
3104.828	611.62
3108.026	644.96
3111.222	646.62
3114.416	666.96
3117.607	685.62
3120.795	695.96
3123.98	724.62
3127.163	744.29
3130.344	774.29
3133.521	790.62
3136.696	814.29
3139.869	836.62
3143.039	849.96
3146.206	850.29
3149.371	878.29
3152.533	883.62
3155.693	887.62
3158.85	887.29
3162.005	912.62
3165.157	911.62
3168.306	915.96
3171.453	927.62
3174.597	926.29
3177.739	934.29
3180.878	933.96
3184.014	939.29
3187.149	941.96
3190.28	958.96
3193.409	951.96
3196.536	954.62
3199.659	970.29
3202.781	979.96
3205.9	979.29
3209.016	978.62
3212.13	982.29
3215.241	976.96
3218.35	972.62
3221.456	951.62
3224.56	942.29
3227.661	949.29
3230.76	942.96
3233.856	926.29
3236.95	923.62
3240.041	917.29
3243.13	916.29
3246.216	918.29
3249.3	909.62
3252.382	911.62
3255.46	909.96
3258.537	915.29
3261.611	910.62
3264.682	899.96
3267.751	892.96
3270.818	896.96
3273.882	892.96
3276.943	880.96
3280.002	865.29
3283.059	858.62
3286.113	857.62
3289.165	834.62
3292.214	832.62
3295.261	828.96
3298.306	808.96
3301.348	798.62
3304.387	773.96
3307.425	785.96
3310.459	767.96
3313.492	764.96
3316.521	744.96
3319.549	735.62
3322.574	736.62
3325.597	717.62
3328.617	714.29
3331.635	719.96
3334.65	717.29
3337.663	703.62
3340.674	704.29
3343.682	702.29
3346.688	705.62
3349.691	705.29
3352.692	705.29
3355.691	698.62
3358.687	682.96
3361.681	684.29
3364.673	672.96
3367.662	656.29
3370.649	658.29
3373.633	638.62
3376.615	633.62
3379.595	635.29
3382.572	619.29
3385.547	618.96
3388.52	604.62
3391.49	598.96
3394.458	596.62
3397.424	586.62
3400.387	591.62
3403.348	578.29
3406.307	576.96
3409.263	567.96
3412.217	560.29
3415.168	540.29
3418.118	550.62
3421.065	533.29
3424.009	532.96
3426.951	531.96
3429.891	522.29
3432.829	513.29
3435.764	507.62
3438.697	489.29
3441.628	484.29
3444.557	468.29
3447.483	454.96
3450.407	441.96
3453.328	434.96
3456.247	419.29
3459.164	395.29
3462.079	396.96
3464.991	378.96
3467.902	367.29
3470.809	357.96
3473.715	351.96
3476.618	330.96
3479.519	325.29
3482.418	323.29
3485.315	304.96
3488.209	297.29
3491.101	292.62
3493.99	289.62
3496.878	279.62
3499.763	266.29
3502.646	258.96
3505.527	258.62
3508.405	245.62
3511.281	233.62
3514.155	223.62
3517.027	213.29
3519.897	198.96
3522.764	187.29
3525.629	180.62
3528.492	172.96
3531.352	157.29
3534.211	153.29
3537.067	140.62
3539.921	138.29
3542.773	126.29
3545.622	107.29
3548.469	111.62
3551.315	103.29
3554.157	91.29
3556.998	92.29
3559.837	83.29
3562.673	76.96
3565.507	73.62
3568.339	68.62
3571.169	64.96
3573.996	55.96
3576.822	49.62
3579.645	48.96
3582.466	38.62
3585.285	39.62
3588.101	30.29
3590.916	26.62
3593.728	17.29
3596.538	17.96
3599.346	10.29
3602.152	1.96
3604.956	4.62
3607.757	1.96
3610.556	-9.38
3613.354	-8.38
3616.149	-7.71
3618.942	-7.04
3621.732	-16.04
3624.521	-18.04
3627.307	-22.38
3630.092	-25.71
3632.874	-29.04
3635.654	-32.71
3638.432	-34.71
3641.208	-34.38
3643.982	-40.71
3646.753	-41.71
3649.523	-47.04
3652.29	-47.04
3655.055	-49.38
3657.818	-49.04
3660.579	-52.71
3663.338	-54.04
3666.095	-56.71
3668.849	-59.04
3671.602	-57.71
3674.352	-58.71
3677.101	-62.04
3679.847	-63.04
3682.591	-68.04
3685.333	-68.38
3688.073	-68.71
3690.811	-76.04
3693.547	-74.04
3696.281	-75.38
3699.013	-76.38
3701.742	-78.71
3704.47	-75.71
3707.195	-78.04
3709.919	-78.04
3712.64	-82.04
3715.359	-78.38
3718.076	-82.38
3720.792	-82.71
3723.505	-84.38
3726.216	-89.38
3728.925	-85.04
3731.632	-87.04
3734.336	-89.38
3737.039	-88.38
3739.74	-87.04
3742.439	-89.71
3745.136	-90.04
3747.83	-89.04
3750.523	-91.38
3753.213	-93.04
3755.902	-89.71
3758.589	-88.04
3761.273	-92.38
3763.956	-91.04
3766.636	-93.04
3769.315	-92.04
3771.991	-92.71
3774.665	-96.71
3777.338	-94.38
3780.008	-93.71
3782.677	-94.71
3785.343	-90.71
3788.007	-93.04
3790.67	-94.04
3793.33	-93.38
3795.989	-97.38
3798.645	-94.38
3801.299	-94.38
3803.952	-95.04
3806.602	-94.71
3809.251	-99.71
3811.897	-96.38
3814.542	-99.38
3817.184	-100.71
3819.825	-98.38
3822.463	-96.71
3825.1	-98.38
3827.735	-96.71
3830.367	-96.04
3832.998	-95.71
3835.627	-102.04
3838.253	-98.71
3840.878	-95.71
3843.501	-98.04
3846.122	-100.71
3848.741	-101.38
3851.358	-98.04
3853.973	-102.38
3856.586	-101.71
3859.197	-100.38
3861.806	-100.38
3864.414	-100.71
3867.019	-96.38
3869.622	-100.38
3872.224	-93.38
3874.823	-95.38
3877.421	-89.71
3880.016	-87.71
3882.61	-84.38
3885.202	-75.71
3887.792	-86.38
3890.38	-93.04
3892.966	-99.04
3895.55	-103.38
3898.132	-101.04
3900.713	-100.38
3903.291	-100.71
3905.868	-100.38
3908.442	-100.04
3911.015	-98.38
3913.586	-101.38
3916.155	-100.71
3918.722	-103.38
3921.287	-99.71
3923.85	-99.71
3926.411	-99.71
3928.971	-100.04
3931.528	-102.04
3934.084	-101.38
3936.638	-103.71
3939.19	-106.38
3941.74	-102.38
3944.288	-102.04
3946.834	-99.38
3949.378	-102.38
3951.921	-100.71
3954.462	-99.38
3957	-99.38
3959.537	-98.38
3962.072	-101.38
3964.606	-98.38
3967.137	-101.38
3969.667	-100.04
3972.194	-102.38
3974.72	-101.38
3977.244	-100.71
3979.766	-100.71
3982.286	-99.04
3984.805	-104.38
3987.321	-101.04
3989.836	-98.38
3992.349	-98.38
3994.86	-99.38
3997.369	-96.04
3999.877	-99.04
4002.382	-98.04
4004.886	-101.04
4007.388	-96.71
4009.888	-96.38
4012.386	-101.71
4014.883	-100.71
4017.377	-100.04
4019.87	-100.38
4022.361	-100.38
4024.85	-99.04
4027.338	-103.38
4029.823	-103.71
4032.307	-101.38
4034.789	-99.38
4037.269	-99.38
4039.747	-100.38
4042.224	-98.71
4044.699	-99.71
4047.172	-100.71
4049.643	-104.04
4052.112	-99.38
4054.58	-98.38
4057.046	-102.38
4059.51	-103.04
4061.972	-101.38
4064.432	-102.71
4066.891	-99.04
4069.348	-102.38
4071.803	-96.38
4074.256	-97.71
4076.708	-101.04
4079.158	-99.38
4081.606	-97.71
4084.052	-101.38
4086.497	-101.04
4088.939	-100.04
4091.38	-100.04
4093.819	-101.04
4096.257	-103.04
4098.693	-103.04
4101.127	-102.71
4103.559	-103.04
4105.989	-65.71
4108.418	-63.71
4110.845	-59.71
4113.27	-53.71
4115.694	-47.04
4118.115	-42.38
4120.535	-100.71
4122.954	-103.38
4125.37	-101.38
4127.785	-99.71
4130.198	-101.71
4132.609	-100.38
4135.019	-103.71
4137.427	-107.04
4139.833	-102.38
4142.237	-103.71
