Data from DW_1 (I=1 T=5x3 V=3ml)_RamanShift_3.txt Node
Date: Mon Jun 05 13:05:31 IDT 2017
User: aro
Spectrometer: QEPB0276
Trigger mode: 0
Integration Time (sec): 5.000000E0
Scans to average: 1
Electric dark correction enabled: true
Nonlinearity correction enabled: false
Boxcar width: 0
XAxis mode: Raman Shifts
Number of Pixels in Spectrum: 1044
>>>>>Begin Spectral Data<<<<<
160.701	-31.62
166.742	2.04
172.777	87.04
178.805	376.38
184.826	1057.71
190.841	2209.71
196.849	3520.04
202.85	4364.04
208.845	4568.38
214.833	4383.38
220.815	4199.04
226.789	4053.04
232.758	3917.38
238.719	3767.71
244.674	3617.71
250.623	3407.38
256.565	3244.71
262.5	3054.38
268.429	2916.04
274.351	2784.04
280.267	2659.04
286.176	2537.71
292.079	2431.71
297.975	2345.04
303.865	2251.71
309.748	2203.38
315.625	2165.04
321.495	2104.04
327.359	2058.38
333.217	2058.04
339.068	2031.38
344.912	2019.71
350.751	1993.04
356.583	1991.04
362.408	2000.04
368.227	2011.38
374.04	2021.04
379.847	2057.71
385.647	2040.71
391.44	2053.04
397.228	2042.38
403.009	2042.04
408.784	2074.04
414.553	2140.04
420.315	2218.71
426.071	2210.04
431.821	2152.71
437.565	2096.04
443.302	2045.04
449.033	2043.38
454.758	2016.71
460.477	1990.04
466.189	1971.38
471.896	1963.38
477.596	1947.04
483.29	1933.71
488.978	1898.04
494.66	1876.04
500.335	1860.04
506.005	1817.71
511.668	1772.71
517.325	1723.38
522.977	1695.04
528.622	1672.71
534.261	1644.04
539.894	1631.38
545.521	1616.38
551.141	1598.38
556.756	1566.38
562.365	1563.04
567.968	1547.04
573.565	1534.38
579.155	1519.71
584.74	1503.04
590.319	1494.04
595.892	1479.71
601.459	1460.71
607.02	1445.04
612.575	1423.04
618.124	1389.04
623.667	1369.38
629.204	1377.38
634.735	1355.04
640.261	1368.71
645.781	1357.04
651.294	1367.38
656.802	1349.38
662.304	1311.38
667.8	1274.38
673.29	1272.71
678.775	1252.38
684.254	1259.38
689.726	1229.38
695.193	1218.71
700.655	1211.71
706.11	1182.04
711.56	1186.71
717.004	1168.04
722.442	1159.04
727.874	1138.71
733.301	1124.38
738.722	1108.04
744.137	1120.38
749.547	1110.71
754.951	1106.71
760.349	1095.04
765.741	1080.04
771.128	1086.04
776.509	1063.71
781.885	1061.71
787.254	1052.04
792.618	1046.38
797.977	1029.04
803.33	1007.71
808.677	998.71
814.019	983.04
819.355	976.71
824.686	943.38
830.011	941.38
835.33	929.04
840.644	921.04
845.952	894.04
851.255	900.04
856.552	878.04
861.844	875.04
867.13	861.38
872.41	859.38
877.686	863.04
882.955	853.38
888.219	829.04
893.478	782.38
898.731	762.04
903.979	731.38
909.221	717.71
914.458	707.04
919.69	692.71
924.916	688.04
930.136	682.38
935.351	681.38
940.561	671.71
945.766	660.71
950.965	652.04
956.158	643.71
961.347	633.38
966.529	612.71
971.707	599.04
976.879	587.71
982.046	583.04
987.208	569.71
992.364	570.38
997.515	568.71
1002.66	576.04
1007.801	578.38
1012.936	579.04
1018.066	572.71
1023.19	586.04
1028.309	590.04
1033.423	585.04
1038.532	584.04
1043.636	564.38
1048.734	562.38
1053.827	560.38
1058.915	557.38
1063.998	539.04
1069.075	542.71
1074.147	542.04
1079.214	537.04
1084.276	551.38
1089.333	559.71
1094.385	542.38
1099.431	546.38
1104.472	537.38
1109.509	529.04
1114.54	523.38
1119.565	519.04
1124.586	513.71
1129.602	500.38
1134.613	495.71
1139.618	497.38
1144.619	499.38
1149.614	487.71
1154.604	488.38
1159.589	488.04
1164.57	500.04
1169.545	503.04
1174.515	489.71
1179.48	490.71
1184.44	482.71
1189.395	488.38
1194.345	477.04
1199.29	471.04
1204.23	470.71
1209.165	475.04
1214.095	475.71
1219.021	481.04
1223.941	481.71
1228.856	486.04
1233.766	478.38
1238.672	483.04
1243.572	482.04
1248.467	470.04
1253.358	465.71
1258.244	461.71
1263.124	445.71
1268	446.38
1272.871	440.38
1277.737	437.04
1282.599	428.71
1287.455	432.71
1292.306	417.71
1297.153	417.71
1301.995	438.71
1306.832	430.38
1311.664	432.71
1316.491	440.71
1321.314	429.71
1326.132	424.38
1330.945	415.71
1335.753	405.38
1340.556	395.71
1345.354	384.71
1350.148	377.04
1354.937	372.38
1359.722	371.71
1364.501	369.71
1369.276	370.71
1374.046	378.71
1378.811	369.71
1383.572	373.04
1388.327	374.71
1393.079	364.38
1397.825	360.71
1402.567	349.38
1407.304	342.04
1412.036	348.04
1416.764	338.04
1421.487	335.04
1426.205	346.38
1430.919	342.04
1435.628	351.71
1440.333	345.04
1445.032	354.38
1449.727	361.71
1454.418	350.71
1459.104	368.04
1463.785	355.38
1468.462	355.71
1473.134	351.04
1477.802	350.71
1482.465	344.38
1487.123	343.04
1491.777	349.04
1496.426	351.71
1501.071	360.38
1505.711	362.38
1510.347	368.71
1514.978	376.38
1519.604	392.04
1524.226	386.38
1528.844	388.71
1533.457	389.04
1538.065	398.71
1542.669	394.71
1547.269	401.04
1551.864	405.04
1556.454	412.38
1561.041	423.38
1565.622	437.04
1570.199	451.04
1574.772	460.71
1579.34	479.04
1583.904	498.38
1588.464	518.38
1593.019	526.04
1597.569	562.04
1602.115	575.38
1606.657	582.71
1611.195	612.38
1615.728	628.38
1620.256	648.71
1624.78	668.71
1629.3	699.04
1633.816	708.38
1638.327	720.04
1642.834	729.71
1647.336	743.04
1651.834	736.71
1656.328	736.04
1660.817	711.38
1665.302	698.04
1669.783	663.71
1674.259	624.04
1678.732	596.38
1683.199	562.38
1687.663	530.71
1692.122	489.38
1696.577	476.71
1701.028	427.38
1705.474	395.38
1709.917	375.04
1714.355	356.38
1718.788	329.71
1723.218	302.04
1727.643	286.04
1732.064	260.04
1736.481	243.71
1740.893	230.38
1745.301	210.71
1749.705	188.71
1754.105	185.71
1758.501	170.38
1762.893	147.71
1767.28	145.38
1771.663	134.38
1776.042	133.71
1780.417	121.04
1784.787	124.38
1789.154	119.38
1793.516	117.04
1797.874	121.71
1802.228	116.71
1806.578	110.04
1810.924	104.38
1815.266	101.71
1819.603	95.71
1823.937	87.04
1828.266	91.38
1832.591	89.04
1836.913	80.04
1841.23	80.71
1845.543	76.38
1849.852	81.04
1854.156	78.04
1858.457	80.04
1862.754	72.04
1867.047	71.38
1871.335	67.71
1875.62	80.71
1879.9	72.04
1884.177	80.38
1888.449	79.04
1892.718	78.71
1896.982	80.38
1901.243	75.71
1905.499	73.04
1909.752	74.38
1914	80.38
1918.245	78.04
1922.485	79.04
1926.722	79.71
1930.954	84.38
1935.183	87.71
1939.408	87.71
1943.628	85.71
1947.845	95.38
1952.058	92.38
1956.267	93.04
1960.472	95.04
1964.673	85.38
1968.87	90.38
1973.063	82.71
1977.252	85.04
1981.438	90.04
1985.619	81.38
1989.797	83.38
1993.971	84.04
1998.14	78.04
2002.306	92.04
2006.469	86.71
2010.627	96.71
2014.781	98.04
2018.932	97.71
2023.078	97.38
2027.221	94.71
2031.36	95.71
2035.495	94.71
2039.627	97.38
2043.754	90.38
2047.878	91.38
2051.998	97.71
2056.114	96.04
2060.226	99.38
2064.334	100.38
2068.439	100.71
2072.54	108.38
2076.637	107.71
2080.73	111.04
2084.82	107.71
2088.906	120.38
2092.988	114.71
2097.066	115.71
2101.14	112.38
2105.211	115.71
2109.278	108.71
2113.342	105.38
2117.401	103.04
2121.457	105.38
2125.509	97.04
2129.558	95.71
2133.602	101.71
2137.643	97.38
2141.681	94.04
2145.714	92.38
2149.744	90.04
2153.77	86.71
2157.793	87.38
2161.812	78.71
2165.827	80.71
2169.838	76.38
2173.846	74.71
2177.851	60.71
2181.851	61.38
2185.848	52.71
2189.841	53.38
2193.831	49.71
2197.817	46.71
2201.799	47.38
2205.778	46.38
2209.753	40.38
2213.725	39.71
2217.693	40.04
2221.657	37.38
2225.618	35.38
2229.575	40.04
2233.529	29.71
2237.479	31.71
2241.425	29.71
2245.368	25.04
2249.307	17.38
2253.243	18.71
2257.175	11.04
2261.104	8.71
2265.029	4.38
2268.95	2.38
2272.868	1.71
2276.783	-3.62
2280.694	-4.62
2284.601	-5.29
2288.505	-7.62
2292.405	-6.96
2296.302	-10.29
2300.195	-11.96
2304.085	-17.62
2307.971	-11.29
2311.854	-18.62
2315.734	-22.29
2319.609	-25.29
2323.482	-28.29
2327.351	-25.62
2331.216	-23.96
2335.078	-27.29
2338.937	-25.96
2342.792	-30.96
2346.643	-29.96
2350.492	-27.62
2354.336	-33.29
2358.178	-32.62
2362.015	-35.29
2365.85	-33.96
2369.681	-34.62
2373.508	-37.62
2377.333	-35.96
2381.153	-40.29
2384.971	-35.29
2388.785	-36.29
2392.595	-38.96
2396.402	-41.96
2400.206	-44.29
2404.007	-41.62
2407.804	-34.96
2411.597	-39.29
2415.388	-41.62
2419.174	-45.96
2422.958	-40.96
2426.738	-44.96
2430.515	-44.29
2434.289	-47.62
2438.059	-48.96
2441.825	-52.29
2445.589	-52.96
2449.349	-51.62
2453.106	-51.29
2456.859	-53.96
2460.61	-52.96
2464.356	-52.96
2468.1	-53.62
2471.84	-49.29
2475.577	-53.29
2479.311	-54.29
2483.041	-49.62
2486.768	-51.62
2490.492	-52.96
2494.213	-54.29
2497.93	-59.29
2501.644	-57.29
2505.355	-57.96
2509.062	-57.29
2512.766	-56.29
2516.467	-60.96
2520.165	-55.62
2523.859	-58.96
2527.551	-53.29
2531.239	-58.62
2534.923	-55.62
2538.605	-55.96
2542.283	-54.62
2545.958	-54.62
2549.63	-57.29
2553.299	-59.62
2556.964	-59.96
2560.626	-56.29
2564.285	-57.96
2567.941	-57.29
2571.594	-59.29
2575.243	-62.29
2578.89	-57.29
2582.533	-61.29
2586.173	-65.62
2589.809	-62.62
2593.443	-63.62
2597.073	-61.96
2600.701	-58.29
2604.325	-61.96
2607.946	-61.62
2611.564	-64.96
2615.178	-63.29
2618.79	-63.29
2622.398	-60.96
2626.004	-68.96
2629.606	-66.62
2633.205	-62.96
2636.801	-65.96
2640.394	-65.29
2643.983	-68.29
2647.57	-63.96
2651.153	-64.29
2654.734	-63.29
2658.311	-61.62
2661.885	-65.96
2665.456	-60.96
2669.025	-66.62
2672.589	-67.29
2676.151	-63.29
2679.71	-62.62
2683.266	-63.96
2686.819	-64.29
2690.368	-67.96
2693.915	-61.62
2697.458	-61.62
2700.999	-61.29
2704.536	-62.96
2708.071	-60.96
2711.602	-64.96
2715.13	-58.62
2718.656	-60.96
2722.178	-59.96
2725.697	-60.62
2729.214	-56.62
2732.727	-57.96
2736.237	-55.62
2739.744	-60.29
2743.249	-56.29
2746.75	-56.62
2750.248	-57.29
2753.743	-54.96
2757.236	-50.29
2760.725	-49.29
2764.211	-49.96
2767.695	-50.96
2771.175	-51.96
2774.652	-45.62
2778.127	-47.62
2781.598	-42.29
2785.067	-45.29
2788.532	-43.96
2791.995	-45.29
2795.455	-47.96
2798.911	-42.96
2802.365	-40.96
2805.816	-39.29
2809.264	-33.62
2812.709	-35.29
2816.151	-33.96
2819.59	-29.96
2823.026	-27.62
2826.46	-26.62
2829.89	-25.96
2833.318	-18.29
2836.742	-11.62
2840.164	-15.29
2843.583	-13.29
2846.999	-7.29
2850.412	-13.29
2853.822	-9.62
2857.229	-6.29
2860.634	1.71
2864.035	0.04
2867.434	5.38
2870.83	9.71
2874.223	8.38
2877.613	12.71
2881	15.04
2884.385	28.04
2887.766	27.38
2891.145	30.71
2894.521	33.38
2897.894	30.71
2901.264	35.71
2904.631	38.38
2907.996	42.71
2911.358	53.71
2914.717	52.04
2918.073	57.71
2921.426	59.38
2924.777	58.71
2928.124	71.38
2931.469	83.71
2934.811	86.04
2938.15	84.71
2941.487	89.04
2944.821	94.71
2948.152	101.04
2951.48	104.38
2954.805	106.71
2958.128	113.04
2961.447	117.38
2964.765	124.71
2968.079	135.71
2971.39	136.04
2974.699	146.38
2978.005	157.38
2981.308	165.04
2984.609	173.71
2987.907	184.38
2991.202	186.04
2994.494	200.71
2997.784	213.71
3001.07	215.38
3004.355	228.38
3007.636	239.71
3010.915	245.71
3014.191	252.38
3017.464	266.71
3020.734	268.38
3024.002	283.38
3027.267	286.71
3030.53	297.04
3033.789	318.04
3037.046	318.38
3040.301	328.38
3043.552	341.04
3046.801	348.71
3050.048	359.04
3053.291	373.38
3056.532	400.71
3059.771	409.04
3063.006	434.71
3066.239	447.04
3069.469	465.38
3072.697	493.71
3075.922	506.38
3079.144	515.71
3082.364	540.38
3085.581	553.04
3088.795	575.71
3092.007	589.38
3095.216	610.38
3098.423	617.71
3101.627	636.04
3104.828	663.38
3108.026	672.71
3111.222	700.38
3114.416	711.71
3117.607	732.38
3120.795	749.71
3123.98	768.38
3127.163	799.04
3130.344	823.04
3133.521	844.38
3136.696	863.04
3139.869	874.38
3143.039	899.71
3146.206	927.04
3149.371	928.04
3152.533	946.38
3155.693	944.38
3158.85	958.04
3162.005	973.38
3165.157	977.38
3168.306	981.71
3171.453	984.38
3174.597	1002.04
3177.739	1002.04
3180.878	1013.71
3184.014	1012.04
3187.149	1015.71
3190.28	1012.71
3193.409	1010.71
3196.536	1030.38
3199.659	1020.04
3202.781	1039.71
3205.9	1046.04
3209.016	1038.38
3212.13	1050.04
3215.241	1036.71
3218.35	1028.38
3221.456	1012.38
3224.56	1020.04
3227.661	1012.04
3230.76	1003.71
3233.856	1000.04
3236.95	1000.38
3240.041	991.04
3243.13	983.04
3246.216	976.04
3249.3	971.38
3252.382	983.38
3255.46	964.71
3258.537	962.04
3261.611	964.38
3264.682	965.71
3267.751	950.71
3270.818	952.71
3273.882	944.71
3276.943	944.71
3280.002	934.04
3283.059	936.38
3286.113	901.38
3289.165	897.38
3292.214	894.38
3295.261	887.71
3298.306	862.71
3301.348	845.38
3304.387	833.71
3307.425	822.71
3310.459	816.71
3313.492	799.71
3316.521	800.71
3319.549	786.38
3322.574	780.38
3325.597	768.38
3328.617	769.04
3331.635	777.71
3334.65	761.04
3337.663	762.38
3340.674	762.04
3343.682	754.04
3346.688	751.38
3349.691	747.04
3352.692	748.04
3355.691	741.38
3358.687	735.71
3361.681	731.04
3364.673	725.71
3367.662	707.04
3370.649	703.04
3373.633	697.38
3376.615	695.38
3379.595	680.04
3382.572	660.04
3385.547	655.71
3388.52	663.38
3391.49	651.71
3394.458	635.38
3397.424	627.38
3400.387	620.38
3403.348	609.04
3406.307	604.71
3409.263	593.71
3412.217	595.04
3415.168	585.04
3418.118	590.38
3421.065	577.04
3424.009	579.71
3426.951	553.71
3429.891	550.04
3432.829	555.04
3435.764	533.38
3438.697	527.04
3441.628	512.04
3444.557	499.04
3447.483	484.71
3450.407	477.71
3453.328	448.71
3456.247	453.04
3459.164	437.04
3462.079	421.71
3464.991	416.71
3467.902	403.04
3470.809	384.71
3473.715	371.71
3476.618	363.71
3479.519	349.04
3482.418	332.04
3485.315	330.71
3488.209	323.04
3491.101	309.38
3493.99	315.38
3496.878	301.38
3499.763	280.04
3502.646	273.71
3505.527	266.38
3508.405	269.38
3511.281	251.38
3514.155	248.38
3517.027	233.04
3519.897	212.71
3522.764	198.04
3525.629	186.38
3528.492	184.71
3531.352	163.04
3534.211	159.04
3537.067	147.38
3539.921	149.04
3542.773	126.04
3545.622	129.04
3548.469	114.38
3551.315	109.04
3554.157	103.04
3556.998	101.04
3559.837	91.04
3562.673	86.71
3565.507	80.38
3568.339	75.38
3571.169	65.71
3573.996	58.71
3576.822	51.38
3579.645	44.71
3582.466	45.38
3585.285	33.38
3588.101	41.04
3590.916	34.38
3593.728	21.04
3596.538	20.71
3599.346	13.04
3602.152	12.71
3604.956	4.38
3607.757	6.71
3610.556	-3.62
3613.354	-1.62
3616.149	-8.96
3618.942	-12.29
3621.732	-18.29
3624.521	-21.29
3627.307	-25.62
3630.092	-25.96
3632.874	-28.29
3635.654	-32.96
3638.432	-31.96
3641.208	-37.62
3643.982	-38.96
3646.753	-38.96
3649.523	-43.29
3652.29	-44.29
3655.055	-44.62
3657.818	-52.29
3660.579	-54.96
3663.338	-59.29
3666.095	-59.96
3668.849	-64.29
3671.602	-65.96
3674.352	-63.96
3677.101	-63.29
3679.847	-67.29
3682.591	-72.29
3685.333	-74.62
3688.073	-70.96
3690.811	-75.29
3693.547	-75.29
3696.281	-76.62
3699.013	-76.62
3701.742	-80.96
3704.47	-79.96
3707.195	-80.29
3709.919	-86.29
3712.64	-83.29
3715.359	-86.62
3718.076	-88.62
3720.792	-92.96
3723.505	-91.62
3726.216	-89.62
3728.925	-88.29
3731.632	-90.29
3734.336	-90.62
3737.039	-88.62
3739.74	-90.29
3742.439	-93.96
3745.136	-89.29
3747.83	-94.29
3750.523	-95.62
3753.213	-95.29
3755.902	-98.96
3758.589	-99.29
3761.273	-99.62
3763.956	-98.29
3766.636	-96.29
3769.315	-99.29
3771.991	-97.96
3774.665	-98.96
3777.338	-97.62
3780.008	-97.96
3782.677	-97.96
3785.343	-97.96
3788.007	-94.29
3790.67	-98.29
3793.33	-99.62
3795.989	-99.62
3798.645	-99.62
3801.299	-101.62
3803.952	-101.29
3806.602	-102.96
3809.251	-102.96
3811.897	-100.62
3814.542	-104.62
3817.184	-101.96
3819.825	-104.62
3822.463	-103.96
3825.1	-100.62
3827.735	-100.96
3830.367	-101.29
3832.998	-101.96
3835.627	-101.29
3838.253	-104.96
3840.878	-101.96
3843.501	-105.29
3846.122	-105.96
3848.741	-103.62
3851.358	-105.29
3853.973	-103.62
3856.586	-106.96
3859.197	-100.62
3861.806	-103.62
3864.414	-102.96
3867.019	-100.62
3869.622	-101.62
3872.224	-100.62
3874.823	-96.62
3877.421	-95.96
3880.016	-91.96
3882.61	-86.62
3885.202	-86.96
3887.792	-91.62
3890.38	-97.29
3892.966	-104.29
3895.55	-102.62
3898.132	-106.29
3900.713	-109.62
3903.291	-104.96
3905.868	-106.62
3908.442	-105.29
3911.015	-107.62
3913.586	-107.62
3916.155	-104.96
3918.722	-106.62
3921.287	-106.96
3923.85	-104.96
3926.411	-104.96
3928.971	-107.29
3931.528	-106.29
3934.084	-107.62
3936.638	-107.96
3939.19	-109.62
3941.74	-106.62
3944.288	-104.29
3946.834	-109.62
3949.378	-105.62
3951.921	-104.96
3954.462	-102.62
3957	-104.62
3959.537	-105.62
3962.072	-104.62
3964.606	-107.62
3967.137	-108.62
3969.667	-105.29
3972.194	-109.62
3974.72	-105.62
3977.244	-106.96
3979.766	-108.96
3982.286	-106.29
3984.805	-103.62
3987.321	-103.29
3989.836	-103.62
3992.349	-102.62
3994.86	-105.62
3997.369	-105.29
3999.877	-102.29
4002.382	-103.29
4004.886	-102.29
4007.388	-100.96
4009.888	-104.62
4012.386	-106.96
4014.883	-108.96
4017.377	-108.29
4019.87	-104.62
4022.361	-106.62
4024.85	-106.29
4027.338	-104.62
4029.823	-104.96
4032.307	-103.62
4034.789	-104.62
4037.269	-104.62
4039.747	-102.62
4042.224	-104.96
4044.699	-102.96
4047.172	-105.96
4049.643	-106.29
4052.112	-103.62
4054.58	-106.62
4057.046	-104.62
4059.51	-106.29
4061.972	-104.62
4064.432	-102.96
4066.891	-106.29
4069.348	-106.62
4071.803	-104.62
4074.256	-106.96
4076.708	-105.29
4079.158	-104.62
4081.606	-102.96
4084.052	-107.62
4086.497	-108.29
4088.939	-107.29
4091.38	-106.29
4093.819	-108.29
4096.257	-110.29
4098.693	-107.29
4101.127	-105.96
4103.559	-108.29
4105.989	-68.96
4108.418	-63.96
4110.845	-61.96
4113.27	-60.96
4115.694	-52.29
4118.115	-39.62
4120.535	-105.96
4122.954	-107.62
4125.37	-105.62
4127.785	-105.96
4130.198	-106.96
4132.609	-106.62
4135.019	-107.96
4137.427	-110.29
4139.833	-107.62
4142.237	-107.96
