Data from DW_1 (I=1 T=5x3 V=3ml)_RamanShift_15.txt Node
Date: Mon Jun 05 13:17:54 IDT 2017
User: aro
Spectrometer: QEPB0276
Trigger mode: 0
Integration Time (sec): 5.000000E0
Scans to average: 1
Electric dark correction enabled: true
Nonlinearity correction enabled: false
Boxcar width: 0
XAxis mode: Raman Shifts
Number of Pixels in Spectrum: 1044
>>>>>Begin Spectral Data<<<<<
160.701	-24.5
166.742	5.17
172.777	89.17
178.805	368.5
184.826	1049.83
190.841	2209.83
196.849	3523.17
202.85	4432.17
208.845	4623.5
214.833	4478.5
220.815	4288.17
226.789	4182.17
232.758	4042.5
238.719	3899.83
244.674	3749.83
250.623	3585.5
256.565	3376.83
262.5	3231.5
268.429	3100.17
274.351	2959.17
280.267	2828.17
286.176	2752.83
292.079	2649.83
297.975	2554.17
303.865	2470.83
309.748	2429.5
315.625	2371.17
321.495	2335.17
327.359	2296.5
333.217	2265.17
339.068	2271.5
344.912	2242.83
350.751	2260.17
356.583	2240.17
362.408	2260.17
368.227	2248.5
374.04	2261.17
379.847	2288.83
385.647	2304.83
391.44	2294.17
397.228	2291.5
403.009	2284.17
408.784	2317.17
414.553	2387.17
420.315	2467.83
426.071	2481.17
431.821	2392.83
437.565	2324.17
443.302	2290.17
449.033	2294.5
454.758	2287.83
460.477	2239.17
466.189	2224.5
471.896	2189.5
477.596	2201.17
483.29	2173.83
488.978	2153.17
494.66	2142.17
500.335	2118.17
506.005	2060.83
511.668	2025.83
517.325	1975.5
522.977	1941.17
528.622	1916.83
534.261	1898.17
539.894	1866.5
545.521	1875.5
551.141	1854.5
556.756	1823.5
562.365	1809.17
567.968	1804.17
573.565	1772.5
579.155	1783.83
584.74	1747.17
590.319	1751.17
595.892	1718.83
601.459	1694.83
607.02	1696.17
612.575	1672.17
618.124	1659.17
623.667	1630.5
629.204	1609.5
634.735	1612.17
640.261	1612.83
645.781	1631.17
651.294	1616.5
656.802	1600.5
662.304	1556.5
667.8	1537.5
673.29	1527.83
678.775	1507.5
684.254	1519.5
689.726	1487.5
695.193	1479.83
700.655	1455.83
706.11	1458.17
711.56	1439.83
717.004	1414.17
722.442	1411.17
727.874	1397.83
733.301	1388.5
738.722	1381.17
744.137	1366.5
749.547	1369.83
754.951	1359.83
760.349	1358.17
765.741	1337.17
771.128	1321.17
776.509	1313.83
781.885	1313.83
787.254	1318.17
792.618	1287.5
797.977	1292.17
803.33	1269.83
808.677	1241.83
814.019	1241.17
819.355	1211.83
824.686	1204.5
830.011	1192.5
835.33	1176.17
840.644	1157.17
845.952	1164.17
851.255	1151.17
856.552	1135.17
861.844	1127.17
867.13	1115.5
872.41	1124.5
877.686	1123.17
882.955	1107.5
888.219	1101.17
893.478	1043.5
898.731	1027.17
903.979	987.5
909.221	969.83
914.458	967.17
919.69	949.83
924.916	936.17
930.136	946.5
935.351	940.5
940.561	924.83
945.766	925.83
950.965	902.17
956.158	894.83
961.347	858.5
966.529	871.83
971.707	851.17
976.879	842.83
982.046	814.17
987.208	816.83
992.364	827.5
997.515	826.83
1002.66	839.17
1007.801	811.5
1012.936	839.17
1018.066	833.83
1023.19	830.17
1028.309	838.17
1033.423	845.17
1038.532	820.17
1043.636	814.5
1048.734	818.5
1053.827	811.5
1058.915	800.5
1063.998	786.17
1069.075	785.83
1074.147	773.17
1079.214	790.17
1084.276	784.5
1089.333	803.83
1094.385	795.5
1099.431	788.5
1104.472	782.5
1109.509	785.17
1114.54	764.5
1119.565	764.17
1124.586	748.83
1129.602	741.5
1134.613	725.83
1139.618	714.5
1144.619	730.5
1149.614	727.83
1154.604	736.5
1159.589	724.17
1164.57	732.17
1169.545	730.17
1174.515	720.83
1179.48	722.83
1184.44	710.83
1189.395	704.5
1194.345	713.17
1199.29	710.17
1204.23	707.83
1209.165	697.17
1214.095	717.83
1219.021	708.17
1223.941	718.83
1228.856	715.17
1233.766	715.5
1238.672	713.17
1243.572	712.17
1248.467	699.17
1253.358	711.83
1258.244	682.83
1263.124	669.83
1268	659.5
1272.871	641.5
1277.737	645.17
1282.599	646.83
1287.455	655.83
1292.306	652.83
1297.153	653.83
1301.995	650.83
1306.832	658.5
1311.664	651.83
1316.491	648.83
1321.314	642.83
1326.132	626.5
1330.945	623.83
1335.753	611.5
1340.556	588.83
1345.354	588.83
1350.148	567.17
1354.937	561.5
1359.722	560.83
1364.501	557.83
1369.276	546.83
1374.046	563.83
1378.811	544.83
1383.572	558.17
1388.327	545.83
1393.079	538.5
1397.825	533.83
1402.567	535.5
1407.304	522.17
1412.036	524.17
1416.764	524.17
1421.487	525.17
1426.205	525.5
1430.919	520.17
1435.628	533.83
1440.333	538.17
1445.032	536.5
1449.727	541.83
1454.418	557.83
1459.104	556.17
1463.785	547.5
1468.462	522.83
1473.134	525.17
1477.802	506.83
1482.465	505.5
1487.123	499.17
1491.777	507.17
1496.426	506.83
1501.071	508.5
1505.711	525.5
1510.347	525.83
1514.978	529.5
1519.604	531.17
1524.226	539.5
1528.844	538.83
1533.457	529.17
1538.065	538.83
1542.669	535.83
1547.269	538.17
1551.864	545.17
1556.454	557.5
1561.041	566.5
1565.622	574.17
1570.199	589.17
1574.772	608.83
1579.34	616.17
1583.904	652.5
1588.464	671.5
1593.019	672.17
1597.569	703.17
1602.115	715.5
1606.657	731.83
1611.195	747.5
1615.728	771.5
1620.256	785.83
1624.78	797.83
1629.3	816.17
1633.816	825.5
1638.327	832.17
1642.834	864.83
1647.336	847.17
1651.834	850.83
1656.328	846.17
1660.817	849.5
1665.302	823.17
1669.783	786.83
1674.259	754.17
1678.732	721.5
1683.199	669.5
1687.663	627.83
1692.122	587.5
1696.577	559.83
1701.028	521.5
1705.474	492.5
1709.917	472.17
1714.355	456.5
1718.788	422.83
1723.218	403.17
1727.643	384.17
1732.064	369.17
1736.481	350.83
1740.893	328.5
1745.301	304.83
1749.705	293.83
1754.105	280.83
1758.501	264.5
1762.893	248.83
1767.28	229.5
1771.663	225.5
1776.042	217.83
1780.417	214.17
1784.787	201.5
1789.154	205.5
1793.516	197.17
1797.874	202.83
1802.228	188.83
1806.578	189.17
1810.924	186.5
1815.266	188.83
1819.603	173.83
1823.937	175.17
1828.266	171.5
1832.591	158.17
1836.913	160.17
1841.23	165.83
1845.543	158.5
1849.852	158.17
1854.156	156.17
1858.457	165.17
1862.754	157.17
1867.047	160.5
1871.335	164.83
1875.62	162.83
1879.9	164.17
1884.177	152.5
1888.449	152.17
1892.718	153.83
1896.982	159.5
1901.243	144.83
1905.499	145.17
1909.752	145.5
1914	148.5
1918.245	147.17
1922.485	147.17
1926.722	141.83
1930.954	154.5
1935.183	155.83
1939.408	151.83
1943.628	147.83
1947.845	150.5
1952.058	149.5
1956.267	147.17
1960.472	150.17
1964.673	150.5
1968.87	136.5
1973.063	134.83
1977.252	142.17
1981.438	143.17
1985.619	142.5
1989.797	141.5
1993.971	146.17
1998.14	141.17
2002.306	151.17
2006.469	150.83
2010.627	154.83
2014.781	153.17
2018.932	153.83
2023.078	154.5
2027.221	156.83
2031.36	151.83
2035.495	151.83
2039.627	150.5
2043.754	153.5
2047.878	151.5
2051.998	147.83
2056.114	146.17
2060.226	150.5
2064.334	156.5
2068.439	154.83
2072.54	157.5
2076.637	156.83
2080.73	170.17
2084.82	167.83
2088.906	162.5
2092.988	167.83
2097.066	159.83
2101.14	152.5
2105.211	153.83
2109.278	145.83
2113.342	136.5
2117.401	145.17
2121.457	146.5
2125.509	144.17
2129.558	140.83
2133.602	133.83
2137.643	135.5
2141.681	138.17
2145.714	138.5
2149.744	133.17
2153.77	132.83
2157.793	131.5
2161.812	126.83
2165.827	124.83
2169.838	114.5
2173.846	110.83
2177.851	104.83
2181.851	98.5
2185.848	97.83
2189.841	89.5
2193.831	88.83
2197.817	84.83
2201.799	80.5
2205.778	86.5
2209.753	83.5
2213.725	78.83
2217.693	76.17
2221.657	86.5
2225.618	80.5
2229.575	70.17
2233.529	70.83
2237.479	70.83
2241.425	62.83
2245.368	58.17
2249.307	55.5
2253.243	52.83
2257.175	49.17
2261.104	40.83
2265.029	43.5
2268.95	43.5
2272.868	36.83
2276.783	28.5
2280.694	29.5
2284.601	32.83
2288.505	28.5
2292.405	25.17
2296.302	25.83
2300.195	23.17
2304.085	18.5
2307.971	21.83
2311.854	16.5
2315.734	14.83
2319.609	6.83
2323.482	4.83
2327.351	6.5
2331.216	12.17
2335.078	6.83
2338.937	7.17
2342.792	-2.83
2346.643	7.17
2350.492	3.5
2354.336	0.83
2358.178	0.5
2362.015	7.83
2365.85	2.17
2369.681	-1.5
2373.508	-0.5
2377.333	0.17
2381.153	1.83
2384.971	-2.17
2388.785	1.83
2392.595	-4.83
2396.402	-2.83
2400.206	-2.17
2404.007	-9.5
2407.804	-7.83
2411.597	-6.17
2415.388	-7.5
2419.174	-8.83
2422.958	-9.83
2426.738	-9.83
2430.515	-10.17
2434.289	-10.5
2438.059	-14.83
2441.825	-11.17
2445.589	-12.83
2449.349	-14.5
2453.106	-19.17
2456.859	-16.83
2460.61	-21.83
2464.356	-21.83
2468.1	-17.5
2471.84	-18.17
2475.577	-21.17
2479.311	-19.17
2483.041	-22.5
2486.768	-20.5
2490.492	-21.83
2494.213	-22.17
2497.93	-28.17
2501.644	-24.17
2505.355	-28.83
2509.062	-23.17
2512.766	-33.17
2516.467	-28.83
2520.165	-31.5
2523.859	-31.83
2527.551	-30.17
2531.239	-30.5
2534.923	-35.5
2538.605	-27.83
2542.283	-30.5
2545.958	-28.5
2549.63	-31.17
2553.299	-30.5
2556.964	-30.83
2560.626	-30.17
2564.285	-33.83
2567.941	-31.17
2571.594	-35.17
2575.243	-35.17
2578.89	-37.17
2582.533	-37.17
2586.173	-36.5
2589.809	-38.5
2593.443	-41.5
2597.073	-36.83
2600.701	-34.17
2604.325	-38.83
2607.946	-37.5
2611.564	-37.83
2615.178	-37.17
2618.79	-38.17
2622.398	-35.83
2626.004	-39.83
2629.606	-46.5
2633.205	-39.83
2636.801	-43.83
2640.394	-41.17
2643.983	-44.17
2647.57	-46.83
2651.153	-41.17
2654.734	-38.17
2658.311	-41.5
2661.885	-41.83
2665.456	-36.83
2669.025	-38.5
2672.589	-38.17
2676.151	-37.17
2679.71	-40.5
2683.266	-39.83
2686.819	-44.17
2690.368	-40.83
2693.915	-43.5
2697.458	-43.5
2700.999	-45.17
2704.536	-45.83
2708.071	-41.83
2711.602	-43.83
2715.13	-41.5
2718.656	-48.83
2722.178	-40.83
2725.697	-46.5
2729.214	-38.5
2732.727	-41.83
2736.237	-36.5
2739.744	-38.17
2743.249	-40.17
2746.75	-43.5
2750.248	-40.17
2753.743	-36.83
2757.236	-38.17
2760.725	-33.17
2764.211	-35.83
2767.695	-34.83
2771.175	-37.83
2774.652	-35.5
2778.127	-33.5
2781.598	-27.17
2785.067	-31.17
2788.532	-29.83
2791.995	-32.17
2795.455	-26.83
2798.911	-25.83
2802.365	-25.83
2805.816	-21.17
2809.264	-21.5
2812.709	-23.17
2816.151	-20.83
2819.59	-13.83
2823.026	-14.5
2826.46	-12.5
2829.89	-9.83
2833.318	-0.17
2836.742	-3.5
2840.164	3.83
2843.583	2.83
2846.999	3.83
2850.412	4.83
2853.822	5.5
2857.229	11.83
2860.634	15.83
2864.035	13.17
2867.434	21.5
2870.83	18.83
2874.223	27.5
2877.613	30.83
2881	33.17
2884.385	34.17
2887.766	35.5
2891.145	41.83
2894.521	45.5
2897.894	48.83
2901.264	52.83
2904.631	51.5
2907.996	49.83
2911.358	56.83
2914.717	65.17
2918.073	65.83
2921.426	75.5
2924.777	77.83
2928.124	76.5
2931.469	94.83
2934.811	102.17
2938.15	98.83
2941.487	105.17
2944.821	109.83
2948.152	117.17
2951.48	111.5
2954.805	110.83
2958.128	123.17
2961.447	124.5
2964.765	128.83
2968.079	132.83
2971.39	145.17
2974.699	144.5
2978.005	164.5
2981.308	167.17
2984.609	185.83
2987.907	192.5
2991.202	191.17
2994.494	204.83
2997.784	210.83
3001.07	225.5
3004.355	229.5
3007.636	239.83
3010.915	245.83
3014.191	251.5
3017.464	264.83
3020.734	262.5
3024.002	268.5
3027.267	283.83
3030.53	291.17
3033.789	298.17
3037.046	318.5
3040.301	326.5
3043.552	334.17
3046.801	351.83
3050.048	355.17
3053.291	367.5
3056.532	386.83
3059.771	404.17
3063.006	427.83
3066.239	441.17
3069.469	453.5
3072.697	467.83
3075.922	488.5
3079.144	510.83
3082.364	523.5
3085.581	542.17
3088.795	563.83
3092.007	576.5
3095.216	584.5
3098.423	613.83
3101.627	626.17
3104.828	645.5
3108.026	665.83
3111.222	671.5
3114.416	694.83
3117.607	721.5
3120.795	737.83
3123.98	759.5
3127.163	780.17
3130.344	805.17
3133.521	812.5
3136.696	848.17
3139.869	855.5
3143.039	881.83
3146.206	911.17
3149.371	919.17
3152.533	913.5
3155.693	940.5
3158.85	937.17
3162.005	945.5
3165.157	961.5
3168.306	950.83
3171.453	958.5
3174.597	984.17
3177.739	964.17
3180.878	970.83
3184.014	972.17
3187.149	981.83
3190.28	986.83
3193.409	989.83
3196.536	999.5
3199.659	1009.17
3202.781	1010.83
3205.9	1009.17
3209.016	1020.5
3212.13	1010.17
3215.241	997.83
3218.35	999.5
3221.456	990.5
3224.56	983.17
3227.661	988.17
3230.76	982.83
3233.856	966.17
3236.95	968.5
3240.041	964.17
3243.13	939.17
3246.216	939.17
3249.3	936.5
3252.382	954.5
3255.46	925.83
3258.537	931.17
3261.611	928.5
3264.682	918.83
3267.751	926.83
3270.818	919.83
3273.882	912.83
3276.943	924.83
3280.002	909.17
3283.059	897.5
3286.113	891.5
3289.165	869.5
3292.214	854.5
3295.261	837.83
3298.306	837.83
3301.348	817.5
3304.387	807.83
3307.425	804.83
3310.459	788.83
3313.492	772.83
3316.521	783.83
3319.549	763.5
3322.574	754.5
3325.597	749.5
3328.617	737.17
3331.635	734.83
3334.65	738.17
3337.663	733.5
3340.674	722.17
3343.682	726.17
3346.688	732.5
3349.691	723.17
3352.692	724.17
3355.691	722.5
3358.687	707.83
3361.681	704.17
3364.673	696.83
3367.662	689.17
3370.649	667.17
3373.633	656.5
3376.615	656.5
3379.595	640.17
3382.572	651.17
3385.547	633.83
3388.52	631.5
3391.49	627.83
3394.458	621.5
3397.424	619.5
3400.387	612.5
3403.348	590.17
3406.307	586.83
3409.263	577.83
3412.217	577.17
3415.168	572.17
3418.118	565.5
3421.065	562.17
3424.009	558.83
3426.951	540.83
3429.891	535.17
3432.829	527.17
3435.764	514.5
3438.697	512.17
3441.628	494.17
3444.557	483.17
3447.483	463.83
3450.407	457.83
3453.328	446.83
3456.247	423.17
3459.164	416.17
3462.079	401.83
3464.991	396.83
3467.902	381.17
3470.809	379.83
3473.715	368.83
3476.618	349.83
3479.519	348.17
3482.418	329.17
3485.315	324.83
3488.209	317.17
3491.101	305.5
3493.99	296.5
3496.878	292.5
3499.763	281.17
3502.646	274.83
3505.527	259.5
3508.405	250.5
3511.281	239.5
3514.155	228.5
3517.027	215.17
3519.897	206.83
3522.764	199.17
3525.629	193.5
3528.492	176.83
3531.352	160.17
3534.211	150.17
3537.067	142.5
3539.921	140.17
3542.773	137.17
3545.622	122.17
3548.469	114.5
3551.315	106.17
3554.157	94.17
3556.998	94.17
3559.837	86.17
3562.673	78.83
3565.507	77.5
3568.339	66.5
3571.169	66.83
3573.996	64.83
3576.822	56.5
3579.645	46.83
3582.466	44.5
3585.285	37.5
3588.101	35.17
3590.916	29.5
3593.728	23.17
3596.538	25.83
3599.346	16.17
3602.152	5.83
3604.956	1.5
3607.757	-0.17
3610.556	-6.5
3613.354	-7.5
3616.149	-11.83
3618.942	-14.17
3621.732	-17.17
3624.521	-18.17
3627.307	-19.5
3630.092	-20.83
3632.874	-26.17
3635.654	-28.83
3638.432	-33.83
3641.208	-33.5
3643.982	-36.83
3646.753	-39.83
3649.523	-47.17
3652.29	-45.17
3655.055	-52.5
3657.818	-52.17
3660.579	-58.83
3663.338	-55.17
3666.095	-60.83
3668.849	-62.17
3671.602	-59.83
3674.352	-62.83
3677.101	-63.17
3679.847	-61.17
3682.591	-71.17
3685.333	-70.5
3688.073	-73.83
3690.811	-78.17
3693.547	-75.17
3696.281	-81.5
3699.013	-79.5
3701.742	-81.83
3704.47	-82.83
3707.195	-83.17
3709.919	-86.17
3712.64	-85.17
3715.359	-83.5
3718.076	-85.5
3720.792	-85.83
3723.505	-87.5
3726.216	-89.5
3728.925	-89.17
3731.632	-88.17
3734.336	-88.5
3737.039	-92.5
3739.74	-89.17
3742.439	-93.83
3745.136	-97.17
3747.83	-95.17
3750.523	-95.5
3753.213	-94.17
3755.902	-99.83
3758.589	-98.17
3761.273	-100.5
3763.956	-97.17
3766.636	-96.17
3769.315	-97.17
3771.991	-96.83
3774.665	-97.83
3777.338	-97.5
3780.008	-96.83
3782.677	-100.83
3785.343	-95.83
3788.007	-99.17
3790.67	-104.17
3793.33	-99.5
3795.989	-102.5
3798.645	-100.5
3801.299	-98.5
3803.952	-100.17
3806.602	-100.83
3809.251	-99.83
3811.897	-102.5
3814.542	-100.5
3817.184	-100.83
3819.825	-99.5
3822.463	-100.83
3825.1	-101.5
3827.735	-102.83
3830.367	-102.17
3832.998	-104.83
3835.627	-108.17
3838.253	-105.83
3840.878	-101.83
3843.501	-104.17
3846.122	-103.83
3848.741	-102.5
3851.358	-103.17
3853.973	-106.5
3856.586	-101.83
3859.197	-101.5
3861.806	-102.5
3864.414	-101.83
3867.019	-103.5
3869.622	-102.5
3872.224	-103.5
3874.823	-101.5
3877.421	-98.83
3880.016	-93.83
3882.61	-87.5
3885.202	-86.83
3887.792	-92.5
3890.38	-94.17
3892.966	-102.17
3895.55	-102.5
3898.132	-101.17
3900.713	-107.5
3903.291	-104.83
3905.868	-103.5
3908.442	-104.17
3911.015	-106.5
3913.586	-105.5
3916.155	-106.83
3918.722	-108.5
3921.287	-107.83
3923.85	-108.83
3926.411	-109.83
3928.971	-107.17
3931.528	-104.17
3934.084	-104.5
3936.638	-106.83
3939.19	-108.5
3941.74	-105.5
3944.288	-106.17
3946.834	-107.5
3949.378	-105.5
3951.921	-101.83
3954.462	-106.5
3957	-106.5
3959.537	-105.5
3962.072	-105.5
3964.606	-108.5
3967.137	-107.5
3969.667	-107.17
3972.194	-106.5
3974.72	-103.5
3977.244	-105.83
3979.766	-104.83
3982.286	-101.17
3984.805	-103.5
3987.321	-102.17
3989.836	-103.5
3992.349	-101.5
3994.86	-101.5
3997.369	-105.17
3999.877	-106.17
4002.382	-107.17
4004.886	-105.17
4007.388	-103.83
4009.888	-104.5
4012.386	-106.83
4014.883	-104.83
4017.377	-103.17
4019.87	-104.5
4022.361	-106.5
4024.85	-100.17
4027.338	-104.5
4029.823	-104.83
4032.307	-105.5
4034.789	-106.5
4037.269	-105.5
4039.747	-106.5
4042.224	-106.83
4044.699	-106.83
4047.172	-106.83
4049.643	-104.17
4052.112	-103.5
4054.58	-105.5
4057.046	-106.5
4059.51	-102.17
4061.972	-103.5
4064.432	-103.83
4066.891	-103.17
4069.348	-106.5
4071.803	-101.5
4074.256	-106.83
4076.708	-108.17
4079.158	-108.5
4081.606	-105.83
4084.052	-108.5
4086.497	-108.17
4088.939	-107.17
4091.38	-109.17
4093.819	-107.17
4096.257	-108.17
4098.693	-110.17
4101.127	-109.83
4103.559	-111.17
4105.989	-66.83
4108.418	-59.83
4110.845	-58.83
4113.27	-51.83
4115.694	-48.17
4118.115	-36.5
4120.535	-104.83
4122.954	-103.5
4125.37	-103.5
4127.785	-100.83
4130.198	-104.83
4132.609	-104.5
4135.019	-108.83
4137.427	-110.17
4139.833	-110.5
4142.237	-108.83
