Data from DW_log5 (I=1 T=5x3 V=3ml)_RamanShift_9.txt Node
Date: Mon Jun 05 13:53:02 IDT 2017
User: aro
Spectrometer: QEPB0276
Trigger mode: 0
Integration Time (sec): 5.000000E0
Scans to average: 1
Electric dark correction enabled: true
Nonlinearity correction enabled: false
Boxcar width: 0
XAxis mode: Raman Shifts
Number of Pixels in Spectrum: 1044
>>>>>Begin Spectral Data<<<<<
160.701	-25.5
166.742	3.17
172.777	95.17
178.805	385.5
184.826	1074.83
190.841	2235.83
196.849	3616.17
202.85	4508.17
208.845	4720.5
214.833	4553.5
220.815	4338.17
226.789	4204.17
232.758	4055.5
238.719	3887.83
244.674	3726.83
250.623	3561.5
256.565	3381.83
262.5	3204.5
268.429	3024.17
274.351	2870.17
280.267	2767.17
286.176	2647.83
292.079	2525.83
297.975	2452.17
303.865	2346.83
309.748	2289.5
315.625	2242.17
321.495	2189.17
327.359	2174.5
333.217	2129.17
339.068	2120.5
344.912	2099.83
350.751	2081.17
356.583	2094.17
362.408	2085.17
368.227	2095.5
374.04	2098.17
379.847	2146.83
385.647	2156.83
391.44	2125.17
397.228	2124.5
403.009	2125.17
408.784	2175.17
414.553	2224.17
420.315	2299.83
426.071	2300.17
431.821	2235.83
437.565	2155.17
443.302	2130.17
449.033	2095.5
454.758	2102.83
460.477	2061.17
466.189	2065.5
471.896	2040.5
477.596	2024.17
483.29	2005.83
488.978	1989.17
494.66	1973.17
500.335	1936.17
506.005	1899.83
511.668	1862.83
517.325	1815.5
522.977	1786.17
528.622	1738.83
534.261	1716.17
539.894	1708.5
545.521	1688.5
551.141	1671.5
556.756	1647.5
562.365	1622.17
567.968	1611.17
573.565	1611.5
579.155	1588.83
584.74	1561.17
590.319	1564.17
595.892	1547.83
601.459	1515.83
607.02	1510.17
612.575	1462.17
618.124	1462.17
623.667	1442.5
629.204	1416.5
634.735	1428.17
640.261	1411.83
645.781	1421.17
651.294	1424.5
656.802	1398.5
662.304	1355.5
667.8	1339.5
673.29	1335.83
678.775	1318.5
684.254	1309.5
689.726	1285.5
695.193	1279.83
700.655	1257.83
706.11	1265.17
711.56	1232.83
717.004	1222.17
722.442	1209.17
727.874	1188.83
733.301	1192.5
738.722	1181.17
744.137	1161.5
749.547	1174.83
754.951	1158.83
760.349	1155.17
765.741	1139.17
771.128	1130.17
776.509	1110.83
781.885	1106.83
787.254	1115.17
792.618	1093.5
797.977	1074.17
803.33	1058.83
808.677	1037.83
814.019	1031.17
819.355	1002.83
824.686	985.5
830.011	985.5
835.33	973.17
840.644	961.17
845.952	928.17
851.255	940.17
856.552	912.17
861.844	906.17
867.13	883.5
872.41	888.5
877.686	875.17
882.955	853.5
888.219	840.17
893.478	808.5
898.731	786.17
903.979	749.5
909.221	736.83
914.458	734.17
919.69	718.83
924.916	726.17
930.136	721.5
935.351	702.5
940.561	709.83
945.766	688.83
950.965	685.17
956.158	668.83
961.347	645.5
966.529	643.83
971.707	636.17
976.879	615.83
982.046	608.17
987.208	584.83
992.364	602.5
997.515	600.83
1002.66	598.17
1007.801	611.5
1012.936	605.17
1018.066	601.83
1023.19	612.17
1028.309	612.17
1033.423	603.17
1038.532	599.17
1043.636	603.5
1048.734	586.5
1053.827	575.5
1058.915	570.5
1063.998	568.17
1069.075	567.83
1074.147	551.17
1079.214	569.17
1084.276	560.5
1089.333	566.83
1094.385	564.5
1099.431	567.5
1104.472	559.5
1109.509	547.17
1114.54	542.5
1119.565	543.17
1124.586	535.83
1129.602	515.5
1134.613	514.83
1139.618	514.5
1144.619	514.5
1149.614	509.83
1154.604	515.5
1159.589	517.17
1164.57	519.17
1169.545	514.17
1174.515	512.83
1179.48	523.83
1184.44	508.83
1189.395	495.5
1194.345	507.17
1199.29	491.17
1204.23	499.83
1209.165	491.17
1214.095	506.83
1219.021	505.17
1223.941	500.83
1228.856	507.17
1233.766	506.5
1238.672	512.17
1243.572	498.17
1248.467	503.17
1253.358	488.83
1258.244	473.83
1263.124	467.83
1268	467.5
1272.871	461.5
1277.737	452.17
1282.599	451.83
1287.455	485.83
1292.306	452.83
1297.153	442.83
1301.995	448.83
1306.832	445.5
1311.664	443.83
1316.491	447.83
1321.314	440.83
1326.132	438.5
1330.945	427.83
1335.753	422.5
1340.556	412.83
1345.354	396.83
1350.148	396.17
1354.937	394.5
1359.722	384.83
1364.501	392.83
1369.276	393.83
1374.046	390.83
1378.811	398.83
1383.572	389.17
1388.327	385.83
1393.079	381.5
1397.825	373.83
1402.567	370.5
1407.304	362.17
1412.036	354.17
1416.764	366.17
1421.487	356.17
1426.205	361.5
1430.919	357.17
1435.628	359.83
1440.333	374.17
1445.032	376.5
1449.727	377.83
1454.418	371.83
1459.104	379.17
1463.785	367.5
1468.462	364.83
1473.134	354.17
1477.802	351.83
1482.465	353.5
1487.123	352.17
1491.777	354.17
1496.426	361.83
1501.071	376.5
1505.711	371.5
1510.347	376.83
1514.978	391.5
1519.604	398.17
1524.226	410.5
1528.844	405.83
1533.457	406.17
1538.065	417.83
1542.669	414.83
1547.269	420.17
1551.864	425.17
1556.454	429.5
1561.041	445.5
1565.622	445.17
1570.199	467.17
1574.772	473.83
1579.34	502.17
1583.904	521.5
1588.464	539.5
1593.019	559.17
1597.569	570.17
1602.115	590.5
1606.657	635.83
1611.195	645.5
1615.728	649.5
1620.256	672.83
1624.78	707.83
1629.3	718.17
1633.816	733.5
1638.327	755.17
1642.834	764.83
1647.336	782.17
1651.834	769.83
1656.328	764.17
1660.817	745.5
1665.302	712.17
1669.783	684.83
1674.259	659.17
1678.732	618.5
1683.199	586.5
1687.663	548.83
1692.122	508.5
1696.577	469.83
1701.028	451.5
1705.474	419.5
1709.917	388.17
1714.355	374.5
1718.788	347.83
1723.218	329.17
1727.643	301.17
1732.064	273.17
1736.481	258.83
1740.893	236.5
1745.301	226.83
1749.705	203.83
1754.105	190.83
1758.501	171.5
1762.893	161.83
1767.28	150.5
1771.663	141.5
1776.042	139.83
1780.417	130.17
1784.787	131.5
1789.154	127.5
1793.516	123.17
1797.874	118.83
1802.228	121.83
1806.578	111.17
1810.924	112.5
1815.266	101.83
1819.603	102.83
1823.937	98.17
1828.266	93.5
1832.591	88.17
1836.913	82.17
1841.23	83.83
1845.543	78.5
1849.852	78.17
1854.156	78.17
1858.457	78.17
1862.754	79.17
1867.047	82.5
1871.335	82.83
1875.62	82.83
1879.9	81.17
1884.177	81.5
1888.449	83.17
1892.718	79.83
1896.982	81.5
1901.243	77.83
1905.499	84.17
1909.752	81.5
1914	80.5
1918.245	84.17
1922.485	84.17
1926.722	82.83
1930.954	86.5
1935.183	93.83
1939.408	95.83
1943.628	92.83
1947.845	94.5
1952.058	95.5
1956.267	94.17
1960.472	93.17
1964.673	95.5
1968.87	88.5
1973.063	90.83
1977.252	86.17
1981.438	88.17
1985.619	85.5
1989.797	95.5
1993.971	90.17
1998.14	92.17
2002.306	94.17
2006.469	94.83
2010.627	101.83
2014.781	101.17
2018.932	98.83
2023.078	98.5
2027.221	96.83
2031.36	95.83
2035.495	96.83
2039.627	98.5
2043.754	98.5
2047.878	100.5
2051.998	97.83
2056.114	102.17
2060.226	100.5
2064.334	106.5
2068.439	113.83
2072.54	109.5
2076.637	115.83
2080.73	118.17
2084.82	119.83
2088.906	113.5
2092.988	112.83
2097.066	118.83
2101.14	111.5
2105.211	114.83
2109.278	107.83
2113.342	107.5
2117.401	110.17
2121.457	100.5
2125.509	104.17
2129.558	101.83
2133.602	96.83
2137.643	98.5
2141.681	91.17
2145.714	94.5
2149.744	95.17
2153.77	89.83
2157.793	85.5
2161.812	85.83
2165.827	74.83
2169.838	77.5
2173.846	73.83
2177.851	75.83
2181.851	64.5
2185.848	61.83
2189.841	50.5
2193.831	50.83
2197.817	53.83
2201.799	48.5
2205.778	41.5
2209.753	44.5
2213.725	39.83
2217.693	40.17
2221.657	37.5
2225.618	36.5
2229.575	36.17
2233.529	27.83
2237.479	31.83
2241.425	29.83
2245.368	27.17
2249.307	22.5
2253.243	13.83
2257.175	14.17
2261.104	12.83
2265.029	1.5
2268.95	3.5
2272.868	-2.17
2276.783	-3.5
2280.694	-3.5
2284.601	-3.17
2288.505	-8.5
2292.405	-9.83
2296.302	-12.17
2300.195	-13.83
2304.085	-16.5
2307.971	-17.17
2311.854	-17.5
2315.734	-19.17
2319.609	-20.17
2323.482	-25.17
2327.351	-21.5
2331.216	-19.83
2335.078	-27.17
2338.937	-28.83
2342.792	-26.83
2346.643	-25.83
2350.492	-32.5
2354.336	-33.17
2358.178	-33.5
2362.015	-35.17
2365.85	-34.83
2369.681	-33.5
2373.508	-35.5
2377.333	-34.83
2381.153	-45.17
2384.971	-38.17
2388.785	-39.17
2392.595	-36.83
2396.402	-37.83
2400.206	-42.17
2404.007	-37.5
2407.804	-40.83
2411.597	-41.17
2415.388	-40.5
2419.174	-45.83
2422.958	-43.83
2426.738	-41.83
2430.515	-43.17
2434.289	-44.5
2438.059	-49.83
2441.825	-45.17
2445.589	-47.83
2449.349	-55.5
2453.106	-50.17
2456.859	-55.83
2460.61	-53.83
2464.356	-53.83
2468.1	-45.5
2471.84	-56.17
2475.577	-57.17
2479.311	-53.17
2483.041	-56.5
2486.768	-54.5
2490.492	-50.83
2494.213	-52.17
2497.93	-54.17
2501.644	-54.17
2505.355	-57.83
2509.062	-52.17
2512.766	-60.17
2516.467	-55.83
2520.165	-60.5
2523.859	-55.83
2527.551	-58.17
2531.239	-59.5
2534.923	-58.5
2538.605	-62.83
2542.283	-57.5
2545.958	-60.5
2549.63	-59.17
2553.299	-58.5
2556.964	-57.83
2560.626	-61.17
2564.285	-61.83
2567.941	-60.17
2571.594	-58.17
2575.243	-59.17
2578.89	-62.17
2582.533	-58.17
2586.173	-63.5
2589.809	-61.5
2593.443	-60.5
2597.073	-60.83
2600.701	-62.17
2604.325	-62.83
2607.946	-62.5
2611.564	-63.83
2615.178	-66.17
2618.79	-68.17
2622.398	-64.83
2626.004	-62.83
2629.606	-68.5
2633.205	-63.83
2636.801	-69.83
2640.394	-63.17
2643.983	-63.17
2647.57	-66.83
2651.153	-65.17
2654.734	-63.17
2658.311	-64.5
2661.885	-65.83
2665.456	-64.83
2669.025	-66.5
2672.589	-64.17
2676.151	-64.17
2679.71	-62.5
2683.266	-64.83
2686.819	-66.17
2690.368	-64.83
2693.915	-66.5
2697.458	-60.5
2700.999	-66.17
2704.536	-65.83
2708.071	-61.83
2711.602	-65.83
2715.13	-62.5
2718.656	-62.83
2722.178	-58.83
2725.697	-68.5
2729.214	-58.5
2732.727	-59.83
2736.237	-56.5
2739.744	-60.17
2743.249	-56.17
2746.75	-57.5
2750.248	-54.17
2753.743	-54.83
2757.236	-56.17
2760.725	-52.17
2764.211	-52.83
2767.695	-48.83
2771.175	-51.83
2774.652	-49.5
2778.127	-48.5
2781.598	-48.17
2785.067	-43.17
2788.532	-44.83
2791.995	-49.17
2795.455	-41.83
2798.911	-42.83
2802.365	-39.83
2805.816	-38.17
2809.264	-32.5
2812.709	-30.17
2816.151	-30.83
2819.59	-31.83
2823.026	-30.5
2826.46	-20.5
2829.89	-25.83
2833.318	-16.17
2836.742	-18.5
2840.164	-21.17
2843.583	-18.17
2846.999	-15.17
2850.412	-12.17
2853.822	-7.5
2857.229	-5.17
2860.634	-6.17
2864.035	-4.83
2867.434	1.5
2870.83	9.83
2874.223	10.5
2877.613	16.83
2881	20.17
2884.385	20.17
2887.766	23.5
2891.145	25.83
2894.521	26.5
2897.894	26.83
2901.264	38.83
2904.631	40.5
2907.996	36.83
2911.358	46.83
2914.717	47.17
2918.073	53.83
2921.426	51.5
2924.777	58.83
2928.124	65.5
2931.469	71.83
2934.811	75.17
2938.15	81.83
2941.487	90.17
2944.821	93.83
2948.152	94.17
2951.48	106.5
2954.805	110.83
2958.128	114.17
2961.447	120.5
2964.765	127.83
2968.079	131.83
2971.39	132.17
2974.699	144.5
2978.005	160.5
2981.308	165.17
2984.609	174.83
2987.907	183.5
2991.202	191.17
2994.494	207.83
2997.784	219.83
3001.07	221.5
3004.355	236.5
3007.636	253.83
3010.915	255.83
3014.191	259.5
3017.464	275.83
3020.734	276.5
3024.002	286.5
3027.267	283.83
3030.53	304.17
3033.789	310.17
3037.046	327.5
3040.301	332.5
3043.552	347.17
3046.801	358.83
3050.048	383.17
3053.291	396.5
3056.532	408.83
3059.771	430.17
3063.006	442.83
3066.239	461.17
3069.469	484.5
3072.697	507.83
3075.922	523.5
3079.144	540.83
3082.364	556.5
3085.581	563.17
3088.795	584.83
3092.007	604.5
3095.216	626.5
3098.423	643.83
3101.627	655.17
3104.828	683.5
3108.026	684.83
3111.222	708.5
3114.416	741.83
3117.607	761.5
3120.795	772.83
3123.98	800.5
3127.163	833.17
3130.344	853.17
3133.521	869.5
3136.696	892.17
3139.869	921.5
3143.039	928.83
3146.206	965.17
3149.371	968.17
3152.533	994.5
3155.693	985.5
3158.85	997.17
3162.005	996.5
3165.157	1016.5
3168.306	1014.83
3171.453	1016.5
3174.597	1032.17
3177.739	1025.17
3180.878	1047.83
3184.014	1029.17
3187.149	1042.83
3190.28	1055.83
3193.409	1059.83
3196.536	1061.5
3199.659	1075.17
3202.781	1075.83
3205.9	1085.17
3209.016	1074.5
3212.13	1084.17
3215.241	1064.83
3218.35	1080.5
3221.456	1065.5
3224.56	1062.17
3227.661	1041.17
3230.76	1045.83
3233.856	1036.17
3236.95	1020.5
3240.041	1012.17
3243.13	1017.17
3246.216	1000.17
3249.3	1007.5
3252.382	1004.5
3255.46	1000.83
3258.537	987.17
3261.611	1005.5
3264.682	983.83
3267.751	988.83
3270.818	971.83
3273.882	972.83
3276.943	982.83
3280.002	972.17
3283.059	940.5
3286.113	938.5
3289.165	933.5
3292.214	916.5
3295.261	906.83
3298.306	894.83
3301.348	873.5
3304.387	858.83
3307.425	858.83
3310.459	848.83
3313.492	831.83
3316.521	829.83
3319.549	809.5
3322.574	816.5
3325.597	805.5
3328.617	802.17
3331.635	791.83
3334.65	790.17
3337.663	792.5
3340.674	796.17
3343.682	794.17
3346.688	773.5
3349.691	778.17
3352.692	765.17
3355.691	756.5
3358.687	752.83
3361.681	763.17
3364.673	751.83
3367.662	736.17
3370.649	716.17
3373.633	717.5
3376.615	705.5
3379.595	698.17
3382.572	685.17
3385.547	682.83
3388.52	675.5
3391.49	672.83
3394.458	668.5
3397.424	652.5
3400.387	647.5
3403.348	639.17
3406.307	641.83
3409.263	615.83
3412.217	628.17
3415.168	611.17
3418.118	606.5
3421.065	598.17
3424.009	604.83
3426.951	594.83
3429.891	576.17
3432.829	570.17
3435.764	551.5
3438.697	545.17
3441.628	535.17
3444.557	526.17
3447.483	516.83
3450.407	487.83
3453.328	483.83
3456.247	465.17
3459.164	457.17
3462.079	442.83
3464.991	420.83
3467.902	417.17
3470.809	392.83
3473.715	392.83
3476.618	376.83
3479.519	372.17
3482.418	348.17
3485.315	351.83
3488.209	343.17
3491.101	320.5
3493.99	317.5
3496.878	300.5
3499.763	298.17
3502.646	281.83
3505.527	284.5
3508.405	271.5
3511.281	255.5
3514.155	250.5
3517.027	242.17
3519.897	226.83
3522.764	219.17
3525.629	194.5
3528.492	191.83
3531.352	183.17
3534.211	165.17
3537.067	160.5
3539.921	148.17
3542.773	138.17
3545.622	126.17
3548.469	120.5
3551.315	108.17
3554.157	97.17
3556.998	98.17
3559.837	98.17
3562.673	87.83
3565.507	80.5
3568.339	78.5
3571.169	74.83
3573.996	60.83
3576.822	63.5
3579.645	54.83
3582.466	41.5
3585.285	42.5
3588.101	34.17
3590.916	28.5
3593.728	22.17
3596.538	20.83
3599.346	18.17
3602.152	11.83
3604.956	4.5
3607.757	-3.17
3610.556	-1.5
3613.354	-7.5
3616.149	-8.83
3618.942	-11.17
3621.732	-16.17
3624.521	-26.17
3627.307	-23.5
3630.092	-24.83
3632.874	-25.17
3635.654	-27.83
3638.432	-32.83
3641.208	-36.5
3643.982	-37.83
3646.753	-39.83
3649.523	-42.17
3652.29	-45.17
3655.055	-49.5
3657.818	-52.17
3660.579	-56.83
3663.338	-60.17
3666.095	-61.83
3668.849	-63.17
3671.602	-65.83
3674.352	-67.83
3677.101	-65.17
3679.847	-72.17
3682.591	-71.17
3685.333	-72.5
3688.073	-74.83
3690.811	-78.17
3693.547	-77.17
3696.281	-77.5
3699.013	-82.5
3701.742	-83.83
3704.47	-80.83
3707.195	-83.17
3709.919	-86.17
3712.64	-87.17
3715.359	-89.5
3718.076	-89.5
3720.792	-93.83
3723.505	-92.5
3726.216	-91.5
3728.925	-91.17
3731.632	-94.17
3734.336	-96.5
3737.039	-93.5
3739.74	-93.17
3742.439	-94.83
3745.136	-94.17
3747.83	-99.17
3750.523	-98.5
3753.213	-99.17
3755.902	-98.83
3758.589	-98.17
3761.273	-96.5
3763.956	-98.17
3766.636	-99.17
3769.315	-101.17
3771.991	-98.83
3774.665	-102.83
3777.338	-101.5
3780.008	-101.83
3782.677	-100.83
3785.343	-103.83
3788.007	-102.17
3790.67	-102.17
3793.33	-106.5
3795.989	-104.5
3798.645	-108.5
3801.299	-104.5
3803.952	-104.17
3806.602	-102.83
3809.251	-103.83
3811.897	-103.5
3814.542	-104.5
3817.184	-104.83
3819.825	-104.5
3822.463	-104.83
3825.1	-104.5
3827.735	-106.83
3830.367	-103.17
3832.998	-105.83
3835.627	-110.17
3838.253	-107.83
3840.878	-104.83
3843.501	-108.17
3846.122	-106.83
3848.741	-105.5
3851.358	-110.17
3853.973	-107.5
3856.586	-108.83
3859.197	-108.5
3861.806	-106.5
3864.414	-107.83
3867.019	-110.5
3869.622	-107.5
3872.224	-106.5
3874.823	-99.5
3877.421	-101.83
3880.016	-94.83
3882.61	-88.5
3885.202	-87.83
3887.792	-88.5
3890.38	-98.17
3892.966	-103.17
3895.55	-109.5
3898.132	-107.17
3900.713	-111.5
3903.291	-109.83
3905.868	-111.5
3908.442	-110.17
3911.015	-112.5
3913.586	-111.5
3916.155	-113.83
3918.722	-110.5
3921.287	-111.83
3923.85	-105.83
3926.411	-107.83
3928.971	-107.17
3931.528	-109.17
3934.084	-107.5
3936.638	-108.83
3939.19	-110.5
3941.74	-110.5
3944.288	-109.17
3946.834	-112.5
3949.378	-106.5
3951.921	-110.83
3954.462	-111.5
3957	-112.5
3959.537	-109.5
3962.072	-111.5
3964.606	-108.5
3967.137	-112.5
3969.667	-110.17
3972.194	-113.5
3974.72	-107.5
3977.244	-107.83
3979.766	-106.83
3982.286	-106.17
3984.805	-105.5
3987.321	-109.17
3989.836	-104.5
3992.349	-104.5
3994.86	-103.5
3997.369	-107.17
3999.877	-110.17
4002.382	-106.17
4004.886	-106.17
4007.388	-107.83
4009.888	-105.5
4012.386	-111.83
4014.883	-107.83
4017.377	-110.17
4019.87	-111.5
4022.361	-108.5
4024.85	-106.17
4027.338	-107.5
4029.823	-110.83
4032.307	-109.5
4034.789	-110.5
4037.269	-108.5
4039.747	-106.5
4042.224	-110.83
4044.699	-108.83
4047.172	-108.83
4049.643	-108.17
4052.112	-109.5
4054.58	-107.5
4057.046	-108.5
4059.51	-110.17
4061.972	-108.5
4064.432	-110.83
4066.891	-109.17
4069.348	-110.5
4071.803	-109.5
4074.256	-109.83
4076.708	-111.17
4079.158	-109.5
4081.606	-109.83
4084.052	-108.5
4086.497	-106.17
4088.939	-107.17
4091.38	-108.17
4093.819	-110.17
4096.257	-116.17
4098.693	-114.17
4101.127	-113.83
4103.559	-114.17
4105.989	-72.83
4108.418	-65.83
4110.845	-70.83
4113.27	-58.83
4115.694	-55.17
4118.115	-44.5
4120.535	-106.83
4122.954	-109.5
4125.37	-107.5
4127.785	-108.83
4130.198	-108.83
4132.609	-108.5
4135.019	-113.83
4137.427	-115.17
4139.833	-114.5
4142.237	-114.83
