Data from DW_log8 (I=1 T=5x3 V=3ml)_RamanShift_8.txt Node
Date: Mon Jun 05 13:35:31 IDT 2017
User: aro
Spectrometer: QEPB0276
Trigger mode: 0
Integration Time (sec): 5.000000E0
Scans to average: 1
Electric dark correction enabled: true
Nonlinearity correction enabled: false
Boxcar width: 0
XAxis mode: Raman Shifts
Number of Pixels in Spectrum: 1044
>>>>>Begin Spectral Data<<<<<
160.701	-5.88
166.742	6.79
172.777	28.79
178.805	109.12
184.826	296.46
190.841	608.46
196.849	957.79
202.85	1195.79
208.845	1260.12
214.833	1221.12
220.815	1171.79
226.789	1148.79
232.758	1112.12
238.719	1071.46
244.674	1048.46
250.623	986.12
256.565	956.46
262.5	923.12
268.429	881.79
274.351	849.79
280.267	815.79
286.176	797.46
292.079	781.46
297.975	766.79
303.865	748.46
309.748	728.12
315.625	724.79
321.495	719.79
327.359	716.12
333.217	713.79
339.068	711.12
344.912	709.46
350.751	706.79
356.583	687.79
362.408	701.79
368.227	698.12
374.04	717.79
379.847	732.46
385.647	741.46
391.44	742.79
397.228	729.12
403.009	733.79
408.784	754.79
414.553	802.79
420.315	868.46
426.071	881.79
431.821	805.46
437.565	764.79
443.302	736.79
449.033	720.12
454.758	729.46
460.477	714.79
466.189	703.12
471.896	707.12
477.596	678.79
483.29	686.46
488.978	677.79
494.66	674.79
500.335	662.79
506.005	623.46
511.668	610.46
517.325	582.12
522.977	564.79
528.622	560.46
534.261	549.79
539.894	527.12
545.521	524.12
551.141	514.12
556.756	524.12
562.365	506.79
567.968	505.79
573.565	503.12
579.155	492.46
584.74	489.79
590.319	487.79
595.892	481.46
601.459	474.46
607.02	472.79
612.575	471.79
618.124	465.79
623.667	454.12
629.204	448.12
634.735	442.79
640.261	456.46
645.781	471.79
651.294	485.12
656.802	467.12
662.304	443.12
667.8	423.12
673.29	424.46
678.775	418.12
684.254	411.12
689.726	412.12
695.193	410.46
700.655	401.46
706.11	395.79
711.56	395.46
717.004	389.79
722.442	382.79
727.874	385.46
733.301	379.12
738.722	378.79
744.137	382.12
749.547	387.46
754.951	391.46
760.349	382.79
765.741	374.79
771.128	371.79
776.509	372.46
781.885	372.46
787.254	380.79
792.618	373.12
797.977	367.79
803.33	366.46
808.677	365.46
814.019	358.79
819.355	345.46
824.686	341.12
830.011	345.12
835.33	337.79
840.644	328.79
845.952	321.79
851.255	322.79
856.552	314.79
861.844	311.79
867.13	306.12
872.41	301.12
877.686	310.79
882.955	305.12
888.219	297.79
893.478	283.12
898.731	282.79
903.979	267.12
909.221	268.46
914.458	265.79
919.69	260.46
924.916	258.79
930.136	259.12
935.351	256.12
940.561	257.46
945.766	244.46
950.965	248.79
956.158	246.46
961.347	238.12
966.529	240.46
971.707	218.79
976.879	225.46
982.046	223.79
987.208	232.46
992.364	224.12
997.515	227.46
1002.66	223.79
1007.801	229.12
1012.936	228.79
1018.066	237.46
1023.19	232.79
1028.309	229.79
1033.423	224.79
1038.532	221.79
1043.636	226.12
1048.734	227.12
1053.827	225.12
1058.915	222.12
1063.998	216.79
1069.075	209.46
1074.147	204.79
1079.214	213.79
1084.276	216.12
1089.333	219.46
1094.385	208.12
1099.431	218.12
1104.472	210.12
1109.509	214.79
1114.54	207.12
1119.565	209.79
1124.586	207.46
1129.602	199.12
1134.613	203.46
1139.618	201.12
1144.619	198.12
1149.614	204.46
1154.604	201.12
1159.589	198.79
1164.57	195.79
1169.545	197.79
1174.515	197.46
1179.48	202.46
1184.44	196.46
1189.395	195.12
1194.345	189.79
1199.29	192.79
1204.23	190.46
1209.165	191.79
1214.095	193.46
1219.021	191.79
1223.941	194.46
1228.856	195.79
1233.766	203.12
1238.672	194.79
1243.572	198.79
1248.467	191.79
1253.358	190.46
1258.244	189.46
1263.124	182.46
1268	177.12
1272.871	173.12
1277.737	173.79
1282.599	169.46
1287.455	175.46
1292.306	170.46
1297.153	174.46
1301.995	172.46
1306.832	174.12
1311.664	167.46
1316.491	172.46
1321.314	172.46
1326.132	170.12
1330.945	164.46
1335.753	162.12
1340.556	162.46
1345.354	156.46
1350.148	154.79
1354.937	152.12
1359.722	149.46
1364.501	150.46
1369.276	146.46
1374.046	148.46
1378.811	148.46
1383.572	147.79
1388.327	154.46
1393.079	146.12
1397.825	139.46
1402.567	139.12
1407.304	141.79
1412.036	140.79
1416.764	137.79
1421.487	138.79
1426.205	142.12
1430.919	142.79
1435.628	139.46
1440.333	149.79
1445.032	144.12
1449.727	148.46
1454.418	142.46
1459.104	141.79
1463.785	142.12
1468.462	140.46
1473.134	138.79
1477.802	137.46
1482.465	141.12
1487.123	130.79
1491.777	135.79
1496.426	134.46
1501.071	141.12
1505.711	137.12
1510.347	144.46
1514.978	153.12
1519.604	144.79
1524.226	150.12
1528.844	155.46
1533.457	152.79
1538.065	150.46
1542.669	152.46
1547.269	156.79
1551.864	154.79
1556.454	152.12
1561.041	153.12
1565.622	160.79
1570.199	155.79
1574.772	161.46
1579.34	167.79
1583.904	177.12
1588.464	181.12
1593.019	182.79
1597.569	183.79
1602.115	191.12
1606.657	200.46
1611.195	199.12
1615.728	211.12
1620.256	216.46
1624.78	224.46
1629.3	226.79
1633.816	227.12
1638.327	239.79
1642.834	243.46
1647.336	241.79
1651.834	241.46
1656.328	231.79
1660.817	236.12
1665.302	236.79
1669.783	222.46
1674.259	208.79
1678.732	198.12
1683.199	186.12
1687.663	179.46
1692.122	168.12
1696.577	154.46
1701.028	149.12
1705.474	143.12
1709.917	134.79
1714.355	131.12
1718.788	129.46
1723.218	114.79
1727.643	112.79
1732.064	109.79
1736.481	99.46
1740.893	93.12
1745.301	90.46
1749.705	83.46
1754.105	78.46
1758.501	79.12
1762.893	75.46
1767.28	64.12
1771.663	64.12
1776.042	60.46
1780.417	62.79
1784.787	60.12
1789.154	60.12
1793.516	54.79
1797.874	60.46
1802.228	59.46
1806.578	60.79
1810.924	56.12
1815.266	59.46
1819.603	53.46
1823.937	51.79
1828.266	54.12
1832.591	53.79
1836.913	49.79
1841.23	44.46
1845.543	45.12
1849.852	49.79
1854.156	40.79
1858.457	45.79
1862.754	46.79
1867.047	40.12
1871.335	41.46
1875.62	48.46
1879.9	42.79
1884.177	46.12
1888.449	44.79
1892.718	43.46
1896.982	46.12
1901.243	47.46
1905.499	43.79
1909.752	42.12
1914	49.12
1918.245	48.79
1922.485	45.79
1926.722	46.46
1930.954	48.12
1935.183	50.46
1939.408	49.46
1943.628	45.46
1947.845	48.12
1952.058	50.12
1956.267	40.79
1960.472	44.79
1964.673	41.12
1968.87	45.12
1973.063	42.46
1977.252	46.79
1981.438	43.79
1985.619	43.12
1989.797	45.12
1993.971	48.79
1998.14	43.79
2002.306	46.79
2006.469	45.46
2010.627	42.46
2014.781	41.79
2018.932	42.46
2023.078	45.12
2027.221	43.46
2031.36	43.46
2035.495	40.46
2039.627	38.12
2043.754	42.12
2047.878	40.12
2051.998	46.46
2056.114	43.79
2060.226	50.12
2064.334	51.12
2068.439	44.46
2072.54	47.12
2076.637	48.46
2080.73	48.79
2084.82	54.46
2088.906	50.12
2092.988	53.46
2097.066	50.46
2101.14	50.12
2105.211	50.46
2109.278	47.46
2113.342	44.12
2117.401	48.79
2121.457	43.12
2125.509	41.79
2129.558	47.46
2133.602	45.46
2137.643	42.12
2141.681	42.79
2145.714	44.12
2149.744	45.79
2153.77	41.46
2157.793	36.12
2161.812	34.46
2165.827	33.46
2169.838	30.12
2173.846	32.46
2177.851	28.46
2181.851	28.12
2185.848	27.46
2189.841	25.12
2193.831	23.46
2197.817	25.46
2201.799	18.12
2205.778	17.12
2209.753	21.12
2213.725	22.46
2217.693	19.79
2221.657	23.12
2225.618	22.12
2229.575	18.79
2233.529	24.46
2237.479	19.46
2241.425	18.46
2245.368	17.79
2249.307	18.12
2253.243	15.46
2257.175	10.79
2261.104	14.46
2265.029	9.12
2268.95	6.12
2272.868	8.46
2276.783	5.12
2280.694	5.12
2284.601	4.46
2288.505	2.12
2292.405	0.79
2296.302	4.46
2300.195	2.79
2304.085	0.12
2307.971	3.46
2311.854	4.12
2315.734	3.46
2319.609	6.46
2323.482	-0.54
2327.351	0.12
2331.216	-0.21
2335.078	1.46
2338.937	-2.21
2342.792	-5.21
2346.643	-1.21
2350.492	-8.88
2354.336	-3.54
2358.178	-3.88
2362.015	-3.54
2365.85	-3.21
2369.681	-0.88
2373.508	-4.88
2377.333	-5.21
2381.153	-3.54
2384.971	-0.54
2388.785	-1.54
2392.595	-1.21
2396.402	-4.21
2400.206	-1.54
2404.007	-7.88
2407.804	-3.21
2411.597	-7.54
2415.388	-2.88
2419.174	-6.21
2422.958	-10.21
2426.738	-10.21
2430.515	-11.54
2434.289	-11.88
2438.059	-13.21
2441.825	-11.54
2445.589	-8.21
2449.349	-4.88
2453.106	-9.54
2456.859	-10.21
2460.61	-11.21
2464.356	-9.21
2468.1	-7.88
2471.84	-7.54
2475.577	-7.54
2479.311	-10.54
2483.041	-10.88
2486.768	-6.88
2490.492	-13.21
2494.213	-11.54
2497.93	-15.54
2501.644	-15.54
2505.355	-11.21
2509.062	-15.54
2512.766	-15.54
2516.467	-13.21
2520.165	-10.88
2523.859	-10.21
2527.551	-9.54
2531.239	-14.88
2534.923	-12.88
2538.605	-14.21
2542.283	-10.88
2545.958	-11.88
2549.63	-10.54
2553.299	-10.88
2556.964	-11.21
2560.626	-9.54
2564.285	-12.21
2567.941	-12.54
2571.594	-11.54
2575.243	-12.54
2578.89	-15.54
2582.533	-12.54
2586.173	-18.88
2589.809	-16.88
2593.443	-15.88
2597.073	-16.21
2600.701	-11.54
2604.325	-13.21
2607.946	-12.88
2611.564	-19.21
2615.178	-14.54
2618.79	-16.54
2622.398	-16.21
2626.004	-10.21
2629.606	-13.88
2633.205	-17.21
2636.801	-14.21
2640.394	-16.54
2643.983	-15.54
2647.57	-15.21
2651.153	-17.54
2654.734	-17.54
2658.311	-19.88
2661.885	-21.21
2665.456	-17.21
2669.025	-18.88
2672.589	-16.54
2676.151	-15.54
2679.71	-15.88
2683.266	-18.21
2686.819	-16.54
2690.368	-12.21
2693.915	-16.88
2697.458	-16.88
2700.999	-16.54
2704.536	-13.21
2708.071	-17.21
2711.602	-17.21
2715.13	-13.88
2718.656	-16.21
2722.178	-15.21
2725.697	-17.88
2729.214	-13.88
2732.727	-18.21
2736.237	-15.88
2739.744	-18.54
2743.249	-18.54
2746.75	-13.88
2750.248	-18.54
2753.743	-12.21
2757.236	-10.54
2760.725	-11.54
2764.211	-11.21
2767.695	-13.21
2771.175	-9.21
2774.652	-8.88
2778.127	-11.88
2781.598	-12.54
2785.067	-9.54
2788.532	-10.21
2791.995	-14.54
2795.455	-11.21
2798.911	-14.21
2802.365	-13.21
2805.816	-11.54
2809.264	-11.88
2812.709	-10.54
2816.151	-9.21
2819.59	-4.21
2823.026	-7.88
2826.46	-5.88
2829.89	-3.21
2833.318	-3.54
2836.742	0.12
2840.164	-3.54
2843.583	0.46
2846.999	1.46
2850.412	-1.54
2853.822	4.12
2857.229	5.46
2860.634	4.46
2864.035	3.79
2867.434	5.12
2870.83	4.46
2874.223	5.12
2877.613	6.46
2881	5.79
2884.385	7.79
2887.766	10.12
2891.145	10.46
2894.521	11.12
2897.894	11.46
2901.264	14.46
2904.631	15.12
2907.996	15.46
2911.358	18.46
2914.717	16.79
2918.073	19.46
2921.426	23.12
2924.777	23.46
2928.124	24.12
2931.469	24.46
2934.811	29.79
2938.15	32.46
2941.487	28.79
2944.821	31.46
2948.152	30.79
2951.48	35.12
2954.805	35.46
2958.128	35.79
2961.447	34.12
2964.765	39.46
2968.079	41.46
2971.39	41.79
2974.699	46.12
2978.005	46.12
2981.308	53.79
2984.609	63.46
2987.907	60.12
2991.202	62.79
2994.494	70.46
2997.784	65.46
3001.07	68.12
3004.355	70.12
3007.636	74.46
3010.915	74.46
3014.191	77.12
3017.464	75.46
3020.734	83.12
3024.002	84.12
3027.267	82.46
3030.53	89.79
3033.789	92.79
3037.046	96.12
3040.301	102.12
3043.552	99.79
3046.801	114.46
3050.048	116.79
3053.291	120.12
3056.532	120.46
3059.771	130.79
3063.006	136.46
3066.239	137.79
3069.469	144.12
3072.697	151.46
3075.922	154.12
3079.144	162.46
3082.364	161.12
3085.581	166.79
3088.795	169.46
3092.007	174.12
3095.216	183.12
3098.423	185.46
3101.627	186.79
3104.828	203.12
3108.026	209.46
3111.222	219.12
3114.416	217.46
3117.607	236.12
3120.795	237.46
3123.98	242.12
3127.163	244.79
3130.344	249.79
3133.521	270.12
3136.696	264.79
3139.869	271.12
3143.039	280.46
3146.206	284.79
3149.371	290.79
3152.533	296.12
3155.693	300.12
3158.85	298.79
3162.005	295.12
3165.157	301.12
3168.306	293.46
3171.453	302.12
3174.597	301.79
3177.739	311.79
3180.878	310.46
3184.014	309.79
3187.149	316.46
3190.28	317.46
3193.409	323.46
3196.536	315.12
3199.659	315.79
3202.781	320.46
3205.9	314.79
3209.016	318.12
3212.13	315.79
3215.241	317.46
3218.35	310.12
3221.456	309.12
3224.56	312.79
3227.661	308.79
3230.76	312.46
3233.856	312.79
3236.95	301.12
3240.041	300.79
3243.13	302.79
3246.216	296.79
3249.3	302.12
3252.382	294.12
3255.46	293.46
3258.537	295.79
3261.611	298.12
3264.682	300.46
3267.751	301.46
3270.818	293.46
3273.882	294.46
3276.943	293.46
3280.002	286.79
3283.059	287.12
3286.113	276.12
3289.165	278.12
3292.214	271.12
3295.261	264.46
3298.306	273.46
3301.348	258.12
3304.387	259.46
3307.425	249.46
3310.459	252.46
3313.492	250.46
3316.521	247.46
3319.549	248.12
3322.574	239.12
3325.597	240.12
3328.617	243.79
3331.635	237.46
3334.65	239.79
3337.663	228.12
3340.674	232.79
3343.682	238.79
3346.688	232.12
3349.691	232.79
3352.692	231.79
3355.691	225.12
3358.687	221.46
3361.681	214.79
3364.673	224.46
3367.662	219.79
3370.649	215.79
3373.633	217.12
3376.615	205.12
3379.595	211.79
3382.572	208.79
3385.547	206.46
3388.52	212.12
3391.49	201.46
3394.458	205.12
3397.424	200.12
3400.387	197.12
3403.348	185.79
3406.307	192.46
3409.263	189.46
3412.217	179.79
3415.168	180.79
3418.118	187.12
3421.065	176.79
3424.009	183.46
3426.951	174.46
3429.891	171.79
3432.829	169.79
3435.764	169.12
3438.697	162.79
3441.628	160.79
3444.557	155.79
3447.483	157.46
3450.407	148.46
3453.328	150.46
3456.247	141.79
3459.164	136.79
3462.079	133.46
3464.991	127.46
3467.902	129.79
3470.809	120.46
3473.715	110.46
3476.618	109.46
3479.519	107.79
3482.418	107.79
3485.315	105.46
3488.209	103.79
3491.101	100.12
3493.99	99.12
3496.878	92.12
3499.763	91.79
3502.646	86.46
3505.527	87.12
3508.405	82.12
3511.281	77.12
3514.155	73.12
3517.027	70.79
3519.897	64.46
3522.764	64.79
3525.629	60.12
3528.492	54.46
3531.352	51.79
3534.211	49.79
3537.067	46.12
3539.921	44.79
3542.773	38.79
3545.622	32.79
3548.469	40.12
3551.315	30.79
3554.157	31.79
3556.998	29.79
3559.837	34.79
3562.673	30.46
3565.507	25.12
3568.339	22.12
3571.169	25.46
3573.996	15.46
3576.822	16.12
3579.645	18.46
3582.466	13.12
3585.285	16.12
3588.101	10.79
3590.916	9.12
3593.728	3.79
3596.538	3.46
3599.346	5.79
3602.152	-0.54
3604.956	1.12
3607.757	-1.54
3610.556	-2.88
3613.354	-3.88
3616.149	-0.21
3618.942	-4.54
3621.732	-3.54
3624.521	-5.54
3627.307	-2.88
3630.092	-6.21
3632.874	-6.54
3635.654	-8.21
3638.432	-12.21
3641.208	-10.88
3643.982	-11.21
3646.753	-13.21
3649.523	-13.54
3652.29	-13.54
3655.055	-18.88
3657.818	-18.54
3660.579	-22.21
3663.338	-17.54
3666.095	-17.21
3668.849	-20.54
3671.602	-19.21
3674.352	-19.21
3677.101	-21.54
3679.847	-21.54
3682.591	-19.54
3685.333	-19.88
3688.073	-23.21
3690.811	-23.54
3693.547	-26.54
3696.281	-25.88
3699.013	-28.88
3701.742	-27.21
3704.47	-28.21
3707.195	-27.54
3709.919	-28.54
3712.64	-29.54
3715.359	-29.88
3718.076	-28.88
3720.792	-28.21
3723.505	-28.88
3726.216	-26.88
3728.925	-29.54
3731.632	-26.54
3734.336	-26.88
3737.039	-27.88
3739.74	-29.54
3742.439	-29.21
3745.136	-27.54
3747.83	-29.54
3750.523	-34.88
3753.213	-32.54
3755.902	-35.21
3758.589	-33.54
3761.273	-32.88
3763.956	-32.54
3766.636	-31.54
3769.315	-32.54
3771.991	-32.21
3774.665	-32.21
3777.338	-31.88
3780.008	-30.21
3782.677	-30.21
3785.343	-29.21
3788.007	-28.54
3790.67	-31.54
3793.33	-30.88
3795.989	-29.88
3798.645	-31.88
3801.299	-31.88
3803.952	-30.54
3806.602	-31.21
3809.251	-35.21
3811.897	-34.88
3814.542	-35.88
3817.184	-36.21
3819.825	-34.88
3822.463	-35.21
3825.1	-33.88
3827.735	-34.21
3830.367	-33.54
3832.998	-32.21
3835.627	-32.54
3838.253	-31.21
3840.878	-32.21
3843.501	-31.54
3846.122	-32.21
3848.741	-32.88
3851.358	-31.54
3853.973	-32.88
3856.586	-35.21
3859.197	-32.88
3861.806	-31.88
3864.414	-37.21
3867.019	-35.88
3869.622	-36.88
3872.224	-34.88
3874.823	-31.88
3877.421	-30.21
3880.016	-26.21
3882.61	-18.88
3885.202	-17.21
3887.792	-23.88
3890.38	-26.54
3892.966	-29.54
3895.55	-32.88
3898.132	-32.54
3900.713	-32.88
3903.291	-31.21
3905.868	-32.88
3908.442	-33.54
3911.015	-33.88
3913.586	-33.88
3916.155	-36.21
3918.722	-38.88
3921.287	-35.21
3923.85	-36.21
3926.411	-36.21
3928.971	-37.54
3931.528	-35.54
3934.084	-33.88
3936.638	-36.21
3939.19	-34.88
3941.74	-33.88
3944.288	-35.54
3946.834	-35.88
3949.378	-34.88
3951.921	-32.21
3954.462	-31.88
3957	-32.88
3959.537	-29.88
3962.072	-34.88
3964.606	-34.88
3967.137	-33.88
3969.667	-32.54
3972.194	-38.88
3974.72	-36.88
3977.244	-35.21
3979.766	-37.21
3982.286	-34.54
3984.805	-34.88
3987.321	-36.54
3989.836	-35.88
3992.349	-35.88
3994.86	-34.88
3997.369	-33.54
3999.877	-33.54
4002.382	-31.54
4004.886	-29.54
4007.388	-32.21
4009.888	-31.88
4012.386	-33.21
4014.883	-33.21
4017.377	-32.54
4019.87	-33.88
4022.361	-34.88
4024.85	-33.54
4027.338	-35.88
4029.823	-35.21
4032.307	-33.88
4034.789	-33.88
4037.269	-35.88
4039.747	-33.88
4042.224	-35.21
4044.699	-33.21
4047.172	-34.21
4049.643	-33.54
4052.112	-32.88
4054.58	-34.88
4057.046	-31.88
4059.51	-35.54
4061.972	-31.88
4064.432	-34.21
4066.891	-33.54
4069.348	-30.88
4071.803	-32.88
4074.256	-35.21
4076.708	-35.54
4079.158	-33.88
4081.606	-33.21
4084.052	-35.88
4086.497	-36.54
4088.939	-37.54
4091.38	-35.54
4093.819	-36.54
4096.257	-39.54
4098.693	-37.54
4101.127	-36.21
4103.559	-38.54
4105.989	-20.21
4108.418	-18.21
4110.845	-16.21
4113.27	-17.21
4115.694	-12.54
4118.115	-11.88
4120.535	-37.21
4122.954	-36.88
4125.37	-33.88
4127.785	-33.21
4130.198	-33.21
4132.609	-31.88
4135.019	-34.21
4137.427	-37.54
4139.833	-32.88
4142.237	-34.21
