Data from DW_log5 (I=1 T=5x3 V=3ml)_RamanShift_10.txt Node
Date: Mon Jun 05 13:54:17 IDT 2017
User: aro
Spectrometer: QEPB0276
Trigger mode: 0
Integration Time (sec): 5.000000E0
Scans to average: 1
Electric dark correction enabled: true
Nonlinearity correction enabled: false
Boxcar width: 0
XAxis mode: Raman Shifts
Number of Pixels in Spectrum: 1044
>>>>>Begin Spectral Data<<<<<
160.701	-27.25
166.742	-2.58
172.777	91.42
178.805	376.75
184.826	1049.08
190.841	2201.08
196.849	3524.42
202.85	4387.42
208.845	4597.75
214.833	4459.75
220.815	4269.42
226.789	4108.42
232.758	3968.75
238.719	3811.08
244.674	3666.08
250.623	3470.75
256.565	3311.08
262.5	3142.75
268.429	2954.42
274.351	2829.42
280.267	2717.42
286.176	2597.08
292.079	2478.08
297.975	2379.42
303.865	2303.08
309.748	2252.75
315.625	2195.42
321.495	2152.42
327.359	2119.75
333.217	2091.42
339.068	2100.75
344.912	2082.08
350.751	2053.42
356.583	2057.42
362.408	2060.42
368.227	2064.75
374.04	2081.42
379.847	2088.08
385.647	2099.08
391.44	2095.42
397.228	2087.75
403.009	2100.42
408.784	2132.42
414.553	2177.42
420.315	2274.08
426.071	2250.42
431.821	2198.08
437.565	2113.42
443.302	2077.42
449.033	2072.75
454.758	2070.08
460.477	2029.42
466.189	2025.75
471.896	2002.75
477.596	1977.42
483.29	1971.08
488.978	1940.42
494.66	1918.42
500.335	1904.42
506.005	1872.08
511.668	1822.08
517.325	1795.75
522.977	1736.42
528.622	1717.08
534.261	1689.42
539.894	1674.75
545.521	1642.75
551.141	1614.75
556.756	1611.75
562.365	1592.42
567.968	1582.42
573.565	1569.75
579.155	1556.08
584.74	1551.42
590.319	1520.42
595.892	1500.08
601.459	1491.08
607.02	1469.42
612.575	1438.42
618.124	1428.42
623.667	1394.75
629.204	1396.75
634.735	1386.42
640.261	1394.08
645.781	1402.42
651.294	1400.75
656.802	1376.75
662.304	1345.75
667.8	1298.75
673.29	1293.08
678.775	1278.75
684.254	1281.75
689.726	1258.75
695.193	1252.08
700.655	1243.08
706.11	1219.42
711.56	1213.08
717.004	1195.42
722.442	1174.42
727.874	1164.08
733.301	1154.75
738.722	1141.42
744.137	1133.75
749.547	1124.08
754.951	1122.08
760.349	1116.42
765.741	1118.42
771.128	1095.42
776.509	1082.08
781.885	1080.08
787.254	1079.42
792.618	1063.75
797.977	1061.42
803.33	1041.08
808.677	1022.08
814.019	997.42
819.355	981.08
824.686	965.75
830.011	960.75
835.33	946.42
840.644	934.42
845.952	924.42
851.255	905.42
856.552	879.42
861.844	884.42
867.13	863.75
872.41	847.75
877.686	848.42
882.955	847.75
888.219	807.42
893.478	790.75
898.731	776.42
903.979	751.75
909.221	728.08
914.458	721.42
919.69	707.08
924.916	705.42
930.136	707.75
935.351	698.75
940.561	691.08
945.766	683.08
950.965	662.42
956.158	655.08
961.347	636.75
966.529	633.08
971.707	613.42
976.879	598.08
982.046	585.42
987.208	585.08
992.364	585.75
997.515	589.08
1002.66	582.42
1007.801	585.75
1012.936	590.42
1018.066	597.08
1023.19	601.42
1028.309	588.42
1033.423	587.42
1038.532	590.42
1043.636	579.75
1048.734	578.75
1053.827	563.75
1058.915	554.75
1063.998	548.42
1069.075	549.08
1074.147	548.42
1079.214	541.42
1084.276	543.75
1089.333	544.08
1094.385	546.75
1099.431	552.75
1104.472	544.75
1109.509	549.42
1114.54	527.75
1119.565	517.42
1124.586	507.08
1129.602	512.75
1134.613	512.08
1139.618	501.75
1144.619	506.75
1149.614	497.08
1154.604	503.75
1159.589	506.42
1164.57	509.42
1169.545	506.42
1174.515	494.08
1179.48	497.08
1184.44	487.08
1189.395	493.75
1194.345	487.42
1199.29	483.42
1204.23	470.08
1209.165	484.42
1214.095	489.08
1219.021	486.42
1223.941	484.08
1228.856	502.42
1233.766	486.75
1238.672	483.42
1243.572	487.42
1248.467	493.42
1253.358	480.08
1258.244	477.08
1263.124	457.08
1268	454.75
1272.871	449.75
1277.737	437.42
1282.599	441.08
1287.455	446.08
1292.306	448.08
1297.153	435.08
1301.995	435.08
1306.832	431.75
1311.664	425.08
1316.491	420.08
1321.314	436.08
1326.132	426.75
1330.945	414.08
1335.753	401.75
1340.556	401.08
1345.354	386.08
1350.148	382.42
1354.937	388.75
1359.722	380.08
1364.501	377.08
1369.276	383.08
1374.046	373.08
1378.811	385.08
1383.572	376.42
1388.327	377.08
1393.079	376.75
1397.825	360.08
1402.567	351.75
1407.304	351.42
1412.036	345.42
1416.764	346.42
1421.487	344.42
1426.205	341.75
1430.919	354.42
1435.628	352.08
1440.333	353.42
1445.032	364.75
1449.727	361.08
1454.418	369.08
1459.104	368.42
1463.785	356.75
1468.462	347.08
1473.134	344.42
1477.802	347.08
1482.465	335.75
1487.123	338.42
1491.777	347.42
1496.426	358.08
1501.071	357.75
1505.711	371.75
1510.347	375.08
1514.978	379.75
1519.604	389.42
1524.226	392.75
1528.844	395.08
1533.457	390.42
1538.065	404.08
1542.669	406.08
1547.269	406.42
1551.864	411.42
1556.454	429.75
1561.041	434.75
1565.622	447.42
1570.199	448.42
1574.772	456.08
1579.34	477.42
1583.904	502.75
1588.464	527.75
1593.019	546.42
1597.569	566.42
1602.115	577.75
1606.657	610.08
1611.195	622.75
1615.728	646.75
1620.256	668.08
1624.78	680.08
1629.3	692.42
1633.816	718.75
1638.327	727.42
1642.834	747.08
1647.336	746.42
1651.834	749.08
1656.328	746.42
1660.817	722.75
1665.302	707.42
1669.783	666.08
1674.259	644.42
1678.732	609.75
1683.199	576.75
1687.663	533.08
1692.122	491.75
1696.577	459.08
1701.028	432.75
1705.474	402.75
1709.917	382.42
1714.355	357.75
1718.788	325.08
1723.218	314.42
1727.643	284.42
1732.064	269.42
1736.481	252.08
1740.893	233.75
1745.301	207.08
1749.705	195.08
1754.105	189.08
1758.501	174.75
1762.893	160.08
1767.28	148.75
1771.663	141.75
1776.042	136.08
1780.417	127.42
1784.787	128.75
1789.154	124.75
1793.516	122.42
1797.874	115.08
1802.228	116.08
1806.578	108.42
1810.924	108.75
1815.266	100.08
1819.603	96.08
1823.937	90.42
1828.266	88.75
1832.591	90.42
1836.913	84.42
1841.23	85.08
1845.543	82.75
1849.852	78.42
1854.156	80.42
1858.457	78.42
1862.754	77.42
1867.047	81.75
1871.335	79.08
1875.62	79.08
1879.9	79.42
1884.177	79.75
1888.449	76.42
1892.718	78.08
1896.982	78.75
1901.243	76.08
1905.499	69.42
1909.752	78.75
1914	82.75
1918.245	78.42
1922.485	84.42
1926.722	81.08
1930.954	87.75
1935.183	93.08
1939.408	90.08
1943.628	94.08
1947.845	95.75
1952.058	95.75
1956.267	93.42
1960.472	85.42
1964.673	83.75
1968.87	86.75
1973.063	88.08
1977.252	79.42
1981.438	83.42
1985.619	82.75
1989.797	79.75
1993.971	81.42
1998.14	91.42
2002.306	90.42
2006.469	82.08
2010.627	93.08
2014.781	92.42
2018.932	105.08
2023.078	101.75
2027.221	98.08
2031.36	99.08
2035.495	95.08
2039.627	97.75
2043.754	95.75
2047.878	93.75
2051.998	97.08
2056.114	102.42
2060.226	106.75
2064.334	104.75
2068.439	112.08
2072.54	107.75
2076.637	107.08
2080.73	119.42
2084.82	120.08
2088.906	114.75
2092.988	110.08
2097.066	112.08
2101.14	110.75
2105.211	115.08
2109.278	105.08
2113.342	110.75
2117.401	109.42
2121.457	109.75
2125.509	107.42
2129.558	99.08
2133.602	102.08
2137.643	93.75
2141.681	94.42
2145.714	93.75
2149.744	92.42
2153.77	87.08
2157.793	82.75
2161.812	78.08
2165.827	76.08
2169.838	72.75
2173.846	74.08
2177.851	66.08
2181.851	60.75
2185.848	59.08
2189.841	57.75
2193.831	47.08
2197.817	46.08
2201.799	47.75
2205.778	44.75
2209.753	49.75
2213.725	44.08
2217.693	42.42
2221.657	36.75
2225.618	37.75
2229.575	34.42
2233.529	34.08
2237.479	29.08
2241.425	23.08
2245.368	25.42
2249.307	25.75
2253.243	16.08
2257.175	13.42
2261.104	12.08
2265.029	5.75
2268.95	-0.25
2272.868	6.08
2276.783	-3.25
2280.694	-4.25
2284.601	-3.92
2288.505	-5.25
2292.405	-9.58
2296.302	-3.92
2300.195	-12.58
2304.085	-14.25
2307.971	-16.92
2311.854	-18.25
2315.734	-23.92
2319.609	-22.92
2323.482	-22.92
2327.351	-27.25
2331.216	-18.58
2335.078	-27.92
2338.937	-26.58
2342.792	-29.58
2346.643	-29.58
2350.492	-30.25
2354.336	-30.92
2358.178	-34.25
2362.015	-39.92
2365.85	-34.58
2369.681	-36.25
2373.508	-38.25
2377.333	-36.58
2381.153	-40.92
2384.971	-38.92
2388.785	-37.92
2392.595	-40.58
2396.402	-39.58
2400.206	-41.92
2404.007	-41.25
2407.804	-39.58
2411.597	-43.92
2415.388	-42.25
2419.174	-47.58
2422.958	-44.58
2426.738	-40.58
2430.515	-43.92
2434.289	-48.25
2438.059	-49.58
2441.825	-47.92
2445.589	-47.58
2449.349	-52.25
2453.106	-53.92
2456.859	-50.58
2460.61	-53.58
2464.356	-53.58
2468.1	-52.25
2471.84	-50.92
2475.577	-54.92
2479.311	-51.92
2483.041	-54.25
2486.768	-54.25
2490.492	-51.58
2494.213	-51.92
2497.93	-55.92
2501.644	-55.92
2505.355	-54.58
2509.062	-51.92
2512.766	-55.92
2516.467	-60.58
2520.165	-58.25
2523.859	-57.58
2527.551	-57.92
2531.239	-59.25
2534.923	-59.25
2538.605	-60.58
2542.283	-61.25
2545.958	-55.25
2549.63	-58.92
2553.299	-58.25
2556.964	-54.58
2560.626	-55.92
2564.285	-59.58
2567.941	-55.92
2571.594	-56.92
2575.243	-54.92
2578.89	-57.92
2582.533	-59.92
2586.173	-61.25
2589.809	-59.25
2593.443	-66.25
2597.073	-62.58
2600.701	-60.92
2604.325	-63.58
2607.946	-63.25
2611.564	-64.58
2615.178	-65.92
2618.79	-59.92
2622.398	-64.58
2626.004	-62.58
2629.606	-62.25
2633.205	-66.58
2636.801	-63.58
2640.394	-61.92
2643.983	-64.92
2647.57	-61.58
2651.153	-60.92
2654.734	-63.92
2658.311	-59.25
2661.885	-61.58
2665.456	-63.58
2669.025	-60.25
2672.589	-64.92
2676.151	-60.92
2679.71	-66.25
2683.266	-62.58
2686.819	-65.92
2690.368	-63.58
2693.915	-62.25
2697.458	-61.25
2700.999	-65.92
2704.536	-62.58
2708.071	-60.58
2711.602	-65.58
2715.13	-60.25
2718.656	-64.58
2722.178	-61.58
2725.697	-61.25
2729.214	-58.25
2732.727	-56.58
2736.237	-54.25
2739.744	-57.92
2743.249	-56.92
2746.75	-57.25
2750.248	-56.92
2753.743	-51.58
2757.236	-49.92
2760.725	-51.92
2764.211	-52.58
2767.695	-56.58
2771.175	-50.58
2774.652	-53.25
2778.127	-46.25
2781.598	-44.92
2785.067	-50.92
2788.532	-45.58
2791.995	-41.92
2795.455	-41.58
2798.911	-38.58
2802.365	-36.58
2805.816	-32.92
2809.264	-34.25
2812.709	-32.92
2816.151	-29.58
2819.59	-32.58
2823.026	-23.25
2826.46	-26.25
2829.89	-18.58
2833.318	-19.92
2836.742	-20.25
2840.164	-16.92
2843.583	-16.92
2846.999	-19.92
2850.412	-13.92
2853.822	-9.25
2857.229	-5.92
2860.634	-0.92
2864.035	2.42
2867.434	2.75
2870.83	8.08
2874.223	7.75
2877.613	11.08
2881	13.42
2884.385	19.42
2887.766	24.75
2891.145	24.08
2894.521	27.75
2897.894	30.08
2901.264	31.08
2904.631	31.75
2907.996	38.08
2911.358	45.08
2914.717	43.42
2918.073	52.08
2921.426	54.75
2924.777	53.08
2928.124	58.75
2931.469	65.08
2934.811	74.42
2938.15	80.08
2941.487	86.42
2944.821	90.08
2948.152	95.42
2951.48	96.75
2954.805	104.08
2958.128	111.42
2961.447	115.75
2964.765	120.08
2968.079	127.08
2971.39	137.42
2974.699	144.75
2978.005	156.75
2981.308	166.42
2984.609	174.08
2987.907	171.75
2991.202	187.42
2994.494	196.08
2997.784	204.08
3001.07	223.75
3004.355	224.75
3007.636	244.08
3010.915	253.08
3014.191	262.75
3017.464	263.08
3020.734	276.75
3024.002	276.75
3027.267	289.08
3030.53	297.42
3033.789	318.42
3037.046	313.75
3040.301	338.75
3043.552	344.42
3046.801	357.08
3050.048	363.42
3053.291	389.75
3056.532	397.08
3059.771	407.42
3063.006	432.08
3066.239	448.42
3069.469	464.75
3072.697	482.08
3075.922	495.75
3079.144	533.08
3082.364	530.75
3085.581	559.42
3088.795	572.08
3092.007	581.75
3095.216	603.75
3098.423	630.08
3101.627	640.42
3104.828	655.75
3108.026	673.08
3111.222	701.75
3114.416	727.08
3117.607	747.75
3120.795	756.08
3123.98	784.75
3127.163	793.42
3130.344	832.42
3133.521	862.75
3136.696	863.42
3139.869	897.75
3143.039	898.08
3146.206	933.42
3149.371	961.42
3152.533	941.75
3155.693	970.75
3158.85	979.42
3162.005	987.75
3165.157	988.75
3168.306	982.08
3171.453	995.75
3174.597	1008.42
3177.739	1008.42
3180.878	1017.08
3184.014	1022.42
3187.149	1024.08
3190.28	1039.08
3193.409	1030.08
3196.536	1029.75
3199.659	1034.42
3202.781	1058.08
3205.9	1058.42
3209.016	1038.75
3212.13	1057.42
3215.241	1041.08
3218.35	1041.75
3221.456	1025.75
3224.56	1023.42
3227.661	1019.42
3230.76	1018.08
3233.856	1014.42
3236.95	991.75
3240.041	1003.42
3243.13	984.42
3246.216	984.42
3249.3	979.75
3252.382	981.75
3255.46	988.08
3258.537	976.42
3261.611	974.75
3264.682	981.08
3267.751	967.08
3270.818	964.08
3273.882	949.08
3276.943	951.08
3280.002	945.42
3283.059	929.75
3286.113	929.75
3289.165	913.75
3292.214	896.75
3295.261	902.08
3298.306	868.08
3301.348	848.75
3304.387	843.08
3307.425	831.08
3310.459	827.08
3313.492	814.08
3316.521	794.08
3319.549	783.75
3322.574	795.75
3325.597	784.75
3328.617	776.42
3331.635	772.08
3334.65	761.42
3337.663	772.75
3340.674	761.42
3343.682	765.42
3346.688	767.75
3349.691	765.42
3352.692	761.42
3355.691	751.75
3358.687	752.08
3361.681	743.42
3364.673	735.08
3367.662	722.42
3370.649	719.42
3373.633	703.75
3376.615	701.75
3379.595	687.42
3382.572	681.42
3385.547	664.08
3388.52	649.75
3391.49	651.08
3394.458	648.75
3397.424	632.75
3400.387	625.75
3403.348	627.42
3406.307	618.08
3409.263	603.08
3412.217	612.42
3415.168	595.42
3418.118	600.75
3421.065	590.42
3424.009	587.08
3426.951	585.08
3429.891	571.42
3432.829	546.42
3435.764	543.75
3438.697	523.42
3441.628	526.42
3444.557	511.42
3447.483	494.08
3450.407	484.08
3453.328	458.08
3456.247	458.42
3459.164	441.42
3462.079	424.08
3464.991	418.08
3467.902	403.42
3470.809	395.08
3473.715	379.08
3476.618	371.08
3479.519	363.42
3482.418	343.42
3485.315	342.08
3488.209	340.42
3491.101	318.75
3493.99	313.75
3496.878	294.75
3499.763	292.42
3502.646	288.08
3505.527	274.75
3508.405	264.75
3511.281	261.75
3514.155	245.75
3517.027	231.42
3519.897	212.08
3522.764	205.42
3525.629	194.75
3528.492	186.08
3531.352	176.42
3534.211	165.42
3537.067	156.75
3539.921	144.42
3542.773	138.42
3545.622	128.42
3548.469	120.75
3551.315	114.42
3554.157	108.42
3556.998	97.42
3559.837	95.42
3562.673	85.08
3565.507	80.75
3568.339	73.75
3571.169	68.08
3573.996	63.08
3576.822	56.75
3579.645	53.08
3582.466	44.75
3585.285	42.75
3588.101	38.42
3590.916	30.75
3593.728	26.42
3596.538	22.08
3599.346	16.42
3602.152	10.08
3604.956	6.75
3607.757	6.08
3610.556	-5.25
3613.354	-1.25
3616.149	-9.58
3618.942	-13.92
3621.732	-12.92
3624.521	-26.92
3627.307	-19.25
3630.092	-25.58
3632.874	-29.92
3635.654	-29.58
3638.432	-31.58
3641.208	-35.25
3643.982	-39.58
3646.753	-38.58
3649.523	-38.92
3652.29	-40.92
3655.055	-50.25
3657.818	-45.92
3660.579	-50.58
3663.338	-53.92
3666.095	-58.58
3668.849	-61.92
3671.602	-64.58
3674.352	-60.58
3677.101	-64.92
3679.847	-67.92
3682.591	-71.92
3685.333	-73.25
3688.073	-74.58
3690.811	-74.92
3693.547	-79.92
3696.281	-77.25
3699.013	-78.25
3701.742	-81.58
3704.47	-84.58
3707.195	-82.92
3709.919	-79.92
3712.64	-82.92
3715.359	-82.25
3718.076	-83.25
3720.792	-91.58
3723.505	-88.25
3726.216	-90.25
3728.925	-90.92
3731.632	-90.92
3734.336	-92.25
3737.039	-90.25
3739.74	-90.92
3742.439	-93.58
3745.136	-93.92
3747.83	-94.92
3750.523	-97.25
3753.213	-96.92
3755.902	-96.58
3758.589	-92.92
3761.273	-95.25
3763.956	-94.92
3766.636	-94.92
3769.315	-96.92
3771.991	-94.58
3774.665	-95.58
3777.338	-99.25
3780.008	-96.58
3782.677	-99.58
3785.343	-98.58
3788.007	-100.92
3790.67	-101.92
3793.33	-102.25
3795.989	-102.25
3798.645	-100.25
3801.299	-100.25
3803.952	-98.92
3806.602	-103.58
3809.251	-102.58
3811.897	-100.25
3814.542	-100.25
3817.184	-100.58
3819.825	-102.25
3822.463	-101.58
3825.1	-103.25
3827.735	-99.58
3830.367	-103.92
3832.998	-99.58
3835.627	-102.92
3838.253	-104.58
3840.878	-101.58
3843.501	-106.92
3846.122	-105.58
3848.741	-105.25
3851.358	-105.92
3853.973	-105.25
3856.586	-105.58
3859.197	-103.25
3861.806	-105.25
3864.414	-105.58
3867.019	-104.25
3869.622	-103.25
3872.224	-99.25
3874.823	-98.25
3877.421	-96.58
3880.016	-93.58
3882.61	-82.25
3885.202	-81.58
3887.792	-84.25
3890.38	-94.92
3892.966	-98.92
3895.55	-104.25
3898.132	-106.92
3900.713	-109.25
3903.291	-110.58
3905.868	-107.25
3908.442	-107.92
3911.015	-108.25
3913.586	-105.25
3916.155	-105.58
3918.722	-109.25
3921.287	-107.58
3923.85	-106.58
3926.411	-106.58
3928.971	-105.92
3931.528	-103.92
3934.084	-103.25
3936.638	-105.58
3939.19	-106.25
3941.74	-104.25
3944.288	-107.92
3946.834	-111.25
3949.378	-107.25
3951.921	-104.58
3954.462	-107.25
3957	-106.25
3959.537	-108.25
3962.072	-106.25
3964.606	-107.25
3967.137	-109.25
3969.667	-105.92
3972.194	-109.25
3974.72	-105.25
3977.244	-106.58
3979.766	-106.58
3982.286	-102.92
3984.805	-103.25
3987.321	-104.92
3989.836	-102.25
3992.349	-101.25
3994.86	-103.25
3997.369	-102.92
3999.877	-101.92
4002.382	-104.92
4004.886	-101.92
4007.388	-101.58
4009.888	-104.25
4012.386	-105.58
4014.883	-106.58
4017.377	-105.92
4019.87	-104.25
4022.361	-108.25
4024.85	-106.92
4027.338	-109.25
4029.823	-108.58
4032.307	-106.25
4034.789	-105.25
4037.269	-107.25
4039.747	-105.25
4042.224	-103.58
4044.699	-101.58
4047.172	-103.58
4049.643	-103.92
4052.112	-104.25
4054.58	-104.25
4057.046	-107.25
4059.51	-105.92
4061.972	-104.25
4064.432	-108.58
4066.891	-103.92
4069.348	-107.25
4071.803	-107.25
4074.256	-105.58
4076.708	-106.92
4079.158	-107.25
4081.606	-109.58
4084.052	-107.25
4086.497	-105.92
4088.939	-106.92
4091.38	-107.92
4093.819	-103.92
4096.257	-108.92
4098.693	-108.92
4101.127	-109.58
4103.559	-109.92
4105.989	-65.58
4108.418	-62.58
4110.845	-60.58
4113.27	-59.58
4115.694	-49.92
4118.115	-44.25
4120.535	-102.58
4122.954	-103.25
4125.37	-103.25
4127.785	-105.58
4130.198	-106.58
4132.609	-104.25
4135.019	-108.58
4137.427	-109.92
4139.833	-108.25
4142.237	-111.58
