Data from DW_log5 (I=1 T=5x3 V=3ml)_RamanShift_6.txt Node
Date: Mon Jun 05 13:49:02 IDT 2017
User: aro
Spectrometer: QEPB0276
Trigger mode: 0
Integration Time (sec): 5.000000E0
Scans to average: 1
Electric dark correction enabled: true
Nonlinearity correction enabled: false
Boxcar width: 0
XAxis mode: Raman Shifts
Number of Pixels in Spectrum: 1044
>>>>>Begin Spectral Data<<<<<
160.701	-28.38
166.742	3.29
172.777	94.29
178.805	387.62
184.826	1089.96
190.841	2309.96
196.849	3678.29
202.85	4598.29
208.845	4794.62
214.833	4636.62
220.815	4444.29
226.789	4289.29
232.758	4093.62
238.719	3983.96
244.674	3826.96
250.623	3624.62
256.565	3426.96
262.5	3234.62
268.429	3092.29
274.351	2923.29
280.267	2797.29
286.176	2692.96
292.079	2572.96
297.975	2485.29
303.865	2417.96
309.748	2326.62
315.625	2266.29
321.495	2235.29
327.359	2186.62
333.217	2168.29
339.068	2150.62
344.912	2145.96
350.751	2149.29
356.583	2118.29
362.408	2122.29
368.227	2108.62
374.04	2137.29
379.847	2182.96
385.647	2163.96
391.44	2189.29
397.228	2179.62
403.009	2183.29
408.784	2217.29
414.553	2261.29
420.315	2347.96
426.071	2359.29
431.821	2265.96
437.565	2217.29
443.302	2182.29
449.033	2151.62
454.758	2127.96
460.477	2098.29
466.189	2097.62
471.896	2082.62
477.596	2054.29
483.29	2033.96
488.978	2027.29
494.66	2004.29
500.335	1974.29
506.005	1938.96
511.668	1890.96
517.325	1848.62
522.977	1809.29
528.622	1780.96
534.261	1755.29
539.894	1729.62
545.521	1728.62
551.141	1697.62
556.756	1666.62
562.365	1667.29
567.968	1642.29
573.565	1635.62
579.155	1611.96
584.74	1593.29
590.319	1582.29
595.892	1559.96
601.459	1557.96
607.02	1523.29
612.575	1525.29
618.124	1486.29
623.667	1480.62
629.204	1448.62
634.735	1444.29
640.261	1454.96
645.781	1464.29
651.294	1469.62
656.802	1414.62
662.304	1386.62
667.8	1362.62
673.29	1343.96
678.775	1333.62
684.254	1328.62
689.726	1321.62
695.193	1296.96
700.655	1305.96
706.11	1254.29
711.56	1252.96
717.004	1232.29
722.442	1232.29
727.874	1216.96
733.301	1191.62
738.722	1202.29
744.137	1182.62
749.547	1179.96
754.951	1175.96
760.349	1167.29
765.741	1163.29
771.128	1141.29
776.509	1147.96
781.885	1137.96
787.254	1113.29
792.618	1100.62
797.977	1085.29
803.33	1075.96
808.677	1071.96
814.019	1045.29
819.355	1025.96
824.686	1004.62
830.011	998.62
835.33	990.29
840.644	975.29
845.952	973.29
851.255	955.29
856.552	947.29
861.844	922.29
867.13	911.62
872.41	910.62
877.686	888.29
882.955	881.62
888.219	861.29
893.478	811.62
898.731	796.29
903.979	774.62
909.221	765.96
914.458	752.29
919.69	745.96
924.916	723.29
930.136	725.62
935.351	721.62
940.561	708.96
945.766	704.96
950.965	695.29
956.158	680.96
961.347	674.62
966.529	653.96
971.707	631.29
976.879	637.96
982.046	620.29
987.208	613.96
992.364	610.62
997.515	611.96
1002.66	605.29
1007.801	616.62
1012.936	608.29
1018.066	616.96
1023.19	621.29
1028.309	604.29
1033.423	607.29
1038.532	593.29
1043.636	602.62
1048.734	593.62
1053.827	589.62
1058.915	578.62
1063.998	565.29
1069.075	555.96
1074.147	572.29
1079.214	562.29
1084.276	575.62
1089.333	572.96
1094.385	572.62
1099.431	575.62
1104.472	570.62
1109.509	567.29
1114.54	553.62
1119.565	548.29
1124.586	532.96
1129.602	528.62
1134.613	536.96
1139.618	513.62
1144.619	522.62
1149.614	516.96
1154.604	521.62
1159.589	512.29
1164.57	517.29
1169.545	519.29
1174.515	537.96
1179.48	521.96
1184.44	506.96
1189.395	511.62
1194.345	501.29
1199.29	506.29
1204.23	502.96
1209.165	512.29
1214.095	513.96
1219.021	505.29
1223.941	501.96
1228.856	512.29
1233.766	512.62
1238.672	524.29
1243.572	505.29
1248.467	498.29
1253.358	499.96
1258.244	487.96
1263.124	473.96
1268	462.62
1272.871	461.62
1277.737	458.29
1282.599	449.96
1287.455	456.96
1292.306	453.96
1297.153	450.96
1301.995	457.96
1306.832	457.62
1311.664	456.96
1316.491	447.96
1321.314	450.96
1326.132	443.62
1330.945	434.96
1335.753	424.62
1340.556	413.96
1345.354	413.96
1350.148	405.29
1354.937	395.62
1359.722	396.96
1364.501	413.96
1369.276	393.96
1374.046	393.96
1378.811	395.96
1383.572	386.29
1388.327	381.96
1393.079	386.62
1397.825	381.96
1402.567	370.62
1407.304	362.29
1412.036	364.29
1416.764	365.29
1421.487	367.29
1426.205	357.62
1430.919	364.29
1435.628	368.96
1440.333	368.29
1445.032	372.62
1449.727	381.96
1454.418	375.96
1459.104	373.29
1463.785	376.62
1468.462	370.96
1473.134	361.29
1477.802	362.96
1482.465	355.62
1487.123	349.29
1491.777	357.29
1496.426	368.96
1501.071	387.62
1505.711	383.62
1510.347	391.96
1514.978	406.62
1519.604	405.29
1524.226	414.62
1528.844	416.96
1533.457	422.29
1538.065	426.96
1542.669	421.96
1547.269	437.29
1551.864	431.29
1556.454	431.62
1561.041	455.62
1565.622	461.29
1570.199	474.29
1574.772	492.96
1579.34	505.29
1583.904	523.62
1588.464	545.62
1593.019	565.29
1597.569	594.29
1602.115	598.62
1606.657	630.96
1611.195	639.62
1615.728	671.62
1620.256	681.96
1624.78	703.96
1629.3	733.29
1633.816	752.62
1638.327	762.29
1642.834	774.96
1647.336	796.29
1651.834	774.96
1656.328	774.29
1660.817	756.62
1665.302	732.29
1669.783	712.96
1674.259	682.29
1678.732	637.62
1683.199	596.62
1687.663	555.96
1692.122	517.62
1696.577	489.96
1701.028	454.62
1705.474	421.62
1709.917	398.29
1714.355	375.62
1718.788	355.96
1723.218	327.29
1727.643	308.29
1732.064	279.29
1736.481	261.96
1740.893	239.62
1745.301	219.96
1749.705	211.96
1754.105	190.96
1758.501	174.62
1762.893	175.96
1767.28	151.62
1771.663	145.62
1776.042	138.96
1780.417	133.29
1784.787	126.62
1789.154	135.62
1793.516	122.29
1797.874	128.96
1802.228	130.96
1806.578	116.29
1810.924	110.62
1815.266	106.96
1819.603	97.96
1823.937	102.29
1828.266	99.62
1832.591	91.29
1836.913	93.29
1841.23	84.96
1845.543	86.62
1849.852	84.29
1854.156	83.29
1858.457	80.29
1862.754	87.29
1867.047	85.62
1871.335	81.96
1875.62	85.96
1879.9	83.29
1884.177	80.62
1888.449	82.29
1892.718	79.96
1896.982	83.62
1901.243	78.96
1905.499	76.29
1909.752	80.62
1914	81.62
1918.245	80.29
1922.485	88.29
1926.722	92.96
1930.954	89.62
1935.183	95.96
1939.408	101.96
1943.628	93.96
1947.845	98.62
1952.058	96.62
1956.267	94.29
1960.472	96.29
1964.673	97.62
1968.87	90.62
1973.063	89.96
1977.252	95.29
1981.438	93.29
1985.619	93.62
1989.797	88.62
1993.971	91.29
1998.14	88.29
2002.306	90.29
2006.469	94.96
2010.627	92.96
2014.781	104.29
2018.932	99.96
2023.078	94.62
2027.221	100.96
2031.36	95.96
2035.495	93.96
2039.627	102.62
2043.754	101.62
2047.878	104.62
2051.998	105.96
2056.114	108.29
2060.226	106.62
2064.334	112.62
2068.439	113.96
2072.54	116.62
2076.637	108.96
2080.73	126.29
2084.82	117.96
2088.906	118.62
2092.988	117.96
2097.066	121.96
2101.14	116.62
2105.211	120.96
2109.278	110.96
2113.342	109.62
2117.401	110.29
2121.457	113.62
2125.509	108.29
2129.558	110.96
2133.602	96.96
2137.643	103.62
2141.681	106.29
2145.714	95.62
2149.744	99.29
2153.77	101.96
2157.793	86.62
2161.812	88.96
2165.827	77.96
2169.838	76.62
2173.846	72.96
2177.851	66.96
2181.851	71.62
2185.848	62.96
2189.841	57.62
2193.831	49.96
2197.817	50.96
2201.799	49.62
2205.778	43.62
2209.753	42.62
2213.725	45.96
2217.693	43.29
2221.657	42.62
2225.618	41.62
2229.575	39.29
2233.529	41.96
2237.479	27.96
2241.425	30.96
2245.368	30.29
2249.307	24.62
2253.243	18.96
2257.175	12.29
2261.104	16.96
2265.029	7.62
2268.95	7.62
2272.868	1.96
2276.783	-2.38
2280.694	-5.38
2284.601	-9.04
2288.505	-6.38
2292.405	-6.71
2296.302	-13.04
2300.195	-14.71
2304.085	-22.38
2307.971	-18.04
2311.854	-15.38
2315.734	-22.04
2319.609	-22.04
2323.482	-28.04
2327.351	-30.38
2331.216	-20.71
2335.078	-25.04
2338.937	-26.71
2342.792	-34.71
2346.643	-29.71
2350.492	-34.38
2354.336	-38.04
2358.178	-35.38
2362.015	-35.04
2365.85	-40.71
2369.681	-37.38
2373.508	-41.38
2377.333	-44.71
2381.153	-45.04
2384.971	-38.04
2388.785	-42.04
2392.595	-43.71
2396.402	-41.71
2400.206	-44.04
2404.007	-41.38
2407.804	-42.71
2411.597	-45.04
2415.388	-45.38
2419.174	-48.71
2422.958	-44.71
2426.738	-44.71
2430.515	-51.04
2434.289	-46.38
2438.059	-49.71
2441.825	-51.04
2445.589	-47.71
2449.349	-49.38
2453.106	-51.04
2456.859	-53.71
2460.61	-55.71
2464.356	-57.71
2468.1	-56.38
2471.84	-56.04
2475.577	-57.04
2479.311	-60.04
2483.041	-55.38
2486.768	-56.38
2490.492	-57.71
2494.213	-55.04
2497.93	-60.04
2501.644	-58.04
2505.355	-64.71
2509.062	-59.04
2512.766	-60.04
2516.467	-58.71
2520.165	-53.38
2523.859	-54.71
2527.551	-58.04
2531.239	-55.38
2534.923	-58.38
2538.605	-59.71
2542.283	-58.38
2545.958	-58.38
2549.63	-59.04
2553.299	-60.38
2556.964	-60.71
2560.626	-57.04
2564.285	-61.71
2567.941	-59.04
2571.594	-63.04
2575.243	-63.04
2578.89	-68.04
2582.533	-66.04
2586.173	-65.38
2589.809	-63.38
2593.443	-69.38
2597.073	-65.71
2600.701	-66.04
2604.325	-68.71
2607.946	-65.38
2611.564	-70.71
2615.178	-66.04
2618.79	-66.04
2622.398	-64.71
2626.004	-64.71
2629.606	-65.38
2633.205	-65.71
2636.801	-67.71
2640.394	-66.04
2643.983	-70.04
2647.57	-67.71
2651.153	-68.04
2654.734	-72.04
2658.311	-66.38
2661.885	-69.71
2665.456	-64.71
2669.025	-72.38
2672.589	-68.04
2676.151	-69.04
2679.71	-66.38
2683.266	-68.71
2686.819	-66.04
2690.368	-68.71
2693.915	-68.38
2697.458	-68.38
2700.999	-69.04
2704.536	-63.71
2708.071	-63.71
2711.602	-67.71
2715.13	-60.38
2718.656	-65.71
2722.178	-59.71
2725.697	-65.38
2729.214	-59.38
2732.727	-60.71
2736.237	-61.38
2739.744	-62.04
2743.249	-61.04
2746.75	-59.38
2750.248	-59.04
2753.743	-58.71
2757.236	-56.04
2760.725	-58.04
2764.211	-55.71
2767.695	-50.71
2771.175	-49.71
2774.652	-51.38
2778.127	-50.38
2781.598	-43.04
2785.067	-45.04
2788.532	-48.71
2791.995	-44.04
2795.455	-41.71
2798.911	-42.71
2802.365	-41.71
2805.816	-35.04
2809.264	-30.38
2812.709	-37.04
2816.151	-30.71
2819.59	-31.71
2823.026	-26.38
2826.46	-27.38
2829.89	-26.71
2833.318	-19.04
2836.742	-16.38
2840.164	-16.04
2843.583	-18.04
2846.999	-19.04
2850.412	-12.04
2853.822	-9.38
2857.229	-7.04
2860.634	-5.04
2864.035	-3.71
2867.434	6.62
2870.83	7.96
2874.223	11.62
2877.613	16.96
2881	21.29
2884.385	24.29
2887.766	25.62
2891.145	26.96
2894.521	29.62
2897.894	25.96
2901.264	30.96
2904.631	37.62
2907.996	41.96
2911.358	43.96
2914.717	45.29
2918.073	48.96
2921.426	55.62
2924.777	60.96
2928.124	72.62
2931.469	71.96
2934.811	81.29
2938.15	86.96
2941.487	88.29
2944.821	98.96
2948.152	106.29
2951.48	106.62
2954.805	106.96
2958.128	120.29
2961.447	121.62
2964.765	131.96
2968.079	136.96
2971.39	136.29
2974.699	150.62
2978.005	167.62
2981.308	168.29
2984.609	180.96
2987.907	195.62
2991.202	196.29
2994.494	206.96
2997.784	219.96
3001.07	232.62
3004.355	234.62
3007.636	255.96
3010.915	261.96
3014.191	266.62
3017.464	275.96
3020.734	288.62
3024.002	294.62
3027.267	307.96
3030.53	317.29
3033.789	324.29
3037.046	341.62
3040.301	355.62
3043.552	357.29
3046.801	371.96
3050.048	389.29
3053.291	402.62
3056.532	422.96
3059.771	435.29
3063.006	461.96
3066.239	470.29
3069.469	494.62
3072.697	514.96
3075.922	526.62
3079.144	540.96
3082.364	561.62
3085.581	587.29
3088.795	589.96
3092.007	629.62
3095.216	637.62
3098.423	672.96
3101.627	678.29
3104.828	693.62
3108.026	718.96
3111.222	743.62
3114.416	762.96
3117.607	778.62
3120.795	796.96
3123.98	834.62
3127.163	848.29
3130.344	869.29
3133.521	894.62
3136.696	912.29
3139.869	944.62
3143.039	958.96
3146.206	968.29
3149.371	996.29
3152.533	1004.62
3155.693	1021.62
3158.85	1012.29
3162.005	1027.62
3165.157	1037.62
3168.306	1047.96
3171.453	1061.62
3174.597	1054.29
3177.739	1071.29
3180.878	1067.96
3184.014	1081.29
3187.149	1074.96
3190.28	1074.96
3193.409	1082.96
3196.536	1092.62
3199.659	1096.29
3202.781	1093.96
3205.9	1102.29
3209.016	1110.62
3212.13	1091.29
3215.241	1088.96
3218.35	1098.62
3221.456	1076.62
3224.56	1079.29
3227.661	1073.29
3230.76	1060.96
3233.856	1055.29
3236.95	1042.62
3240.041	1042.29
3243.13	1037.29
3246.216	1036.29
3249.3	1030.62
3252.382	1034.62
3255.46	1015.96
3258.537	1023.29
3261.611	1021.62
3264.682	1023.96
3267.751	1024.96
3270.818	1008.96
3273.882	1000.96
3276.943	1000.96
3280.002	987.29
3283.059	966.62
3286.113	957.62
3289.165	955.62
3292.214	953.62
3295.261	935.96
3298.306	904.96
3301.348	906.62
3304.387	882.96
3307.425	868.96
3310.459	855.96
3313.492	851.96
3316.521	843.96
3319.549	836.62
3322.574	807.62
3325.597	832.62
3328.617	814.29
3331.635	811.96
3334.65	810.29
3337.663	799.62
3340.674	801.29
3343.682	788.29
3346.688	796.62
3349.691	782.29
3352.692	794.29
3355.691	788.62
3358.687	781.96
3361.681	784.29
3364.673	768.96
3367.662	755.29
3370.649	755.29
3373.633	727.62
3376.615	731.62
3379.595	718.29
3382.572	713.29
3385.547	701.96
3388.52	697.62
3391.49	696.96
3394.458	673.62
3397.424	668.62
3400.387	665.62
3403.348	659.29
3406.307	649.96
3409.263	639.96
3412.217	638.29
3415.168	629.29
3418.118	627.62
3421.065	607.29
3424.009	609.96
3426.951	595.96
3429.891	605.29
3432.829	588.29
3435.764	575.62
3438.697	557.29
3441.628	542.29
3444.557	534.29
3447.483	503.96
3450.407	498.96
3453.328	491.96
3456.247	471.29
3459.164	459.29
3462.079	446.96
3464.991	445.96
3467.902	419.29
3470.809	419.96
3473.715	402.96
3476.618	380.96
3479.519	374.29
3482.418	356.29
3485.315	350.96
3488.209	347.29
3491.101	332.62
3493.99	332.62
3496.878	321.62
3499.763	306.29
3502.646	287.96
3505.527	283.62
3508.405	280.62
3511.281	266.62
3514.155	248.62
3517.027	244.29
3519.897	233.96
3522.764	218.29
3525.629	204.62
3528.492	193.96
3531.352	182.29
3534.211	176.29
3537.067	166.62
3539.921	151.29
3542.773	142.29
3545.622	127.29
3548.469	117.62
3551.315	114.29
3554.157	104.29
3556.998	101.29
3559.837	92.29
3562.673	90.96
3565.507	78.62
3568.339	78.62
3571.169	71.96
3573.996	58.96
3576.822	58.62
3579.645	51.96
3582.466	46.62
3585.285	42.62
3588.101	33.29
3590.916	35.62
3593.728	23.29
3596.538	25.96
3599.346	18.29
3602.152	12.96
3604.956	6.62
3607.757	3.96
3610.556	3.62
3613.354	-5.38
3616.149	-14.71
3618.942	-9.04
3621.732	-15.04
3624.521	-17.04
3627.307	-21.38
3630.092	-29.71
3632.874	-26.04
3635.654	-33.71
3638.432	-35.71
3641.208	-34.38
3643.982	-45.71
3646.753	-41.71
3649.523	-46.04
3652.29	-43.04
3655.055	-54.38
3657.818	-52.04
3660.579	-49.71
3663.338	-60.04
3666.095	-56.71
3668.849	-61.04
3671.602	-67.71
3674.352	-65.71
3677.101	-64.04
3679.847	-68.04
3682.591	-74.04
3685.333	-72.38
3688.073	-72.71
3690.811	-78.04
3693.547	-76.04
3696.281	-85.38
3699.013	-85.38
3701.742	-85.71
3704.47	-85.71
3707.195	-88.04
3709.919	-91.04
3712.64	-88.04
3715.359	-88.38
3718.076	-89.38
3720.792	-90.71
3723.505	-95.38
3726.216	-93.38
3728.925	-95.04
3731.632	-91.04
3734.336	-93.38
3737.039	-95.38
3739.74	-92.04
3742.439	-96.71
3745.136	-97.04
3747.83	-98.04
3750.523	-96.38
3753.213	-100.04
3755.902	-102.71
3758.589	-99.04
3761.273	-100.38
3763.956	-104.04
3766.636	-100.04
3769.315	-103.04
3771.991	-102.71
3774.665	-106.71
3777.338	-103.38
3780.008	-105.71
3782.677	-104.71
3785.343	-103.71
3788.007	-105.04
3790.67	-107.04
3793.33	-103.38
3795.989	-106.38
3798.645	-102.38
3801.299	-102.38
3803.952	-105.04
3806.602	-102.71
3809.251	-107.71
3811.897	-107.38
3814.542	-104.38
3817.184	-109.71
3819.825	-105.38
3822.463	-106.71
3825.1	-106.38
3827.735	-105.71
3830.367	-109.04
3832.998	-107.71
3835.627	-110.04
3838.253	-109.71
3840.878	-108.71
3843.501	-110.04
3846.122	-112.71
3848.741	-111.38
3851.358	-109.04
3853.973	-112.38
3856.586	-112.71
3859.197	-110.38
3861.806	-107.38
3864.414	-108.71
3867.019	-107.38
3869.622	-109.38
3872.224	-104.38
3874.823	-101.38
3877.421	-99.71
3880.016	-93.71
3882.61	-85.38
3885.202	-83.71
3887.792	-90.38
3890.38	-102.04
3892.966	-103.04
3895.55	-107.38
3898.132	-110.04
3900.713	-112.38
3903.291	-111.71
3905.868	-111.38
3908.442	-112.04
3911.015	-112.38
3913.586	-112.38
3916.155	-113.71
3918.722	-114.38
3921.287	-111.71
3923.85	-112.71
3926.411	-110.71
3928.971	-109.04
3931.528	-112.04
3934.084	-106.38
3936.638	-109.71
3939.19	-112.38
3941.74	-111.38
3944.288	-111.04
3946.834	-112.38
3949.378	-110.38
3951.921	-109.71
3954.462	-112.38
3957	-110.38
3959.537	-109.38
3962.072	-110.38
3964.606	-111.38
3967.137	-114.38
3969.667	-109.04
3972.194	-114.38
3974.72	-112.38
3977.244	-114.71
3979.766	-111.71
3982.286	-111.04
3984.805	-111.38
3987.321	-111.04
3989.836	-107.38
3992.349	-108.38
3994.86	-107.38
3997.369	-109.04
3999.877	-110.04
4002.382	-106.04
4004.886	-106.04
4007.388	-105.71
4009.888	-109.38
4012.386	-109.71
4014.883	-109.71
4017.377	-110.04
4019.87	-111.38
4022.361	-110.38
4024.85	-109.04
4027.338	-111.38
4029.823	-112.71
4032.307	-111.38
4034.789	-111.38
4037.269	-114.38
4039.747	-110.38
4042.224	-111.71
4044.699	-111.71
4047.172	-111.71
4049.643	-109.04
4052.112	-107.38
4054.58	-110.38
4057.046	-107.38
4059.51	-109.04
4061.972	-110.38
4064.432	-110.71
4066.891	-108.04
4069.348	-109.38
4071.803	-109.38
4074.256	-109.71
4076.708	-110.04
4079.158	-111.38
4081.606	-109.71
4084.052	-111.38
4086.497	-113.04
4088.939	-113.04
4091.38	-114.04
4093.819	-116.04
4096.257	-113.04
4098.693	-116.04
4101.127	-115.71
4103.559	-114.04
4105.989	-69.71
4108.418	-68.71
4110.845	-62.71
4113.27	-55.71
4115.694	-54.04
4118.115	-40.38
4120.535	-112.71
4122.954	-111.38
4125.37	-111.38
4127.785	-109.71
4130.198	-112.71
4132.609	-107.38
4135.019	-115.71
4137.427	-114.04
4139.833	-112.38
4142.237	-114.71
