Data from DW_log5 (I=1 T=5x3 V=3ml)_RamanShift_8.txt Node
Date: Mon Jun 05 13:51:42 IDT 2017
User: aro
Spectrometer: QEPB0276
Trigger mode: 0
Integration Time (sec): 5.000000E0
Scans to average: 1
Electric dark correction enabled: true
Nonlinearity correction enabled: false
Boxcar width: 0
XAxis mode: Raman Shifts
Number of Pixels in Spectrum: 1044
>>>>>Begin Spectral Data<<<<<
160.701	-27.75
166.742	1.92
172.777	96.92
178.805	379.25
184.826	1067.58
190.841	2202.58
196.849	3561.92
202.85	4444.92
208.845	4627.25
214.833	4460.25
220.815	4292.92
226.789	4100.92
232.758	3969.25
238.719	3845.58
244.674	3656.58
250.623	3508.25
256.565	3327.58
262.5	3143.25
268.429	2961.92
274.351	2825.92
280.267	2711.92
286.176	2599.58
292.079	2483.58
297.975	2406.92
303.865	2325.58
309.748	2228.25
315.625	2199.92
321.495	2149.92
327.359	2124.25
333.217	2095.92
339.068	2080.25
344.912	2054.58
350.751	2050.92
356.583	2051.92
362.408	2058.92
368.227	2038.25
374.04	2056.92
379.847	2082.58
385.647	2114.58
391.44	2101.92
397.228	2097.25
403.009	2110.92
408.784	2125.92
414.553	2211.92
420.315	2280.58
426.071	2254.92
431.821	2191.58
437.565	2115.92
443.302	2086.92
449.033	2072.25
454.758	2060.58
460.477	2051.92
466.189	2020.25
471.896	1991.25
477.596	1984.92
483.29	1987.58
488.978	1969.92
494.66	1929.92
500.335	1904.92
506.005	1870.58
511.668	1823.58
517.325	1777.25
522.977	1745.92
528.622	1709.58
534.261	1685.92
539.894	1672.25
545.521	1646.25
551.141	1627.25
556.756	1622.25
562.365	1614.92
567.968	1585.92
573.565	1558.25
579.155	1562.58
584.74	1547.92
590.319	1526.92
595.892	1504.58
601.459	1496.58
607.02	1477.92
612.575	1433.92
618.124	1428.92
623.667	1405.25
629.204	1397.25
634.735	1392.92
640.261	1395.58
645.781	1412.92
651.294	1413.25
656.802	1379.25
662.304	1337.25
667.8	1324.25
673.29	1307.58
678.775	1289.25
684.254	1281.25
689.726	1259.25
695.193	1249.58
700.655	1223.58
706.11	1222.92
711.56	1209.58
717.004	1197.92
722.442	1173.92
727.874	1166.58
733.301	1160.25
738.722	1154.92
744.137	1138.25
749.547	1145.58
754.951	1133.58
760.349	1129.92
765.741	1104.92
771.128	1105.92
776.509	1080.58
781.885	1084.58
787.254	1064.92
792.618	1070.25
797.977	1055.92
803.33	1042.58
808.677	1021.58
814.019	1001.92
819.355	997.58
824.686	972.25
830.011	964.25
835.33	953.92
840.644	933.92
845.952	933.92
851.255	916.92
856.552	906.92
861.844	895.92
867.13	891.25
872.41	874.25
877.686	878.92
882.955	883.25
888.219	852.92
893.478	814.25
898.731	776.92
903.979	757.25
909.221	738.58
914.458	731.92
919.69	712.58
924.916	711.92
930.136	700.25
935.351	689.25
940.561	691.58
945.766	682.58
950.965	671.92
956.158	654.58
961.347	644.25
966.529	636.58
971.707	611.92
976.879	594.58
982.046	604.92
987.208	591.58
992.364	587.25
997.515	589.58
1002.66	593.92
1007.801	597.25
1012.936	596.92
1018.066	596.58
1023.19	600.92
1028.309	612.92
1033.423	587.92
1038.532	591.92
1043.636	589.25
1048.734	590.25
1053.827	573.25
1058.915	563.25
1063.998	560.92
1069.075	562.58
1074.147	560.92
1079.214	556.92
1084.276	563.25
1089.333	568.58
1094.385	567.25
1099.431	570.25
1104.472	563.25
1109.509	551.92
1114.54	545.25
1119.565	528.92
1124.586	518.58
1129.602	518.25
1134.613	519.58
1139.618	502.25
1144.619	503.25
1149.614	506.58
1154.604	503.25
1159.589	506.92
1164.57	518.92
1169.545	498.92
1174.515	515.58
1179.48	506.58
1184.44	495.58
1189.395	498.25
1194.345	499.92
1199.29	491.92
1204.23	485.58
1209.165	494.92
1214.095	495.58
1219.021	502.92
1223.941	491.58
1228.856	508.92
1233.766	503.25
1238.672	496.92
1243.572	494.92
1248.467	491.92
1253.358	487.58
1258.244	469.58
1263.124	471.58
1268	449.25
1272.871	448.25
1277.737	453.92
1282.599	447.58
1287.455	444.58
1292.306	450.58
1297.153	444.58
1301.995	447.58
1306.832	436.25
1311.664	442.58
1316.491	437.58
1321.314	444.58
1326.132	429.25
1330.945	414.58
1335.753	413.25
1340.556	400.58
1345.354	399.58
1350.148	396.92
1354.937	389.25
1359.722	388.58
1364.501	386.58
1369.276	390.58
1374.046	382.58
1378.811	386.58
1383.572	380.92
1388.327	383.58
1393.079	381.25
1397.825	367.58
1402.567	368.25
1407.304	359.92
1412.036	361.92
1416.764	353.92
1421.487	352.92
1426.205	350.25
1430.919	357.92
1435.628	366.58
1440.333	362.92
1445.032	368.25
1449.727	370.58
1454.418	388.58
1459.104	390.92
1463.785	373.25
1468.462	365.58
1473.134	356.92
1477.802	362.58
1482.465	353.25
1487.123	346.92
1491.777	357.92
1496.426	357.58
1501.071	375.25
1505.711	384.25
1510.347	384.58
1514.978	396.25
1519.604	401.92
1524.226	397.25
1528.844	410.58
1533.457	394.92
1538.065	406.58
1542.669	404.58
1547.269	413.92
1551.864	413.92
1556.454	426.25
1561.041	438.25
1565.622	434.92
1570.199	461.92
1574.772	475.58
1579.34	490.92
1583.904	506.25
1588.464	536.25
1593.019	555.92
1597.569	580.92
1602.115	585.25
1606.657	613.58
1611.195	628.25
1615.728	653.25
1620.256	658.58
1624.78	684.58
1629.3	705.92
1633.816	729.25
1638.327	733.92
1642.834	749.58
1647.336	750.92
1651.834	761.58
1656.328	738.92
1660.817	741.25
1665.302	710.92
1669.783	688.58
1674.259	639.92
1678.732	608.25
1683.199	588.25
1687.663	543.58
1692.122	504.25
1696.577	473.58
1701.028	439.25
1705.474	410.25
1709.917	389.92
1714.355	367.25
1718.788	343.58
1723.218	321.92
1727.643	291.92
1732.064	274.92
1736.481	247.58
1740.893	231.25
1745.301	217.58
1749.705	208.58
1754.105	182.58
1758.501	170.25
1762.893	160.58
1767.28	155.25
1771.663	144.25
1776.042	138.58
1780.417	136.92
1784.787	128.25
1789.154	130.25
1793.516	127.92
1797.874	124.58
1802.228	118.58
1806.578	108.92
1810.924	111.25
1815.266	103.58
1819.603	98.58
1823.937	92.92
1828.266	91.25
1832.591	90.92
1836.913	82.92
1841.23	76.58
1845.543	79.25
1849.852	78.92
1854.156	79.92
1858.457	74.92
1862.754	82.92
1867.047	84.25
1871.335	79.58
1875.62	83.58
1879.9	77.92
1884.177	76.25
1888.449	76.92
1892.718	83.58
1896.982	79.25
1901.243	82.58
1905.499	76.92
1909.752	79.25
1914	76.25
1918.245	85.92
1922.485	82.92
1926.722	86.58
1930.954	87.25
1935.183	90.58
1939.408	87.58
1943.628	89.58
1947.845	92.25
1952.058	89.25
1956.267	94.92
1960.472	89.92
1964.673	89.25
1968.87	93.25
1973.063	87.58
1977.252	91.92
1981.438	87.92
1985.619	94.25
1989.797	87.25
1993.971	88.92
1998.14	85.92
2002.306	83.92
2006.469	92.58
2010.627	94.58
2014.781	99.92
2018.932	97.58
2023.078	90.25
2027.221	91.58
2031.36	94.58
2035.495	92.58
2039.627	95.25
2043.754	91.25
2047.878	98.25
2051.998	104.58
2056.114	101.92
2060.226	98.25
2064.334	105.25
2068.439	104.58
2072.54	113.25
2076.637	109.58
2080.73	113.92
2084.82	112.58
2088.906	114.25
2092.988	112.58
2097.066	111.58
2101.14	116.25
2105.211	109.58
2109.278	109.58
2113.342	107.25
2117.401	107.92
2121.457	108.25
2125.509	99.92
2129.558	102.58
2133.602	101.58
2137.643	99.25
2141.681	97.92
2145.714	99.25
2149.744	94.92
2153.77	98.58
2157.793	92.25
2161.812	85.58
2165.827	77.58
2169.838	76.25
2173.846	67.58
2177.851	64.58
2181.851	68.25
2185.848	54.58
2189.841	55.25
2193.831	48.58
2197.817	52.58
2201.799	49.25
2205.778	40.25
2209.753	37.25
2213.725	40.58
2217.693	43.92
2221.657	42.25
2225.618	38.25
2229.575	38.92
2233.529	33.58
2237.479	30.58
2241.425	31.58
2245.368	25.92
2249.307	16.25
2253.243	11.58
2257.175	14.92
2261.104	8.58
2265.029	2.25
2268.95	6.25
2272.868	2.58
2276.783	-3.75
2280.694	-4.75
2284.601	-9.42
2288.505	-7.75
2292.405	-14.08
2296.302	-10.42
2300.195	-14.08
2304.085	-12.75
2307.971	-15.42
2311.854	-12.75
2315.734	-16.42
2319.609	-23.42
2323.482	-24.42
2327.351	-21.75
2331.216	-21.08
2335.078	-30.42
2338.937	-31.08
2342.792	-32.08
2346.643	-37.08
2350.492	-32.75
2354.336	-33.42
2358.178	-37.75
2362.015	-38.42
2365.85	-40.08
2369.681	-35.75
2373.508	-39.75
2377.333	-38.08
2381.153	-39.42
2384.971	-35.42
2388.785	-32.42
2392.595	-39.08
2396.402	-38.08
2400.206	-39.42
2404.007	-38.75
2407.804	-38.08
2411.597	-44.42
2415.388	-47.75
2419.174	-47.08
2422.958	-48.08
2426.738	-51.08
2430.515	-45.42
2434.289	-53.75
2438.059	-56.08
2441.825	-54.42
2445.589	-50.08
2449.349	-53.75
2453.106	-54.42
2456.859	-50.08
2460.61	-50.08
2464.356	-55.08
2468.1	-51.75
2471.84	-53.42
2475.577	-52.42
2479.311	-55.42
2483.041	-52.75
2486.768	-49.75
2490.492	-56.08
2494.213	-56.42
2497.93	-61.42
2501.644	-59.42
2505.355	-59.08
2509.062	-61.42
2512.766	-61.42
2516.467	-60.08
2520.165	-59.75
2523.859	-59.08
2527.551	-62.42
2531.239	-55.75
2534.923	-55.75
2538.605	-60.08
2542.283	-57.75
2545.958	-51.75
2549.63	-55.42
2553.299	-56.75
2556.964	-58.08
2560.626	-58.42
2564.285	-60.08
2567.941	-61.42
2571.594	-61.42
2575.243	-59.42
2578.89	-60.42
2582.533	-66.42
2586.173	-63.75
2589.809	-67.75
2593.443	-66.75
2597.073	-67.08
2600.701	-66.42
2604.325	-62.08
2607.946	-63.75
2611.564	-66.08
2615.178	-64.42
2618.79	-66.42
2622.398	-64.08
2626.004	-63.08
2629.606	-61.75
2633.205	-65.08
2636.801	-69.08
2640.394	-64.42
2643.983	-65.42
2647.57	-69.08
2651.153	-64.42
2654.734	-67.42
2658.311	-66.75
2661.885	-69.08
2665.456	-67.08
2669.025	-67.75
2672.589	-69.42
2676.151	-66.42
2679.71	-64.75
2683.266	-60.08
2686.819	-67.42
2690.368	-60.08
2693.915	-61.75
2697.458	-63.75
2700.999	-64.42
2704.536	-61.08
2708.071	-65.08
2711.602	-65.08
2715.13	-62.75
2718.656	-63.08
2722.178	-63.08
2725.697	-63.75
2729.214	-61.75
2732.727	-59.08
2736.237	-59.75
2739.744	-57.42
2743.249	-62.42
2746.75	-57.75
2750.248	-53.42
2753.743	-55.08
2757.236	-50.42
2760.725	-50.42
2764.211	-49.08
2767.695	-48.08
2771.175	-48.08
2774.652	-41.75
2778.127	-47.75
2781.598	-45.42
2785.067	-43.42
2788.532	-45.08
2791.995	-46.42
2795.455	-40.08
2798.911	-47.08
2802.365	-42.08
2805.816	-38.42
2809.264	-35.75
2812.709	-33.42
2816.151	-36.08
2819.59	-32.08
2823.026	-26.75
2826.46	-26.75
2829.89	-24.08
2833.318	-21.42
2836.742	-16.75
2840.164	-17.42
2843.583	-12.42
2846.999	-10.42
2850.412	-8.42
2853.822	-3.75
2857.229	-1.42
2860.634	-1.42
2864.035	6.92
2867.434	8.25
2870.83	7.58
2874.223	8.25
2877.613	16.58
2881	16.92
2884.385	23.92
2887.766	34.25
2891.145	26.58
2894.521	33.25
2897.894	39.58
2901.264	33.58
2904.631	43.25
2907.996	46.58
2911.358	49.58
2914.717	53.92
2918.073	54.58
2921.426	69.25
2924.777	65.58
2928.124	77.25
2931.469	78.58
2934.811	87.92
2938.15	85.58
2941.487	101.92
2944.821	100.58
2948.152	105.92
2951.48	106.25
2954.805	106.58
2958.128	117.92
2961.447	130.25
2964.765	127.58
2968.079	136.58
2971.39	140.92
2974.699	154.25
2978.005	166.25
2981.308	168.92
2984.609	177.58
2987.907	188.25
2991.202	195.92
2994.494	203.58
2997.784	218.58
3001.07	227.25
3004.355	239.25
3007.636	244.58
3010.915	250.58
3014.191	262.25
3017.464	271.58
3020.734	274.25
3024.002	283.25
3027.267	292.58
3030.53	300.92
3033.789	312.92
3037.046	323.25
3040.301	340.25
3043.552	338.92
3046.801	358.58
3050.048	371.92
3053.291	385.25
3056.532	390.58
3059.771	419.92
3063.006	443.58
3066.239	451.92
3069.469	467.25
3072.697	493.58
3075.922	503.25
3079.144	525.58
3082.364	540.25
3085.581	563.92
3088.795	579.58
3092.007	602.25
3095.216	621.25
3098.423	637.58
3101.627	659.92
3104.828	676.25
3108.026	692.58
3111.222	712.25
3114.416	732.58
3117.607	754.25
3120.795	764.58
3123.98	792.25
3127.163	824.92
3130.344	837.92
3133.521	868.25
3136.696	885.92
3139.869	906.25
3143.039	929.58
3146.206	939.92
3149.371	957.92
3152.533	968.25
3155.693	970.25
3158.85	984.92
3162.005	987.25
3165.157	1005.25
3168.306	1023.58
3171.453	1017.25
3174.597	1010.92
3177.739	1022.92
3180.878	1027.58
3184.014	1042.92
3187.149	1049.58
3190.28	1044.58
3193.409	1055.58
3196.536	1064.25
3199.659	1056.92
3202.781	1079.58
3205.9	1061.92
3209.016	1068.25
3212.13	1055.92
3215.241	1056.58
3218.35	1061.25
3221.456	1056.25
3224.56	1045.92
3227.661	1034.92
3230.76	1034.58
3233.856	1025.92
3236.95	992.25
3240.041	1011.92
3243.13	995.92
3246.216	998.92
3249.3	998.25
3252.382	999.25
3255.46	991.58
3258.537	981.92
3261.611	986.25
3264.682	983.58
3267.751	970.58
3270.818	963.58
3273.882	963.58
3276.943	968.58
3280.002	953.92
3283.059	946.25
3286.113	936.25
3289.165	920.25
3292.214	908.25
3295.261	894.58
3298.306	867.58
3301.348	866.25
3304.387	864.58
3307.425	846.58
3310.459	836.58
3313.492	813.58
3316.521	819.58
3319.549	811.25
3322.574	796.25
3325.597	792.25
3328.617	785.92
3331.635	789.58
3334.65	778.92
3337.663	788.25
3340.674	765.92
3343.682	766.92
3346.688	763.25
3349.691	768.92
3352.692	756.92
3355.691	755.25
3358.687	765.58
3361.681	736.92
3364.673	752.58
3367.662	728.92
3370.649	725.92
3373.633	704.25
3376.615	692.25
3379.595	691.92
3382.572	683.92
3385.547	678.58
3388.52	667.25
3391.49	657.58
3394.458	663.25
3397.424	644.25
3400.387	632.25
3403.348	631.92
3406.307	619.58
3409.263	612.58
3412.217	607.92
3415.168	601.92
3418.118	601.25
3421.065	595.92
3424.009	589.58
3426.951	574.58
3429.891	573.92
3432.829	569.92
3435.764	543.25
3438.697	524.92
3441.628	524.92
3444.557	522.92
3447.483	501.58
3450.407	501.58
3453.328	480.58
3456.247	465.92
3459.164	445.92
3462.079	436.58
3464.991	417.58
3467.902	410.92
3470.809	392.58
3473.715	376.58
3476.618	366.58
3479.519	361.92
3482.418	350.92
3485.315	339.58
3488.209	326.92
3491.101	324.25
3493.99	317.25
3496.878	296.25
3499.763	289.92
3502.646	286.58
3505.527	278.25
3508.405	264.25
3511.281	259.25
3514.155	251.25
3517.027	238.92
3519.897	220.58
3522.764	210.92
3525.629	207.25
3528.492	187.58
3531.352	180.92
3534.211	164.92
3537.067	157.25
3539.921	140.92
3542.773	132.92
3545.622	122.92
3548.469	124.25
3551.315	113.92
3554.157	103.92
3556.998	105.92
3559.837	82.92
3562.673	83.58
3565.507	78.25
3568.339	77.25
3571.169	73.58
3573.996	59.58
3576.822	58.25
3579.645	53.58
3582.466	44.25
3585.285	42.25
3588.101	39.92
3590.916	30.25
3593.728	21.92
3596.538	21.58
3599.346	13.92
3602.152	9.58
3604.956	0.25
3607.757	-1.42
3610.556	-1.75
3613.354	-7.75
3616.149	-13.08
3618.942	-14.42
3621.732	-21.42
3624.521	-19.42
3627.307	-18.75
3630.092	-26.08
3632.874	-28.42
3635.654	-29.08
3638.432	-33.08
3641.208	-36.75
3643.982	-35.08
3646.753	-40.08
3649.523	-44.42
3652.29	-47.42
3655.055	-48.75
3657.818	-53.42
3660.579	-63.08
3663.338	-59.42
3666.095	-62.08
3668.849	-67.42
3671.602	-66.08
3674.352	-64.08
3677.101	-70.42
3679.847	-67.42
3682.591	-70.42
3685.333	-68.75
3688.073	-75.08
3690.811	-76.42
3693.547	-75.42
3696.281	-79.75
3699.013	-81.75
3701.742	-82.08
3704.47	-84.08
3707.195	-86.42
3709.919	-85.42
3712.64	-88.42
3715.359	-89.75
3718.076	-90.75
3720.792	-92.08
3723.505	-94.75
3726.216	-96.75
3728.925	-93.42
3731.632	-96.42
3734.336	-94.75
3737.039	-95.75
3739.74	-93.42
3742.439	-94.08
3745.136	-94.42
3747.83	-95.42
3750.523	-95.75
3753.213	-96.42
3755.902	-100.08
3758.589	-98.42
3761.273	-100.75
3763.956	-100.42
3766.636	-99.42
3769.315	-101.42
3771.991	-103.08
3774.665	-105.08
3777.338	-103.75
3780.008	-104.08
3782.677	-104.08
3785.343	-102.08
3788.007	-102.42
3790.67	-101.42
3793.33	-101.75
3795.989	-102.75
3798.645	-101.75
3801.299	-102.75
3803.952	-101.42
3806.602	-102.08
3809.251	-106.08
3811.897	-108.75
3814.542	-106.75
3817.184	-109.08
3819.825	-105.75
3822.463	-108.08
3825.1	-106.75
3827.735	-110.08
3830.367	-107.42
3832.998	-105.08
3835.627	-108.42
3838.253	-107.08
3840.878	-107.08
3843.501	-107.42
3846.122	-106.08
3848.741	-106.75
3851.358	-106.42
3853.973	-105.75
3856.586	-107.08
3859.197	-105.75
3861.806	-104.75
3864.414	-107.08
3867.019	-105.75
3869.622	-106.75
3872.224	-106.75
3874.823	-104.75
3877.421	-100.08
3880.016	-95.08
3882.61	-89.75
3885.202	-87.08
3887.792	-90.75
3890.38	-100.42
3892.966	-105.42
3895.55	-111.75
3898.132	-109.42
3900.713	-108.75
3903.291	-106.08
3905.868	-108.75
3908.442	-106.42
3911.015	-110.75
3913.586	-109.75
3916.155	-109.08
3918.722	-112.75
3921.287	-107.08
3923.85	-111.08
3926.411	-110.08
3928.971	-108.42
3931.528	-110.42
3934.084	-109.75
3936.638	-113.08
3939.19	-113.75
3941.74	-112.75
3944.288	-109.42
3946.834	-111.75
3949.378	-111.75
3951.921	-109.08
3954.462	-108.75
3957	-109.75
3959.537	-106.75
3962.072	-106.75
3964.606	-106.75
3967.137	-109.75
3969.667	-109.42
3972.194	-110.75
3974.72	-107.75
3977.244	-111.08
3979.766	-112.08
3982.286	-106.42
3984.805	-107.75
3987.321	-106.42
3989.836	-105.75
3992.349	-107.75
3994.86	-108.75
3997.369	-108.42
3999.877	-109.42
4002.382	-109.42
4004.886	-104.42
4007.388	-107.08
4009.888	-104.75
4012.386	-108.08
4014.883	-106.08
4017.377	-104.42
4019.87	-106.75
4022.361	-107.75
4024.85	-105.42
4027.338	-108.75
4029.823	-111.08
4032.307	-109.75
4034.789	-111.75
4037.269	-110.75
4039.747	-110.75
4042.224	-110.08
4044.699	-110.08
4047.172	-111.08
4049.643	-108.42
4052.112	-110.75
4054.58	-109.75
4057.046	-110.75
4059.51	-107.42
4061.972	-106.75
4064.432	-109.08
4066.891	-107.42
4069.348	-106.75
4071.803	-107.75
4074.256	-108.08
4076.708	-110.42
4079.158	-109.75
4081.606	-110.08
4084.052	-109.75
4086.497	-109.42
4088.939	-110.42
4091.38	-114.42
4093.819	-114.42
4096.257	-115.42
4098.693	-116.42
4101.127	-115.08
4103.559	-115.42
4105.989	-75.08
4108.418	-67.08
4110.845	-64.08
4113.27	-60.08
4115.694	-49.42
4118.115	-44.75
4120.535	-111.08
4122.954	-110.75
4125.37	-110.75
4127.785	-110.08
4130.198	-109.08
4132.609	-107.75
4135.019	-112.08
4137.427	-114.42
4139.833	-110.75
4142.237	-113.08
