Data from DW_log8 (I=1 T=5x3 V=3ml)_RamanShift_2.txt Node
Date: Mon Jun 05 13:26:21 IDT 2017
User: aro
Spectrometer: QEPB0276
Trigger mode: 0
Integration Time (sec): 5.000000E0
Scans to average: 1
Electric dark correction enabled: true
Nonlinearity correction enabled: false
Boxcar width: 0
XAxis mode: Raman Shifts
Number of Pixels in Spectrum: 1044
>>>>>Begin Spectral Data<<<<<
160.701	-2.38
166.742	1.29
172.777	23.29
178.805	95.62
184.826	259.96
190.841	542.96
196.849	859.29
202.85	1061.29
208.845	1107.62
214.833	1090.62
220.815	1045.29
226.789	1016.29
232.758	979.62
238.719	957.96
244.674	933.96
250.623	891.62
256.565	847.96
262.5	809.62
268.429	795.29
274.351	756.29
280.267	737.29
286.176	712.96
292.079	698.96
297.975	679.29
303.865	666.96
309.748	649.62
315.625	647.29
321.495	629.29
327.359	631.62
333.217	622.29
339.068	631.62
344.912	620.96
350.751	629.29
356.583	621.29
362.408	621.29
368.227	636.62
374.04	644.29
379.847	656.96
385.647	677.96
391.44	664.29
397.228	659.62
403.009	665.29
408.784	682.29
414.553	734.29
420.315	794.96
426.071	800.29
431.821	742.96
437.565	687.29
443.302	671.29
449.033	650.62
454.758	645.96
460.477	638.29
466.189	638.62
471.896	614.62
477.596	614.29
483.29	610.96
488.978	602.29
494.66	599.29
500.335	596.29
506.005	560.96
511.668	541.96
517.325	512.62
522.977	493.29
528.622	488.96
534.261	474.29
539.894	472.62
545.521	458.62
551.141	459.62
556.756	445.62
562.365	439.29
567.968	434.29
573.565	437.62
579.155	435.96
584.74	423.29
590.319	428.29
595.892	414.96
601.459	411.96
607.02	409.29
612.575	408.29
618.124	398.29
623.667	396.62
629.204	376.62
634.735	394.29
640.261	399.96
645.781	414.29
651.294	422.62
656.802	401.62
662.304	380.62
667.8	362.62
673.29	365.96
678.775	359.62
684.254	354.62
689.726	350.62
695.193	354.96
700.655	345.96
706.11	340.29
711.56	341.96
717.004	333.29
722.442	332.29
727.874	325.96
733.301	336.62
738.722	322.29
744.137	325.62
749.547	325.96
754.951	340.96
760.349	331.29
765.741	323.29
771.128	324.29
776.509	322.96
781.885	325.96
787.254	321.29
792.618	319.62
797.977	313.29
803.33	313.96
808.677	310.96
814.019	312.29
819.355	305.96
824.686	293.62
830.011	301.62
835.33	289.29
840.644	285.29
845.952	284.29
851.255	289.29
856.552	279.29
861.844	273.29
867.13	275.62
872.41	303.62
877.686	323.29
882.955	336.62
888.219	313.29
893.478	291.62
898.731	261.29
903.979	240.62
909.221	227.96
914.458	227.29
919.69	221.96
924.916	218.29
930.136	221.62
935.351	219.62
940.561	216.96
945.766	210.96
950.965	204.29
956.158	208.96
961.347	197.62
966.529	202.96
971.707	200.29
976.879	199.96
982.046	187.29
987.208	187.96
992.364	194.62
997.515	187.96
1002.66	189.29
1007.801	192.62
1012.936	193.29
1018.066	191.96
1023.19	196.29
1028.309	201.29
1033.423	201.29
1038.532	206.29
1043.636	212.62
1048.734	209.62
1053.827	218.62
1058.915	211.62
1063.998	200.29
1069.075	198.96
1074.147	200.29
1079.214	204.29
1084.276	206.62
1089.333	211.96
1094.385	203.62
1099.431	201.62
1104.472	199.62
1109.509	186.29
1114.54	185.62
1119.565	186.29
1124.586	174.96
1129.602	172.62
1134.613	171.96
1139.618	161.62
1144.619	166.62
1149.614	173.96
1154.604	165.62
1159.589	161.29
1164.57	169.29
1169.545	172.29
1174.515	170.96
1179.48	166.96
1184.44	167.96
1189.395	162.62
1194.345	160.29
1199.29	161.29
1204.23	157.96
1209.165	162.29
1214.095	161.96
1219.021	162.29
1223.941	162.96
1228.856	173.29
1233.766	164.62
1238.672	162.29
1243.572	161.29
1248.467	166.29
1253.358	159.96
1258.244	154.96
1263.124	156.96
1268	158.62
1272.871	152.62
1277.737	156.29
1282.599	152.96
1287.455	152.96
1292.306	151.96
1297.153	149.96
1301.995	141.96
1306.832	151.62
1311.664	144.96
1316.491	148.96
1321.314	147.96
1326.132	142.62
1330.945	137.96
1335.753	137.62
1340.556	131.96
1345.354	136.96
1350.148	133.29
1354.937	131.62
1359.722	134.96
1364.501	130.96
1369.276	131.96
1374.046	135.96
1378.811	135.96
1383.572	129.29
1388.327	135.96
1393.079	128.62
1397.825	123.96
1402.567	125.62
1407.304	120.29
1412.036	117.29
1416.764	125.29
1421.487	130.29
1426.205	124.62
1430.919	128.29
1435.628	129.96
1440.333	141.29
1445.032	141.62
1449.727	147.96
1454.418	154.96
1459.104	161.29
1463.785	156.62
1468.462	144.96
1473.134	132.29
1477.802	130.96
1482.465	123.62
1487.123	124.29
1491.777	125.29
1496.426	125.96
1501.071	130.62
1505.711	126.62
1510.347	128.96
1514.978	127.62
1519.604	130.29
1524.226	134.62
1528.844	133.96
1533.457	132.29
1538.065	134.96
1542.669	132.96
1547.269	131.29
1551.864	130.29
1556.454	133.62
1561.041	136.62
1565.622	138.29
1570.199	138.29
1574.772	140.96
1579.34	144.29
1583.904	151.62
1588.464	149.62
1593.019	160.29
1597.569	163.29
1602.115	165.62
1606.657	173.96
1611.195	178.62
1615.728	183.62
1620.256	181.96
1624.78	194.96
1629.3	192.29
1633.816	200.62
1638.327	197.29
1642.834	203.96
1647.336	213.29
1651.834	198.96
1656.328	207.29
1660.817	198.62
1665.302	203.29
1669.783	193.96
1674.259	183.29
1678.732	170.62
1683.199	161.62
1687.663	155.96
1692.122	144.62
1696.577	133.96
1701.028	129.62
1705.474	125.62
1709.917	114.29
1714.355	112.62
1718.788	105.96
1723.218	98.29
1727.643	95.29
1732.064	88.29
1736.481	87.96
1740.893	76.62
1745.301	73.96
1749.705	67.96
1754.105	65.96
1758.501	62.62
1762.893	53.96
1767.28	57.62
1771.663	56.62
1776.042	53.96
1780.417	53.29
1784.787	56.62
1789.154	52.62
1793.516	47.29
1797.874	49.96
1802.228	53.96
1806.578	50.29
1810.924	47.62
1815.266	53.96
1819.603	44.96
1823.937	40.29
1828.266	36.62
1832.591	41.29
1836.913	37.29
1841.23	35.96
1845.543	35.62
1849.852	35.29
1854.156	37.29
1858.457	35.29
1862.754	34.29
1867.047	38.62
1871.335	37.96
1875.62	39.96
1879.9	39.29
1884.177	41.62
1888.449	36.29
1892.718	38.96
1896.982	39.62
1901.243	38.96
1905.499	35.29
1909.752	37.62
1914	41.62
1918.245	32.29
1922.485	38.29
1926.722	36.96
1930.954	34.62
1935.183	39.96
1939.408	35.96
1943.628	40.96
1947.845	38.62
1952.058	40.62
1956.267	40.29
1960.472	40.29
1964.673	39.62
1968.87	35.62
1973.063	33.96
1977.252	36.29
1981.438	34.29
1985.619	33.62
1989.797	35.62
1993.971	34.29
1998.14	35.29
2002.306	32.29
2006.469	33.96
2010.627	36.96
2014.781	35.29
2018.932	33.96
2023.078	36.62
2027.221	36.96
2031.36	36.96
2035.495	33.96
2039.627	35.62
2043.754	36.62
2047.878	40.62
2051.998	40.96
2056.114	37.29
2060.226	41.62
2064.334	36.62
2068.439	41.96
2072.54	42.62
2076.637	37.96
2080.73	37.29
2084.82	40.96
2088.906	38.62
2092.988	46.96
2097.066	36.96
2101.14	42.62
2105.211	40.96
2109.278	38.96
2113.342	39.62
2117.401	44.29
2121.457	40.62
2125.509	40.29
2129.558	38.96
2133.602	37.96
2137.643	37.62
2141.681	32.29
2145.714	38.62
2149.744	34.29
2153.77	34.96
2157.793	37.62
2161.812	25.96
2165.827	30.96
2169.838	25.62
2173.846	25.96
2177.851	24.96
2181.851	24.62
2185.848	22.96
2189.841	19.62
2193.831	21.96
2197.817	26.96
2201.799	19.62
2205.778	20.62
2209.753	19.62
2213.725	22.96
2217.693	19.29
2221.657	19.62
2225.618	20.62
2229.575	21.29
2233.529	18.96
2237.479	17.96
2241.425	16.96
2245.368	14.29
2249.307	12.62
2253.243	11.96
2257.175	11.29
2261.104	10.96
2265.029	2.62
2268.95	6.62
2272.868	6.96
2276.783	4.62
2280.694	5.62
2284.601	7.96
2288.505	7.62
2292.405	6.29
2296.302	7.96
2300.195	4.29
2304.085	2.62
2307.971	7.96
2311.854	7.62
2315.734	3.96
2319.609	0.96
2323.482	-5.04
2327.351	1.62
2331.216	3.29
2335.078	1.96
2338.937	-1.71
2342.792	-3.71
2346.643	0.29
2350.492	-2.38
2354.336	-3.04
2358.178	-2.38
2362.015	-1.04
2365.85	-1.71
2369.681	-1.38
2373.508	-2.38
2377.333	-0.71
2381.153	-1.04
2384.971	-1.04
2388.785	0.96
2392.595	-0.71
2396.402	-1.71
2400.206	-8.04
2404.007	-4.38
2407.804	-5.71
2411.597	-5.04
2415.388	-8.38
2419.174	-7.71
2422.958	-6.71
2426.738	-7.71
2430.515	-7.04
2434.289	-7.38
2438.059	-9.71
2441.825	-6.04
2445.589	-3.71
2449.349	-5.38
2453.106	-7.04
2456.859	-5.71
2460.61	-10.71
2464.356	-4.71
2468.1	-7.38
2471.84	-9.04
2475.577	-7.04
2479.311	-9.04
2483.041	-11.38
2486.768	-7.38
2490.492	-7.71
2494.213	-9.04
2497.93	-15.04
2501.644	-9.04
2505.355	-12.71
2509.062	-7.04
2512.766	-10.04
2516.467	-11.71
2520.165	-11.38
2523.859	-8.71
2527.551	-10.04
2531.239	-10.38
2534.923	-9.38
2538.605	-11.71
2542.283	-11.38
2545.958	-6.38
2549.63	-8.04
2553.299	-12.38
2556.964	-8.71
2560.626	-11.04
2564.285	-10.71
2567.941	-17.04
2571.594	-11.04
2575.243	-12.04
2578.89	-11.04
2582.533	-8.04
2586.173	-10.38
2589.809	-13.38
2593.443	-13.38
2597.073	-8.71
2600.701	-9.04
2604.325	-8.71
2607.946	-8.38
2611.564	-10.71
2615.178	-11.04
2618.79	-13.04
2622.398	-9.71
2626.004	-10.71
2629.606	-10.38
2633.205	-10.71
2636.801	-16.71
2640.394	-13.04
2643.983	-18.04
2647.57	-13.71
2651.153	-13.04
2654.734	-11.04
2658.311	-12.38
2661.885	-13.71
2665.456	-13.71
2669.025	-15.38
2672.589	-13.04
2676.151	-14.04
2679.71	-10.38
2683.266	-7.71
2686.819	-12.04
2690.368	-10.71
2693.915	-11.38
2697.458	-12.38
2700.999	-13.04
2704.536	-11.71
2708.071	-12.71
2711.602	-11.71
2715.13	-13.38
2718.656	-12.71
2722.178	-8.71
2725.697	-10.38
2729.214	-11.38
2732.727	-9.71
2736.237	-10.38
2739.744	-10.04
2743.249	-10.04
2746.75	-8.38
2750.248	-11.04
2753.743	-5.71
2757.236	-6.04
2760.725	-5.04
2764.211	-7.71
2767.695	-2.71
2771.175	-5.71
2774.652	-3.38
2778.127	-7.38
2781.598	-7.04
2785.067	-10.04
2788.532	-8.71
2791.995	-10.04
2795.455	-5.71
2798.911	-8.71
2802.365	-5.71
2805.816	-6.04
2809.264	-4.38
2812.709	-6.04
2816.151	-0.71
2819.59	0.29
2823.026	-0.38
2826.46	1.62
2829.89	2.29
2833.318	5.96
2836.742	5.62
2840.164	8.96
2843.583	4.96
2846.999	6.96
2850.412	7.96
2853.822	9.62
2857.229	11.96
2860.634	10.96
2864.035	13.29
2867.434	15.62
2870.83	17.96
2874.223	20.62
2877.613	21.96
2881	32.29
2884.385	32.29
2887.766	33.62
2891.145	35.96
2894.521	34.62
2897.894	33.96
2901.264	34.96
2904.631	32.62
2907.996	35.96
2911.358	28.96
2914.717	37.29
2918.073	36.96
2921.426	39.62
2924.777	39.96
2928.124	43.62
2931.469	49.96
2934.811	59.29
2938.15	63.96
2941.487	56.29
2944.821	56.96
2948.152	59.29
2951.48	57.62
2954.805	53.96
2958.128	50.29
2961.447	55.62
2964.765	56.96
2968.079	56.96
2971.39	52.29
2974.699	56.62
2978.005	57.62
2981.308	60.29
2984.609	68.96
2987.907	68.62
2991.202	70.29
2994.494	71.96
2997.784	72.96
3001.07	72.62
3004.355	73.62
3007.636	74.96
3010.915	74.96
3014.191	80.62
3017.464	79.96
3020.734	83.62
3024.002	87.62
3027.267	87.96
3030.53	90.29
3033.789	88.29
3037.046	86.62
3040.301	92.62
3043.552	96.29
3046.801	99.96
3050.048	105.29
3053.291	108.62
3056.532	106.96
3059.771	121.29
3063.006	119.96
3066.239	127.29
3069.469	133.62
3072.697	137.96
3075.922	144.62
3079.144	150.96
3082.364	151.62
3085.581	156.29
3088.795	153.96
3092.007	165.62
3095.216	168.62
3098.423	177.96
3101.627	179.29
3104.828	182.62
3108.026	190.96
3111.222	198.62
3114.416	206.96
3117.607	209.62
3120.795	207.96
3123.98	218.62
3127.163	223.29
3130.344	230.29
3133.521	230.62
3136.696	243.29
3139.869	244.62
3143.039	246.96
3146.206	266.29
3149.371	263.29
3152.533	266.62
3155.693	262.62
3158.85	264.29
3162.005	273.62
3165.157	270.62
3168.306	261.96
3171.453	281.62
3174.597	274.29
3177.739	273.29
3180.878	277.96
3184.014	273.29
3187.149	272.96
3190.28	278.96
3193.409	287.96
3196.536	288.62
3199.659	287.29
3202.781	284.96
3205.9	290.29
3209.016	288.62
3212.13	293.29
3215.241	281.96
3218.35	285.62
3221.456	288.62
3224.56	279.29
3227.661	279.29
3230.76	274.96
3233.856	271.29
3236.95	278.62
3240.041	272.29
3243.13	270.29
3246.216	272.29
3249.3	265.62
3252.382	268.62
3255.46	260.96
3258.537	262.29
3261.611	260.62
3264.682	271.96
3267.751	265.96
3270.818	253.96
3273.882	260.96
3276.943	261.96
3280.002	260.29
3283.059	251.62
3286.113	247.62
3289.165	249.62
3292.214	246.62
3295.261	240.96
3298.306	236.96
3301.348	231.62
3304.387	225.96
3307.425	233.96
3310.459	221.96
3313.492	220.96
3316.521	222.96
3319.549	219.62
3322.574	216.62
3325.597	214.62
3328.617	214.29
3331.635	218.96
3334.65	217.29
3337.663	206.62
3340.674	210.29
3343.682	212.29
3346.688	205.62
3349.691	199.29
3352.692	212.29
3355.691	199.62
3358.687	205.96
3361.681	204.29
3364.673	199.96
3367.662	204.29
3370.649	203.29
3373.633	193.62
3376.615	192.62
3379.595	185.29
3382.572	187.29
3385.547	179.96
3388.52	186.62
3391.49	176.96
3394.458	172.62
3397.424	175.62
3400.387	174.62
3403.348	171.29
3406.307	168.96
3409.263	172.96
3412.217	169.29
3415.168	160.29
3418.118	161.62
3421.065	158.29
3424.009	163.96
3426.951	162.96
3429.891	157.29
3432.829	158.29
3435.764	149.62
3438.697	155.29
3441.628	146.29
3444.557	136.29
3447.483	136.96
3450.407	133.96
3453.328	131.96
3456.247	126.29
3459.164	120.29
3462.079	120.96
3464.991	113.96
3467.902	112.29
3470.809	103.96
3473.715	108.96
3476.618	99.96
3479.519	101.29
3482.418	96.29
3485.315	90.96
3488.209	97.29
3491.101	85.62
3493.99	91.62
3496.878	80.62
3499.763	84.29
3502.646	82.96
3505.527	80.62
3508.405	75.62
3511.281	68.62
3514.155	66.62
3517.027	67.29
3519.897	63.96
3522.764	55.29
3525.629	54.62
3528.492	53.96
3531.352	46.29
3534.211	41.29
3537.067	42.62
3539.921	44.29
3542.773	39.29
3545.622	36.29
3548.469	39.62
3551.315	33.29
3554.157	29.29
3556.998	30.29
3559.837	32.29
3562.673	31.96
3565.507	27.62
3568.339	26.62
3571.169	22.96
3573.996	21.96
3576.822	18.62
3579.645	14.96
3582.466	13.62
3585.285	10.62
3588.101	9.29
3590.916	9.62
3593.728	5.29
3596.538	5.96
3599.346	5.29
3602.152	4.96
3604.956	0.62
3607.757	0.96
3610.556	2.62
3613.354	2.62
3616.149	-1.71
3618.942	1.96
3621.732	-1.04
3624.521	-5.04
3627.307	-0.38
3630.092	-4.71
3632.874	-5.04
3635.654	-7.71
3638.432	-7.71
3641.208	-9.38
3643.982	-13.71
3646.753	-11.71
3649.523	-11.04
3652.29	-10.04
3655.055	-15.38
3657.818	-14.04
3660.579	-16.71
3663.338	-16.04
3666.095	-12.71
3668.849	-15.04
3671.602	-12.71
3674.352	-12.71
3677.101	-16.04
3679.847	-11.04
3682.591	-16.04
3685.333	-14.38
3688.073	-17.71
3690.811	-20.04
3693.547	-21.04
3696.281	-18.38
3699.013	-25.38
3701.742	-23.71
3704.47	-20.71
3707.195	-23.04
3709.919	-25.04
3712.64	-24.04
3715.359	-23.38
3718.076	-24.38
3720.792	-24.71
3723.505	-24.38
3726.216	-24.38
3728.925	-25.04
3731.632	-21.04
3734.336	-22.38
3737.039	-26.38
3739.74	-21.04
3742.439	-25.71
3745.136	-23.04
3747.83	-24.04
3750.523	-27.38
3753.213	-29.04
3755.902	-32.71
3758.589	-28.04
3761.273	-29.38
3763.956	-28.04
3766.636	-26.04
3769.315	-29.04
3771.991	-26.71
3774.665	-27.71
3777.338	-24.38
3780.008	-26.71
3782.677	-26.71
3785.343	-23.71
3788.007	-23.04
3790.67	-24.04
3793.33	-27.38
3795.989	-28.38
3798.645	-26.38
3801.299	-30.38
3803.952	-23.04
3806.602	-26.71
3809.251	-30.71
3811.897	-31.38
3814.542	-30.38
3817.184	-29.71
3819.825	-27.38
3822.463	-28.71
3825.1	-29.38
3827.735	-27.71
3830.367	-29.04
3832.998	-27.71
3835.627	-29.04
3838.253	-29.71
3840.878	-26.71
3843.501	-26.04
3846.122	-28.71
3848.741	-27.38
3851.358	-25.04
3853.973	-27.38
3856.586	-29.71
3859.197	-29.38
3861.806	-26.38
3864.414	-30.71
3867.019	-29.38
3869.622	-32.38
3872.224	-28.38
3874.823	-27.38
3877.421	-25.71
3880.016	-20.71
3882.61	-13.38
3885.202	-15.71
3887.792	-20.38
3890.38	-21.04
3892.966	-26.04
3895.55	-28.38
3898.132	-26.04
3900.713	-30.38
3903.291	-26.71
3905.868	-26.38
3908.442	-28.04
3911.015	-28.38
3913.586	-30.38
3916.155	-30.71
3918.722	-31.38
3921.287	-29.71
3923.85	-28.71
3926.411	-30.71
3928.971	-32.04
3931.528	-31.04
3934.084	-28.38
3936.638	-30.71
3939.19	-33.38
3941.74	-32.38
3944.288	-28.04
3946.834	-29.38
3949.378	-28.38
3951.921	-26.71
3954.462	-25.38
3957	-26.38
3959.537	-24.38
3962.072	-29.38
3964.606	-28.38
3967.137	-29.38
3969.667	-26.04
3972.194	-30.38
3974.72	-31.38
3977.244	-31.71
3979.766	-30.71
3982.286	-29.04
3984.805	-30.38
3987.321	-27.04
3989.836	-29.38
3992.349	-26.38
3994.86	-28.38
3997.369	-31.04
3999.877	-26.04
4002.382	-27.04
4004.886	-27.04
4007.388	-25.71
4009.888	-26.38
4012.386	-28.71
4014.883	-29.71
4017.377	-28.04
4019.87	-29.38
4022.361	-31.38
4024.85	-28.04
4027.338	-32.38
4029.823	-31.71
4032.307	-31.38
4034.789	-31.38
4037.269	-31.38
4039.747	-25.38
4042.224	-29.71
4044.699	-28.71
4047.172	-29.71
4049.643	-32.04
4052.112	-29.38
4054.58	-28.38
4057.046	-28.38
4059.51	-29.04
4061.972	-26.38
4064.432	-29.71
4066.891	-29.04
4069.348	-24.38
4071.803	-27.38
4074.256	-32.71
4076.708	-31.04
4079.158	-29.38
4081.606	-32.71
4084.052	-32.38
4086.497	-31.04
4088.939	-27.04
4091.38	-29.04
4093.819	-29.04
4096.257	-30.04
4098.693	-30.04
4101.127	-28.71
4103.559	-33.04
4105.989	-16.71
4108.418	-13.71
4110.845	-10.71
4113.27	-11.71
4115.694	-8.04
4118.115	-10.38
4120.535	-30.71
4122.954	-29.38
4125.37	-26.38
4127.785	-25.71
4130.198	-28.71
4132.609	-26.38
4135.019	-29.71
4137.427	-28.04
4139.833	-29.38
4142.237	-30.71
