Data from Saline_log5 (I=1 T=5x1 V=3ml)_RamanShift_6.txt Node
Date: Mon Jun 05 14:21:56 IDT 2017
User: aro
Spectrometer: QEPB0276
Trigger mode: 0
Integration Time (sec): 5.000000E0
Scans to average: 1
Electric dark correction enabled: true
Nonlinearity correction enabled: false
Boxcar width: 0
XAxis mode: Raman Shifts
Number of Pixels in Spectrum: 1044
>>>>>Begin Spectral Data<<<<<
160.701	-33.25
166.742	3.42
172.777	97.42
178.805	382.75
184.826	1077.08
190.841	2251.08
196.849	3616.42
202.85	4479.42
208.845	4706.75
214.833	4520.75
220.815	4341.42
226.789	4184.42
232.758	4037.75
238.719	3909.08
244.674	3748.08
250.623	3554.75
256.565	3386.08
262.5	3179.75
268.429	3031.42
274.351	2861.42
280.267	2725.42
286.176	2655.08
292.079	2533.08
297.975	2449.42
303.865	2382.08
309.748	2300.75
315.625	2244.42
321.495	2195.42
327.359	2165.75
333.217	2129.42
339.068	2129.75
344.912	2119.08
350.751	2112.42
356.583	2116.42
362.408	2088.42
368.227	2093.75
374.04	2120.42
379.847	2147.08
385.647	2170.08
391.44	2156.42
397.228	2141.75
403.009	2185.42
408.784	2184.42
414.553	2243.42
420.315	2327.08
426.071	2329.42
431.821	2268.08
437.565	2177.42
443.302	2148.42
449.033	2136.75
454.758	2125.08
460.477	2103.42
466.189	2094.75
471.896	2070.75
477.596	2050.42
483.29	2036.08
488.978	2013.42
494.66	2006.42
500.335	1969.42
506.005	1932.08
511.668	1884.08
517.325	1827.75
522.977	1799.42
528.622	1768.08
534.261	1753.42
539.894	1730.75
545.521	1700.75
551.141	1699.75
556.756	1649.75
562.365	1644.42
567.968	1639.42
573.565	1638.75
579.155	1610.08
584.74	1590.42
590.319	1588.42
595.892	1549.08
601.459	1532.08
607.02	1523.42
612.575	1504.42
618.124	1475.42
623.667	1458.75
629.204	1438.75
634.735	1435.42
640.261	1424.08
645.781	1447.42
651.294	1422.75
656.802	1425.75
662.304	1390.75
667.8	1344.75
673.29	1348.08
678.775	1330.75
684.254	1308.75
689.726	1302.75
695.193	1278.08
700.655	1287.08
706.11	1267.42
711.56	1244.08
717.004	1232.42
722.442	1206.42
727.874	1200.08
733.301	1181.75
738.722	1172.42
744.137	1166.75
749.547	1164.08
754.951	1164.08
760.349	1148.42
765.741	1137.42
771.128	1124.42
776.509	1127.08
781.885	1107.08
787.254	1096.42
792.618	1088.75
797.977	1080.42
803.33	1066.08
808.677	1035.08
814.019	1032.42
819.355	1000.08
824.686	986.75
830.011	985.75
835.33	953.42
840.644	939.42
845.952	939.42
851.255	917.42
856.552	910.42
861.844	900.42
867.13	875.75
872.41	880.75
877.686	869.42
882.955	865.75
888.219	830.42
893.478	813.75
898.731	778.42
903.979	764.75
909.221	748.08
914.458	730.42
919.69	727.08
924.916	731.42
930.136	708.75
935.351	687.75
940.561	688.08
945.766	694.08
950.965	668.42
956.158	657.08
961.347	657.75
966.529	638.08
971.707	629.42
976.879	603.08
982.046	607.42
987.208	604.08
992.364	583.75
997.515	598.08
1002.66	604.42
1007.801	593.75
1012.936	610.42
1018.066	606.08
1023.19	604.42
1028.309	602.42
1033.423	601.42
1038.532	598.42
1043.636	590.75
1048.734	582.75
1053.827	573.75
1058.915	564.75
1063.998	564.42
1069.075	552.08
1074.147	551.42
1079.214	551.42
1084.276	562.75
1089.333	559.08
1094.385	569.75
1099.431	558.75
1104.472	559.75
1109.509	561.42
1114.54	535.75
1119.565	534.42
1124.586	532.08
1129.602	525.75
1134.613	526.08
1139.618	513.75
1144.619	511.75
1149.614	506.08
1154.604	521.75
1159.589	509.42
1164.57	513.42
1169.545	510.42
1174.515	516.08
1179.48	509.08
1184.44	496.08
1189.395	502.75
1194.345	487.42
1199.29	485.42
1204.23	490.08
1209.165	496.42
1214.095	487.08
1219.021	504.42
1223.941	487.08
1228.856	496.42
1233.766	498.75
1238.672	507.42
1243.572	506.42
1248.467	486.42
1253.358	495.08
1258.244	481.08
1263.124	473.08
1268	466.75
1272.871	450.75
1277.737	435.42
1282.599	443.08
1287.455	445.08
1292.306	453.08
1297.153	438.08
1301.995	443.08
1306.832	450.75
1311.664	450.08
1316.491	452.08
1321.314	439.08
1326.132	430.75
1330.945	427.08
1335.753	417.75
1340.556	415.08
1345.354	400.08
1350.148	385.42
1354.937	386.75
1359.722	395.08
1364.501	391.08
1369.276	390.08
1374.046	382.08
1378.811	380.08
1383.572	382.42
1388.327	374.08
1393.079	371.75
1397.825	369.08
1402.567	365.75
1407.304	354.42
1412.036	350.42
1416.764	346.42
1421.487	349.42
1426.205	347.75
1430.919	347.42
1435.628	358.08
1440.333	356.42
1445.032	365.75
1449.727	371.08
1454.418	366.08
1459.104	373.42
1463.785	368.75
1468.462	356.08
1473.134	348.42
1477.802	346.08
1482.465	340.75
1487.123	342.42
1491.777	346.42
1496.426	359.08
1501.071	365.75
1505.711	366.75
1510.347	377.08
1514.978	387.75
1519.604	396.42
1524.226	394.75
1528.844	406.08
1533.457	407.42
1538.065	413.08
1542.669	411.08
1547.269	416.42
1551.864	418.42
1556.454	431.75
1561.041	430.75
1565.622	452.42
1570.199	458.42
1574.772	472.08
1579.34	489.42
1583.904	510.75
1588.464	535.75
1593.019	541.42
1597.569	577.42
1602.115	586.75
1606.657	607.08
1611.195	628.75
1615.728	648.75
1620.256	671.08
1624.78	691.08
1629.3	704.42
1633.816	736.75
1638.327	737.42
1642.834	753.08
1647.336	767.42
1651.834	754.08
1656.328	747.42
1660.817	747.75
1665.302	708.42
1669.783	690.08
1674.259	655.42
1678.732	627.75
1683.199	585.75
1687.663	533.08
1692.122	501.75
1696.577	471.08
1701.028	443.75
1705.474	412.75
1709.917	390.42
1714.355	363.75
1718.788	342.08
1723.218	316.42
1727.643	292.42
1732.064	279.42
1736.481	248.08
1740.893	237.75
1745.301	217.08
1749.705	198.08
1754.105	186.08
1758.501	173.75
1762.893	155.08
1767.28	149.75
1771.663	145.75
1776.042	141.08
1780.417	132.42
1784.787	119.75
1789.154	127.75
1793.516	124.42
1797.874	128.08
1802.228	120.08
1806.578	116.42
1810.924	112.75
1815.266	104.08
1819.603	106.08
1823.937	100.42
1828.266	91.75
1832.591	92.42
1836.913	85.42
1841.23	84.08
1845.543	82.75
1849.852	77.42
1854.156	81.42
1858.457	85.42
1862.754	77.42
1867.047	75.75
1871.335	82.08
1875.62	81.08
1879.9	83.42
1884.177	79.75
1888.449	78.42
1892.718	76.08
1896.982	87.75
1901.243	87.08
1905.499	82.42
1909.752	87.75
1914	86.75
1918.245	85.42
1922.485	90.42
1926.722	93.08
1930.954	89.75
1935.183	97.08
1939.408	95.08
1943.628	90.08
1947.845	97.75
1952.058	95.75
1956.267	89.42
1960.472	97.42
1964.673	92.75
1968.87	90.75
1973.063	88.08
1977.252	88.42
1981.438	91.42
1985.619	89.75
1989.797	83.75
1993.971	89.42
1998.14	98.42
2002.306	94.42
2006.469	98.08
2010.627	96.08
2014.781	98.42
2018.932	104.08
2023.078	95.75
2027.221	103.08
2031.36	95.08
2035.495	94.08
2039.627	98.75
2043.754	94.75
2047.878	98.75
2051.998	101.08
2056.114	110.42
2060.226	106.75
2064.334	107.75
2068.439	115.08
2072.54	112.75
2076.637	112.08
2080.73	120.42
2084.82	120.08
2088.906	120.75
2092.988	122.08
2097.066	117.08
2101.14	118.75
2105.211	113.08
2109.278	110.08
2113.342	103.75
2117.401	111.42
2121.457	101.75
2125.509	104.42
2129.558	103.08
2133.602	105.08
2137.643	101.75
2141.681	93.42
2145.714	94.75
2149.744	90.42
2153.77	90.08
2157.793	88.75
2161.812	90.08
2165.827	86.08
2169.838	76.75
2173.846	75.08
2177.851	68.08
2181.851	66.75
2185.848	58.08
2189.841	56.75
2193.831	59.08
2197.817	54.08
2201.799	43.75
2205.778	50.75
2209.753	49.75
2213.725	37.08
2217.693	35.42
2221.657	32.75
2225.618	38.75
2229.575	37.42
2233.529	29.08
2237.479	32.08
2241.425	25.08
2245.368	21.42
2249.307	25.75
2253.243	16.08
2257.175	7.42
2261.104	12.08
2265.029	3.75
2268.95	7.75
2272.868	4.08
2276.783	-0.25
2280.694	-3.25
2284.601	-3.92
2288.505	-6.25
2292.405	-7.58
2296.302	-10.92
2300.195	-10.58
2304.085	-13.25
2307.971	-10.92
2311.854	-21.25
2315.734	-25.92
2319.609	-22.92
2323.482	-26.92
2327.351	-24.25
2331.216	-21.58
2335.078	-26.92
2338.937	-26.58
2342.792	-31.58
2346.643	-27.58
2350.492	-33.25
2354.336	-34.92
2358.178	-32.25
2362.015	-31.92
2365.85	-28.58
2369.681	-35.25
2373.508	-36.25
2377.333	-36.58
2381.153	-38.92
2384.971	-35.92
2388.785	-36.92
2392.595	-38.58
2396.402	-39.58
2400.206	-41.92
2404.007	-40.25
2407.804	-41.58
2411.597	-40.92
2415.388	-45.25
2419.174	-47.58
2422.958	-46.58
2426.738	-42.58
2430.515	-50.92
2434.289	-49.25
2438.059	-50.58
2441.825	-47.92
2445.589	-49.58
2449.349	-52.25
2453.106	-47.92
2456.859	-51.58
2460.61	-50.58
2464.356	-49.58
2468.1	-55.25
2471.84	-55.92
2475.577	-54.92
2479.311	-53.92
2483.041	-58.25
2486.768	-55.25
2490.492	-57.58
2494.213	-55.92
2497.93	-62.92
2501.644	-52.92
2505.355	-54.58
2509.062	-52.92
2512.766	-54.92
2516.467	-55.58
2520.165	-58.25
2523.859	-54.58
2527.551	-56.92
2531.239	-59.25
2534.923	-58.25
2538.605	-62.58
2542.283	-60.25
2545.958	-58.25
2549.63	-59.92
2553.299	-59.25
2556.964	-57.58
2560.626	-60.92
2564.285	-63.58
2567.941	-60.92
2571.594	-61.92
2575.243	-60.92
2578.89	-56.92
2582.533	-60.92
2586.173	-63.25
2589.809	-60.25
2593.443	-66.25
2597.073	-63.58
2600.701	-62.92
2604.325	-63.58
2607.946	-66.25
2611.564	-65.58
2615.178	-60.92
2618.79	-63.92
2622.398	-60.58
2626.004	-65.58
2629.606	-61.25
2633.205	-65.58
2636.801	-66.58
2640.394	-66.92
2643.983	-64.92
2647.57	-66.58
2651.153	-67.92
2654.734	-63.92
2658.311	-69.25
2661.885	-67.58
2665.456	-65.58
2669.025	-67.25
2672.589	-66.92
2676.151	-65.92
2679.71	-64.25
2683.266	-63.58
2686.819	-65.92
2690.368	-63.58
2693.915	-66.25
2697.458	-65.25
2700.999	-63.92
2704.536	-64.58
2708.071	-60.58
2711.602	-61.58
2715.13	-67.25
2718.656	-64.58
2722.178	-64.58
2725.697	-67.25
2729.214	-63.25
2732.727	-59.58
2736.237	-61.25
2739.744	-62.92
2743.249	-60.92
2746.75	-61.25
2750.248	-55.92
2753.743	-55.58
2757.236	-49.92
2760.725	-53.92
2764.211	-51.58
2767.695	-50.58
2771.175	-53.58
2774.652	-48.25
2778.127	-51.25
2781.598	-47.92
2785.067	-45.92
2788.532	-46.58
2791.995	-45.92
2795.455	-46.58
2798.911	-46.58
2802.365	-47.58
2805.816	-41.92
2809.264	-37.25
2812.709	-37.92
2816.151	-33.58
2819.59	-36.58
2823.026	-31.25
2826.46	-32.25
2829.89	-26.58
2833.318	-24.92
2836.742	-18.25
2840.164	-19.92
2843.583	-17.92
2846.999	-13.92
2850.412	-14.92
2853.822	-9.25
2857.229	-3.92
2860.634	-5.92
2864.035	-6.58
2867.434	3.75
2870.83	4.08
2874.223	5.75
2877.613	10.08
2881	9.42
2884.385	16.42
2887.766	18.75
2891.145	23.08
2894.521	23.75
2897.894	20.08
2901.264	28.08
2904.631	29.75
2907.996	35.08
2911.358	38.08
2914.717	41.42
2918.073	51.08
2921.426	56.75
2924.777	58.08
2928.124	66.75
2931.469	66.08
2934.811	71.42
2938.15	74.08
2941.487	82.42
2944.821	87.08
2948.152	84.42
2951.48	98.75
2954.805	95.08
2958.128	108.42
2961.447	108.75
2964.765	111.08
2968.079	117.08
2971.39	129.42
2974.699	133.75
2978.005	144.75
2981.308	159.42
2984.609	170.08
2987.907	181.75
2991.202	188.42
2994.494	198.08
2997.784	205.08
3001.07	217.75
3004.355	216.75
3007.636	238.08
3010.915	244.08
3014.191	253.75
3017.464	250.08
3020.734	261.75
3024.002	271.75
3027.267	277.08
3030.53	283.42
3033.789	293.42
3037.046	303.75
3040.301	320.75
3043.552	331.42
3046.801	350.08
3050.048	354.42
3053.291	373.75
3056.532	388.08
3059.771	414.42
3063.006	423.08
3066.239	442.42
3069.469	455.75
3072.697	480.08
3075.922	485.75
3079.144	508.08
3082.364	517.75
3085.581	544.42
3088.795	559.08
3092.007	574.75
3095.216	607.75
3098.423	602.08
3101.627	634.42
3104.828	660.75
3108.026	666.08
3111.222	695.75
3114.416	709.08
3117.607	732.75
3120.795	746.08
3123.98	771.75
3127.163	791.42
3130.344	813.42
3133.521	839.75
3136.696	864.42
3139.869	880.75
3143.039	893.08
3146.206	903.42
3149.371	939.42
3152.533	933.75
3155.693	950.75
3158.85	961.42
3162.005	965.75
3165.157	966.75
3168.306	968.08
3171.453	975.75
3174.597	988.42
3177.739	1011.42
3180.878	994.08
3184.014	1007.42
3187.149	1010.08
3190.28	1017.08
3193.409	1033.08
3196.536	1020.75
3199.659	1033.42
3202.781	1041.08
3205.9	1044.42
3209.016	1032.75
3212.13	1036.42
3215.241	1037.08
3218.35	1023.75
3221.456	1016.75
3224.56	1015.42
3227.661	1013.42
3230.76	1007.08
3233.856	1000.42
3236.95	1005.75
3240.041	980.42
3243.13	977.42
3246.216	991.42
3249.3	980.75
3252.382	990.75
3255.46	974.08
3258.537	974.42
3261.611	964.75
3264.682	978.08
3267.751	952.08
3270.818	966.08
3273.882	963.08
3276.943	957.08
3280.002	957.42
3283.059	940.75
3286.113	933.75
3289.165	912.75
3292.214	896.75
3295.261	873.08
3298.306	858.08
3301.348	853.75
3304.387	833.08
3307.425	833.08
3310.459	828.08
3313.492	814.08
3316.521	805.08
3319.549	798.75
3322.574	787.75
3325.597	782.75
3328.617	786.42
3331.635	771.08
3334.65	772.42
3337.663	765.75
3340.674	768.42
3343.682	764.42
3346.688	757.75
3349.691	757.42
3352.692	763.42
3355.691	751.75
3358.687	743.08
3361.681	741.42
3364.673	730.08
3367.662	729.42
3370.649	717.42
3373.633	716.75
3376.615	706.75
3379.595	692.42
3382.572	672.42
3385.547	688.08
3388.52	673.75
3391.49	662.08
3394.458	656.75
3397.424	645.75
3400.387	633.75
3403.348	625.42
3406.307	631.08
3409.263	618.08
3412.217	620.42
3415.168	602.42
3418.118	610.75
3421.065	598.42
3424.009	592.08
3426.951	589.08
3429.891	579.42
3432.829	565.42
3435.764	556.75
3438.697	547.42
3441.628	538.42
3444.557	523.42
3447.483	517.08
3450.407	493.08
3453.328	471.08
3456.247	467.42
3459.164	455.42
3462.079	442.08
3464.991	422.08
3467.902	414.42
3470.809	403.08
3473.715	395.08
3476.618	372.08
3479.519	373.42
3482.418	361.42
3485.315	341.08
3488.209	334.42
3491.101	326.75
3493.99	315.75
3496.878	306.75
3499.763	302.42
3502.646	290.08
3505.527	282.75
3508.405	271.75
3511.281	262.75
3514.155	250.75
3517.027	239.42
3519.897	227.08
3522.764	208.42
3525.629	202.75
3528.492	193.08
3531.352	173.42
3534.211	168.42
3537.067	158.75
3539.921	147.42
3542.773	139.42
3545.622	127.42
3548.469	116.75
3551.315	114.42
3554.157	106.42
3556.998	102.42
3559.837	94.42
3562.673	90.08
3565.507	82.75
3568.339	72.75
3571.169	72.08
3573.996	64.08
3576.822	62.75
3579.645	52.08
3582.466	45.75
3585.285	44.75
3588.101	34.42
3590.916	29.75
3593.728	21.42
3596.538	25.08
3599.346	14.42
3602.152	9.08
3604.956	2.75
3607.757	-0.92
3610.556	-5.25
3613.354	-9.25
3616.149	-14.58
3618.942	-12.92
3621.732	-20.92
3624.521	-17.92
3627.307	-20.25
3630.092	-30.58
3632.874	-25.92
3635.654	-29.58
3638.432	-32.58
3641.208	-33.25
3643.982	-41.58
3646.753	-42.58
3649.523	-49.92
3652.29	-48.92
3655.055	-53.25
3657.818	-52.92
3660.579	-56.58
3663.338	-59.92
3666.095	-60.58
3668.849	-64.92
3671.602	-65.58
3674.352	-63.58
3677.101	-70.92
3679.847	-72.92
3682.591	-74.92
3685.333	-71.25
3688.073	-73.58
3690.811	-77.92
3693.547	-78.92
3696.281	-80.25
3699.013	-85.25
3701.742	-84.58
3704.47	-80.58
3707.195	-81.92
3709.919	-85.92
3712.64	-87.92
3715.359	-87.25
3718.076	-89.25
3720.792	-91.58
3723.505	-89.25
3726.216	-95.25
3728.925	-93.92
3731.632	-92.92
3734.336	-93.25
3737.039	-97.25
3739.74	-95.92
3742.439	-98.58
3745.136	-98.92
3747.83	-100.92
3750.523	-99.25
3753.213	-98.92
3755.902	-100.58
3758.589	-98.92
3761.273	-100.25
3763.956	-97.92
3766.636	-100.92
3769.315	-97.92
3771.991	-99.58
3774.665	-102.58
3777.338	-97.25
3780.008	-99.58
3782.677	-104.58
3785.343	-101.58
3788.007	-103.92
3790.67	-103.92
3793.33	-102.25
3795.989	-108.25
3798.645	-104.25
3801.299	-103.25
3803.952	-103.92
3806.602	-105.58
3809.251	-107.58
3811.897	-103.25
3814.542	-105.25
3817.184	-105.58
3819.825	-105.25
3822.463	-103.58
3825.1	-104.25
3827.735	-103.58
3830.367	-105.92
3832.998	-104.58
3835.627	-104.92
3838.253	-106.58
3840.878	-107.58
3843.501	-104.92
3846.122	-104.58
3848.741	-104.25
3851.358	-106.92
3853.973	-106.25
3856.586	-111.58
3859.197	-110.25
3861.806	-106.25
3864.414	-107.58
3867.019	-108.25
3869.622	-107.25
3872.224	-105.25
3874.823	-103.25
3877.421	-101.58
3880.016	-95.58
3882.61	-88.25
3885.202	-84.58
3887.792	-90.25
3890.38	-95.92
3892.966	-100.92
3895.55	-105.25
3898.132	-107.92
3900.713	-111.25
3903.291	-107.58
3905.868	-106.25
3908.442	-108.92
3911.015	-110.25
3913.586	-109.25
3916.155	-110.58
3918.722	-113.25
3921.287	-110.58
3923.85	-110.58
3926.411	-109.58
3928.971	-109.92
3931.528	-111.92
3934.084	-108.25
3936.638	-109.58
3939.19	-111.25
3941.74	-109.25
3944.288	-108.92
3946.834	-110.25
3949.378	-109.25
3951.921	-108.58
3954.462	-105.25
3957	-107.25
3959.537	-108.25
3962.072	-110.25
3964.606	-110.25
3967.137	-109.25
3969.667	-107.92
3972.194	-112.25
3974.72	-110.25
3977.244	-106.58
3979.766	-108.58
3982.286	-108.92
3984.805	-110.25
3987.321	-108.92
3989.836	-107.25
3992.349	-108.25
3994.86	-106.25
3997.369	-107.92
3999.877	-110.92
4002.382	-105.92
4004.886	-105.92
4007.388	-105.58
4009.888	-106.25
4012.386	-108.58
4014.883	-104.58
4017.377	-106.92
4019.87	-108.25
4022.361	-110.25
4024.85	-108.92
4027.338	-110.25
4029.823	-111.58
4032.307	-109.25
4034.789	-109.25
4037.269	-108.25
4039.747	-109.25
4042.224	-110.58
4044.699	-109.58
4047.172	-110.58
4049.643	-106.92
4052.112	-107.25
4054.58	-107.25
4057.046	-108.25
4059.51	-107.92
4061.972	-106.25
4064.432	-107.58
4066.891	-106.92
4069.348	-108.25
4071.803	-104.25
4074.256	-109.58
4076.708	-110.92
4079.158	-109.25
4081.606	-108.58
4084.052	-110.25
4086.497	-110.92
4088.939	-109.92
4091.38	-109.92
4093.819	-112.92
4096.257	-113.92
4098.693	-113.92
4101.127	-109.58
4103.559	-114.92
4105.989	-73.58
4108.418	-67.58
4110.845	-64.58
4113.27	-59.58
4115.694	-53.92
4118.115	-45.25
4120.535	-111.58
4122.954	-109.25
4125.37	-108.25
4127.785	-107.58
4130.198	-108.58
4132.609	-109.25
4135.019	-111.58
4137.427	-113.92
4139.833	-112.25
4142.237	-112.58
