Data from Saline_1 (I=1 T=5x1 V=3ml)_RamanShift_11.txt Node
Date: Mon Jun 05 14:14:36 IDT 2017
User: aro
Spectrometer: QEPB0276
Trigger mode: 0
Integration Time (sec): 5.000000E0
Scans to average: 1
Electric dark correction enabled: true
Nonlinearity correction enabled: false
Boxcar width: 0
XAxis mode: Raman Shifts
Number of Pixels in Spectrum: 1044
>>>>>Begin Spectral Data<<<<<
160.701	-29.38
166.742	5.29
172.777	95.29
178.805	378.62
184.826	1092.96
190.841	2267.96
196.849	3595.29
202.85	4476.29
208.845	4677.62
214.833	4476.62
220.815	4313.29
226.789	4152.29
232.758	4010.62
238.719	3859.96
244.674	3668.96
250.623	3507.62
256.565	3335.96
262.5	3137.62
268.429	2993.29
274.351	2845.29
280.267	2724.29
286.176	2607.96
292.079	2496.96
297.975	2403.29
303.865	2321.96
309.748	2264.62
315.625	2214.29
321.495	2179.29
327.359	2141.62
333.217	2125.29
339.068	2118.62
344.912	2113.96
350.751	2087.29
356.583	2069.29
362.408	2080.29
368.227	2076.62
374.04	2085.29
379.847	2115.96
385.647	2153.96
391.44	2131.29
397.228	2124.62
403.009	2131.29
408.784	2167.29
414.553	2228.29
420.315	2309.96
426.071	2308.29
431.821	2214.96
437.565	2150.29
443.302	2149.29
449.033	2125.62
454.758	2103.96
460.477	2089.29
466.189	2065.62
471.896	2037.62
477.596	2040.29
483.29	2001.96
488.978	2000.29
494.66	1967.29
500.335	1952.29
506.005	1904.96
511.668	1854.96
517.325	1819.62
522.977	1789.29
528.622	1763.96
534.261	1734.29
539.894	1712.62
545.521	1699.62
551.141	1664.62
556.756	1669.62
562.365	1641.29
567.968	1619.29
573.565	1584.62
579.155	1579.96
584.74	1573.29
590.319	1560.29
595.892	1538.96
601.459	1513.96
607.02	1509.29
612.575	1492.29
618.124	1467.29
623.667	1438.62
629.204	1438.62
634.735	1415.29
640.261	1426.96
645.781	1436.29
651.294	1443.62
656.802	1405.62
662.304	1366.62
667.8	1337.62
673.29	1321.96
678.775	1302.62
684.254	1317.62
689.726	1271.62
695.193	1277.96
700.655	1269.96
706.11	1244.29
711.56	1208.96
717.004	1202.29
722.442	1187.29
727.874	1173.96
733.301	1163.62
738.722	1163.29
744.137	1154.62
749.547	1155.96
754.951	1144.96
760.349	1132.29
765.741	1122.29
771.128	1113.29
776.509	1113.96
781.885	1092.96
787.254	1087.29
792.618	1082.62
797.977	1050.29
803.33	1034.96
808.677	1021.96
814.019	1013.29
819.355	984.96
824.686	991.62
830.011	957.62
835.33	950.29
840.644	936.29
845.952	933.29
851.255	922.29
856.552	910.29
861.844	894.29
867.13	874.62
872.41	877.62
877.686	874.29
882.955	861.62
888.219	842.29
893.478	805.62
898.731	784.29
903.979	756.62
909.221	727.96
914.458	722.29
919.69	708.96
924.916	714.29
930.136	705.62
935.351	694.62
940.561	687.96
945.766	681.96
950.965	669.29
956.158	654.96
961.347	650.62
966.529	636.96
971.707	618.29
976.879	606.96
982.046	593.29
987.208	585.96
992.364	585.62
997.515	582.96
1002.66	590.29
1007.801	583.62
1012.936	593.29
1018.066	599.96
1023.19	600.29
1028.309	604.29
1033.423	587.29
1038.532	583.29
1043.636	579.62
1048.734	568.62
1053.827	577.62
1058.915	564.62
1063.998	542.29
1069.075	558.96
1074.147	548.29
1079.214	562.29
1084.276	562.62
1089.333	557.96
1094.385	550.62
1099.431	559.62
1104.472	565.62
1109.509	548.29
1114.54	546.62
1119.565	525.29
1124.586	516.96
1129.602	509.62
1134.613	508.96
1139.618	504.62
1144.619	501.62
1149.614	507.96
1154.604	516.62
1159.589	504.29
1164.57	512.29
1169.545	505.29
1174.515	509.96
1179.48	496.96
1184.44	504.96
1189.395	488.62
1194.345	486.29
1199.29	490.29
1204.23	481.96
1209.165	481.29
1214.095	490.96
1219.021	481.29
1223.941	493.96
1228.856	499.29
1233.766	493.62
1238.672	507.29
1243.572	488.29
1248.467	485.29
1253.358	485.96
1258.244	471.96
1263.124	456.96
1268	446.62
1272.871	449.62
1277.737	443.29
1282.599	436.96
1287.455	442.96
1292.306	449.96
1297.153	433.96
1301.995	430.96
1306.832	433.62
1311.664	440.96
1316.491	435.96
1321.314	422.96
1326.132	418.62
1330.945	426.96
1335.753	403.62
1340.556	396.96
1345.354	388.96
1350.148	387.29
1354.937	378.62
1359.722	384.96
1364.501	385.96
1369.276	371.96
1374.046	373.96
1378.811	376.96
1383.572	377.29
1388.327	378.96
1393.079	363.62
1397.825	360.96
1402.567	347.62
1407.304	346.29
1412.036	342.29
1416.764	344.29
1421.487	344.29
1426.205	343.62
1430.919	354.29
1435.628	352.96
1440.333	358.29
1445.032	371.62
1449.727	365.96
1454.418	371.96
1459.104	371.29
1463.785	363.62
1468.462	351.96
1473.134	346.29
1477.802	338.96
1482.465	350.62
1487.123	342.29
1491.777	342.29
1496.426	356.96
1501.071	363.62
1505.711	365.62
1510.347	380.96
1514.978	370.62
1519.604	388.29
1524.226	393.62
1528.844	398.96
1533.457	403.29
1538.065	391.96
1542.669	397.96
1547.269	403.29
1551.864	412.29
1556.454	423.62
1561.041	429.62
1565.622	438.29
1570.199	449.29
1574.772	462.96
1579.34	486.29
1583.904	503.62
1588.464	519.62
1593.019	538.29
1597.569	569.29
1602.115	574.62
1606.657	587.96
1611.195	629.62
1615.728	644.62
1620.256	660.96
1624.78	686.96
1629.3	692.29
1633.816	718.62
1638.327	734.29
1642.834	754.96
1647.336	754.29
1651.834	756.96
1656.328	744.29
1660.817	739.62
1665.302	713.29
1669.783	679.96
1674.259	654.29
1678.732	616.62
1683.199	574.62
1687.663	531.96
1692.122	495.62
1696.577	477.96
1701.028	436.62
1705.474	409.62
1709.917	387.29
1714.355	361.62
1718.788	330.96
1723.218	313.29
1727.643	289.29
1732.064	272.29
1736.481	242.96
1740.893	230.62
1745.301	209.96
1749.705	186.96
1754.105	177.96
1758.501	166.62
1762.893	147.96
1767.28	145.62
1771.663	132.62
1776.042	130.96
1780.417	130.29
1784.787	125.62
1789.154	118.62
1793.516	119.29
1797.874	116.96
1802.228	116.96
1806.578	112.29
1810.924	107.62
1815.266	100.96
1819.603	93.96
1823.937	88.29
1828.266	88.62
1832.591	87.29
1836.913	76.29
1841.23	76.96
1845.543	76.62
1849.852	75.29
1854.156	77.29
1858.457	74.29
1862.754	77.29
1867.047	75.62
1871.335	77.96
1875.62	79.96
1879.9	77.29
1884.177	82.62
1888.449	75.29
1892.718	73.96
1896.982	72.62
1901.243	70.96
1905.499	77.29
1909.752	74.62
1914	75.62
1918.245	71.29
1922.485	80.29
1926.722	77.96
1930.954	79.62
1935.183	90.96
1939.408	87.96
1943.628	84.96
1947.845	93.62
1952.058	94.62
1956.267	92.29
1960.472	87.29
1964.673	83.62
1968.87	82.62
1973.063	77.96
1977.252	85.29
1981.438	84.29
1985.619	78.62
1989.797	85.62
1993.971	81.29
1998.14	85.29
2002.306	85.29
2006.469	82.96
2010.627	92.96
2014.781	92.29
2018.932	94.96
2023.078	92.62
2027.221	95.96
2031.36	91.96
2035.495	95.96
2039.627	95.62
2043.754	94.62
2047.878	91.62
2051.998	97.96
2056.114	94.29
2060.226	97.62
2064.334	98.62
2068.439	100.96
2072.54	102.62
2076.637	102.96
2080.73	107.29
2084.82	106.96
2088.906	119.62
2092.988	112.96
2097.066	114.96
2101.14	110.62
2105.211	115.96
2109.278	109.96
2113.342	99.62
2117.401	105.29
2121.457	109.62
2125.509	103.29
2129.558	99.96
2133.602	97.96
2137.643	95.62
2141.681	92.29
2145.714	90.62
2149.744	89.29
2153.77	85.96
2157.793	87.62
2161.812	78.96
2165.827	77.96
2169.838	75.62
2173.846	68.96
2177.851	62.96
2181.851	59.62
2185.848	53.96
2189.841	53.62
2193.831	48.96
2197.817	52.96
2201.799	46.62
2205.778	48.62
2209.753	39.62
2213.725	39.96
2217.693	37.29
2221.657	38.62
2225.618	32.62
2229.575	28.29
2233.529	29.96
2237.479	18.96
2241.425	20.96
2245.368	19.29
2249.307	15.62
2253.243	12.96
2257.175	8.29
2261.104	6.96
2265.029	5.62
2268.95	4.62
2272.868	0.96
2276.783	-2.38
2280.694	-9.38
2284.601	-3.04
2288.505	-9.38
2292.405	-15.71
2296.302	-13.04
2300.195	-12.71
2304.085	-18.38
2307.971	-20.04
2311.854	-15.38
2315.734	-25.04
2319.609	-28.04
2323.482	-27.04
2327.351	-28.38
2331.216	-30.71
2335.078	-33.04
2338.937	-32.71
2342.792	-33.71
2346.643	-35.71
2350.492	-32.38
2354.336	-32.04
2358.178	-36.38
2362.015	-37.04
2365.85	-35.71
2369.681	-38.38
2373.508	-36.38
2377.333	-41.71
2381.153	-43.04
2384.971	-42.04
2388.785	-42.04
2392.595	-41.71
2396.402	-42.71
2400.206	-41.04
2404.007	-50.38
2407.804	-45.71
2411.597	-45.04
2415.388	-47.38
2419.174	-53.71
2422.958	-43.71
2426.738	-44.71
2430.515	-51.04
2434.289	-52.38
2438.059	-50.71
2441.825	-51.04
2445.589	-51.71
2449.349	-53.38
2453.106	-52.04
2456.859	-54.71
2460.61	-54.71
2464.356	-59.71
2468.1	-59.38
2471.84	-56.04
2475.577	-57.04
2479.311	-57.04
2483.041	-57.38
2486.768	-59.38
2490.492	-57.71
2494.213	-58.04
2497.93	-62.04
2501.644	-59.04
2505.355	-53.71
2509.062	-60.04
2512.766	-58.04
2516.467	-59.71
2520.165	-60.38
2523.859	-56.71
2527.551	-60.04
2531.239	-60.38
2534.923	-61.38
2538.605	-64.71
2542.283	-64.38
2545.958	-63.38
2549.63	-60.04
2553.299	-64.38
2556.964	-62.71
2560.626	-64.04
2564.285	-64.71
2567.941	-65.04
2571.594	-64.04
2575.243	-63.04
2578.89	-61.04
2582.533	-65.04
2586.173	-64.38
2589.809	-60.38
2593.443	-66.38
2597.073	-64.71
2600.701	-62.04
2604.325	-65.71
2607.946	-65.38
2611.564	-67.71
2615.178	-67.04
2618.79	-70.04
2622.398	-66.71
2626.004	-68.71
2629.606	-67.38
2633.205	-68.71
2636.801	-72.71
2640.394	-69.04
2643.983	-69.04
2647.57	-70.71
2651.153	-71.04
2654.734	-68.04
2658.311	-65.38
2661.885	-69.71
2665.456	-68.71
2669.025	-67.38
2672.589	-70.04
2676.151	-67.04
2679.71	-66.38
2683.266	-65.71
2686.819	-71.04
2690.368	-68.71
2693.915	-70.38
2697.458	-67.38
2700.999	-68.04
2704.536	-66.71
2708.071	-65.71
2711.602	-68.71
2715.13	-67.38
2718.656	-65.71
2722.178	-62.71
2725.697	-66.38
2729.214	-63.38
2732.727	-58.71
2736.237	-61.38
2739.744	-64.04
2743.249	-59.04
2746.75	-60.38
2750.248	-60.04
2753.743	-56.71
2757.236	-54.04
2760.725	-55.04
2764.211	-53.71
2767.695	-54.71
2771.175	-54.71
2774.652	-50.38
2778.127	-50.38
2781.598	-51.04
2785.067	-47.04
2788.532	-50.71
2791.995	-49.04
2795.455	-44.71
2798.911	-45.71
2802.365	-44.71
2805.816	-41.04
2809.264	-36.38
2812.709	-40.04
2816.151	-33.71
2819.59	-39.71
2823.026	-31.38
2826.46	-33.38
2829.89	-30.71
2833.318	-26.04
2836.742	-20.38
2840.164	-22.04
2843.583	-21.04
2846.999	-12.04
2850.412	-14.04
2853.822	-8.38
2857.229	-11.04
2860.634	-4.04
2864.035	-1.71
2867.434	2.62
2870.83	5.96
2874.223	6.62
2877.613	10.96
2881	19.29
2884.385	18.29
2887.766	20.62
2891.145	26.96
2894.521	28.62
2897.894	31.96
2901.264	25.96
2904.631	34.62
2907.996	34.96
2911.358	37.96
2914.717	42.29
2918.073	52.96
2921.426	56.62
2924.777	56.96
2928.124	64.62
2931.469	70.96
2934.811	73.29
2938.15	81.96
2941.487	85.29
2944.821	87.96
2948.152	95.29
2951.48	97.62
2954.805	100.96
2958.128	101.29
2961.447	111.62
2964.765	114.96
2968.079	123.96
2971.39	133.29
2974.699	138.62
2978.005	150.62
2981.308	159.29
2984.609	166.96
2987.907	180.62
2991.202	190.29
2994.494	203.96
2997.784	206.96
3001.07	223.62
3004.355	221.62
3007.636	228.96
3010.915	237.96
3014.191	245.62
3017.464	255.96
3020.734	266.62
3024.002	273.62
3027.267	279.96
3030.53	286.29
3033.789	293.29
3037.046	300.62
3040.301	330.62
3043.552	328.29
3046.801	352.96
3050.048	359.29
3053.291	377.62
3056.532	385.96
3059.771	400.29
3063.006	425.96
3066.239	444.29
3069.469	452.62
3072.697	474.96
3075.922	486.62
3079.144	517.96
3082.364	526.62
3085.581	543.29
3088.795	630.96
3092.007	740.62
3095.216	754.62
3098.423	713.96
3101.627	700.29
3104.828	649.62
3108.026	669.96
3111.222	696.62
3114.416	710.96
3117.607	744.62
3120.795	751.96
3123.98	776.62
3127.163	791.29
3130.344	819.29
3133.521	841.62
3136.696	855.29
3139.869	886.62
3143.039	893.96
3146.206	918.29
3149.371	925.29
3152.533	944.62
3155.693	952.62
3158.85	941.29
3162.005	965.62
3165.157	978.62
3168.306	965.96
3171.453	990.62
3174.597	989.29
3177.739	998.29
3180.878	1000.96
3184.014	994.29
3187.149	1004.96
3190.28	1008.96
3193.409	1017.96
3196.536	1016.62
3199.659	1027.29
3202.781	1033.96
3205.9	1038.29
3209.016	1034.62
3212.13	1034.29
3215.241	1025.96
3218.35	1039.62
3221.456	1003.62
3224.56	1009.29
3227.661	1019.29
3230.76	1004.96
3233.856	1013.29
3236.95	1001.62
3240.041	978.29
3243.13	985.29
3246.216	985.29
3249.3	969.62
3252.382	974.62
3255.46	965.96
3258.537	963.29
3261.611	946.62
3264.682	959.96
3267.751	964.96
3270.818	961.96
3273.882	956.96
3276.943	947.96
3280.002	950.29
3283.059	926.62
3286.113	917.62
3289.165	901.62
3292.214	897.62
3295.261	879.96
3298.306	867.96
3301.348	853.62
3304.387	852.96
3307.425	827.96
3310.459	826.96
3313.492	820.96
3316.521	800.96
3319.549	787.62
3322.574	793.62
3325.597	778.62
3328.617	773.29
3331.635	775.96
3334.65	777.29
3337.663	751.62
3340.674	762.29
3343.682	756.29
3346.688	753.62
3349.691	759.29
3352.692	755.29
3355.691	748.62
3358.687	744.96
3361.681	728.29
3364.673	735.96
3367.662	722.29
3370.649	711.29
3373.633	704.62
3376.615	694.62
3379.595	698.29
3382.572	678.29
3385.547	675.96
3388.52	665.62
3391.49	650.96
3394.458	642.62
3397.424	640.62
3400.387	635.62
3403.348	622.29
3406.307	618.96
3409.263	614.96
3412.217	606.29
3415.168	605.29
3418.118	594.62
3421.065	609.29
3424.009	576.96
3426.951	588.96
3429.891	567.29
3432.829	557.29
3435.764	542.62
3438.697	541.29
3441.628	518.29
3444.557	508.29
3447.483	502.96
3450.407	485.96
3453.328	471.96
3456.247	450.29
3459.164	449.29
3462.079	427.96
3464.991	417.96
3467.902	405.29
3470.809	398.96
3473.715	389.96
3476.618	373.96
3479.519	364.29
3482.418	346.29
3485.315	341.96
3488.209	343.29
3491.101	327.62
3493.99	314.62
3496.878	302.62
3499.763	302.29
3502.646	290.96
3505.527	279.62
3508.405	269.62
3511.281	250.62
3514.155	247.62
3517.027	234.29
3519.897	227.96
3522.764	210.29
3525.629	202.62
3528.492	189.96
3531.352	177.29
3534.211	163.29
3537.067	151.62
3539.921	148.29
3542.773	139.29
3545.622	126.29
3548.469	122.62
3551.315	114.29
3554.157	105.29
3556.998	95.29
3559.837	89.29
3562.673	80.96
3565.507	79.62
3568.339	75.62
3571.169	65.96
3573.996	60.96
3576.822	59.62
3579.645	53.96
3582.466	41.62
3585.285	42.62
3588.101	34.29
3590.916	30.62
3593.728	20.29
3596.538	19.96
3599.346	17.29
3602.152	5.96
3604.956	0.62
3607.757	-2.04
3610.556	-3.38
3613.354	-12.38
3616.149	-13.71
3618.942	-16.04
3621.732	-18.04
3624.521	-25.04
3627.307	-22.38
3630.092	-31.71
3632.874	-34.04
3635.654	-34.71
3638.432	-32.71
3641.208	-37.38
3643.982	-38.71
3646.753	-45.71
3649.523	-45.04
3652.29	-48.04
3655.055	-49.38
3657.818	-50.04
3660.579	-56.71
3663.338	-63.04
3666.095	-60.71
3668.849	-63.04
3671.602	-71.71
3674.352	-66.71
3677.101	-70.04
3679.847	-74.04
3682.591	-75.04
3685.333	-76.38
3688.073	-76.71
3690.811	-77.04
3693.547	-81.04
3696.281	-80.38
3699.013	-81.38
3701.742	-82.71
3704.47	-86.71
3707.195	-84.04
3709.919	-84.04
3712.64	-87.04
3715.359	-90.38
3718.076	-90.38
3720.792	-94.71
3723.505	-93.38
3726.216	-95.38
3728.925	-94.04
3731.632	-97.04
3734.336	-95.38
3737.039	-95.38
3739.74	-94.04
3742.439	-97.71
3745.136	-97.04
3747.83	-101.04
3750.523	-101.38
3753.213	-100.04
3755.902	-100.71
3758.589	-95.04
3761.273	-98.38
3763.956	-100.04
3766.636	-102.04
3769.315	-103.04
3771.991	-99.71
3774.665	-104.71
3777.338	-104.38
3780.008	-104.71
3782.677	-104.71
3785.343	-102.71
3788.007	-105.04
3790.67	-104.04
3793.33	-104.38
3795.989	-105.38
3798.645	-105.38
3801.299	-104.38
3803.952	-104.04
3806.602	-106.71
3809.251	-104.71
3811.897	-104.38
3814.542	-105.38
3817.184	-104.71
3819.825	-104.38
3822.463	-107.71
3825.1	-106.38
3827.735	-109.71
3830.367	-107.04
3832.998	-106.71
3835.627	-108.04
3838.253	-111.71
3840.878	-110.71
3843.501	-109.04
3846.122	-110.71
3848.741	-107.38
3851.358	-109.04
3853.973	-110.38
3856.586	-106.71
3859.197	-109.38
3861.806	-108.38
3864.414	-108.71
3867.019	-109.38
3869.622	-108.38
3872.224	-105.38
3874.823	-104.38
3877.421	-98.71
3880.016	-96.71
3882.61	-88.38
3885.202	-83.71
3887.792	-92.38
3890.38	-101.04
3892.966	-106.04
3895.55	-110.38
3898.132	-109.04
3900.713	-110.38
3903.291	-112.71
3905.868	-110.38
3908.442	-110.04
3911.015	-110.38
3913.586	-109.38
3916.155	-105.71
3918.722	-110.38
3921.287	-108.71
3923.85	-111.71
3926.411	-108.71
3928.971	-108.04
3931.528	-109.04
3934.084	-107.38
3936.638	-112.71
3939.19	-115.38
3941.74	-111.38
3944.288	-114.04
3946.834	-116.38
3949.378	-110.38
3951.921	-110.71
3954.462	-110.38
3957	-110.38
3959.537	-108.38
3962.072	-109.38
3964.606	-110.38
3967.137	-112.38
3969.667	-109.04
3972.194	-111.38
3974.72	-107.38
3977.244	-110.71
3979.766	-108.71
3982.286	-109.04
3984.805	-111.38
3987.321	-108.04
3989.836	-108.38
3992.349	-109.38
3994.86	-109.38
3997.369	-113.04
3999.877	-110.04
4002.382	-108.04
4004.886	-110.04
4007.388	-104.71
4009.888	-109.38
4012.386	-108.71
4014.883	-107.71
4017.377	-111.04
4019.87	-108.38
4022.361	-110.38
4024.85	-110.04
4027.338	-109.38
4029.823	-110.71
4032.307	-110.38
4034.789	-110.38
4037.269	-110.38
4039.747	-110.38
4042.224	-111.71
4044.699	-111.71
4047.172	-113.71
4049.643	-112.04
4052.112	-110.38
4054.58	-110.38
4057.046	-110.38
4059.51	-108.04
4061.972	-107.38
4064.432	-108.71
4066.891	-108.04
4069.348	-109.38
4071.803	-106.38
4074.256	-109.71
4076.708	-112.04
4079.158	-110.38
4081.606	-111.71
4084.052	-111.38
4086.497	-113.04
4088.939	-112.04
4091.38	-111.04
4093.819	-111.04
4096.257	-115.04
4098.693	-115.04
4101.127	-114.71
4103.559	-116.04
4105.989	-68.71
4108.418	-66.71
4110.845	-62.71
4113.27	-59.71
4115.694	-55.04
4118.115	-42.38
4120.535	-108.71
4122.954	-107.38
4125.37	-108.38
4127.785	-107.71
4130.198	-108.71
4132.609	-104.38
4135.019	-110.71
4137.427	-115.04
4139.833	-110.38
4142.237	-113.71
