Data from Saline_log5 (I=1 T=5x1 V=3ml)_RamanShift_4.txt Node
Date: Mon Jun 05 14:19:31 IDT 2017
User: aro
Spectrometer: QEPB0276
Trigger mode: 0
Integration Time (sec): 5.000000E0
Scans to average: 1
Electric dark correction enabled: true
Nonlinearity correction enabled: false
Boxcar width: 0
XAxis mode: Raman Shifts
Number of Pixels in Spectrum: 1044
>>>>>Begin Spectral Data<<<<<
160.701	-29.25
166.742	2.42
172.777	86.42
178.805	353.75
184.826	982.08
190.841	2074.08
196.849	3287.42
202.85	4091.42
208.845	4256.75
214.833	4092.75
220.815	3901.42
226.789	3779.42
232.758	3660.75
238.719	3517.08
244.674	3374.08
250.623	3185.75
256.565	3036.08
262.5	2876.75
268.429	2725.42
274.351	2606.42
280.267	2485.42
286.176	2396.08
292.079	2302.08
297.975	2205.42
303.865	2134.08
309.748	2090.75
315.625	2024.42
321.495	2001.42
327.359	1959.75
333.217	1950.42
339.068	1919.75
344.912	1925.08
350.751	1923.42
356.583	1914.42
362.408	1908.42
368.227	1908.75
374.04	1920.42
379.847	1967.08
385.647	1967.08
391.44	1970.42
397.228	1960.75
403.009	1966.42
408.784	1966.42
414.553	2054.42
420.315	2129.08
426.071	2124.42
431.821	2061.08
437.565	1991.42
443.302	1949.42
449.033	1919.75
454.758	1919.08
460.477	1900.42
466.189	1910.75
471.896	1867.75
477.596	1876.42
483.29	1855.08
488.978	1840.42
494.66	1800.42
500.335	1784.42
506.005	1750.08
511.668	1682.08
517.325	1631.75
522.977	1634.42
528.622	1609.08
534.261	1562.42
539.894	1556.75
545.521	1541.75
551.141	1539.75
556.756	1518.75
562.365	1485.42
567.968	1463.42
573.565	1447.75
579.155	1455.08
584.74	1434.42
590.319	1424.42
595.892	1395.08
601.459	1390.08
607.02	1376.42
612.575	1372.42
618.124	1344.42
623.667	1311.75
629.204	1294.75
634.735	1291.42
640.261	1305.08
645.781	1303.42
651.294	1304.75
656.802	1279.75
662.304	1239.75
667.8	1217.75
673.29	1217.08
678.775	1188.75
684.254	1199.75
689.726	1165.75
695.193	1162.08
700.655	1130.08
706.11	1126.42
711.56	1118.08
717.004	1107.42
722.442	1082.42
727.874	1076.08
733.301	1065.75
738.722	1064.42
744.137	1049.75
749.547	1059.08
754.951	1061.08
760.349	1051.42
765.741	1032.42
771.128	1006.42
776.509	1005.08
781.885	995.08
787.254	996.42
792.618	978.75
797.977	975.42
803.33	954.08
808.677	937.08
814.019	925.42
819.355	896.08
824.686	883.75
830.011	895.75
835.33	864.42
840.644	848.42
845.952	833.42
851.255	837.42
856.552	826.42
861.844	813.42
867.13	800.75
872.41	785.75
877.686	779.42
882.955	778.75
888.219	753.42
893.478	730.75
898.731	707.42
903.979	671.75
909.221	666.08
914.458	661.42
919.69	653.08
924.916	642.42
930.136	638.75
935.351	627.75
940.561	629.08
945.766	617.08
950.965	599.42
956.158	598.08
961.347	596.75
966.529	570.08
971.707	562.42
976.879	553.08
982.046	550.42
987.208	530.08
992.364	537.75
997.515	532.08
1002.66	536.42
1007.801	540.75
1012.936	544.42
1018.066	549.08
1023.19	545.42
1028.309	549.42
1033.423	542.42
1038.532	525.42
1043.636	535.75
1048.734	526.75
1053.827	527.75
1058.915	509.75
1063.998	510.42
1069.075	510.08
1074.147	500.42
1079.214	499.42
1084.276	506.75
1089.333	504.08
1094.385	507.75
1099.431	513.75
1104.472	501.75
1109.509	492.42
1114.54	488.75
1119.565	476.42
1124.586	470.08
1129.602	466.75
1134.613	462.08
1139.618	462.75
1144.619	448.75
1149.614	449.08
1154.604	462.75
1159.589	472.42
1164.57	461.42
1169.545	454.42
1174.515	464.08
1179.48	464.08
1184.44	456.08
1189.395	446.75
1194.345	449.42
1199.29	432.42
1204.23	449.08
1209.165	440.42
1214.095	446.08
1219.021	442.42
1223.941	448.08
1228.856	444.42
1233.766	448.75
1238.672	450.42
1243.572	450.42
1248.467	441.42
1253.358	441.08
1258.244	423.08
1263.124	414.08
1268	413.75
1272.871	408.75
1277.737	405.42
1282.599	398.08
1287.455	400.08
1292.306	396.08
1297.153	405.08
1301.995	403.08
1306.832	404.75
1311.664	396.08
1316.491	386.08
1321.314	389.08
1326.132	384.75
1330.945	373.08
1335.753	371.75
1340.556	357.08
1345.354	348.08
1350.148	340.42
1354.937	350.75
1359.722	343.08
1364.501	347.08
1369.276	349.08
1374.046	348.08
1378.811	341.08
1383.572	338.42
1388.327	345.08
1393.079	339.75
1397.825	330.08
1402.567	319.75
1407.304	316.42
1412.036	317.42
1416.764	308.42
1421.487	315.42
1426.205	306.75
1430.919	308.42
1435.628	322.08
1440.333	316.42
1445.032	326.75
1449.727	328.08
1454.418	339.08
1459.104	340.42
1463.785	321.75
1468.462	324.08
1473.134	317.42
1477.802	310.08
1482.465	312.75
1487.123	303.42
1491.777	313.42
1496.426	319.08
1501.071	327.75
1505.711	321.75
1510.347	348.08
1514.978	343.75
1519.604	354.42
1524.226	356.75
1528.844	360.08
1533.457	362.42
1538.065	370.08
1542.669	372.08
1547.269	367.42
1551.864	375.42
1556.454	380.75
1561.041	396.75
1565.622	405.42
1570.199	408.42
1574.772	427.08
1579.34	443.42
1583.904	464.75
1588.464	491.75
1593.019	494.42
1597.569	513.42
1602.115	524.75
1606.657	544.08
1611.195	557.75
1615.728	585.75
1620.256	596.08
1624.78	612.08
1629.3	623.42
1633.816	641.75
1638.327	645.42
1642.834	667.08
1647.336	682.42
1651.834	685.08
1656.328	672.42
1660.817	660.75
1665.302	659.42
1669.783	606.08
1674.259	584.42
1678.732	559.75
1683.199	516.75
1687.663	484.08
1692.122	451.75
1696.577	412.08
1701.028	388.75
1705.474	363.75
1709.917	341.42
1714.355	317.75
1718.788	292.08
1723.218	288.42
1727.643	266.42
1732.064	246.42
1736.481	225.08
1740.893	203.75
1745.301	194.08
1749.705	172.08
1754.105	160.08
1758.501	155.75
1762.893	143.08
1767.28	130.75
1771.663	125.75
1776.042	121.08
1780.417	116.42
1784.787	115.75
1789.154	116.75
1793.516	107.42
1797.874	107.08
1802.228	107.08
1806.578	98.42
1810.924	98.75
1815.266	98.08
1819.603	84.08
1823.937	87.42
1828.266	81.75
1832.591	74.42
1836.913	70.42
1841.23	68.08
1845.543	67.75
1849.852	73.42
1854.156	66.42
1858.457	63.42
1862.754	73.42
1867.047	61.75
1871.335	72.08
1875.62	75.08
1879.9	74.42
1884.177	71.75
1888.449	68.42
1892.718	69.08
1896.982	64.75
1901.243	72.08
1905.499	67.42
1909.752	66.75
1914	64.75
1918.245	73.42
1922.485	68.42
1926.722	73.08
1930.954	74.75
1935.183	81.08
1939.408	68.08
1943.628	81.08
1947.845	85.75
1952.058	84.75
1956.267	82.42
1960.472	83.42
1964.673	82.75
1968.87	82.75
1973.063	79.08
1977.252	82.42
1981.438	82.42
1985.619	80.75
1989.797	76.75
1993.971	81.42
1998.14	78.42
2002.306	73.42
2006.469	81.08
2010.627	81.08
2014.781	83.42
2018.932	82.08
2023.078	86.75
2027.221	84.08
2031.36	92.08
2035.495	81.08
2039.627	82.75
2043.754	88.75
2047.878	85.75
2051.998	90.08
2056.114	87.42
2060.226	97.75
2064.334	88.75
2068.439	96.08
2072.54	99.75
2076.637	103.08
2080.73	100.42
2084.82	108.08
2088.906	105.75
2092.988	114.08
2097.066	102.08
2101.14	98.75
2105.211	95.08
2109.278	99.08
2113.342	99.75
2117.401	98.42
2121.457	95.75
2125.509	91.42
2129.558	98.08
2133.602	84.08
2137.643	87.75
2141.681	93.42
2145.714	88.75
2149.744	80.42
2153.77	83.08
2157.793	80.75
2161.812	81.08
2165.827	78.08
2169.838	70.75
2173.846	69.08
2177.851	52.08
2181.851	55.75
2185.848	50.08
2189.841	46.75
2193.831	41.08
2197.817	45.08
2201.799	45.75
2205.778	36.75
2209.753	42.75
2213.725	42.08
2217.693	39.42
2221.657	32.75
2225.618	33.75
2229.575	32.42
2233.529	31.08
2237.479	34.08
2241.425	27.08
2245.368	18.42
2249.307	14.75
2253.243	12.08
2257.175	7.42
2261.104	3.08
2265.029	1.75
2268.95	1.75
2272.868	-3.92
2276.783	-2.25
2280.694	-6.25
2284.601	-7.92
2288.505	-7.25
2292.405	-6.58
2296.302	-6.92
2300.195	-13.58
2304.085	-13.25
2307.971	-8.92
2311.854	-17.25
2315.734	-16.92
2319.609	-17.92
2323.482	-22.92
2327.351	-22.25
2331.216	-20.58
2335.078	-21.92
2338.937	-27.58
2342.792	-29.58
2346.643	-30.58
2350.492	-29.25
2354.336	-29.92
2358.178	-33.25
2362.015	-33.92
2365.85	-37.58
2369.681	-35.25
2373.508	-33.25
2377.333	-35.58
2381.153	-31.92
2384.971	-32.92
2388.785	-33.92
2392.595	-35.58
2396.402	-33.58
2400.206	-35.92
2404.007	-41.25
2407.804	-36.58
2411.597	-36.92
2415.388	-39.25
2419.174	-44.58
2422.958	-46.58
2426.738	-46.58
2430.515	-43.92
2434.289	-50.25
2438.059	-48.58
2441.825	-46.92
2445.589	-48.58
2449.349	-51.25
2453.106	-44.92
2456.859	-50.58
2460.61	-50.58
2464.356	-49.58
2468.1	-49.25
2471.84	-50.92
2475.577	-51.92
2479.311	-49.92
2483.041	-53.25
2486.768	-52.25
2490.492	-48.58
2494.213	-47.92
2497.93	-54.92
2501.644	-54.92
2505.355	-57.58
2509.062	-52.92
2512.766	-52.92
2516.467	-54.58
2520.165	-56.25
2523.859	-54.58
2527.551	-53.92
2531.239	-56.25
2534.923	-54.25
2538.605	-55.58
2542.283	-54.25
2545.958	-54.25
2549.63	-56.92
2553.299	-55.25
2556.964	-52.58
2560.626	-55.92
2564.285	-57.58
2567.941	-54.92
2571.594	-52.92
2575.243	-57.92
2578.89	-58.92
2582.533	-58.92
2586.173	-65.25
2589.809	-63.25
2593.443	-61.25
2597.073	-63.58
2600.701	-60.92
2604.325	-55.58
2607.946	-60.25
2611.564	-62.58
2615.178	-59.92
2618.79	-57.92
2622.398	-56.58
2626.004	-57.58
2629.606	-61.25
2633.205	-60.58
2636.801	-63.58
2640.394	-61.92
2643.983	-64.92
2647.57	-62.58
2651.153	-61.92
2654.734	-61.92
2658.311	-61.25
2661.885	-62.58
2665.456	-63.58
2669.025	-61.25
2672.589	-64.92
2676.151	-62.92
2679.71	-58.25
2683.266	-62.58
2686.819	-62.92
2690.368	-58.58
2693.915	-62.25
2697.458	-57.25
2700.999	-59.92
2704.536	-58.58
2708.071	-61.58
2711.602	-62.58
2715.13	-57.25
2718.656	-59.58
2722.178	-60.58
2725.697	-60.25
2729.214	-54.25
2732.727	-61.58
2736.237	-59.25
2739.744	-58.92
2743.249	-55.92
2746.75	-59.25
2750.248	-52.92
2753.743	-53.58
2757.236	-50.92
2760.725	-48.92
2764.211	-50.58
2767.695	-45.58
2771.175	-45.58
2774.652	-46.25
2778.127	-44.25
2781.598	-43.92
2785.067	-42.92
2788.532	-45.58
2791.995	-43.92
2795.455	-39.58
2798.911	-41.58
2802.365	-40.58
2805.816	-41.92
2809.264	-34.25
2812.709	-34.92
2816.151	-35.58
2819.59	-34.58
2823.026	-29.25
2826.46	-24.25
2829.89	-28.58
2833.318	-19.92
2836.742	-19.25
2840.164	-17.92
2843.583	-15.92
2846.999	-12.92
2850.412	-7.92
2853.822	-9.25
2857.229	-4.92
2860.634	-1.92
2864.035	0.42
2867.434	3.75
2870.83	2.08
2874.223	4.75
2877.613	3.08
2881	12.42
2884.385	9.42
2887.766	16.75
2891.145	20.08
2894.521	20.75
2897.894	26.08
2901.264	21.08
2904.631	25.75
2907.996	33.08
2911.358	40.08
2914.717	43.42
2918.073	44.08
2921.426	48.75
2924.777	51.08
2928.124	60.75
2931.469	68.08
2934.811	71.42
2938.15	74.08
2941.487	77.42
2944.821	80.08
2948.152	84.42
2951.48	78.75
2954.805	93.08
2958.128	92.42
2961.447	95.75
2964.765	107.08
2968.079	113.08
2971.39	112.42
2974.699	122.75
2978.005	129.75
2981.308	145.42
2984.609	185.08
2987.907	247.75
2991.202	180.42
2994.494	182.08
2997.784	187.08
3001.07	199.75
3004.355	198.75
3007.636	210.08
3010.915	211.08
3014.191	226.75
3017.464	235.08
3020.734	242.75
3024.002	242.75
3027.267	254.08
3030.53	257.42
3033.789	266.42
3037.046	277.75
3040.301	290.75
3043.552	294.42
3046.801	308.08
3050.048	320.42
3053.291	339.75
3056.532	352.08
3059.771	358.42
3063.006	376.08
3066.239	401.42
3069.469	407.75
3072.697	438.08
3075.922	444.75
3079.144	472.08
3082.364	471.75
3085.581	491.42
3088.795	501.08
3092.007	512.75
3095.216	540.75
3098.423	548.08
3101.627	564.42
3104.828	577.75
3108.026	600.08
3111.222	629.75
3114.416	639.08
3117.607	663.75
3120.795	667.08
3123.98	692.75
3127.163	720.42
3130.344	732.42
3133.521	745.75
3136.696	760.42
3139.869	793.75
3143.039	813.08
3146.206	824.42
3149.371	825.42
3152.533	845.75
3155.693	859.75
3158.85	867.42
3162.005	857.75
3165.157	876.75
3168.306	881.08
3171.453	877.75
3174.597	883.42
3177.739	901.42
3180.878	893.08
3184.014	913.42
3187.149	907.08
3190.28	913.08
3193.409	913.08
3196.536	929.75
3199.659	928.42
3202.781	932.08
3205.9	934.42
3209.016	940.75
3212.13	927.42
3215.241	931.08
3218.35	924.75
3221.456	915.75
3224.56	905.42
3227.661	913.42
3230.76	905.08
3233.856	899.42
3236.95	895.75
3240.041	884.42
3243.13	885.42
3246.216	874.42
3249.3	875.75
3252.382	869.75
3255.46	865.08
3258.537	874.42
3261.611	883.75
3264.682	875.08
3267.751	860.08
3270.818	869.08
3273.882	858.08
3276.943	858.08
3280.002	857.42
3283.059	837.75
3286.113	829.75
3289.165	822.75
3292.214	806.75
3295.261	802.08
3298.306	779.08
3301.348	766.75
3304.387	762.08
3307.425	748.08
3310.459	735.08
3313.492	734.08
3316.521	726.08
3319.549	718.75
3322.574	703.75
3325.597	708.75
3328.617	699.42
3331.635	701.08
3334.65	697.42
3337.663	696.75
3340.674	688.42
3343.682	697.42
3346.688	687.75
3349.691	681.42
3352.692	682.42
3355.691	677.75
3358.687	662.08
3361.681	670.42
3364.673	658.08
3367.662	656.42
3370.649	636.42
3373.633	640.75
3376.615	623.75
3379.595	627.42
3382.572	609.42
3385.547	603.08
3388.52	602.75
3391.49	581.08
3394.458	575.75
3397.424	572.75
3400.387	566.75
3403.348	551.42
3406.307	549.08
3409.263	553.08
3412.217	545.42
3415.168	536.42
3418.118	539.75
3421.065	537.42
3424.009	538.08
3426.951	523.08
3429.891	513.42
3432.829	507.42
3435.764	483.75
3438.697	483.42
3441.628	478.42
3444.557	468.42
3447.483	448.08
3450.407	437.08
3453.328	429.08
3456.247	414.42
3459.164	401.42
3462.079	393.08
3464.991	378.08
3467.902	356.42
3470.809	346.08
3473.715	346.08
3476.618	332.08
3479.519	329.42
3482.418	315.42
3485.315	298.08
3488.209	302.42
3491.101	291.75
3493.99	284.75
3496.878	265.75
3499.763	264.42
3502.646	255.08
3505.527	253.75
3508.405	235.75
3511.281	234.75
3514.155	223.75
3517.027	205.42
3519.897	198.08
3522.764	197.42
3525.629	173.75
3528.492	167.08
3531.352	165.42
3534.211	149.42
3537.067	135.75
3539.921	139.42
3542.773	126.42
3545.622	110.42
3548.469	108.75
3551.315	102.42
3554.157	88.42
3556.998	85.42
3559.837	76.42
3562.673	73.08
3565.507	73.75
3568.339	60.75
3571.169	62.08
3573.996	44.08
3576.822	43.75
3579.645	48.08
3582.466	33.75
3585.285	35.75
3588.101	31.42
3590.916	29.75
3593.728	20.42
3596.538	17.08
3599.346	14.42
3602.152	7.08
3604.956	3.75
3607.757	4.08
3610.556	-0.25
3613.354	-12.25
3616.149	-13.58
3618.942	-13.92
3621.732	-20.92
3624.521	-22.92
3627.307	-23.25
3630.092	-28.58
3632.874	-26.92
3635.654	-31.58
3638.432	-31.58
3641.208	-34.25
3643.982	-36.58
3646.753	-37.58
3649.523	-41.92
3652.29	-41.92
3655.055	-48.25
3657.818	-50.92
3660.579	-51.58
3663.338	-57.92
3666.095	-54.58
3668.849	-60.92
3671.602	-58.58
3674.352	-60.58
3677.101	-63.92
3679.847	-65.92
3682.591	-70.92
3685.333	-67.25
3688.073	-72.58
3690.811	-73.92
3693.547	-73.92
3696.281	-75.25
3699.013	-78.25
3701.742	-76.58
3704.47	-76.58
3707.195	-80.92
3709.919	-78.92
3712.64	-80.92
3715.359	-81.25
3718.076	-81.25
3720.792	-85.58
3723.505	-81.25
3726.216	-85.25
3728.925	-82.92
3731.632	-86.92
3734.336	-83.25
3737.039	-86.25
3739.74	-86.92
3742.439	-86.58
3745.136	-91.92
3747.83	-89.92
3750.523	-91.25
3753.213	-91.92
3755.902	-95.58
3758.589	-89.92
3761.273	-92.25
3763.956	-93.92
3766.636	-92.92
3769.315	-91.92
3771.991	-89.58
3774.665	-96.58
3777.338	-92.25
3780.008	-95.58
3782.677	-90.58
3785.343	-89.58
3788.007	-90.92
3790.67	-92.92
3793.33	-96.25
3795.989	-97.25
3798.645	-96.25
3801.299	-99.25
3803.952	-95.92
3806.602	-95.58
3809.251	-96.58
3811.897	-97.25
3814.542	-98.25
3817.184	-98.58
3819.825	-96.25
3822.463	-96.58
3825.1	-97.25
3827.735	-99.58
3830.367	-94.92
3832.998	-94.58
3835.627	-98.92
3838.253	-97.58
3840.878	-97.58
3843.501	-96.92
3846.122	-100.58
3848.741	-100.25
3851.358	-98.92
3853.973	-99.25
3856.586	-99.58
3859.197	-98.25
3861.806	-99.25
3864.414	-101.58
3867.019	-101.25
3869.622	-99.25
3872.224	-97.25
3874.823	-96.25
3877.421	-91.58
3880.016	-83.58
3882.61	-78.25
3885.202	-70.58
3887.792	-80.25
3890.38	-88.92
3892.966	-93.92
3895.55	-96.25
3898.132	-97.92
3900.713	-100.25
3903.291	-99.58
3905.868	-104.25
3908.442	-98.92
3911.015	-103.25
3913.586	-102.25
3916.155	-101.58
3918.722	-101.25
3921.287	-100.58
3923.85	-103.58
3926.411	-98.58
3928.971	-100.92
3931.528	-102.92
3934.084	-100.25
3936.638	-100.58
3939.19	-101.25
3941.74	-100.25
3944.288	-98.92
3946.834	-103.25
3949.378	-100.25
3951.921	-98.58
3954.462	-100.25
3957	-99.25
3959.537	-100.25
3962.072	-100.25
3964.606	-101.25
3967.137	-99.25
3969.667	-99.92
3972.194	-102.25
3974.72	-100.25
3977.244	-103.58
3979.766	-100.58
3982.286	-96.92
3984.805	-98.25
3987.321	-98.92
3989.836	-95.25
3992.349	-95.25
3994.86	-97.25
3997.369	-100.92
3999.877	-99.92
4002.382	-98.92
4004.886	-96.92
4007.388	-95.58
4009.888	-97.25
4012.386	-100.58
4014.883	-96.58
4017.377	-102.92
4019.87	-100.25
4022.361	-101.25
4024.85	-97.92
4027.338	-100.25
4029.823	-101.58
4032.307	-98.25
4034.789	-99.25
4037.269	-99.25
4039.747	-98.25
4042.224	-100.58
4044.699	-97.58
4047.172	-101.58
4049.643	-98.92
4052.112	-99.25
4054.58	-100.25
4057.046	-98.25
4059.51	-98.92
4061.972	-98.25
4064.432	-99.58
4066.891	-99.92
4069.348	-101.25
4071.803	-100.25
4074.256	-103.58
4076.708	-101.92
4079.158	-102.25
4081.606	-102.58
4084.052	-103.25
4086.497	-101.92
4088.939	-98.92
4091.38	-99.92
4093.819	-102.92
4096.257	-105.92
4098.693	-104.92
4101.127	-103.58
4103.559	-104.92
4105.989	-64.58
4108.418	-62.58
4110.845	-59.58
4113.27	-56.58
4115.694	-49.92
4118.115	-42.25
4120.535	-100.58
4122.954	-98.25
4125.37	-95.25
4127.785	-95.58
4130.198	-98.58
4132.609	-98.25
4135.019	-100.58
4137.427	-105.92
4139.833	-103.25
4142.237	-103.58
