Data from Saline_log8 (I=1 T=5x1 V=3ml)_RamanShift_5.txt Node
Date: Mon Jun 05 14:35:05 IDT 2017
User: aro
Spectrometer: QEPB0276
Trigger mode: 0
Integration Time (sec): 5.000000E0
Scans to average: 1
Electric dark correction enabled: true
Nonlinearity correction enabled: false
Boxcar width: 0
XAxis mode: Raman Shifts
Number of Pixels in Spectrum: 1044
>>>>>Begin Spectral Data<<<<<
160.701	-4.75
166.742	4.92
172.777	23.92
178.805	101.25
184.826	264.58
190.841	553.58
196.849	862.92
202.85	1081.92
208.845	1132.25
214.833	1080.25
220.815	1051.92
226.789	1021.92
232.758	989.25
238.719	964.58
244.674	933.58
250.623	894.25
256.565	865.58
262.5	834.25
268.429	796.92
274.351	777.92
280.267	748.92
286.176	725.58
292.079	703.58
297.975	688.92
303.865	673.58
309.748	664.25
315.625	671.92
321.495	654.92
327.359	642.25
333.217	638.92
339.068	632.25
344.912	657.58
350.751	638.92
356.583	650.92
362.408	640.92
368.227	653.25
374.04	670.92
379.847	677.58
385.647	692.58
391.44	690.92
397.228	677.25
403.009	664.92
408.784	696.92
414.553	742.92
420.315	810.58
426.071	823.92
431.821	758.58
437.565	694.92
443.302	679.92
449.033	677.25
454.758	670.58
460.477	665.92
466.189	656.25
471.896	650.25
477.596	639.92
483.29	637.58
488.978	630.92
494.66	624.92
500.335	604.92
506.005	582.58
511.668	555.58
517.325	538.25
522.977	527.92
528.622	503.58
534.261	486.92
539.894	490.25
545.521	468.25
551.141	472.25
556.756	471.25
562.365	467.92
567.968	451.92
573.565	445.25
579.155	442.58
584.74	442.92
590.319	440.92
595.892	438.58
601.459	434.58
607.02	431.92
612.575	438.92
618.124	419.92
623.667	408.25
629.204	396.25
634.735	416.92
640.261	423.58
645.781	434.92
651.294	438.25
656.802	427.25
662.304	400.25
667.8	382.25
673.29	387.58
678.775	382.25
684.254	376.25
689.726	381.25
695.193	368.58
700.655	358.58
706.11	359.92
711.56	349.58
717.004	351.92
722.442	345.92
727.874	350.58
733.301	343.25
738.722	334.92
744.137	344.25
749.547	347.58
754.951	350.58
760.349	340.92
765.741	337.92
771.128	346.92
776.509	332.58
781.885	341.58
787.254	340.92
792.618	337.25
797.977	322.92
803.33	324.58
808.677	323.58
814.019	316.92
819.355	307.58
824.686	306.25
830.011	306.25
835.33	302.92
840.644	293.92
845.952	289.92
851.255	288.92
856.552	283.92
861.844	276.92
867.13	273.25
872.41	271.25
877.686	270.92
882.955	274.25
888.219	266.92
893.478	253.25
898.731	245.92
903.979	243.25
909.221	238.58
914.458	235.92
919.69	233.58
924.916	234.92
930.136	232.25
935.351	225.25
940.561	225.58
945.766	221.58
950.965	213.92
956.158	214.58
961.347	206.25
966.529	203.58
971.707	205.92
976.879	197.58
982.046	196.92
987.208	199.58
992.364	199.25
997.515	198.58
1002.66	196.92
1007.801	198.25
1012.936	204.92
1018.066	205.58
1023.19	206.92
1028.309	202.92
1033.423	208.92
1038.532	197.92
1043.636	200.25
1048.734	203.25
1053.827	201.25
1058.915	194.25
1063.998	192.92
1069.075	189.58
1074.147	190.92
1079.214	190.92
1084.276	192.25
1089.333	192.58
1094.385	187.25
1099.431	190.25
1104.472	193.25
1109.509	181.92
1114.54	176.25
1119.565	184.92
1124.586	177.58
1129.602	187.25
1134.613	178.58
1139.618	172.25
1144.619	179.25
1149.614	177.58
1154.604	179.25
1159.589	172.92
1164.57	177.92
1169.545	174.92
1174.515	174.58
1179.48	176.58
1184.44	172.58
1189.395	176.25
1194.345	166.92
1199.29	171.92
1204.23	168.58
1209.165	169.92
1214.095	169.58
1219.021	166.92
1223.941	166.58
1228.856	168.92
1233.766	181.25
1238.672	173.92
1243.572	167.92
1248.467	165.92
1253.358	168.58
1258.244	157.58
1263.124	157.58
1268	159.25
1272.871	158.25
1277.737	152.92
1282.599	156.58
1287.455	154.58
1292.306	151.58
1297.153	148.58
1301.995	154.58
1306.832	150.25
1311.664	150.58
1316.491	157.58
1321.314	149.58
1326.132	144.25
1330.945	143.58
1335.753	144.25
1340.556	135.58
1345.354	136.58
1350.148	137.92
1354.937	131.25
1359.722	133.58
1364.501	129.58
1369.276	129.58
1374.046	138.58
1378.811	135.58
1383.572	138.92
1388.327	136.58
1393.079	128.25
1397.825	130.58
1402.567	127.25
1407.304	121.92
1412.036	118.92
1416.764	122.92
1421.487	122.92
1426.205	116.25
1430.919	118.92
1435.628	122.58
1440.333	126.92
1445.032	127.25
1449.727	121.58
1454.418	121.58
1459.104	131.92
1463.785	120.25
1468.462	122.58
1473.134	117.92
1477.802	116.58
1482.465	116.25
1487.123	118.92
1491.777	117.92
1496.426	123.58
1501.071	130.25
1505.711	127.25
1510.347	127.58
1514.978	127.25
1519.604	134.92
1524.226	135.25
1528.844	131.58
1533.457	131.92
1538.065	138.58
1542.669	133.58
1547.269	131.92
1551.864	134.92
1556.454	140.25
1561.041	134.25
1565.622	135.92
1570.199	140.92
1574.772	138.58
1579.34	146.92
1583.904	150.25
1588.464	158.25
1593.019	160.92
1597.569	171.92
1602.115	164.25
1606.657	179.58
1611.195	181.25
1615.728	184.25
1620.256	195.58
1624.78	192.58
1629.3	198.92
1633.816	212.25
1638.327	208.92
1642.834	215.58
1647.336	220.92
1651.834	205.58
1656.328	214.92
1660.817	207.25
1665.302	210.92
1669.783	194.58
1674.259	188.92
1678.732	174.25
1683.199	168.25
1687.663	156.58
1692.122	146.25
1696.577	135.58
1701.028	134.25
1705.474	129.25
1709.917	119.92
1714.355	118.25
1718.788	109.58
1723.218	105.92
1727.643	94.92
1732.064	98.92
1736.481	90.58
1740.893	83.25
1745.301	77.58
1749.705	80.58
1754.105	71.58
1758.501	68.25
1762.893	66.58
1767.28	62.25
1771.663	58.25
1776.042	55.58
1780.417	58.92
1784.787	54.25
1789.154	57.25
1793.516	54.92
1797.874	52.58
1802.228	56.58
1806.578	50.92
1810.924	51.25
1815.266	48.58
1819.603	47.58
1823.937	42.92
1828.266	41.25
1832.591	48.92
1836.913	41.92
1841.23	43.58
1845.543	37.25
1849.852	40.92
1854.156	40.92
1858.457	42.92
1862.754	42.92
1867.047	41.25
1871.335	43.58
1875.62	41.58
1879.9	43.92
1884.177	45.25
1888.449	36.92
1892.718	40.58
1896.982	41.25
1901.243	39.58
1905.499	36.92
1909.752	39.25
1914	37.25
1918.245	38.92
1922.485	40.92
1926.722	39.58
1930.954	41.25
1935.183	43.58
1939.408	41.58
1943.628	43.58
1947.845	41.25
1952.058	41.25
1956.267	40.92
1960.472	42.92
1964.673	43.25
1968.87	38.25
1973.063	40.58
1977.252	42.92
1981.438	37.92
1985.619	39.25
1989.797	39.25
1993.971	40.92
1998.14	41.92
2002.306	43.92
2006.469	43.58
2010.627	40.58
2014.781	41.92
2018.932	39.58
2023.078	37.25
2027.221	39.58
2031.36	40.58
2035.495	34.58
2039.627	35.25
2043.754	36.25
2047.878	36.25
2051.998	40.58
2056.114	38.92
2060.226	43.25
2064.334	41.25
2068.439	44.58
2072.54	44.25
2076.637	39.58
2080.73	44.92
2084.82	44.58
2088.906	43.25
2092.988	47.58
2097.066	48.58
2101.14	46.25
2105.211	47.58
2109.278	41.58
2113.342	43.25
2117.401	43.92
2121.457	46.25
2125.509	41.92
2129.558	39.58
2133.602	38.58
2137.643	33.25
2141.681	38.92
2145.714	36.25
2149.744	35.92
2153.77	32.58
2157.793	31.25
2161.812	33.58
2165.827	34.58
2169.838	29.25
2173.846	26.58
2177.851	29.58
2181.851	22.25
2185.848	24.58
2189.841	23.25
2193.831	21.58
2197.817	22.58
2201.799	21.25
2205.778	22.25
2209.753	20.25
2213.725	24.58
2217.693	21.92
2221.657	17.25
2225.618	20.25
2229.575	23.92
2233.529	20.58
2237.479	13.58
2241.425	18.58
2245.368	13.92
2249.307	15.25
2253.243	10.58
2257.175	11.92
2261.104	10.58
2265.029	9.25
2268.95	6.25
2272.868	6.58
2276.783	5.25
2280.694	6.25
2284.601	6.58
2288.505	5.25
2292.405	4.92
2296.302	7.58
2300.195	7.92
2304.085	6.25
2307.971	6.58
2311.854	7.25
2315.734	4.58
2319.609	2.58
2323.482	-0.42
2327.351	2.25
2331.216	3.92
2335.078	1.58
2338.937	-2.08
2342.792	1.92
2346.643	-2.08
2350.492	-4.75
2354.336	-5.42
2358.178	-5.75
2362.015	-6.42
2365.85	-3.08
2369.681	-6.75
2373.508	-2.75
2377.333	-7.08
2381.153	-5.42
2384.971	-5.42
2388.785	0.58
2392.595	-4.08
2396.402	-2.08
2400.206	-1.42
2404.007	-4.75
2407.804	1.92
2411.597	-1.42
2415.388	-5.75
2419.174	-5.08
2422.958	-8.08
2426.738	-5.08
2430.515	-7.42
2434.289	-6.75
2438.059	-11.08
2441.825	-9.42
2445.589	-5.08
2449.349	-8.75
2453.106	-11.42
2456.859	-9.08
2460.61	-9.08
2464.356	-11.08
2468.1	-11.75
2471.84	-8.42
2475.577	-7.42
2479.311	-8.42
2483.041	-10.75
2486.768	-5.75
2490.492	-7.08
2494.213	-8.42
2497.93	-12.42
2501.644	-10.42
2505.355	-9.08
2509.062	-8.42
2512.766	-10.42
2516.467	-10.08
2520.165	-9.75
2523.859	-10.08
2527.551	-11.42
2531.239	-10.75
2534.923	-9.75
2538.605	-11.08
2542.283	-13.75
2545.958	-8.75
2549.63	-10.42
2553.299	-10.75
2556.964	-11.08
2560.626	-10.42
2564.285	-11.08
2567.941	-12.42
2571.594	-9.42
2575.243	-10.42
2578.89	-10.42
2582.533	-12.42
2586.173	-10.75
2589.809	-10.75
2593.443	-11.75
2597.073	-9.08
2600.701	-10.42
2604.325	-13.08
2607.946	-14.75
2611.564	-16.08
2615.178	-17.42
2618.79	-15.42
2622.398	-12.08
2626.004	-15.08
2629.606	-13.75
2633.205	-13.08
2636.801	-13.08
2640.394	-14.42
2643.983	-17.42
2647.57	-14.08
2651.153	-17.42
2654.734	-16.42
2658.311	-16.75
2661.885	-14.08
2665.456	-12.08
2669.025	-12.75
2672.589	-18.42
2676.151	-11.42
2679.71	-15.75
2683.266	-15.08
2686.819	-14.42
2690.368	-11.08
2693.915	-12.75
2697.458	-11.75
2700.999	-11.42
2704.536	-11.08
2708.071	-14.08
2711.602	-18.08
2715.13	-14.75
2718.656	-15.08
2722.178	-15.08
2725.697	-17.75
2729.214	-12.75
2732.727	-16.08
2736.237	-12.75
2739.744	-14.42
2743.249	-15.42
2746.75	-17.75
2750.248	-11.42
2753.743	-12.08
2757.236	-11.42
2760.725	-13.42
2764.211	-10.08
2767.695	-8.08
2771.175	-11.08
2774.652	-9.75
2778.127	-10.75
2781.598	-7.42
2785.067	-8.42
2788.532	-6.08
2791.995	-8.42
2795.455	-9.08
2798.911	-11.08
2802.365	-9.08
2805.816	-9.42
2809.264	-6.75
2812.709	-10.42
2816.151	-7.08
2819.59	-10.08
2823.026	-6.75
2826.46	-6.75
2829.89	-4.08
2833.318	-1.42
2836.742	-3.75
2840.164	0.58
2843.583	-1.42
2846.999	0.58
2850.412	0.58
2853.822	1.25
2857.229	4.58
2860.634	3.58
2864.035	1.92
2867.434	3.25
2870.83	4.58
2874.223	6.25
2877.613	4.58
2881	6.92
2884.385	6.92
2887.766	8.25
2891.145	5.58
2894.521	10.25
2897.894	10.58
2901.264	10.58
2904.631	13.25
2907.996	9.58
2911.358	14.58
2914.717	14.92
2918.073	18.58
2921.426	17.25
2924.777	22.58
2928.124	16.25
2931.469	20.58
2934.811	27.92
2938.15	22.58
2941.487	25.92
2944.821	29.58
2948.152	29.92
2951.48	31.25
2954.805	34.58
2958.128	34.92
2961.447	32.25
2964.765	34.58
2968.079	37.58
2971.39	37.92
2974.699	41.25
2978.005	44.25
2981.308	48.92
2984.609	47.58
2987.907	48.25
2991.202	51.92
2994.494	55.58
2997.784	55.58
3001.07	59.25
3004.355	61.25
3007.636	69.58
3010.915	69.58
3014.191	68.25
3017.464	72.58
3020.734	75.25
3024.002	78.25
3027.267	78.58
3030.53	77.92
3033.789	87.92
3037.046	87.25
3040.301	89.25
3043.552	89.92
3046.801	98.58
3050.048	103.92
3053.291	105.25
3056.532	104.58
3059.771	109.92
3063.006	117.58
3066.239	119.92
3069.469	124.25
3072.697	130.58
3075.922	133.25
3079.144	147.58
3082.364	143.25
3085.581	149.92
3088.795	156.58
3092.007	157.25
3095.216	163.25
3098.423	160.58
3101.627	179.92
3104.828	179.25
3108.026	184.58
3111.222	185.25
3114.416	194.58
3117.607	208.25
3120.795	205.58
3123.98	215.25
3127.163	223.92
3130.344	226.92
3133.521	229.25
3136.696	232.92
3139.869	241.25
3143.039	244.58
3146.206	249.92
3149.371	246.92
3152.533	257.25
3155.693	258.25
3158.85	256.92
3162.005	261.25
3165.157	269.25
3168.306	256.58
3171.453	263.25
3174.597	265.92
3177.739	274.92
3180.878	270.58
3184.014	272.92
3187.149	279.58
3190.28	277.58
3193.409	276.58
3196.536	285.25
3199.659	280.92
3202.781	280.58
3205.9	290.92
3209.016	280.25
3212.13	290.92
3215.241	279.58
3218.35	284.25
3221.456	284.25
3224.56	271.92
3227.661	268.92
3230.76	284.58
3233.856	272.92
3236.95	278.25
3240.041	270.92
3243.13	268.92
3246.216	263.92
3249.3	263.25
3252.382	266.25
3255.46	266.58
3258.537	268.92
3261.611	267.25
3264.682	263.58
3267.751	266.58
3270.818	260.58
3273.882	257.58
3276.943	270.58
3280.002	256.92
3283.059	255.25
3286.113	253.25
3289.165	247.25
3292.214	253.25
3295.261	238.58
3298.306	239.58
3301.348	234.25
3304.387	232.58
3307.425	228.58
3310.459	225.58
3313.492	223.58
3316.521	210.58
3319.549	210.25
3322.574	219.25
3325.597	215.25
3328.617	213.92
3331.635	205.58
3334.65	212.92
3337.663	208.25
3340.674	210.92
3343.682	210.92
3346.688	218.25
3349.691	210.92
3352.692	206.92
3355.691	206.25
3358.687	206.58
3361.681	203.92
3364.673	207.58
3367.662	208.92
3370.649	200.92
3373.633	195.25
3376.615	193.25
3379.595	195.92
3382.572	189.92
3385.547	181.58
3388.52	181.25
3391.49	177.58
3394.458	170.25
3397.424	173.25
3400.387	180.25
3403.348	166.92
3406.307	167.58
3409.263	170.58
3412.217	167.92
3415.168	166.92
3418.118	162.25
3421.065	159.92
3424.009	162.58
3426.951	160.58
3429.891	158.92
3432.829	152.92
3435.764	156.25
3438.697	154.92
3441.628	148.92
3444.557	149.92
3447.483	142.58
3450.407	141.58
3453.328	132.58
3456.247	128.92
3459.164	127.92
3462.079	119.58
3464.991	116.58
3467.902	119.92
3470.809	112.58
3473.715	106.58
3476.618	107.58
3479.519	101.92
3482.418	97.92
3485.315	93.58
3488.209	94.92
3491.101	84.25
3493.99	93.25
3496.878	91.25
3499.763	83.92
3502.646	82.58
3505.527	78.25
3508.405	80.25
3511.281	72.25
3514.155	72.25
3517.027	63.92
3519.897	68.58
3522.764	61.92
3525.629	65.25
3528.492	51.58
3531.352	47.92
3534.211	44.92
3537.067	44.25
3539.921	48.92
3542.773	37.92
3545.622	33.92
3548.469	34.25
3551.315	31.92
3554.157	31.92
3556.998	28.92
3559.837	30.92
3562.673	25.58
3565.507	22.25
3568.339	17.25
3571.169	20.58
3573.996	17.58
3576.822	17.25
3579.645	13.58
3582.466	13.25
3585.285	10.25
3588.101	15.92
3590.916	14.25
3593.728	6.92
3596.538	8.58
3599.346	5.92
3602.152	3.58
3604.956	1.25
3607.757	2.58
3610.556	1.25
3613.354	-0.75
3616.149	-4.08
3618.942	1.58
3621.732	-2.42
3624.521	-2.42
3627.307	-5.75
3630.092	-11.08
3632.874	-4.42
3635.654	-12.08
3638.432	-9.08
3641.208	-9.75
3643.982	-11.08
3646.753	-13.08
3649.523	-15.42
3652.29	-12.42
3655.055	-12.75
3657.818	-12.42
3660.579	-13.08
3663.338	-17.42
3666.095	-16.08
3668.849	-16.42
3671.602	-16.08
3674.352	-18.08
3677.101	-14.42
3679.847	-17.42
3682.591	-15.42
3685.333	-17.75
3688.073	-16.08
3690.811	-21.42
3693.547	-19.42
3696.281	-21.75
3699.013	-23.75
3701.742	-27.08
3704.47	-22.08
3707.195	-25.42
3709.919	-24.42
3712.64	-25.42
3715.359	-26.75
3718.076	-26.75
3720.792	-27.08
3723.505	-28.75
3726.216	-26.75
3728.925	-25.42
3731.632	-24.42
3734.336	-23.75
3737.039	-23.75
3739.74	-24.42
3742.439	-24.08
3745.136	-23.42
3747.83	-26.42
3750.523	-24.75
3753.213	-24.42
3755.902	-29.08
3758.589	-25.42
3761.273	-27.75
3763.956	-27.42
3766.636	-26.42
3769.315	-27.42
3771.991	-30.08
3774.665	-32.08
3777.338	-28.75
3780.008	-27.08
3782.677	-29.08
3785.343	-28.08
3788.007	-29.42
3790.67	-28.42
3793.33	-28.75
3795.989	-25.75
3798.645	-27.75
3801.299	-28.75
3803.952	-25.42
3806.602	-26.08
3809.251	-29.08
3811.897	-27.75
3814.542	-28.75
3817.184	-28.08
3819.825	-29.75
3822.463	-30.08
3825.1	-30.75
3827.735	-31.08
3830.367	-27.42
3832.998	-29.08
3835.627	-32.42
3838.253	-32.08
3840.878	-32.08
3843.501	-29.42
3846.122	-31.08
3848.741	-30.75
3851.358	-28.42
3853.973	-30.75
3856.586	-26.08
3859.197	-29.75
3861.806	-28.75
3864.414	-27.08
3867.019	-26.75
3869.622	-26.75
3872.224	-27.75
3874.823	-26.75
3877.421	-24.08
3880.016	-20.08
3882.61	-18.75
3885.202	-13.08
3887.792	-22.75
3890.38	-24.42
3892.966	-30.42
3895.55	-29.75
3898.132	-30.42
3900.713	-30.75
3903.291	-31.08
3905.868	-30.75
3908.442	-29.42
3911.015	-31.75
3913.586	-29.75
3916.155	-31.08
3918.722	-29.75
3921.287	-29.08
3923.85	-30.08
3926.411	-31.08
3928.971	-29.42
3931.528	-28.42
3934.084	-28.75
3936.638	-30.08
3939.19	-31.75
3941.74	-28.75
3944.288	-32.42
3946.834	-30.75
3949.378	-29.75
3951.921	-29.08
3954.462	-29.75
3957	-28.75
3959.537	-30.75
3962.072	-29.75
3964.606	-33.75
3967.137	-32.75
3969.667	-30.42
3972.194	-30.75
3974.72	-30.75
3977.244	-34.08
3979.766	-32.08
3982.286	-30.42
3984.805	-29.75
3987.321	-32.42
3989.836	-28.75
3992.349	-29.75
3994.86	-26.75
3997.369	-28.42
3999.877	-30.42
4002.382	-26.42
4004.886	-27.42
4007.388	-28.08
4009.888	-26.75
4012.386	-29.08
4014.883	-27.08
4017.377	-27.42
4019.87	-30.75
4022.361	-29.75
4024.85	-29.42
4027.338	-31.75
4029.823	-32.08
4032.307	-31.75
4034.789	-29.75
4037.269	-33.75
4039.747	-30.75
4042.224	-31.08
4044.699	-31.08
4047.172	-30.08
4049.643	-30.42
4052.112	-28.75
4054.58	-31.75
4057.046	-28.75
4059.51	-30.42
4061.972	-29.75
4064.432	-27.08
4066.891	-29.42
4069.348	-27.75
4071.803	-28.75
4074.256	-30.08
4076.708	-31.42
4079.158	-30.75
4081.606	-29.08
4084.052	-30.75
4086.497	-32.42
4088.939	-32.42
4091.38	-33.42
4093.819	-32.42
4096.257	-31.42
4098.693	-30.42
4101.127	-30.08
4103.559	-33.42
4105.989	-16.08
4108.418	-13.08
4110.845	-15.08
4113.27	-13.08
4115.694	-10.42
4118.115	-9.75
4120.535	-34.08
4122.954	-30.75
4125.37	-29.75
4127.785	-29.08
4130.198	-33.08
4132.609	-31.75
4135.019	-31.08
4137.427	-30.42
4139.833	-30.75
4142.237	-33.08
