Data from Saline_1 (I=1 T=5x1 V=3ml)_RamanShift_8.txt Node
Date: Mon Jun 05 14:05:17 IDT 2017
User: aro
Spectrometer: QEPB0276
Trigger mode: 0
Integration Time (sec): 5.000000E0
Scans to average: 1
Electric dark correction enabled: true
Nonlinearity correction enabled: false
Boxcar width: 0
XAxis mode: Raman Shifts
Number of Pixels in Spectrum: 1044
>>>>>Begin Spectral Data<<<<<
160.701	-28.62
166.742	1.04
172.777	87.04
178.805	359.38
184.826	982.71
190.841	2079.71
196.849	3310.04
202.85	4127.04
208.845	4305.38
214.833	4159.38
220.815	3962.04
226.789	3809.04
232.758	3698.38
238.719	3583.71
244.674	3419.71
250.623	3226.38
256.565	3074.71
262.5	2894.38
268.429	2759.04
274.351	2642.04
280.267	2519.04
286.176	2437.71
292.079	2332.71
297.975	2250.04
303.865	2184.71
309.748	2125.38
315.625	2074.04
321.495	2036.04
327.359	2008.38
333.217	1991.04
339.068	1965.38
344.912	1952.71
350.751	1947.04
356.583	1957.04
362.408	1963.04
368.227	1945.38
374.04	1962.04
379.847	1985.71
385.647	2009.71
391.44	2007.04
397.228	1985.38
403.009	2004.04
408.784	2019.04
414.553	2085.04
420.315	2157.71
426.071	2175.04
431.821	2091.71
437.565	2039.04
443.302	1992.04
449.033	1983.38
454.758	1976.71
460.477	1949.04
466.189	1938.38
471.896	1915.38
477.596	1890.04
483.29	1874.71
488.978	1876.04
494.66	1844.04
500.335	1820.04
506.005	1770.71
511.668	1748.71
517.325	1697.38
522.977	1675.04
528.622	1627.71
534.261	1609.04
539.894	1584.38
545.521	1559.38
551.141	1552.38
556.756	1529.38
562.365	1515.04
567.968	1524.04
573.565	1497.38
579.155	1477.71
584.74	1466.04
590.319	1447.04
595.892	1438.71
601.459	1427.71
607.02	1401.04
612.575	1397.04
618.124	1362.04
623.667	1342.38
629.204	1333.38
634.735	1334.04
640.261	1322.71
645.781	1342.04
651.294	1340.38
656.802	1321.38
662.304	1291.38
667.8	1251.38
673.29	1238.71
678.775	1231.38
684.254	1224.38
689.726	1201.38
695.193	1185.71
700.655	1171.71
706.11	1162.04
711.56	1147.71
717.004	1127.04
722.442	1114.04
727.874	1096.71
733.301	1081.38
738.722	1072.04
744.137	1078.38
749.547	1078.71
754.951	1071.71
760.349	1065.04
765.741	1044.04
771.128	1055.04
776.509	1029.71
781.885	1031.71
787.254	1015.04
792.618	1018.38
797.977	996.04
803.33	989.71
808.677	966.71
814.019	949.04
819.355	928.71
824.686	924.38
830.011	906.38
835.33	891.04
840.644	896.04
845.952	858.04
851.255	862.04
856.552	852.04
861.844	826.04
867.13	826.38
872.41	823.38
877.686	830.04
882.955	813.38
888.219	781.04
893.478	756.38
898.731	730.04
903.979	710.38
909.221	706.71
914.458	685.04
919.69	670.71
924.916	672.04
930.136	666.38
935.351	661.38
940.561	647.71
945.766	639.71
950.965	626.04
956.158	618.71
961.347	624.38
966.529	594.71
971.707	582.04
976.879	575.71
982.046	562.04
987.208	556.71
992.364	562.38
997.515	562.71
1002.66	570.04
1007.801	559.38
1012.936	562.04
1018.066	572.71
1023.19	560.04
1028.309	562.04
1033.423	573.04
1038.532	557.04
1043.636	559.38
1048.734	549.38
1053.827	552.38
1058.915	537.38
1063.998	529.04
1069.075	517.71
1074.147	514.04
1079.214	532.04
1084.276	534.38
1089.333	531.71
1094.385	537.38
1099.431	526.38
1104.472	526.38
1109.509	515.04
1114.54	513.38
1119.565	501.04
1124.586	497.71
1129.602	493.38
1134.613	490.71
1139.618	474.38
1144.619	479.38
1149.614	478.71
1154.604	481.38
1159.589	483.04
1164.57	483.04
1169.545	484.04
1174.515	481.71
1179.48	472.71
1184.44	465.71
1189.395	471.38
1194.345	467.04
1199.29	461.04
1204.23	457.71
1209.165	450.04
1214.095	464.71
1219.021	461.04
1223.941	475.71
1228.856	481.04
1233.766	480.38
1238.672	468.04
1243.572	465.04
1248.467	478.04
1253.358	455.71
1258.244	447.71
1263.124	439.71
1268	432.38
1272.871	424.38
1277.737	411.04
1282.599	424.71
1287.455	418.71
1292.306	422.71
1297.153	417.71
1301.995	422.71
1306.832	420.38
1311.664	415.71
1316.491	424.71
1321.314	414.71
1326.132	404.38
1330.945	402.71
1335.753	383.38
1340.556	382.71
1345.354	367.71
1350.148	369.04
1354.937	366.38
1359.722	354.71
1364.501	368.71
1369.276	366.71
1374.046	361.71
1378.811	358.71
1383.572	362.04
1388.327	364.71
1393.079	354.38
1397.825	351.71
1402.567	339.38
1407.304	342.04
1412.036	335.04
1416.764	334.04
1421.487	343.04
1426.205	329.38
1430.919	334.04
1435.628	335.71
1440.333	340.04
1445.032	350.38
1449.727	346.71
1454.418	355.71
1459.104	353.04
1463.785	336.38
1468.462	330.71
1473.134	319.04
1477.802	337.71
1482.465	327.38
1487.123	333.04
1491.777	337.04
1496.426	346.71
1501.071	343.38
1505.711	353.38
1510.347	354.71
1514.978	362.38
1519.604	379.04
1524.226	382.38
1528.844	377.71
1533.457	379.04
1538.065	385.71
1542.669	384.71
1547.269	385.04
1551.864	389.04
1556.454	393.38
1561.041	408.38
1565.622	404.04
1570.199	422.04
1574.772	433.71
1579.34	458.04
1583.904	477.38
1588.464	498.38
1593.019	519.04
1597.569	533.04
1602.115	540.38
1606.657	561.71
1611.195	582.38
1615.728	605.38
1620.256	616.71
1624.78	632.71
1629.3	653.04
1633.816	664.38
1638.327	689.04
1642.834	696.71
1647.336	693.04
1651.834	697.71
1656.328	703.04
1660.817	674.38
1665.302	652.04
1669.783	633.71
1674.259	616.04
1678.732	567.38
1683.199	535.38
1687.663	506.71
1692.122	470.38
1696.577	428.71
1701.028	411.38
1705.474	382.38
1709.917	363.04
1714.355	355.38
1718.788	323.71
1723.218	297.04
1727.643	281.04
1732.064	249.04
1736.481	241.71
1740.893	220.38
1745.301	199.71
1749.705	192.71
1754.105	179.71
1758.501	159.38
1762.893	148.71
1767.28	145.38
1771.663	140.38
1776.042	123.71
1780.417	131.04
1784.787	129.38
1789.154	128.38
1793.516	125.04
1797.874	123.71
1802.228	121.71
1806.578	112.04
1810.924	111.38
1815.266	104.71
1819.603	102.71
1823.937	95.04
1828.266	86.38
1832.591	90.04
1836.913	82.04
1841.23	80.71
1845.543	77.38
1849.852	75.04
1854.156	80.04
1858.457	74.04
1862.754	77.04
1867.047	81.38
1871.335	80.71
1875.62	86.71
1879.9	87.04
1884.177	87.38
1888.449	93.04
1892.718	80.71
1896.982	76.38
1901.243	83.71
1905.499	78.04
1909.752	79.38
1914	78.38
1918.245	87.04
1922.485	86.04
1926.722	79.71
1930.954	90.38
1935.183	89.71
1939.408	93.71
1943.628	90.71
1947.845	91.38
1952.058	96.38
1956.267	99.04
1960.472	89.04
1964.673	90.38
1968.87	92.38
1973.063	88.71
1977.252	88.04
1981.438	83.04
1985.619	89.38
1989.797	84.38
1993.971	92.04
1998.14	90.04
2002.306	88.04
2006.469	96.71
2010.627	95.71
2014.781	91.04
2018.932	90.71
2023.078	97.38
2027.221	92.71
2031.36	98.71
2035.495	90.71
2039.627	89.38
2043.754	92.38
2047.878	103.38
2051.998	97.71
2056.114	100.04
2060.226	105.38
2064.334	95.38
2068.439	113.71
2072.54	108.38
2076.637	108.71
2080.73	111.04
2084.82	106.71
2088.906	113.38
2092.988	114.71
2097.066	109.71
2101.14	109.38
2105.211	110.71
2109.278	110.71
2113.342	102.38
2117.401	105.04
2121.457	100.38
2125.509	102.04
2129.558	102.71
2133.602	96.71
2137.643	95.38
2141.681	97.04
2145.714	98.38
2149.744	92.04
2153.77	87.71
2157.793	87.38
2161.812	83.71
2165.827	76.71
2169.838	72.38
2173.846	72.71
2177.851	63.71
2181.851	61.38
2185.848	59.71
2189.841	57.38
2193.831	53.71
2197.817	50.71
2201.799	44.38
2205.778	46.38
2209.753	42.38
2213.725	45.71
2217.693	43.04
2221.657	47.38
2225.618	38.38
2229.575	41.04
2233.529	36.71
2237.479	33.71
2241.425	28.71
2245.368	26.04
2249.307	23.38
2253.243	18.71
2257.175	14.04
2261.104	11.71
2265.029	4.38
2268.95	7.38
2272.868	0.71
2276.783	-1.62
2280.694	0.38
2284.601	-5.29
2288.505	-3.62
2292.405	-2.96
2296.302	-2.29
2300.195	-9.96
2304.085	-11.62
2307.971	-10.29
2311.854	-10.62
2315.734	-13.29
2319.609	-20.29
2323.482	-19.29
2327.351	-22.62
2331.216	-16.96
2335.078	-19.29
2338.937	-26.96
2342.792	-29.96
2346.643	-25.96
2350.492	-31.62
2354.336	-28.29
2358.178	-28.62
2362.015	-29.29
2365.85	-30.96
2369.681	-29.62
2373.508	-32.62
2377.333	-34.96
2381.153	-27.29
2384.971	-31.29
2388.785	-29.29
2392.595	-35.96
2396.402	-32.96
2400.206	-40.29
2404.007	-33.62
2407.804	-37.96
2411.597	-38.29
2415.388	-35.62
2419.174	-39.96
2422.958	-38.96
2426.738	-38.96
2430.515	-41.29
2434.289	-43.62
2438.059	-44.96
2441.825	-39.29
2445.589	-44.96
2449.349	-42.62
2453.106	-45.29
2456.859	-42.96
2460.61	-45.96
2464.356	-41.96
2468.1	-47.62
2471.84	-45.29
2475.577	-45.29
2479.311	-46.29
2483.041	-52.62
2486.768	-53.62
2490.492	-46.96
2494.213	-50.29
2497.93	-55.29
2501.644	-52.29
2505.355	-49.96
2509.062	-51.29
2512.766	-51.29
2516.467	-53.96
2520.165	-49.62
2523.859	-50.96
2527.551	-48.29
2531.239	-52.62
2534.923	-49.62
2538.605	-52.96
2542.283	-50.62
2545.958	-49.62
2549.63	-52.29
2553.299	-57.62
2556.964	-54.96
2560.626	-57.29
2564.285	-53.96
2567.941	-53.29
2571.594	-59.29
2575.243	-56.29
2578.89	-58.29
2582.533	-55.29
2586.173	-55.62
2589.809	-54.62
2593.443	-59.62
2597.073	-56.96
2600.701	-61.29
2604.325	-54.96
2607.946	-53.62
2611.564	-59.96
2615.178	-59.29
2618.79	-56.29
2622.398	-54.96
2626.004	-56.96
2629.606	-59.62
2633.205	-58.96
2636.801	-61.96
2640.394	-59.29
2643.983	-59.29
2647.57	-58.96
2651.153	-60.29
2654.734	-56.29
2658.311	-60.62
2661.885	-58.96
2665.456	-58.96
2669.025	-61.62
2672.589	-62.29
2676.151	-57.29
2679.71	-57.62
2683.266	-56.96
2686.819	-58.29
2690.368	-54.96
2693.915	-61.62
2697.458	-60.62
2700.999	-60.29
2704.536	-60.96
2708.071	-56.96
2711.602	-62.96
2715.13	-58.62
2718.656	-58.96
2722.178	-54.96
2725.697	-56.62
2729.214	-53.62
2732.727	-52.96
2736.237	-51.62
2739.744	-53.29
2743.249	-49.29
2746.75	-52.62
2750.248	-48.29
2753.743	-50.96
2757.236	-50.29
2760.725	-46.29
2764.211	-46.96
2767.695	-45.96
2771.175	-48.96
2774.652	-47.62
2778.127	-49.62
2781.598	-46.29
2785.067	-42.29
2788.532	-41.96
2791.995	-39.29
2795.455	-41.96
2798.911	-36.96
2802.365	-39.96
2805.816	-32.29
2809.264	-30.62
2812.709	-33.29
2816.151	-26.96
2819.59	-27.96
2823.026	-26.62
2826.46	-25.62
2829.89	-27.96
2833.318	-19.29
2836.742	-19.62
2840.164	-20.29
2843.583	-19.29
2846.999	-12.29
2850.412	-16.29
2853.822	-7.62
2857.229	-4.29
2860.634	-8.29
2864.035	0.04
2867.434	2.38
2870.83	3.71
2874.223	7.38
2877.613	18.71
2881	14.04
2884.385	18.04
2887.766	25.38
2891.145	23.71
2894.521	25.38
2897.894	27.71
2901.264	31.71
2904.631	32.38
2907.996	30.71
2911.358	35.71
2914.717	47.04
2918.073	47.71
2921.426	43.38
2924.777	48.71
2928.124	59.38
2931.469	64.71
2934.811	74.04
2938.15	83.71
2941.487	77.04
2944.821	82.71
2948.152	85.04
2951.48	90.38
2954.805	89.71
2958.128	100.04
2961.447	105.38
2964.765	106.71
2968.079	112.71
2971.39	118.04
2974.699	123.38
2978.005	136.38
2981.308	147.04
2984.609	149.71
2987.907	156.38
2991.202	163.04
2994.494	181.71
2997.784	190.71
3001.07	196.38
3004.355	201.38
3007.636	207.71
3010.915	219.71
3014.191	228.38
3017.464	237.71
3020.734	244.38
3024.002	243.38
3027.267	257.71
3030.53	264.04
3033.789	274.04
3037.046	281.38
3040.301	303.38
3043.552	295.04
3046.801	304.71
3050.048	323.04
3053.291	339.38
3056.532	340.71
3059.771	364.04
3063.006	392.71
3066.239	403.04
3069.469	423.38
3072.697	422.71
3075.922	441.38
3079.144	464.71
3082.364	476.38
3085.581	492.04
3088.795	511.71
3092.007	515.38
3095.216	539.38
3098.423	556.71
3101.627	573.04
3104.828	588.38
3108.026	604.71
3111.222	622.38
3114.416	633.71
3117.607	664.38
3120.795	671.71
3123.98	702.38
3127.163	718.04
3130.344	733.04
3133.521	757.38
3136.696	782.04
3139.869	812.38
3143.039	816.71
3146.206	827.04
3149.371	836.04
3152.533	851.38
3155.693	863.38
3158.85	868.04
3162.005	876.38
3165.157	879.38
3168.306	886.71
3171.453	881.38
3174.597	910.04
3177.739	904.04
3180.878	901.71
3184.014	909.04
3187.149	908.71
3190.28	912.71
3193.409	931.71
3196.536	927.38
3199.659	931.04
3202.781	929.71
3205.9	942.04
3209.016	936.38
3212.13	936.04
3215.241	944.71
3218.35	951.38
3221.456	937.38
3224.56	920.04
3227.661	918.04
3230.76	910.71
3233.856	902.04
3236.95	900.38
3240.041	895.04
3243.13	894.04
3246.216	892.04
3249.3	887.38
3252.382	884.38
3255.46	894.71
3258.537	895.04
3261.611	879.38
3264.682	885.71
3267.751	871.71
3270.818	863.71
3273.882	869.71
3276.943	867.71
3280.002	869.04
3283.059	851.38
3286.113	833.38
3289.165	820.38
3292.214	819.38
3295.261	805.71
3298.306	798.71
3301.348	775.38
3304.387	763.71
3307.425	764.71
3310.459	743.71
3313.492	733.71
3316.521	725.71
3319.549	711.38
3322.574	716.38
3325.597	702.38
3328.617	694.04
3331.635	704.71
3334.65	698.04
3337.663	693.38
3340.674	693.04
3343.682	692.04
3346.688	697.38
3349.691	695.04
3352.692	689.04
3355.691	687.38
3358.687	686.71
3361.681	677.04
3364.673	669.71
3367.662	650.04
3370.649	657.04
3373.633	646.38
3376.615	633.38
3379.595	616.04
3382.572	612.04
3385.547	613.71
3388.52	606.38
3391.49	595.71
3394.458	599.38
3397.424	581.38
3400.387	580.38
3403.348	570.04
3406.307	552.71
3409.263	554.71
3412.217	556.04
3415.168	549.04
3418.118	556.38
3421.065	545.04
3424.009	529.71
3426.951	536.71
3429.891	521.04
3432.829	519.04
3435.764	495.38
3438.697	483.04
3441.628	476.04
3444.557	462.04
3447.483	448.71
3450.407	442.71
3453.328	428.71
3456.247	415.04
3459.164	408.04
3462.079	405.71
3464.991	377.71
3467.902	378.04
3470.809	347.71
3473.715	359.71
3476.618	339.71
3479.519	331.04
3482.418	320.04
3485.315	308.71
3488.209	303.04
3491.101	294.38
3493.99	291.38
3496.878	288.38
3499.763	273.04
3502.646	254.71
3505.527	252.38
3508.405	245.38
3511.281	234.38
3514.155	216.38
3517.027	202.04
3519.897	200.71
3522.764	187.04
3525.629	183.38
3528.492	175.71
3531.352	159.04
3534.211	150.04
3537.067	150.38
3539.921	138.04
3542.773	122.04
3545.622	117.04
3548.469	112.38
3551.315	92.04
3554.157	103.04
3556.998	92.04
3559.837	80.04
3562.673	78.71
3565.507	76.38
3568.339	67.38
3571.169	59.71
3573.996	51.71
3576.822	49.38
3579.645	47.71
3582.466	44.38
3585.285	34.38
3588.101	35.04
3590.916	24.38
3593.728	18.04
3596.538	15.71
3599.346	15.04
3602.152	13.71
3604.956	2.38
3607.757	1.71
3610.556	-8.62
3613.354	-10.62
3616.149	-10.96
3618.942	-14.29
3621.732	-17.29
3624.521	-23.29
3627.307	-21.62
3630.092	-25.96
3632.874	-26.29
3635.654	-32.96
3638.432	-31.96
3641.208	-32.62
3643.982	-37.96
3646.753	-35.96
3649.523	-36.29
3652.29	-42.29
3655.055	-49.62
3657.818	-48.29
3660.579	-54.96
3663.338	-58.29
3666.095	-56.96
3668.849	-59.29
3671.602	-59.96
3674.352	-61.96
3677.101	-69.29
3679.847	-68.29
3682.591	-67.29
3685.333	-68.62
3688.073	-69.96
3690.811	-71.29
3693.547	-75.29
3696.281	-73.62
3699.013	-77.62
3701.742	-78.96
3704.47	-76.96
3707.195	-78.29
3709.919	-79.29
3712.64	-81.29
3715.359	-80.62
3718.076	-81.62
3720.792	-87.96
3723.505	-87.62
3726.216	-89.62
3728.925	-90.29
3731.632	-91.29
3734.336	-90.62
3737.039	-90.62
3739.74	-88.29
3742.439	-89.96
3745.136	-91.29
3747.83	-90.29
3750.523	-88.62
3753.213	-89.29
3755.902	-92.96
3758.589	-90.29
3761.273	-93.62
3763.956	-91.29
3766.636	-92.29
3769.315	-93.29
3771.991	-92.96
3774.665	-94.96
3777.338	-94.62
3780.008	-96.96
3782.677	-96.96
3785.343	-93.96
3788.007	-94.29
3790.67	-95.29
3793.33	-97.62
3795.989	-97.62
3798.645	-97.62
3801.299	-98.62
3803.952	-95.29
3806.602	-95.96
3809.251	-97.96
3811.897	-97.62
3814.542	-100.62
3817.184	-98.96
3819.825	-95.62
3822.463	-98.96
3825.1	-100.62
3827.735	-100.96
3830.367	-100.29
3832.998	-98.96
3835.627	-103.29
3838.253	-100.96
3840.878	-99.96
3843.501	-100.29
3846.122	-100.96
3848.741	-97.62
3851.358	-100.29
3853.973	-99.62
3856.586	-99.96
3859.197	-97.62
3861.806	-96.62
3864.414	-97.96
3867.019	-99.62
3869.622	-101.62
3872.224	-97.62
3874.823	-95.62
3877.421	-93.96
3880.016	-87.96
3882.61	-83.62
3885.202	-82.96
3887.792	-85.62
3890.38	-92.29
3892.966	-97.29
3895.55	-99.62
3898.132	-100.29
3900.713	-102.62
3903.291	-98.96
3905.868	-101.62
3908.442	-100.29
3911.015	-103.62
3913.586	-99.62
3916.155	-98.96
3918.722	-100.62
3921.287	-101.96
3923.85	-102.96
3926.411	-100.96
3928.971	-99.29
3931.528	-102.29
3934.084	-101.62
3936.638	-105.96
3939.19	-105.62
3941.74	-104.62
3944.288	-104.29
3946.834	-102.62
3949.378	-103.62
3951.921	-102.96
3954.462	-104.62
3957	-102.62
3959.537	-100.62
3962.072	-99.62
3964.606	-99.62
3967.137	-102.62
3969.667	-100.29
3972.194	-102.62
3974.72	-101.62
3977.244	-100.96
3979.766	-102.96
3982.286	-103.29
3984.805	-102.62
3987.321	-102.29
3989.836	-100.62
3992.349	-101.62
3994.86	-101.62
3997.369	-104.29
3999.877	-102.29
4002.382	-99.29
4004.886	-101.29
4007.388	-97.96
4009.888	-96.62
4012.386	-98.96
4014.883	-100.96
4017.377	-101.29
4019.87	-100.62
4022.361	-101.62
4024.85	-97.29
4027.338	-98.62
4029.823	-102.96
4032.307	-99.62
4034.789	-103.62
4037.269	-101.62
4039.747	-102.62
4042.224	-102.96
4044.699	-103.96
4047.172	-103.96
4049.643	-103.29
4052.112	-101.62
4054.58	-100.62
4057.046	-102.62
4059.51	-102.29
4061.972	-98.62
4064.432	-101.96
4066.891	-101.29
4069.348	-100.62
4071.803	-100.62
4074.256	-99.96
4076.708	-102.29
4079.158	-104.62
4081.606	-102.96
4084.052	-103.62
4086.497	-104.29
4088.939	-99.29
4091.38	-104.29
4093.819	-103.29
4096.257	-102.29
4098.693	-103.29
4101.127	-103.96
4103.559	-102.29
4105.989	-63.96
4108.418	-63.96
4110.845	-57.96
4113.27	-55.96
4115.694	-43.29
4118.115	-41.62
4120.535	-101.96
4122.954	-102.62
4125.37	-100.62
4127.785	-100.96
4130.198	-102.96
4132.609	-101.62
4135.019	-103.96
4137.427	-105.29
4139.833	-104.62
4142.237	-104.96
