Data from Saline_log5 (I=1 T=5x1 V=3ml)_RamanShift_10.txt Node
Date: Mon Jun 05 14:28:30 IDT 2017
User: aro
Spectrometer: QEPB0276
Trigger mode: 0
Integration Time (sec): 5.000000E0
Scans to average: 1
Electric dark correction enabled: true
Nonlinearity correction enabled: false
Boxcar width: 0
XAxis mode: Raman Shifts
Number of Pixels in Spectrum: 1044
>>>>>Begin Spectral Data<<<<<
160.701	-5.38
166.742	0.29
172.777	25.29
178.805	95.62
184.826	267.96
190.841	533.96
196.849	835.29
202.85	1028.29
208.845	1096.62
214.833	1051.62
220.815	1029.29
226.789	994.29
232.758	966.62
238.719	946.96
244.674	926.96
250.623	870.62
256.565	840.96
262.5	806.62
268.429	768.29
274.351	745.29
280.267	728.29
286.176	713.96
292.079	682.96
297.975	660.29
303.865	652.96
309.748	649.62
315.625	644.29
321.495	638.29
327.359	623.62
333.217	623.29
339.068	618.62
344.912	628.96
350.751	616.29
356.583	623.29
362.408	620.29
368.227	640.62
374.04	643.29
379.847	665.96
385.647	668.96
391.44	673.29
397.228	663.62
403.009	650.29
408.784	682.29
414.553	736.29
420.315	799.96
426.071	796.29
431.821	730.96
437.565	671.29
443.302	656.29
449.033	650.62
454.758	649.96
460.477	633.29
466.189	625.62
471.896	631.62
477.596	620.29
483.29	618.96
488.978	606.29
494.66	598.29
500.335	585.29
506.005	568.96
511.668	541.96
517.325	515.62
522.977	510.29
528.622	486.96
534.261	477.29
539.894	467.62
545.521	465.62
551.141	464.62
556.756	461.62
562.365	452.29
567.968	445.29
573.565	437.62
579.155	451.96
584.74	435.29
590.319	426.29
595.892	422.96
601.459	417.96
607.02	427.29
612.575	407.29
618.124	403.29
623.667	401.62
629.204	383.62
634.735	393.29
640.261	406.96
645.781	418.29
651.294	427.62
656.802	418.62
662.304	391.62
667.8	375.62
673.29	366.96
678.775	368.62
684.254	358.62
689.726	366.62
695.193	361.96
700.655	358.96
706.11	345.29
711.56	352.96
717.004	336.29
722.442	336.29
727.874	331.96
733.301	328.62
738.722	331.29
744.137	347.62
749.547	339.96
754.951	333.96
760.349	341.29
765.741	323.29
771.128	324.29
776.509	320.96
781.885	321.96
787.254	330.29
792.618	325.62
797.977	323.29
803.33	306.96
808.677	316.96
814.019	315.29
819.355	304.96
824.686	299.62
830.011	298.62
835.33	286.29
840.644	284.29
845.952	290.29
851.255	282.29
856.552	278.29
861.844	272.29
867.13	269.62
872.41	269.62
877.686	266.29
882.955	263.62
888.219	260.29
893.478	245.62
898.731	237.29
903.979	231.62
909.221	227.96
914.458	226.29
919.69	226.96
924.916	219.29
930.136	216.62
935.351	213.62
940.561	219.96
945.766	212.96
950.965	208.29
956.158	210.96
961.347	204.62
966.529	202.96
971.707	199.29
976.879	197.96
982.046	193.29
987.208	190.96
992.364	197.62
997.515	194.96
1002.66	194.29
1007.801	195.62
1012.936	195.29
1018.066	196.96
1023.19	202.29
1028.309	194.29
1033.423	194.29
1038.532	194.29
1043.636	193.62
1048.734	195.62
1053.827	191.62
1058.915	184.62
1063.998	179.29
1069.075	191.96
1074.147	185.29
1079.214	184.29
1084.276	185.62
1089.333	185.96
1094.385	181.62
1099.431	185.62
1104.472	183.62
1109.509	177.29
1114.54	171.62
1119.565	177.29
1124.586	174.96
1129.602	172.62
1134.613	169.96
1139.618	169.62
1144.619	168.62
1149.614	170.96
1154.604	168.62
1159.589	173.29
1164.57	177.29
1169.545	175.29
1174.515	170.96
1179.48	172.96
1184.44	161.96
1189.395	163.62
1194.345	165.29
1199.29	159.29
1204.23	165.96
1209.165	168.29
1214.095	163.96
1219.021	165.29
1223.941	164.96
1228.856	165.29
1233.766	169.62
1238.672	172.29
1243.572	165.29
1248.467	163.29
1253.358	159.96
1258.244	160.96
1263.124	147.96
1268	150.62
1272.871	146.62
1277.737	148.29
1282.599	148.96
1287.455	147.96
1292.306	141.96
1297.153	154.96
1301.995	151.96
1306.832	146.62
1311.664	151.96
1316.491	150.96
1321.314	152.96
1326.132	144.62
1330.945	138.96
1335.753	135.62
1340.556	135.96
1345.354	127.96
1350.148	131.29
1354.937	129.62
1359.722	124.96
1364.501	126.96
1369.276	125.96
1374.046	127.96
1378.811	122.96
1383.572	125.29
1388.327	130.96
1393.079	123.62
1397.825	126.96
1402.567	125.62
1407.304	121.29
1412.036	120.29
1416.764	119.29
1421.487	113.29
1426.205	123.62
1430.919	117.29
1435.628	122.96
1440.333	124.29
1445.032	129.62
1449.727	128.96
1454.418	124.96
1459.104	122.29
1463.785	126.62
1468.462	119.96
1473.134	120.29
1477.802	115.96
1482.465	114.62
1487.123	114.29
1491.777	111.29
1496.426	117.96
1501.071	115.62
1505.711	130.62
1510.347	118.96
1514.978	128.62
1519.604	129.29
1524.226	137.62
1528.844	127.96
1533.457	131.29
1538.065	130.96
1542.669	131.96
1547.269	133.29
1551.864	130.29
1556.454	135.62
1561.041	137.62
1565.622	135.29
1570.199	140.29
1574.772	145.96
1579.34	146.29
1583.904	150.62
1588.464	164.62
1593.019	156.29
1597.569	164.29
1602.115	166.62
1606.657	168.96
1611.195	174.62
1615.728	184.62
1620.256	182.96
1624.78	187.96
1629.3	191.29
1633.816	200.62
1638.327	199.29
1642.834	200.96
1647.336	205.29
1651.834	210.96
1656.328	203.29
1660.817	201.62
1665.302	202.29
1669.783	196.96
1674.259	184.29
1678.732	174.62
1683.199	163.62
1687.663	157.96
1692.122	145.62
1696.577	142.96
1701.028	134.62
1705.474	128.62
1709.917	126.29
1714.355	112.62
1718.788	106.96
1723.218	104.29
1727.643	92.29
1732.064	93.29
1736.481	87.96
1740.893	79.62
1745.301	76.96
1749.705	69.96
1754.105	71.96
1758.501	65.62
1762.893	65.96
1767.28	61.62
1771.663	56.62
1776.042	55.96
1780.417	55.29
1784.787	56.62
1789.154	57.62
1793.516	57.29
1797.874	53.96
1802.228	52.96
1806.578	51.29
1810.924	52.62
1815.266	47.96
1819.603	44.96
1823.937	42.29
1828.266	38.62
1832.591	43.29
1836.913	37.29
1841.23	39.96
1845.543	38.62
1849.852	40.29
1854.156	39.29
1858.457	38.29
1862.754	40.29
1867.047	41.62
1871.335	43.96
1875.62	47.96
1879.9	43.29
1884.177	48.62
1888.449	41.29
1892.718	39.96
1896.982	41.62
1901.243	40.96
1905.499	38.29
1909.752	40.62
1914	41.62
1918.245	40.29
1922.485	41.29
1926.722	41.96
1930.954	42.62
1935.183	43.96
1939.408	41.96
1943.628	39.96
1947.845	43.62
1952.058	40.62
1956.267	43.29
1960.472	44.29
1964.673	41.62
1968.87	43.62
1973.063	39.96
1977.252	38.29
1981.438	41.29
1985.619	37.62
1989.797	39.62
1993.971	45.29
1998.14	37.29
2002.306	43.29
2006.469	43.96
2010.627	46.96
2014.781	39.29
2018.932	39.96
2023.078	38.62
2027.221	39.96
2031.36	42.96
2035.495	37.96
2039.627	40.62
2043.754	37.62
2047.878	39.62
2051.998	37.96
2056.114	38.29
2060.226	40.62
2064.334	41.62
2068.439	39.96
2072.54	43.62
2076.637	40.96
2080.73	50.29
2084.82	48.96
2088.906	45.62
2092.988	49.96
2097.066	44.96
2101.14	46.62
2105.211	46.96
2109.278	42.96
2113.342	44.62
2117.401	45.29
2121.457	43.62
2125.509	41.29
2129.558	39.96
2133.602	38.96
2137.643	39.62
2141.681	36.29
2145.714	39.62
2149.744	34.29
2153.77	35.96
2157.793	32.62
2161.812	31.96
2165.827	28.96
2169.838	32.62
2173.846	29.96
2177.851	25.96
2181.851	29.62
2185.848	26.96
2189.841	25.62
2193.831	20.96
2197.817	26.96
2201.799	25.62
2205.778	24.62
2209.753	18.62
2213.725	26.96
2217.693	23.29
2221.657	21.62
2225.618	25.62
2229.575	23.29
2233.529	17.96
2237.479	17.96
2241.425	21.96
2245.368	17.29
2249.307	15.62
2253.243	14.96
2257.175	9.29
2261.104	11.96
2265.029	11.62
2268.95	5.62
2272.868	8.96
2276.783	9.62
2280.694	7.62
2284.601	4.96
2288.505	6.62
2292.405	10.29
2296.302	7.96
2300.195	9.29
2304.085	5.62
2307.971	8.96
2311.854	7.62
2315.734	7.96
2319.609	4.96
2323.482	-0.04
2327.351	-0.38
2331.216	4.29
2335.078	4.96
2338.937	1.29
2342.792	-1.71
2346.643	-0.71
2350.492	-4.38
2354.336	-7.04
2358.178	-4.38
2362.015	-3.04
2365.85	-0.71
2369.681	-4.38
2373.508	-5.38
2377.333	-2.71
2381.153	-4.04
2384.971	-3.04
2388.785	1.96
2392.595	-0.71
2396.402	-2.71
2400.206	-1.04
2404.007	-3.38
2407.804	1.29
2411.597	-3.04
2415.388	-3.38
2419.174	-5.71
2422.958	-4.71
2426.738	-2.71
2430.515	-4.04
2434.289	-7.38
2438.059	-6.71
2441.825	-2.04
2445.589	-4.71
2449.349	-8.38
2453.106	-9.04
2456.859	-7.71
2460.61	-7.71
2464.356	-8.71
2468.1	-8.38
2471.84	-9.04
2475.577	-9.04
2479.311	-5.04
2483.041	-5.38
2486.768	-9.38
2490.492	-9.71
2494.213	-5.04
2497.93	-9.04
2501.644	-8.04
2505.355	-5.71
2509.062	-6.04
2512.766	-5.04
2516.467	-9.71
2520.165	-5.38
2523.859	-5.71
2527.551	-7.04
2531.239	-8.38
2534.923	-8.38
2538.605	-5.71
2542.283	-9.38
2545.958	-9.38
2549.63	-8.04
2553.299	-13.38
2556.964	-8.71
2560.626	-11.04
2564.285	-10.71
2567.941	-10.04
2571.594	-8.04
2575.243	-10.04
2578.89	-12.04
2582.533	-10.04
2586.173	-9.38
2589.809	-10.38
2593.443	-15.38
2597.073	-12.71
2600.701	-12.04
2604.325	-8.71
2607.946	-10.38
2611.564	-10.71
2615.178	-9.04
2618.79	-12.04
2622.398	-6.71
2626.004	-8.71
2629.606	-11.38
2633.205	-10.71
2636.801	-12.71
2640.394	-9.04
2643.983	-13.04
2647.57	-10.71
2651.153	-16.04
2654.734	-12.04
2658.311	-13.38
2661.885	-14.71
2665.456	-12.71
2669.025	-17.38
2672.589	-17.04
2676.151	-15.04
2679.71	-14.38
2683.266	-11.71
2686.819	-12.04
2690.368	-9.71
2693.915	-10.38
2697.458	-15.38
2700.999	-13.04
2704.536	-10.71
2708.071	-9.71
2711.602	-13.71
2715.13	-11.38
2718.656	-15.71
2722.178	-13.71
2725.697	-11.38
2729.214	-9.38
2732.727	-12.71
2736.237	-8.38
2739.744	-10.04
2743.249	-10.04
2746.75	-9.38
2750.248	-14.04
2753.743	-12.71
2757.236	-10.04
2760.725	-12.04
2764.211	-11.71
2767.695	-12.71
2771.175	-10.71
2774.652	-10.38
2778.127	-9.38
2781.598	-6.04
2785.067	-6.04
2788.532	-7.71
2791.995	-5.04
2795.455	-6.71
2798.911	-6.71
2802.365	-7.71
2805.816	-3.04
2809.264	-5.38
2812.709	-7.04
2816.151	-3.71
2819.59	-2.71
2823.026	-0.38
2826.46	-4.38
2829.89	0.29
2833.318	-1.04
2836.742	-0.38
2840.164	1.96
2843.583	0.96
2846.999	0.96
2850.412	2.96
2853.822	-1.38
2857.229	1.96
2860.634	3.96
2864.035	4.29
2867.434	7.62
2870.83	3.96
2874.223	7.62
2877.613	4.96
2881	10.29
2884.385	13.29
2887.766	10.62
2891.145	7.96
2894.521	13.62
2897.894	14.96
2901.264	11.96
2904.631	16.62
2907.996	15.96
2911.358	17.96
2914.717	16.29
2918.073	20.96
2921.426	20.62
2924.777	18.96
2928.124	16.62
2931.469	25.96
2934.811	30.29
2938.15	25.96
2941.487	22.29
2944.821	26.96
2948.152	27.29
2951.48	29.62
2954.805	29.96
2958.128	32.29
2961.447	30.62
2964.765	33.96
2968.079	36.96
2971.39	37.29
2974.699	38.62
2978.005	41.62
2981.308	45.29
2984.609	47.96
2987.907	52.62
2991.202	49.29
2994.494	54.96
2997.784	58.96
3001.07	59.62
3004.355	63.62
3007.636	64.96
3010.915	64.96
3014.191	70.62
3017.464	73.96
3020.734	74.62
3024.002	74.62
3027.267	78.96
3030.53	79.29
3033.789	83.29
3037.046	83.62
3040.301	88.62
3043.552	94.29
3046.801	96.96
3050.048	94.29
3053.291	96.62
3056.532	100.96
3059.771	110.29
3063.006	113.96
3066.239	121.29
3069.469	122.62
3072.697	128.96
3075.922	135.62
3079.144	142.96
3082.364	146.62
3085.581	151.29
3088.795	152.96
3092.007	158.62
3095.216	157.62
3098.423	167.96
3101.627	177.29
3104.828	172.62
3108.026	177.96
3111.222	182.62
3114.416	194.96
3117.607	198.62
3120.795	197.96
3123.98	201.62
3127.163	220.29
3130.344	223.29
3133.521	225.62
3136.696	225.29
3139.869	236.62
3143.039	238.96
3146.206	241.29
3149.371	249.29
3152.533	247.62
3155.693	252.62
3158.85	251.29
3162.005	264.62
3165.157	266.62
3168.306	263.96
3171.453	260.62
3174.597	271.29
3177.739	278.29
3180.878	270.96
3184.014	271.29
3187.149	269.96
3190.28	267.96
3193.409	268.96
3196.536	271.62
3199.659	277.29
3202.781	278.96
3205.9	283.29
3209.016	279.62
3212.13	274.29
3215.241	276.96
3218.35	279.62
3221.456	280.62
3224.56	260.29
3227.661	270.29
3230.76	270.96
3233.856	267.29
3236.95	263.62
3240.041	261.29
3243.13	265.29
3246.216	271.29
3249.3	256.62
3252.382	266.62
3255.46	259.96
3258.537	263.29
3261.611	258.62
3264.682	259.96
3267.751	251.96
3270.818	258.96
3273.882	252.96
3276.943	252.96
3280.002	249.29
3283.059	247.62
3286.113	236.62
3289.165	238.62
3292.214	242.62
3295.261	235.96
3298.306	236.96
3301.348	226.62
3304.387	224.96
3307.425	218.96
3310.459	215.96
3313.492	221.96
3316.521	213.96
3319.549	215.62
3322.574	220.62
3325.597	212.62
3328.617	206.29
3331.635	208.96
3334.65	205.29
3337.663	210.62
3340.674	204.29
3343.682	212.29
3346.688	207.62
3349.691	205.29
3352.692	203.29
3355.691	205.62
3358.687	199.96
3361.681	198.29
3364.673	204.96
3367.662	194.29
3370.649	196.29
3373.633	189.62
3376.615	185.62
3379.595	190.29
3382.572	183.29
3385.547	177.96
3388.52	173.62
3391.49	181.96
3394.458	172.62
3397.424	172.62
3400.387	173.62
3403.348	177.29
3406.307	170.96
3409.263	160.96
3412.217	167.29
3415.168	164.29
3418.118	164.62
3421.065	164.29
3424.009	163.96
3426.951	158.96
3429.891	151.29
3432.829	154.29
3435.764	149.62
3438.697	149.29
3441.628	148.29
3444.557	142.29
3447.483	135.96
3450.407	128.96
3453.328	132.96
3456.247	122.29
3459.164	117.29
3462.079	121.96
3464.991	113.96
3467.902	114.29
3470.809	106.96
3473.715	104.96
3476.618	103.96
3479.519	104.29
3482.418	103.29
3485.315	92.96
3488.209	96.29
3491.101	88.62
3493.99	88.62
3496.878	83.62
3499.763	87.29
3502.646	83.96
3505.527	81.62
3508.405	79.62
3511.281	78.62
3514.155	65.62
3517.027	65.29
3519.897	63.96
3522.764	57.29
3525.629	52.62
3528.492	52.96
3531.352	50.29
3534.211	49.29
3537.067	41.62
3539.921	44.29
3542.773	39.29
3545.622	35.29
3548.469	35.62
3551.315	35.29
3554.157	37.29
3556.998	31.29
3559.837	32.29
3562.673	29.96
3565.507	27.62
3568.339	27.62
3571.169	23.96
3573.996	20.96
3576.822	17.62
3579.645	13.96
3582.466	12.62
3585.285	15.62
3588.101	12.29
3590.916	9.62
3593.728	7.29
3596.538	7.96
3599.346	4.29
3602.152	6.96
3604.956	2.62
3607.757	3.96
3610.556	5.62
3613.354	2.62
3616.149	1.29
3618.942	-1.04
3621.732	-1.04
3624.521	-2.04
3627.307	1.62
3630.092	-2.71
3632.874	-1.04
3635.654	-3.71
3638.432	-2.71
3641.208	-8.38
3643.982	-6.71
3646.753	-5.71
3649.523	-13.04
3652.29	-10.04
3655.055	-12.38
3657.818	-12.04
3660.579	-14.71
3663.338	-16.04
3666.095	-16.71
3668.849	-17.04
3671.602	-14.71
3674.352	-19.71
3677.101	-16.04
3679.847	-16.04
3682.591	-18.04
3685.333	-17.38
3688.073	-13.71
3690.811	-18.04
3693.547	-20.04
3696.281	-18.38
3699.013	-23.38
3701.742	-19.71
3704.47	-19.71
3707.195	-17.04
3709.919	-21.04
3712.64	-18.04
3715.359	-21.38
3718.076	-22.38
3720.792	-22.71
3723.505	-23.38
3726.216	-23.38
3728.925	-24.04
3731.632	-21.04
3734.336	-26.38
3737.039	-24.38
3739.74	-20.04
3742.439	-22.71
3745.136	-26.04
3747.83	-27.04
3750.523	-25.38
3753.213	-24.04
3755.902	-28.71
3758.589	-27.04
3761.273	-28.38
3763.956	-23.04
3766.636	-25.04
3769.315	-25.04
3771.991	-26.71
3774.665	-23.71
3777.338	-22.38
3780.008	-21.71
3782.677	-25.71
3785.343	-22.71
3788.007	-24.04
3790.67	-24.04
3793.33	-24.38
3795.989	-24.38
3798.645	-26.38
3801.299	-26.38
3803.952	-23.04
3806.602	-28.71
3809.251	-30.71
3811.897	-27.38
3814.542	-26.38
3817.184	-29.71
3819.825	-28.38
3822.463	-28.71
3825.1	-28.38
3827.735	-28.71
3830.367	-27.04
3832.998	-24.71
3835.627	-27.04
3838.253	-25.71
3840.878	-25.71
3843.501	-27.04
3846.122	-26.71
3848.741	-24.38
3851.358	-26.04
3853.973	-23.38
3856.586	-26.71
3859.197	-28.38
3861.806	-24.38
3864.414	-25.71
3867.019	-26.38
3869.622	-28.38
3872.224	-27.38
3874.823	-26.38
3877.421	-26.71
3880.016	-22.71
3882.61	-16.38
3885.202	-13.71
3887.792	-19.38
3890.38	-23.04
3892.966	-26.04
3895.55	-28.38
3898.132	-30.04
3900.713	-31.38
3903.291	-27.71
3905.868	-27.38
3908.442	-26.04
3911.015	-27.38
3913.586	-28.38
3916.155	-29.71
3918.722	-28.38
3921.287	-26.71
3923.85	-29.71
3926.411	-24.71
3928.971	-26.04
3931.528	-29.04
3934.084	-26.38
3936.638	-27.71
3939.19	-28.38
3941.74	-27.38
3944.288	-25.04
3946.834	-27.38
3949.378	-29.38
3951.921	-27.71
3954.462	-27.38
3957	-27.38
3959.537	-27.38
3962.072	-29.38
3964.606	-29.38
3967.137	-27.38
3969.667	-28.04
3972.194	-30.38
3974.72	-29.38
3977.244	-30.71
3979.766	-26.71
3982.286	-31.04
3984.805	-28.38
3987.321	-28.04
3989.836	-26.38
3992.349	-25.38
3994.86	-26.38
3997.369	-27.04
3999.877	-28.04
4002.382	-27.04
4004.886	-25.04
4007.388	-23.71
4009.888	-22.38
4012.386	-26.71
4014.883	-26.71
4017.377	-27.04
4019.87	-27.38
4022.361	-30.38
4024.85	-25.04
4027.338	-28.38
4029.823	-27.71
4032.307	-27.38
4034.789	-26.38
4037.269	-29.38
4039.747	-28.38
4042.224	-30.71
4044.699	-27.71
4047.172	-31.71
4049.643	-28.04
4052.112	-26.38
4054.58	-28.38
4057.046	-27.38
4059.51	-28.04
4061.972	-25.38
4064.432	-24.71
4066.891	-27.04
4069.348	-27.38
4071.803	-25.38
4074.256	-28.71
4076.708	-27.04
4079.158	-26.38
4081.606	-23.71
4084.052	-27.38
4086.497	-31.04
4088.939	-27.04
4091.38	-29.04
4093.819	-26.04
4096.257	-32.04
4098.693	-31.04
4101.127	-31.71
4103.559	-28.04
4105.989	-15.71
4108.418	-10.71
4110.845	-14.71
4113.27	-12.71
4115.694	-11.04
4118.115	-8.38
4120.535	-29.71
4122.954	-27.38
4125.37	-27.38
4127.785	-26.71
4130.198	-29.71
4132.609	-28.38
4135.019	-27.71
4137.427	-31.04
4139.833	-27.38
4142.237	-29.71
