Data from Saline_1 (I=1 T=5x1 V=3ml)_RamanShift_9.txt Node
Date: Mon Jun 05 14:06:37 IDT 2017
User: aro
Spectrometer: QEPB0276
Trigger mode: 0
Integration Time (sec): 5.000000E0
Scans to average: 1
Electric dark correction enabled: true
Nonlinearity correction enabled: false
Boxcar width: 0
XAxis mode: Raman Shifts
Number of Pixels in Spectrum: 1044
>>>>>Begin Spectral Data<<<<<
160.701	-27.38
166.742	5.29
172.777	83.29
178.805	370.62
184.826	1034.96
190.841	2192.96
196.849	3458.29
202.85	4329.29
208.845	4494.62
214.833	4369.62
220.815	4153.29
226.789	4026.29
232.758	3874.62
238.719	3728.96
244.674	3567.96
250.623	3426.62
256.565	3255.96
262.5	3069.62
268.429	2918.29
274.351	2780.29
280.267	2656.29
286.176	2545.96
292.079	2447.96
297.975	2361.29
303.865	2295.96
309.748	2234.62
315.625	2185.29
321.495	2140.29
327.359	2111.62
333.217	2094.29
339.068	2088.62
344.912	2060.96
350.751	2066.29
356.583	2051.29
362.408	2053.29
368.227	2071.62
374.04	2071.29
379.847	2091.96
385.647	2112.96
391.44	2105.29
397.228	2113.62
403.009	2100.29
408.784	2133.29
414.553	2208.29
420.315	2266.96
426.071	2259.29
431.821	2180.96
437.565	2146.29
443.302	2109.29
449.033	2076.62
454.758	2061.96
460.477	2054.29
466.189	2035.62
471.896	2020.62
477.596	1978.29
483.29	1966.96
488.978	1962.29
494.66	1943.29
500.335	1915.29
506.005	1862.96
511.668	1838.96
517.325	1802.62
522.977	1753.29
528.622	1741.96
534.261	1690.29
539.894	1683.62
545.521	1665.62
551.141	1651.62
556.756	1652.62
562.365	1614.29
567.968	1615.29
573.565	1590.62
579.155	1564.96
584.74	1545.29
590.319	1541.29
595.892	1517.96
601.459	1496.96
607.02	1489.29
612.575	1467.29
618.124	1451.29
623.667	1447.62
629.204	1425.62
634.735	1401.29
640.261	1417.96
645.781	1417.29
651.294	1417.62
656.802	1404.62
662.304	1352.62
667.8	1340.62
673.29	1315.96
678.775	1314.62
684.254	1283.62
689.726	1284.62
695.193	1257.96
700.655	1246.96
706.11	1235.29
711.56	1206.96
717.004	1205.29
722.442	1204.29
727.874	1182.96
733.301	1155.62
738.722	1148.29
744.137	1152.62
749.547	1146.96
754.951	1136.96
760.349	1124.29
765.741	1104.29
771.128	1099.29
776.509	1100.96
781.885	1094.96
787.254	1086.29
792.618	1071.62
797.977	1055.29
803.33	1040.96
808.677	1034.96
814.019	1004.29
819.355	988.96
824.686	979.62
830.011	970.62
835.33	950.29
840.644	927.29
845.952	924.29
851.255	918.29
856.552	909.29
861.844	892.29
867.13	874.62
872.41	868.62
877.686	863.29
882.955	837.62
888.219	833.29
893.478	794.62
898.731	758.29
903.979	749.62
909.221	746.96
914.458	730.29
919.69	709.96
924.916	719.29
930.136	699.62
935.351	711.62
940.561	696.96
945.766	690.96
950.965	685.29
956.158	664.96
961.347	657.62
966.529	644.96
971.707	630.29
976.879	613.96
982.046	607.29
987.208	601.96
992.364	594.62
997.515	597.96
1002.66	601.29
1007.801	606.62
1012.936	607.29
1018.066	597.96
1023.19	602.29
1028.309	609.29
1033.423	606.29
1038.532	608.29
1043.636	590.62
1048.734	586.62
1053.827	586.62
1058.915	573.62
1063.998	566.29
1069.075	564.96
1074.147	551.29
1079.214	570.29
1084.276	566.62
1089.333	551.96
1094.385	569.62
1099.431	562.62
1104.472	567.62
1109.509	556.29
1114.54	544.62
1119.565	537.29
1124.586	531.96
1129.602	525.62
1134.613	513.96
1139.618	521.62
1144.619	512.62
1149.614	507.96
1154.604	514.62
1159.589	516.29
1164.57	521.29
1169.545	517.29
1174.515	508.96
1179.48	505.96
1184.44	503.96
1189.395	499.62
1194.345	491.29
1199.29	496.29
1204.23	492.96
1209.165	492.29
1214.095	504.96
1219.021	506.29
1223.941	515.96
1228.856	516.29
1233.766	518.62
1238.672	507.29
1243.572	500.29
1248.467	505.29
1253.358	494.96
1258.244	488.96
1263.124	461.96
1268	470.62
1272.871	461.62
1277.737	453.29
1282.599	448.96
1287.455	437.96
1292.306	448.96
1297.153	448.96
1301.995	447.96
1306.832	445.62
1311.664	450.96
1316.491	450.96
1321.314	445.96
1326.132	433.62
1330.945	437.96
1335.753	409.62
1340.556	413.96
1345.354	390.96
1350.148	382.29
1354.937	383.62
1359.722	385.96
1364.501	381.96
1369.276	392.96
1374.046	382.96
1378.811	379.96
1383.572	381.29
1388.327	389.96
1393.079	375.62
1397.825	380.96
1402.567	369.62
1407.304	352.29
1412.036	363.29
1416.764	352.29
1421.487	357.29
1426.205	356.62
1430.919	348.29
1435.628	369.96
1440.333	374.29
1445.032	366.62
1449.727	378.96
1454.418	373.96
1459.104	376.29
1463.785	364.62
1468.462	355.96
1473.134	357.29
1477.802	343.96
1482.465	351.62
1487.123	344.29
1491.777	353.29
1496.426	357.96
1501.071	367.62
1505.711	374.62
1510.347	380.96
1514.978	382.62
1519.604	395.29
1524.226	406.62
1528.844	402.96
1533.457	403.29
1538.065	408.96
1542.669	401.96
1547.269	411.29
1551.864	409.29
1556.454	418.62
1561.041	426.62
1565.622	440.29
1570.199	457.29
1574.772	455.96
1579.34	478.29
1583.904	498.62
1588.464	511.62
1593.019	537.29
1597.569	551.29
1602.115	576.62
1606.657	593.96
1611.195	619.62
1615.728	632.62
1620.256	650.96
1624.78	675.96
1629.3	694.29
1633.816	719.62
1638.327	708.29
1642.834	734.96
1647.336	736.29
1651.834	741.96
1656.328	719.29
1660.817	721.62
1665.302	702.29
1669.783	667.96
1674.259	625.29
1678.732	605.62
1683.199	571.62
1687.663	530.96
1692.122	490.62
1696.577	456.96
1701.028	430.62
1705.474	402.62
1709.917	375.29
1714.355	361.62
1718.788	345.96
1723.218	323.29
1727.643	291.29
1732.064	271.29
1736.481	253.96
1740.893	238.62
1745.301	211.96
1749.705	199.96
1754.105	185.96
1758.501	172.62
1762.893	163.96
1767.28	153.62
1771.663	143.62
1776.042	140.96
1780.417	143.29
1784.787	139.62
1789.154	126.62
1793.516	127.29
1797.874	130.96
1802.228	125.96
1806.578	120.29
1810.924	113.62
1815.266	102.96
1819.603	101.96
1823.937	102.29
1828.266	92.62
1832.591	100.29
1836.913	92.29
1841.23	84.96
1845.543	90.62
1849.852	87.29
1854.156	84.29
1858.457	89.29
1862.754	87.29
1867.047	89.62
1871.335	84.96
1875.62	86.96
1879.9	87.29
1884.177	82.62
1888.449	85.29
1892.718	89.96
1896.982	83.62
1901.243	83.96
1905.499	81.29
1909.752	81.62
1914	92.62
1918.245	79.29
1922.485	82.29
1926.722	85.96
1930.954	85.62
1935.183	93.96
1939.408	96.96
1943.628	91.96
1947.845	96.62
1952.058	99.62
1956.267	96.29
1960.472	99.29
1964.673	93.62
1968.87	85.62
1973.063	94.96
1977.252	93.29
1981.438	86.29
1985.619	88.62
1989.797	89.62
1993.971	93.29
1998.14	96.29
2002.306	94.29
2006.469	93.96
2010.627	102.96
2014.781	99.29
2018.932	98.96
2023.078	104.62
2027.221	100.96
2031.36	97.96
2035.495	95.96
2039.627	100.62
2043.754	101.62
2047.878	102.62
2051.998	106.96
2056.114	103.29
2060.226	107.62
2064.334	109.62
2068.439	104.96
2072.54	109.62
2076.637	112.96
2080.73	114.29
2084.82	113.96
2088.906	113.62
2092.988	119.96
2097.066	115.96
2101.14	113.62
2105.211	114.96
2109.278	108.96
2113.342	103.62
2117.401	103.29
2121.457	110.62
2125.509	111.29
2129.558	103.96
2133.602	98.96
2137.643	98.62
2141.681	99.29
2145.714	93.62
2149.744	91.29
2153.77	90.96
2157.793	79.62
2161.812	79.96
2165.827	80.96
2169.838	72.62
2173.846	74.96
2177.851	66.96
2181.851	66.62
2185.848	60.96
2189.841	53.62
2193.831	58.96
2197.817	51.96
2201.799	49.62
2205.778	48.62
2209.753	48.62
2213.725	46.96
2217.693	49.29
2221.657	40.62
2225.618	40.62
2229.575	41.29
2233.529	37.96
2237.479	27.96
2241.425	26.96
2245.368	21.29
2249.307	18.62
2253.243	13.96
2257.175	15.29
2261.104	13.96
2265.029	13.62
2268.95	-0.38
2272.868	8.96
2276.783	5.62
2280.694	3.62
2284.601	7.96
2288.505	-0.38
2292.405	-4.71
2296.302	-2.04
2300.195	-8.71
2304.085	-9.38
2307.971	-12.04
2311.854	-15.38
2315.734	-17.04
2319.609	-17.04
2323.482	-28.04
2327.351	-22.38
2331.216	-20.71
2335.078	-21.04
2338.937	-22.71
2342.792	-23.71
2346.643	-27.71
2350.492	-28.38
2354.336	-31.04
2358.178	-31.38
2362.015	-30.04
2365.85	-28.71
2369.681	-33.38
2373.508	-29.38
2377.333	-32.71
2381.153	-31.04
2384.971	-32.04
2388.785	-29.04
2392.595	-32.71
2396.402	-32.71
2400.206	-38.04
2404.007	-39.38
2407.804	-35.71
2411.597	-42.04
2415.388	-42.38
2419.174	-41.71
2422.958	-42.71
2426.738	-39.71
2430.515	-42.04
2434.289	-36.38
2438.059	-45.71
2441.825	-46.04
2445.589	-41.71
2449.349	-45.38
2453.106	-47.04
2456.859	-43.71
2460.61	-46.71
2464.356	-48.71
2468.1	-47.38
2471.84	-48.04
2475.577	-48.04
2479.311	-50.04
2483.041	-50.38
2486.768	-49.38
2490.492	-47.71
2494.213	-49.04
2497.93	-54.04
2501.644	-48.04
2505.355	-51.71
2509.062	-51.04
2512.766	-50.04
2516.467	-54.71
2520.165	-53.38
2523.859	-50.71
2527.551	-52.04
2531.239	-51.38
2534.923	-56.38
2538.605	-51.71
2542.283	-51.38
2545.958	-53.38
2549.63	-54.04
2553.299	-57.38
2556.964	-55.71
2560.626	-55.04
2564.285	-59.71
2567.941	-56.04
2571.594	-56.04
2575.243	-56.04
2578.89	-60.04
2582.533	-56.04
2586.173	-53.38
2589.809	-59.38
2593.443	-61.38
2597.073	-57.71
2600.701	-61.04
2604.325	-58.71
2607.946	-59.38
2611.564	-60.71
2615.178	-60.04
2618.79	-56.04
2622.398	-59.71
2626.004	-59.71
2629.606	-63.38
2633.205	-61.71
2636.801	-63.71
2640.394	-62.04
2643.983	-65.04
2647.57	-64.71
2651.153	-63.04
2654.734	-61.04
2658.311	-58.38
2661.885	-63.71
2665.456	-58.71
2669.025	-60.38
2672.589	-63.04
2676.151	-63.04
2679.71	-58.38
2683.266	-59.71
2686.819	-57.04
2690.368	-55.71
2693.915	-61.38
2697.458	-60.38
2700.999	-62.04
2704.536	-59.71
2708.071	-59.71
2711.602	-59.71
2715.13	-58.38
2718.656	-60.71
2722.178	-57.71
2725.697	-63.38
2729.214	-58.38
2732.727	-60.71
2736.237	-53.38
2739.744	-58.04
2743.249	-57.04
2746.75	-56.38
2750.248	-52.04
2753.743	-48.71
2757.236	-47.04
2760.725	-52.04
2764.211	-44.71
2767.695	-47.71
2771.175	-48.71
2774.652	-45.38
2778.127	-46.38
2781.598	-43.04
2785.067	-47.04
2788.532	-43.71
2791.995	-47.04
2795.455	-41.71
2798.911	-41.71
2802.365	-39.71
2805.816	-42.04
2809.264	-33.38
2812.709	-36.04
2816.151	-29.71
2819.59	-28.71
2823.026	-27.38
2826.46	-25.38
2829.89	-19.71
2833.318	-17.04
2836.742	-18.38
2840.164	-11.04
2843.583	-20.04
2846.999	-13.04
2850.412	-12.04
2853.822	-15.38
2857.229	-7.04
2860.634	-4.04
2864.035	0.29
2867.434	-2.38
2870.83	9.96
2874.223	4.62
2877.613	11.96
2881	17.29
2884.385	20.29
2887.766	24.62
2891.145	21.96
2894.521	21.62
2897.894	21.96
2901.264	21.96
2904.631	34.62
2907.996	37.96
2911.358	38.96
2914.717	44.29
2918.073	44.96
2921.426	47.62
2924.777	50.96
2928.124	58.62
2931.469	58.96
2934.811	66.29
2938.15	77.96
2941.487	71.29
2944.821	81.96
2948.152	81.29
2951.48	88.62
2954.805	96.96
2958.128	98.29
2961.447	107.62
2964.765	111.96
2968.079	119.96
2971.39	116.29
2974.699	137.62
2978.005	136.62
2981.308	148.29
2984.609	160.96
2987.907	164.62
2991.202	166.29
2994.494	182.96
2997.784	186.96
3001.07	207.62
3004.355	210.62
3007.636	223.96
3010.915	225.96
3014.191	234.62
3017.464	245.96
3020.734	254.62
3024.002	257.62
3027.267	265.96
3030.53	273.29
3033.789	282.29
3037.046	299.62
3040.301	295.62
3043.552	314.29
3046.801	327.96
3050.048	330.29
3053.291	349.62
3056.532	367.96
3059.771	382.29
3063.006	396.96
3066.239	420.29
3069.469	441.62
3072.697	441.96
3075.922	457.62
3079.144	473.96
3082.364	495.62
3085.581	520.29
3088.795	526.96
3092.007	538.62
3095.216	551.62
3098.423	569.96
3101.627	588.29
3104.828	612.62
3108.026	638.96
3111.222	644.62
3114.416	667.96
3117.607	686.62
3120.795	700.96
3123.98	731.62
3127.163	754.29
3130.344	780.29
3133.521	793.62
3136.696	810.29
3139.869	831.62
3143.039	851.96
3146.206	855.29
3149.371	874.29
3152.533	900.62
3155.693	893.62
3158.85	905.29
3162.005	908.62
3165.157	915.62
3168.306	923.96
3171.453	921.62
3174.597	937.29
3177.739	938.29
3180.878	938.96
3184.014	937.29
3187.149	953.96
3190.28	973.96
3193.409	961.96
3196.536	978.62
3199.659	986.29
3202.781	986.96
3205.9	989.29
3209.016	985.62
3212.13	987.29
3215.241	977.96
3218.35	988.62
3221.456	980.62
3224.56	969.29
3227.661	956.29
3230.76	958.96
3233.856	944.29
3236.95	940.62
3240.041	931.29
3243.13	924.29
3246.216	932.29
3249.3	929.62
3252.382	919.62
3255.46	927.96
3258.537	929.29
3261.611	913.62
3264.682	928.96
3267.751	917.96
3270.818	914.96
3273.882	911.96
3276.943	894.96
3280.002	896.29
3283.059	891.62
3286.113	871.62
3289.165	854.62
3292.214	855.62
3295.261	843.96
3298.306	821.96
3301.348	806.62
3304.387	797.96
3307.425	790.96
3310.459	781.96
3313.492	779.96
3316.521	769.96
3319.549	765.62
3322.574	750.62
3325.597	760.62
3328.617	747.29
3331.635	737.96
3334.65	734.29
3337.663	728.62
3340.674	730.29
3343.682	716.29
3346.688	725.62
3349.691	732.29
3352.692	727.29
3355.691	714.62
3358.687	704.96
3361.681	706.29
3364.673	699.96
3367.662	689.29
3370.649	673.29
3373.633	679.62
3376.615	656.62
3379.595	653.29
3382.572	650.29
3385.547	640.96
3388.52	634.62
3391.49	633.96
3394.458	615.62
3397.424	616.62
3400.387	598.62
3403.348	597.29
3406.307	602.96
3409.263	597.96
3412.217	583.29
3415.168	572.29
3418.118	574.62
3421.065	561.29
3424.009	557.96
3426.951	548.96
3429.891	545.29
3432.829	536.29
3435.764	520.62
3438.697	518.29
3441.628	507.29
3444.557	492.29
3447.483	483.96
3450.407	462.96
3453.328	454.96
3456.247	430.29
3459.164	423.29
3462.079	411.96
3464.991	399.96
3467.902	383.29
3470.809	374.96
3473.715	373.96
3476.618	353.96
3479.519	350.29
3482.418	327.29
3485.315	321.96
3488.209	320.29
3491.101	307.62
3493.99	302.62
3496.878	289.62
3499.763	285.29
3502.646	271.96
3505.527	261.62
3508.405	251.62
3511.281	247.62
3514.155	232.62
3517.027	222.29
3519.897	212.96
3522.764	198.29
3525.629	192.62
3528.492	176.96
3531.352	165.29
3534.211	156.29
3537.067	138.62
3539.921	139.29
3542.773	126.29
3545.622	120.29
3548.469	113.62
3551.315	108.29
3554.157	99.29
3556.998	95.29
3559.837	89.29
3562.673	87.96
3565.507	76.62
3568.339	65.62
3571.169	73.96
3573.996	57.96
3576.822	55.62
3579.645	46.96
3582.466	41.62
3585.285	36.62
3588.101	25.29
3590.916	21.62
3593.728	19.29
3596.538	14.96
3599.346	11.29
3602.152	5.96
3604.956	2.62
3607.757	0.96
3610.556	-4.38
3613.354	-6.38
3616.149	-6.71
3618.942	-10.04
3621.732	-18.04
3624.521	-16.04
3627.307	-16.38
3630.092	-30.71
3632.874	-30.04
3635.654	-30.71
3638.432	-36.71
3641.208	-37.38
3643.982	-35.71
3646.753	-45.71
3649.523	-44.04
3652.29	-42.04
3655.055	-54.38
3657.818	-54.04
3660.579	-57.71
3663.338	-59.04
3666.095	-57.71
3668.849	-59.04
3671.602	-60.71
3674.352	-58.71
3677.101	-64.04
3679.847	-67.04
3682.591	-68.04
3685.333	-72.38
3688.073	-71.71
3690.811	-73.04
3693.547	-75.04
3696.281	-78.38
3699.013	-82.38
3701.742	-80.71
3704.47	-81.71
3707.195	-84.04
3709.919	-86.04
3712.64	-89.04
3715.359	-89.38
3718.076	-86.38
3720.792	-88.71
3723.505	-90.38
3726.216	-86.38
3728.925	-88.04
3731.632	-87.04
3734.336	-87.38
3737.039	-90.38
3739.74	-90.04
3742.439	-90.71
3745.136	-92.04
3747.83	-95.04
3750.523	-96.38
3753.213	-98.04
3755.902	-97.71
3758.589	-95.04
3761.273	-99.38
3763.956	-100.04
3766.636	-101.04
3769.315	-96.04
3771.991	-99.71
3774.665	-99.71
3777.338	-98.38
3780.008	-98.71
3782.677	-97.71
3785.343	-96.71
3788.007	-98.04
3790.67	-98.04
3793.33	-98.38
3795.989	-99.38
3798.645	-98.38
3801.299	-96.38
3803.952	-102.04
3806.602	-98.71
3809.251	-105.71
3811.897	-104.38
3814.542	-104.38
3817.184	-107.71
3819.825	-104.38
3822.463	-103.71
3825.1	-104.38
3827.735	-105.71
3830.367	-102.04
3832.998	-100.71
3835.627	-104.04
3838.253	-102.71
3840.878	-103.71
3843.501	-102.04
3846.122	-104.71
3848.741	-102.38
3851.358	-102.04
3853.973	-100.38
3856.586	-100.71
3859.197	-102.38
3861.806	-102.38
3864.414	-104.71
3867.019	-100.38
3869.622	-104.38
3872.224	-102.38
3874.823	-102.38
3877.421	-98.71
3880.016	-90.71
3882.61	-86.38
3885.202	-79.71
3887.792	-87.38
3890.38	-92.04
3892.966	-97.04
3895.55	-103.38
3898.132	-106.04
3900.713	-105.38
3903.291	-105.71
3905.868	-103.38
3908.442	-103.04
3911.015	-106.38
3913.586	-103.38
3916.155	-106.71
3918.722	-106.38
3921.287	-104.71
3923.85	-105.71
3926.411	-107.71
3928.971	-107.04
3931.528	-106.04
3934.084	-106.38
3936.638	-109.71
3939.19	-109.38
3941.74	-108.38
3944.288	-108.04
3946.834	-106.38
3949.378	-106.38
3951.921	-104.71
3954.462	-103.38
3957	-102.38
3959.537	-104.38
3962.072	-104.38
3964.606	-103.38
3967.137	-106.38
3969.667	-103.04
3972.194	-106.38
3974.72	-105.38
3977.244	-105.71
3979.766	-104.71
3982.286	-104.04
3984.805	-105.38
3987.321	-103.04
3989.836	-105.38
3992.349	-104.38
3994.86	-106.38
3997.369	-108.04
3999.877	-105.04
4002.382	-103.04
4004.886	-103.04
4007.388	-103.71
4009.888	-101.38
4012.386	-102.71
4014.883	-102.71
4017.377	-105.04
4019.87	-103.38
4022.361	-105.38
4024.85	-104.04
4027.338	-105.38
4029.823	-105.71
4032.307	-105.38
4034.789	-102.38
4037.269	-107.38
4039.747	-105.38
4042.224	-105.71
4044.699	-107.71
4047.172	-100.71
4049.643	-104.04
4052.112	-101.38
4054.58	-107.38
4057.046	-103.38
4059.51	-104.04
4061.972	-103.38
4064.432	-104.71
4066.891	-103.04
4069.348	-106.38
4071.803	-103.38
4074.256	-104.71
4076.708	-108.04
4079.158	-105.38
4081.606	-107.71
4084.052	-105.38
4086.497	-108.04
4088.939	-108.04
4091.38	-106.04
4093.819	-106.04
4096.257	-108.04
4098.693	-110.04
4101.127	-106.71
4103.559	-109.04
4105.989	-68.71
4108.418	-62.71
4110.845	-60.71
4113.27	-57.71
4115.694	-53.04
4118.115	-46.38
4120.535	-107.71
4122.954	-105.38
4125.37	-103.38
4127.785	-105.71
4130.198	-107.71
4132.609	-103.38
4135.019	-106.71
4137.427	-109.04
4139.833	-108.38
4142.237	-107.71
