Data from Saline_log5 (I=1 T=5x1 V=3ml)_RamanShift_5.txt Node
Date: Mon Jun 05 14:20:41 IDT 2017
User: aro
Spectrometer: QEPB0276
Trigger mode: 0
Integration Time (sec): 5.000000E0
Scans to average: 1
Electric dark correction enabled: true
Nonlinearity correction enabled: false
Boxcar width: 0
XAxis mode: Raman Shifts
Number of Pixels in Spectrum: 1044
>>>>>Begin Spectral Data<<<<<
160.701	-30.25
166.742	-2.58
172.777	95.42
178.805	382.75
184.826	1061.08
190.841	2249.08
196.849	3577.42
202.85	4484.42
208.845	4655.75
214.833	4493.75
220.815	4268.42
226.789	4143.42
232.758	3987.75
238.719	3855.08
244.674	3657.08
250.623	3511.75
256.565	3347.08
262.5	3140.75
268.429	2975.42
274.351	2825.42
280.267	2715.42
286.176	2600.08
292.079	2514.08
297.975	2397.42
303.865	2326.08
309.748	2260.75
315.625	2202.42
321.495	2153.42
327.359	2150.75
333.217	2112.42
339.068	2110.75
344.912	2098.08
350.751	2077.42
356.583	2075.42
362.408	2093.42
368.227	2080.75
374.04	2094.42
379.847	2138.08
385.647	2137.08
391.44	2136.42
397.228	2133.75
403.009	2154.42
408.784	2151.42
414.553	2235.42
420.315	2303.08
426.071	2296.42
431.821	2224.08
437.565	2160.42
443.302	2125.42
449.033	2098.75
454.758	2092.08
460.477	2076.42
466.189	2056.75
471.896	2043.75
477.596	2019.42
483.29	2014.08
488.978	1986.42
494.66	1971.42
500.335	1957.42
506.005	1896.08
511.668	1855.08
517.325	1805.75
522.977	1796.42
528.622	1765.08
534.261	1734.42
539.894	1704.75
545.521	1682.75
551.141	1664.75
556.756	1662.75
562.365	1633.42
567.968	1612.42
573.565	1615.75
579.155	1601.08
584.74	1573.42
590.319	1554.42
595.892	1546.08
601.459	1495.08
607.02	1503.42
612.575	1485.42
618.124	1470.42
623.667	1452.75
629.204	1417.75
634.735	1411.42
640.261	1419.08
645.781	1426.42
651.294	1424.75
656.802	1403.75
662.304	1357.75
667.8	1343.75
673.29	1336.08
678.775	1313.75
684.254	1306.75
689.726	1275.75
695.193	1275.08
700.655	1256.08
706.11	1244.42
711.56	1230.08
717.004	1201.42
722.442	1207.42
727.874	1185.08
733.301	1176.75
738.722	1175.42
744.137	1156.75
749.547	1157.08
754.951	1153.08
760.349	1137.42
765.741	1129.42
771.128	1106.42
776.509	1105.08
781.885	1100.08
787.254	1093.42
792.618	1095.75
797.977	1061.42
803.33	1050.08
808.677	1028.08
814.019	1026.42
819.355	991.08
824.686	973.75
830.011	960.75
835.33	958.42
840.644	925.42
845.952	933.42
851.255	915.42
856.552	916.42
861.844	891.42
867.13	887.75
872.41	871.75
877.686	856.42
882.955	860.75
888.219	835.42
893.478	798.75
898.731	783.42
903.979	746.75
909.221	745.08
914.458	720.42
919.69	724.08
924.916	713.42
930.136	717.75
935.351	701.75
940.561	695.08
945.766	684.08
950.965	658.42
956.158	661.08
961.347	640.75
966.529	639.08
971.707	627.42
976.879	607.08
982.046	597.42
987.208	582.08
992.364	583.75
997.515	594.08
1002.66	588.42
1007.801	591.75
1012.936	601.42
1018.066	590.08
1023.19	592.42
1028.309	586.42
1033.423	598.42
1038.532	584.42
1043.636	579.75
1048.734	582.75
1053.827	575.75
1058.915	558.75
1063.998	557.42
1069.075	561.08
1074.147	555.42
1079.214	546.42
1084.276	561.75
1089.333	548.08
1094.385	560.75
1099.431	550.75
1104.472	556.75
1109.509	544.42
1114.54	544.75
1119.565	527.42
1124.586	515.08
1129.602	503.75
1134.613	503.08
1139.618	500.75
1144.619	503.75
1149.614	505.08
1154.604	505.75
1159.589	507.42
1164.57	509.42
1169.545	504.42
1174.515	506.08
1179.48	499.08
1184.44	493.08
1189.395	495.75
1194.345	495.42
1199.29	484.42
1204.23	485.08
1209.165	485.42
1214.095	489.08
1219.021	494.42
1223.941	503.08
1228.856	494.42
1233.766	503.75
1238.672	497.42
1243.572	485.42
1248.467	486.42
1253.358	492.08
1258.244	468.08
1263.124	459.08
1268	457.75
1272.871	439.75
1277.737	437.42
1282.599	440.08
1287.455	446.08
1292.306	447.08
1297.153	433.08
1301.995	441.08
1306.832	442.75
1311.664	444.08
1316.491	435.08
1321.314	436.08
1326.132	431.75
1330.945	419.08
1335.753	406.75
1340.556	397.08
1345.354	383.08
1350.148	386.42
1354.937	382.75
1359.722	375.08
1364.501	381.08
1369.276	373.08
1374.046	381.08
1378.811	381.08
1383.572	377.42
1388.327	378.08
1393.079	369.75
1397.825	367.08
1402.567	357.75
1407.304	362.42
1412.036	350.42
1416.764	352.42
1421.487	352.42
1426.205	339.75
1430.919	339.42
1435.628	346.08
1440.333	357.42
1445.032	354.75
1449.727	368.08
1454.418	366.08
1459.104	360.42
1463.785	355.75
1468.462	353.08
1473.134	348.42
1477.802	344.08
1482.465	354.75
1487.123	341.42
1491.777	346.42
1496.426	356.08
1501.071	363.75
1505.711	369.75
1510.347	388.08
1514.978	386.75
1519.604	389.42
1524.226	401.75
1528.844	403.08
1533.457	395.42
1538.065	405.08
1542.669	401.08
1547.269	406.42
1551.864	415.42
1556.454	433.75
1561.041	427.75
1565.622	441.42
1570.199	449.42
1574.772	475.08
1579.34	485.42
1583.904	501.75
1588.464	524.75
1593.019	548.42
1597.569	567.42
1602.115	584.75
1606.657	604.08
1611.195	632.75
1615.728	645.75
1620.256	659.08
1624.78	677.08
1629.3	704.42
1633.816	731.75
1638.327	736.42
1642.834	751.08
1647.336	748.42
1651.834	753.08
1656.328	747.42
1660.817	740.75
1665.302	723.42
1669.783	691.08
1674.259	665.42
1678.732	610.75
1683.199	582.75
1687.663	546.08
1692.122	509.75
1696.577	470.08
1701.028	446.75
1705.474	418.75
1709.917	392.42
1714.355	362.75
1718.788	343.08
1723.218	319.42
1727.643	299.42
1732.064	268.42
1736.481	252.08
1740.893	228.75
1745.301	215.08
1749.705	196.08
1754.105	191.08
1758.501	173.75
1762.893	160.08
1767.28	159.75
1771.663	143.75
1776.042	145.08
1780.417	135.42
1784.787	129.75
1789.154	133.75
1793.516	132.42
1797.874	122.08
1802.228	123.08
1806.578	118.42
1810.924	109.75
1815.266	107.08
1819.603	101.08
1823.937	91.42
1828.266	82.75
1832.591	92.42
1836.913	83.42
1841.23	75.08
1845.543	83.75
1849.852	82.42
1854.156	80.42
1858.457	80.42
1862.754	83.42
1867.047	82.75
1871.335	84.08
1875.62	86.08
1879.9	82.42
1884.177	80.75
1888.449	82.42
1892.718	83.08
1896.982	78.75
1901.243	82.08
1905.499	83.42
1909.752	80.75
1914	84.75
1918.245	87.42
1922.485	89.42
1926.722	88.08
1930.954	92.75
1935.183	95.08
1939.408	99.08
1943.628	92.08
1947.845	96.75
1952.058	92.75
1956.267	93.42
1960.472	100.42
1964.673	91.75
1968.87	92.75
1973.063	93.08
1977.252	91.42
1981.438	90.42
1985.619	90.75
1989.797	97.75
1993.971	88.42
1998.14	98.42
2002.306	96.42
2006.469	95.08
2010.627	96.08
2014.781	102.42
2018.932	103.08
2023.078	100.75
2027.221	105.08
2031.36	101.08
2035.495	93.08
2039.627	96.75
2043.754	94.75
2047.878	95.75
2051.998	99.08
2056.114	100.42
2060.226	105.75
2064.334	113.75
2068.439	103.08
2072.54	117.75
2076.637	122.08
2080.73	123.42
2084.82	124.08
2088.906	122.75
2092.988	122.08
2097.066	122.08
2101.14	117.75
2105.211	114.08
2109.278	111.08
2113.342	112.75
2117.401	108.42
2121.457	111.75
2125.509	102.42
2129.558	100.08
2133.602	100.08
2137.643	98.75
2141.681	101.42
2145.714	96.75
2149.744	91.42
2153.77	95.08
2157.793	92.75
2161.812	86.08
2165.827	80.08
2169.838	82.75
2173.846	78.08
2177.851	65.08
2181.851	63.75
2185.848	62.08
2189.841	60.75
2193.831	57.08
2197.817	57.08
2201.799	48.75
2205.778	47.75
2209.753	44.75
2213.725	47.08
2217.693	39.42
2221.657	39.75
2225.618	35.75
2229.575	38.42
2233.529	36.08
2237.479	31.08
2241.425	30.08
2245.368	24.42
2249.307	19.75
2253.243	16.08
2257.175	16.42
2261.104	12.08
2265.029	7.75
2268.95	5.75
2272.868	5.08
2276.783	3.75
2280.694	0.75
2284.601	-0.92
2288.505	-0.25
2292.405	-7.58
2296.302	-10.92
2300.195	-6.58
2304.085	-15.25
2307.971	-14.92
2311.854	-13.25
2315.734	-20.92
2319.609	-21.92
2323.482	-25.92
2327.351	-23.25
2331.216	-22.58
2335.078	-19.92
2338.937	-30.58
2342.792	-29.58
2346.643	-26.58
2350.492	-33.25
2354.336	-33.92
2358.178	-35.25
2362.015	-31.92
2365.85	-34.58
2369.681	-33.25
2373.508	-34.25
2377.333	-32.58
2381.153	-32.92
2384.971	-38.92
2388.785	-33.92
2392.595	-33.58
2396.402	-41.58
2400.206	-41.92
2404.007	-39.25
2407.804	-40.58
2411.597	-45.92
2415.388	-46.25
2419.174	-46.58
2422.958	-45.58
2426.738	-42.58
2430.515	-45.92
2434.289	-48.25
2438.059	-48.58
2441.825	-48.92
2445.589	-48.58
2449.349	-47.25
2453.106	-49.92
2456.859	-44.58
2460.61	-53.58
2464.356	-52.58
2468.1	-49.25
2471.84	-51.92
2475.577	-50.92
2479.311	-52.92
2483.041	-54.25
2486.768	-54.25
2490.492	-55.58
2494.213	-51.92
2497.93	-60.92
2501.644	-54.92
2505.355	-57.58
2509.062	-52.92
2512.766	-56.92
2516.467	-57.58
2520.165	-53.25
2523.859	-55.58
2527.551	-58.92
2531.239	-56.25
2534.923	-58.25
2538.605	-56.58
2542.283	-56.25
2545.958	-54.25
2549.63	-53.92
2553.299	-61.25
2556.964	-59.58
2560.626	-56.92
2564.285	-61.58
2567.941	-56.92
2571.594	-57.92
2575.243	-60.92
2578.89	-61.92
2582.533	-57.92
2586.173	-62.25
2589.809	-59.25
2593.443	-66.25
2597.073	-63.58
2600.701	-62.92
2604.325	-60.58
2607.946	-62.25
2611.564	-59.58
2615.178	-59.92
2618.79	-59.92
2622.398	-62.58
2626.004	-64.58
2629.606	-63.25
2633.205	-62.58
2636.801	-63.58
2640.394	-62.92
2643.983	-64.92
2647.57	-67.58
2651.153	-63.92
2654.734	-62.92
2658.311	-63.25
2661.885	-61.58
2665.456	-64.58
2669.025	-68.25
2672.589	-65.92
2676.151	-61.92
2679.71	-65.25
2683.266	-61.58
2686.819	-63.92
2690.368	-63.58
2693.915	-62.25
2697.458	-66.25
2700.999	-63.92
2704.536	-61.58
2708.071	-68.58
2711.602	-68.58
2715.13	-64.25
2718.656	-62.58
2722.178	-61.58
2725.697	-61.25
2729.214	-59.25
2732.727	-56.58
2736.237	-62.25
2739.744	-56.92
2743.249	-55.92
2746.75	-57.25
2750.248	-53.92
2753.743	-55.58
2757.236	-53.92
2760.725	-50.92
2764.211	-49.58
2767.695	-53.58
2771.175	-47.58
2774.652	-48.25
2778.127	-48.25
2781.598	-48.92
2785.067	-47.92
2788.532	-46.58
2791.995	-45.92
2795.455	-45.58
2798.911	-45.58
2802.365	-37.58
2805.816	-35.92
2809.264	-35.25
2812.709	-31.92
2816.151	-34.58
2819.59	-31.58
2823.026	-25.25
2826.46	-17.25
2829.89	-27.58
2833.318	-21.92
2836.742	-22.25
2840.164	-16.92
2843.583	-20.92
2846.999	-13.92
2850.412	-12.92
2853.822	-10.25
2857.229	-5.92
2860.634	-8.92
2864.035	3.42
2867.434	-0.25
2870.83	7.08
2874.223	7.75
2877.613	12.08
2881	17.42
2884.385	21.42
2887.766	24.75
2891.145	23.08
2894.521	29.75
2897.894	33.08
2901.264	30.08
2904.631	32.75
2907.996	39.08
2911.358	47.08
2914.717	55.42
2918.073	47.08
2921.426	50.75
2924.777	58.08
2928.124	63.75
2931.469	64.08
2934.811	78.42
2938.15	83.08
2941.487	86.42
2944.821	90.08
2948.152	92.42
2951.48	99.75
2954.805	103.08
2958.128	105.42
2961.447	109.75
2964.765	117.08
2968.079	128.08
2971.39	134.42
2974.699	141.75
2978.005	150.75
2981.308	161.42
2984.609	172.08
2987.907	175.75
2991.202	183.42
2994.494	196.08
2997.784	199.08
3001.07	209.75
3004.355	225.75
3007.636	233.08
3010.915	238.08
3014.191	248.75
3017.464	262.08
3020.734	269.75
3024.002	271.75
3027.267	284.08
3030.53	287.42
3033.789	298.42
3037.046	311.75
3040.301	327.75
3043.552	330.42
3046.801	341.08
3050.048	355.42
3053.291	373.75
3056.532	393.08
3059.771	410.42
3063.006	420.08
3066.239	440.42
3069.469	454.75
3072.697	476.08
3075.922	489.75
3079.144	501.08
3082.364	520.75
3085.581	541.42
3088.795	560.08
3092.007	583.75
3095.216	615.75
3098.423	622.08
3101.627	646.42
3104.828	657.75
3108.026	669.08
3111.222	693.75
3114.416	712.08
3117.607	742.75
3120.795	742.08
3123.98	777.75
3127.163	788.42
3130.344	813.42
3133.521	833.75
3136.696	860.42
3139.869	881.75
3143.039	903.08
3146.206	917.42
3149.371	914.42
3152.533	942.75
3155.693	943.75
3158.85	958.42
3162.005	970.75
3165.157	974.75
3168.306	986.08
3171.453	992.75
3174.597	988.42
3177.739	982.42
3180.878	1013.08
3184.014	1017.42
3187.149	1025.08
3190.28	1033.08
3193.409	1031.08
3196.536	1027.75
3199.659	1030.42
3202.781	1038.08
3205.9	1044.42
3209.016	1046.75
3212.13	1049.42
3215.241	1044.08
3218.35	1029.75
3221.456	1022.75
3224.56	1019.42
3227.661	1013.42
3230.76	1008.08
3233.856	998.42
3236.95	1005.75
3240.041	997.42
3243.13	992.42
3246.216	979.42
3249.3	983.75
3252.382	990.75
3255.46	977.08
3258.537	973.42
3261.611	973.75
3264.682	968.08
3267.751	962.08
3270.818	971.08
3273.882	958.08
3276.943	954.08
3280.002	949.42
3283.059	937.75
3286.113	926.75
3289.165	899.75
3292.214	907.75
3295.261	871.08
3298.306	876.08
3301.348	844.75
3304.387	854.08
3307.425	850.08
3310.459	805.08
3313.492	803.08
3316.521	810.08
3319.549	807.75
3322.574	797.75
3325.597	781.75
3328.617	787.42
3331.635	780.08
3334.65	771.42
3337.663	763.75
3340.674	786.42
3343.682	757.42
3346.688	748.75
3349.691	747.42
3352.692	763.42
3355.691	767.75
3358.687	756.08
3361.681	738.42
3364.673	729.08
3367.662	730.42
3370.649	724.42
3373.633	716.75
3376.615	702.75
3379.595	693.42
3382.572	677.42
3385.547	676.08
3388.52	659.75
3391.49	668.08
3394.458	655.75
3397.424	648.75
3400.387	635.75
3403.348	628.42
3406.307	626.08
3409.263	621.08
3412.217	615.42
3415.168	606.42
3418.118	610.75
3421.065	594.42
3424.009	596.08
3426.951	581.08
3429.891	577.42
3432.829	567.42
3435.764	559.75
3438.697	538.42
3441.628	521.42
3444.557	529.42
3447.483	503.08
3450.407	498.08
3453.328	491.08
3456.247	459.42
3459.164	450.42
3462.079	430.08
3464.991	433.08
3467.902	410.42
3470.809	401.08
3473.715	394.08
3476.618	378.08
3479.519	371.42
3482.418	351.42
3485.315	345.08
3488.209	341.42
3491.101	334.75
3493.99	312.75
3496.878	309.75
3499.763	301.42
3502.646	291.08
3505.527	278.75
3508.405	273.75
3511.281	265.75
3514.155	254.75
3517.027	243.42
3519.897	228.08
3522.764	215.42
3525.629	213.75
3528.492	194.08
3531.352	177.42
3534.211	169.42
3537.067	156.75
3539.921	149.42
3542.773	139.42
3545.622	125.42
3548.469	122.75
3551.315	112.42
3554.157	112.42
3556.998	98.42
3559.837	89.42
3562.673	87.08
3565.507	84.75
3568.339	80.75
3571.169	72.08
3573.996	64.08
3576.822	59.75
3579.645	58.08
3582.466	50.75
3585.285	36.75
3588.101	38.42
3590.916	38.75
3593.728	26.42
3596.538	20.08
3599.346	20.42
3602.152	11.08
3604.956	4.75
3607.757	7.08
3610.556	1.75
3613.354	-6.25
3616.149	-7.58
3618.942	-8.92
3621.732	-11.92
3624.521	-17.92
3627.307	-22.25
3630.092	-27.58
3632.874	-28.92
3635.654	-29.58
3638.432	-30.58
3641.208	-39.25
3643.982	-37.58
3646.753	-37.58
3649.523	-43.92
3652.29	-42.92
3655.055	-48.25
3657.818	-49.92
3660.579	-55.58
3663.338	-56.92
3666.095	-55.58
3668.849	-60.92
3671.602	-62.58
3674.352	-65.58
3677.101	-66.92
3679.847	-71.92
3682.591	-71.92
3685.333	-73.25
3688.073	-71.58
3690.811	-79.92
3693.547	-78.92
3696.281	-81.25
3699.013	-80.25
3701.742	-82.58
3704.47	-81.58
3707.195	-81.92
3709.919	-82.92
3712.64	-82.92
3715.359	-86.25
3718.076	-88.25
3720.792	-90.58
3723.505	-91.25
3726.216	-91.25
3728.925	-93.92
3731.632	-90.92
3734.336	-93.25
3737.039	-93.25
3739.74	-91.92
3742.439	-95.58
3745.136	-98.92
3747.83	-96.92
3750.523	-95.25
3753.213	-97.92
3755.902	-97.58
3758.589	-95.92
3761.273	-97.25
3763.956	-98.92
3766.636	-97.92
3769.315	-97.92
3771.991	-99.58
3774.665	-100.58
3777.338	-96.25
3780.008	-97.58
3782.677	-98.58
3785.343	-94.58
3788.007	-99.92
3790.67	-101.92
3793.33	-99.25
3795.989	-103.25
3798.645	-102.25
3801.299	-103.25
3803.952	-101.92
3806.602	-102.58
3809.251	-103.58
3811.897	-106.25
3814.542	-103.25
3817.184	-107.58
3819.825	-103.25
3822.463	-103.58
3825.1	-103.25
3827.735	-102.58
3830.367	-101.92
3832.998	-102.58
3835.627	-102.92
3838.253	-102.58
3840.878	-108.58
3843.501	-105.92
3846.122	-107.58
3848.741	-104.25
3851.358	-106.92
3853.973	-106.25
3856.586	-106.58
3859.197	-107.25
3861.806	-106.25
3864.414	-105.58
3867.019	-106.25
3869.622	-103.25
3872.224	-107.25
3874.823	-101.25
3877.421	-97.58
3880.016	-89.58
3882.61	-82.25
3885.202	-84.58
3887.792	-88.25
3890.38	-97.92
3892.966	-99.92
3895.55	-106.25
3898.132	-105.92
3900.713	-109.25
3903.291	-104.58
3905.868	-109.25
3908.442	-106.92
3911.015	-112.25
3913.586	-112.25
3916.155	-111.58
3918.722	-111.25
3921.287	-108.58
3923.85	-109.58
3926.411	-105.58
3928.971	-107.92
3931.528	-108.92
3934.084	-106.25
3936.638	-106.58
3939.19	-107.25
3941.74	-105.25
3944.288	-104.92
3946.834	-109.25
3949.378	-108.25
3951.921	-105.58
3954.462	-107.25
3957	-109.25
3959.537	-109.25
3962.072	-109.25
3964.606	-108.25
3967.137	-108.25
3969.667	-108.92
3972.194	-108.25
3974.72	-105.25
3977.244	-102.58
3979.766	-107.58
3982.286	-104.92
3984.805	-105.25
3987.321	-103.92
3989.836	-102.25
3992.349	-102.25
3994.86	-108.25
3997.369	-104.92
3999.877	-103.92
4002.382	-102.92
4004.886	-104.92
4007.388	-102.58
4009.888	-105.25
4012.386	-106.58
4014.883	-106.58
4017.377	-105.92
4019.87	-109.25
4022.361	-107.25
4024.85	-109.92
4027.338	-108.25
4029.823	-108.58
4032.307	-108.25
4034.789	-103.25
4037.269	-104.25
4039.747	-103.25
4042.224	-106.58
4044.699	-106.58
4047.172	-108.58
4049.643	-104.92
4052.112	-106.25
4054.58	-104.25
4057.046	-107.25
4059.51	-106.92
4061.972	-107.25
4064.432	-105.58
4066.891	-108.92
4069.348	-109.25
4071.803	-106.25
4074.256	-108.58
4076.708	-110.92
4079.158	-108.25
4081.606	-104.58
4084.052	-106.25
4086.497	-108.92
4088.939	-103.92
4091.38	-106.92
4093.819	-107.92
4096.257	-111.92
4098.693	-111.92
4101.127	-111.58
4103.559	-111.92
4105.989	-70.58
4108.418	-65.58
4110.845	-66.58
4113.27	-59.58
4115.694	-52.92
4118.115	-44.25
4120.535	-107.58
4122.954	-107.25
4125.37	-101.25
4127.785	-105.58
4130.198	-109.58
4132.609	-106.25
4135.019	-110.58
4137.427	-111.92
4139.833	-111.25
4142.237	-111.58
