Data from Saline_1 (I=1 T=5x1 V=3ml)_RamanShift_7.txt Node
Date: Mon Jun 05 14:04:02 IDT 2017
User: aro
Spectrometer: QEPB0276
Trigger mode: 0
Integration Time (sec): 5.000000E0
Scans to average: 1
Electric dark correction enabled: true
Nonlinearity correction enabled: false
Boxcar width: 0
XAxis mode: Raman Shifts
Number of Pixels in Spectrum: 1044
>>>>>Begin Spectral Data<<<<<
160.701	-28.75
166.742	-3.08
172.777	88.92
178.805	377.25
184.826	1048.58
190.841	2186.58
196.849	3528.92
202.85	4363.92
208.845	4559.25
214.833	4390.25
220.815	4201.92
226.789	4025.92
232.758	3904.25
238.719	3763.58
244.674	3580.58
250.623	3433.25
256.565	3244.58
262.5	3080.25
268.429	2919.92
274.351	2790.92
280.267	2641.92
286.176	2539.58
292.079	2460.58
297.975	2383.92
303.865	2287.58
309.748	2218.25
315.625	2179.92
321.495	2132.92
327.359	2118.25
333.217	2094.92
339.068	2072.25
344.912	2070.58
350.751	2071.92
356.583	2056.92
362.408	2046.92
368.227	2048.25
374.04	2042.92
379.847	2066.58
385.647	2097.58
391.44	2086.92
397.228	2096.25
403.009	2105.92
408.784	2121.92
414.553	2177.92
420.315	2281.58
426.071	2257.92
431.821	2212.58
437.565	2134.92
443.302	2094.92
449.033	2087.25
454.758	2069.58
460.477	2049.92
466.189	2023.25
471.896	2004.25
477.596	1983.92
483.29	1987.58
488.978	1960.92
494.66	1928.92
500.335	1912.92
506.005	1870.58
511.668	1827.58
517.325	1792.25
522.977	1751.92
528.622	1730.58
534.261	1691.92
539.894	1659.25
545.521	1645.25
551.141	1633.25
556.756	1628.25
562.365	1607.92
567.968	1593.92
573.565	1581.25
579.155	1568.58
584.74	1540.92
590.319	1523.92
595.892	1504.58
601.459	1491.58
607.02	1480.92
612.575	1464.92
618.124	1449.92
623.667	1416.25
629.204	1400.25
634.735	1384.92
640.261	1400.58
645.781	1407.92
651.294	1396.25
656.802	1376.25
662.304	1336.25
667.8	1313.25
673.29	1298.58
678.775	1287.25
684.254	1265.25
689.726	1259.25
695.193	1246.58
700.655	1231.58
706.11	1227.92
711.56	1204.58
717.004	1182.92
722.442	1160.92
727.874	1161.58
733.301	1148.25
738.722	1134.92
744.137	1133.25
749.547	1130.58
754.951	1132.58
760.349	1114.92
765.741	1091.92
771.128	1092.92
776.509	1075.58
781.885	1073.58
787.254	1066.92
792.618	1047.25
797.977	1041.92
803.33	1028.58
808.677	1007.58
814.019	991.92
819.355	972.58
824.686	955.25
830.011	949.25
835.33	930.92
840.644	918.92
845.952	900.92
851.255	894.92
856.552	878.92
861.844	876.92
867.13	853.25
872.41	860.25
877.686	873.92
882.955	861.25
888.219	841.92
893.478	800.25
898.731	772.92
903.979	738.25
909.221	731.58
914.458	729.92
919.69	699.58
924.916	698.92
930.136	684.25
935.351	689.25
940.561	672.58
945.766	663.58
950.965	652.92
956.158	639.58
961.347	639.25
966.529	616.58
971.707	603.92
976.879	595.58
982.046	593.92
987.208	591.58
992.364	583.25
997.515	584.58
1002.66	586.92
1007.801	580.25
1012.936	581.92
1018.066	583.58
1023.19	602.92
1028.309	587.92
1033.423	580.92
1038.532	577.92
1043.636	577.25
1048.734	573.25
1053.827	564.25
1058.915	559.25
1063.998	550.92
1069.075	544.58
1074.147	544.92
1079.214	555.92
1084.276	553.25
1089.333	553.58
1094.385	562.25
1099.431	564.25
1104.472	553.25
1109.509	538.92
1114.54	525.25
1119.565	527.92
1124.586	509.58
1129.602	500.25
1134.613	505.58
1139.618	496.25
1144.619	496.25
1149.614	492.58
1154.604	498.25
1159.589	492.92
1164.57	492.92
1169.545	490.92
1174.515	502.58
1179.48	501.58
1184.44	488.58
1189.395	482.25
1194.345	479.92
1199.29	482.92
1204.23	478.58
1209.165	484.92
1214.095	487.58
1219.021	487.92
1223.941	482.58
1228.856	496.92
1233.766	495.25
1238.672	484.92
1243.572	485.92
1248.467	487.92
1253.358	472.58
1258.244	459.58
1263.124	451.58
1268	441.25
1272.871	447.25
1277.737	437.92
1282.599	431.58
1287.455	441.58
1292.306	432.58
1297.153	424.58
1301.995	437.58
1306.832	434.25
1311.664	430.58
1316.491	434.58
1321.314	426.58
1326.132	406.25
1330.945	401.58
1335.753	402.25
1340.556	380.58
1345.354	387.58
1350.148	370.92
1354.937	380.25
1359.722	374.58
1364.501	365.58
1369.276	369.58
1374.046	369.58
1378.811	368.58
1383.572	376.92
1388.327	375.58
1393.079	364.25
1397.825	360.58
1402.567	350.25
1407.304	346.92
1412.036	340.92
1416.764	339.92
1421.487	344.92
1426.205	343.25
1430.919	344.92
1435.628	344.58
1440.333	353.92
1445.032	354.25
1449.727	356.58
1454.418	366.58
1459.104	368.92
1463.785	359.25
1468.462	354.58
1473.134	348.92
1477.802	345.58
1482.465	343.25
1487.123	344.92
1491.777	334.92
1496.426	357.58
1501.071	350.25
1505.711	365.25
1510.347	374.58
1514.978	382.25
1519.604	377.92
1524.226	389.25
1528.844	376.58
1533.457	387.92
1538.065	395.58
1542.669	381.58
1547.269	392.92
1551.864	397.92
1556.454	405.25
1561.041	427.25
1565.622	436.92
1570.199	436.92
1574.772	464.58
1579.34	474.92
1583.904	507.25
1588.464	507.25
1593.019	535.92
1597.569	552.92
1602.115	569.25
1606.657	589.58
1611.195	612.25
1615.728	627.25
1620.256	645.58
1624.78	660.58
1629.3	679.92
1633.816	708.25
1638.327	712.92
1642.834	733.58
1647.336	737.92
1651.834	728.58
1656.328	730.92
1660.817	714.25
1665.302	703.92
1669.783	667.58
1674.259	637.92
1678.732	599.25
1683.199	562.25
1687.663	519.58
1692.122	492.25
1696.577	452.58
1701.028	417.25
1705.474	399.25
1709.917	379.92
1714.355	353.25
1718.788	329.58
1723.218	301.92
1727.643	283.92
1732.064	252.92
1736.481	245.58
1740.893	230.25
1745.301	205.58
1749.705	198.58
1754.105	179.58
1758.501	166.25
1762.893	155.58
1767.28	144.25
1771.663	143.25
1776.042	130.58
1780.417	127.92
1784.787	125.25
1789.154	120.25
1793.516	115.92
1797.874	114.58
1802.228	115.58
1806.578	106.92
1810.924	108.25
1815.266	101.58
1819.603	101.58
1823.937	91.92
1828.266	86.25
1832.591	84.92
1836.913	79.92
1841.23	74.58
1845.543	79.25
1849.852	75.92
1854.156	73.92
1858.457	80.92
1862.754	82.92
1867.047	78.25
1871.335	76.58
1875.62	82.58
1879.9	81.92
1884.177	79.25
1888.449	84.92
1892.718	75.58
1896.982	77.25
1901.243	74.58
1905.499	76.92
1909.752	77.25
1914	77.25
1918.245	80.92
1922.485	83.92
1926.722	84.58
1930.954	83.25
1935.183	91.58
1939.408	88.58
1943.628	90.58
1947.845	91.25
1952.058	90.25
1956.267	87.92
1960.472	91.92
1964.673	90.25
1968.87	84.25
1973.063	91.58
1977.252	88.92
1981.438	80.92
1985.619	86.25
1989.797	85.25
1993.971	82.92
1998.14	84.92
2002.306	87.92
2006.469	86.58
2010.627	92.58
2014.781	90.92
2018.932	97.58
2023.078	98.25
2027.221	93.58
2031.36	95.58
2035.495	95.58
2039.627	89.25
2043.754	99.25
2047.878	97.25
2051.998	105.58
2056.114	104.92
2060.226	102.25
2064.334	103.25
2068.439	106.58
2072.54	113.25
2076.637	108.58
2080.73	117.92
2084.82	116.58
2088.906	107.25
2092.988	106.58
2097.066	113.58
2101.14	115.25
2105.211	113.58
2109.278	110.58
2113.342	99.25
2117.401	99.92
2121.457	112.25
2125.509	99.92
2129.558	103.58
2133.602	97.58
2137.643	98.25
2141.681	98.92
2145.714	92.25
2149.744	85.92
2153.77	84.58
2157.793	88.25
2161.812	81.58
2165.827	73.58
2169.838	66.25
2173.846	63.58
2177.851	57.58
2181.851	61.25
2185.848	59.58
2189.841	49.25
2193.831	46.58
2197.817	50.58
2201.799	45.25
2205.778	47.25
2209.753	42.25
2213.725	46.58
2217.693	41.92
2221.657	39.25
2225.618	37.25
2229.575	39.92
2233.529	33.58
2237.479	31.58
2241.425	31.58
2245.368	22.92
2249.307	18.25
2253.243	14.58
2257.175	13.92
2261.104	4.58
2265.029	3.25
2268.95	1.25
2272.868	-1.42
2276.783	-0.75
2280.694	-0.75
2284.601	-9.42
2288.505	-7.75
2292.405	-10.08
2296.302	-11.42
2300.195	-9.08
2304.085	-16.75
2307.971	-11.42
2311.854	-15.75
2315.734	-16.42
2319.609	-20.42
2323.482	-24.42
2327.351	-24.75
2331.216	-21.08
2335.078	-29.42
2338.937	-31.08
2342.792	-34.08
2346.643	-30.08
2350.492	-38.75
2354.336	-35.42
2358.178	-31.75
2362.015	-30.42
2365.85	-37.08
2369.681	-33.75
2373.508	-34.75
2377.333	-31.08
2381.153	-35.42
2384.971	-37.42
2388.785	-35.42
2392.595	-33.08
2396.402	-34.08
2400.206	-45.42
2404.007	-41.75
2407.804	-41.08
2411.597	-46.42
2415.388	-45.75
2419.174	-52.08
2422.958	-45.08
2426.738	-46.08
2430.515	-46.42
2434.289	-42.75
2438.059	-51.08
2441.825	-44.42
2445.589	-48.08
2449.349	-51.75
2453.106	-48.42
2456.859	-51.08
2460.61	-52.08
2464.356	-53.08
2468.1	-52.75
2471.84	-49.42
2475.577	-55.42
2479.311	-57.42
2483.041	-53.75
2486.768	-55.75
2490.492	-53.08
2494.213	-54.42
2497.93	-62.42
2501.644	-53.42
2505.355	-57.08
2509.062	-55.42
2512.766	-55.42
2516.467	-56.08
2520.165	-53.75
2523.859	-55.08
2527.551	-56.42
2531.239	-56.75
2534.923	-58.75
2538.605	-58.08
2542.283	-57.75
2545.958	-57.75
2549.63	-58.42
2553.299	-60.75
2556.964	-58.08
2560.626	-57.42
2564.285	-58.08
2567.941	-59.42
2571.594	-56.42
2575.243	-58.42
2578.89	-58.42
2582.533	-58.42
2586.173	-61.75
2589.809	-62.75
2593.443	-63.75
2597.073	-63.08
2600.701	-60.42
2604.325	-61.08
2607.946	-64.75
2611.564	-63.08
2615.178	-63.42
2618.79	-62.42
2622.398	-65.08
2626.004	-68.08
2629.606	-62.75
2633.205	-62.08
2636.801	-66.08
2640.394	-67.42
2643.983	-64.42
2647.57	-67.08
2651.153	-65.42
2654.734	-67.42
2658.311	-64.75
2661.885	-64.08
2665.456	-65.08
2669.025	-66.75
2672.589	-67.42
2676.151	-61.42
2679.71	-62.75
2683.266	-62.08
2686.819	-65.42
2690.368	-61.08
2693.915	-63.75
2697.458	-61.75
2700.999	-65.42
2704.536	-66.08
2708.071	-64.08
2711.602	-63.08
2715.13	-62.75
2718.656	-59.08
2722.178	-61.08
2725.697	-63.75
2729.214	-55.75
2732.727	-59.08
2736.237	-57.75
2739.744	-58.42
2743.249	-53.42
2746.75	-55.75
2750.248	-54.42
2753.743	-55.08
2757.236	-54.42
2760.725	-53.42
2764.211	-53.08
2767.695	-51.08
2771.175	-48.08
2774.652	-51.75
2778.127	-46.75
2781.598	-46.42
2785.067	-44.42
2788.532	-47.08
2791.995	-44.42
2795.455	-40.08
2798.911	-39.08
2802.365	-41.08
2805.816	-35.42
2809.264	-35.75
2812.709	-34.42
2816.151	-33.08
2819.59	-32.08
2823.026	-30.75
2826.46	-26.75
2829.89	-26.08
2833.318	-22.42
2836.742	-23.75
2840.164	-18.42
2843.583	-19.42
2846.999	-16.42
2850.412	-11.42
2853.822	-9.75
2857.229	-4.42
2860.634	-2.42
2864.035	-0.08
2867.434	8.25
2870.83	10.58
2874.223	13.25
2877.613	12.58
2881	16.92
2884.385	18.92
2887.766	24.25
2891.145	25.58
2894.521	29.25
2897.894	28.58
2901.264	33.58
2904.631	37.25
2907.996	36.58
2911.358	37.58
2914.717	48.92
2918.073	51.58
2921.426	53.25
2924.777	64.58
2928.124	62.25
2931.469	66.58
2934.811	79.92
2938.15	82.58
2941.487	91.92
2944.821	96.58
2948.152	94.92
2951.48	103.25
2954.805	104.58
2958.128	108.92
2961.447	102.25
2964.765	121.58
2968.079	122.58
2971.39	127.92
2974.699	133.25
2978.005	142.25
2981.308	154.92
2984.609	162.58
2987.907	165.25
2991.202	178.92
2994.494	191.58
2997.784	194.58
3001.07	212.25
3004.355	214.25
3007.636	231.58
3010.915	235.58
3014.191	238.25
3017.464	246.58
3020.734	250.25
3024.002	263.25
3027.267	280.58
3030.53	278.92
3033.789	290.92
3037.046	297.25
3040.301	305.25
3043.552	312.92
3046.801	333.58
3050.048	347.92
3053.291	355.25
3056.532	377.58
3059.771	385.92
3063.006	406.58
3066.239	435.92
3069.469	438.25
3072.697	451.58
3075.922	477.25
3079.144	488.58
3082.364	507.25
3085.581	532.92
3088.795	542.58
3092.007	555.25
3095.216	577.25
3098.423	599.58
3101.627	614.92
3104.828	616.25
3108.026	652.58
3111.222	650.25
3114.416	689.58
3117.607	704.25
3120.795	723.58
3123.98	742.25
3127.163	760.92
3130.344	787.92
3133.521	811.25
3136.696	825.92
3139.869	860.25
3143.039	878.58
3146.206	879.92
3149.371	891.92
3152.533	912.25
3155.693	915.25
3158.85	926.92
3162.005	945.25
3165.157	920.25
3168.306	945.58
3171.453	936.25
3174.597	946.92
3177.739	957.92
3180.878	965.58
3184.014	973.92
3187.149	967.58
3190.28	974.58
3193.409	997.58
3196.536	988.25
3199.659	1002.92
3202.781	1008.58
3205.9	999.92
3209.016	1010.25
3212.13	995.92
3215.241	992.58
3218.35	1007.25
3221.456	993.25
3224.56	983.92
3227.661	977.92
3230.76	953.58
3233.856	957.92
3236.95	958.25
3240.041	945.92
3243.13	941.92
3246.216	939.92
3249.3	944.25
3252.382	936.25
3255.46	937.58
3258.537	931.92
3261.611	939.25
3264.682	937.58
3267.751	930.58
3270.818	925.58
3273.882	922.58
3276.943	910.58
3280.002	911.92
3283.059	895.25
3286.113	887.25
3289.165	872.25
3292.214	869.25
3295.261	843.58
3298.306	837.58
3301.348	812.25
3304.387	808.58
3307.425	803.58
3310.459	799.58
3313.492	780.58
3316.521	783.58
3319.549	767.25
3322.574	756.25
3325.597	747.25
3328.617	750.92
3331.635	747.58
3334.65	747.92
3337.663	727.25
3340.674	741.92
3343.682	741.92
3346.688	736.25
3349.691	735.92
3352.692	729.92
3355.691	741.25
3358.687	722.58
3361.681	712.92
3364.673	712.58
3367.662	688.92
3370.649	686.92
3373.633	686.25
3376.615	678.25
3379.595	672.92
3382.572	665.92
3385.547	649.58
3388.52	647.25
3391.49	639.58
3394.458	624.25
3397.424	624.25
3400.387	625.25
3403.348	605.92
3406.307	599.58
3409.263	593.58
3412.217	587.92
3415.168	590.92
3418.118	590.25
3421.065	588.92
3424.009	564.58
3426.951	561.58
3429.891	557.92
3432.829	549.92
3435.764	538.25
3438.697	523.92
3441.628	504.92
3444.557	493.92
3447.483	486.58
3450.407	470.58
3453.328	465.58
3456.247	449.92
3459.164	431.92
3462.079	428.58
3464.991	419.58
3467.902	400.92
3470.809	391.58
3473.715	369.58
3476.618	362.58
3479.519	355.92
3482.418	344.92
3485.315	335.58
3488.209	317.92
3491.101	315.25
3493.99	305.25
3496.878	300.25
3499.763	282.92
3502.646	278.58
3505.527	265.25
3508.405	259.25
3511.281	250.25
3514.155	236.25
3517.027	232.92
3519.897	218.58
3522.764	213.92
3525.629	197.25
3528.492	184.58
3531.352	163.92
3534.211	168.92
3537.067	150.25
3539.921	151.92
3542.773	136.92
3545.622	123.92
3548.469	121.25
3551.315	112.92
3554.157	97.92
3556.998	97.92
3559.837	90.92
3562.673	83.58
3565.507	76.25
3568.339	70.25
3571.169	71.58
3573.996	55.58
3576.822	60.25
3579.645	48.58
3582.466	45.25
3585.285	42.25
3588.101	38.92
3590.916	32.25
3593.728	27.92
3596.538	19.58
3599.346	16.92
3602.152	12.58
3604.956	0.25
3607.757	-2.42
3610.556	-0.75
3613.354	-12.75
3616.149	-9.08
3618.942	-15.42
3621.732	-19.42
3624.521	-21.42
3627.307	-24.75
3630.092	-27.08
3632.874	-27.42
3635.654	-33.08
3638.432	-33.08
3641.208	-32.75
3643.982	-38.08
3646.753	-45.08
3649.523	-44.42
3652.29	-46.42
3655.055	-51.75
3657.818	-47.42
3660.579	-53.08
3663.338	-57.42
3666.095	-59.08
3668.849	-62.42
3671.602	-63.08
3674.352	-65.08
3677.101	-69.42
3679.847	-67.42
3682.591	-71.42
3685.333	-72.75
3688.073	-76.08
3690.811	-74.42
3693.547	-76.42
3696.281	-78.75
3699.013	-80.75
3701.742	-80.08
3704.47	-81.08
3707.195	-81.42
3709.919	-83.42
3712.64	-85.42
3715.359	-84.75
3718.076	-88.75
3720.792	-87.08
3723.505	-89.75
3726.216	-92.75
3728.925	-90.42
3731.632	-95.42
3734.336	-94.75
3737.039	-93.75
3739.74	-92.42
3742.439	-95.08
3745.136	-96.42
3747.83	-94.42
3750.523	-92.75
3753.213	-95.42
3755.902	-96.08
3758.589	-96.42
3761.273	-96.75
3763.956	-97.42
3766.636	-97.42
3769.315	-97.42
3771.991	-97.08
3774.665	-100.08
3777.338	-101.75
3780.008	-101.08
3782.677	-102.08
3785.343	-98.08
3788.007	-101.42
3790.67	-102.42
3793.33	-101.75
3795.989	-100.75
3798.645	-100.75
3801.299	-100.75
3803.952	-97.42
3806.602	-100.08
3809.251	-100.08
3811.897	-101.75
3814.542	-103.75
3817.184	-101.08
3819.825	-102.75
3822.463	-105.08
3825.1	-106.75
3827.735	-104.08
3830.367	-107.42
3832.998	-104.08
3835.627	-105.42
3838.253	-109.08
3840.878	-104.08
3843.501	-104.42
3846.122	-105.08
3848.741	-102.75
3851.358	-100.42
3853.973	-106.75
3856.586	-105.08
3859.197	-101.75
3861.806	-103.75
3864.414	-102.08
3867.019	-106.75
3869.622	-107.75
3872.224	-105.75
3874.823	-99.75
3877.421	-99.08
3880.016	-94.08
3882.61	-88.75
3885.202	-85.08
3887.792	-86.75
3890.38	-95.42
3892.966	-102.42
3895.55	-105.75
3898.132	-104.42
3900.713	-108.75
3903.291	-104.08
3905.868	-107.75
3908.442	-104.42
3911.015	-105.75
3913.586	-102.75
3916.155	-106.08
3918.722	-107.75
3921.287	-105.08
3923.85	-107.08
3926.411	-106.08
3928.971	-107.42
3931.528	-105.42
3934.084	-105.75
3936.638	-111.08
3939.19	-109.75
3941.74	-108.75
3944.288	-110.42
3946.834	-111.75
3949.378	-107.75
3951.921	-106.08
3954.462	-104.75
3957	-105.75
3959.537	-107.75
3962.072	-105.75
3964.606	-104.75
3967.137	-105.75
3969.667	-105.42
3972.194	-106.75
3974.72	-103.75
3977.244	-106.08
3979.766	-106.08
3982.286	-105.42
3984.805	-106.75
3987.321	-108.42
3989.836	-105.75
3992.349	-103.75
3994.86	-106.75
3997.369	-107.42
3999.877	-106.42
4002.382	-104.42
4004.886	-103.42
4007.388	-101.08
4009.888	-102.75
4012.386	-104.08
4014.883	-105.08
4017.377	-102.42
4019.87	-103.75
4022.361	-104.75
4024.85	-102.42
4027.338	-104.75
4029.823	-108.08
4032.307	-108.75
4034.789	-105.75
4037.269	-107.75
4039.747	-105.75
4042.224	-110.08
4044.699	-109.08
4047.172	-108.08
4049.643	-104.42
4052.112	-106.75
4054.58	-107.75
4057.046	-105.75
4059.51	-106.42
4061.972	-105.75
4064.432	-103.08
4066.891	-103.42
4069.348	-102.75
4071.803	-103.75
4074.256	-105.08
4076.708	-107.42
4079.158	-107.75
4081.606	-109.08
4084.052	-107.75
4086.497	-108.42
4088.939	-107.42
4091.38	-109.42
4093.819	-107.42
4096.257	-111.42
4098.693	-112.42
4101.127	-110.08
4103.559	-111.42
4105.989	-70.08
4108.418	-66.08
4110.845	-62.08
4113.27	-62.08
4115.694	-49.42
4118.115	-43.75
4120.535	-105.08
4122.954	-108.75
4125.37	-102.75
4127.785	-106.08
4130.198	-106.08
4132.609	-103.75
4135.019	-109.08
4137.427	-108.42
4139.833	-108.75
4142.237	-108.08
