Data from 10mM_RamanShift_1.txt Node
Date: Mon Jul 31 11:36:51 IDT 2017
User: aro
Spectrometer: QEPB0276
Trigger mode: 0
Integration Time (sec): 5.000000E0
Scans to average: 3
Electric dark correction enabled: true
Nonlinearity correction enabled: false
Boxcar width: 10
XAxis mode: Raman Shifts
Number of Pixels in Spectrum: 1044
>>>>>Begin Spectral Data<<<<<
160.701	574.15
166.742	634.5
172.777	688.46
178.805	739.14
184.826	785.09
190.841	827.56
196.849	866.78
202.85	902.04
208.845	935.56
214.833	966.2
220.815	995.44
226.789	1072.52
232.758	1150.57
238.719	1229.29
244.674	1306.38
250.623	1377.43
256.565	1437.05
262.5	1482.37
268.429	1516.22
274.351	1545.06
280.267	1572.59
286.176	1599.56
292.079	1625.21
297.975	1649.14
303.865	1670.56
309.748	1690.43
315.625	1709.65
321.495	1729.03
327.359	1748.4
333.217	1766.35
339.068	1784.67
344.912	1801.56
350.751	1818.46
356.583	1834.89
362.408	1851.71
368.227	1867.62
374.04	1882.29
379.847	1896.22
385.647	1909.22
391.44	1921.56
397.228	1933.54
403.009	1945.05
408.784	1955.81
414.553	1965.63
420.315	1975.98
426.071	1986.08
431.821	1996.68
437.565	2006.17
443.302	2014.21
449.033	2021.73
454.758	2029.24
460.477	2037.48
466.189	2046.32
471.896	2054.95
477.596	2062.57
483.29	2068.25
488.978	2073.22
494.66	2079.33
500.335	2085.52
506.005	2091.19
511.668	2098.08
517.325	2104.29
522.977	2110.29
528.622	2116.37
534.261	2122.65
539.894	2128.17
545.521	2134.14
551.141	2139.37
556.756	2144.27
562.365	2148.98
567.968	2155.02
573.565	2160.11
579.155	2163.67
584.74	2166.78
590.319	2169.63
595.892	2173.27
601.459	2177.05
607.02	2180.95
612.575	2184.6
618.124	2189
623.667	2193.59
629.204	2197.63
634.735	2202.33
640.261	2207.6
645.781	2212.03
651.294	2216.73
656.802	2221.52
662.304	2225.68
667.8	2230.08
673.29	2235.08
678.775	2240.56
684.254	2245.83
689.726	2251.98
695.193	2258.92
700.655	2266.73
706.11	2273.49
711.56	2279.89
717.004	2286.86
722.442	2295.29
727.874	2304.1
733.301	2312.51
738.722	2320.49
744.137	2329.03
749.547	2336.48
754.951	2344.06
760.349	2352.89
765.741	2361.4
771.128	2369.89
776.509	2379
781.885	2388.9
787.254	2400.03
792.618	2411.68
797.977	2424.19
803.33	2437.35
808.677	2450.63
814.019	2464.68
819.355	2478.79
824.686	2493.08
830.011	2506.6
835.33	2518.86
840.644	2530.86
845.952	2542.13
851.255	2554.13
856.552	2565.63
861.844	2579.43
867.13	2593.59
872.41	2608.27
877.686	2624.25
882.955	2642.33
888.219	2661
893.478	2680.27
898.731	2699.06
903.979	2716.68
909.221	2732.37
914.458	2745.81
919.69	2758.21
924.916	2768.43
930.136	2778.13
935.351	2788.17
940.561	2798.83
945.766	2811.48
950.965	2825.89
956.158	2842.73
961.347	2861.87
966.529	2882.4
971.707	2903.06
976.879	2923.3
982.046	2943
987.208	2961.16
992.364	2975.81
997.515	2989.3
1002.66	3000.71
1007.801	3010.29
1012.936	3020.02
1018.066	3030.22
1023.19	3043.1
1028.309	3057
1033.423	3073.08
1038.532	3091.13
1043.636	3109.76
1048.734	3128.81
1053.827	3147.29
1058.915	3162.67
1063.998	3175.11
1069.075	3184.14
1074.147	3190.32
1079.214	3192.75
1084.276	3194.43
1089.333	3195.41
1094.385	3196.17
1099.431	3199.46
1104.472	3203.33
1109.509	3208.7
1114.54	3215.6
1119.565	3223.22
1124.586	3230.59
1129.602	3235.98
1134.613	3239.13
1139.618	3240.27
1144.619	3238.46
1149.614	3234.03
1154.604	3229.16
1159.589	3224.25
1164.57	3220.32
1169.545	3218.52
1174.515	3218.78
1179.48	3220.16
1184.44	3224.33
1189.395	3228.59
1194.345	3232.95
1199.29	3235.68
1204.23	3235.59
1209.165	3233.48
1214.095	3227.92
1219.021	3218.92
1223.941	3207.56
1228.856	3195.24
1233.766	3183.22
1238.672	3172.62
1243.572	3162.92
1248.467	3155.03
1253.358	3149.57
1258.244	3144.22
1263.124	3137.97
1268	3131.48
1272.871	3123.29
1277.737	3113.49
1282.599	3102.43
1287.455	3089.24
1292.306	3073.95
1297.153	3058.51
1301.995	3043.13
1306.832	3027.25
1311.664	3009.78
1316.491	2992.6
1321.314	2975.84
1326.132	2957.59
1330.945	2937.35
1335.753	2917.05
1340.556	2894.98
1345.354	2871.63
1350.148	2847.97
1354.937	2823.3
1359.722	2797.97
1364.501	2772.16
1369.276	2747.16
1374.046	2723.02
1378.811	2700.32
1383.572	2679.06
1388.327	2660.67
1393.079	2645.48
1397.825	2630.43
1402.567	2619.35
1407.304	2609.65
1412.036	2603.25
1416.764	2598.68
1421.487	2594.51
1426.205	2593.05
1430.919	2593.9
1435.628	2594.75
1440.333	2596.76
1445.032	2599.29
1449.727	2600.86
1454.418	2602.57
1459.104	2603.43
1463.785	2602.7
1468.462	2601.37
1473.134	2598.49
1477.802	2592.97
1482.465	2585.29
1487.123	2574.87
1491.777	2561.71
1496.426	2546.14
1501.071	2528.49
1505.711	2510.4
1510.347	2492.29
1514.978	2474.62
1519.604	2459.63
1524.226	2446.05
1528.844	2433.98
1533.457	2422.62
1538.065	2412.89
1542.669	2402.86
1547.269	2394.08
1551.864	2384.25
1556.454	2373.95
1561.041	2364.52
1565.622	2354.35
1570.199	2343.87
1574.772	2335.29
1579.34	2328.14
1583.904	2322.35
1588.464	2318.32
1593.019	2317.73
1597.569	2318.33
1602.115	2321.9
1606.657	2326.17
1611.195	2331.73
1615.728	2336.98
1620.256	2341.84
1624.78	2345.71
1629.3	2349.79
1633.816	2352.37
1638.327	2354.97
1642.834	2356.51
1647.336	2357.62
1651.834	2357.14
1656.328	2354.05
1660.817	2349.43
1665.302	2343.76
1669.783	2337.4
1674.259	2331.46
1678.732	2326.37
1683.199	2322.62
1687.663	2317.9
1692.122	2311.54
1696.577	2302.6
1701.028	2291.52
1705.474	2278.02
1709.917	2262.68
1714.355	2245.68
1718.788	2228.44
1723.218	2210.32
1727.643	2192.98
1732.064	2176.67
1736.481	2161.65
1740.893	2148.1
1745.301	2137.51
1749.705	2129.48
1754.105	2122.06
1758.501	2114.98
1762.893	2106.63
1767.28	2096.38
1771.663	2083.68
1776.042	2068.73
1780.417	2052.83
1784.787	2037.95
1789.154	2024.46
1793.516	2012.92
1797.874	2002.92
1802.228	1994.95
1806.578	1988.44
1810.924	1983.14
1815.266	1979.05
1819.603	1975
1823.937	1970.65
1828.266	1966
1832.591	1961.14
1836.913	1956.79
1841.23	1952.83
1845.543	1950
1849.852	1948.67
1854.156	1949.52
1858.457	1951.14
1862.754	1953.35
1867.047	1956.62
1871.335	1960.33
1875.62	1962.78
1879.9	1965.13
1884.177	1966.13
1888.449	1966.92
1892.718	1966.17
1896.982	1963.87
1901.243	1959.78
1905.499	1952.67
1909.752	1943.62
1914	1932.35
1918.245	1918.41
1922.485	1902.32
1926.722	1883.92
1930.954	1864.86
1935.183	1844.94
1939.408	1824.73
1943.628	1804.1
1947.845	1783.81
1952.058	1764.19
1956.267	1744.02
1960.472	1724.1
1964.673	1704.44
1968.87	1684.14
1973.063	1664.43
1977.252	1644.62
1981.438	1624.81
1985.619	1605.78
1989.797	1586.59
1993.971	1568.56
1998.14	1551.1
2002.306	1535.03
2006.469	1520.84
2010.627	1507.95
2014.781	1496.97
2018.932	1486.97
2023.078	1478.27
2027.221	1470.68
2031.36	1463.13
2035.495	1456.67
2039.627	1450.27
2043.754	1443.71
2047.878	1436.7
2051.998	1429.41
2056.114	1421.49
2060.226	1412.43
2064.334	1401.89
2068.439	1391.37
2072.54	1380.35
2076.637	1369.9
2080.73	1359.35
2084.82	1349.6
2088.906	1338.94
2092.988	1327.9
2097.066	1317.65
2101.14	1306.63
2105.211	1295.56
2109.278	1284.08
2113.342	1272.17
2117.401	1259.65
2121.457	1246.19
2125.509	1232.48
2129.558	1218.29
2133.602	1204.19
2137.643	1189.83
2141.681	1175.9
2145.714	1162.56
2149.744	1150.89
2153.77	1139.43
2157.793	1128.78
2161.812	1118.46
2165.827	1109
2169.838	1099.67
2173.846	1091.48
2177.851	1083.83
2181.851	1076.14
2185.848	1068.97
2189.841	1061.83
2193.831	1054.41
2197.817	1046.92
2201.799	1039.9
2205.778	1032.52
2209.753	1025.03
2213.725	1018.14
2217.693	1010.92
2221.657	1004.25
2225.618	997.62
2229.575	991.29
2233.529	984.46
2237.479	977.79
2241.425	970.76
2245.368	963.57
2249.307	956.51
2253.243	949.4
2257.175	941.67
2261.104	933.48
2265.029	924.84
2268.95	915.86
2272.868	906.86
2276.783	898.08
2280.694	888.9
2284.601	879.98
2288.505	871.54
2292.405	863.79
2296.302	856.14
2300.195	849.1
2304.085	842.76
2307.971	836.78
2311.854	830.78
2315.734	825.79
2319.609	821.46
2323.482	818.05
2327.351	815.1
2331.216	812.02
2335.078	809.71
2338.937	807.98
2342.792	806.97
2346.643	806.37
2350.492	805.89
2354.336	805.89
2358.178	806.17
2362.015	806.89
2365.85	807.78
2369.681	809.33
2373.508	810.56
2377.333	811.76
2381.153	813.29
2384.971	814.67
2388.785	815.62
2392.595	817.06
2396.402	817.7
2400.206	818.17
2404.007	817.9
2407.804	817.7
2411.597	817.56
2415.388	816.62
2419.174	815.57
2422.958	814.38
2426.738	812.29
2430.515	810.78
2434.289	808.6
2438.059	806.38
2441.825	804.62
2445.589	802.51
2449.349	800.48
2453.106	798.63
2456.859	797.1
2460.61	795.24
2464.356	793.54
2468.1	792.14
2471.84	790.6
2475.577	788.89
2479.311	787.14
2483.041	785.68
2486.768	784.19
2490.492	782.49
2494.213	780.57
2497.93	779.14
2501.644	777.4
2505.355	776.33
2509.062	774.73
2512.766	773.43
2516.467	772.17
2520.165	770.76
2523.859	769.63
2527.551	767.9
2531.239	765.52
2534.923	762.86
2538.605	760.11
2542.283	756.67
2545.958	752.95
2549.63	748.9
2553.299	744.9
2556.964	740.54
2560.626	735.57
2564.285	730.19
2567.941	725.16
2571.594	720.17
2575.243	714.63
2578.89	709.17
2582.533	703.83
2586.173	698.48
2589.809	693.14
2593.443	687.25
2597.073	681.32
2600.701	674.98
2604.325	668.83
2607.946	663.06
2611.564	657.38
2615.178	651.19
2618.79	645.29
2622.398	639.52
2626.004	633.57
2629.606	627.62
2633.205	621.81
2636.801	616.81
2640.394	611.54
2643.983	606.43
2647.57	601.06
2651.153	595.51
2654.734	590.14
2658.311	584.84
2661.885	579.27
2665.456	573.81
2669.025	568.59
2672.589	562.89
2676.151	557.27
2679.71	551.38
2683.266	545.71
2686.819	539.73
2690.368	534.81
2693.915	529.89
2697.458	525.19
2700.999	520.75
2704.536	516.56
2708.071	512.78
2711.602	508.43
2715.13	504.4
2718.656	499.57
2722.178	494.78
2725.697	490.19
2729.214	485.13
2732.727	479.76
2736.237	474.54
2739.744	469.11
2743.249	463.81
2746.75	458.79
2750.248	454.02
2753.743	449.63
2757.236	445.78
2760.725	442.84
2764.211	438.81
2767.695	434.95
2771.175	431.52
2774.652	428.11
2778.127	424.57
2781.598	421
2785.067	417.67
2788.532	414.54
2791.995	411.81
2795.455	409.52
2798.911	407.35
2802.365	405.62
2805.816	404.33
2809.264	403.3
2812.709	401.95
2816.151	400.98
2819.59	399.9
2823.026	398.97
2826.46	397.44
2829.89	395.75
2833.318	393.25
2836.742	391.46
2840.164	389.19
2843.583	386.59
2846.999	383.86
2850.412	381.17
2853.822	377.89
2857.229	374.75
2860.634	371.19
2864.035	367.84
2867.434	364.32
2870.83	360.81
2874.223	357.32
2877.613	353.67
2881	349.73
2884.385	346.37
2887.766	343.03
2891.145	339.95
2894.521	336.41
2897.894	333.19
2901.264	329.76
2904.631	326.33
2907.996	323.03
2911.358	319.95
2914.717	316.81
2918.073	314
2921.426	311
2924.777	308.59
2928.124	306.14
2931.469	303.79
2934.811	301.65
2938.15	299.41
2941.487	297.35
2944.821	295.43
2948.152	293.1
2951.48	291.59
2954.805	289.71
2958.128	287.6
2961.447	285.59
2964.765	283.92
2968.079	282.03
2971.39	280.37
2974.699	278.43
2978.005	276.46
2981.308	274.29
2984.609	272.33
2987.907	269.92
2991.202	267.49
2994.494	265.13
2997.784	262.62
3001.07	260.37
3004.355	257.78
3007.636	255.6
3010.915	253.44
3014.191	251.24
3017.464	249.67
3020.734	247.83
3024.002	246.17
3027.267	244.89
3030.53	243.59
3033.789	242.41
3037.046	241.65
3040.301	240.71
3043.552	239.84
3046.801	239.11
3050.048	238.68
3053.291	238.22
3056.532	238.11
3059.771	238.16
3063.006	237.95
3066.239	238.11
3069.469	238.27
3072.697	238.59
3075.922	238.56
3079.144	238.38
3082.364	238.52
3085.581	238.4
3088.795	238.03
3092.007	237.71
3095.216	237.35
3098.423	236.75
3101.627	236.11
3104.828	235.37
3108.026	234.68
3111.222	234.1
3114.416	233.24
3117.607	232.62
3120.795	231.73
3123.98	230.73
3127.163	229.81
3130.344	228.89
3133.521	227.57
3136.696	226.08
3139.869	224.51
3143.039	222.92
3146.206	221.41
3149.371	219.62
3152.533	217.86
3155.693	216
3158.85	214.11
3162.005	211.94
3165.157	209.87
3168.306	207.65
3171.453	205.43
3174.597	203.19
3177.739	201.25
3180.878	199.16
3184.014	196.87
3187.149	194.73
3190.28	192.51
3193.409	190.43
3196.536	188.32
3199.659	186.27
3202.781	184.52
3205.9	182.63
3209.016	180.9
3212.13	179.37
3215.241	177.48
3218.35	175.63
3221.456	174.13
3224.56	172.86
3227.661	171.38
3230.76	169.95
3233.856	168.6
3236.95	167.25
3240.041	165.81
3243.13	164.19
3246.216	162.56
3249.3	161
3252.382	159.56
3255.46	158.27
3258.537	156.78
3261.611	155.24
3264.682	154.03
3267.751	152.37
3270.818	151.03
3273.882	149.6
3276.943	148.21
3280.002	146.98
3283.059	145.83
3286.113	144.27
3289.165	142.57
3292.214	141.13
3295.261	139.75
3298.306	138.32
3301.348	136.79
3304.387	135.52
3307.425	134.44
3310.459	133.63
3313.492	132.62
3316.521	131.54
3319.549	130.65
3322.574	129.84
3325.597	129.06
3328.617	128.25
3331.635	127.68
3334.65	126.92
3337.663	126.29
3340.674	125.49
3343.682	124.68
3346.688	123.76
3349.691	122.94
3352.692	122.11
3355.691	121.48
3358.687	120.6
3361.681	119.59
3364.673	118.76
3367.662	117.86
3370.649	116.83
3373.633	115.68
3376.615	114.54
3379.595	113.41
3382.572	112.32
3385.547	111.08
3388.52	110.05
3391.49	108.76
3394.458	107.56
3397.424	106.29
3400.387	105.19
3403.348	103.84
3406.307	102.63
3409.263	101.57
3412.217	100.56
3415.168	99.52
3418.118	98.11
3421.065	96.84
3424.009	95.67
3426.951	94.38
3429.891	92.95
3432.829	91.54
3435.764	90.1
3438.697	88.81
3441.628	87.3
3444.557	85.67
3447.483	84.06
3450.407	82.46
3453.328	81.02
3456.247	79.48
3459.164	78.16
3462.079	76.52
3464.991	75.21
3467.902	73.71
3470.809	72.1
3473.715	70.65
3476.618	69.13
3479.519	67.79
3482.418	66.3
3485.315	64.83
3488.209	63.43
3491.101	62.02
3493.99	60.59
3496.878	59.24
3499.763	57.71
3502.646	56.46
3505.527	55.02
3508.405	53.79
3511.281	52.49
3514.155	51.17
3517.027	49.81
3519.897	48.44
3522.764	47.08
3525.629	45.7
3528.492	44.32
3531.352	43.03
3534.211	41.52
3537.067	40.14
3539.921	38.75
3542.773	37.54
3545.622	36.37
3548.469	35.29
3551.315	34.3
3554.157	33.19
3556.998	32.14
3559.837	31.38
3562.673	30.44
3565.507	29.62
3568.339	28.73
3571.169	27.71
3573.996	26.63
3576.822	25.62
3579.645	24.52
3582.466	23.63
3585.285	22.56
3588.101	21.81
3590.916	21.06
3593.728	20.33
3596.538	19.62
3599.346	18.94
3602.152	18.32
3604.956	17.73
3607.757	17.02
3610.556	16.37
3613.354	15.83
3616.149	15.19
3618.942	14.4
3621.732	13.87
3624.521	13.35
3627.307	12.59
3630.092	12.13
3632.874	11.59
3635.654	11.16
3638.432	10.79
3641.208	10.4
3643.982	10.17
3646.753	9.86
3649.523	9.49
3652.29	9.24
3655.055	9.1
3657.818	8.86
3660.579	8.68
3663.338	8.46
3666.095	8.29
3668.849	8.05
3671.602	7.87
3674.352	7.83
3677.101	7.73
3679.847	7.57
3682.591	7.4
3685.333	7.38
3688.073	7.25
3690.811	7.25
3693.547	7.13
3696.281	7.08
3699.013	7.1
3701.742	6.95
3704.47	6.68
3707.195	6.63
3709.919	6.49
3712.64	6.32
3715.359	6.27
3718.076	6
3720.792	5.83
3723.505	5.7
3726.216	5.41
3728.925	5.19
3731.632	4.97
3734.336	4.7
3737.039	4.57
3739.74	4.46
3742.439	4.29
3745.136	4.06
3747.83	3.9
3750.523	3.83
3753.213	3.63
3755.902	3.21
3758.589	3.02
3761.273	2.81
3763.956	2.48
3766.636	2.27
3769.315	2
3771.991	1.65
3774.665	1.51
3777.338	1.27
3780.008	0.98
3782.677	0.84
3785.343	0.62
3788.007	0.3
3790.67	0.13
3793.33	-0.37
3795.989	-0.86
3798.645	-1.11
3801.299	-1.41
3803.952	-1.79
3806.602	-2.25
3809.251	-2.7
3811.897	-2.97
3814.542	-3.27
3817.184	-3.44
3819.825	-3.71
3822.463	-4.02
3825.1	-4.21
3827.735	-4.35
3830.367	-4.76
3832.998	-5.11
3835.627	-5.44
3838.253	-5.94
3840.878	-6.35
3843.501	-6.76
3846.122	-7.16
3848.741	-7.59
3851.358	-7.92
3853.973	-8.29
3856.586	-8.57
3859.197	-8.71
3861.806	-8.89
3864.414	-9.17
3867.019	-9.37
3869.622	-9.62
3872.224	-9.94
3874.823	-10.29
3877.421	-10.57
3880.016	-11.03
3882.61	-11.59
3885.202	-11.98
3887.792	-12.38
3890.38	-12.81
3892.966	-13.21
3895.55	-13.7
3898.132	-14.08
3900.713	-14.48
3903.291	-14.81
3905.868	-15.11
3908.442	-15.4
3911.015	-15.84
3913.586	-16.33
3916.155	-16.71
3918.722	-16.95
3921.287	-17.25
3923.85	-17.57
3926.411	-17.9
3928.971	-18.13
3931.528	-18.49
3934.084	-18.71
3936.638	-18.86
3939.19	-18.97
3941.74	-19.17
3944.288	-19.3
3946.834	-19.38
3949.378	-19.41
3951.921	-19.56
3954.462	-19.62
3957	-19.71
3959.537	-19.78
3962.072	-19.92
3964.606	-19.98
3967.137	-20.06
3969.667	-20.03
3972.194	-20.13
3974.72	-20.17
3977.244	-20.24
3979.766	-20.22
3982.286	-20.22
3984.805	-20.22
3987.321	-20.24
3989.836	-20.22
3992.349	-20.38
3994.86	-20.3
3997.369	-20.54
3999.877	-20.57
4002.382	-20.65
4004.886	-20.67
4007.388	-20.79
4009.888	-20.76
4012.386	-20.71
4014.883	-20.67
4017.377	-20.52
4019.87	-20.52
4022.361	-20.62
4024.85	-20.67
4027.338	-20.71
4029.823	-20.75
4032.307	-20.9
4034.789	-21.05
4037.269	-21.17
4039.747	-21.29
4042.224	-21.38
4044.699	-21.41
4047.172	-21.59
4049.643	-21.41
4052.112	-21.37
4054.58	-21.37
4057.046	-21.27
4059.51	-21.17
4061.972	-21.22
4064.432	-21.35
4066.891	-21.46
4069.348	-21.65
4071.803	-21.94
4074.256	-22.14
4076.708	-22.41
4079.158	-22.75
4081.606	-22.22
4084.052	-21.59
4086.497	-21
4088.939	-20.27
4091.38	-19.44
4093.819	-18.57
4096.257	-18.59
4098.693	-18.59
4101.127	-18.73
4103.559	-18.83
4105.989	-18.76
4108.418	-18.97
4110.845	-19.35
4113.27	-19.6
4115.694	-19.86
4118.115	-20.16
4120.535	-20.05
4122.954	-19.68
4125.37	-19.37
4127.785	-18.9
4130.198	-18.38
4132.609	-18.93
4135.019	-19.6
4137.427	-20.38
4139.833	-21.44
4142.237	-23
