Data from 2018-2-7_conc=6_RamanShift_01.txt Node
Date: Tue Feb 13 14:26:13 IST 2018
User: aro
Spectrometer: QEPB0276
Trigger mode: 0
Integration Time (sec): 3.000000E1
Scans to average: 1
Electric dark correction enabled: true
Nonlinearity correction enabled: false
Boxcar width: 0
XAxis mode: Raman Shifts
Number of Pixels in Spectrum: 1044
>>>>>Begin Spectral Data<<<<<
160.701	-163.5
166.742	21.5
172.777	560.5
178.805	2159.5
184.826	5893.5
190.841	12165.5
196.849	19187.5
202.85	24062.5
208.845	25515.5
214.833	25266.5
220.815	24639.5
226.789	24523.5
232.758	24276.5
238.719	24112.5
244.674	23705.5
250.623	23238.5
256.565	22741.5
262.5	22184.5
268.429	21782.5
274.351	21403.5
280.267	21130.5
286.176	20820.5
292.079	20588.5
297.975	20316.5
303.865	20147.5
309.748	19984.5
315.625	19847.5
321.495	19690.5
327.359	19712.5
333.217	19547.5
339.068	19532.5
344.912	19530.5
350.751	19525.5
356.583	19470.5
362.408	19482.5
368.227	19471.5
374.04	19430.5
379.847	19589.5
385.647	19632.5
391.44	19686.5
397.228	19761.5
403.009	19856.5
408.784	19943.5
414.553	20016.5
420.315	20045.5
426.071	20028.5
431.821	20038.5
437.565	20011.5
443.302	19921.5
449.033	19903.5
454.758	19874.5
460.477	19857.5
466.189	19775.5
471.896	19768.5
477.596	19665.5
483.29	19729.5
488.978	19626.5
494.66	19519.5
500.335	19401.5
506.005	19172.5
511.668	18957.5
517.325	18757.5
522.977	18565.5
528.622	18436.5
534.261	18301.5
539.894	18190.5
545.521	18139.5
551.141	18054.5
556.756	18011.5
562.365	17991.5
567.968	17878.5
573.565	17792.5
579.155	17677.5
584.74	17669.5
590.319	17628.5
595.892	17554.5
601.459	17425.5
607.02	17358.5
612.575	17270.5
618.124	17208.5
623.667	17070.5
629.204	16956.5
634.735	16880.5
640.261	16813.5
645.781	16781.5
651.294	16746.5
656.802	16691.5
662.304	16651.5
667.8	16658.5
673.29	16622.5
678.775	16556.5
684.254	16544.5
689.726	16472.5
695.193	16442.5
700.655	16334.5
706.11	16306.5
711.56	16174.5
717.004	16142.5
722.442	16018.5
727.874	16043.5
733.301	15932.5
738.722	15881.5
744.137	15874.5
749.547	15805.5
754.951	15853.5
760.349	15807.5
765.741	15821.5
771.128	15826.5
776.509	15899.5
781.885	15841.5
787.254	15772.5
792.618	15788.5
797.977	15692.5
803.33	15568.5
808.677	15403.5
814.019	15375.5
819.355	15292.5
824.686	15225.5
830.011	15151.5
835.33	15244.5
840.644	15187.5
845.952	15290.5
851.255	15272.5
856.552	15255.5
861.844	15210.5
867.13	15219.5
872.41	15096.5
877.686	15093.5
882.955	14915.5
888.219	14774.5
893.478	14604.5
898.731	14462.5
903.979	14281.5
909.221	14165.5
914.458	14151.5
919.69	14135.5
924.916	14174.5
930.136	14212.5
935.351	14180.5
940.561	14249.5
945.766	14189.5
950.965	14100.5
956.158	13989.5
961.347	13856.5
966.529	13688.5
971.707	13559.5
976.879	13388.5
982.046	13253.5
987.208	13224.5
992.364	13241.5
997.515	13293.5
1002.66	13403.5
1007.801	13605.5
1012.936	13649.5
1018.066	13699.5
1023.19	13643.5
1028.309	13638.5
1033.423	13635.5
1038.532	13533.5
1043.636	13473.5
1048.734	13265.5
1053.827	13059.5
1058.915	12953.5
1063.998	12827.5
1069.075	12818.5
1074.147	12872.5
1079.214	12924.5
1084.276	12952.5
1089.333	13064.5
1094.385	13103.5
1099.431	13161.5
1104.472	13132.5
1109.509	13073.5
1114.54	12929.5
1119.565	12749.5
1124.586	12602.5
1129.602	12481.5
1134.613	12366.5
1139.618	12308.5
1144.619	12257.5
1149.614	12272.5
1154.604	12295.5
1159.589	12344.5
1164.57	12409.5
1169.545	12368.5
1174.515	12369.5
1179.48	12311.5
1184.44	12180.5
1189.395	12111.5
1194.345	12047.5
1199.29	11960.5
1204.23	11993.5
1209.165	12050.5
1214.095	12104.5
1219.021	12128.5
1223.941	12222.5
1228.856	12282.5
1233.766	12320.5
1238.672	12322.5
1243.572	12305.5
1248.467	12247.5
1253.358	12079.5
1258.244	11925.5
1263.124	11765.5
1268	11573.5
1272.871	11453.5
1277.737	11333.5
1282.599	11269.5
1287.455	11308.5
1292.306	11335.5
1297.153	11351.5
1301.995	11386.5
1306.832	11425.5
1311.664	11393.5
1316.491	11463.5
1321.314	11286.5
1326.132	11113.5
1330.945	10890.5
1335.753	10606.5
1340.556	10354.5
1345.354	10199.5
1350.148	10048.5
1354.937	9936.5
1359.722	9955.5
1364.501	10014.5
1369.276	10083.5
1374.046	10229.5
1378.811	10345.5
1383.572	10426.5
1388.327	10497.5
1393.079	10428.5
1397.825	10342.5
1402.567	10117.5
1407.304	10009.5
1412.036	9965.5
1416.764	9823.5
1421.487	9759.5
1426.205	9780.5
1430.919	9730.5
1435.628	9668.5
1440.333	9763.5
1445.032	9763.5
1449.727	9784.5
1454.418	9805.5
1459.104	9670.5
1463.785	9477.5
1468.462	9267.5
1473.134	9106.5
1477.802	8915.5
1482.465	8755.5
1487.123	8636.5
1491.777	8679.5
1496.426	8694.5
1501.071	8766.5
1505.711	8903.5
1510.347	9051.5
1514.978	9228.5
1519.604	9353.5
1524.226	9430.5
1528.844	9425.5
1533.457	9416.5
1538.065	9374.5
1542.669	9266.5
1547.269	9247.5
1551.864	9185.5
1556.454	9161.5
1561.041	9185.5
1565.622	9181.5
1570.199	9152.5
1574.772	9236.5
1579.34	9321.5
1583.904	9372.5
1588.464	9390.5
1593.019	9402.5
1597.569	9400.5
1602.115	9302.5
1606.657	9252.5
1611.195	9173.5
1615.728	9223.5
1620.256	9148.5
1624.78	9140.5
1629.3	9170.5
1633.816	9191.5
1638.327	9254.5
1642.834	9304.5
1647.336	9323.5
1651.834	9304.5
1656.328	9338.5
1660.817	9257.5
1665.302	9194.5
1669.783	8966.5
1674.259	8772.5
1678.732	8479.5
1683.199	8193.5
1687.663	7910.5
1692.122	7691.5
1696.577	7541.5
1701.028	7502.5
1705.474	7595.5
1709.917	7667.5
1714.355	7647.5
1718.788	7559.5
1723.218	7455.5
1727.643	7321.5
1732.064	7159.5
1736.481	7015.5
1740.893	6874.5
1745.301	6682.5
1749.705	6492.5
1754.105	6303.5
1758.501	6095.5
1762.893	5917.5
1767.28	5803.5
1771.663	5661.5
1776.042	5568.5
1780.417	5511.5
1784.787	5508.5
1789.154	5525.5
1793.516	5640.5
1797.874	5756.5
1802.228	5853.5
1806.578	5927.5
1810.924	5921.5
1815.266	5890.5
1819.603	5755.5
1823.937	5673.5
1828.266	5589.5
1832.591	5493.5
1836.913	5412.5
1841.23	5393.5
1845.543	5335.5
1849.852	5333.5
1854.156	5315.5
1858.457	5282.5
1862.754	5283.5
1867.047	5306.5
1871.335	5275.5
1875.62	5245.5
1879.9	5228.5
1884.177	5216.5
1888.449	5165.5
1892.718	5088.5
1896.982	5051.5
1901.243	4956.5
1905.499	4939.5
1909.752	4926.5
1914	4932.5
1918.245	4941.5
1922.485	4950.5
1926.722	5034.5
1930.954	5096.5
1935.183	5158.5
1939.408	5179.5
1943.628	5224.5
1947.845	5279.5
1952.058	5253.5
1956.267	5174.5
1960.472	5115.5
1964.673	5013.5
1968.87	4977.5
1973.063	4898.5
1977.252	4838.5
1981.438	4799.5
1985.619	4723.5
1989.797	4702.5
1993.971	4680.5
1998.14	4698.5
2002.306	4650.5
2006.469	4632.5
2010.627	4612.5
2014.781	4592.5
2018.932	4505.5
2023.078	4493.5
2027.221	4427.5
2031.36	4360.5
2035.495	4314.5
2039.627	4218.5
2043.754	4158.5
2047.878	4147.5
2051.998	4116.5
2056.114	4082.5
2060.226	4080.5
2064.334	4129.5
2068.439	4094.5
2072.54	4137.5
2076.637	4193.5
2080.73	4201.5
2084.82	4207.5
2088.906	4212.5
2092.988	4238.5
2097.066	4211.5
2101.14	4189.5
2105.211	4180.5
2109.278	4145.5
2113.342	4161.5
2117.401	4107.5
2121.457	4049.5
2125.509	4033.5
2129.558	4036.5
2133.602	4004.5
2137.643	3983.5
2141.681	3968.5
2145.714	3935.5
2149.744	3939.5
2153.77	3887.5
2157.793	3882.5
2161.812	3800.5
2165.827	3733.5
2169.838	3688.5
2173.846	3646.5
2177.851	3584.5
2181.851	3534.5
2185.848	3452.5
2189.841	3458.5
2193.831	3425.5
2197.817	3385.5
2201.799	3368.5
2205.778	3375.5
2209.753	3322.5
2213.725	3289.5
2217.693	3328.5
2221.657	3281.5
2225.618	3308.5
2229.575	3282.5
2233.529	3254.5
2237.479	3236.5
2241.425	3152.5
2245.368	3125.5
2249.307	3108.5
2253.243	3051.5
2257.175	2998.5
2261.104	2947.5
2265.029	2933.5
2268.95	2870.5
2272.868	2863.5
2276.783	2834.5
2280.694	2787.5
2284.601	2765.5
2288.505	2740.5
2292.405	2746.5
2296.302	2715.5
2300.195	2680.5
2304.085	2638.5
2307.971	2584.5
2311.854	2587.5
2315.734	2505.5
2319.609	2499.5
2323.482	2462.5
2327.351	2434.5
2331.216	2434.5
2335.078	2412.5
2338.937	2392.5
2342.792	2404.5
2346.643	2398.5
2350.492	2389.5
2354.336	2391.5
2358.178	2366.5
2362.015	2406.5
2365.85	2385.5
2369.681	2383.5
2373.508	2376.5
2377.333	2406.5
2381.153	2404.5
2384.971	2404.5
2388.785	2359.5
2392.595	2345.5
2396.402	2316.5
2400.206	2275.5
2404.007	2280.5
2407.804	2250.5
2411.597	2253.5
2415.388	2240.5
2419.174	2222.5
2422.958	2189.5
2426.738	2177.5
2430.515	2174.5
2434.289	2156.5
2438.059	2155.5
2441.825	2121.5
2445.589	2108.5
2449.349	2074.5
2453.106	2058.5
2456.859	2011.5
2460.61	1997.5
2464.356	1966.5
2468.1	1942.5
2471.84	1934.5
2475.577	1891.5
2479.311	1891.5
2483.041	1879.5
2486.768	1869.5
2490.492	1871.5
2494.213	1852.5
2497.93	1860.5
2501.644	1833.5
2505.355	1848.5
2509.062	1817.5
2512.766	1829.5
2516.467	1822.5
2520.165	1802.5
2523.859	1778.5
2527.551	1759.5
2531.239	1763.5
2534.923	1739.5
2538.605	1735.5
2542.283	1734.5
2545.958	1732.5
2549.63	1714.5
2553.299	1714.5
2556.964	1742.5
2560.626	1716.5
2564.285	1699.5
2567.941	1679.5
2571.594	1678.5
2575.243	1686.5
2578.89	1659.5
2582.533	1658.5
2586.173	1653.5
2589.809	1635.5
2593.443	1596.5
2597.073	1576.5
2600.701	1571.5
2604.325	1554.5
2607.946	1564.5
2611.564	1549.5
2615.178	1531.5
2618.79	1535.5
2622.398	1511.5
2626.004	1507.5
2629.606	1490.5
2633.205	1445.5
2636.801	1444.5
2640.394	1432.5
2643.983	1412.5
2647.57	1380.5
2651.153	1349.5
2654.734	1340.5
2658.311	1331.5
2661.885	1302.5
2665.456	1265.5
2669.025	1266.5
2672.589	1250.5
2676.151	1212.5
2679.71	1216.5
2683.266	1226.5
2686.819	1166.5
2690.368	1138.5
2693.915	1128.5
2697.458	1107.5
2700.999	1079.5
2704.536	1056.5
2708.071	1036.5
2711.602	1004.5
2715.13	988.5
2718.656	952.5
2722.178	930.5
2725.697	930.5
2729.214	912.5
2732.727	910.5
2736.237	898.5
2739.744	900.5
2743.249	896.5
2746.75	925.5
2750.248	934.5
2753.743	945.5
2757.236	948.5
2760.725	957.5
2764.211	958.5
2767.695	953.5
2771.175	971.5
2774.652	951.5
2778.127	952.5
2781.598	951.5
2785.067	922.5
2788.532	934.5
2791.995	932.5
2795.455	926.5
2798.911	941.5
2802.365	932.5
2805.816	936.5
2809.264	936.5
2812.709	922.5
2816.151	936.5
2819.59	925.5
2823.026	936.5
2826.46	942.5
2829.89	938.5
2833.318	945.5
2836.742	953.5
2840.164	960.5
2843.583	961.5
2846.999	985.5
2850.412	982.5
2853.822	995.5
2857.229	1026.5
2860.634	1033.5
2864.035	1046.5
2867.434	1081.5
2870.83	1097.5
2874.223	1113.5
2877.613	1140.5
2881	1161.5
2884.385	1161.5
2887.766	1166.5
2891.145	1155.5
2894.521	1157.5
2897.894	1170.5
2901.264	1164.5
2904.631	1155.5
2907.996	1169.5
2911.358	1158.5
2914.717	1180.5
2918.073	1177.5
2921.426	1197.5
2924.777	1220.5
2928.124	1234.5
2931.469	1279.5
2934.811	1288.5
2938.15	1303.5
2941.487	1304.5
2944.821	1322.5
2948.152	1316.5
2951.48	1321.5
2954.805	1273.5
2958.128	1287.5
2961.447	1291.5
2964.765	1270.5
2968.079	1276.5
2971.39	1283.5
2974.699	1295.5
2978.005	1339.5
2981.308	1347.5
2984.609	1372.5
2987.907	1408.5
2991.202	1417.5
2994.494	1445.5
2997.784	1468.5
3001.07	1502.5
3004.355	1543.5
3007.636	1552.5
3010.915	1571.5
3014.191	1590.5
3017.464	1596.5
3020.734	1602.5
3024.002	1604.5
3027.267	1652.5
3030.53	1660.5
3033.789	1683.5
3037.046	1706.5
3040.301	1733.5
3043.552	1764.5
3046.801	1812.5
3050.048	1857.5
3053.291	1887.5
3056.532	1950.5
3059.771	1987.5
3063.006	2055.5
3066.239	2108.5
3069.469	2194.5
3072.697	2249.5
3075.922	2287.5
3079.144	2365.5
3082.364	2398.5
3085.581	2459.5
3088.795	2485.5
3092.007	2571.5
3095.216	2640.5
3098.423	2688.5
3101.627	2745.5
3104.828	2808.5
3108.026	2857.5
3111.222	2910.5
3114.416	3004.5
3117.607	3084.5
3120.795	3137.5
3123.98	3222.5
3127.163	3270.5
3130.344	3348.5
3133.521	3442.5
3136.696	3525.5
3139.869	3594.5
3143.039	3688.5
3146.206	3728.5
3149.371	3740.5
3152.533	3805.5
3155.693	3830.5
3158.85	3819.5
3162.005	3853.5
3165.157	3868.5
3168.306	3858.5
3171.453	3908.5
3174.597	3881.5
3177.739	3892.5
3180.878	3911.5
3184.014	3940.5
3187.149	3908.5
3190.28	3931.5
3193.409	3936.5
3196.536	3941.5
3199.659	3942.5
3202.781	3933.5
3205.9	3941.5
3209.016	3923.5
3212.13	3913.5
3215.241	3860.5
3218.35	3849.5
3221.456	3793.5
3224.56	3754.5
3227.661	3723.5
3230.76	3704.5
3233.856	3637.5
3236.95	3621.5
3240.041	3592.5
3243.13	3552.5
3246.216	3558.5
3249.3	3504.5
3252.382	3486.5
3255.46	3468.5
3258.537	3478.5
3261.611	3480.5
3264.682	3477.5
3267.751	3462.5
3270.818	3475.5
3273.882	3443.5
3276.943	3440.5
3280.002	3437.5
3283.059	3354.5
3286.113	3368.5
3289.165	3306.5
3292.214	3253.5
3295.261	3204.5
3298.306	3147.5
3301.348	3121.5
3304.387	3048.5
3307.425	3030.5
3310.459	2969.5
3313.492	2924.5
3316.521	2866.5
3319.549	2861.5
3322.574	2815.5
3325.597	2778.5
3328.617	2742.5
3331.635	2763.5
3334.65	2756.5
3337.663	2698.5
3340.674	2704.5
3343.682	2688.5
3346.688	2689.5
3349.691	2695.5
3352.692	2660.5
3355.691	2660.5
3358.687	2626.5
3361.681	2576.5
3364.673	2555.5
3367.662	2527.5
3370.649	2474.5
3373.633	2468.5
3376.615	2398.5
3379.595	2384.5
3382.572	2342.5
3385.547	2315.5
3388.52	2282.5
3391.49	2231.5
3394.458	2210.5
3397.424	2170.5
3400.387	2140.5
3403.348	2141.5
3406.307	2094.5
3409.263	2064.5
3412.217	2065.5
3415.168	2055.5
3418.118	2025.5
3421.065	1950.5
3424.009	1957.5
3426.951	1917.5
3429.891	1912.5
3432.829	1842.5
3435.764	1791.5
3438.697	1768.5
3441.628	1702.5
3444.557	1665.5
3447.483	1608.5
3450.407	1553.5
3453.328	1510.5
3456.247	1464.5
3459.164	1402.5
3462.079	1352.5
3464.991	1297.5
3467.902	1254.5
3470.809	1206.5
3473.715	1153.5
3476.618	1112.5
3479.519	1079.5
3482.418	1059.5
3485.315	1011.5
3488.209	970.5
3491.101	948.5
3493.99	896.5
3496.878	872.5
3499.763	842.5
3502.646	807.5
3505.527	775.5
3508.405	719.5
3511.281	691.5
3514.155	669.5
3517.027	619.5
3519.897	582.5
3522.764	527.5
3525.629	500.5
3528.492	454.5
3531.352	418.5
3534.211	378.5
3537.067	347.5
3539.921	297.5
3542.773	276.5
3545.622	241.5
3548.469	218.5
3551.315	183.5
3554.157	145.5
3556.998	132.5
3559.837	109.5
3562.673	105.5
3565.507	58.5
3568.339	40.5
3571.169	23.5
3573.996	8.5
3576.822	-9.5
3579.645	-18.5
3582.466	-47.5
3585.285	-73.5
3588.101	-89.5
3590.916	-96.5
3593.728	-130.5
3596.538	-146.5
3599.346	-160.5
3602.152	-188.5
3604.956	-195.5
3607.757	-204.5
3610.556	-224.5
3613.354	-227.5
3616.149	-241.5
3618.942	-262.5
3621.732	-276.5
3624.521	-278.5
3627.307	-294.5
3630.092	-302.5
3632.874	-312.5
3635.654	-317.5
3638.432	-321.5
3641.208	-341.5
3643.982	-347.5
3646.753	-354.5
3649.523	-369.5
3652.29	-370.5
3655.055	-376.5
3657.818	-394.5
3660.579	-399.5
3663.338	-411.5
3666.095	-427.5
3668.849	-439.5
3671.602	-442.5
3674.352	-442.5
3677.101	-458.5
3679.847	-462.5
3682.591	-464.5
3685.333	-471.5
3688.073	-476.5
3690.811	-487.5
3693.547	-492.5
3696.281	-498.5
3699.013	-496.5
3701.742	-510.5
3704.47	-502.5
3707.195	-514.5
3709.919	-516.5
3712.64	-522.5
3715.359	-520.5
3718.076	-526.5
3720.792	-533.5
3723.505	-534.5
3726.216	-539.5
3728.925	-535.5
3731.632	-554.5
3734.336	-554.5
3737.039	-550.5
3739.74	-552.5
3742.439	-551.5
3745.136	-560.5
3747.83	-561.5
3750.523	-559.5
3753.213	-577.5
3755.902	-565.5
3758.589	-560.5
3761.273	-565.5
3763.956	-572.5
3766.636	-574.5
3769.315	-573.5
3771.991	-573.5
3774.665	-572.5
3777.338	-578.5
3780.008	-577.5
3782.677	-579.5
3785.343	-574.5
3788.007	-572.5
3790.67	-584.5
3793.33	-580.5
3795.989	-588.5
3798.645	-589.5
3801.299	-595.5
3803.952	-593.5
3806.602	-593.5
3809.251	-603.5
3811.897	-588.5
3814.542	-587.5
3817.184	-597.5
3819.825	-593.5
3822.463	-598.5
3825.1	-602.5
3827.735	-600.5
3830.367	-599.5
3832.998	-601.5
3835.627	-607.5
3838.253	-611.5
3840.878	-601.5
3843.501	-611.5
3846.122	-603.5
3848.741	-603.5
3851.358	-611.5
3853.973	-605.5
3856.586	-606.5
3859.197	-606.5
3861.806	-602.5
3864.414	-596.5
3867.019	-599.5
3869.622	-608.5
3872.224	-599.5
3874.823	-587.5
3877.421	-568.5
3880.016	-554.5
3882.61	-517.5
3885.202	-505.5
3887.792	-540.5
3890.38	-566.5
3892.966	-594.5
3895.55	-600.5
3898.132	-611.5
3900.713	-616.5
3903.291	-617.5
3905.868	-619.5
3908.442	-617.5
3911.015	-620.5
3913.586	-621.5
3916.155	-619.5
3918.722	-616.5
3921.287	-617.5
3923.85	-622.5
3926.411	-617.5
3928.971	-620.5
3931.528	-619.5
3934.084	-611.5
3936.638	-618.5
3939.19	-625.5
3941.74	-624.5
3944.288	-622.5
3946.834	-624.5
3949.378	-625.5
3951.921	-623.5
3954.462	-620.5
3957	-618.5
3959.537	-616.5
3962.072	-619.5
3964.606	-615.5
3967.137	-627.5
3969.667	-622.5
3972.194	-619.5
3974.72	-620.5
3977.244	-613.5
3979.766	-608.5
3982.286	-615.5
3984.805	-602.5
3987.321	-604.5
3989.836	-606.5
3992.349	-607.5
3994.86	-605.5
3997.369	-615.5
3999.877	-606.5
4002.382	-601.5
4004.886	-609.5
4007.388	-609.5
4009.888	-609.5
4012.386	-605.5
4014.883	-600.5
4017.377	-609.5
4019.87	-607.5
4022.361	-610.5
4024.85	-610.5
4027.338	-615.5
4029.823	-611.5
4032.307	-609.5
4034.789	-613.5
4037.269	-619.5
4039.747	-616.5
4042.224	-609.5
4044.699	-616.5
4047.172	-616.5
4049.643	-613.5
4052.112	-610.5
4054.58	-606.5
4057.046	-617.5
4059.51	-606.5
4061.972	-614.5
4064.432	-608.5
4066.891	-605.5
4069.348	-612.5
4071.803	-611.5
4074.256	-603.5
4076.708	-608.5
4079.158	-601.5
4081.606	-601.5
4084.052	-610.5
4086.497	-610.5
4088.939	-610.5
4091.38	-604.5
4093.819	-608.5
4096.257	-641.5
4098.693	-641.5
4101.127	-645.5
4103.559	-643.5
4105.989	-390.5
4108.418	-371.5
4110.845	-345.5
4113.27	-328.5
4115.694	-267.5
4118.115	-230.5
4120.535	-608.5
4122.954	-616.5
4125.37	-612.5
4127.785	-612.5
4130.198	-617.5
4132.609	-611.5
4135.019	-646.5
4137.427	-647.5
4139.833	-640.5
4142.237	-643.5
