Data from 2018-2-7_conc=0_RamanShift_09.txt Node
Date: Tue Feb 13 11:17:14 IST 2018
User: aro
Spectrometer: QEPB0276
Trigger mode: 0
Integration Time (sec): 3.000000E1
Scans to average: 1
Electric dark correction enabled: true
Nonlinearity correction enabled: false
Boxcar width: 0
XAxis mode: Raman Shifts
Number of Pixels in Spectrum: 1044
>>>>>Begin Spectral Data<<<<<
160.701	-161.2
166.742	24.8
172.777	584.8
178.805	2254.8
184.826	6081.8
190.841	12480.8
196.849	19652.8
202.85	24512.8
208.845	26044.8
214.833	25741.8
220.815	25240.8
226.789	25108.8
232.758	24994.8
238.719	24737.8
244.674	24388.8
250.623	24016.8
256.565	23512.8
262.5	22931.8
268.429	22547.8
274.351	22258.8
280.267	21963.8
286.176	21693.8
292.079	21450.8
297.975	21292.8
303.865	21096.8
309.748	20937.8
315.625	20805.8
321.495	20657.8
327.359	20590.8
333.217	20567.8
339.068	20516.8
344.912	20465.8
350.751	20465.8
356.583	20449.8
362.408	20396.8
368.227	20426.8
374.04	20421.8
379.847	20510.8
385.647	20582.8
391.44	20626.8
397.228	20735.8
403.009	20847.8
408.784	20879.8
414.553	20988.8
420.315	21014.8
426.071	21037.8
431.821	20972.8
437.565	21000.8
443.302	20988.8
449.033	20927.8
454.758	20896.8
460.477	20846.8
466.189	20826.8
471.896	20780.8
477.596	20693.8
483.29	20591.8
488.978	20625.8
494.66	20548.8
500.335	20458.8
506.005	20222.8
511.668	19973.8
517.325	19829.8
522.977	19515.8
528.622	19446.8
534.261	19381.8
539.894	19271.8
545.521	19239.8
551.141	19124.8
556.756	19030.8
562.365	18953.8
567.968	18925.8
573.565	18850.8
579.155	18722.8
584.74	18699.8
590.319	18662.8
595.892	18535.8
601.459	18387.8
607.02	18369.8
612.575	18327.8
618.124	18161.8
623.667	18042.8
629.204	17974.8
634.735	17925.8
640.261	17857.8
645.781	17807.8
651.294	17714.8
656.802	17724.8
662.304	17706.8
667.8	17627.8
673.29	17679.8
678.775	17614.8
684.254	17447.8
689.726	17474.8
695.193	17394.8
700.655	17341.8
706.11	17193.8
711.56	17119.8
717.004	17087.8
722.442	16999.8
727.874	16905.8
733.301	16906.8
738.722	16844.8
744.137	16746.8
749.547	16840.8
754.951	16784.8
760.349	16739.8
765.741	16749.8
771.128	16803.8
776.509	16838.8
781.885	16769.8
787.254	16743.8
792.618	16672.8
797.977	16596.8
803.33	16472.8
808.677	16354.8
814.019	16256.8
819.355	16216.8
824.686	16082.8
830.011	16077.8
835.33	16120.8
840.644	16089.8
845.952	16141.8
851.255	16192.8
856.552	16244.8
861.844	16133.8
867.13	16112.8
872.41	16074.8
877.686	15991.8
882.955	15870.8
888.219	15738.8
893.478	15494.8
898.731	15375.8
903.979	15196.8
909.221	15051.8
914.458	15022.8
919.69	15016.8
924.916	15020.8
930.136	15047.8
935.351	15074.8
940.561	15133.8
945.766	15054.8
950.965	15019.8
956.158	14909.8
961.347	14743.8
966.529	14555.8
971.707	14355.8
976.879	14201.8
982.046	14099.8
987.208	14036.8
992.364	14070.8
997.515	14113.8
1002.66	14267.8
1007.801	14399.8
1012.936	14555.8
1018.066	14555.8
1023.19	14510.8
1028.309	14504.8
1033.423	14482.8
1038.532	14396.8
1043.636	14284.8
1048.734	14110.8
1053.827	13917.8
1058.915	13780.8
1063.998	13693.8
1069.075	13586.8
1074.147	13626.8
1079.214	13698.8
1084.276	13799.8
1089.333	13872.8
1094.385	13915.8
1099.431	13993.8
1104.472	13945.8
1109.509	13885.8
1114.54	13694.8
1119.565	13586.8
1124.586	13390.8
1129.602	13254.8
1134.613	13132.8
1139.618	13090.8
1144.619	13026.8
1149.614	13051.8
1154.604	13067.8
1159.589	13109.8
1164.57	13146.8
1169.545	13097.8
1174.515	13171.8
1179.48	13061.8
1184.44	12980.8
1189.395	12866.8
1194.345	12745.8
1199.29	12726.8
1204.23	12695.8
1209.165	12779.8
1214.095	12838.8
1219.021	12868.8
1223.941	12939.8
1228.856	13028.8
1233.766	13077.8
1238.672	13094.8
1243.572	13078.8
1248.467	12982.8
1253.358	12821.8
1258.244	12634.8
1263.124	12468.8
1268	12244.8
1272.871	12137.8
1277.737	12026.8
1282.599	11933.8
1287.455	11947.8
1292.306	12041.8
1297.153	12022.8
1301.995	12068.8
1306.832	12151.8
1311.664	12124.8
1316.491	12109.8
1321.314	11981.8
1326.132	11795.8
1330.945	11549.8
1335.753	11301.8
1340.556	10996.8
1345.354	10823.8
1350.148	10625.8
1354.937	10557.8
1359.722	10538.8
1364.501	10534.8
1369.276	10690.8
1374.046	10828.8
1378.811	10915.8
1383.572	11057.8
1388.327	11058.8
1393.079	11051.8
1397.825	10902.8
1402.567	10755.8
1407.304	10591.8
1412.036	10543.8
1416.764	10441.8
1421.487	10388.8
1426.205	10294.8
1430.919	10278.8
1435.628	10315.8
1440.333	10325.8
1445.032	10341.8
1449.727	10406.8
1454.418	10345.8
1459.104	10249.8
1463.785	10062.8
1468.462	9869.8
1473.134	9596.8
1477.802	9483.8
1482.465	9301.8
1487.123	9192.8
1491.777	9187.8
1496.426	9172.8
1501.071	9346.8
1505.711	9448.8
1510.347	9594.8
1514.978	9752.8
1519.604	9855.8
1524.226	9944.8
1528.844	9939.8
1533.457	9927.8
1538.065	9936.8
1542.669	9813.8
1547.269	9794.8
1551.864	9717.8
1556.454	9709.8
1561.041	9633.8
1565.622	9665.8
1570.199	9659.8
1574.772	9730.8
1579.34	9781.8
1583.904	9854.8
1588.464	9865.8
1593.019	9878.8
1597.569	9832.8
1602.115	9784.8
1606.657	9719.8
1611.195	9664.8
1615.728	9616.8
1620.256	9577.8
1624.78	9596.8
1629.3	9538.8
1633.816	9652.8
1638.327	9663.8
1642.834	9695.8
1647.336	9759.8
1651.834	9781.8
1656.328	9745.8
1660.817	9713.8
1665.302	9588.8
1669.783	9440.8
1674.259	9218.8
1678.732	8961.8
1683.199	8670.8
1687.663	8376.8
1692.122	8147.8
1696.577	8001.8
1701.028	7921.8
1705.474	7979.8
1709.917	8065.8
1714.355	8018.8
1718.788	7992.8
1723.218	7869.8
1727.643	7755.8
1732.064	7604.8
1736.481	7435.8
1740.893	7256.8
1745.301	7071.8
1749.705	6866.8
1754.105	6687.8
1758.501	6464.8
1762.893	6311.8
1767.28	6180.8
1771.663	6050.8
1776.042	5934.8
1780.417	5888.8
1784.787	5933.8
1789.154	5957.8
1793.516	6027.8
1797.874	6095.8
1802.228	6237.8
1806.578	6279.8
1810.924	6243.8
1815.266	6220.8
1819.603	6155.8
1823.937	6040.8
1828.266	5932.8
1832.591	5849.8
1836.913	5789.8
1841.23	5740.8
1845.543	5724.8
1849.852	5641.8
1854.156	5631.8
1858.457	5645.8
1862.754	5608.8
1867.047	5639.8
1871.335	5619.8
1875.62	5607.8
1879.9	5584.8
1884.177	5539.8
1888.449	5488.8
1892.718	5461.8
1896.982	5393.8
1901.243	5310.8
1905.499	5278.8
1909.752	5257.8
1914	5257.8
1918.245	5249.8
1922.485	5315.8
1926.722	5348.8
1930.954	5408.8
1935.183	5472.8
1939.408	5503.8
1943.628	5539.8
1947.845	5534.8
1952.058	5532.8
1956.267	5479.8
1960.472	5431.8
1964.673	5335.8
1968.87	5271.8
1973.063	5179.8
1977.252	5110.8
1981.438	5083.8
1985.619	5013.8
1989.797	5005.8
1993.971	4963.8
1998.14	4929.8
2002.306	4898.8
2006.469	4888.8
2010.627	4861.8
2014.781	4833.8
2018.932	4790.8
2023.078	4746.8
2027.221	4667.8
2031.36	4593.8
2035.495	4528.8
2039.627	4483.8
2043.754	4431.8
2047.878	4370.8
2051.998	4342.8
2056.114	4352.8
2060.226	4330.8
2064.334	4334.8
2068.439	4331.8
2072.54	4380.8
2076.637	4407.8
2080.73	4427.8
2084.82	4459.8
2088.906	4475.8
2092.988	4470.8
2097.066	4452.8
2101.14	4439.8
2105.211	4403.8
2109.278	4346.8
2113.342	4332.8
2117.401	4289.8
2121.457	4295.8
2125.509	4217.8
2129.558	4226.8
2133.602	4186.8
2137.643	4208.8
2141.681	4161.8
2145.714	4142.8
2149.744	4119.8
2153.77	4103.8
2157.793	4049.8
2161.812	3999.8
2165.827	3933.8
2169.838	3877.8
2173.846	3786.8
2177.851	3723.8
2181.851	3700.8
2185.848	3651.8
2189.841	3606.8
2193.831	3589.8
2197.817	3555.8
2201.799	3523.8
2205.778	3500.8
2209.753	3497.8
2213.725	3506.8
2217.693	3469.8
2221.657	3460.8
2225.618	3457.8
2229.575	3450.8
2233.529	3416.8
2237.479	3383.8
2241.425	3335.8
2245.368	3279.8
2249.307	3236.8
2253.243	3184.8
2257.175	3161.8
2261.104	3096.8
2265.029	3055.8
2268.95	3064.8
2272.868	3024.8
2276.783	2984.8
2280.694	2960.8
2284.601	2914.8
2288.505	2910.8
2292.405	2868.8
2296.302	2833.8
2300.195	2833.8
2304.085	2750.8
2307.971	2718.8
2311.854	2684.8
2315.734	2619.8
2319.609	2594.8
2323.482	2560.8
2327.351	2549.8
2331.216	2536.8
2335.078	2515.8
2338.937	2509.8
2342.792	2501.8
2346.643	2480.8
2350.492	2498.8
2354.336	2504.8
2358.178	2493.8
2362.015	2498.8
2365.85	2490.8
2369.681	2521.8
2373.508	2500.8
2377.333	2519.8
2381.153	2510.8
2384.971	2480.8
2388.785	2442.8
2392.595	2450.8
2396.402	2401.8
2400.206	2402.8
2404.007	2355.8
2407.804	2361.8
2411.597	2340.8
2415.388	2333.8
2419.174	2319.8
2422.958	2284.8
2426.738	2290.8
2430.515	2251.8
2434.289	2248.8
2438.059	2219.8
2441.825	2223.8
2445.589	2157.8
2449.349	2156.8
2453.106	2119.8
2456.859	2120.8
2460.61	2075.8
2464.356	2040.8
2468.1	2026.8
2471.84	1999.8
2475.577	1998.8
2479.311	1991.8
2483.041	1948.8
2486.768	1936.8
2490.492	1931.8
2494.213	1935.8
2497.93	1923.8
2501.644	1916.8
2505.355	1901.8
2509.062	1912.8
2512.766	1890.8
2516.467	1875.8
2520.165	1879.8
2523.859	1845.8
2527.551	1828.8
2531.239	1811.8
2534.923	1788.8
2538.605	1762.8
2542.283	1802.8
2545.958	1796.8
2549.63	1765.8
2553.299	1775.8
2556.964	1794.8
2560.626	1786.8
2564.285	1759.8
2567.941	1752.8
2571.594	1737.8
2575.243	1743.8
2578.89	1730.8
2582.533	1708.8
2586.173	1700.8
2589.809	1684.8
2593.443	1653.8
2597.073	1635.8
2600.701	1627.8
2604.325	1610.8
2607.946	1611.8
2611.564	1608.8
2615.178	1593.8
2618.79	1581.8
2622.398	1563.8
2626.004	1547.8
2629.606	1514.8
2633.205	1506.8
2636.801	1485.8
2640.394	1462.8
2643.983	1446.8
2647.57	1421.8
2651.153	1391.8
2654.734	1365.8
2658.311	1356.8
2661.885	1310.8
2665.456	1316.8
2669.025	1330.8
2672.589	1276.8
2676.151	1281.8
2679.71	1272.8
2683.266	1231.8
2686.819	1196.8
2690.368	1185.8
2693.915	1162.8
2697.458	1139.8
2700.999	1118.8
2704.536	1089.8
2708.071	1059.8
2711.602	1047.8
2715.13	1012.8
2718.656	990.8
2722.178	983.8
2725.697	945.8
2729.214	963.8
2732.727	950.8
2736.237	949.8
2739.744	927.8
2743.249	944.8
2746.75	942.8
2750.248	936.8
2753.743	943.8
2757.236	946.8
2760.725	974.8
2764.211	973.8
2767.695	979.8
2771.175	983.8
2774.652	970.8
2778.127	964.8
2781.598	952.8
2785.067	962.8
2788.532	937.8
2791.995	955.8
2795.455	943.8
2798.911	965.8
2802.365	949.8
2805.816	966.8
2809.264	963.8
2812.709	947.8
2816.151	946.8
2819.59	948.8
2823.026	939.8
2826.46	934.8
2829.89	962.8
2833.318	951.8
2836.742	963.8
2840.164	978.8
2843.583	981.8
2846.999	976.8
2850.412	988.8
2853.822	1018.8
2857.229	1024.8
2860.634	1022.8
2864.035	1052.8
2867.434	1068.8
2870.83	1092.8
2874.223	1124.8
2877.613	1149.8
2881	1162.8
2884.385	1163.8
2887.766	1180.8
2891.145	1156.8
2894.521	1159.8
2897.894	1154.8
2901.264	1153.8
2904.631	1145.8
2907.996	1149.8
2911.358	1191.8
2914.717	1183.8
2918.073	1166.8
2921.426	1195.8
2924.777	1220.8
2928.124	1256.8
2931.469	1245.8
2934.811	1285.8
2938.15	1292.8
2941.487	1313.8
2944.821	1332.8
2948.152	1320.8
2951.48	1320.8
2954.805	1287.8
2958.128	1280.8
2961.447	1268.8
2964.765	1270.8
2968.079	1273.8
2971.39	1261.8
2974.699	1312.8
2978.005	1296.8
2981.308	1312.8
2984.609	1367.8
2987.907	1405.8
2991.202	1430.8
2994.494	1446.8
2997.784	1492.8
3001.07	1491.8
3004.355	1536.8
3007.636	1546.8
3010.915	1576.8
3014.191	1589.8
3017.464	1592.8
3020.734	1597.8
3024.002	1630.8
3027.267	1624.8
3030.53	1645.8
3033.789	1666.8
3037.046	1661.8
3040.301	1723.8
3043.552	1752.8
3046.801	1784.8
3050.048	1846.8
3053.291	1872.8
3056.532	1927.8
3059.771	1965.8
3063.006	2044.8
3066.239	2107.8
3069.469	2337.8
3072.697	2259.8
3075.922	2275.8
3079.144	2336.8
3082.364	2390.8
3085.581	2426.8
3088.795	2490.8
3092.007	2730.8
3095.216	2820.8
3098.423	2681.8
3101.627	2736.8
3104.828	2780.8
3108.026	2856.8
3111.222	2913.8
3114.416	2980.8
3117.607	3045.8
3120.795	3096.8
3123.98	3183.8
3127.163	3270.8
3130.344	3337.8
3133.521	3419.8
3136.696	3491.8
3139.869	3557.8
3143.039	3625.8
3146.206	3688.8
3149.371	3740.8
3152.533	3752.8
3155.693	3784.8
3158.85	3812.8
3162.005	3814.8
3165.157	3822.8
3168.306	3845.8
3171.453	3855.8
3174.597	3874.8
3177.739	3855.8
3180.878	3860.8
3184.014	3873.8
3187.149	3874.8
3190.28	3863.8
3193.409	3891.8
3196.536	3887.8
3199.659	3874.8
3202.781	3911.8
3205.9	3912.8
3209.016	3892.8
3212.13	3863.8
3215.241	3827.8
3218.35	3791.8
3221.456	3769.8
3224.56	3740.8
3227.661	3674.8
3230.76	3645.8
3233.856	3592.8
3236.95	3593.8
3240.041	3557.8
3243.13	3505.8
3246.216	3509.8
3249.3	3468.8
3252.382	3486.8
3255.46	3434.8
3258.537	3461.8
3261.611	3439.8
3264.682	3437.8
3267.751	3418.8
3270.818	3413.8
3273.882	3419.8
3276.943	3400.8
3280.002	3365.8
3283.059	3321.8
3286.113	3307.8
3289.165	3266.8
3292.214	3171.8
3295.261	3144.8
3298.306	3114.8
3301.348	3022.8
3304.387	2998.8
3307.425	2962.8
3310.459	2926.8
3313.492	2848.8
3316.521	2829.8
3319.549	2790.8
3322.574	2761.8
3325.597	2737.8
3328.617	2738.8
3331.635	2684.8
3334.65	2694.8
3337.663	2652.8
3340.674	2674.8
3343.682	2638.8
3346.688	2636.8
3349.691	2628.8
3352.692	2625.8
3355.691	2592.8
3358.687	2575.8
3361.681	2522.8
3364.673	2516.8
3367.662	2475.8
3370.649	2427.8
3373.633	2383.8
3376.615	2368.8
3379.595	2348.8
3382.572	2294.8
3385.547	2258.8
3388.52	2226.8
3391.49	2169.8
3394.458	2164.8
3397.424	2120.8
3400.387	2112.8
3403.348	2053.8
3406.307	2033.8
3409.263	2055.8
3412.217	1997.8
3415.168	1962.8
3418.118	1948.8
3421.065	1933.8
3424.009	1887.8
3426.951	1841.8
3429.891	1831.8
3432.829	1786.8
3435.764	1745.8
3438.697	1699.8
3441.628	1657.8
3444.557	1614.8
3447.483	1549.8
3450.407	1516.8
3453.328	1479.8
3456.247	1403.8
3459.164	1337.8
3462.079	1308.8
3464.991	1260.8
3467.902	1206.8
3470.809	1150.8
3473.715	1114.8
3476.618	1068.8
3479.519	1046.8
3482.418	988.8
3485.315	959.8
3488.209	908.8
3491.101	890.8
3493.99	856.8
3496.878	814.8
3499.763	788.8
3502.646	754.8
3505.527	719.8
3508.405	685.8
3511.281	624.8
3514.155	600.8
3517.027	557.8
3519.897	534.8
3522.764	504.8
3525.629	437.8
3528.492	414.8
3531.352	359.8
3534.211	331.8
3537.067	293.8
3539.921	253.8
3542.773	239.8
3545.622	193.8
3548.469	176.8
3551.315	151.8
3554.157	114.8
3556.998	88.8
3559.837	77.8
3562.673	40.8
3565.507	13.8
3568.339	0.8
3571.169	-24.2
3573.996	-43.2
3576.822	-52.2
3579.645	-83.2
3582.466	-93.2
3585.285	-113.2
3588.101	-118.2
3590.916	-150.2
3593.728	-169.2
3596.538	-188.2
3599.346	-204.2
3602.152	-212.2
3604.956	-235.2
3607.757	-254.2
3610.556	-260.2
3613.354	-282.2
3616.149	-282.2
3618.942	-300.2
3621.732	-306.2
3624.521	-311.2
3627.307	-325.2
3630.092	-340.2
3632.874	-350.2
3635.654	-357.2
3638.432	-363.2
3641.208	-372.2
3643.982	-383.2
3646.753	-399.2
3649.523	-411.2
3652.29	-415.2
3655.055	-425.2
3657.818	-431.2
3660.579	-444.2
3663.338	-448.2
3666.095	-459.2
3668.849	-473.2
3671.602	-476.2
3674.352	-479.2
3677.101	-488.2
3679.847	-501.2
3682.591	-493.2
3685.333	-501.2
3688.073	-507.2
3690.811	-521.2
3693.547	-518.2
3696.281	-529.2
3699.013	-529.2
3701.742	-542.2
3704.47	-545.2
3707.195	-551.2
3709.919	-553.2
3712.64	-555.2
3715.359	-565.2
3718.076	-559.2
3720.792	-565.2
3723.505	-563.2
3726.216	-569.2
3728.925	-574.2
3731.632	-586.2
3734.336	-581.2
3737.039	-595.2
3739.74	-585.2
3742.439	-593.2
3745.136	-592.2
3747.83	-594.2
3750.523	-597.2
3753.213	-583.2
3755.902	-593.2
3758.589	-588.2
3761.273	-595.2
3763.956	-604.2
3766.636	-610.2
3769.315	-604.2
3771.991	-611.2
3774.665	-617.2
3777.338	-610.2
3780.008	-614.2
3782.677	-611.2
3785.343	-616.2
3788.007	-607.2
3790.67	-622.2
3793.33	-620.2
3795.989	-617.2
3798.645	-620.2
3801.299	-622.2
3803.952	-625.2
3806.602	-629.2
3809.251	-631.2
3811.897	-623.2
3814.542	-620.2
3817.184	-632.2
3819.825	-622.2
3822.463	-630.2
3825.1	-629.2
3827.735	-633.2
3830.367	-633.2
3832.998	-634.2
3835.627	-633.2
3838.253	-635.2
3840.878	-635.2
3843.501	-638.2
3846.122	-631.2
3848.741	-636.2
3851.358	-638.2
3853.973	-630.2
3856.586	-639.2
3859.197	-636.2
3861.806	-636.2
3864.414	-630.2
3867.019	-632.2
3869.622	-638.2
3872.224	-629.2
3874.823	-623.2
3877.421	-595.2
3880.016	-588.2
3882.61	-557.2
3885.202	-559.2
3887.792	-585.2
3890.38	-605.2
3892.966	-625.2
3895.55	-635.2
3898.132	-638.2
3900.713	-645.2
3903.291	-648.2
3905.868	-650.2
3908.442	-646.2
3911.015	-651.2
3913.586	-644.2
3916.155	-648.2
3918.722	-645.2
3921.287	-647.2
3923.85	-648.2
3926.411	-654.2
3928.971	-650.2
3931.528	-648.2
3934.084	-644.2
3936.638	-652.2
3939.19	-652.2
3941.74	-658.2
3944.288	-650.2
3946.834	-652.2
3949.378	-652.2
3951.921	-651.2
3954.462	-655.2
3957	-649.2
3959.537	-647.2
3962.072	-652.2
3964.606	-651.2
3967.137	-652.2
3969.667	-652.2
3972.194	-647.2
3974.72	-644.2
3977.244	-645.2
3979.766	-641.2
3982.286	-643.2
3984.805	-630.2
3987.321	-635.2
3989.836	-637.2
3992.349	-636.2
3994.86	-632.2
3997.369	-639.2
3999.877	-634.2
4002.382	-640.2
4004.886	-637.2
4007.388	-639.2
4009.888	-637.2
4012.386	-637.2
4014.883	-632.2
4017.377	-634.2
4019.87	-630.2
4022.361	-639.2
4024.85	-644.2
4027.338	-642.2
4029.823	-636.2
4032.307	-639.2
4034.789	-646.2
4037.269	-651.2
4039.747	-649.2
4042.224	-642.2
4044.699	-644.2
4047.172	-643.2
4049.643	-641.2
4052.112	-643.2
4054.58	-632.2
4057.046	-646.2
4059.51	-641.2
4061.972	-644.2
4064.432	-643.2
4066.891	-636.2
4069.348	-646.2
4071.803	-646.2
4074.256	-641.2
4076.708	-646.2
4079.158	-645.2
4081.606	-642.2
4084.052	-635.2
4086.497	-637.2
4088.939	-636.2
4091.38	-632.2
4093.819	-636.2
4096.257	-672.2
4098.693	-677.2
4101.127	-677.2
4103.559	-679.2
4105.989	-410.2
4108.418	-390.2
4110.845	-368.2
4113.27	-341.2
4115.694	-297.2
4118.115	-254.2
4120.535	-634.2
4122.954	-644.2
4125.37	-637.2
4127.785	-638.2
4130.198	-648.2
4132.609	-635.2
4135.019	-677.2
4137.427	-675.2
4139.833	-675.2
4142.237	-675.2
