Data from 2018-2-7_conc=5_RamanShift_08.txt Node
Date: Tue Feb 13 14:01:13 IST 2018
User: aro
Spectrometer: QEPB0276
Trigger mode: 0
Integration Time (sec): 3.000000E1
Scans to average: 1
Electric dark correction enabled: true
Nonlinearity correction enabled: false
Boxcar width: 0
XAxis mode: Raman Shifts
Number of Pixels in Spectrum: 1044
>>>>>Begin Spectral Data<<<<<
160.701	-142.6
166.742	23.4
172.777	542.4
178.805	2136.4
184.826	5839.4
190.841	12062.4
196.849	18959.4
202.85	23714.4
208.845	25250.4
214.833	24989.4
220.815	24440.4
226.789	24307.4
232.758	24237.4
238.719	24054.4
244.674	23691.4
250.623	23219.4
256.565	22786.4
262.5	22334.4
268.429	21897.4
274.351	21552.4
280.267	21243.4
286.176	20989.4
292.079	20835.4
297.975	20642.4
303.865	20466.4
309.748	20348.4
315.625	20154.4
321.495	20031.4
327.359	20060.4
333.217	20007.4
339.068	19985.4
344.912	19933.4
350.751	19846.4
356.583	19888.4
362.408	19839.4
368.227	19906.4
374.04	19942.4
379.847	19955.4
385.647	20040.4
391.44	20061.4
397.228	20183.4
403.009	20263.4
408.784	20352.4
414.553	20380.4
420.315	20412.4
426.071	20438.4
431.821	20371.4
437.565	20390.4
443.302	20431.4
449.033	20335.4
454.758	20320.4
460.477	20263.4
466.189	20240.4
471.896	20143.4
477.596	20120.4
483.29	20106.4
488.978	19978.4
494.66	20004.4
500.335	19835.4
506.005	19680.4
511.668	19387.4
517.325	19244.4
522.977	19032.4
528.622	18869.4
534.261	18809.4
539.894	18591.4
545.521	18551.4
551.141	18552.4
556.756	18491.4
562.365	18350.4
567.968	18359.4
573.565	18233.4
579.155	18198.4
584.74	18147.4
590.319	17992.4
595.892	17981.4
601.459	17947.4
607.02	17827.4
612.575	17759.4
618.124	17620.4
623.667	17517.4
629.204	17401.4
634.735	17367.4
640.261	17266.4
645.781	17236.4
651.294	17167.4
656.802	17095.4
662.304	17124.4
667.8	17084.4
673.29	17065.4
678.775	17025.4
684.254	17010.4
689.726	16918.4
695.193	16835.4
700.655	16749.4
706.11	16679.4
711.56	16628.4
717.004	16541.4
722.442	16510.4
727.874	16451.4
733.301	16327.4
738.722	16307.4
744.137	16235.4
749.547	16262.4
754.951	16245.4
760.349	16298.4
765.741	16305.4
771.128	16252.4
776.509	16360.4
781.885	16261.4
787.254	16268.4
792.618	16192.4
797.977	16037.4
803.33	15964.4
808.677	15887.4
814.019	15793.4
819.355	15736.4
824.686	15605.4
830.011	15588.4
835.33	15576.4
840.644	15610.4
845.952	15660.4
851.255	15664.4
856.552	15686.4
861.844	15647.4
867.13	15673.4
872.41	15598.4
877.686	15480.4
882.955	15350.4
888.219	15243.4
893.478	15050.4
898.731	14856.4
903.979	14768.4
909.221	14623.4
914.458	14573.4
919.69	14571.4
924.916	14589.4
930.136	14720.4
935.351	14664.4
940.561	14667.4
945.766	14611.4
950.965	14576.4
956.158	14445.4
961.347	14322.4
966.529	14170.4
971.707	13954.4
976.879	13841.4
982.046	13666.4
987.208	13596.4
992.364	13626.4
997.515	13751.4
1002.66	13833.4
1007.801	14005.4
1012.936	14069.4
1018.066	14115.4
1023.19	14111.4
1028.309	14139.4
1033.423	14061.4
1038.532	14004.4
1043.636	13842.4
1048.734	13724.4
1053.827	13497.4
1058.915	13383.4
1063.998	13281.4
1069.075	13239.4
1074.147	13267.4
1079.214	13360.4
1084.276	13372.4
1089.333	13463.4
1094.385	13521.4
1099.431	13532.4
1104.472	13602.4
1109.509	13468.4
1114.54	13270.4
1119.565	13169.4
1124.586	12972.4
1129.602	12896.4
1134.613	12769.4
1139.618	12706.4
1144.619	12662.4
1149.614	12684.4
1154.604	12718.4
1159.589	12736.4
1164.57	12793.4
1169.545	12794.4
1174.515	12774.4
1179.48	12675.4
1184.44	12624.4
1189.395	12536.4
1194.345	12472.4
1199.29	12394.4
1204.23	12355.4
1209.165	12427.4
1214.095	12491.4
1219.021	12533.4
1223.941	12628.4
1228.856	12662.4
1233.766	12722.4
1238.672	12700.4
1243.572	12756.4
1248.467	12610.4
1253.358	12505.4
1258.244	12339.4
1263.124	12116.4
1268	11936.4
1272.871	11822.4
1277.737	11716.4
1282.599	11691.4
1287.455	11671.4
1292.306	11681.4
1297.153	11729.4
1301.995	11808.4
1306.832	11780.4
1311.664	11797.4
1316.491	11760.4
1321.314	11650.4
1326.132	11543.4
1330.945	11228.4
1335.753	11007.4
1340.556	10689.4
1345.354	10477.4
1350.148	10331.4
1354.937	10212.4
1359.722	10209.4
1364.501	10221.4
1369.276	10335.4
1374.046	10419.4
1378.811	10521.4
1383.572	10671.4
1388.327	10716.4
1393.079	10680.4
1397.825	10598.4
1402.567	10418.4
1407.304	10260.4
1412.036	10249.4
1416.764	10143.4
1421.487	10113.4
1426.205	10041.4
1430.919	10036.4
1435.628	10023.4
1440.333	10049.4
1445.032	10052.4
1449.727	10089.4
1454.418	10057.4
1459.104	9962.4
1463.785	9771.4
1468.462	9594.4
1473.134	9295.4
1477.802	9125.4
1482.465	9014.4
1487.123	8842.4
1491.777	8839.4
1496.426	8828.4
1501.071	8909.4
1505.711	9087.4
1510.347	9195.4
1514.978	9353.4
1519.604	9454.4
1524.226	9544.4
1528.844	9548.4
1533.457	9545.4
1538.065	9524.4
1542.669	9458.4
1547.269	9415.4
1551.864	9374.4
1556.454	9311.4
1561.041	9333.4
1565.622	9321.4
1570.199	9364.4
1574.772	9398.4
1579.34	9469.4
1583.904	9568.4
1588.464	9581.4
1593.019	9587.4
1597.569	9540.4
1602.115	9484.4
1606.657	9394.4
1611.195	9378.4
1615.728	9310.4
1620.256	9276.4
1624.78	9281.4
1629.3	9307.4
1633.816	9291.4
1638.327	9354.4
1642.834	9355.4
1647.336	9423.4
1651.834	9419.4
1656.328	9392.4
1660.817	9339.4
1665.302	9213.4
1669.783	9043.4
1674.259	8789.4
1678.732	8597.4
1683.199	8265.4
1687.663	7984.4
1692.122	7718.4
1696.577	7600.4
1701.028	7562.4
1705.474	7540.4
1709.917	7640.4
1714.355	7676.4
1718.788	7642.4
1723.218	7533.4
1727.643	7423.4
1732.064	7275.4
1736.481	7125.4
1740.893	6925.4
1745.301	6766.4
1749.705	6588.4
1754.105	6406.4
1758.501	6207.4
1762.893	6045.4
1767.28	5860.4
1771.663	5761.4
1776.042	5627.4
1780.417	5571.4
1784.787	5575.4
1789.154	5607.4
1793.516	5651.4
1797.874	5747.4
1802.228	5866.4
1806.578	5934.4
1810.924	5962.4
1815.266	5891.4
1819.603	5858.4
1823.937	5748.4
1828.266	5657.4
1832.591	5581.4
1836.913	5531.4
1841.23	5470.4
1845.543	5424.4
1849.852	5423.4
1854.156	5387.4
1858.457	5414.4
1862.754	5380.4
1867.047	5371.4
1871.335	5336.4
1875.62	5316.4
1879.9	5327.4
1884.177	5224.4
1888.449	5193.4
1892.718	5153.4
1896.982	5087.4
1901.243	5031.4
1905.499	5006.4
1909.752	4945.4
1914	4947.4
1918.245	4958.4
1922.485	5002.4
1926.722	5047.4
1930.954	5063.4
1935.183	5141.4
1939.408	5207.4
1943.628	5231.4
1947.845	5252.4
1952.058	5208.4
1956.267	5201.4
1960.472	5122.4
1964.673	5078.4
1968.87	4987.4
1973.063	4911.4
1977.252	4855.4
1981.438	4792.4
1985.619	4763.4
1989.797	4725.4
1993.971	4705.4
1998.14	4653.4
2002.306	4670.4
2006.469	4659.4
2010.627	4643.4
2014.781	4616.4
2018.932	4544.4
2023.078	4504.4
2027.221	4441.4
2031.36	4379.4
2035.495	4272.4
2039.627	4261.4
2043.754	4190.4
2047.878	4156.4
2051.998	4108.4
2056.114	4103.4
2060.226	4071.4
2064.334	4090.4
2068.439	4108.4
2072.54	4098.4
2076.637	4142.4
2080.73	4164.4
2084.82	4191.4
2088.906	4186.4
2092.988	4188.4
2097.066	4207.4
2101.14	4180.4
2105.211	4146.4
2109.278	4106.4
2113.342	4087.4
2117.401	4055.4
2121.457	4038.4
2125.509	4031.4
2129.558	4006.4
2133.602	3967.4
2137.643	3943.4
2141.681	3976.4
2145.714	3926.4
2149.744	3923.4
2153.77	3893.4
2157.793	3831.4
2161.812	3810.4
2165.827	3735.4
2169.838	3701.4
2173.846	3639.4
2177.851	3575.4
2181.851	3531.4
2185.848	3462.4
2189.841	3462.4
2193.831	3429.4
2197.817	3394.4
2201.799	3389.4
2205.778	3356.4
2209.753	3332.4
2213.725	3315.4
2217.693	3323.4
2221.657	3296.4
2225.618	3318.4
2229.575	3284.4
2233.529	3277.4
2237.479	3208.4
2241.425	3175.4
2245.368	3132.4
2249.307	3066.4
2253.243	3060.4
2257.175	3029.4
2261.104	2989.4
2265.029	2946.4
2268.95	2898.4
2272.868	2875.4
2276.783	2830.4
2280.694	2795.4
2284.601	2784.4
2288.505	2790.4
2292.405	2746.4
2296.302	2705.4
2300.195	2697.4
2304.085	2675.4
2307.971	2630.4
2311.854	2608.4
2315.734	2549.4
2319.609	2530.4
2323.482	2482.4
2327.351	2467.4
2331.216	2471.4
2335.078	2449.4
2338.937	2435.4
2342.792	2411.4
2346.643	2420.4
2350.492	2409.4
2354.336	2421.4
2358.178	2425.4
2362.015	2419.4
2365.85	2441.4
2369.681	2442.4
2373.508	2452.4
2377.333	2460.4
2381.153	2446.4
2384.971	2441.4
2388.785	2401.4
2392.595	2416.4
2396.402	2356.4
2400.206	2371.4
2404.007	2354.4
2407.804	2360.4
2411.597	2317.4
2415.388	2274.4
2419.174	2284.4
2422.958	2272.4
2426.738	2269.4
2430.515	2227.4
2434.289	2228.4
2438.059	2186.4
2441.825	2178.4
2445.589	2156.4
2449.349	2128.4
2453.106	2086.4
2456.859	2073.4
2460.61	2049.4
2464.356	2042.4
2468.1	2004.4
2471.84	1991.4
2475.577	1950.4
2479.311	1934.4
2483.041	1923.4
2486.768	1924.4
2490.492	1922.4
2494.213	1903.4
2497.93	1895.4
2501.644	1882.4
2505.355	1883.4
2509.062	1854.4
2512.766	1860.4
2516.467	1823.4
2520.165	1849.4
2523.859	1809.4
2527.551	1789.4
2531.239	1782.4
2534.923	1767.4
2538.605	1733.4
2542.283	1747.4
2545.958	1757.4
2549.63	1744.4
2553.299	1751.4
2556.964	1732.4
2560.626	1719.4
2564.285	1727.4
2567.941	1700.4
2571.594	1687.4
2575.243	1675.4
2578.89	1678.4
2582.533	1667.4
2586.173	1645.4
2589.809	1624.4
2593.443	1622.4
2597.073	1600.4
2600.701	1587.4
2604.325	1571.4
2607.946	1575.4
2611.564	1561.4
2615.178	1560.4
2618.79	1537.4
2622.398	1542.4
2626.004	1530.4
2629.606	1498.4
2633.205	1482.4
2636.801	1467.4
2640.394	1442.4
2643.983	1416.4
2647.57	1411.4
2651.153	1396.4
2654.734	1355.4
2658.311	1329.4
2661.885	1313.4
2665.456	1299.4
2669.025	1277.4
2672.589	1269.4
2676.151	1256.4
2679.71	1235.4
2683.266	1215.4
2686.819	1187.4
2690.368	1170.4
2693.915	1163.4
2697.458	1119.4
2700.999	1099.4
2704.536	1059.4
2708.071	1024.4
2711.602	1036.4
2715.13	1009.4
2718.656	980.4
2722.178	952.4
2725.697	947.4
2729.214	934.4
2732.727	923.4
2736.237	919.4
2739.744	916.4
2743.249	902.4
2746.75	895.4
2750.248	917.4
2753.743	903.4
2757.236	932.4
2760.725	929.4
2764.211	932.4
2767.695	928.4
2771.175	935.4
2774.652	928.4
2778.127	939.4
2781.598	938.4
2785.067	924.4
2788.532	914.4
2791.995	918.4
2795.455	942.4
2798.911	920.4
2802.365	938.4
2805.816	922.4
2809.264	916.4
2812.709	929.4
2816.151	914.4
2819.59	920.4
2823.026	929.4
2826.46	930.4
2829.89	923.4
2833.318	939.4
2836.742	940.4
2840.164	950.4
2843.583	947.4
2846.999	953.4
2850.412	986.4
2853.822	996.4
2857.229	989.4
2860.634	1005.4
2864.035	1024.4
2867.434	1052.4
2870.83	1067.4
2874.223	1084.4
2877.613	1108.4
2881	1117.4
2884.385	1122.4
2887.766	1107.4
2891.145	1120.4
2894.521	1120.4
2897.894	1104.4
2901.264	1131.4
2904.631	1112.4
2907.996	1118.4
2911.358	1126.4
2914.717	1141.4
2918.073	1159.4
2921.426	1158.4
2924.777	1164.4
2928.124	1192.4
2931.469	1210.4
2934.811	1222.4
2938.15	1240.4
2941.487	1259.4
2944.821	1242.4
2948.152	1263.4
2951.48	1246.4
2954.805	1244.4
2958.128	1216.4
2961.447	1228.4
2964.765	1209.4
2968.079	1197.4
2971.39	1233.4
2974.699	1232.4
2978.005	1246.4
2981.308	1278.4
2984.609	1294.4
2987.907	1318.4
2991.202	1337.4
2994.494	1368.4
2997.784	1377.4
3001.07	1430.4
3004.355	1446.4
3007.636	1471.4
3010.915	1493.4
3014.191	1490.4
3017.464	1521.4
3020.734	1505.4
3024.002	1516.4
3027.267	1546.4
3030.53	1566.4
3033.789	1576.4
3037.046	1583.4
3040.301	1645.4
3043.552	1641.4
3046.801	1688.4
3050.048	1742.4
3053.291	1771.4
3056.532	1825.4
3059.771	1858.4
3063.006	1918.4
3066.239	1973.4
3069.469	2052.4
3072.697	2088.4
3075.922	2124.4
3079.144	2198.4
3082.364	2232.4
3085.581	2289.4
3088.795	2337.4
3092.007	2400.4
3095.216	2450.4
3098.423	2508.4
3101.627	2556.4
3104.828	2627.4
3108.026	2669.4
3111.222	2746.4
3114.416	2795.4
3117.607	2876.4
3120.795	2929.4
3123.98	3035.4
3127.163	3079.4
3130.344	3134.4
3133.521	3223.4
3136.696	3284.4
3139.869	3369.4
3143.039	3412.4
3146.206	3478.4
3149.371	3481.4
3152.533	3541.4
3155.693	3587.4
3158.85	3592.4
3162.005	3576.4
3165.157	3627.4
3168.306	3619.4
3171.453	3624.4
3174.597	3642.4
3177.739	3605.4
3180.878	3633.4
3184.014	3640.4
3187.149	3629.4
3190.28	3623.4
3193.409	3632.4
3196.536	3678.4
3199.659	3649.4
3202.781	3693.4
3205.9	3689.4
3209.016	3663.4
3212.13	3664.4
3215.241	3647.4
3218.35	3582.4
3221.456	3560.4
3224.56	3538.4
3227.661	3454.4
3230.76	3412.4
3233.856	3400.4
3236.95	3373.4
3240.041	3325.4
3243.13	3316.4
3246.216	3270.4
3249.3	3262.4
3252.382	3248.4
3255.46	3224.4
3258.537	3220.4
3261.611	3215.4
3264.682	3242.4
3267.751	3227.4
3270.818	3183.4
3273.882	3193.4
3276.943	3170.4
3280.002	3141.4
3283.059	3145.4
3286.113	3099.4
3289.165	3034.4
3292.214	3008.4
3295.261	2941.4
3298.306	2887.4
3301.348	2860.4
3304.387	2806.4
3307.425	2748.4
3310.459	2740.4
3313.492	2681.4
3316.521	2668.4
3319.549	2631.4
3322.574	2603.4
3325.597	2565.4
3328.617	2558.4
3331.635	2531.4
3334.65	2533.4
3337.663	2510.4
3340.674	2516.4
3343.682	2506.4
3346.688	2506.4
3349.691	2468.4
3352.692	2482.4
3355.691	2464.4
3358.687	2421.4
3361.681	2398.4
3364.673	2363.4
3367.662	2332.4
3370.649	2289.4
3373.633	2246.4
3376.615	2230.4
3379.595	2201.4
3382.572	2171.4
3385.547	2132.4
3388.52	2108.4
3391.49	2048.4
3394.458	2029.4
3397.424	1987.4
3400.387	1970.4
3403.348	1944.4
3406.307	1911.4
3409.263	1899.4
3412.217	1881.4
3415.168	1849.4
3418.118	1847.4
3421.065	1812.4
3424.009	1770.4
3426.951	1751.4
3429.891	1722.4
3432.829	1680.4
3435.764	1617.4
3438.697	1591.4
3441.628	1556.4
3444.557	1505.4
3447.483	1469.4
3450.407	1421.4
3453.328	1364.4
3456.247	1314.4
3459.164	1277.4
3462.079	1222.4
3464.991	1171.4
3467.902	1123.4
3470.809	1082.4
3473.715	1036.4
3476.618	1011.4
3479.519	967.4
3482.418	947.4
3485.315	896.4
3488.209	867.4
3491.101	823.4
3493.99	804.4
3496.878	765.4
3499.763	732.4
3502.646	707.4
3505.527	666.4
3508.405	648.4
3511.281	614.4
3514.155	572.4
3517.027	530.4
3519.897	489.4
3522.764	457.4
3525.629	409.4
3528.492	385.4
3531.352	326.4
3534.211	298.4
3537.067	270.4
3539.921	232.4
3542.773	207.4
3545.622	166.4
3548.469	149.4
3551.315	118.4
3554.157	106.4
3556.998	77.4
3559.837	49.4
3562.673	14.4
3565.507	12.4
3568.339	0.4
3571.169	-24.6
3573.996	-44.6
3576.822	-65.6
3579.645	-80.6
3582.466	-106.6
3585.285	-115.6
3588.101	-116.6
3590.916	-149.6
3593.728	-162.6
3596.538	-181.6
3599.346	-194.6
3602.152	-207.6
3604.956	-239.6
3607.757	-242.6
3610.556	-253.6
3613.354	-266.6
3616.149	-280.6
3618.942	-288.6
3621.732	-300.6
3624.521	-310.6
3627.307	-319.6
3630.092	-332.6
3632.874	-333.6
3635.654	-343.6
3638.432	-351.6
3641.208	-354.6
3643.982	-369.6
3646.753	-380.6
3649.523	-394.6
3652.29	-398.6
3655.055	-394.6
3657.818	-403.6
3660.579	-424.6
3663.338	-423.6
3666.095	-435.6
3668.849	-453.6
3671.602	-459.6
3674.352	-453.6
3677.101	-466.6
3679.847	-469.6
3682.591	-477.6
3685.333	-475.6
3688.073	-488.6
3690.811	-492.6
3693.547	-497.6
3696.281	-504.6
3699.013	-505.6
3701.742	-512.6
3704.47	-514.6
3707.195	-525.6
3709.919	-520.6
3712.64	-525.6
3715.359	-525.6
3718.076	-524.6
3720.792	-535.6
3723.505	-535.6
3726.216	-540.6
3728.925	-542.6
3731.632	-547.6
3734.336	-549.6
3737.039	-560.6
3739.74	-556.6
3742.439	-555.6
3745.136	-561.6
3747.83	-563.6
3750.523	-566.6
3753.213	-566.6
3755.902	-564.6
3758.589	-568.6
3761.273	-566.6
3763.956	-574.6
3766.636	-570.6
3769.315	-582.6
3771.991	-573.6
3774.665	-575.6
3777.338	-576.6
3780.008	-576.6
3782.677	-577.6
3785.343	-589.6
3788.007	-581.6
3790.67	-582.6
3793.33	-583.6
3795.989	-585.6
3798.645	-591.6
3801.299	-593.6
3803.952	-596.6
3806.602	-591.6
3809.251	-592.6
3811.897	-590.6
3814.542	-588.6
3817.184	-595.6
3819.825	-595.6
3822.463	-588.6
3825.1	-589.6
3827.735	-597.6
3830.367	-603.6
3832.998	-606.6
3835.627	-607.6
3838.253	-602.6
3840.878	-602.6
3843.501	-611.6
3846.122	-604.6
3848.741	-603.6
3851.358	-604.6
3853.973	-604.6
3856.586	-601.6
3859.197	-608.6
3861.806	-609.6
3864.414	-599.6
3867.019	-601.6
3869.622	-609.6
3872.224	-602.6
3874.823	-585.6
3877.421	-566.6
3880.016	-553.6
3882.61	-516.6
3885.202	-519.6
3887.792	-548.6
3890.38	-563.6
3892.966	-595.6
3895.55	-599.6
3898.132	-604.6
3900.713	-612.6
3903.291	-614.6
3905.868	-612.6
3908.442	-615.6
3911.015	-611.6
3913.586	-612.6
3916.155	-613.6
3918.722	-611.6
3921.287	-615.6
3923.85	-614.6
3926.411	-620.6
3928.971	-616.6
3931.528	-617.6
3934.084	-612.6
3936.638	-617.6
3939.19	-615.6
3941.74	-618.6
3944.288	-621.6
3946.834	-620.6
3949.378	-625.6
3951.921	-621.6
3954.462	-618.6
3957	-615.6
3959.537	-609.6
3962.072	-611.6
3964.606	-613.6
3967.137	-616.6
3969.667	-617.6
3972.194	-614.6
3974.72	-610.6
3977.244	-607.6
3979.766	-608.6
3982.286	-608.6
3984.805	-605.6
3987.321	-605.6
3989.836	-606.6
3992.349	-607.6
3994.86	-599.6
3997.369	-617.6
3999.877	-605.6
4002.382	-601.6
4004.886	-609.6
4007.388	-602.6
4009.888	-602.6
4012.386	-607.6
4014.883	-602.6
4017.377	-600.6
4019.87	-602.6
4022.361	-605.6
4024.85	-603.6
4027.338	-605.6
4029.823	-601.6
4032.307	-609.6
4034.789	-607.6
4037.269	-615.6
4039.747	-608.6
4042.224	-605.6
4044.699	-606.6
4047.172	-610.6
4049.643	-607.6
4052.112	-611.6
4054.58	-603.6
4057.046	-613.6
4059.51	-611.6
4061.972	-616.6
4064.432	-613.6
4066.891	-609.6
4069.348	-608.6
4071.803	-614.6
4074.256	-606.6
4076.708	-605.6
4079.158	-610.6
4081.606	-609.6
4084.052	-603.6
4086.497	-609.6
4088.939	-602.6
4091.38	-600.6
4093.819	-604.6
4096.257	-637.6
4098.693	-635.6
4101.127	-641.6
4103.559	-641.6
4105.989	-391.6
4108.418	-367.6
4110.845	-346.6
4113.27	-320.6
4115.694	-269.6
4118.115	-224.6
4120.535	-608.6
4122.954	-609.6
4125.37	-607.6
4127.785	-603.6
4130.198	-611.6
4132.609	-605.6
4135.019	-638.6
4137.427	-642.6
4139.833	-638.6
4142.237	-639.6
