Data from 2018-2-7_conc=3_RamanShift_21.txt Node
Date: Tue Feb 13 12:36:14 IST 2018
User: aro
Spectrometer: QEPB0276
Trigger mode: 0
Integration Time (sec): 3.000000E1
Scans to average: 1
Electric dark correction enabled: true
Nonlinearity correction enabled: false
Boxcar width: 0
XAxis mode: Raman Shifts
Number of Pixels in Spectrum: 1044
>>>>>Begin Spectral Data<<<<<
160.701	-158.5
166.742	35.5
172.777	576.5
178.805	2220.5
184.826	6093.5
190.841	12610.5
196.849	19950.5
202.85	25063.5
208.845	26606.5
214.833	26296.5
220.815	25756.5
226.789	25579.5
232.758	25441.5
238.719	25250.5
244.674	24875.5
250.623	24333.5
256.565	23829.5
262.5	23269.5
268.429	22847.5
274.351	22518.5
280.267	22139.5
286.176	21907.5
292.079	21654.5
297.975	21423.5
303.865	21195.5
309.748	21047.5
315.625	20901.5
321.495	20796.5
327.359	20684.5
333.217	20622.5
339.068	20658.5
344.912	20566.5
350.751	20562.5
356.583	20517.5
362.408	20533.5
368.227	20428.5
374.04	20527.5
379.847	20553.5
385.647	20673.5
391.44	20767.5
397.228	20779.5
403.009	20931.5
408.784	20986.5
414.553	21071.5
420.315	21070.5
426.071	21120.5
431.821	21105.5
437.565	21052.5
443.302	21025.5
449.033	21004.5
454.758	20928.5
460.477	20916.5
466.189	20829.5
471.896	20828.5
477.596	20794.5
483.29	20672.5
488.978	20675.5
494.66	20646.5
500.335	20528.5
506.005	20318.5
511.668	20016.5
517.325	19788.5
522.977	19630.5
528.622	19455.5
534.261	19419.5
539.894	19234.5
545.521	19224.5
551.141	19144.5
556.756	19010.5
562.365	19037.5
567.968	18957.5
573.565	18883.5
579.155	18749.5
584.74	18706.5
590.319	18635.5
595.892	18551.5
601.459	18492.5
607.02	18399.5
612.575	18303.5
618.124	18135.5
623.667	18074.5
629.204	17972.5
634.735	17878.5
640.261	17830.5
645.781	17736.5
651.294	17779.5
656.802	17745.5
662.304	17684.5
667.8	17645.5
673.29	17711.5
678.775	17524.5
684.254	17551.5
689.726	17470.5
695.193	17377.5
700.655	17312.5
706.11	17235.5
711.56	17161.5
717.004	17025.5
722.442	17007.5
727.874	16961.5
733.301	16870.5
738.722	16839.5
744.137	16841.5
749.547	16829.5
754.951	16802.5
760.349	16793.5
765.741	16809.5
771.128	16841.5
776.509	16861.5
781.885	16811.5
787.254	16823.5
792.618	16694.5
797.977	16593.5
803.33	16480.5
808.677	16381.5
814.019	16299.5
819.355	16250.5
824.686	16123.5
830.011	16123.5
835.33	16177.5
840.644	16096.5
845.952	16180.5
851.255	16261.5
856.552	16204.5
861.844	16208.5
867.13	16152.5
872.41	16101.5
877.686	15960.5
882.955	15836.5
888.219	15731.5
893.478	15564.5
898.731	15344.5
903.979	15224.5
909.221	15104.5
914.458	15018.5
919.69	15036.5
924.916	15086.5
930.136	15177.5
935.351	15159.5
940.561	15110.5
945.766	15076.5
950.965	15020.5
956.158	14925.5
961.347	14742.5
966.529	14566.5
971.707	14387.5
976.879	14214.5
982.046	14113.5
987.208	14091.5
992.364	14065.5
997.515	14147.5
1002.66	14310.5
1007.801	14429.5
1012.936	14554.5
1018.066	14569.5
1023.19	14575.5
1028.309	14551.5
1033.423	14535.5
1038.532	14438.5
1043.636	14294.5
1048.734	14115.5
1053.827	13978.5
1058.915	13799.5
1063.998	13697.5
1069.075	13666.5
1074.147	13684.5
1079.214	13768.5
1084.276	13814.5
1089.333	13922.5
1094.385	13948.5
1099.431	14023.5
1104.472	13931.5
1109.509	13898.5
1114.54	13749.5
1119.565	13582.5
1124.586	13386.5
1129.602	13288.5
1134.613	13236.5
1139.618	13138.5
1144.619	13056.5
1149.614	13039.5
1154.604	13147.5
1159.589	13131.5
1164.57	13202.5
1169.545	13203.5
1174.515	13217.5
1179.48	13083.5
1184.44	13029.5
1189.395	12900.5
1194.345	12863.5
1199.29	12781.5
1204.23	12766.5
1209.165	12824.5
1214.095	12841.5
1219.021	12979.5
1223.941	13005.5
1228.856	13137.5
1233.766	13194.5
1238.672	13146.5
1243.572	13108.5
1248.467	13070.5
1253.358	12885.5
1258.244	12739.5
1263.124	12511.5
1268	12332.5
1272.871	12242.5
1277.737	12129.5
1282.599	12020.5
1287.455	12057.5
1292.306	12071.5
1297.153	12101.5
1301.995	12170.5
1306.832	12175.5
1311.664	12207.5
1316.491	12134.5
1321.314	12042.5
1326.132	11878.5
1330.945	11633.5
1335.753	11333.5
1340.556	11048.5
1345.354	10825.5
1350.148	10608.5
1354.937	10616.5
1359.722	10580.5
1364.501	10655.5
1369.276	10806.5
1374.046	10905.5
1378.811	11043.5
1383.572	11174.5
1388.327	11137.5
1393.079	11091.5
1397.825	10995.5
1402.567	10837.5
1407.304	10679.5
1412.036	10587.5
1416.764	10519.5
1421.487	10477.5
1426.205	10451.5
1430.919	10359.5
1435.628	10379.5
1440.333	10373.5
1445.032	10423.5
1449.727	10436.5
1454.418	10446.5
1459.104	10313.5
1463.785	10112.5
1468.462	9906.5
1473.134	9657.5
1477.802	9459.5
1482.465	9327.5
1487.123	9236.5
1491.777	9192.5
1496.426	9251.5
1501.071	9395.5
1505.711	9480.5
1510.347	9685.5
1514.978	9813.5
1519.604	9932.5
1524.226	10042.5
1528.844	10054.5
1533.457	10018.5
1538.065	10005.5
1542.669	9867.5
1547.269	9872.5
1551.864	9767.5
1556.454	9758.5
1561.041	9765.5
1565.622	9750.5
1570.199	9788.5
1574.772	9852.5
1579.34	9942.5
1583.904	9943.5
1588.464	10006.5
1593.019	10010.5
1597.569	9977.5
1602.115	9925.5
1606.657	9834.5
1611.195	9809.5
1615.728	9755.5
1620.256	9695.5
1624.78	9711.5
1629.3	9694.5
1633.816	9756.5
1638.327	9808.5
1642.834	9838.5
1647.336	9893.5
1651.834	9912.5
1656.328	9839.5
1660.817	9856.5
1665.302	9728.5
1669.783	9544.5
1674.259	9328.5
1678.732	9039.5
1683.199	8766.5
1687.663	8450.5
1692.122	8178.5
1696.577	8081.5
1701.028	8068.5
1705.474	8088.5
1709.917	8124.5
1714.355	8171.5
1718.788	8116.5
1723.218	7962.5
1727.643	7830.5
1732.064	7670.5
1736.481	7527.5
1740.893	7280.5
1745.301	7141.5
1749.705	6979.5
1754.105	6715.5
1758.501	6516.5
1762.893	6368.5
1767.28	6159.5
1771.663	6037.5
1776.042	5966.5
1780.417	5906.5
1784.787	5933.5
1789.154	5950.5
1793.516	6106.5
1797.874	6199.5
1802.228	6326.5
1806.578	6350.5
1810.924	6356.5
1815.266	6301.5
1819.603	6207.5
1823.937	6107.5
1828.266	6038.5
1832.591	5908.5
1836.913	5869.5
1841.23	5774.5
1845.543	5770.5
1849.852	5749.5
1854.156	5735.5
1858.457	5684.5
1862.754	5770.5
1867.047	5661.5
1871.335	5678.5
1875.62	5623.5
1879.9	5629.5
1884.177	5600.5
1888.449	5552.5
1892.718	5466.5
1896.982	5444.5
1901.243	5374.5
1905.499	5329.5
1909.752	5323.5
1914	5316.5
1918.245	5385.5
1922.485	5382.5
1926.722	5423.5
1930.954	5464.5
1935.183	5546.5
1939.408	5635.5
1943.628	5644.5
1947.845	5651.5
1952.058	5684.5
1956.267	5605.5
1960.472	5515.5
1964.673	5472.5
1968.87	5372.5
1973.063	5281.5
1977.252	5225.5
1981.438	5185.5
1985.619	5107.5
1989.797	5085.5
1993.971	5026.5
1998.14	5014.5
2002.306	4978.5
2006.469	4996.5
2010.627	4951.5
2014.781	4939.5
2018.932	4877.5
2023.078	4863.5
2027.221	4804.5
2031.36	4708.5
2035.495	4627.5
2039.627	4580.5
2043.754	4495.5
2047.878	4450.5
2051.998	4428.5
2056.114	4436.5
2060.226	4414.5
2064.334	4443.5
2068.439	4462.5
2072.54	4462.5
2076.637	4517.5
2080.73	4554.5
2084.82	4539.5
2088.906	4579.5
2092.988	4571.5
2097.066	4591.5
2101.14	4536.5
2105.211	4504.5
2109.278	4515.5
2113.342	4462.5
2117.401	4435.5
2121.457	4393.5
2125.509	4391.5
2129.558	4367.5
2133.602	4322.5
2137.643	4325.5
2141.681	4295.5
2145.714	4239.5
2149.744	4224.5
2153.77	4205.5
2157.793	4151.5
2161.812	4094.5
2165.827	4051.5
2169.838	3979.5
2173.846	3928.5
2177.851	3836.5
2181.851	3827.5
2185.848	3763.5
2189.841	3716.5
2193.831	3683.5
2197.817	3663.5
2201.799	3623.5
2205.778	3616.5
2209.753	3606.5
2213.725	3599.5
2217.693	3596.5
2221.657	3566.5
2225.618	3586.5
2229.575	3581.5
2233.529	3512.5
2237.479	3475.5
2241.425	3431.5
2245.368	3404.5
2249.307	3343.5
2253.243	3300.5
2257.175	3277.5
2261.104	3218.5
2265.029	3168.5
2268.95	3134.5
2272.868	3092.5
2276.783	3076.5
2280.694	3030.5
2284.601	3022.5
2288.505	2995.5
2292.405	2953.5
2296.302	3143.5
2300.195	2892.5
2304.085	2867.5
2307.971	2839.5
2311.854	2768.5
2315.734	2750.5
2319.609	2703.5
2323.482	2656.5
2327.351	2627.5
2331.216	2631.5
2335.078	2585.5
2338.937	2606.5
2342.792	2595.5
2346.643	2581.5
2350.492	2572.5
2354.336	2565.5
2358.178	2569.5
2362.015	2592.5
2365.85	2607.5
2369.681	2613.5
2373.508	2588.5
2377.333	2604.5
2381.153	2597.5
2384.971	2607.5
2388.785	2570.5
2392.595	2546.5
2396.402	2510.5
2400.206	2516.5
2404.007	2465.5
2407.804	2464.5
2411.597	2428.5
2415.388	2425.5
2419.174	2417.5
2422.958	2388.5
2426.738	2380.5
2430.515	2346.5
2434.289	2376.5
2438.059	2321.5
2441.825	2303.5
2445.589	2284.5
2449.349	2272.5
2453.106	2219.5
2456.859	2180.5
2460.61	2172.5
2464.356	2142.5
2468.1	2142.5
2471.84	2097.5
2475.577	2089.5
2479.311	2083.5
2483.041	2052.5
2486.768	2033.5
2490.492	2038.5
2494.213	2043.5
2497.93	2043.5
2501.644	2022.5
2505.355	2011.5
2509.062	2004.5
2512.766	1999.5
2516.467	1966.5
2520.165	1981.5
2523.859	1943.5
2527.551	1942.5
2531.239	1924.5
2534.923	1909.5
2538.605	1907.5
2542.283	1902.5
2545.958	1892.5
2549.63	1891.5
2553.299	1892.5
2556.964	1886.5
2560.626	1867.5
2564.285	1880.5
2567.941	1853.5
2571.594	1849.5
2575.243	1838.5
2578.89	1821.5
2582.533	1805.5
2586.173	1806.5
2589.809	1773.5
2593.443	1763.5
2597.073	1762.5
2600.701	1721.5
2604.325	1708.5
2607.946	1699.5
2611.564	1685.5
2615.178	1676.5
2618.79	1673.5
2622.398	1662.5
2626.004	1649.5
2629.606	1616.5
2633.205	1588.5
2636.801	1601.5
2640.394	1552.5
2643.983	1532.5
2647.57	1509.5
2651.153	1490.5
2654.734	1467.5
2658.311	1450.5
2661.885	1427.5
2665.456	1407.5
2669.025	1404.5
2672.589	1395.5
2676.151	1349.5
2679.71	1326.5
2683.266	1324.5
2686.819	1292.5
2690.368	1269.5
2693.915	1232.5
2697.458	1209.5
2700.999	1185.5
2704.536	1162.5
2708.071	1130.5
2711.602	1106.5
2715.13	1097.5
2718.656	1073.5
2722.178	1045.5
2725.697	1040.5
2729.214	1015.5
2732.727	988.5
2736.237	1007.5
2739.744	1002.5
2743.249	1005.5
2746.75	1019.5
2750.248	1037.5
2753.743	1036.5
2757.236	1070.5
2760.725	1069.5
2764.211	1066.5
2767.695	1058.5
2771.175	1076.5
2774.652	1062.5
2778.127	1050.5
2781.598	1050.5
2785.067	1059.5
2788.532	1028.5
2791.995	1028.5
2795.455	1035.5
2798.911	1040.5
2802.365	1034.5
2805.816	1046.5
2809.264	1032.5
2812.709	1030.5
2816.151	1041.5
2819.59	1040.5
2823.026	1041.5
2826.46	1032.5
2829.89	1032.5
2833.318	1050.5
2836.742	1044.5
2840.164	1052.5
2843.583	1079.5
2846.999	1067.5
2850.412	1076.5
2853.822	1109.5
2857.229	1122.5
2860.634	1129.5
2864.035	1155.5
2867.434	1179.5
2870.83	1208.5
2874.223	1197.5
2877.613	1241.5
2881	1253.5
2884.385	1264.5
2887.766	1240.5
2891.145	1259.5
2894.521	1243.5
2897.894	1259.5
2901.264	1251.5
2904.631	1252.5
2907.996	1249.5
2911.358	1261.5
2914.717	1282.5
2918.073	1277.5
2921.426	1309.5
2924.777	1305.5
2928.124	1335.5
2931.469	1366.5
2934.811	1382.5
2938.15	1387.5
2941.487	1406.5
2944.821	1423.5
2948.152	1402.5
2951.48	1397.5
2954.805	1388.5
2958.128	1372.5
2961.447	1384.5
2964.765	1356.5
2968.079	1360.5
2971.39	1378.5
2974.699	1390.5
2978.005	1420.5
2981.308	1446.5
2984.609	1467.5
2987.907	1495.5
2991.202	1533.5
2994.494	1553.5
2997.784	1591.5
3001.07	1612.5
3004.355	1638.5
3007.636	1657.5
3010.915	1691.5
3014.191	1672.5
3017.464	1722.5
3020.734	1706.5
3024.002	1734.5
3027.267	1745.5
3030.53	1752.5
3033.789	1783.5
3037.046	1799.5
3040.301	1821.5
3043.552	1857.5
3046.801	1883.5
3050.048	1942.5
3053.291	2006.5
3056.532	2055.5
3059.771	2093.5
3063.006	2177.5
3066.239	2229.5
3069.469	2316.5
3072.697	2364.5
3075.922	2425.5
3079.144	2462.5
3082.364	2527.5
3085.581	2586.5
3088.795	2627.5
3092.007	2679.5
3095.216	2760.5
3098.423	2825.5
3101.627	2847.5
3104.828	2937.5
3108.026	2982.5
3111.222	3076.5
3114.416	3142.5
3117.607	3230.5
3120.795	3283.5
3123.98	3329.5
3127.163	3447.5
3130.344	3540.5
3133.521	3639.5
3136.696	3680.5
3139.869	3751.5
3143.039	3826.5
3146.206	3863.5
3149.371	3911.5
3152.533	3952.5
3155.693	3979.5
3158.85	4002.5
3162.005	4018.5
3165.157	4031.5
3168.306	4051.5
3171.453	4051.5
3174.597	4083.5
3177.739	4081.5
3180.878	4100.5
3184.014	4064.5
3187.149	4082.5
3190.28	4059.5
3193.409	4091.5
3196.536	4112.5
3199.659	4124.5
3202.781	4093.5
3205.9	4104.5
3209.016	4097.5
3212.13	4071.5
3215.241	4052.5
3218.35	3986.5
3221.456	3958.5
3224.56	3938.5
3227.661	3899.5
3230.76	3841.5
3233.856	3798.5
3236.95	3795.5
3240.041	3762.5
3243.13	3747.5
3246.216	3705.5
3249.3	3685.5
3252.382	3640.5
3255.46	3646.5
3258.537	3658.5
3261.611	3649.5
3264.682	3619.5
3267.751	3628.5
3270.818	3618.5
3273.882	3606.5
3276.943	3584.5
3280.002	3544.5
3283.059	3508.5
3286.113	3465.5
3289.165	3431.5
3292.214	3375.5
3295.261	3344.5
3298.306	3245.5
3301.348	3230.5
3304.387	3174.5
3307.425	3132.5
3310.459	3084.5
3313.492	3043.5
3316.521	2981.5
3319.549	2937.5
3322.574	2945.5
3325.597	2913.5
3328.617	2885.5
3331.635	2865.5
3334.65	2825.5
3337.663	2837.5
3340.674	2824.5
3343.682	2800.5
3346.688	2783.5
3349.691	2785.5
3352.692	2771.5
3355.691	2738.5
3358.687	2706.5
3361.681	2670.5
3364.673	2660.5
3367.662	2620.5
3370.649	2571.5
3373.633	2535.5
3376.615	2512.5
3379.595	2469.5
3382.572	2434.5
3385.547	2393.5
3388.52	2365.5
3391.49	2318.5
3394.458	2281.5
3397.424	2265.5
3400.387	2247.5
3403.348	2198.5
3406.307	2165.5
3409.263	2168.5
3412.217	2138.5
3415.168	2106.5
3418.118	2065.5
3421.065	2043.5
3424.009	2018.5
3426.951	1978.5
3429.891	1966.5
3432.829	1906.5
3435.764	1864.5
3438.697	1827.5
3441.628	1773.5
3444.557	1709.5
3447.483	1671.5
3450.407	1608.5
3453.328	1554.5
3456.247	1511.5
3459.164	1461.5
3462.079	1412.5
3464.991	1348.5
3467.902	1294.5
3470.809	1249.5
3473.715	1188.5
3476.618	1147.5
3479.519	1117.5
3482.418	1081.5
3485.315	1044.5
3488.209	1002.5
3491.101	972.5
3493.99	947.5
3496.878	896.5
3499.763	861.5
3502.646	831.5
3505.527	796.5
3508.405	763.5
3511.281	714.5
3514.155	664.5
3517.027	613.5
3519.897	582.5
3522.764	543.5
3525.629	493.5
3528.492	451.5
3531.352	412.5
3534.211	386.5
3537.067	354.5
3539.921	309.5
3542.773	268.5
3545.622	248.5
3548.469	204.5
3551.315	182.5
3554.157	156.5
3556.998	132.5
3559.837	112.5
3562.673	85.5
3565.507	61.5
3568.339	42.5
3571.169	12.5
3573.996	5.5
3576.822	-20.5
3579.645	-32.5
3582.466	-60.5
3585.285	-82.5
3588.101	-91.5
3590.916	-114.5
3593.728	-141.5
3596.538	-162.5
3599.346	-179.5
3602.152	-189.5
3604.956	-212.5
3607.757	-224.5
3610.556	-237.5
3613.354	-251.5
3616.149	-257.5
3618.942	-276.5
3621.732	-292.5
3624.521	-305.5
3627.307	-310.5
3630.092	-324.5
3632.874	-335.5
3635.654	-332.5
3638.432	-343.5
3641.208	-358.5
3643.982	-371.5
3646.753	-375.5
3649.523	-391.5
3652.29	-396.5
3655.055	-394.5
3657.818	-410.5
3660.579	-422.5
3663.338	-428.5
3666.095	-443.5
3668.849	-460.5
3671.602	-457.5
3674.352	-469.5
3677.101	-475.5
3679.847	-487.5
3682.591	-483.5
3685.333	-494.5
3688.073	-496.5
3690.811	-508.5
3693.547	-506.5
3696.281	-515.5
3699.013	-513.5
3701.742	-523.5
3704.47	-520.5
3707.195	-531.5
3709.919	-532.5
3712.64	-541.5
3715.359	-548.5
3718.076	-546.5
3720.792	-547.5
3723.505	-554.5
3726.216	-561.5
3728.925	-562.5
3731.632	-577.5
3734.336	-572.5
3737.039	-574.5
3739.74	-573.5
3742.439	-571.5
3745.136	-578.5
3747.83	-574.5
3750.523	-576.5
3753.213	-588.5
3755.902	-583.5
3758.589	-580.5
3761.273	-583.5
3763.956	-593.5
3766.636	-591.5
3769.315	-599.5
3771.991	-594.5
3774.665	-599.5
3777.338	-596.5
3780.008	-599.5
3782.677	-598.5
3785.343	-603.5
3788.007	-594.5
3790.67	-607.5
3793.33	-607.5
3795.989	-607.5
3798.645	-609.5
3801.299	-608.5
3803.952	-619.5
3806.602	-615.5
3809.251	-618.5
3811.897	-610.5
3814.542	-608.5
3817.184	-618.5
3819.825	-616.5
3822.463	-610.5
3825.1	-617.5
3827.735	-625.5
3830.367	-625.5
3832.998	-625.5
3835.627	-626.5
3838.253	-622.5
3840.878	-617.5
3843.501	-621.5
3846.122	-625.5
3848.741	-624.5
3851.358	-628.5
3853.973	-625.5
3856.586	-628.5
3859.197	-633.5
3861.806	-626.5
3864.414	-623.5
3867.019	-625.5
3869.622	-629.5
3872.224	-625.5
3874.823	-611.5
3877.421	-592.5
3880.016	-581.5
3882.61	-539.5
3885.202	-543.5
3887.792	-573.5
3890.38	-598.5
3892.966	-620.5
3895.55	-628.5
3898.132	-627.5
3900.713	-637.5
3903.291	-635.5
3905.868	-644.5
3908.442	-638.5
3911.015	-639.5
3913.586	-641.5
3916.155	-636.5
3918.722	-642.5
3921.287	-642.5
3923.85	-642.5
3926.411	-638.5
3928.971	-643.5
3931.528	-646.5
3934.084	-630.5
3936.638	-642.5
3939.19	-644.5
3941.74	-649.5
3944.288	-648.5
3946.834	-645.5
3949.378	-646.5
3951.921	-648.5
3954.462	-642.5
3957	-638.5
3959.537	-634.5
3962.072	-640.5
3964.606	-640.5
3967.137	-645.5
3969.667	-640.5
3972.194	-640.5
3974.72	-634.5
3977.244	-632.5
3979.766	-639.5
3982.286	-631.5
3984.805	-621.5
3987.321	-629.5
3989.836	-631.5
3992.349	-627.5
3994.86	-632.5
3997.369	-638.5
3999.877	-629.5
4002.382	-627.5
4004.886	-631.5
4007.388	-631.5
4009.888	-632.5
4012.386	-633.5
4014.883	-633.5
4017.377	-630.5
4019.87	-628.5
4022.361	-636.5
4024.85	-634.5
4027.338	-631.5
4029.823	-627.5
4032.307	-635.5
4034.789	-632.5
4037.269	-640.5
4039.747	-636.5
4042.224	-630.5
4044.699	-632.5
4047.172	-635.5
4049.643	-634.5
4052.112	-631.5
4054.58	-628.5
4057.046	-638.5
4059.51	-636.5
4061.972	-637.5
4064.432	-629.5
4066.891	-632.5
4069.348	-634.5
4071.803	-638.5
4074.256	-626.5
4076.708	-632.5
4079.158	-631.5
4081.606	-633.5
4084.052	-626.5
4086.497	-628.5
4088.939	-625.5
4091.38	-626.5
4093.819	-633.5
4096.257	-664.5
4098.693	-667.5
4101.127	-670.5
4103.559	-670.5
4105.989	-398.5
4108.418	-377.5
4110.845	-360.5
4113.27	-336.5
4115.694	-284.5
4118.115	-243.5
4120.535	-633.5
4122.954	-633.5
4125.37	-633.5
4127.785	-632.5
4130.198	-636.5
4132.609	-631.5
4135.019	-670.5
4137.427	-670.5
4139.833	-667.5
4142.237	-665.5
