Data from 2018-2-7_conc=4_RamanShift_20.txt Node
Date: Tue Feb 13 13:43:13 IST 2018
User: aro
Spectrometer: QEPB0276
Trigger mode: 0
Integration Time (sec): 3.000000E1
Scans to average: 1
Electric dark correction enabled: true
Nonlinearity correction enabled: false
Boxcar width: 0
XAxis mode: Raman Shifts
Number of Pixels in Spectrum: 1044
>>>>>Begin Spectral Data<<<<<
160.701	-52.2
166.742	23.8
172.777	269.8
178.805	984.8
184.826	2607.8
190.841	5366.8
196.849	8383.8
202.85	10494.8
208.845	11158.8
214.833	11066.8
220.815	10879.8
226.789	10795.8
232.758	10821.8
238.719	10765.8
244.674	10669.8
250.623	10499.8
256.565	10327.8
262.5	10072.8
268.429	9977.8
274.351	9860.8
280.267	9788.8
286.176	9728.8
292.079	9659.8
297.975	9602.8
303.865	9570.8
309.748	9493.8
315.625	9496.8
321.495	9458.8
327.359	9465.8
333.217	9448.8
339.068	9424.8
344.912	9448.8
350.751	9485.8
356.583	9491.8
362.408	9448.8
368.227	9487.8
374.04	9499.8
379.847	9563.8
385.647	9589.8
391.44	9675.8
397.228	9731.8
403.009	9751.8
408.784	9756.8
414.553	9785.8
420.315	9820.8
426.071	9823.8
431.821	9829.8
437.565	9840.8
443.302	9805.8
449.033	9772.8
454.758	9753.8
460.477	9686.8
466.189	9666.8
471.896	9577.8
477.596	9578.8
483.29	9552.8
488.978	9532.8
494.66	9505.8
500.335	9425.8
506.005	9158.8
511.668	8927.8
517.325	8754.8
522.977	8595.8
528.622	8467.8
534.261	8338.8
539.894	8304.8
545.521	8239.8
551.141	8185.8
556.756	8105.8
562.365	8112.8
567.968	8049.8
573.565	8008.8
579.155	7960.8
584.74	7935.8
590.319	7954.8
595.892	7892.8
601.459	7872.8
607.02	7808.8
612.575	7796.8
618.124	7712.8
623.667	7647.8
629.204	7613.8
634.735	7569.8
640.261	7538.8
645.781	7509.8
651.294	7478.8
656.802	7454.8
662.304	7398.8
667.8	7401.8
673.29	7389.8
678.775	7376.8
684.254	7347.8
689.726	7316.8
695.193	7284.8
700.655	7254.8
706.11	7187.8
711.56	7171.8
717.004	7159.8
722.442	7088.8
727.874	7057.8
733.301	7045.8
738.722	7051.8
744.137	7003.8
749.547	7000.8
754.951	7032.8
760.349	7008.8
765.741	7064.8
771.128	7068.8
776.509	7062.8
781.885	7077.8
787.254	7073.8
792.618	7085.8
797.977	7036.8
803.33	6984.8
808.677	6942.8
814.019	6881.8
819.355	6831.8
824.686	6847.8
830.011	6772.8
835.33	6743.8
840.644	6780.8
845.952	6801.8
851.255	6754.8
856.552	6780.8
861.844	6729.8
867.13	6667.8
872.41	6641.8
877.686	6596.8
882.955	6545.8
888.219	6492.8
893.478	6426.8
898.731	6331.8
903.979	6322.8
909.221	6222.8
914.458	6161.8
919.69	6186.8
924.916	6212.8
930.136	6231.8
935.351	6226.8
940.561	6290.8
945.766	6240.8
950.965	6170.8
956.158	6167.8
961.347	6069.8
966.529	6016.8
971.707	5902.8
976.879	5866.8
982.046	5800.8
987.208	5772.8
992.364	5769.8
997.515	5847.8
1002.66	5880.8
1007.801	5935.8
1012.936	5939.8
1018.066	5968.8
1023.19	5980.8
1028.309	5954.8
1033.423	5974.8
1038.532	5923.8
1043.636	5880.8
1048.734	5790.8
1053.827	5742.8
1058.915	5676.8
1063.998	5622.8
1069.075	5611.8
1074.147	5621.8
1079.214	5654.8
1084.276	5688.8
1089.333	5698.8
1094.385	5751.8
1099.431	5752.8
1104.472	5700.8
1109.509	5671.8
1114.54	5613.8
1119.565	5565.8
1124.586	5468.8
1129.602	5413.8
1134.613	5344.8
1139.618	5337.8
1144.619	5326.8
1149.614	5325.8
1154.604	5331.8
1159.589	5343.8
1164.57	5360.8
1169.545	5381.8
1174.515	5395.8
1179.48	5328.8
1184.44	5307.8
1189.395	5250.8
1194.345	5229.8
1199.29	5201.8
1204.23	5187.8
1209.165	5205.8
1214.095	5227.8
1219.021	5256.8
1223.941	5243.8
1228.856	5306.8
1233.766	5318.8
1238.672	5313.8
1243.572	5298.8
1248.467	5280.8
1253.358	5201.8
1258.244	5130.8
1263.124	5045.8
1268	4984.8
1272.871	4922.8
1277.737	4883.8
1282.599	4856.8
1287.455	4832.8
1292.306	4854.8
1297.153	4868.8
1301.995	4875.8
1306.832	4894.8
1311.664	4919.8
1316.491	4873.8
1321.314	4864.8
1326.132	4785.8
1330.945	4719.8
1335.753	4614.8
1340.556	4484.8
1345.354	4455.8
1350.148	4366.8
1354.937	4315.8
1359.722	4311.8
1364.501	4264.8
1369.276	4278.8
1374.046	4314.8
1378.811	4303.8
1383.572	4288.8
1388.327	4316.8
1393.079	4268.8
1397.825	4243.8
1402.567	4207.8
1407.304	4171.8
1412.036	4184.8
1416.764	4136.8
1421.487	4142.8
1426.205	4138.8
1430.919	4137.8
1435.628	4154.8
1440.333	4177.8
1445.032	4198.8
1449.727	4172.8
1454.418	4188.8
1459.104	4149.8
1463.785	4091.8
1468.462	4009.8
1473.134	3925.8
1477.802	3866.8
1482.465	3772.8
1487.123	3712.8
1491.777	3682.8
1496.426	3683.8
1501.071	3722.8
1505.711	3730.8
1510.347	3758.8
1514.978	3759.8
1519.604	3824.8
1524.226	3817.8
1528.844	3805.8
1533.457	3799.8
1538.065	3817.8
1542.669	3768.8
1547.269	3754.8
1551.864	3716.8
1556.454	3715.8
1561.041	3751.8
1565.622	3742.8
1570.199	3750.8
1574.772	3775.8
1579.34	3826.8
1583.904	3848.8
1588.464	3848.8
1593.019	3881.8
1597.569	3874.8
1602.115	3846.8
1606.657	3834.8
1611.195	3795.8
1615.728	3782.8
1620.256	3780.8
1624.78	3793.8
1629.3	3818.8
1633.816	3798.8
1638.327	3815.8
1642.834	3865.8
1647.336	3863.8
1651.834	3874.8
1656.328	3881.8
1660.817	3827.8
1665.302	3792.8
1669.783	3723.8
1674.259	3629.8
1678.732	3545.8
1683.199	3425.8
1687.663	3344.8
1692.122	3196.8
1696.577	3151.8
1701.028	3089.8
1705.474	3083.8
1709.917	3041.8
1714.355	3009.8
1718.788	2984.8
1723.218	2959.8
1727.643	2933.8
1732.064	2876.8
1736.481	2813.8
1740.893	2749.8
1745.301	2688.8
1749.705	2617.8
1754.105	2554.8
1758.501	2473.8
1762.893	2424.8
1767.28	2360.8
1771.663	2326.8
1776.042	2279.8
1780.417	2247.8
1784.787	2250.8
1789.154	2244.8
1793.516	2243.8
1797.874	2266.8
1802.228	2270.8
1806.578	2276.8
1810.924	2258.8
1815.266	2259.8
1819.603	2243.8
1823.937	2231.8
1828.266	2196.8
1832.591	2168.8
1836.913	2140.8
1841.23	2166.8
1845.543	2149.8
1849.852	2141.8
1854.156	2127.8
1858.457	2113.8
1862.754	2135.8
1867.047	2140.8
1871.335	2118.8
1875.62	2105.8
1879.9	2124.8
1884.177	2108.8
1888.449	2073.8
1892.718	2050.8
1896.982	2044.8
1901.243	2022.8
1905.499	1995.8
1909.752	1988.8
1914	1964.8
1918.245	1955.8
1922.485	1979.8
1926.722	1957.8
1930.954	1985.8
1935.183	1990.8
1939.408	2017.8
1943.628	2004.8
1947.845	1996.8
1952.058	1985.8
1956.267	1959.8
1960.472	1936.8
1964.673	1917.8
1968.87	1875.8
1973.063	1833.8
1977.252	1807.8
1981.438	1815.8
1985.619	1787.8
1989.797	1776.8
1993.971	1790.8
1998.14	1771.8
2002.306	1767.8
2006.469	1749.8
2010.627	1755.8
2014.781	1757.8
2018.932	1739.8
2023.078	1747.8
2027.221	1715.8
2031.36	1685.8
2035.495	1665.8
2039.627	1625.8
2043.754	1609.8
2047.878	1596.8
2051.998	1583.8
2056.114	1585.8
2060.226	1579.8
2064.334	1588.8
2068.439	1591.8
2072.54	1607.8
2076.637	1606.8
2080.73	1611.8
2084.82	1619.8
2088.906	1614.8
2092.988	1604.8
2097.066	1599.8
2101.14	1574.8
2105.211	1568.8
2109.278	1531.8
2113.342	1547.8
2117.401	1517.8
2121.457	1513.8
2125.509	1509.8
2129.558	1493.8
2133.602	1491.8
2137.643	1475.8
2141.681	1480.8
2145.714	1475.8
2149.744	1461.8
2153.77	1445.8
2157.793	1421.8
2161.812	1420.8
2165.827	1396.8
2169.838	1378.8
2173.846	1360.8
2177.851	1326.8
2181.851	1305.8
2185.848	1286.8
2189.841	1296.8
2193.831	1272.8
2197.817	1270.8
2201.799	1250.8
2205.778	1247.8
2209.753	1251.8
2213.725	1232.8
2217.693	1218.8
2221.657	1210.8
2225.618	1223.8
2229.575	1209.8
2233.529	1216.8
2237.479	1191.8
2241.425	1165.8
2245.368	1145.8
2249.307	1150.8
2253.243	1130.8
2257.175	1116.8
2261.104	1075.8
2265.029	1073.8
2268.95	1053.8
2272.868	1040.8
2276.783	1028.8
2280.694	1010.8
2284.601	1014.8
2288.505	994.8
2292.405	998.8
2296.302	970.8
2300.195	960.8
2304.085	959.8
2307.971	937.8
2311.854	915.8
2315.734	908.8
2319.609	910.8
2323.482	877.8
2327.351	881.8
2331.216	888.8
2335.078	873.8
2338.937	879.8
2342.792	866.8
2346.643	857.8
2350.492	865.8
2354.336	873.8
2358.178	871.8
2362.015	875.8
2365.85	873.8
2369.681	871.8
2373.508	876.8
2377.333	868.8
2381.153	888.8
2384.971	886.8
2388.785	874.8
2392.595	862.8
2396.402	849.8
2400.206	848.8
2404.007	831.8
2407.804	831.8
2411.597	817.8
2415.388	816.8
2419.174	823.8
2422.958	824.8
2426.738	802.8
2430.515	802.8
2434.289	811.8
2438.059	781.8
2441.825	780.8
2445.589	765.8
2449.349	774.8
2453.106	743.8
2456.859	728.8
2460.61	724.8
2464.356	725.8
2468.1	707.8
2471.84	694.8
2475.577	691.8
2479.311	712.8
2483.041	681.8
2486.768	684.8
2490.492	674.8
2494.213	680.8
2497.93	675.8
2501.644	662.8
2505.355	668.8
2509.062	656.8
2512.766	646.8
2516.467	646.8
2520.165	648.8
2523.859	641.8
2527.551	642.8
2531.239	630.8
2534.923	629.8
2538.605	612.8
2542.283	626.8
2545.958	597.8
2549.63	613.8
2553.299	600.8
2556.964	602.8
2560.626	599.8
2564.285	585.8
2567.941	581.8
2571.594	579.8
2575.243	568.8
2578.89	577.8
2582.533	563.8
2586.173	568.8
2589.809	550.8
2593.443	550.8
2597.073	550.8
2600.701	529.8
2604.325	531.8
2607.946	535.8
2611.564	515.8
2615.178	519.8
2618.79	509.8
2622.398	498.8
2626.004	498.8
2629.606	487.8
2633.205	474.8
2636.801	486.8
2640.394	476.8
2643.983	460.8
2647.57	458.8
2651.153	439.8
2654.734	432.8
2658.311	430.8
2661.885	435.8
2665.456	424.8
2669.025	418.8
2672.589	415.8
2676.151	392.8
2679.71	402.8
2683.266	399.8
2686.819	381.8
2690.368	367.8
2693.915	370.8
2697.458	364.8
2700.999	349.8
2704.536	348.8
2708.071	337.8
2711.602	332.8
2715.13	318.8
2718.656	317.8
2722.178	299.8
2725.697	306.8
2729.214	301.8
2732.727	292.8
2736.237	299.8
2739.744	291.8
2743.249	289.8
2746.75	297.8
2750.248	283.8
2753.743	271.8
2757.236	296.8
2760.725	296.8
2764.211	286.8
2767.695	287.8
2771.175	289.8
2774.652	286.8
2778.127	279.8
2781.598	278.8
2785.067	275.8
2788.532	277.8
2791.995	277.8
2795.455	285.8
2798.911	281.8
2802.365	284.8
2805.816	291.8
2809.264	286.8
2812.709	286.8
2816.151	296.8
2819.59	291.8
2823.026	289.8
2826.46	282.8
2829.89	287.8
2833.318	282.8
2836.742	282.8
2840.164	304.8
2843.583	297.8
2846.999	296.8
2850.412	305.8
2853.822	314.8
2857.229	327.8
2860.634	318.8
2864.035	327.8
2867.434	338.8
2870.83	348.8
2874.223	354.8
2877.613	360.8
2881	371.8
2884.385	365.8
2887.766	360.8
2891.145	369.8
2894.521	367.8
2897.894	364.8
2901.264	358.8
2904.631	360.8
2907.996	360.8
2911.358	365.8
2914.717	373.8
2918.073	382.8
2921.426	388.8
2924.777	400.8
2928.124	406.8
2931.469	407.8
2934.811	411.8
2938.15	427.8
2941.487	435.8
2944.821	428.8
2948.152	438.8
2951.48	426.8
2954.805	425.8
2958.128	421.8
2961.447	426.8
2964.765	418.8
2968.079	417.8
2971.39	410.8
2974.699	431.8
2978.005	436.8
2981.308	441.8
2984.609	446.8
2987.907	458.8
2991.202	473.8
2994.494	469.8
2997.784	477.8
3001.07	497.8
3004.355	494.8
3007.636	514.8
3010.915	515.8
3014.191	526.8
3017.464	526.8
3020.734	532.8
3024.002	545.8
3027.267	531.8
3030.53	555.8
3033.789	559.8
3037.046	568.8
3040.301	578.8
3043.552	593.8
3046.801	605.8
3050.048	635.8
3053.291	646.8
3056.532	665.8
3059.771	692.8
3063.006	717.8
3066.239	738.8
3069.469	770.8
3072.697	796.8
3075.922	814.8
3079.144	834.8
3082.364	848.8
3085.581	866.8
3088.795	886.8
3092.007	907.8
3095.216	947.8
3098.423	948.8
3101.627	979.8
3104.828	1017.8
3108.026	1030.8
3111.222	1060.8
3114.416	1087.8
3117.607	1115.8
3120.795	1131.8
3123.98	1168.8
3127.163	1203.8
3130.344	1222.8
3133.521	1254.8
3136.696	1279.8
3139.869	1302.8
3143.039	1341.8
3146.206	1343.8
3149.371	1363.8
3152.533	1392.8
3155.693	1380.8
3158.85	1400.8
3162.005	1386.8
3165.157	1403.8
3168.306	1414.8
3171.453	1425.8
3174.597	1415.8
3177.739	1402.8
3180.878	1426.8
3184.014	1429.8
3187.149	1413.8
3190.28	1438.8
3193.409	1433.8
3196.536	1442.8
3199.659	1427.8
3202.781	1442.8
3205.9	1427.8
3209.016	1433.8
3212.13	1439.8
3215.241	1421.8
3218.35	1403.8
3221.456	1386.8
3224.56	1375.8
3227.661	1359.8
3230.76	1350.8
3233.856	1339.8
3236.95	1309.8
3240.041	1298.8
3243.13	1287.8
3246.216	1282.8
3249.3	1286.8
3252.382	1274.8
3255.46	1235.8
3258.537	1251.8
3261.611	1239.8
3264.682	1239.8
3267.751	1234.8
3270.818	1237.8
3273.882	1230.8
3276.943	1230.8
3280.002	1205.8
3283.059	1208.8
3286.113	1189.8
3289.165	1184.8
3292.214	1160.8
3295.261	1126.8
3298.306	1112.8
3301.348	1102.8
3304.387	1066.8
3307.425	1071.8
3310.459	1040.8
3313.492	1024.8
3316.521	1007.8
3319.549	1005.8
3322.574	990.8
3325.597	983.8
3328.617	1000.8
3331.635	984.8
3334.65	984.8
3337.663	978.8
3340.674	960.8
3343.682	974.8
3346.688	967.8
3349.691	964.8
3352.692	951.8
3355.691	945.8
3358.687	934.8
3361.681	911.8
3364.673	927.8
3367.662	894.8
3370.649	874.8
3373.633	877.8
3376.615	853.8
3379.595	846.8
3382.572	814.8
3385.547	823.8
3388.52	805.8
3391.49	780.8
3394.458	780.8
3397.424	761.8
3400.387	756.8
3403.348	743.8
3406.307	730.8
3409.263	737.8
3412.217	728.8
3415.168	719.8
3418.118	705.8
3421.065	695.8
3424.009	677.8
3426.951	673.8
3429.891	645.8
3432.829	639.8
3435.764	618.8
3438.697	608.8
3441.628	597.8
3444.557	571.8
3447.483	526.8
3450.407	523.8
3453.328	500.8
3456.247	490.8
3459.164	460.8
3462.079	447.8
3464.991	436.8
3467.902	411.8
3470.809	395.8
3473.715	373.8
3476.618	371.8
3479.519	340.8
3482.418	340.8
3485.315	327.8
3488.209	312.8
3491.101	291.8
3493.99	286.8
3496.878	270.8
3499.763	254.8
3502.646	248.8
3505.527	222.8
3508.405	212.8
3511.281	187.8
3514.155	192.8
3517.027	163.8
3519.897	148.8
3522.764	138.8
3525.629	118.8
3528.492	104.8
3531.352	87.8
3534.211	70.8
3537.067	59.8
3539.921	50.8
3542.773	32.8
3545.622	24.8
3548.469	13.8
3551.315	4.8
3554.157	-7.2
3556.998	-17.2
3559.837	-27.2
3562.673	-35.2
3565.507	-49.2
3568.339	-43.2
3571.169	-48.2
3573.996	-62.2
3576.822	-67.2
3579.645	-69.2
3582.466	-77.2
3585.285	-89.2
3588.101	-98.2
3590.916	-100.2
3593.728	-119.2
3596.538	-117.2
3599.346	-128.2
3602.152	-129.2
3604.956	-136.2
3607.757	-141.2
3610.556	-153.2
3613.354	-161.2
3616.149	-158.2
3618.942	-169.2
3621.732	-171.2
3624.521	-170.2
3627.307	-175.2
3630.092	-181.2
3632.874	-185.2
3635.654	-191.2
3638.432	-186.2
3641.208	-197.2
3643.982	-191.2
3646.753	-202.2
3649.523	-207.2
3652.29	-201.2
3655.055	-210.2
3657.818	-216.2
3660.579	-220.2
3663.338	-216.2
3666.095	-225.2
3668.849	-236.2
3671.602	-233.2
3674.352	-233.2
3677.101	-240.2
3679.847	-246.2
3682.591	-237.2
3685.333	-243.2
3688.073	-244.2
3690.811	-244.2
3693.547	-248.2
3696.281	-253.2
3699.013	-249.2
3701.742	-251.2
3704.47	-256.2
3707.195	-262.2
3709.919	-261.2
3712.64	-258.2
3715.359	-259.2
3718.076	-261.2
3720.792	-271.2
3723.505	-263.2
3726.216	-269.2
3728.925	-267.2
3731.632	-274.2
3734.336	-276.2
3737.039	-275.2
3739.74	-273.2
3742.439	-271.2
3745.136	-281.2
3747.83	-276.2
3750.523	-274.2
3753.213	-282.2
3755.902	-281.2
3758.589	-274.2
3761.273	-275.2
3763.956	-282.2
3766.636	-286.2
3769.315	-283.2
3771.991	-288.2
3774.665	-279.2
3777.338	-279.2
3780.008	-278.2
3782.677	-282.2
3785.343	-282.2
3788.007	-272.2
3790.67	-280.2
3793.33	-286.2
3795.989	-290.2
3798.645	-287.2
3801.299	-291.2
3803.952	-293.2
3806.602	-291.2
3809.251	-295.2
3811.897	-286.2
3814.542	-289.2
3817.184	-290.2
3819.825	-290.2
3822.463	-286.2
3825.1	-290.2
3827.735	-297.2
3830.367	-291.2
3832.998	-292.2
3835.627	-292.2
3838.253	-294.2
3840.878	-290.2
3843.501	-291.2
3846.122	-288.2
3848.741	-290.2
3851.358	-294.2
3853.973	-289.2
3856.586	-287.2
3859.197	-286.2
3861.806	-290.2
3864.414	-284.2
3867.019	-284.2
3869.622	-289.2
3872.224	-285.2
3874.823	-271.2
3877.421	-244.2
3880.016	-230.2
3882.61	-181.2
3885.202	-183.2
3887.792	-207.2
3890.38	-245.2
3892.966	-274.2
3895.55	-281.2
3898.132	-285.2
3900.713	-294.2
3903.291	-291.2
3905.868	-294.2
3908.442	-298.2
3911.015	-290.2
3913.586	-293.2
3916.155	-297.2
3918.722	-293.2
3921.287	-293.2
3923.85	-289.2
3926.411	-294.2
3928.971	-292.2
3931.528	-298.2
3934.084	-291.2
3936.638	-299.2
3939.19	-299.2
3941.74	-302.2
3944.288	-303.2
3946.834	-304.2
3949.378	-301.2
3951.921	-301.2
3954.462	-302.2
3957	-291.2
3959.537	-289.2
3962.072	-296.2
3964.606	-289.2
3967.137	-303.2
3969.667	-298.2
3972.194	-296.2
3974.72	-292.2
3977.244	-294.2
3979.766	-290.2
3982.286	-292.2
3984.805	-286.2
3987.321	-297.2
3989.836	-292.2
3992.349	-286.2
3994.86	-285.2
3997.369	-298.2
3999.877	-290.2
4002.382	-292.2
4004.886	-294.2
4007.388	-293.2
4009.888	-289.2
4012.386	-292.2
4014.883	-288.2
4017.377	-294.2
4019.87	-291.2
4022.361	-295.2
4024.85	-295.2
4027.338	-297.2
4029.823	-293.2
4032.307	-296.2
4034.789	-296.2
4037.269	-294.2
4039.747	-293.2
4042.224	-286.2
4044.699	-290.2
4047.172	-294.2
4049.643	-287.2
4052.112	-290.2
4054.58	-285.2
4057.046	-294.2
4059.51	-292.2
4061.972	-295.2
4064.432	-291.2
4066.891	-290.2
4069.348	-293.2
4071.803	-297.2
4074.256	-294.2
4076.708	-294.2
4079.158	-294.2
4081.606	-290.2
4084.052	-287.2
4086.497	-298.2
4088.939	-286.2
4091.38	-286.2
4093.819	-289.2
4096.257	-304.2
4098.693	-305.2
4101.127	-301.2
4103.559	-305.2
4105.989	-135.2
4108.418	-138.2
4110.845	-134.2
4113.27	-126.2
4115.694	-105.2
4118.115	-83.2
4120.535	-292.2
4122.954	-295.2
4125.37	-291.2
4127.785	-295.2
4130.198	-296.2
4132.609	-290.2
4135.019	-310.2
4137.427	-307.2
4139.833	-304.2
4142.237	-304.2
