Data from 2018-2-7_conc=2_RamanShift_13.txt Node
Date: Tue Feb 13 11:52:14 IST 2018
User: aro
Spectrometer: QEPB0276
Trigger mode: 0
Integration Time (sec): 3.000000E1
Scans to average: 1
Electric dark correction enabled: true
Nonlinearity correction enabled: false
Boxcar width: 0
XAxis mode: Raman Shifts
Number of Pixels in Spectrum: 1044
>>>>>Begin Spectral Data<<<<<
160.701	-161.1
166.742	24.9
172.777	591.9
178.805	2238.9
184.826	6159.9
190.841	12756.9
196.849	20071.9
202.85	25183.9
208.845	26644.9
214.833	26331.9
220.815	25787.9
226.789	25621.9
232.758	25484.9
238.719	25220.9
244.674	24768.9
250.623	24332.9
256.565	23776.9
262.5	23237.9
268.429	22761.9
274.351	22381.9
280.267	22015.9
286.176	21781.9
292.079	21470.9
297.975	21256.9
303.865	21047.9
309.748	20850.9
315.625	20751.9
321.495	20651.9
327.359	20459.9
333.217	20446.9
339.068	20442.9
344.912	20456.9
350.751	20326.9
356.583	20367.9
362.408	20291.9
368.227	20294.9
374.04	20343.9
379.847	20432.9
385.647	20456.9
391.44	20554.9
397.228	20632.9
403.009	20725.9
408.784	20793.9
414.553	20800.9
420.315	20931.9
426.071	20942.9
431.821	20943.9
437.565	20938.9
443.302	20880.9
449.033	20833.9
454.758	20739.9
460.477	20767.9
466.189	20636.9
471.896	20659.9
477.596	20538.9
483.29	20492.9
488.978	20439.9
494.66	20399.9
500.335	20250.9
506.005	20053.9
511.668	19752.9
517.325	19536.9
522.977	19401.9
528.622	19243.9
534.261	19079.9
539.894	18976.9
545.521	18935.9
551.141	18871.9
556.756	18822.9
562.365	18716.9
567.968	18603.9
573.565	18555.9
579.155	18517.9
584.74	18383.9
590.319	18406.9
595.892	18274.9
601.459	18244.9
607.02	18117.9
612.575	18016.9
618.124	17897.9
623.667	17823.9
629.204	17684.9
634.735	17586.9
640.261	17599.9
645.781	17449.9
651.294	17486.9
656.802	17426.9
662.304	17429.9
667.8	17380.9
673.29	17325.9
678.775	17271.9
684.254	17238.9
689.726	17213.9
695.193	17152.9
700.655	17029.9
706.11	16945.9
711.56	16838.9
717.004	16755.9
722.442	16739.9
727.874	16647.9
733.301	16586.9
738.722	16524.9
744.137	16453.9
749.547	16522.9
754.951	16511.9
760.349	16474.9
765.741	16503.9
771.128	16493.9
776.509	16551.9
781.885	16517.9
787.254	16469.9
792.618	16389.9
797.977	16347.9
803.33	16231.9
808.677	16096.9
814.019	16027.9
819.355	15980.9
824.686	15886.9
830.011	15788.9
835.33	15822.9
840.644	15823.9
845.952	15866.9
851.255	15899.9
856.552	15907.9
861.844	15890.9
867.13	15834.9
872.41	15731.9
877.686	15706.9
882.955	15506.9
888.219	15452.9
893.478	15285.9
898.731	15046.9
903.979	14924.9
909.221	14805.9
914.458	14751.9
919.69	14740.9
924.916	14796.9
930.136	14814.9
935.351	14898.9
940.561	14788.9
945.766	14849.9
950.965	14754.9
956.158	14596.9
961.347	14479.9
966.529	14290.9
971.707	14079.9
976.879	13910.9
982.046	13804.9
987.208	13799.9
992.364	13783.9
997.515	13876.9
1002.66	13966.9
1007.801	14135.9
1012.936	14263.9
1018.066	14220.9
1023.19	14242.9
1028.309	14220.9
1033.423	14218.9
1038.532	14091.9
1043.636	14002.9
1048.734	13847.9
1053.827	13658.9
1058.915	13520.9
1063.998	13413.9
1069.075	13379.9
1074.147	13400.9
1079.214	13494.9
1084.276	13577.9
1089.333	13649.9
1094.385	13651.9
1099.431	13748.9
1104.472	13715.9
1109.509	13623.9
1114.54	13522.9
1119.565	13297.9
1124.586	13138.9
1129.602	12991.9
1134.613	12895.9
1139.618	12878.9
1144.619	12833.9
1149.614	12825.9
1154.604	12900.9
1159.589	12835.9
1164.57	12891.9
1169.545	12916.9
1174.515	12951.9
1179.48	12894.9
1184.44	12727.9
1189.395	12633.9
1194.345	12578.9
1199.29	12529.9
1204.23	12534.9
1209.165	12549.9
1214.095	12607.9
1219.021	12723.9
1223.941	12752.9
1228.856	12860.9
1233.766	12861.9
1238.672	12902.9
1243.572	12894.9
1248.467	12763.9
1253.358	12620.9
1258.244	12485.9
1263.124	12299.9
1268	12120.9
1272.871	11997.9
1277.737	11866.9
1282.599	11819.9
1287.455	11847.9
1292.306	11826.9
1297.153	11856.9
1301.995	11880.9
1306.832	11968.9
1311.664	11999.9
1316.491	11900.9
1321.314	11775.9
1326.132	11628.9
1330.945	11434.9
1335.753	11063.9
1340.556	10792.9
1345.354	10590.9
1350.148	10459.9
1354.937	10329.9
1359.722	10392.9
1364.501	10373.9
1369.276	10486.9
1374.046	10606.9
1378.811	10782.9
1383.572	10908.9
1388.327	10892.9
1393.079	10887.9
1397.825	10748.9
1402.567	10623.9
1407.304	10489.9
1412.036	10343.9
1416.764	10329.9
1421.487	10263.9
1426.205	10150.9
1430.919	10110.9
1435.628	10183.9
1440.333	10173.9
1445.032	10214.9
1449.727	10253.9
1454.418	10212.9
1459.104	10090.9
1463.785	9916.9
1468.462	9670.9
1473.134	9495.9
1477.802	9279.9
1482.465	9094.9
1487.123	9036.9
1491.777	8992.9
1496.426	9018.9
1501.071	9134.9
1505.711	9261.9
1510.347	9422.9
1514.978	9580.9
1519.604	9726.9
1524.226	9802.9
1528.844	9819.9
1533.457	9786.9
1538.065	9829.9
1542.669	9712.9
1547.269	9644.9
1551.864	9566.9
1556.454	9528.9
1561.041	9561.9
1565.622	9560.9
1570.199	9600.9
1574.772	9657.9
1579.34	9694.9
1583.904	9795.9
1588.464	9821.9
1593.019	9821.9
1597.569	9833.9
1602.115	9737.9
1606.657	9705.9
1611.195	9613.9
1615.728	9582.9
1620.256	9529.9
1624.78	9564.9
1629.3	9563.9
1633.816	9570.9
1638.327	9641.9
1642.834	9689.9
1647.336	9749.9
1651.834	9796.9
1656.328	9726.9
1660.817	9673.9
1665.302	9559.9
1669.783	9377.9
1674.259	9160.9
1678.732	8903.9
1683.199	8550.9
1687.663	8238.9
1692.122	8017.9
1696.577	7896.9
1701.028	7887.9
1705.474	7903.9
1709.917	7954.9
1714.355	7937.9
1718.788	7909.9
1723.218	7787.9
1727.643	7672.9
1732.064	7493.9
1736.481	7335.9
1740.893	7169.9
1745.301	6961.9
1749.705	6771.9
1754.105	6588.9
1758.501	6414.9
1762.893	6206.9
1767.28	6066.9
1771.663	5934.9
1776.042	5833.9
1780.417	5759.9
1784.787	5788.9
1789.154	5812.9
1793.516	5868.9
1797.874	6004.9
1802.228	6110.9
1806.578	6155.9
1810.924	6160.9
1815.266	6111.9
1819.603	6001.9
1823.937	5989.9
1828.266	5843.9
1832.591	5725.9
1836.913	5687.9
1841.23	5622.9
1845.543	5621.9
1849.852	5554.9
1854.156	5531.9
1858.457	5541.9
1862.754	5527.9
1867.047	5522.9
1871.335	5489.9
1875.62	5492.9
1879.9	5482.9
1884.177	5419.9
1888.449	5380.9
1892.718	5292.9
1896.982	5292.9
1901.243	5238.9
1905.499	5206.9
1909.752	5172.9
1914	5160.9
1918.245	5194.9
1922.485	5234.9
1926.722	5280.9
1930.954	5330.9
1935.183	5367.9
1939.408	5445.9
1943.628	5445.9
1947.845	5484.9
1952.058	5503.9
1956.267	5420.9
1960.472	5407.9
1964.673	5290.9
1968.87	5242.9
1973.063	5110.9
1977.252	5092.9
1981.438	4988.9
1985.619	4983.9
1989.797	4940.9
1993.971	4899.9
1998.14	4900.9
2002.306	4876.9
2006.469	4843.9
2010.627	4844.9
2014.781	4795.9
2018.932	4725.9
2023.078	4712.9
2027.221	4663.9
2031.36	4577.9
2035.495	4512.9
2039.627	4429.9
2043.754	4403.9
2047.878	4348.9
2051.998	4319.9
2056.114	4323.9
2060.226	4291.9
2064.334	4335.9
2068.439	4301.9
2072.54	4348.9
2076.637	4372.9
2080.73	4394.9
2084.82	4427.9
2088.906	4453.9
2092.988	4438.9
2097.066	4441.9
2101.14	4416.9
2105.211	4403.9
2109.278	4337.9
2113.342	4327.9
2117.401	4288.9
2121.457	4302.9
2125.509	4252.9
2129.558	4222.9
2133.602	4206.9
2137.643	4177.9
2141.681	4171.9
2145.714	4119.9
2149.744	4131.9
2153.77	4097.9
2157.793	4041.9
2161.812	3992.9
2165.827	3953.9
2169.838	3875.9
2173.846	3844.9
2177.851	3755.9
2181.851	3701.9
2185.848	3646.9
2189.841	3607.9
2193.831	3606.9
2197.817	3551.9
2201.799	3538.9
2205.778	3535.9
2209.753	3508.9
2213.725	3474.9
2217.693	3487.9
2221.657	3486.9
2225.618	3458.9
2229.575	3476.9
2233.529	3417.9
2237.479	3384.9
2241.425	3331.9
2245.368	3308.9
2249.307	3267.9
2253.243	3205.9
2257.175	3169.9
2261.104	3152.9
2265.029	3092.9
2268.95	3047.9
2272.868	2999.9
2276.783	2990.9
2280.694	2958.9
2284.601	2916.9
2288.505	2891.9
2292.405	2853.9
2296.302	2849.9
2300.195	2814.9
2304.085	2769.9
2307.971	2749.9
2311.854	2706.9
2315.734	2644.9
2319.609	2646.9
2323.482	2597.9
2327.351	2567.9
2331.216	2578.9
2335.078	2542.9
2338.937	2529.9
2342.792	2504.9
2346.643	2506.9
2350.492	2512.9
2354.336	2493.9
2358.178	2517.9
2362.015	2525.9
2365.85	2540.9
2369.681	2520.9
2373.508	2527.9
2377.333	2523.9
2381.153	2530.9
2384.971	2513.9
2388.785	2521.9
2392.595	2475.9
2396.402	2434.9
2400.206	2413.9
2404.007	2385.9
2407.804	2400.9
2411.597	2358.9
2415.388	2352.9
2419.174	2346.9
2422.958	2330.9
2426.738	2327.9
2430.515	2296.9
2434.289	2277.9
2438.059	2242.9
2441.825	2238.9
2445.589	2205.9
2449.349	2205.9
2453.106	2150.9
2456.859	2127.9
2460.61	2128.9
2464.356	2067.9
2468.1	2080.9
2471.84	2018.9
2475.577	1998.9
2479.311	2004.9
2483.041	1972.9
2486.768	1988.9
2490.492	1970.9
2494.213	1974.9
2497.93	1948.9
2501.644	1945.9
2505.355	1925.9
2509.062	1913.9
2512.766	1918.9
2516.467	1911.9
2520.165	1890.9
2523.859	1867.9
2527.551	1849.9
2531.239	1827.9
2534.923	1831.9
2538.605	1809.9
2542.283	1834.9
2545.958	1796.9
2549.63	1823.9
2553.299	1805.9
2556.964	1804.9
2560.626	1792.9
2564.285	1779.9
2567.941	1795.9
2571.594	1782.9
2575.243	1768.9
2578.89	1755.9
2582.533	1744.9
2586.173	1715.9
2589.809	1705.9
2593.443	1695.9
2597.073	1668.9
2600.701	1649.9
2604.325	1662.9
2607.946	1632.9
2611.564	1641.9
2615.178	1613.9
2618.79	1601.9
2622.398	1591.9
2626.004	1568.9
2629.606	1550.9
2633.205	1515.9
2636.801	1521.9
2640.394	1516.9
2643.983	1478.9
2647.57	1464.9
2651.153	1447.9
2654.734	1411.9
2658.311	1414.9
2661.885	1366.9
2665.456	1360.9
2669.025	1337.9
2672.589	1329.9
2676.151	1305.9
2679.71	1291.9
2683.266	1266.9
2686.819	1246.9
2690.368	1209.9
2693.915	1205.9
2697.458	1160.9
2700.999	1146.9
2704.536	1123.9
2708.071	1094.9
2711.602	1065.9
2715.13	1038.9
2718.656	996.9
2722.178	986.9
2725.697	990.9
2729.214	982.9
2732.727	973.9
2736.237	957.9
2739.744	976.9
2743.249	963.9
2746.75	968.9
2750.248	975.9
2753.743	995.9
2757.236	1019.9
2760.725	991.9
2764.211	1040.9
2767.695	1028.9
2771.175	1024.9
2774.652	999.9
2778.127	1021.9
2781.598	993.9
2785.067	989.9
2788.532	996.9
2791.995	988.9
2795.455	988.9
2798.911	1013.9
2802.365	1000.9
2805.816	996.9
2809.264	1009.9
2812.709	985.9
2816.151	981.9
2819.59	997.9
2823.026	994.9
2826.46	1002.9
2829.89	1002.9
2833.318	1011.9
2836.742	1004.9
2840.164	1038.9
2843.583	1038.9
2846.999	1039.9
2850.412	1057.9
2853.822	1048.9
2857.229	1072.9
2860.634	1098.9
2864.035	1102.9
2867.434	1134.9
2870.83	1158.9
2874.223	1174.9
2877.613	1195.9
2881	1215.9
2884.385	1228.9
2887.766	1228.9
2891.145	1224.9
2894.521	1219.9
2897.894	1218.9
2901.264	1221.9
2904.631	1239.9
2907.996	1232.9
2911.358	1243.9
2914.717	1251.9
2918.073	1250.9
2921.426	1274.9
2924.777	1303.9
2928.124	1323.9
2931.469	1323.9
2934.811	1356.9
2938.15	1382.9
2941.487	1399.9
2944.821	1402.9
2948.152	1397.9
2951.48	1413.9
2954.805	1389.9
2958.128	1377.9
2961.447	1355.9
2964.765	1347.9
2968.079	1377.9
2971.39	1384.9
2974.699	1416.9
2978.005	1426.9
2981.308	1430.9
2984.609	1470.9
2987.907	1478.9
2991.202	1513.9
2994.494	1550.9
2997.784	1573.9
3001.07	1616.9
3004.355	1633.9
3007.636	1673.9
3010.915	1673.9
3014.191	1704.9
3017.464	1699.9
3020.734	1722.9
3024.002	1726.9
3027.267	1724.9
3030.53	1766.9
3033.789	1768.9
3037.046	1797.9
3040.301	1829.9
3043.552	1863.9
3046.801	1912.9
3050.048	1949.9
3053.291	2006.9
3056.532	2068.9
3059.771	2100.9
3063.006	2177.9
3066.239	2269.9
3069.469	2293.9
3072.697	2381.9
3075.922	2430.9
3079.144	2483.9
3082.364	2532.9
3085.581	2583.9
3088.795	2666.9
3092.007	2709.9
3095.216	2779.9
3098.423	2846.9
3101.627	2898.9
3104.828	2957.9
3108.026	3022.9
3111.222	3120.9
3114.416	3173.9
3117.607	3244.9
3120.795	3326.9
3123.98	3385.9
3127.163	3440.9
3130.344	3554.9
3133.521	3615.9
3136.696	3722.9
3139.869	3742.9
3143.039	3822.9
3146.206	3905.9
3149.371	3973.9
3152.533	3976.9
3155.693	4018.9
3158.85	4039.9
3162.005	4088.9
3165.157	4071.9
3168.306	4108.9
3171.453	4086.9
3174.597	4110.9
3177.739	4113.9
3180.878	4091.9
3184.014	4115.9
3187.149	4118.9
3190.28	4117.9
3193.409	4144.9
3196.536	4150.9
3199.659	4150.9
3202.781	4160.9
3205.9	4126.9
3209.016	4153.9
3212.13	4142.9
3215.241	4132.9
3218.35	4078.9
3221.456	4028.9
3224.56	3981.9
3227.661	3945.9
3230.76	3907.9
3233.856	3878.9
3236.95	3850.9
3240.041	3794.9
3243.13	3758.9
3246.216	3741.9
3249.3	3728.9
3252.382	3690.9
3255.46	3700.9
3258.537	3701.9
3261.611	3697.9
3264.682	3676.9
3267.751	3685.9
3270.818	3683.9
3273.882	3661.9
3276.943	3640.9
3280.002	3587.9
3283.059	3585.9
3286.113	3525.9
3289.165	3478.9
3292.214	3439.9
3295.261	3385.9
3298.306	3317.9
3301.348	3259.9
3304.387	3215.9
3307.425	3169.9
3310.459	3140.9
3313.492	3090.9
3316.521	3045.9
3319.549	2989.9
3322.574	2971.9
3325.597	2963.9
3328.617	2928.9
3331.635	2906.9
3334.65	2925.9
3337.663	2860.9
3340.674	2872.9
3343.682	2862.9
3346.688	2829.9
3349.691	2828.9
3352.692	2811.9
3355.691	2804.9
3358.687	2740.9
3361.681	2732.9
3364.673	2705.9
3367.662	2670.9
3370.649	2647.9
3373.633	2575.9
3376.615	2553.9
3379.595	2504.9
3382.572	2464.9
3385.547	2448.9
3388.52	2389.9
3391.49	2357.9
3394.458	2316.9
3397.424	2294.9
3400.387	2269.9
3403.348	2249.9
3406.307	2228.9
3409.263	2205.9
3412.217	2137.9
3415.168	2134.9
3418.118	2113.9
3421.065	2082.9
3424.009	2052.9
3426.951	2014.9
3429.891	1968.9
3432.829	1944.9
3435.764	1891.9
3438.697	1846.9
3441.628	1784.9
3444.557	1745.9
3447.483	1696.9
3450.407	1625.9
3453.328	1559.9
3456.247	1530.9
3459.164	1478.9
3462.079	1419.9
3464.991	1372.9
3467.902	1313.9
3470.809	1277.9
3473.715	1218.9
3476.618	1182.9
3479.519	1152.9
3482.418	1100.9
3485.315	1064.9
3488.209	1022.9
3491.101	986.9
3493.99	955.9
3496.878	921.9
3499.763	889.9
3502.646	846.9
3505.527	815.9
3508.405	760.9
3511.281	718.9
3514.155	693.9
3517.027	660.9
3519.897	607.9
3522.764	568.9
3525.629	518.9
3528.492	492.9
3531.352	439.9
3534.211	389.9
3537.067	357.9
3539.921	324.9
3542.773	289.9
3545.622	268.9
3548.469	225.9
3551.315	205.9
3554.157	166.9
3556.998	146.9
3559.837	121.9
3562.673	93.9
3565.507	60.9
3568.339	42.9
3571.169	18.9
3573.996	0.9
3576.822	-25.1
3579.645	-33.1
3582.466	-56.1
3585.285	-76.1
3588.101	-94.1
3590.916	-114.1
3593.728	-131.1
3596.538	-151.1
3599.346	-166.1
3602.152	-197.1
3604.956	-204.1
3607.757	-222.1
3610.556	-234.1
3613.354	-255.1
3616.149	-267.1
3618.942	-280.1
3621.732	-294.1
3624.521	-297.1
3627.307	-309.1
3630.092	-324.1
3632.874	-331.1
3635.654	-342.1
3638.432	-348.1
3641.208	-347.1
3643.982	-366.1
3646.753	-369.1
3649.523	-390.1
3652.29	-402.1
3655.055	-409.1
3657.818	-420.1
3660.579	-429.1
3663.338	-431.1
3666.095	-445.1
3668.849	-460.1
3671.602	-463.1
3674.352	-463.1
3677.101	-478.1
3679.847	-491.1
3682.591	-488.1
3685.333	-498.1
3688.073	-506.1
3690.811	-507.1
3693.547	-515.1
3696.281	-516.1
3699.013	-522.1
3701.742	-531.1
3704.47	-531.1
3707.195	-544.1
3709.919	-533.1
3712.64	-550.1
3715.359	-549.1
3718.076	-549.1
3720.792	-555.1
3723.505	-561.1
3726.216	-562.1
3728.925	-560.1
3731.632	-581.1
3734.336	-574.1
3737.039	-579.1
3739.74	-575.1
3742.439	-576.1
3745.136	-584.1
3747.83	-586.1
3750.523	-580.1
3753.213	-589.1
3755.902	-589.1
3758.589	-592.1
3761.273	-596.1
3763.956	-604.1
3766.636	-595.1
3769.315	-600.1
3771.991	-601.1
3774.665	-607.1
3777.338	-602.1
3780.008	-609.1
3782.677	-601.1
3785.343	-610.1
3788.007	-604.1
3790.67	-608.1
3793.33	-616.1
3795.989	-616.1
3798.645	-617.1
3801.299	-618.1
3803.952	-622.1
3806.602	-619.1
3809.251	-622.1
3811.897	-623.1
3814.542	-614.1
3817.184	-622.1
3819.825	-624.1
3822.463	-622.1
3825.1	-622.1
3827.735	-628.1
3830.367	-625.1
3832.998	-633.1
3835.627	-630.1
3838.253	-638.1
3840.878	-633.1
3843.501	-632.1
3846.122	-631.1
3848.741	-634.1
3851.358	-633.1
3853.973	-631.1
3856.586	-632.1
3859.197	-637.1
3861.806	-634.1
3864.414	-630.1
3867.019	-627.1
3869.622	-634.1
3872.224	-627.1
3874.823	-612.1
3877.421	-593.1
3880.016	-591.1
3882.61	-562.1
3885.202	-560.1
3887.792	-585.1
3890.38	-610.1
3892.966	-625.1
3895.55	-638.1
3898.132	-636.1
3900.713	-641.1
3903.291	-646.1
3905.868	-649.1
3908.442	-643.1
3911.015	-641.1
3913.586	-644.1
3916.155	-640.1
3918.722	-643.1
3921.287	-650.1
3923.85	-640.1
3926.411	-648.1
3928.971	-650.1
3931.528	-649.1
3934.084	-643.1
3936.638	-655.1
3939.19	-652.1
3941.74	-655.1
3944.288	-657.1
3946.834	-654.1
3949.378	-652.1
3951.921	-652.1
3954.462	-648.1
3957	-641.1
3959.537	-639.1
3962.072	-641.1
3964.606	-640.1
3967.137	-649.1
3969.667	-647.1
3972.194	-638.1
3974.72	-643.1
3977.244	-639.1
3979.766	-636.1
3982.286	-639.1
3984.805	-630.1
3987.321	-636.1
3989.836	-636.1
3992.349	-640.1
3994.86	-637.1
3997.369	-645.1
3999.877	-632.1
4002.382	-634.1
4004.886	-638.1
4007.388	-639.1
4009.888	-636.1
4012.386	-633.1
4014.883	-632.1
4017.377	-637.1
4019.87	-636.1
4022.361	-635.1
4024.85	-638.1
4027.338	-640.1
4029.823	-636.1
4032.307	-640.1
4034.789	-640.1
4037.269	-641.1
4039.747	-641.1
4042.224	-635.1
4044.699	-637.1
4047.172	-637.1
4049.643	-637.1
4052.112	-633.1
4054.58	-630.1
4057.046	-643.1
4059.51	-642.1
4061.972	-645.1
4064.432	-645.1
4066.891	-636.1
4069.348	-646.1
4071.803	-646.1
4074.256	-639.1
4076.708	-634.1
4079.158	-641.1
4081.606	-637.1
4084.052	-634.1
4086.497	-636.1
4088.939	-631.1
4091.38	-632.1
4093.819	-636.1
4096.257	-671.1
4098.693	-675.1
4101.127	-670.1
4103.559	-669.1
4105.989	-399.1
4108.418	-375.1
4110.845	-361.1
4113.27	-332.1
4115.694	-293.1
4118.115	-235.1
4120.535	-635.1
4122.954	-646.1
4125.37	-635.1
4127.785	-634.1
4130.198	-646.1
4132.609	-636.1
4135.019	-679.1
4137.427	-675.1
4139.833	-670.1
4142.237	-670.1
