Data from 2018-2-7_conc=0_RamanShift_05.txt Node
Date: Tue Feb 13 11:13:44 IST 2018
User: aro
Spectrometer: QEPB0276
Trigger mode: 0
Integration Time (sec): 3.000000E1
Scans to average: 1
Electric dark correction enabled: true
Nonlinearity correction enabled: false
Boxcar width: 0
XAxis mode: Raman Shifts
Number of Pixels in Spectrum: 1044
>>>>>Begin Spectral Data<<<<<
160.701	-164.5
166.742	31.5
172.777	589.5
178.805	2236.5
184.826	6043.5
190.841	12332.5
196.849	19288.5
202.85	24125.5
208.845	25503.5
214.833	25295.5
220.815	24876.5
226.789	24736.5
232.758	24683.5
238.719	24498.5
244.674	24221.5
250.623	23807.5
256.565	23319.5
262.5	22878.5
268.429	22431.5
274.351	22165.5
280.267	21900.5
286.176	21678.5
292.079	21457.5
297.975	21270.5
303.865	21154.5
309.748	21008.5
315.625	20826.5
321.495	20735.5
327.359	20680.5
333.217	20638.5
339.068	20632.5
344.912	20636.5
350.751	20588.5
356.583	20577.5
362.408	20535.5
368.227	20560.5
374.04	20570.5
379.847	20652.5
385.647	20640.5
391.44	20788.5
397.228	20812.5
403.009	20958.5
408.784	21057.5
414.553	21114.5
420.315	21137.5
426.071	21128.5
431.821	21180.5
437.565	21118.5
443.302	21083.5
449.033	21110.5
454.758	20917.5
460.477	20974.5
466.189	20975.5
471.896	20917.5
477.596	20809.5
483.29	20736.5
488.978	20799.5
494.66	20737.5
500.335	20593.5
506.005	20351.5
511.668	20111.5
517.325	19940.5
522.977	19782.5
528.622	19624.5
534.261	19494.5
539.894	19410.5
545.521	19340.5
551.141	19319.5
556.756	19219.5
562.365	19091.5
567.968	19089.5
573.565	19043.5
579.155	18890.5
584.74	18899.5
590.319	18848.5
595.892	18687.5
601.459	18603.5
607.02	18518.5
612.575	18440.5
618.124	18315.5
623.667	18296.5
629.204	18151.5
634.735	18064.5
640.261	17998.5
645.781	17900.5
651.294	17916.5
656.802	17889.5
662.304	17855.5
667.8	17864.5
673.29	17825.5
678.775	17840.5
684.254	17740.5
689.726	17711.5
695.193	17576.5
700.655	17568.5
706.11	17498.5
711.56	17346.5
717.004	17301.5
722.442	17224.5
727.874	17170.5
733.301	17099.5
738.722	16999.5
744.137	16959.5
749.547	16993.5
754.951	17025.5
760.349	17005.5
765.741	17082.5
771.128	17036.5
776.509	16995.5
781.885	17084.5
787.254	17004.5
792.618	16954.5
797.977	16830.5
803.33	16721.5
808.677	16623.5
814.019	16482.5
819.355	16422.5
824.686	16372.5
830.011	16310.5
835.33	16358.5
840.644	16346.5
845.952	16419.5
851.255	16434.5
856.552	16463.5
861.844	16382.5
867.13	16415.5
872.41	16357.5
877.686	16290.5
882.955	16113.5
888.219	15993.5
893.478	15851.5
898.731	15628.5
903.979	15441.5
909.221	15338.5
914.458	15310.5
919.69	15240.5
924.916	15351.5
930.136	15394.5
935.351	15377.5
940.561	15443.5
945.766	15344.5
950.965	15246.5
956.158	15141.5
961.347	15035.5
966.529	14800.5
971.707	14636.5
976.879	14475.5
982.046	14314.5
987.208	14330.5
992.364	14313.5
997.515	14439.5
1002.66	14499.5
1007.801	14694.5
1012.936	14791.5
1018.066	14818.5
1023.19	14783.5
1028.309	14810.5
1033.423	14720.5
1038.532	14651.5
1043.636	14586.5
1048.734	14382.5
1053.827	14172.5
1058.915	14040.5
1063.998	13968.5
1069.075	13950.5
1074.147	13909.5
1079.214	14002.5
1084.276	14055.5
1089.333	14111.5
1094.385	14270.5
1099.431	14243.5
1104.472	14202.5
1109.509	14191.5
1114.54	14006.5
1119.565	13835.5
1124.586	13653.5
1129.602	13515.5
1134.613	13454.5
1139.618	13325.5
1144.619	13335.5
1149.614	13319.5
1154.604	13316.5
1159.589	13395.5
1164.57	13410.5
1169.545	13415.5
1174.515	13364.5
1179.48	13361.5
1184.44	13275.5
1189.395	13159.5
1194.345	13073.5
1199.29	12974.5
1204.23	13018.5
1209.165	13029.5
1214.095	13161.5
1219.021	13182.5
1223.941	13265.5
1228.856	13311.5
1233.766	13318.5
1238.672	13380.5
1243.572	13343.5
1248.467	13268.5
1253.358	13076.5
1258.244	12945.5
1263.124	12732.5
1268	12548.5
1272.871	12382.5
1277.737	12296.5
1282.599	12228.5
1287.455	12270.5
1292.306	12234.5
1297.153	12291.5
1301.995	12322.5
1306.832	12353.5
1311.664	12316.5
1316.491	12324.5
1321.314	12189.5
1326.132	12000.5
1330.945	11735.5
1335.753	11434.5
1340.556	11167.5
1345.354	10992.5
1350.148	10854.5
1354.937	10805.5
1359.722	10871.5
1364.501	10920.5
1369.276	11023.5
1374.046	11175.5
1378.811	11292.5
1383.572	11416.5
1388.327	11371.5
1393.079	11346.5
1397.825	11189.5
1402.567	10996.5
1407.304	10881.5
1412.036	10757.5
1416.764	10699.5
1421.487	10654.5
1426.205	10577.5
1430.919	10543.5
1435.628	10566.5
1440.333	10531.5
1445.032	10590.5
1449.727	10631.5
1454.418	10620.5
1459.104	10495.5
1463.785	10263.5
1468.462	10066.5
1473.134	9835.5
1477.802	9694.5
1482.465	9567.5
1487.123	9473.5
1491.777	9462.5
1496.426	9504.5
1501.071	9601.5
1505.711	9806.5
1510.347	9960.5
1514.978	10088.5
1519.604	10174.5
1524.226	10291.5
1528.844	10276.5
1533.457	10238.5
1538.065	10233.5
1542.669	10137.5
1547.269	10072.5
1551.864	9964.5
1556.454	9992.5
1561.041	9979.5
1565.622	9911.5
1570.199	9956.5
1574.772	9998.5
1579.34	10041.5
1583.904	10085.5
1588.464	10142.5
1593.019	10103.5
1597.569	10070.5
1602.115	9985.5
1606.657	9935.5
1611.195	9836.5
1615.728	9777.5
1620.256	9744.5
1624.78	9705.5
1629.3	9776.5
1633.816	9771.5
1638.327	9815.5
1642.834	9878.5
1647.336	9920.5
1651.834	9880.5
1656.328	9916.5
1660.817	9882.5
1665.302	9767.5
1669.783	9554.5
1674.259	9354.5
1678.732	9056.5
1683.199	8752.5
1687.663	8520.5
1692.122	8355.5
1696.577	8235.5
1701.028	8238.5
1705.474	8339.5
1709.917	8379.5
1714.355	8357.5
1718.788	8327.5
1723.218	8195.5
1727.643	8014.5
1732.064	7879.5
1736.481	7716.5
1740.893	7511.5
1745.301	7334.5
1749.705	7069.5
1754.105	6933.5
1758.501	6737.5
1762.893	6534.5
1767.28	6367.5
1771.663	6266.5
1776.042	6200.5
1780.417	6180.5
1784.787	6195.5
1789.154	6281.5
1793.516	6401.5
1797.874	6487.5
1802.228	6611.5
1806.578	6615.5
1810.924	6618.5
1815.266	6552.5
1819.603	6442.5
1823.937	6350.5
1828.266	6218.5
1832.591	6169.5
1836.913	6048.5
1841.23	5974.5
1845.543	5981.5
1849.852	5920.5
1854.156	5921.5
1858.457	5851.5
1862.754	5909.5
1867.047	5885.5
1871.335	5880.5
1875.62	5874.5
1879.9	5863.5
1884.177	5808.5
1888.449	5747.5
1892.718	5685.5
1896.982	5625.5
1901.243	5614.5
1905.499	5587.5
1909.752	5587.5
1914	5583.5
1918.245	5607.5
1922.485	5649.5
1926.722	5699.5
1930.954	5800.5
1935.183	5854.5
1939.408	5851.5
1943.628	5893.5
1947.845	5884.5
1952.058	5897.5
1956.267	5857.5
1960.472	5750.5
1964.673	5644.5
1968.87	5572.5
1973.063	5504.5
1977.252	5392.5
1981.438	5365.5
1985.619	5265.5
1989.797	5232.5
1993.971	5224.5
1998.14	5176.5
2002.306	5181.5
2006.469	5140.5
2010.627	5122.5
2014.781	5058.5
2018.932	5018.5
2023.078	4944.5
2027.221	4910.5
2031.36	4815.5
2035.495	4764.5
2039.627	4694.5
2043.754	4648.5
2047.878	4591.5
2051.998	4586.5
2056.114	4540.5
2060.226	4547.5
2064.334	4578.5
2068.439	4550.5
2072.54	4618.5
2076.637	4627.5
2080.73	4680.5
2084.82	4729.5
2088.906	4718.5
2092.988	4700.5
2097.066	4710.5
2101.14	4660.5
2105.211	4609.5
2109.278	4607.5
2113.342	4582.5
2117.401	4551.5
2121.457	4500.5
2125.509	4497.5
2129.558	4468.5
2133.602	4442.5
2137.643	4414.5
2141.681	4367.5
2145.714	4356.5
2149.744	4315.5
2153.77	4286.5
2157.793	4225.5
2161.812	4195.5
2165.827	4139.5
2169.838	4051.5
2173.846	4016.5
2177.851	3931.5
2181.851	3889.5
2185.848	3842.5
2189.841	3795.5
2193.831	3771.5
2197.817	3727.5
2201.799	3721.5
2205.778	3693.5
2209.753	3667.5
2213.725	3637.5
2217.693	3655.5
2221.657	3632.5
2225.618	3630.5
2229.575	3631.5
2233.529	3591.5
2237.479	3558.5
2241.425	3517.5
2245.368	3458.5
2249.307	3419.5
2253.243	3348.5
2257.175	3332.5
2261.104	3267.5
2265.029	3213.5
2268.95	3221.5
2272.868	3156.5
2276.783	3145.5
2280.694	3084.5
2284.601	3071.5
2288.505	3055.5
2292.405	3004.5
2296.302	2986.5
2300.195	2949.5
2304.085	2910.5
2307.971	2869.5
2311.854	2843.5
2315.734	2783.5
2319.609	2771.5
2323.482	2695.5
2327.351	2697.5
2331.216	2675.5
2335.078	2653.5
2338.937	2653.5
2342.792	2617.5
2346.643	2630.5
2350.492	2586.5
2354.336	2613.5
2358.178	2614.5
2362.015	2606.5
2365.85	2600.5
2369.681	2621.5
2373.508	2611.5
2377.333	2626.5
2381.153	2613.5
2384.971	2575.5
2388.785	2556.5
2392.595	2548.5
2396.402	2522.5
2400.206	2484.5
2404.007	2473.5
2407.804	2468.5
2411.597	2451.5
2415.388	2438.5
2419.174	2436.5
2422.958	2393.5
2426.738	2397.5
2430.515	2341.5
2434.289	2338.5
2438.059	2307.5
2441.825	2299.5
2445.589	2280.5
2449.349	2269.5
2453.106	2226.5
2456.859	2196.5
2460.61	2164.5
2464.356	2151.5
2468.1	2121.5
2471.84	2111.5
2475.577	2083.5
2479.311	2085.5
2483.041	2064.5
2486.768	2064.5
2490.492	2032.5
2494.213	2057.5
2497.93	2025.5
2501.644	2016.5
2505.355	2019.5
2509.062	1990.5
2512.766	1989.5
2516.467	1970.5
2520.165	1960.5
2523.859	1957.5
2527.551	1942.5
2531.239	1932.5
2534.923	1928.5
2538.605	1908.5
2542.283	1897.5
2545.958	1887.5
2549.63	1884.5
2553.299	1884.5
2556.964	1881.5
2560.626	1877.5
2564.285	1866.5
2567.941	1865.5
2571.594	1838.5
2575.243	1829.5
2578.89	1837.5
2582.533	1833.5
2586.173	1809.5
2589.809	1783.5
2593.443	1759.5
2597.073	1724.5
2600.701	1727.5
2604.325	1708.5
2607.946	1689.5
2611.564	1675.5
2615.178	1679.5
2618.79	1661.5
2622.398	1635.5
2626.004	1631.5
2629.606	1611.5
2633.205	1570.5
2636.801	1580.5
2640.394	1566.5
2643.983	1536.5
2647.57	1496.5
2651.153	1486.5
2654.734	1451.5
2658.311	1426.5
2661.885	1403.5
2665.456	1389.5
2669.025	1368.5
2672.589	1333.5
2676.151	1310.5
2679.71	1317.5
2683.266	1295.5
2686.819	1268.5
2690.368	1244.5
2693.915	1230.5
2697.458	1204.5
2700.999	1160.5
2704.536	1141.5
2708.071	1106.5
2711.602	1088.5
2715.13	1065.5
2718.656	1043.5
2722.178	1014.5
2725.697	1015.5
2729.214	995.5
2732.727	991.5
2736.237	989.5
2739.744	1004.5
2743.249	1005.5
2746.75	1012.5
2750.248	1027.5
2753.743	1027.5
2757.236	1040.5
2760.725	1029.5
2764.211	1048.5
2767.695	1046.5
2771.175	1041.5
2774.652	1042.5
2778.127	1042.5
2781.598	1031.5
2785.067	1002.5
2788.532	1006.5
2791.995	1006.5
2795.455	1001.5
2798.911	1013.5
2802.365	1020.5
2805.816	1018.5
2809.264	1013.5
2812.709	1015.5
2816.151	998.5
2819.59	1004.5
2823.026	1006.5
2826.46	1001.5
2829.89	1008.5
2833.318	1018.5
2836.742	1011.5
2840.164	1001.5
2843.583	1030.5
2846.999	1039.5
2850.412	1038.5
2853.822	1022.5
2857.229	1045.5
2860.634	1066.5
2864.035	1085.5
2867.434	1101.5
2870.83	1129.5
2874.223	1142.5
2877.613	1169.5
2881	1176.5
2884.385	1171.5
2887.766	1184.5
2891.145	1175.5
2894.521	1165.5
2897.894	1173.5
2901.264	1183.5
2904.631	1156.5
2907.996	1163.5
2911.358	1183.5
2914.717	1161.5
2918.073	1165.5
2921.426	1200.5
2924.777	1199.5
2928.124	1225.5
2931.469	1249.5
2934.811	1285.5
2938.15	1282.5
2941.487	1311.5
2944.821	1315.5
2948.152	1298.5
2951.48	1266.5
2954.805	1272.5
2958.128	1250.5
2961.447	1247.5
2964.765	1240.5
2968.079	1238.5
2971.39	1257.5
2974.699	1249.5
2978.005	1300.5
2981.308	1321.5
2984.609	1327.5
2987.907	1356.5
2991.202	1375.5
2994.494	1399.5
2997.784	1434.5
3001.07	1462.5
3004.355	1479.5
3007.636	1494.5
3010.915	1516.5
3014.191	1541.5
3017.464	1529.5
3020.734	1548.5
3024.002	1555.5
3027.267	1567.5
3030.53	1576.5
3033.789	1585.5
3037.046	1607.5
3040.301	1644.5
3043.552	1672.5
3046.801	1693.5
3050.048	1756.5
3053.291	1781.5
3056.532	1831.5
3059.771	1875.5
3063.006	1929.5
3066.239	1977.5
3069.469	2049.5
3072.697	2108.5
3075.922	2168.5
3079.144	2207.5
3082.364	2248.5
3085.581	2278.5
3088.795	2359.5
3092.007	2396.5
3095.216	2445.5
3098.423	2513.5
3101.627	2556.5
3104.828	2603.5
3108.026	2675.5
3111.222	2731.5
3114.416	2789.5
3117.607	2835.5
3120.795	2921.5
3123.98	2964.5
3127.163	3062.5
3130.344	3106.5
3133.521	3173.5
3136.696	3255.5
3139.869	3331.5
3143.039	3374.5
3146.206	3404.5
3149.371	3458.5
3152.533	3508.5
3155.693	3535.5
3158.85	3538.5
3162.005	3540.5
3165.157	3556.5
3168.306	3562.5
3171.453	3560.5
3174.597	3573.5
3177.739	3582.5
3180.878	3579.5
3184.014	3587.5
3187.149	3626.5
3190.28	3585.5
3193.409	3630.5
3196.536	3620.5
3199.659	3589.5
3202.781	3604.5
3205.9	3621.5
3209.016	3602.5
3212.13	3583.5
3215.241	3561.5
3218.35	3569.5
3221.456	3526.5
3224.56	3461.5
3227.661	3436.5
3230.76	3397.5
3233.856	3361.5
3236.95	3323.5
3240.041	3280.5
3243.13	3270.5
3246.216	3240.5
3249.3	3216.5
3252.382	3204.5
3255.46	3162.5
3258.537	3168.5
3261.611	3207.5
3264.682	3203.5
3267.751	3187.5
3270.818	3170.5
3273.882	3147.5
3276.943	3150.5
3280.002	3113.5
3283.059	3091.5
3286.113	3038.5
3289.165	2994.5
3292.214	2965.5
3295.261	2910.5
3298.306	2866.5
3301.348	2810.5
3304.387	2764.5
3307.425	2719.5
3310.459	2690.5
3313.492	2654.5
3316.521	2598.5
3319.549	2589.5
3322.574	2535.5
3325.597	2526.5
3328.617	2520.5
3331.635	2495.5
3334.65	2456.5
3337.663	2455.5
3340.674	2434.5
3343.682	2434.5
3346.688	2417.5
3349.691	2388.5
3352.692	2391.5
3355.691	2364.5
3358.687	2355.5
3361.681	2316.5
3364.673	2293.5
3367.662	2275.5
3370.649	2231.5
3373.633	2187.5
3376.615	2164.5
3379.595	2111.5
3382.572	2107.5
3385.547	2075.5
3388.52	2034.5
3391.49	2004.5
3394.458	1953.5
3397.424	1949.5
3400.387	1908.5
3403.348	1897.5
3406.307	1856.5
3409.263	1829.5
3412.217	1808.5
3415.168	1791.5
3418.118	1767.5
3421.065	1732.5
3424.009	1735.5
3426.951	1684.5
3429.891	1657.5
3432.829	1613.5
3435.764	1577.5
3438.697	1544.5
3441.628	1513.5
3444.557	1432.5
3447.483	1406.5
3450.407	1360.5
3453.328	1316.5
3456.247	1270.5
3459.164	1224.5
3462.079	1184.5
3464.991	1111.5
3467.902	1076.5
3470.809	1037.5
3473.715	986.5
3476.618	968.5
3479.519	924.5
3482.418	884.5
3485.315	874.5
3488.209	799.5
3491.101	793.5
3493.99	757.5
3496.878	731.5
3499.763	682.5
3502.646	668.5
3505.527	638.5
3508.405	585.5
3511.281	553.5
3514.155	527.5
3517.027	480.5
3519.897	446.5
3522.764	419.5
3525.629	379.5
3528.492	331.5
3531.352	286.5
3534.211	271.5
3537.067	236.5
3539.921	205.5
3542.773	187.5
3545.622	149.5
3548.469	121.5
3551.315	78.5
3554.157	70.5
3556.998	43.5
3559.837	34.5
3562.673	5.5
3565.507	-15.5
3568.339	-25.5
3571.169	-55.5
3573.996	-75.5
3576.822	-94.5
3579.645	-106.5
3582.466	-132.5
3585.285	-140.5
3588.101	-155.5
3590.916	-173.5
3593.728	-206.5
3596.538	-203.5
3599.346	-231.5
3602.152	-237.5
3604.956	-253.5
3607.757	-273.5
3610.556	-279.5
3613.354	-302.5
3616.149	-301.5
3618.942	-316.5
3621.732	-331.5
3624.521	-332.5
3627.307	-348.5
3630.092	-349.5
3632.874	-366.5
3635.654	-376.5
3638.432	-374.5
3641.208	-385.5
3643.982	-396.5
3646.753	-403.5
3649.523	-415.5
3652.29	-420.5
3655.055	-430.5
3657.818	-442.5
3660.579	-446.5
3663.338	-453.5
3666.095	-466.5
3668.849	-486.5
3671.602	-491.5
3674.352	-484.5
3677.101	-497.5
3679.847	-508.5
3682.591	-506.5
3685.333	-515.5
3688.073	-517.5
3690.811	-519.5
3693.547	-522.5
3696.281	-533.5
3699.013	-540.5
3701.742	-546.5
3704.47	-544.5
3707.195	-558.5
3709.919	-553.5
3712.64	-550.5
3715.359	-564.5
3718.076	-561.5
3720.792	-568.5
3723.505	-565.5
3726.216	-571.5
3728.925	-576.5
3731.632	-581.5
3734.336	-582.5
3737.039	-585.5
3739.74	-585.5
3742.439	-585.5
3745.136	-587.5
3747.83	-595.5
3750.523	-592.5
3753.213	-593.5
3755.902	-597.5
3758.589	-597.5
3761.273	-600.5
3763.956	-612.5
3766.636	-600.5
3769.315	-607.5
3771.991	-607.5
3774.665	-612.5
3777.338	-607.5
3780.008	-605.5
3782.677	-608.5
3785.343	-614.5
3788.007	-611.5
3790.67	-611.5
3793.33	-617.5
3795.989	-620.5
3798.645	-624.5
3801.299	-619.5
3803.952	-623.5
3806.602	-626.5
3809.251	-621.5
3811.897	-620.5
3814.542	-618.5
3817.184	-620.5
3819.825	-629.5
3822.463	-620.5
3825.1	-629.5
3827.735	-632.5
3830.367	-632.5
3832.998	-636.5
3835.627	-639.5
3838.253	-640.5
3840.878	-629.5
3843.501	-632.5
3846.122	-632.5
3848.741	-635.5
3851.358	-634.5
3853.973	-628.5
3856.586	-633.5
3859.197	-636.5
3861.806	-632.5
3864.414	-632.5
3867.019	-629.5
3869.622	-640.5
3872.224	-630.5
3874.823	-615.5
3877.421	-596.5
3880.016	-583.5
3882.61	-539.5
3885.202	-543.5
3887.792	-569.5
3890.38	-597.5
3892.966	-620.5
3895.55	-624.5
3898.132	-633.5
3900.713	-635.5
3903.291	-643.5
3905.868	-652.5
3908.442	-645.5
3911.015	-647.5
3913.586	-645.5
3916.155	-646.5
3918.722	-640.5
3921.287	-646.5
3923.85	-650.5
3926.411	-646.5
3928.971	-643.5
3931.528	-646.5
3934.084	-643.5
3936.638	-652.5
3939.19	-650.5
3941.74	-654.5
3944.288	-653.5
3946.834	-652.5
3949.378	-655.5
3951.921	-652.5
3954.462	-654.5
3957	-649.5
3959.537	-644.5
3962.072	-644.5
3964.606	-646.5
3967.137	-651.5
3969.667	-637.5
3972.194	-646.5
3974.72	-647.5
3977.244	-644.5
3979.766	-644.5
3982.286	-639.5
3984.805	-638.5
3987.321	-636.5
3989.836	-639.5
3992.349	-631.5
3994.86	-635.5
3997.369	-641.5
3999.877	-632.5
4002.382	-633.5
4004.886	-635.5
4007.388	-641.5
4009.888	-632.5
4012.386	-639.5
4014.883	-633.5
4017.377	-634.5
4019.87	-635.5
4022.361	-639.5
4024.85	-633.5
4027.338	-638.5
4029.823	-636.5
4032.307	-635.5
4034.789	-638.5
4037.269	-638.5
4039.747	-646.5
4042.224	-638.5
4044.699	-641.5
4047.172	-640.5
4049.643	-635.5
4052.112	-642.5
4054.58	-633.5
4057.046	-646.5
4059.51	-640.5
4061.972	-646.5
4064.432	-639.5
4066.891	-636.5
4069.348	-640.5
4071.803	-636.5
4074.256	-634.5
4076.708	-638.5
4079.158	-634.5
4081.606	-635.5
4084.052	-635.5
4086.497	-635.5
4088.939	-631.5
4091.38	-632.5
4093.819	-634.5
4096.257	-673.5
4098.693	-673.5
4101.127	-672.5
4103.559	-676.5
4105.989	-403.5
4108.418	-383.5
4110.845	-359.5
4113.27	-346.5
4115.694	-297.5
4118.115	-251.5
4120.535	-639.5
4122.954	-642.5
4125.37	-636.5
4127.785	-638.5
4130.198	-643.5
4132.609	-633.5
4135.019	-672.5
4137.427	-674.5
4139.833	-674.5
4142.237	-671.5
