Data from 2018-2-7_conc=3_RamanShift_26.txt Node
Date: Tue Feb 13 12:40:44 IST 2018
User: aro
Spectrometer: QEPB0276
Trigger mode: 0
Integration Time (sec): 3.000000E1
Scans to average: 1
Electric dark correction enabled: true
Nonlinearity correction enabled: false
Boxcar width: 0
XAxis mode: Raman Shifts
Number of Pixels in Spectrum: 1044
>>>>>Begin Spectral Data<<<<<
160.701	-170.2
166.742	33.8
172.777	596.8
178.805	2276.8
184.826	6245.8
190.841	12846.8
196.849	20306.8
202.85	25597.8
208.845	27223.8
214.833	26909.8
220.815	26404.8
226.789	26210.8
232.758	26162.8
238.719	25994.8
244.674	25582.8
250.623	25175.8
256.565	24636.8
262.5	24102.8
268.429	23664.8
274.351	23374.8
280.267	23007.8
286.176	22782.8
292.079	22609.8
297.975	22362.8
303.865	22203.8
309.748	22010.8
315.625	21853.8
321.495	21736.8
327.359	21668.8
333.217	21609.8
339.068	21581.8
344.912	21590.8
350.751	21584.8
356.583	21549.8
362.408	21444.8
368.227	21479.8
374.04	21521.8
379.847	21644.8
385.647	21665.8
391.44	21775.8
397.228	21916.8
403.009	21960.8
408.784	22051.8
414.553	22052.8
420.315	22193.8
426.071	22171.8
431.821	22110.8
437.565	22129.8
443.302	22071.8
449.033	22064.8
454.758	22007.8
460.477	21939.8
466.189	21977.8
471.896	21839.8
477.596	21829.8
483.29	21754.8
488.978	21692.8
494.66	21689.8
500.335	21526.8
506.005	21334.8
511.668	21112.8
517.325	20858.8
522.977	20663.8
528.622	20525.8
534.261	20385.8
539.894	20287.8
545.521	20181.8
551.141	20148.8
556.756	20099.8
562.365	19994.8
567.968	19933.8
573.565	19832.8
579.155	19796.8
584.74	19701.8
590.319	19637.8
595.892	19512.8
601.459	19604.8
607.02	19398.8
612.575	19289.8
618.124	19173.8
623.667	19105.8
629.204	19049.8
634.735	18930.8
640.261	18836.8
645.781	18858.8
651.294	18788.8
656.802	18736.8
662.304	18662.8
667.8	18657.8
673.29	18606.8
678.775	18575.8
684.254	18483.8
689.726	18443.8
695.193	18426.8
700.655	18314.8
706.11	18227.8
711.56	18110.8
717.004	18133.8
722.442	17980.8
727.874	17985.8
733.301	17838.8
738.722	17784.8
744.137	17783.8
749.547	17809.8
754.951	17729.8
760.349	17857.8
765.741	17839.8
771.128	17753.8
776.509	17804.8
781.885	17853.8
787.254	17729.8
792.618	17708.8
797.977	17549.8
803.33	17446.8
808.677	17372.8
814.019	17258.8
819.355	17159.8
824.686	17117.8
830.011	17102.8
835.33	17096.8
840.644	17097.8
845.952	17173.8
851.255	17190.8
856.552	17141.8
861.844	17153.8
867.13	17132.8
872.41	17062.8
877.686	16982.8
882.955	16785.8
888.219	16697.8
893.478	16527.8
898.731	16359.8
903.979	16106.8
909.221	16041.8
914.458	15988.8
919.69	15995.8
924.916	16002.8
930.136	16106.8
935.351	16071.8
940.561	16100.8
945.766	16049.8
950.965	15997.8
956.158	15809.8
961.347	15740.8
966.529	15480.8
971.707	15291.8
976.879	15130.8
982.046	14960.8
987.208	14936.8
992.364	14894.8
997.515	14965.8
1002.66	15187.8
1007.801	15370.8
1012.936	15475.8
1018.066	15504.8
1023.19	15453.8
1028.309	15429.8
1033.423	15432.8
1038.532	15331.8
1043.636	15184.8
1048.734	14985.8
1053.827	14834.8
1058.915	14698.8
1063.998	14599.8
1069.075	14519.8
1074.147	14547.8
1079.214	14664.8
1084.276	14719.8
1089.333	14796.8
1094.385	14867.8
1099.431	14890.8
1104.472	14849.8
1109.509	14814.8
1114.54	14668.8
1119.565	14390.8
1124.586	14285.8
1129.602	14146.8
1134.613	14072.8
1139.618	13988.8
1144.619	13942.8
1149.614	13944.8
1154.604	13970.8
1159.589	13964.8
1164.57	14017.8
1169.545	14064.8
1174.515	14014.8
1179.48	13968.8
1184.44	13876.8
1189.395	13750.8
1194.345	13618.8
1199.29	13545.8
1204.23	13606.8
1209.165	13611.8
1214.095	13755.8
1219.021	13767.8
1223.941	13834.8
1228.856	13895.8
1233.766	13958.8
1238.672	14036.8
1243.572	14014.8
1248.467	13885.8
1253.358	13702.8
1258.244	13558.8
1263.124	13302.8
1268	13165.8
1272.871	12953.8
1277.737	12849.8
1282.599	12807.8
1287.455	12788.8
1292.306	12830.8
1297.153	12862.8
1301.995	12920.8
1306.832	12928.8
1311.664	12961.8
1316.491	12928.8
1321.314	12812.8
1326.132	12593.8
1330.945	12347.8
1335.753	12048.8
1340.556	11757.8
1345.354	11518.8
1350.148	11312.8
1354.937	11300.8
1359.722	11266.8
1364.501	11283.8
1369.276	11364.8
1374.046	11564.8
1378.811	11691.8
1383.572	11811.8
1388.327	11874.8
1393.079	11832.8
1397.825	11698.8
1402.567	11528.8
1407.304	11358.8
1412.036	11257.8
1416.764	11232.8
1421.487	11112.8
1426.205	11072.8
1430.919	10988.8
1435.628	11007.8
1440.333	11027.8
1445.032	11060.8
1449.727	11108.8
1454.418	11093.8
1459.104	10950.8
1463.785	10740.8
1468.462	10488.8
1473.134	10265.8
1477.802	10050.8
1482.465	9914.8
1487.123	9776.8
1491.777	9765.8
1496.426	9856.8
1501.071	9969.8
1505.711	10083.8
1510.347	10256.8
1514.978	10380.8
1519.604	10520.8
1524.226	10619.8
1528.844	10740.8
1533.457	10586.8
1538.065	10580.8
1542.669	10507.8
1547.269	10441.8
1551.864	10401.8
1556.454	10384.8
1561.041	10378.8
1565.622	10345.8
1570.199	10368.8
1574.772	10452.8
1579.34	10499.8
1583.904	10539.8
1588.464	10564.8
1593.019	10539.8
1597.569	10506.8
1602.115	10441.8
1606.657	10413.8
1611.195	10311.8
1615.728	10286.8
1620.256	10206.8
1624.78	10191.8
1629.3	10201.8
1633.816	10206.8
1638.327	10261.8
1642.834	10323.8
1647.336	10373.8
1651.834	10363.8
1656.328	10391.8
1660.817	10300.8
1665.302	10196.8
1669.783	10020.8
1674.259	9738.8
1678.732	9486.8
1683.199	9179.8
1687.663	8850.8
1692.122	8584.8
1696.577	8506.8
1701.028	8452.8
1705.474	8520.8
1709.917	8631.8
1714.355	8650.8
1718.788	8581.8
1723.218	8436.8
1727.643	8312.8
1732.064	8149.8
1736.481	7963.8
1740.893	7784.8
1745.301	7568.8
1749.705	7342.8
1754.105	7167.8
1758.501	6960.8
1762.893	6757.8
1767.28	6598.8
1771.663	6450.8
1776.042	6340.8
1780.417	6319.8
1784.787	6303.8
1789.154	6346.8
1793.516	6474.8
1797.874	6600.8
1802.228	6684.8
1806.578	6779.8
1810.924	6765.8
1815.266	6684.8
1819.603	6639.8
1823.937	6486.8
1828.266	6401.8
1832.591	6323.8
1836.913	6223.8
1841.23	6191.8
1845.543	6120.8
1849.852	6090.8
1854.156	6055.8
1858.457	6050.8
1862.754	6055.8
1867.047	6072.8
1871.335	6052.8
1875.62	6033.8
1879.9	5974.8
1884.177	5944.8
1888.449	5880.8
1892.718	5858.8
1896.982	5788.8
1901.243	5733.8
1905.499	5681.8
1909.752	5641.8
1914	5664.8
1918.245	5681.8
1922.485	5723.8
1926.722	5766.8
1930.954	5831.8
1935.183	5901.8
1939.408	5954.8
1943.628	5989.8
1947.845	5992.8
1952.058	5980.8
1956.267	5929.8
1960.472	5865.8
1964.673	5778.8
1968.87	5687.8
1973.063	5651.8
1977.252	5520.8
1981.438	5489.8
1985.619	5420.8
1989.797	5362.8
1993.971	5339.8
1998.14	5335.8
2002.306	5268.8
2006.469	5269.8
2010.627	5280.8
2014.781	5250.8
2018.932	5192.8
2023.078	5102.8
2027.221	5045.8
2031.36	4945.8
2035.495	4890.8
2039.627	4846.8
2043.754	4788.8
2047.878	4747.8
2051.998	4693.8
2056.114	4705.8
2060.226	4698.8
2064.334	4679.8
2068.439	4690.8
2072.54	4726.8
2076.637	4763.8
2080.73	4777.8
2084.82	4817.8
2088.906	4804.8
2092.988	4851.8
2097.066	4806.8
2101.14	4784.8
2105.211	4710.8
2109.278	4727.8
2113.342	4683.8
2117.401	4641.8
2121.457	4609.8
2125.509	4613.8
2129.558	4584.8
2133.602	4566.8
2137.643	4551.8
2141.681	4531.8
2145.714	4499.8
2149.744	4493.8
2153.77	4449.8
2157.793	4363.8
2161.812	4364.8
2165.827	4274.8
2169.838	4216.8
2173.846	4113.8
2177.851	4076.8
2181.851	4022.8
2185.848	3965.8
2189.841	3915.8
2193.831	3894.8
2197.817	3862.8
2201.799	3848.8
2205.778	3825.8
2209.753	3786.8
2213.725	3820.8
2217.693	3784.8
2221.657	3762.8
2225.618	3772.8
2229.575	3732.8
2233.529	3714.8
2237.479	3716.8
2241.425	3633.8
2245.368	3607.8
2249.307	3541.8
2253.243	3496.8
2257.175	3450.8
2261.104	3411.8
2265.029	3346.8
2268.95	3332.8
2272.868	3295.8
2276.783	3256.8
2280.694	3220.8
2284.601	3185.8
2288.505	3172.8
2292.405	3133.8
2296.302	3114.8
2300.195	3078.8
2304.085	3024.8
2307.971	2997.8
2311.854	2970.8
2315.734	2913.8
2319.609	2872.8
2323.482	2825.8
2327.351	2785.8
2331.216	2791.8
2335.078	2765.8
2338.937	2744.8
2342.792	2763.8
2346.643	2726.8
2350.492	2722.8
2354.336	2749.8
2358.178	2725.8
2362.015	2753.8
2365.85	2753.8
2369.681	2772.8
2373.508	2753.8
2377.333	2750.8
2381.153	2758.8
2384.971	2740.8
2388.785	2711.8
2392.595	2706.8
2396.402	2667.8
2400.206	2645.8
2404.007	2654.8
2407.804	2614.8
2411.597	2604.8
2415.388	2591.8
2419.174	2565.8
2422.958	2547.8
2426.738	2519.8
2430.515	2523.8
2434.289	2488.8
2438.059	2471.8
2441.825	2468.8
2445.589	2413.8
2449.349	2407.8
2453.106	2362.8
2456.859	2329.8
2460.61	2295.8
2464.356	2264.8
2468.1	2272.8
2471.84	2243.8
2475.577	2212.8
2479.311	2198.8
2483.041	2183.8
2486.768	2178.8
2490.492	2183.8
2494.213	2156.8
2497.93	2151.8
2501.644	2126.8
2505.355	2150.8
2509.062	2124.8
2512.766	2130.8
2516.467	2108.8
2520.165	2069.8
2523.859	2084.8
2527.551	2056.8
2531.239	2045.8
2534.923	2031.8
2538.605	2008.8
2542.283	2010.8
2545.958	1989.8
2549.63	2000.8
2553.299	1982.8
2556.964	1993.8
2560.626	2001.8
2564.285	1977.8
2567.941	1967.8
2571.594	1959.8
2575.243	1938.8
2578.89	1943.8
2582.533	1908.8
2586.173	1904.8
2589.809	1903.8
2593.443	1858.8
2597.073	1840.8
2600.701	1840.8
2604.325	1837.8
2607.946	1808.8
2611.564	1787.8
2615.178	1780.8
2618.79	1770.8
2622.398	1751.8
2626.004	1735.8
2629.606	1710.8
2633.205	1704.8
2636.801	1677.8
2640.394	1658.8
2643.983	1628.8
2647.57	1591.8
2651.153	1573.8
2654.734	1561.8
2658.311	1531.8
2661.885	1520.8
2665.456	1498.8
2669.025	1455.8
2672.589	1461.8
2676.151	1431.8
2679.71	1418.8
2683.266	1382.8
2686.819	1357.8
2690.368	1340.8
2693.915	1331.8
2697.458	1288.8
2700.999	1259.8
2704.536	1222.8
2708.071	1197.8
2711.602	1172.8
2715.13	1147.8
2718.656	1131.8
2722.178	1105.8
2725.697	1084.8
2729.214	1098.8
2732.727	1071.8
2736.237	1064.8
2739.744	1078.8
2743.249	1070.8
2746.75	1077.8
2750.248	1073.8
2753.743	1094.8
2757.236	1118.8
2760.725	1103.8
2764.211	1122.8
2767.695	1122.8
2771.175	1115.8
2774.652	1124.8
2778.127	1106.8
2781.598	1073.8
2785.067	1091.8
2788.532	1093.8
2791.995	1085.8
2795.455	1096.8
2798.911	1069.8
2802.365	1099.8
2805.816	1085.8
2809.264	1104.8
2812.709	1069.8
2816.151	1068.8
2819.59	1087.8
2823.026	1082.8
2826.46	1075.8
2829.89	1079.8
2833.318	1085.8
2836.742	1080.8
2840.164	1113.8
2843.583	1078.8
2846.999	1127.8
2850.412	1125.8
2853.822	1137.8
2857.229	1157.8
2860.634	1172.8
2864.035	1183.8
2867.434	1197.8
2870.83	1232.8
2874.223	1243.8
2877.613	1261.8
2881	1286.8
2884.385	1304.8
2887.766	1269.8
2891.145	1285.8
2894.521	1265.8
2897.894	1282.8
2901.264	1279.8
2904.631	1257.8
2907.996	1271.8
2911.358	1298.8
2914.717	1288.8
2918.073	1300.8
2921.426	1320.8
2924.777	1316.8
2928.124	1347.8
2931.469	1365.8
2934.811	1393.8
2938.15	1394.8
2941.487	1408.8
2944.821	1430.8
2948.152	1431.8
2951.48	1409.8
2954.805	1384.8
2958.128	1376.8
2961.447	1379.8
2964.765	1354.8
2968.079	1364.8
2971.39	1384.8
2974.699	1383.8
2978.005	1427.8
2981.308	1426.8
2984.609	1476.8
2987.907	1479.8
2991.202	1505.8
2994.494	1541.8
2997.784	1572.8
3001.07	1604.8
3004.355	1616.8
3007.636	1655.8
3010.915	1674.8
3014.191	1693.8
3017.464	1696.8
3020.734	1681.8
3024.002	1707.8
3027.267	1726.8
3030.53	1745.8
3033.789	1743.8
3037.046	1792.8
3040.301	1805.8
3043.552	1829.8
3046.801	1888.8
3050.048	1929.8
3053.291	1969.8
3056.532	2010.8
3059.771	2061.8
3063.006	2129.8
3066.239	2192.8
3069.469	2258.8
3072.697	2313.8
3075.922	2362.8
3079.144	2447.8
3082.364	2492.8
3085.581	2519.8
3088.795	2603.8
3092.007	2641.8
3095.216	2684.8
3098.423	2754.8
3101.627	2818.8
3104.828	2869.8
3108.026	2947.8
3111.222	2986.8
3114.416	3071.8
3117.607	3137.8
3120.795	3225.8
3123.98	3262.8
3127.163	3359.8
3130.344	3448.8
3133.521	3520.8
3136.696	3580.8
3139.869	3671.8
3143.039	3733.8
3146.206	3781.8
3149.371	3823.8
3152.533	3835.8
3155.693	3887.8
3158.85	3898.8
3162.005	3919.8
3165.157	3954.8
3168.306	3931.8
3171.453	3956.8
3174.597	3953.8
3177.739	3944.8
3180.878	3968.8
3184.014	3964.8
3187.149	3981.8
3190.28	4010.8
3193.409	3985.8
3196.536	3996.8
3199.659	3978.8
3202.781	3982.8
3205.9	4005.8
3209.016	3984.8
3212.13	3964.8
3215.241	3944.8
3218.35	3918.8
3221.456	3843.8
3224.56	3821.8
3227.661	3767.8
3230.76	3737.8
3233.856	3686.8
3236.95	3657.8
3240.041	3642.8
3243.13	3591.8
3246.216	3611.8
3249.3	3548.8
3252.382	3553.8
3255.46	3532.8
3258.537	3532.8
3261.611	3525.8
3264.682	3515.8
3267.751	3533.8
3270.818	3509.8
3273.882	3491.8
3276.943	3444.8
3280.002	3433.8
3283.059	3401.8
3286.113	3375.8
3289.165	3320.8
3292.214	3260.8
3295.261	3242.8
3298.306	3173.8
3301.348	3129.8
3304.387	3031.8
3307.425	3024.8
3310.459	2984.8
3313.492	2938.8
3316.521	2894.8
3319.549	2874.8
3322.574	2842.8
3325.597	2814.8
3328.617	2773.8
3331.635	2761.8
3334.65	2742.8
3337.663	2737.8
3340.674	2710.8
3343.682	2723.8
3346.688	2716.8
3349.691	2663.8
3352.692	2670.8
3355.691	2652.8
3358.687	2640.8
3361.681	2583.8
3364.673	2562.8
3367.662	2534.8
3370.649	2485.8
3373.633	2456.8
3376.615	2421.8
3379.595	2388.8
3382.572	2346.8
3385.547	2315.8
3388.52	2275.8
3391.49	2222.8
3394.458	2218.8
3397.424	2171.8
3400.387	2129.8
3403.348	2121.8
3406.307	2104.8
3409.263	2071.8
3412.217	2063.8
3415.168	2001.8
3418.118	1990.8
3421.065	1972.8
3424.009	1939.8
3426.951	1885.8
3429.891	1875.8
3432.829	1821.8
3435.764	1781.8
3438.697	1753.8
3441.628	1675.8
3444.557	1651.8
3447.483	1614.8
3450.407	1523.8
3453.328	1470.8
3456.247	1430.8
3459.164	1385.8
3462.079	1343.8
3464.991	1277.8
3467.902	1230.8
3470.809	1185.8
3473.715	1123.8
3476.618	1106.8
3479.519	1065.8
3482.418	1013.8
3485.315	996.8
3488.209	945.8
3491.101	924.8
3493.99	874.8
3496.878	857.8
3499.763	808.8
3502.646	791.8
3505.527	745.8
3508.405	700.8
3511.281	642.8
3514.155	613.8
3517.027	575.8
3519.897	543.8
3522.764	493.8
3525.629	462.8
3528.492	424.8
3531.352	386.8
3534.211	351.8
3537.067	300.8
3539.921	271.8
3542.773	242.8
3545.622	214.8
3548.469	186.8
3551.315	151.8
3554.157	115.8
3556.998	98.8
3559.837	62.8
3562.673	36.8
3565.507	22.8
3568.339	4.8
3571.169	-19.2
3573.996	-32.2
3576.822	-51.2
3579.645	-63.2
3582.466	-98.2
3585.285	-103.2
3588.101	-129.2
3590.916	-148.2
3593.728	-164.2
3596.538	-185.2
3599.346	-202.2
3602.152	-211.2
3604.956	-229.2
3607.757	-253.2
3610.556	-265.2
3613.354	-290.2
3616.149	-291.2
3618.942	-302.2
3621.732	-311.2
3624.521	-320.2
3627.307	-342.2
3630.092	-351.2
3632.874	-350.2
3635.654	-368.2
3638.432	-365.2
3641.208	-378.2
3643.982	-390.2
3646.753	-396.2
3649.523	-413.2
3652.29	-419.2
3655.055	-418.2
3657.818	-434.2
3660.579	-440.2
3663.338	-447.2
3666.095	-468.2
3668.849	-478.2
3671.602	-482.2
3674.352	-489.2
3677.101	-496.2
3679.847	-510.2
3682.591	-503.2
3685.333	-509.2
3688.073	-511.2
3690.811	-523.2
3693.547	-521.2
3696.281	-530.2
3699.013	-542.2
3701.742	-541.2
3704.47	-548.2
3707.195	-553.2
3709.919	-554.2
3712.64	-564.2
3715.359	-563.2
3718.076	-564.2
3720.792	-570.2
3723.505	-574.2
3726.216	-582.2
3728.925	-579.2
3731.632	-586.2
3734.336	-587.2
3737.039	-598.2
3739.74	-591.2
3742.439	-595.2
3745.136	-592.2
3747.83	-597.2
3750.523	-591.2
3753.213	-600.2
3755.902	-601.2
3758.589	-599.2
3761.273	-601.2
3763.956	-607.2
3766.636	-609.2
3769.315	-616.2
3771.991	-612.2
3774.665	-614.2
3777.338	-617.2
3780.008	-618.2
3782.677	-622.2
3785.343	-624.2
3788.007	-618.2
3790.67	-624.2
3793.33	-627.2
3795.989	-630.2
3798.645	-629.2
3801.299	-632.2
3803.952	-633.2
3806.602	-628.2
3809.251	-631.2
3811.897	-634.2
3814.542	-631.2
3817.184	-629.2
3819.825	-635.2
3822.463	-637.2
3825.1	-638.2
3827.735	-637.2
3830.367	-637.2
3832.998	-639.2
3835.627	-647.2
3838.253	-640.2
3840.878	-645.2
3843.501	-644.2
3846.122	-639.2
3848.741	-641.2
3851.358	-642.2
3853.973	-645.2
3856.586	-641.2
3859.197	-649.2
3861.806	-647.2
3864.414	-638.2
3867.019	-640.2
3869.622	-641.2
3872.224	-639.2
3874.823	-624.2
3877.421	-605.2
3880.016	-590.2
3882.61	-565.2
3885.202	-560.2
3887.792	-585.2
3890.38	-615.2
3892.966	-634.2
3895.55	-641.2
3898.132	-646.2
3900.713	-658.2
3903.291	-660.2
3905.868	-658.2
3908.442	-656.2
3911.015	-649.2
3913.586	-656.2
3916.155	-654.2
3918.722	-662.2
3921.287	-658.2
3923.85	-655.2
3926.411	-656.2
3928.971	-660.2
3931.528	-658.2
3934.084	-655.2
3936.638	-666.2
3939.19	-662.2
3941.74	-666.2
3944.288	-665.2
3946.834	-667.2
3949.378	-664.2
3951.921	-665.2
3954.462	-663.2
3957	-657.2
3959.537	-648.2
3962.072	-656.2
3964.606	-656.2
3967.137	-662.2
3969.667	-651.2
3972.194	-649.2
3974.72	-656.2
3977.244	-652.2
3979.766	-648.2
3982.286	-653.2
3984.805	-639.2
3987.321	-648.2
3989.836	-651.2
3992.349	-646.2
3994.86	-642.2
3997.369	-655.2
3999.877	-651.2
4002.382	-643.2
4004.886	-647.2
4007.388	-647.2
4009.888	-643.2
4012.386	-649.2
4014.883	-642.2
4017.377	-640.2
4019.87	-646.2
4022.361	-646.2
4024.85	-644.2
4027.338	-647.2
4029.823	-650.2
4032.307	-652.2
4034.789	-655.2
4037.269	-659.2
4039.747	-654.2
4042.224	-647.2
4044.699	-649.2
4047.172	-654.2
4049.643	-648.2
4052.112	-648.2
4054.58	-646.2
4057.046	-653.2
4059.51	-648.2
4061.972	-650.2
4064.432	-643.2
4066.891	-650.2
4069.348	-648.2
4071.803	-650.2
4074.256	-646.2
4076.708	-649.2
4079.158	-650.2
4081.606	-649.2
4084.052	-645.2
4086.497	-652.2
4088.939	-646.2
4091.38	-645.2
4093.819	-642.2
4096.257	-687.2
4098.693	-683.2
4101.127	-688.2
4103.559	-686.2
4105.989	-403.2
4108.418	-381.2
4110.845	-365.2
4113.27	-336.2
4115.694	-294.2
4118.115	-245.2
4120.535	-647.2
4122.954	-650.2
4125.37	-646.2
4127.785	-650.2
4130.198	-653.2
4132.609	-645.2
4135.019	-688.2
4137.427	-684.2
4139.833	-680.2
4142.237	-684.2
