Data from 2018-2-7_conc=6_RamanShift_02.txt Node
Date: Tue Feb 13 14:26:43 IST 2018
User: aro
Spectrometer: QEPB0276
Trigger mode: 0
Integration Time (sec): 3.000000E1
Scans to average: 1
Electric dark correction enabled: true
Nonlinearity correction enabled: false
Boxcar width: 0
XAxis mode: Raman Shifts
Number of Pixels in Spectrum: 1044
>>>>>Begin Spectral Data<<<<<
160.701	-153.2
166.742	23.8
172.777	565.8
178.805	2131.8
184.826	5867.8
190.841	12082.8
196.849	19185.8
202.85	23983.8
208.845	25421.8
214.833	25137.8
220.815	24616.8
226.789	24317.8
232.758	24212.8
238.719	23965.8
244.674	23632.8
250.623	23108.8
256.565	22619.8
262.5	22091.8
268.429	21663.8
274.351	21284.8
280.267	20964.8
286.176	20699.8
292.079	20468.8
297.975	20249.8
303.865	20067.8
309.748	19908.8
315.625	19773.8
321.495	19615.8
327.359	19520.8
333.217	19479.8
339.068	19434.8
344.912	19451.8
350.751	19434.8
356.583	19361.8
362.408	19417.8
368.227	19392.8
374.04	19364.8
379.847	19450.8
385.647	19514.8
391.44	19619.8
397.228	19597.8
403.009	19723.8
408.784	19775.8
414.553	19872.8
420.315	20004.8
426.071	19921.8
431.821	19951.8
437.565	19928.8
443.302	19823.8
449.033	19815.8
454.758	19769.8
460.477	19723.8
466.189	19690.8
471.896	19666.8
477.596	19607.8
483.29	19561.8
488.978	19490.8
494.66	19443.8
500.335	19317.8
506.005	19130.8
511.668	18830.8
517.325	18592.8
522.977	18480.8
528.622	18307.8
534.261	18230.8
539.894	18121.8
545.521	18022.8
551.141	17967.8
556.756	17988.8
562.365	17851.8
567.968	17777.8
573.565	17767.8
579.155	17634.8
584.74	17519.8
590.319	17507.8
595.892	17470.8
601.459	17360.8
607.02	17290.8
612.575	17188.8
618.124	17086.8
623.667	16948.8
629.204	16921.8
634.735	16799.8
640.261	16750.8
645.781	16696.8
651.294	16676.8
656.802	16622.8
662.304	16600.8
667.8	16555.8
673.29	16544.8
678.775	16454.8
684.254	16456.8
689.726	16423.8
695.193	16320.8
700.655	16245.8
706.11	16201.8
711.56	16037.8
717.004	15988.8
722.442	15934.8
727.874	15890.8
733.301	15817.8
738.722	15737.8
744.137	15743.8
749.547	15780.8
754.951	15739.8
760.349	15749.8
765.741	15766.8
771.128	15749.8
776.509	15767.8
781.885	15838.8
787.254	15712.8
792.618	15645.8
797.977	15517.8
803.33	15387.8
808.677	15362.8
814.019	15262.8
819.355	15164.8
824.686	15102.8
830.011	15117.8
835.33	15069.8
840.644	15072.8
845.952	15187.8
851.255	15222.8
856.552	15162.8
861.844	15138.8
867.13	15057.8
872.41	15005.8
877.686	14941.8
882.955	14859.8
888.219	14664.8
893.478	14515.8
898.731	14317.8
903.979	14247.8
909.221	14116.8
914.458	14030.8
919.69	14034.8
924.916	14136.8
930.136	14139.8
935.351	14150.8
940.561	14092.8
945.766	14129.8
950.965	14024.8
956.158	13936.8
961.347	13776.8
966.529	13630.8
971.707	13476.8
976.879	13303.8
982.046	13161.8
987.208	13161.8
992.364	13143.8
997.515	13258.8
1002.66	13350.8
1007.801	13482.8
1012.936	13597.8
1018.066	13582.8
1023.19	13580.8
1028.309	13582.8
1033.423	13539.8
1038.532	13489.8
1043.636	13301.8
1048.734	13115.8
1053.827	13003.8
1058.915	12830.8
1063.998	12776.8
1069.075	12733.8
1074.147	12823.8
1079.214	12837.8
1084.276	12966.8
1089.333	12988.8
1094.385	13066.8
1099.431	13112.8
1104.472	13067.8
1109.509	12954.8
1114.54	12870.8
1119.565	12661.8
1124.586	12474.8
1129.602	12442.8
1134.613	12343.8
1139.618	12227.8
1144.619	12205.8
1149.614	12206.8
1154.604	12208.8
1159.589	12259.8
1164.57	12281.8
1169.545	12323.8
1174.515	12301.8
1179.48	12237.8
1184.44	12190.8
1189.395	12040.8
1194.345	11973.8
1199.29	11926.8
1204.23	11947.8
1209.165	11973.8
1214.095	12058.8
1219.021	12084.8
1223.941	12127.8
1228.856	12245.8
1233.766	12241.8
1238.672	12290.8
1243.572	12239.8
1248.467	12202.8
1253.358	12046.8
1258.244	11784.8
1263.124	11703.8
1268	11512.8
1272.871	11396.8
1277.737	11312.8
1282.599	11199.8
1287.455	11219.8
1292.306	11237.8
1297.153	11282.8
1301.995	11331.8
1306.832	11399.8
1311.664	11412.8
1316.491	11343.8
1321.314	11259.8
1326.132	11062.8
1330.945	10818.8
1335.753	10541.8
1340.556	10303.8
1345.354	10085.8
1350.148	9949.8
1354.937	9884.8
1359.722	9910.8
1364.501	9931.8
1369.276	10011.8
1374.046	10156.8
1378.811	10297.8
1383.572	10367.8
1388.327	10434.8
1393.079	10316.8
1397.825	10219.8
1402.567	10093.8
1407.304	9998.8
1412.036	9881.8
1416.764	9833.8
1421.487	9730.8
1426.205	9708.8
1430.919	9646.8
1435.628	9664.8
1440.333	9681.8
1445.032	9718.8
1449.727	9735.8
1454.418	9721.8
1459.104	9661.8
1463.785	9448.8
1468.462	9163.8
1473.134	9010.8
1477.802	8821.8
1482.465	8715.8
1487.123	8592.8
1491.777	8599.8
1496.426	8623.8
1501.071	8677.8
1505.711	8840.8
1510.347	8974.8
1514.978	9119.8
1519.604	9225.8
1524.226	9370.8
1528.844	9340.8
1533.457	9355.8
1538.065	9286.8
1542.669	9265.8
1547.269	9204.8
1551.864	9102.8
1556.454	9093.8
1561.041	9114.8
1565.622	9083.8
1570.199	9102.8
1574.772	9208.8
1579.34	9226.8
1583.904	9310.8
1588.464	9352.8
1593.019	9378.8
1597.569	9319.8
1602.115	9283.8
1606.657	9230.8
1611.195	9187.8
1615.728	9146.8
1620.256	9055.8
1624.78	9118.8
1629.3	9160.8
1633.816	9115.8
1638.327	9184.8
1642.834	9251.8
1647.336	9268.8
1651.834	9271.8
1656.328	9251.8
1660.817	9170.8
1665.302	9095.8
1669.783	8969.8
1674.259	8666.8
1678.732	8428.8
1683.199	8167.8
1687.663	7857.8
1692.122	7620.8
1696.577	7527.8
1701.028	7505.8
1705.474	7551.8
1709.917	7574.8
1714.355	7567.8
1718.788	7522.8
1723.218	7413.8
1727.643	7293.8
1732.064	7132.8
1736.481	6984.8
1740.893	6785.8
1745.301	6622.8
1749.705	6434.8
1754.105	6212.8
1758.501	6068.8
1762.893	5901.8
1767.28	5738.8
1771.663	5615.8
1776.042	5481.8
1780.417	5444.8
1784.787	5457.8
1789.154	5501.8
1793.516	5604.8
1797.874	5665.8
1802.228	5807.8
1806.578	5863.8
1810.924	5870.8
1815.266	5798.8
1819.603	5750.8
1823.937	5639.8
1828.266	5570.8
1832.591	5443.8
1836.913	5394.8
1841.23	5368.8
1845.543	5329.8
1849.852	5291.8
1854.156	5252.8
1858.457	5250.8
1862.754	5270.8
1867.047	5235.8
1871.335	5257.8
1875.62	5225.8
1879.9	5194.8
1884.177	5142.8
1888.449	5087.8
1892.718	5052.8
1896.982	4974.8
1901.243	4945.8
1905.499	4904.8
1909.752	4880.8
1914	4889.8
1918.245	4879.8
1922.485	4953.8
1926.722	4957.8
1930.954	5057.8
1935.183	5080.8
1939.408	5159.8
1943.628	5190.8
1947.845	5233.8
1952.058	5204.8
1956.267	5144.8
1960.472	5099.8
1964.673	5010.8
1968.87	4951.8
1973.063	4878.8
1977.252	4804.8
1981.438	4773.8
1985.619	4720.8
1989.797	4652.8
1993.971	4644.8
1998.14	4623.8
2002.306	4585.8
2006.469	4602.8
2010.627	4559.8
2014.781	4530.8
2018.932	4465.8
2023.078	4463.8
2027.221	4378.8
2031.36	4365.8
2035.495	4273.8
2039.627	4196.8
2043.754	4137.8
2047.878	4109.8
2051.998	4097.8
2056.114	4042.8
2060.226	4072.8
2064.334	4077.8
2068.439	4086.8
2072.54	4104.8
2076.637	4132.8
2080.73	4190.8
2084.82	4187.8
2088.906	4196.8
2092.988	4230.8
2097.066	4199.8
2101.14	4170.8
2105.211	4137.8
2109.278	4134.8
2113.342	4110.8
2117.401	4047.8
2121.457	4028.8
2125.509	4039.8
2129.558	4012.8
2133.602	3998.8
2137.643	3973.8
2141.681	3932.8
2145.714	3924.8
2149.744	3893.8
2153.77	3866.8
2157.793	3833.8
2161.812	3787.8
2165.827	3742.8
2169.838	3691.8
2173.846	3616.8
2177.851	3544.8
2181.851	3484.8
2185.848	3443.8
2189.841	3435.8
2193.831	3410.8
2197.817	3383.8
2201.799	3331.8
2205.778	3324.8
2209.753	3331.8
2213.725	3303.8
2217.693	3288.8
2221.657	3257.8
2225.618	3273.8
2229.575	3251.8
2233.529	3253.8
2237.479	3202.8
2241.425	3169.8
2245.368	3132.8
2249.307	3067.8
2253.243	3016.8
2257.175	2992.8
2261.104	2968.8
2265.029	2915.8
2268.95	2902.8
2272.868	2843.8
2276.783	2800.8
2280.694	2786.8
2284.601	2782.8
2288.505	2739.8
2292.405	2717.8
2296.302	2696.8
2300.195	2650.8
2304.085	2628.8
2307.971	2582.8
2311.854	2575.8
2315.734	2509.8
2319.609	2489.8
2323.482	2432.8
2327.351	2414.8
2331.216	2419.8
2335.078	2396.8
2338.937	2376.8
2342.792	2371.8
2346.643	2357.8
2350.492	2367.8
2354.336	2388.8
2358.178	2364.8
2362.015	2373.8
2365.85	2402.8
2369.681	2411.8
2373.508	2399.8
2377.333	2389.8
2381.153	2396.8
2384.971	2367.8
2388.785	2354.8
2392.595	2348.8
2396.402	2299.8
2400.206	2264.8
2404.007	2253.8
2407.804	2250.8
2411.597	2214.8
2415.388	2229.8
2419.174	2222.8
2422.958	2185.8
2426.738	2194.8
2430.515	2134.8
2434.289	2133.8
2438.059	2112.8
2441.825	2096.8
2445.589	2077.8
2449.349	2045.8
2453.106	2031.8
2456.859	1999.8
2460.61	1981.8
2464.356	1968.8
2468.1	1944.8
2471.84	1909.8
2475.577	1878.8
2479.311	1898.8
2483.041	1886.8
2486.768	1878.8
2490.492	1876.8
2494.213	1861.8
2497.93	1850.8
2501.644	1842.8
2505.355	1836.8
2509.062	1803.8
2512.766	1805.8
2516.467	1806.8
2520.165	1799.8
2523.859	1771.8
2527.551	1748.8
2531.239	1770.8
2534.923	1748.8
2538.605	1724.8
2542.283	1731.8
2545.958	1700.8
2549.63	1714.8
2553.299	1714.8
2556.964	1697.8
2560.626	1697.8
2564.285	1689.8
2567.941	1686.8
2571.594	1669.8
2575.243	1652.8
2578.89	1659.8
2582.533	1634.8
2586.173	1637.8
2589.809	1615.8
2593.443	1609.8
2597.073	1588.8
2600.701	1572.8
2604.325	1562.8
2607.946	1551.8
2611.564	1543.8
2615.178	1527.8
2618.79	1536.8
2622.398	1493.8
2626.004	1494.8
2629.606	1460.8
2633.205	1461.8
2636.801	1433.8
2640.394	1412.8
2643.983	1414.8
2647.57	1379.8
2651.153	1354.8
2654.734	1334.8
2658.311	1313.8
2661.885	1290.8
2665.456	1266.8
2669.025	1271.8
2672.589	1247.8
2676.151	1219.8
2679.71	1216.8
2683.266	1173.8
2686.819	1166.8
2690.368	1144.8
2693.915	1134.8
2697.458	1105.8
2700.999	1060.8
2704.536	1053.8
2708.071	1026.8
2711.602	1002.8
2715.13	969.8
2718.656	947.8
2722.178	936.8
2725.697	928.8
2729.214	926.8
2732.727	901.8
2736.237	911.8
2739.744	914.8
2743.249	926.8
2746.75	904.8
2750.248	917.8
2753.743	934.8
2757.236	928.8
2760.725	940.8
2764.211	978.8
2767.695	963.8
2771.175	945.8
2774.652	945.8
2778.127	948.8
2781.598	955.8
2785.067	945.8
2788.532	926.8
2791.995	940.8
2795.455	936.8
2798.911	907.8
2802.365	932.8
2805.816	928.8
2809.264	933.8
2812.709	929.8
2816.151	920.8
2819.59	934.8
2823.026	933.8
2826.46	937.8
2829.89	938.8
2833.318	943.8
2836.742	948.8
2840.164	948.8
2843.583	976.8
2846.999	986.8
2850.412	981.8
2853.822	1004.8
2857.229	1017.8
2860.634	1020.8
2864.035	1040.8
2867.434	1064.8
2870.83	1092.8
2874.223	1107.8
2877.613	1146.8
2881	1156.8
2884.385	1159.8
2887.766	1156.8
2891.145	1157.8
2894.521	1137.8
2897.894	1151.8
2901.264	1140.8
2904.631	1156.8
2907.996	1152.8
2911.358	1161.8
2914.717	1157.8
2918.073	1188.8
2921.426	1204.8
2924.777	1209.8
2928.124	1246.8
2931.469	1264.8
2934.811	1281.8
2938.15	1283.8
2941.487	1290.8
2944.821	1299.8
2948.152	1325.8
2951.48	1295.8
2954.805	1309.8
2958.128	1273.8
2961.447	1259.8
2964.765	1258.8
2968.079	1253.8
2971.39	1271.8
2974.699	1291.8
2978.005	1301.8
2981.308	1346.8
2984.609	1364.8
2987.907	1394.8
2991.202	1425.8
2994.494	1460.8
2997.784	1491.8
3001.07	1528.8
3004.355	1518.8
3007.636	1552.8
3010.915	1581.8
3014.191	1570.8
3017.464	1593.8
3020.734	1624.8
3024.002	1624.8
3027.267	1641.8
3030.53	1639.8
3033.789	1685.8
3037.046	1678.8
3040.301	1739.8
3043.552	1733.8
3046.801	1812.8
3050.048	1824.8
3053.291	1860.8
3056.532	1950.8
3059.771	1990.8
3063.006	2075.8
3066.239	2089.8
3069.469	2195.8
3072.697	2243.8
3075.922	2289.8
3079.144	2342.8
3082.364	2391.8
3085.581	2452.8
3088.795	2510.8
3092.007	2576.8
3095.216	2625.8
3098.423	2677.8
3101.627	2721.8
3104.828	2790.8
3108.026	2856.8
3111.222	2917.8
3114.416	2987.8
3117.607	3062.8
3120.795	3128.8
3123.98	3214.8
3127.163	3286.8
3130.344	3353.8
3133.521	3428.8
3136.696	3500.8
3139.869	3592.8
3143.039	3651.8
3146.206	3681.8
3149.371	3736.8
3152.533	3776.8
3155.693	3786.8
3158.85	3810.8
3162.005	3822.8
3165.157	3857.8
3168.306	3854.8
3171.453	3873.8
3174.597	3879.8
3177.739	3881.8
3180.878	3911.8
3184.014	3880.8
3187.149	3899.8
3190.28	3935.8
3193.409	3905.8
3196.536	3946.8
3199.659	3947.8
3202.781	3940.8
3205.9	3928.8
3209.016	3927.8
3212.13	3922.8
3215.241	3865.8
3218.35	3849.8
3221.456	3782.8
3224.56	3751.8
3227.661	3708.8
3230.76	3701.8
3233.856	3626.8
3236.95	3599.8
3240.041	3576.8
3243.13	3567.8
3246.216	3527.8
3249.3	3466.8
3252.382	3489.8
3255.46	3496.8
3258.537	3493.8
3261.611	3473.8
3264.682	3447.8
3267.751	3464.8
3270.818	3455.8
3273.882	3431.8
3276.943	3414.8
3280.002	3419.8
3283.059	3375.8
3286.113	3312.8
3289.165	3282.8
3292.214	3233.8
3295.261	3164.8
3298.306	3123.8
3301.348	3097.8
3304.387	3037.8
3307.425	3025.8
3310.459	2962.8
3313.492	2892.8
3316.521	2870.8
3319.549	2839.8
3322.574	2826.8
3325.597	2781.8
3328.617	2763.8
3331.635	2753.8
3334.65	2760.8
3337.663	2710.8
3340.674	2693.8
3343.682	2713.8
3346.688	2693.8
3349.691	2663.8
3352.692	2651.8
3355.691	2640.8
3358.687	2614.8
3361.681	2574.8
3364.673	2553.8
3367.662	2522.8
3370.649	2493.8
3373.633	2450.8
3376.615	2415.8
3379.595	2384.8
3382.572	2328.8
3385.547	2320.8
3388.52	2272.8
3391.49	2232.8
3394.458	2191.8
3397.424	2180.8
3400.387	2162.8
3403.348	2117.8
3406.307	2084.8
3409.263	2080.8
3412.217	2050.8
3415.168	2038.8
3418.118	2010.8
3421.065	1961.8
3424.009	1973.8
3426.951	1888.8
3429.891	1873.8
3432.829	1823.8
3435.764	1804.8
3438.697	1741.8
3441.628	1698.8
3444.557	1652.8
3447.483	1613.8
3450.407	1550.8
3453.328	1505.8
3456.247	1456.8
3459.164	1391.8
3462.079	1355.8
3464.991	1309.8
3467.902	1238.8
3470.809	1210.8
3473.715	1165.8
3476.618	1133.8
3479.519	1090.8
3482.418	1035.8
3485.315	1018.8
3488.209	977.8
3491.101	951.8
3493.99	908.8
3496.878	863.8
3499.763	833.8
3502.646	819.8
3505.527	768.8
3508.405	737.8
3511.281	682.8
3514.155	646.8
3517.027	623.8
3519.897	574.8
3522.764	535.8
3525.629	491.8
3528.492	453.8
3531.352	416.8
3534.211	386.8
3537.067	343.8
3539.921	307.8
3542.773	275.8
3545.622	245.8
3548.469	216.8
3551.315	185.8
3554.157	154.8
3556.998	125.8
3559.837	105.8
3562.673	77.8
3565.507	70.8
3568.339	45.8
3571.169	134.8
3573.996	76.8
3576.822	-5.2
3579.645	-41.2
3582.466	-55.2
3585.285	-70.2
3588.101	-94.2
3590.916	-115.2
3593.728	-130.2
3596.538	-155.2
3599.346	-174.2
3602.152	-168.2
3604.956	-204.2
3607.757	-203.2
3610.556	-216.2
3613.354	-237.2
3616.149	-253.2
3618.942	-259.2
3621.732	-278.2
3624.521	-278.2
3627.307	-293.2
3630.092	-308.2
3632.874	-315.2
3635.654	-313.2
3638.432	-333.2
3641.208	-335.2
3643.982	-355.2
3646.753	-360.2
3649.523	-369.2
3652.29	-378.2
3655.055	-390.2
3657.818	-388.2
3660.579	-408.2
3663.338	-414.2
3666.095	-424.2
3668.849	-439.2
3671.602	-442.2
3674.352	-445.2
3677.101	-451.2
3679.847	-473.2
3682.591	-464.2
3685.333	-477.2
3688.073	-471.2
3690.811	-489.2
3693.547	-488.2
3696.281	-490.2
3699.013	-498.2
3701.742	-503.2
3704.47	-509.2
3707.195	-518.2
3709.919	-511.2
3712.64	-522.2
3715.359	-525.2
3718.076	-525.2
3720.792	-533.2
3723.505	-541.2
3726.216	-540.2
3728.925	-538.2
3731.632	-549.2
3734.336	-548.2
3737.039	-567.2
3739.74	-556.2
3742.439	-559.2
3745.136	-563.2
3747.83	-565.2
3750.523	-559.2
3753.213	-569.2
3755.902	-561.2
3758.589	-568.2
3761.273	-563.2
3763.956	-578.2
3766.636	-571.2
3769.315	-579.2
3771.991	-574.2
3774.665	-577.2
3777.338	-579.2
3780.008	-579.2
3782.677	-579.2
3785.343	-585.2
3788.007	-577.2
3790.67	-589.2
3793.33	-586.2
3795.989	-590.2
3798.645	-594.2
3801.299	-596.2
3803.952	-595.2
3806.602	-593.2
3809.251	-597.2
3811.897	-587.2
3814.542	-592.2
3817.184	-595.2
3819.825	-596.2
3822.463	-593.2
3825.1	-599.2
3827.735	-596.2
3830.367	-599.2
3832.998	-603.2
3835.627	-599.2
3838.253	-601.2
3840.878	-600.2
3843.501	-606.2
3846.122	-605.2
3848.741	-606.2
3851.358	-609.2
3853.973	-604.2
3856.586	-605.2
3859.197	-609.2
3861.806	-608.2
3864.414	-603.2
3867.019	-599.2
3869.622	-610.2
3872.224	-600.2
3874.823	-595.2
3877.421	-575.2
3880.016	-562.2
3882.61	-522.2
3885.202	-522.2
3887.792	-551.2
3890.38	-574.2
3892.966	-594.2
3895.55	-600.2
3898.132	-608.2
3900.713	-615.2
3903.291	-616.2
3905.868	-618.2
3908.442	-615.2
3911.015	-616.2
3913.586	-618.2
3916.155	-615.2
3918.722	-614.2
3921.287	-620.2
3923.85	-617.2
3926.411	-621.2
3928.971	-618.2
3931.528	-620.2
3934.084	-616.2
3936.638	-620.2
3939.19	-625.2
3941.74	-633.2
3944.288	-627.2
3946.834	-629.2
3949.378	-628.2
3951.921	-626.2
3954.462	-628.2
3957	-619.2
3959.537	-616.2
3962.072	-616.2
3964.606	-616.2
3967.137	-625.2
3969.667	-618.2
3972.194	-615.2
3974.72	-613.2
3977.244	-610.2
3979.766	-612.2
3982.286	-604.2
3984.805	-605.2
3987.321	-606.2
3989.836	-607.2
3992.349	-606.2
3994.86	-610.2
3997.369	-615.2
3999.877	-606.2
4002.382	-605.2
4004.886	-615.2
4007.388	-609.2
4009.888	-609.2
4012.386	-606.2
4014.883	-612.2
4017.377	-613.2
4019.87	-605.2
4022.361	-612.2
4024.85	-613.2
4027.338	-613.2
4029.823	-612.2
4032.307	-617.2
4034.789	-612.2
4037.269	-616.2
4039.747	-616.2
4042.224	-602.2
4044.699	-617.2
4047.172	-619.2
4049.643	-614.2
4052.112	-611.2
4054.58	-607.2
4057.046	-616.2
4059.51	-610.2
4061.972	-616.2
4064.432	-610.2
4066.891	-608.2
4069.348	-617.2
4071.803	-612.2
4074.256	-611.2
4076.708	-608.2
4079.158	-615.2
4081.606	-609.2
4084.052	-609.2
4086.497	-614.2
4088.939	-608.2
4091.38	-608.2
4093.819	-610.2
4096.257	-642.2
4098.693	-645.2
4101.127	-647.2
4103.559	-646.2
4105.989	-382.2
4108.418	-374.2
4110.845	-349.2
4113.27	-324.2
4115.694	-290.2
4118.115	-235.2
4120.535	-606.2
4122.954	-613.2
4125.37	-611.2
4127.785	-609.2
4130.198	-612.2
4132.609	-604.2
4135.019	-645.2
4137.427	-642.2
4139.833	-639.2
4142.237	-641.2
