Data from 2018-2-7_conc=4_RamanShift_04.txt Node
Date: Tue Feb 13 13:29:43 IST 2018
User: aro
Spectrometer: QEPB0276
Trigger mode: 0
Integration Time (sec): 3.000000E1
Scans to average: 1
Electric dark correction enabled: true
Nonlinearity correction enabled: false
Boxcar width: 0
XAxis mode: Raman Shifts
Number of Pixels in Spectrum: 1044
>>>>>Begin Spectral Data<<<<<
160.701	-162.4
166.742	16.6
172.777	562.6
178.805	2204.6
184.826	6009.6
190.841	12307.6
196.849	19320.6
202.85	24041.6
208.845	25486.6
214.833	25143.6
220.815	24556.6
226.789	24330.6
232.758	24290.6
238.719	24072.6
244.674	23599.6
250.623	23095.6
256.565	22608.6
262.5	22129.6
268.429	21637.6
274.351	21351.6
280.267	20983.6
286.176	20751.6
292.079	20548.6
297.975	20273.6
303.865	20032.6
309.748	19907.6
315.625	19811.6
321.495	19661.6
327.359	19610.6
333.217	19528.6
339.068	19492.6
344.912	19481.6
350.751	19427.6
356.583	19492.6
362.408	19395.6
368.227	19392.6
374.04	19471.6
379.847	19458.6
385.647	19592.6
391.44	19667.6
397.228	19732.6
403.009	19847.6
408.784	19888.6
414.553	19915.6
420.315	19962.6
426.071	19968.6
431.821	20027.6
437.565	19949.6
443.302	19963.6
449.033	19911.6
454.758	19837.6
460.477	19837.6
466.189	19719.6
471.896	19712.6
477.596	19672.6
483.29	19567.6
488.978	19558.6
494.66	19497.6
500.335	19351.6
506.005	19157.6
511.668	18930.6
517.325	18739.6
522.977	18582.6
528.622	18435.6
534.261	18338.6
539.894	18255.6
545.521	18132.6
551.141	18057.6
556.756	17995.6
562.365	17942.6
567.968	17841.6
573.565	17742.6
579.155	17737.6
584.74	17701.6
590.319	17574.6
595.892	17483.6
601.459	17496.6
607.02	17380.6
612.575	17254.6
618.124	17164.6
623.667	17027.6
629.204	17008.6
634.735	16912.6
640.261	16770.6
645.781	16756.6
651.294	16806.6
656.802	16728.6
662.304	16620.6
667.8	16660.6
673.29	16622.6
678.775	16605.6
684.254	16536.6
689.726	16424.6
695.193	16406.6
700.655	16362.6
706.11	16250.6
711.56	16207.6
717.004	16110.6
722.442	16023.6
727.874	16013.6
733.301	15919.6
738.722	15872.6
744.137	15859.6
749.547	15822.6
754.951	15799.6
760.349	15792.6
765.741	15853.6
771.128	15904.6
776.509	15839.6
781.885	15891.6
787.254	15830.6
792.618	15715.6
797.977	15612.6
803.33	15460.6
808.677	15440.6
814.019	15333.6
819.355	15288.6
824.686	15211.6
830.011	15137.6
835.33	15181.6
840.644	15227.6
845.952	15220.6
851.255	15263.6
856.552	15222.6
861.844	15210.6
867.13	15202.6
872.41	15100.6
877.686	15053.6
882.955	14931.6
888.219	14796.6
893.478	14664.6
898.731	14435.6
903.979	14306.6
909.221	14203.6
914.458	14132.6
919.69	14127.6
924.916	14230.6
930.136	14189.6
935.351	14248.6
940.561	14240.6
945.766	14157.6
950.965	14141.6
956.158	14011.6
961.347	13898.6
966.529	13702.6
971.707	13490.6
976.879	13387.6
982.046	13254.6
987.208	13240.6
992.364	13273.6
997.515	13320.6
1002.66	13467.6
1007.801	13566.6
1012.936	13730.6
1018.066	13692.6
1023.19	13681.6
1028.309	13655.6
1033.423	13649.6
1038.532	13555.6
1043.636	13419.6
1048.734	13266.6
1053.827	13101.6
1058.915	13008.6
1063.998	12856.6
1069.075	12854.6
1074.147	12874.6
1079.214	12919.6
1084.276	12986.6
1089.333	13053.6
1094.385	13150.6
1099.431	13180.6
1104.472	13189.6
1109.509	13131.6
1114.54	12877.6
1119.565	12751.6
1124.586	12613.6
1129.602	12484.6
1134.613	12410.6
1139.618	12360.6
1144.619	12300.6
1149.614	12355.6
1154.604	12336.6
1159.589	12379.6
1164.57	12377.6
1169.545	12406.6
1174.515	12386.6
1179.48	12321.6
1184.44	12229.6
1189.395	12099.6
1194.345	12061.6
1199.29	11993.6
1204.23	12039.6
1209.165	12030.6
1214.095	12160.6
1219.021	12151.6
1223.941	12270.6
1228.856	12319.6
1233.766	12321.6
1238.672	12404.6
1243.572	12322.6
1248.467	12280.6
1253.358	12104.6
1258.244	11986.6
1263.124	11764.6
1268	11619.6
1272.871	11442.6
1277.737	11378.6
1282.599	11301.6
1287.455	11317.6
1292.306	11337.6
1297.153	11336.6
1301.995	11420.6
1306.832	11419.6
1311.664	11449.6
1316.491	11416.6
1321.314	11315.6
1326.132	11131.6
1330.945	10910.6
1335.753	10641.6
1340.556	10380.6
1345.354	10166.6
1350.148	9995.6
1354.937	9987.6
1359.722	9978.6
1364.501	9982.6
1369.276	10058.6
1374.046	10180.6
1378.811	10267.6
1383.572	10348.6
1388.327	10405.6
1393.079	10384.6
1397.825	10237.6
1402.567	10166.6
1407.304	10009.6
1412.036	9963.6
1416.764	9885.6
1421.487	9820.6
1426.205	9733.6
1430.919	9726.6
1435.628	9727.6
1440.333	9774.6
1445.032	9761.6
1449.727	9836.6
1454.418	9764.6
1459.104	9700.6
1463.785	9470.6
1468.462	9293.6
1473.134	9063.6
1477.802	8849.6
1482.465	8686.6
1487.123	8585.6
1491.777	8553.6
1496.426	8606.6
1501.071	8699.6
1505.711	8844.6
1510.347	8977.6
1514.978	9113.6
1519.604	9233.6
1524.226	9324.6
1528.844	9314.6
1533.457	9319.6
1538.065	9316.6
1542.669	9225.6
1547.269	9205.6
1551.864	9129.6
1556.454	9111.6
1561.041	9117.6
1565.622	9097.6
1570.199	9125.6
1574.772	9193.6
1579.34	9254.6
1583.904	9355.6
1588.464	9336.6
1593.019	9322.6
1597.569	9286.6
1602.115	9311.6
1606.657	9212.6
1611.195	9196.6
1615.728	9119.6
1620.256	9070.6
1624.78	9096.6
1629.3	9140.6
1633.816	9154.6
1638.327	9204.6
1642.834	9198.6
1647.336	9267.6
1651.834	9253.6
1656.328	9270.6
1660.817	9153.6
1665.302	9092.6
1669.783	8903.6
1674.259	8714.6
1678.732	8396.6
1683.199	8108.6
1687.663	7819.6
1692.122	7609.6
1696.577	7439.6
1701.028	7420.6
1705.474	7485.6
1709.917	7532.6
1714.355	7538.6
1718.788	7484.6
1723.218	7364.6
1727.643	7205.6
1732.064	7103.6
1736.481	6959.6
1740.893	6760.6
1745.301	6575.6
1749.705	6397.6
1754.105	6217.6
1758.501	6047.6
1762.893	5873.6
1767.28	5740.6
1771.663	5580.6
1776.042	5502.6
1780.417	5430.6
1784.787	5414.6
1789.154	5455.6
1793.516	5554.6
1797.874	5650.6
1802.228	5761.6
1806.578	5828.6
1810.924	5841.6
1815.266	5768.6
1819.603	5665.6
1823.937	5591.6
1828.266	5527.6
1832.591	5435.6
1836.913	5355.6
1841.23	5290.6
1845.543	5295.6
1849.852	5241.6
1854.156	5216.6
1858.457	5210.6
1862.754	5218.6
1867.047	5191.6
1871.335	5209.6
1875.62	5183.6
1879.9	5161.6
1884.177	5100.6
1888.449	5068.6
1892.718	4975.6
1896.982	4939.6
1901.243	4879.6
1905.499	4842.6
1909.752	4849.6
1914	4826.6
1918.245	4863.6
1922.485	4890.6
1926.722	4931.6
1930.954	4968.6
1935.183	5040.6
1939.408	5086.6
1943.628	5138.6
1947.845	5136.6
1952.058	5127.6
1956.267	5101.6
1960.472	5024.6
1964.673	4961.6
1968.87	4880.6
1973.063	4829.6
1977.252	4758.6
1981.438	4723.6
1985.619	4651.6
1989.797	4626.6
1993.971	4578.6
1998.14	4562.6
2002.306	4565.6
2006.469	4543.6
2010.627	4509.6
2014.781	4502.6
2018.932	4480.6
2023.078	4415.6
2027.221	4360.6
2031.36	4267.6
2035.495	4209.6
2039.627	4147.6
2043.754	4108.6
2047.878	4050.6
2051.998	4055.6
2056.114	4004.6
2060.226	4014.6
2064.334	4021.6
2068.439	4019.6
2072.54	4069.6
2076.637	4067.6
2080.73	4098.6
2084.82	4135.6
2088.906	4091.6
2092.988	4127.6
2097.066	4149.6
2101.14	4104.6
2105.211	4084.6
2109.278	4059.6
2113.342	4047.6
2117.401	4003.6
2121.457	3994.6
2125.509	3967.6
2129.558	3947.6
2133.602	3921.6
2137.643	3886.6
2141.681	3891.6
2145.714	3881.6
2149.744	3847.6
2153.77	3821.6
2157.793	3782.6
2161.812	3758.6
2165.827	3661.6
2169.838	3622.6
2173.846	3547.6
2177.851	3489.6
2181.851	3468.6
2185.848	3394.6
2189.841	3370.6
2193.831	3333.6
2197.817	3308.6
2201.799	3299.6
2205.778	3275.6
2209.753	3263.6
2213.725	3255.6
2217.693	3238.6
2221.657	3224.6
2225.618	3235.6
2229.575	3216.6
2233.529	3161.6
2237.479	3151.6
2241.425	3094.6
2245.368	3070.6
2249.307	3038.6
2253.243	3016.6
2257.175	2953.6
2261.104	2923.6
2265.029	2869.6
2268.95	2823.6
2272.868	2829.6
2276.783	2790.6
2280.694	2721.6
2284.601	2744.6
2288.505	2713.6
2292.405	2684.6
2296.302	2650.6
2300.195	2608.6
2304.085	2583.6
2307.971	2561.6
2311.854	2512.6
2315.734	2493.6
2319.609	2444.6
2323.482	2409.6
2327.351	2380.6
2331.216	2387.6
2335.078	2361.6
2338.937	2374.6
2342.792	2341.6
2346.643	2338.6
2350.492	2340.6
2354.336	2337.6
2358.178	2342.6
2362.015	2357.6
2365.85	2362.6
2369.681	2397.6
2373.508	2379.6
2377.333	2376.6
2381.153	2362.6
2384.971	2360.6
2388.785	2332.6
2392.595	2313.6
2396.402	2297.6
2400.206	2252.6
2404.007	2242.6
2407.804	2238.6
2411.597	2198.6
2415.388	2219.6
2419.174	2198.6
2422.958	2183.6
2426.738	2189.6
2430.515	2149.6
2434.289	2133.6
2438.059	2114.6
2441.825	2107.6
2445.589	2091.6
2449.349	2020.6
2453.106	2021.6
2456.859	1994.6
2460.61	1957.6
2464.356	1932.6
2468.1	1917.6
2471.84	1907.6
2475.577	1866.6
2479.311	1907.6
2483.041	1856.6
2486.768	1846.6
2490.492	1860.6
2494.213	1837.6
2497.93	1825.6
2501.644	1831.6
2505.355	1809.6
2509.062	1794.6
2512.766	1787.6
2516.467	1772.6
2520.165	1759.6
2523.859	1751.6
2527.551	1724.6
2531.239	1702.6
2534.923	1717.6
2538.605	1693.6
2542.283	1698.6
2545.958	1697.6
2549.63	1685.6
2553.299	1677.6
2556.964	1696.6
2560.626	1669.6
2564.285	1671.6
2567.941	1639.6
2571.594	1634.6
2575.243	1638.6
2578.89	1598.6
2582.533	1610.6
2586.173	1601.6
2589.809	1598.6
2593.443	1555.6
2597.073	1541.6
2600.701	1536.6
2604.325	1520.6
2607.946	1515.6
2611.564	1502.6
2615.178	1495.6
2618.79	1499.6
2622.398	1469.6
2626.004	1478.6
2629.606	1450.6
2633.205	1432.6
2636.801	1412.6
2640.394	1385.6
2643.983	1344.6
2647.57	1342.6
2651.153	1329.6
2654.734	1313.6
2658.311	1277.6
2661.885	1261.6
2665.456	1224.6
2669.025	1241.6
2672.589	1235.6
2676.151	1190.6
2679.71	1201.6
2683.266	1165.6
2686.819	1160.6
2690.368	1107.6
2693.915	1094.6
2697.458	1074.6
2700.999	1049.6
2704.536	1034.6
2708.071	997.6
2711.602	982.6
2715.13	952.6
2718.656	931.6
2722.178	900.6
2725.697	900.6
2729.214	873.6
2732.727	880.6
2736.237	905.6
2739.744	889.6
2743.249	905.6
2746.75	889.6
2750.248	886.6
2753.743	881.6
2757.236	899.6
2760.725	901.6
2764.211	931.6
2767.695	912.6
2771.175	911.6
2774.652	901.6
2778.127	913.6
2781.598	883.6
2785.067	898.6
2788.532	903.6
2791.995	904.6
2795.455	891.6
2798.911	910.6
2802.365	900.6
2805.816	908.6
2809.264	893.6
2812.709	915.6
2816.151	892.6
2819.59	902.6
2823.026	889.6
2826.46	921.6
2829.89	907.6
2833.318	900.6
2836.742	892.6
2840.164	917.6
2843.583	911.6
2846.999	930.6
2850.412	968.6
2853.822	948.6
2857.229	979.6
2860.634	990.6
2864.035	1023.6
2867.434	1032.6
2870.83	1050.6
2874.223	1080.6
2877.613	1101.6
2881	1112.6
2884.385	1114.6
2887.766	1107.6
2891.145	1111.6
2894.521	1118.6
2897.894	1104.6
2901.264	1113.6
2904.631	1119.6
2907.996	1122.6
2911.358	1128.6
2914.717	1129.6
2918.073	1135.6
2921.426	1152.6
2924.777	1169.6
2928.124	1179.6
2931.469	1210.6
2934.811	1234.6
2938.15	1267.6
2941.487	1282.6
2944.821	1295.6
2948.152	1278.6
2951.48	1270.6
2954.805	1261.6
2958.128	1234.6
2961.447	1226.6
2964.765	1234.6
2968.079	1246.6
2971.39	1226.6
2974.699	1275.6
2978.005	1281.6
2981.308	1308.6
2984.609	1311.6
2987.907	1342.6
2991.202	1378.6
2994.494	1410.6
2997.784	1440.6
3001.07	1465.6
3004.355	1496.6
3007.636	1512.6
3010.915	1541.6
3014.191	1548.6
3017.464	1533.6
3020.734	1570.6
3024.002	1597.6
3027.267	1614.6
3030.53	1599.6
3033.789	1637.6
3037.046	1657.6
3040.301	1669.6
3043.552	1717.6
3046.801	1767.6
3050.048	1787.6
3053.291	1831.6
3056.532	1903.6
3059.771	1953.6
3063.006	2004.6
3066.239	2052.6
3069.469	2117.6
3072.697	2185.6
3075.922	2242.6
3079.144	2282.6
3082.364	2339.6
3085.581	2404.6
3088.795	2452.6
3092.007	2493.6
3095.216	2549.6
3098.423	2599.6
3101.627	2649.6
3104.828	2749.6
3108.026	2779.6
3111.222	2867.6
3114.416	2920.6
3117.607	3006.6
3120.795	3054.6
3123.98	3119.6
3127.163	3227.6
3130.344	3306.6
3133.521	3451.6
3136.696	3443.6
3139.869	3513.6
3143.039	3603.6
3146.206	3622.6
3149.371	3654.6
3152.533	3714.6
3155.693	3732.6
3158.85	3742.6
3162.005	3786.6
3165.157	3774.6
3168.306	3796.6
3171.453	3803.6
3174.597	3803.6
3177.739	3789.6
3180.878	3788.6
3184.014	3823.6
3187.149	3846.6
3190.28	3832.6
3193.409	3850.6
3196.536	3839.6
3199.659	3842.6
3202.781	3853.6
3205.9	3853.6
3209.016	3853.6
3212.13	3818.6
3215.241	3788.6
3218.35	3758.6
3221.456	3711.6
3224.56	3679.6
3227.661	3622.6
3230.76	3615.6
3233.856	3592.6
3236.95	3550.6
3240.041	3527.6
3243.13	3471.6
3246.216	3462.6
3249.3	3431.6
3252.382	3435.6
3255.46	3409.6
3258.537	3427.6
3261.611	3395.6
3264.682	3409.6
3267.751	3391.6
3270.818	3416.6
3273.882	3380.6
3276.943	3364.6
3280.002	3300.6
3283.059	3287.6
3286.113	3256.6
3289.165	3196.6
3292.214	3188.6
3295.261	3132.6
3298.306	3068.6
3301.348	3024.6
3304.387	2940.6
3307.425	2930.6
3310.459	2868.6
3313.492	2857.6
3316.521	2799.6
3319.549	2782.6
3322.574	2742.6
3325.597	2717.6
3328.617	2709.6
3331.635	2680.6
3334.65	2665.6
3337.663	2644.6
3340.674	2630.6
3343.682	2636.6
3346.688	2603.6
3349.691	2594.6
3352.692	2582.6
3355.691	2584.6
3358.687	2555.6
3361.681	2522.6
3364.673	2498.6
3367.662	2477.6
3370.649	2412.6
3373.633	2376.6
3376.615	2335.6
3379.595	2307.6
3382.572	2267.6
3385.547	2252.6
3388.52	2194.6
3391.49	2153.6
3394.458	2158.6
3397.424	2095.6
3400.387	2064.6
3403.348	2059.6
3406.307	2020.6
3409.263	2026.6
3412.217	1979.6
3415.168	1955.6
3418.118	1920.6
3421.065	1918.6
3424.009	1895.6
3426.951	1842.6
3429.891	1813.6
3432.829	1753.6
3435.764	1738.6
3438.697	1699.6
3441.628	1639.6
3444.557	1601.6
3447.483	1550.6
3450.407	1494.6
3453.328	1455.6
3456.247	1402.6
3459.164	1339.6
3462.079	1296.6
3464.991	1252.6
3467.902	1200.6
3470.809	1157.6
3473.715	1121.6
3476.618	1076.6
3479.519	1035.6
3482.418	998.6
3485.315	974.6
3488.209	918.6
3491.101	880.6
3493.99	848.6
3496.878	809.6
3499.763	791.6
3502.646	780.6
3505.527	714.6
3508.405	688.6
3511.281	643.6
3514.155	602.6
3517.027	568.6
3519.897	530.6
3522.764	500.6
3525.629	449.6
3528.492	408.6
3531.352	377.6
3534.211	339.6
3537.067	296.6
3539.921	261.6
3542.773	232.6
3545.622	210.6
3548.469	170.6
3551.315	153.6
3554.157	124.6
3556.998	105.6
3559.837	78.6
3562.673	57.6
3565.507	36.6
3568.339	13.6
3571.169	-6.4
3573.996	-20.4
3576.822	-36.4
3579.645	-67.4
3582.466	-89.4
3585.285	-101.4
3588.101	-113.4
3590.916	-136.4
3593.728	-155.4
3596.538	-168.4
3599.346	-189.4
3602.152	-200.4
3604.956	-218.4
3607.757	-237.4
3610.556	-247.4
3613.354	-271.4
3616.149	-277.4
3618.942	-290.4
3621.732	-298.4
3624.521	-305.4
3627.307	-322.4
3630.092	-331.4
3632.874	-348.4
3635.654	-342.4
3638.432	-349.4
3641.208	-357.4
3643.982	-362.4
3646.753	-374.4
3649.523	-393.4
3652.29	-394.4
3655.055	-401.4
3657.818	-413.4
3660.579	-420.4
3663.338	-423.4
3666.095	-442.4
3668.849	-460.4
3671.602	-464.4
3674.352	-461.4
3677.101	-474.4
3679.847	-485.4
3682.591	-478.4
3685.333	-489.4
3688.073	-489.4
3690.811	-503.4
3693.547	-500.4
3696.281	-508.4
3699.013	-514.4
3701.742	-523.4
3704.47	-524.4
3707.195	-534.4
3709.919	-533.4
3712.64	-535.4
3715.359	-542.4
3718.076	-542.4
3720.792	-544.4
3723.505	-549.4
3726.216	-549.4
3728.925	-550.4
3731.632	-565.4
3734.336	-563.4
3737.039	-564.4
3739.74	-559.4
3742.439	-568.4
3745.136	-568.4
3747.83	-568.4
3750.523	-567.4
3753.213	-585.4
3755.902	-581.4
3758.589	-574.4
3761.273	-577.4
3763.956	-586.4
3766.636	-583.4
3769.315	-587.4
3771.991	-586.4
3774.665	-586.4
3777.338	-584.4
3780.008	-590.4
3782.677	-594.4
3785.343	-590.4
3788.007	-589.4
3790.67	-596.4
3793.33	-604.4
3795.989	-599.4
3798.645	-605.4
3801.299	-607.4
3803.952	-611.4
3806.602	-602.4
3809.251	-609.4
3811.897	-598.4
3814.542	-598.4
3817.184	-607.4
3819.825	-602.4
3822.463	-607.4
3825.1	-613.4
3827.735	-617.4
3830.367	-614.4
3832.998	-615.4
3835.627	-617.4
3838.253	-626.4
3840.878	-615.4
3843.501	-618.4
3846.122	-617.4
3848.741	-612.4
3851.358	-622.4
3853.973	-615.4
3856.586	-613.4
3859.197	-616.4
3861.806	-611.4
3864.414	-610.4
3867.019	-611.4
3869.622	-618.4
3872.224	-613.4
3874.823	-602.4
3877.421	-580.4
3880.016	-573.4
3882.61	-542.4
3885.202	-543.4
3887.792	-569.4
3890.38	-591.4
3892.966	-606.4
3895.55	-614.4
3898.132	-622.4
3900.713	-625.4
3903.291	-624.4
3905.868	-633.4
3908.442	-626.4
3911.015	-626.4
3913.586	-631.4
3916.155	-623.4
3918.722	-627.4
3921.287	-630.4
3923.85	-631.4
3926.411	-632.4
3928.971	-628.4
3931.528	-632.4
3934.084	-627.4
3936.638	-628.4
3939.19	-631.4
3941.74	-633.4
3944.288	-636.4
3946.834	-633.4
3949.378	-640.4
3951.921	-633.4
3954.462	-632.4
3957	-628.4
3959.537	-625.4
3962.072	-629.4
3964.606	-624.4
3967.137	-631.4
3969.667	-627.4
3972.194	-625.4
3974.72	-624.4
3977.244	-625.4
3979.766	-620.4
3982.286	-623.4
3984.805	-620.4
3987.321	-621.4
3989.836	-621.4
3992.349	-615.4
3994.86	-615.4
3997.369	-629.4
3999.877	-610.4
4002.382	-615.4
4004.886	-622.4
4007.388	-624.4
4009.888	-613.4
4012.386	-613.4
4014.883	-620.4
4017.377	-622.4
4019.87	-621.4
4022.361	-623.4
4024.85	-624.4
4027.338	-620.4
4029.823	-618.4
4032.307	-620.4
4034.789	-623.4
4037.269	-622.4
4039.747	-625.4
4042.224	-619.4
4044.699	-620.4
4047.172	-621.4
4049.643	-622.4
4052.112	-623.4
4054.58	-618.4
4057.046	-626.4
4059.51	-618.4
4061.972	-625.4
4064.432	-627.4
4066.891	-622.4
4069.348	-621.4
4071.803	-629.4
4074.256	-626.4
4076.708	-622.4
4079.158	-627.4
4081.606	-618.4
4084.052	-622.4
4086.497	-626.4
4088.939	-617.4
4091.38	-610.4
4093.819	-619.4
4096.257	-650.4
4098.693	-653.4
4101.127	-650.4
4103.559	-655.4
4105.989	-397.4
4108.418	-379.4
4110.845	-348.4
4113.27	-343.4
4115.694	-292.4
4118.115	-234.4
4120.535	-621.4
4122.954	-628.4
4125.37	-625.4
4127.785	-623.4
4130.198	-623.4
4132.609	-616.4
4135.019	-656.4
4137.427	-657.4
4139.833	-653.4
4142.237	-654.4
