Data from 2018-2-7_conc=4_RamanShift_18.txt Node
Date: Tue Feb 13 13:41:43 IST 2018
User: aro
Spectrometer: QEPB0276
Trigger mode: 0
Integration Time (sec): 3.000000E1
Scans to average: 1
Electric dark correction enabled: true
Nonlinearity correction enabled: false
Boxcar width: 0
XAxis mode: Raman Shifts
Number of Pixels in Spectrum: 1044
>>>>>Begin Spectral Data<<<<<
160.701	-49.6
166.742	36.4
172.777	298.4
178.805	1026.4
184.826	2716.4
190.841	5559.4
196.849	8779.4
202.85	10964.4
208.845	11691.4
214.833	11588.4
220.815	11425.4
226.789	11328.4
232.758	11374.4
238.719	11315.4
244.674	11167.4
250.623	11077.4
256.565	10890.4
262.5	10701.4
268.429	10526.4
274.351	10436.4
280.267	10291.4
286.176	10234.4
292.079	10190.4
297.975	10150.4
303.865	10090.4
309.748	10049.4
315.625	10011.4
321.495	9974.4
327.359	9964.4
333.217	9986.4
339.068	9977.4
344.912	10025.4
350.751	9985.4
356.583	10012.4
362.408	9977.4
368.227	10025.4
374.04	10028.4
379.847	10099.4
385.647	10124.4
391.44	10225.4
397.228	10243.4
403.009	10273.4
408.784	10321.4
414.553	10340.4
420.315	10427.4
426.071	10429.4
431.821	10431.4
437.565	10399.4
443.302	10398.4
449.033	10335.4
454.758	10327.4
460.477	10285.4
466.189	10198.4
471.896	10173.4
477.596	10124.4
483.29	10114.4
488.978	10110.4
494.66	10049.4
500.335	9861.4
506.005	9698.4
511.668	9399.4
517.325	9218.4
522.977	9000.4
528.622	8876.4
534.261	8766.4
539.894	8711.4
545.521	8606.4
551.141	8554.4
556.756	8518.4
562.365	8493.4
567.968	8427.4
573.565	8397.4
579.155	8305.4
584.74	8286.4
590.319	8272.4
595.892	8264.4
601.459	8174.4
607.02	8190.4
612.575	8124.4
618.124	8069.4
623.667	8000.4
629.204	7957.4
634.735	7851.4
640.261	7843.4
645.781	7797.4
651.294	7776.4
656.802	7742.4
662.304	7757.4
667.8	7706.4
673.29	7687.4
678.775	7664.4
684.254	7645.4
689.726	7638.4
695.193	7592.4
700.655	7535.4
706.11	7505.4
711.56	7452.4
717.004	7468.4
722.442	7408.4
727.874	7381.4
733.301	7339.4
738.722	7329.4
744.137	7319.4
749.547	7293.4
754.951	7320.4
760.349	7309.4
765.741	7291.4
771.128	7348.4
776.509	7385.4
781.885	7360.4
787.254	7416.4
792.618	7400.4
797.977	7353.4
803.33	7291.4
808.677	7259.4
814.019	7210.4
819.355	7155.4
824.686	7092.4
830.011	7071.4
835.33	7085.4
840.644	7061.4
845.952	7031.4
851.255	7056.4
856.552	7053.4
861.844	7005.4
867.13	6973.4
872.41	6932.4
877.686	6876.4
882.955	6821.4
888.219	6764.4
893.478	6654.4
898.731	6577.4
903.979	6536.4
909.221	6499.4
914.458	6447.4
919.69	6467.4
924.916	6432.4
930.136	6469.4
935.351	6476.4
940.561	6478.4
945.766	6464.4
950.965	6439.4
956.158	6375.4
961.347	6302.4
966.529	6201.4
971.707	6169.4
976.879	6109.4
982.046	6015.4
987.208	6001.4
992.364	6011.4
997.515	6017.4
1002.66	6104.4
1007.801	6169.4
1012.936	6196.4
1018.066	6233.4
1023.19	6228.4
1028.309	6196.4
1033.423	6210.4
1038.532	6166.4
1043.636	6131.4
1048.734	6064.4
1053.827	5960.4
1058.915	5889.4
1063.998	5882.4
1069.075	5826.4
1074.147	5870.4
1079.214	5857.4
1084.276	5919.4
1089.333	5926.4
1094.385	5968.4
1099.431	5972.4
1104.472	5969.4
1109.509	5894.4
1114.54	5842.4
1119.565	5769.4
1124.586	5677.4
1129.602	5600.4
1134.613	5602.4
1139.618	5544.4
1144.619	5528.4
1149.614	5545.4
1154.604	5565.4
1159.589	5538.4
1164.57	5568.4
1169.545	5571.4
1174.515	5596.4
1179.48	5560.4
1184.44	5537.4
1189.395	5472.4
1194.345	5429.4
1199.29	5408.4
1204.23	5414.4
1209.165	5403.4
1214.095	5447.4
1219.021	5440.4
1223.941	5486.4
1228.856	5532.4
1233.766	5516.4
1238.672	5525.4
1243.572	5527.4
1248.467	5471.4
1253.358	5425.4
1258.244	5334.4
1263.124	5231.4
1268	5163.4
1272.871	5111.4
1277.737	5026.4
1282.599	5050.4
1287.455	5002.4
1292.306	4988.4
1297.153	5050.4
1301.995	5083.4
1306.832	5083.4
1311.664	5070.4
1316.491	5079.4
1321.314	5032.4
1326.132	4973.4
1330.945	4865.4
1335.753	4766.4
1340.556	4646.4
1345.354	4573.4
1350.148	4506.4
1354.937	4441.4
1359.722	4415.4
1364.501	4398.4
1369.276	4375.4
1374.046	4377.4
1378.811	4381.4
1383.572	4438.4
1388.327	4398.4
1393.079	4412.4
1397.825	4382.4
1402.567	4324.4
1407.304	4298.4
1412.036	4262.4
1416.764	4271.4
1421.487	4234.4
1426.205	4225.4
1430.919	4254.4
1435.628	4241.4
1440.333	4275.4
1445.032	4296.4
1449.727	4325.4
1454.418	4287.4
1459.104	4266.4
1463.785	4189.4
1468.462	4082.4
1473.134	3995.4
1477.802	3915.4
1482.465	3837.4
1487.123	3751.4
1491.777	3742.4
1496.426	3733.4
1501.071	3718.4
1505.711	3734.4
1510.347	3786.4
1514.978	3787.4
1519.604	3801.4
1524.226	3841.4
1528.844	3853.4
1533.457	3826.4
1538.065	3802.4
1542.669	3787.4
1547.269	3781.4
1551.864	3766.4
1556.454	3772.4
1561.041	3810.4
1565.622	3786.4
1570.199	3838.4
1574.772	3862.4
1579.34	3913.4
1583.904	3909.4
1588.464	3950.4
1593.019	3952.4
1597.569	3958.4
1602.115	3925.4
1606.657	3931.4
1611.195	3906.4
1615.728	3897.4
1620.256	3853.4
1624.78	3871.4
1629.3	3872.4
1633.816	3881.4
1638.327	3902.4
1642.834	3937.4
1647.336	3937.4
1651.834	3906.4
1656.328	3920.4
1660.817	3879.4
1665.302	3861.4
1669.783	3762.4
1674.259	3643.4
1678.732	3544.4
1683.199	3412.4
1687.663	3297.4
1692.122	3178.4
1696.577	3106.4
1701.028	3032.4
1705.474	3023.4
1709.917	2969.4
1714.355	2962.4
1718.788	2928.4
1723.218	2920.4
1727.643	2880.4
1732.064	2840.4
1736.481	2767.4
1740.893	2743.4
1745.301	2673.4
1749.705	2605.4
1754.105	2535.4
1758.501	2467.4
1762.893	2405.4
1767.28	2341.4
1771.663	2307.4
1776.042	2258.4
1780.417	2224.4
1784.787	2202.4
1789.154	2187.4
1793.516	2211.4
1797.874	2219.4
1802.228	2237.4
1806.578	2249.4
1810.924	2233.4
1815.266	2221.4
1819.603	2184.4
1823.937	2177.4
1828.266	2145.4
1832.591	2149.4
1836.913	2136.4
1841.23	2126.4
1845.543	2105.4
1849.852	2124.4
1854.156	2100.4
1858.457	2102.4
1862.754	2102.4
1867.047	2091.4
1871.335	2089.4
1875.62	2100.4
1879.9	2095.4
1884.177	2046.4
1888.449	2037.4
1892.718	2016.4
1896.982	1972.4
1901.243	1968.4
1905.499	1932.4
1909.752	1910.4
1914	1905.4
1918.245	1880.4
1922.485	1896.4
1926.722	1888.4
1930.954	1908.4
1935.183	1916.4
1939.408	1915.4
1943.628	1913.4
1947.845	1907.4
1952.058	1920.4
1956.267	1880.4
1960.472	1877.4
1964.673	1847.4
1968.87	1809.4
1973.063	1794.4
1977.252	1766.4
1981.438	1774.4
1985.619	1749.4
1989.797	1730.4
1993.971	1746.4
1998.14	1728.4
2002.306	1732.4
2006.469	1742.4
2010.627	1732.4
2014.781	1732.4
2018.932	1708.4
2023.078	1697.4
2027.221	1680.4
2031.36	1649.4
2035.495	1630.4
2039.627	1609.4
2043.754	1571.4
2047.878	1555.4
2051.998	1540.4
2056.114	1551.4
2060.226	1539.4
2064.334	1534.4
2068.439	1530.4
2072.54	1535.4
2076.637	1550.4
2080.73	1553.4
2084.82	1559.4
2088.906	1551.4
2092.988	1550.4
2097.066	1540.4
2101.14	1505.4
2105.211	1501.4
2109.278	1499.4
2113.342	1482.4
2117.401	1472.4
2121.457	1463.4
2125.509	1461.4
2129.558	1448.4
2133.602	1437.4
2137.643	1438.4
2141.681	1427.4
2145.714	1440.4
2149.744	1425.4
2153.77	1407.4
2157.793	1405.4
2161.812	1384.4
2165.827	1355.4
2169.838	1354.4
2173.846	1338.4
2177.851	1308.4
2181.851	1281.4
2185.848	1283.4
2189.841	1273.4
2193.831	1246.4
2197.817	1246.4
2201.799	1234.4
2205.778	1242.4
2209.753	1237.4
2213.725	1215.4
2217.693	1206.4
2221.657	1201.4
2225.618	1217.4
2229.575	1196.4
2233.529	1183.4
2237.479	1176.4
2241.425	1159.4
2245.368	1145.4
2249.307	1118.4
2253.243	1113.4
2257.175	1095.4
2261.104	1081.4
2265.029	1058.4
2268.95	1036.4
2272.868	1043.4
2276.783	1030.4
2280.694	1009.4
2284.601	1000.4
2288.505	992.4
2292.405	988.4
2296.302	987.4
2300.195	983.4
2304.085	949.4
2307.971	938.4
2311.854	921.4
2315.734	911.4
2319.609	909.4
2323.482	884.4
2327.351	898.4
2331.216	889.4
2335.078	889.4
2338.937	880.4
2342.792	853.4
2346.643	880.4
2350.492	877.4
2354.336	863.4
2358.178	869.4
2362.015	893.4
2365.85	891.4
2369.681	882.4
2373.508	894.4
2377.333	904.4
2381.153	900.4
2384.971	897.4
2388.785	889.4
2392.595	891.4
2396.402	873.4
2400.206	872.4
2404.007	848.4
2407.804	857.4
2411.597	846.4
2415.388	840.4
2419.174	824.4
2422.958	817.4
2426.738	821.4
2430.515	804.4
2434.289	813.4
2438.059	806.4
2441.825	791.4
2445.589	795.4
2449.349	777.4
2453.106	754.4
2456.859	751.4
2460.61	728.4
2464.356	722.4
2468.1	726.4
2471.84	716.4
2475.577	696.4
2479.311	713.4
2483.041	699.4
2486.768	682.4
2490.492	679.4
2494.213	689.4
2497.93	694.4
2501.644	675.4
2505.355	673.4
2509.062	669.4
2512.766	654.4
2516.467	642.4
2520.165	649.4
2523.859	630.4
2527.551	627.4
2531.239	613.4
2534.923	626.4
2538.605	612.4
2542.283	605.4
2545.958	593.4
2549.63	596.4
2553.299	599.4
2556.964	587.4
2560.626	591.4
2564.285	595.4
2567.941	592.4
2571.594	564.4
2575.243	566.4
2578.89	553.4
2582.533	564.4
2586.173	549.4
2589.809	534.4
2593.443	540.4
2597.073	524.4
2600.701	539.4
2604.325	518.4
2607.946	513.4
2611.564	509.4
2615.178	529.4
2618.79	520.4
2622.398	501.4
2626.004	510.4
2629.606	475.4
2633.205	475.4
2636.801	471.4
2640.394	465.4
2643.983	458.4
2647.57	444.4
2651.153	454.4
2654.734	441.4
2658.311	441.4
2661.885	418.4
2665.456	427.4
2669.025	423.4
2672.589	408.4
2676.151	398.4
2679.71	416.4
2683.266	379.4
2686.819	380.4
2690.368	382.4
2693.915	373.4
2697.458	357.4
2700.999	349.4
2704.536	339.4
2708.071	318.4
2711.602	317.4
2715.13	320.4
2718.656	308.4
2722.178	305.4
2725.697	291.4
2729.214	291.4
2732.727	292.4
2736.237	271.4
2739.744	284.4
2743.249	269.4
2746.75	266.4
2750.248	266.4
2753.743	257.4
2757.236	270.4
2760.725	267.4
2764.211	266.4
2767.695	265.4
2771.175	279.4
2774.652	265.4
2778.127	264.4
2781.598	255.4
2785.067	264.4
2788.532	252.4
2791.995	271.4
2795.455	268.4
2798.911	273.4
2802.365	275.4
2805.816	275.4
2809.264	270.4
2812.709	272.4
2816.151	261.4
2819.59	266.4
2823.026	281.4
2826.46	277.4
2829.89	282.4
2833.318	267.4
2836.742	271.4
2840.164	276.4
2843.583	277.4
2846.999	288.4
2850.412	291.4
2853.822	307.4
2857.229	301.4
2860.634	299.4
2864.035	317.4
2867.434	331.4
2870.83	339.4
2874.223	330.4
2877.613	354.4
2881	354.4
2884.385	358.4
2887.766	350.4
2891.145	365.4
2894.521	349.4
2897.894	362.4
2901.264	352.4
2904.631	368.4
2907.996	351.4
2911.358	365.4
2914.717	366.4
2918.073	359.4
2921.426	382.4
2924.777	387.4
2928.124	379.4
2931.469	398.4
2934.811	423.4
2938.15	412.4
2941.487	433.4
2944.821	434.4
2948.152	422.4
2951.48	430.4
2954.805	417.4
2958.128	435.4
2961.447	417.4
2964.765	420.4
2968.079	404.4
2971.39	416.4
2974.699	412.4
2978.005	422.4
2981.308	429.4
2984.609	446.4
2987.907	447.4
2991.202	471.4
2994.494	465.4
2997.784	466.4
3001.07	473.4
3004.355	487.4
3007.636	499.4
3010.915	492.4
3014.191	516.4
3017.464	513.4
3020.734	516.4
3024.002	533.4
3027.267	539.4
3030.53	536.4
3033.789	562.4
3037.046	550.4
3040.301	574.4
3043.552	587.4
3046.801	608.4
3050.048	624.4
3053.291	639.4
3056.532	657.4
3059.771	688.4
3063.006	728.4
3066.239	741.4
3069.469	757.4
3072.697	796.4
3075.922	816.4
3079.144	840.4
3082.364	869.4
3085.581	870.4
3088.795	899.4
3092.007	918.4
3095.216	943.4
3098.423	972.4
3101.627	987.4
3104.828	1015.4
3108.026	1022.4
3111.222	1054.4
3114.416	1075.4
3117.607	1107.4
3120.795	1130.4
3123.98	1150.4
3127.163	1193.4
3130.344	1207.4
3133.521	1235.4
3136.696	1284.4
3139.869	1296.4
3143.039	1334.4
3146.206	1337.4
3149.371	1365.4
3152.533	1378.4
3155.693	1390.4
3158.85	1399.4
3162.005	1409.4
3165.157	1393.4
3168.306	1420.4
3171.453	1410.4
3174.597	1404.4
3177.739	1418.4
3180.878	1423.4
3184.014	1427.4
3187.149	1426.4
3190.28	1420.4
3193.409	1426.4
3196.536	1431.4
3199.659	1415.4
3202.781	1419.4
3205.9	1415.4
3209.016	1422.4
3212.13	1418.4
3215.241	1403.4
3218.35	1390.4
3221.456	1384.4
3224.56	1365.4
3227.661	1344.4
3230.76	1330.4
3233.856	1320.4
3236.95	1304.4
3240.041	1282.4
3243.13	1276.4
3246.216	1274.4
3249.3	1239.4
3252.382	1239.4
3255.46	1229.4
3258.537	1223.4
3261.611	1231.4
3264.682	1232.4
3267.751	1225.4
3270.818	1211.4
3273.882	1211.4
3276.943	1201.4
3280.002	1200.4
3283.059	1183.4
3286.113	1167.4
3289.165	1167.4
3292.214	1133.4
3295.261	1114.4
3298.306	1109.4
3301.348	1061.4
3304.387	1058.4
3307.425	1052.4
3310.459	1039.4
3313.492	1022.4
3316.521	1019.4
3319.549	1003.4
3322.574	989.4
3325.597	981.4
3328.617	980.4
3331.635	988.4
3334.65	967.4
3337.663	966.4
3340.674	954.4
3343.682	960.4
3346.688	952.4
3349.691	942.4
3352.692	953.4
3355.691	940.4
3358.687	919.4
3361.681	924.4
3364.673	912.4
3367.662	911.4
3370.649	868.4
3373.633	859.4
3376.615	859.4
3379.595	843.4
3382.572	834.4
3385.547	820.4
3388.52	801.4
3391.49	778.4
3394.458	777.4
3397.424	756.4
3400.387	748.4
3403.348	752.4
3406.307	717.4
3409.263	731.4
3412.217	720.4
3415.168	706.4
3418.118	684.4
3421.065	680.4
3424.009	669.4
3426.951	654.4
3429.891	635.4
3432.829	630.4
3435.764	610.4
3438.697	584.4
3441.628	583.4
3444.557	567.4
3447.483	538.4
3450.407	520.4
3453.328	507.4
3456.247	473.4
3459.164	455.4
3462.079	443.4
3464.991	416.4
3467.902	393.4
3470.809	380.4
3473.715	351.4
3476.618	354.4
3479.519	327.4
3482.418	315.4
3485.315	297.4
3488.209	278.4
3491.101	271.4
3493.99	259.4
3496.878	244.4
3499.763	224.4
3502.646	227.4
3505.527	204.4
3508.405	192.4
3511.281	181.4
3514.155	169.4
3517.027	149.4
3519.897	137.4
3522.764	125.4
3525.629	101.4
3528.492	92.4
3531.352	77.4
3534.211	55.4
3537.067	36.4
3539.921	33.4
3542.773	23.4
3545.622	14.4
3548.469	0.4
3551.315	-12.6
3554.157	-21.6
3556.998	-37.6
3559.837	-42.6
3562.673	-53.6
3565.507	-57.6
3568.339	-70.6
3571.169	-77.6
3573.996	-79.6
3576.822	-84.6
3579.645	-97.6
3582.466	-97.6
3585.285	-112.6
3588.101	-115.6
3590.916	-116.6
3593.728	-133.6
3596.538	-136.6
3599.346	-148.6
3602.152	-140.6
3604.956	-156.6
3607.757	-158.6
3610.556	-161.6
3613.354	-168.6
3616.149	-178.6
3618.942	-182.6
3621.732	-183.6
3624.521	-188.6
3627.307	-196.6
3630.092	-203.6
3632.874	-205.6
3635.654	-204.6
3638.432	-208.6
3641.208	-214.6
3643.982	-211.6
3646.753	-217.6
3649.523	-219.6
3652.29	-222.6
3655.055	-224.6
3657.818	-228.6
3660.579	-232.6
3663.338	-234.6
3666.095	-238.6
3668.849	-253.6
3671.602	-249.6
3674.352	-247.6
3677.101	-258.6
3679.847	-264.6
3682.591	-255.6
3685.333	-259.6
3688.073	-263.6
3690.811	-264.6
3693.547	-266.6
3696.281	-272.6
3699.013	-266.6
3701.742	-282.6
3704.47	-280.6
3707.195	-280.6
3709.919	-281.6
3712.64	-285.6
3715.359	-278.6
3718.076	-275.6
3720.792	-284.6
3723.505	-286.6
3726.216	-287.6
3728.925	-294.6
3731.632	-291.6
3734.336	-287.6
3737.039	-294.6
3739.74	-291.6
3742.439	-291.6
3745.136	-289.6
3747.83	-299.6
3750.523	-291.6
3753.213	-301.6
3755.902	-296.6
3758.589	-299.6
3761.273	-299.6
3763.956	-302.6
3766.636	-298.6
3769.315	-302.6
3771.991	-304.6
3774.665	-300.6
3777.338	-303.6
3780.008	-300.6
3782.677	-304.6
3785.343	-303.6
3788.007	-299.6
3790.67	-305.6
3793.33	-303.6
3795.989	-303.6
3798.645	-311.6
3801.299	-309.6
3803.952	-306.6
3806.602	-307.6
3809.251	-313.6
3811.897	-304.6
3814.542	-303.6
3817.184	-307.6
3819.825	-305.6
3822.463	-304.6
3825.1	-312.6
3827.735	-311.6
3830.367	-314.6
3832.998	-319.6
3835.627	-316.6
3838.253	-317.6
3840.878	-314.6
3843.501	-317.6
3846.122	-312.6
3848.741	-309.6
3851.358	-317.6
3853.973	-308.6
3856.586	-309.6
3859.197	-309.6
3861.806	-314.6
3864.414	-302.6
3867.019	-302.6
3869.622	-305.6
3872.224	-299.6
3874.823	-279.6
3877.421	-257.6
3880.016	-226.6
3882.61	-183.6
3885.202	-165.6
3887.792	-209.6
3890.38	-247.6
3892.966	-280.6
3895.55	-298.6
3898.132	-305.6
3900.713	-317.6
3903.291	-314.6
3905.868	-316.6
3908.442	-320.6
3911.015	-314.6
3913.586	-319.6
3916.155	-316.6
3918.722	-315.6
3921.287	-311.6
3923.85	-317.6
3926.411	-318.6
3928.971	-315.6
3931.528	-316.6
3934.084	-308.6
3936.638	-316.6
3939.19	-318.6
3941.74	-319.6
3944.288	-322.6
3946.834	-316.6
3949.378	-322.6
3951.921	-313.6
3954.462	-316.6
3957	-316.6
3959.537	-306.6
3962.072	-311.6
3964.606	-310.6
3967.137	-320.6
3969.667	-314.6
3972.194	-317.6
3974.72	-316.6
3977.244	-313.6
3979.766	-311.6
3982.286	-313.6
3984.805	-312.6
3987.321	-313.6
3989.836	-309.6
3992.349	-309.6
3994.86	-308.6
3997.369	-319.6
3999.877	-318.6
4002.382	-307.6
4004.886	-315.6
4007.388	-313.6
4009.888	-310.6
4012.386	-312.6
4014.883	-311.6
4017.377	-312.6
4019.87	-304.6
4022.361	-310.6
4024.85	-308.6
4027.338	-312.6
4029.823	-306.6
4032.307	-312.6
4034.789	-313.6
4037.269	-317.6
4039.747	-317.6
4042.224	-311.6
4044.699	-317.6
4047.172	-317.6
4049.643	-314.6
4052.112	-312.6
4054.58	-312.6
4057.046	-315.6
4059.51	-314.6
4061.972	-321.6
4064.432	-312.6
4066.891	-312.6
4069.348	-314.6
4071.803	-315.6
4074.256	-312.6
4076.708	-309.6
4079.158	-312.6
4081.606	-305.6
4084.052	-307.6
4086.497	-318.6
4088.939	-302.6
4091.38	-305.6
4093.819	-312.6
4096.257	-327.6
4098.693	-329.6
4101.127	-329.6
4103.559	-329.6
4105.989	-136.6
4108.418	-123.6
4110.845	-118.6
4113.27	-116.6
4115.694	-94.6
4118.115	-82.6
4120.535	-311.6
4122.954	-319.6
4125.37	-314.6
4127.785	-313.6
4130.198	-317.6
4132.609	-308.6
4135.019	-329.6
4137.427	-328.6
4139.833	-327.6
4142.237	-325.6
