Data from 2018-2-7_conc=6_RamanShift_08.txt Node
Date: Tue Feb 13 14:31:13 IST 2018
User: aro
Spectrometer: QEPB0276
Trigger mode: 0
Integration Time (sec): 3.000000E1
Scans to average: 1
Electric dark correction enabled: true
Nonlinearity correction enabled: false
Boxcar width: 0
XAxis mode: Raman Shifts
Number of Pixels in Spectrum: 1044
>>>>>Begin Spectral Data<<<<<
160.701	-160.8
166.742	25.2
172.777	584.2
178.805	2273.2
184.826	6236.2
190.841	12877.2
196.849	20426.2
202.85	25563.2
208.845	27180.2
214.833	26932.2
220.815	26348.2
226.789	26176.2
232.758	26082.2
238.719	25822.2
244.674	25447.2
250.623	24987.2
256.565	24475.2
262.5	23893.2
268.429	23454.2
274.351	23058.2
280.267	22801.2
286.176	22471.2
292.079	22239.2
297.975	22041.2
303.865	21855.2
309.748	21702.2
315.625	21521.2
321.495	21433.2
327.359	21363.2
333.217	21300.2
339.068	21233.2
344.912	21295.2
350.751	21247.2
356.583	21190.2
362.408	21217.2
368.227	21204.2
374.04	21200.2
379.847	21294.2
385.647	21367.2
391.44	21409.2
397.228	21447.2
403.009	21566.2
408.784	21685.2
414.553	21673.2
420.315	21769.2
426.071	21783.2
431.821	21785.2
437.565	21728.2
443.302	21662.2
449.033	21712.2
454.758	21648.2
460.477	21589.2
466.189	21575.2
471.896	21474.2
477.596	21392.2
483.29	21420.2
488.978	21327.2
494.66	21319.2
500.335	21066.2
506.005	20875.2
511.668	20668.2
517.325	20442.2
522.977	20253.2
528.622	20129.2
534.261	20030.2
539.894	19952.2
545.521	19820.2
551.141	19763.2
556.756	19621.2
562.365	19608.2
567.968	19545.2
573.565	19477.2
579.155	19360.2
584.74	19249.2
590.319	19207.2
595.892	19145.2
601.459	19078.2
607.02	19033.2
612.575	18914.2
618.124	18762.2
623.667	18608.2
629.204	18557.2
634.735	18463.2
640.261	18429.2
645.781	18375.2
651.294	18331.2
656.802	18310.2
662.304	18282.2
667.8	18217.2
673.29	18215.2
678.775	18152.2
684.254	18081.2
689.726	17982.2
695.193	17975.2
700.655	17859.2
706.11	17752.2
711.56	17719.2
717.004	17582.2
722.442	17492.2
727.874	17444.2
733.301	17400.2
738.722	17330.2
744.137	17295.2
749.547	17304.2
754.951	17280.2
760.349	17374.2
765.741	17330.2
771.128	17280.2
776.509	17315.2
781.885	17329.2
787.254	17269.2
792.618	17227.2
797.977	17090.2
803.33	16924.2
808.677	16838.2
814.019	16769.2
819.355	16665.2
824.686	16623.2
830.011	16585.2
835.33	16564.2
840.644	16574.2
845.952	16628.2
851.255	16638.2
856.552	16711.2
861.844	16592.2
867.13	16608.2
872.41	16552.2
877.686	16420.2
882.955	16310.2
888.219	16192.2
893.478	15979.2
898.731	15801.2
903.979	15671.2
909.221	15528.2
914.458	15391.2
919.69	15449.2
924.916	15532.2
930.136	15542.2
935.351	15555.2
940.561	15491.2
945.766	15526.2
950.965	15448.2
956.158	15343.2
961.347	15187.2
966.529	14959.2
971.707	14722.2
976.879	14582.2
982.046	14460.2
987.208	14468.2
992.364	14428.2
997.515	14534.2
1002.66	14689.2
1007.801	14864.2
1012.936	14951.2
1018.066	14984.2
1023.19	14884.2
1028.309	14929.2
1033.423	14893.2
1038.532	14783.2
1043.636	14714.2
1048.734	14479.2
1053.827	14303.2
1058.915	14117.2
1063.998	14028.2
1069.075	14023.2
1074.147	14004.2
1079.214	14079.2
1084.276	14190.2
1089.333	14251.2
1094.385	14339.2
1099.431	14341.2
1104.472	14354.2
1109.509	14287.2
1114.54	14098.2
1119.565	13888.2
1124.586	13742.2
1129.602	13588.2
1134.613	13530.2
1139.618	13443.2
1144.619	13395.2
1149.614	13403.2
1154.604	13384.2
1159.589	13425.2
1164.57	13495.2
1169.545	13509.2
1174.515	13502.2
1179.48	13405.2
1184.44	13365.2
1189.395	13209.2
1194.345	13154.2
1199.29	13013.2
1204.23	13024.2
1209.165	13059.2
1214.095	13177.2
1219.021	13209.2
1223.941	13319.2
1228.856	13369.2
1233.766	13372.2
1238.672	13379.2
1243.572	13390.2
1248.467	13325.2
1253.358	13192.2
1258.244	12984.2
1263.124	12761.2
1268	12559.2
1272.871	12427.2
1277.737	12396.2
1282.599	12287.2
1287.455	12288.2
1292.306	12315.2
1297.153	12337.2
1301.995	12399.2
1306.832	12427.2
1311.664	12447.2
1316.491	12407.2
1321.314	12288.2
1326.132	12083.2
1330.945	11849.2
1335.753	11554.2
1340.556	11258.2
1345.354	10970.2
1350.148	10890.2
1354.937	10800.2
1359.722	10791.2
1364.501	10859.2
1369.276	10985.2
1374.046	11101.2
1378.811	11265.2
1383.572	11369.2
1388.327	11395.2
1393.079	11375.2
1397.825	11231.2
1402.567	11044.2
1407.304	10892.2
1412.036	10774.2
1416.764	10696.2
1421.487	10640.2
1426.205	10555.2
1430.919	10582.2
1435.628	10505.2
1440.333	10582.2
1445.032	10591.2
1449.727	10644.2
1454.418	10613.2
1459.104	10500.2
1463.785	10320.2
1468.462	10068.2
1473.134	9835.2
1477.802	9684.2
1482.465	9555.2
1487.123	9397.2
1491.777	9358.2
1496.426	9443.2
1501.071	9543.2
1505.711	9673.2
1510.347	9868.2
1514.978	10024.2
1519.604	10171.2
1524.226	10227.2
1528.844	10284.2
1533.457	10234.2
1538.065	10171.2
1542.669	10119.2
1547.269	10039.2
1551.864	9999.2
1556.454	9949.2
1561.041	9983.2
1565.622	9977.2
1570.199	9944.2
1574.772	9976.2
1579.34	10089.2
1583.904	10112.2
1588.464	10158.2
1593.019	10173.2
1597.569	10146.2
1602.115	10129.2
1606.657	10023.2
1611.195	9974.2
1615.728	9873.2
1620.256	9827.2
1624.78	9845.2
1629.3	9865.2
1633.816	9943.2
1638.327	9948.2
1642.834	10034.2
1647.336	10030.2
1651.834	10041.2
1656.328	10050.2
1660.817	10022.2
1665.302	9892.2
1669.783	9729.2
1674.259	9484.2
1678.732	9226.2
1683.199	8924.2
1687.663	8580.2
1692.122	8330.2
1696.577	8181.2
1701.028	8161.2
1705.474	8204.2
1709.917	8315.2
1714.355	8339.2
1718.788	8230.2
1723.218	8126.2
1727.643	7977.2
1732.064	7822.2
1736.481	7642.2
1740.893	7473.2
1745.301	7252.2
1749.705	7058.2
1754.105	6879.2
1758.501	6683.2
1762.893	6483.2
1767.28	6311.2
1771.663	6194.2
1776.042	6088.2
1780.417	6045.2
1784.787	6040.2
1789.154	6072.2
1793.516	6205.2
1797.874	6306.2
1802.228	6391.2
1806.578	6501.2
1810.924	6463.2
1815.266	6402.2
1819.603	6333.2
1823.937	6189.2
1828.266	6147.2
1832.591	6051.2
1836.913	5935.2
1841.23	5908.2
1845.543	5879.2
1849.852	5829.2
1854.156	5797.2
1858.457	5790.2
1862.754	5807.2
1867.047	5761.2
1871.335	5794.2
1875.62	5744.2
1879.9	5720.2
1884.177	5709.2
1888.449	5629.2
1892.718	5601.2
1896.982	5533.2
1901.243	5448.2
1905.499	5459.2
1909.752	5415.2
1914	5421.2
1918.245	5430.2
1922.485	5479.2
1926.722	5524.2
1930.954	5602.2
1935.183	5663.2
1939.408	5693.2
1943.628	5729.2
1947.845	5742.2
1952.058	5682.2
1956.267	5687.2
1960.472	5598.2
1964.673	5500.2
1968.87	5455.2
1973.063	5364.2
1977.252	5298.2
1981.438	5225.2
1985.619	5209.2
1989.797	5138.2
1993.971	5118.2
1998.14	5086.2
2002.306	5059.2
2006.469	5058.2
2010.627	5018.2
2014.781	4997.2
2018.932	4950.2
2023.078	4924.2
2027.221	4825.2
2031.36	4746.2
2035.495	4671.2
2039.627	4657.2
2043.754	4544.2
2047.878	4540.2
2051.998	4511.2
2056.114	4484.2
2060.226	4464.2
2064.334	4481.2
2068.439	4494.2
2072.54	4536.2
2076.637	4541.2
2080.73	4565.2
2084.82	4592.2
2088.906	4628.2
2092.988	4630.2
2097.066	4612.2
2101.14	4597.2
2105.211	4538.2
2109.278	4502.2
2113.342	4478.2
2117.401	4447.2
2121.457	4406.2
2125.509	4420.2
2129.558	4383.2
2133.602	4348.2
2137.643	4338.2
2141.681	4308.2
2145.714	4310.2
2149.744	4264.2
2153.77	4252.2
2157.793	4187.2
2161.812	4140.2
2165.827	4062.2
2169.838	4028.2
2173.846	3930.2
2177.851	3880.2
2181.851	3832.2
2185.848	3779.2
2189.841	3698.2
2193.831	3714.2
2197.817	3682.2
2201.799	3637.2
2205.778	3642.2
2209.753	3618.2
2213.725	3605.2
2217.693	3571.2
2221.657	3601.2
2225.618	3584.2
2229.575	3565.2
2233.529	3509.2
2237.479	3509.2
2241.425	3436.2
2245.368	3403.2
2249.307	3341.2
2253.243	3266.2
2257.175	3270.2
2261.104	3229.2
2265.029	3172.2
2268.95	3138.2
2272.868	3082.2
2276.783	3088.2
2280.694	3030.2
2284.601	2997.2
2288.505	2980.2
2292.405	2967.2
2296.302	2926.2
2300.195	2902.2
2304.085	2877.2
2307.971	2802.2
2311.854	2784.2
2315.734	2718.2
2319.609	2706.2
2323.482	2648.2
2327.351	2650.2
2331.216	2620.2
2335.078	2592.2
2338.937	2564.2
2342.792	2560.2
2346.643	2544.2
2350.492	2559.2
2354.336	2551.2
2358.178	2555.2
2362.015	2555.2
2365.85	2591.2
2369.681	2563.2
2373.508	2560.2
2377.333	2587.2
2381.153	2549.2
2384.971	2550.2
2388.785	2538.2
2392.595	2503.2
2396.402	2498.2
2400.206	2467.2
2404.007	2454.2
2407.804	2409.2
2411.597	2379.2
2415.388	2389.2
2419.174	2373.2
2422.958	2358.2
2426.738	2352.2
2430.515	2322.2
2434.289	2313.2
2438.059	2264.2
2441.825	2248.2
2445.589	2233.2
2449.349	2217.2
2453.106	2190.2
2456.859	2169.2
2460.61	2133.2
2464.356	2082.2
2468.1	2080.2
2471.84	2049.2
2475.577	2040.2
2479.311	2039.2
2483.041	2037.2
2486.768	2008.2
2490.492	2003.2
2494.213	1993.2
2497.93	1979.2
2501.644	1975.2
2505.355	1978.2
2509.062	1969.2
2512.766	1958.2
2516.467	1956.2
2520.165	1937.2
2523.859	1906.2
2527.551	1890.2
2531.239	1882.2
2534.923	1884.2
2538.605	1849.2
2542.283	1864.2
2545.958	1853.2
2549.63	1852.2
2553.299	1844.2
2556.964	1845.2
2560.626	1817.2
2564.285	1827.2
2567.941	1814.2
2571.594	1777.2
2575.243	1802.2
2578.89	1791.2
2582.533	1763.2
2586.173	1753.2
2589.809	1712.2
2593.443	1721.2
2597.073	1698.2
2600.701	1680.2
2604.325	1665.2
2607.946	1665.2
2611.564	1661.2
2615.178	1652.2
2618.79	1638.2
2622.398	1620.2
2626.004	1581.2
2629.606	1571.2
2633.205	1540.2
2636.801	1533.2
2640.394	1518.2
2643.983	1484.2
2647.57	1459.2
2651.153	1441.2
2654.734	1438.2
2658.311	1420.2
2661.885	1367.2
2665.456	1350.2
2669.025	1318.2
2672.589	1330.2
2676.151	1323.2
2679.71	1309.2
2683.266	1289.2
2686.819	1268.2
2690.368	1218.2
2693.915	1199.2
2697.458	1179.2
2700.999	1161.2
2704.536	1117.2
2708.071	1108.2
2711.602	1092.2
2715.13	1051.2
2718.656	1032.2
2722.178	997.2
2725.697	984.2
2729.214	977.2
2732.727	962.2
2736.237	968.2
2739.744	972.2
2743.249	957.2
2746.75	984.2
2750.248	973.2
2753.743	985.2
2757.236	1013.2
2760.725	1011.2
2764.211	1022.2
2767.695	1018.2
2771.175	1012.2
2774.652	1017.2
2778.127	1029.2
2781.598	1004.2
2785.067	989.2
2788.532	979.2
2791.995	1007.2
2795.455	1004.2
2798.911	1012.2
2802.365	1011.2
2805.816	989.2
2809.264	992.2
2812.709	984.2
2816.151	991.2
2819.59	992.2
2823.026	1018.2
2826.46	990.2
2829.89	999.2
2833.318	997.2
2836.742	991.2
2840.164	1037.2
2843.583	1014.2
2846.999	1027.2
2850.412	1054.2
2853.822	1048.2
2857.229	1069.2
2860.634	1078.2
2864.035	1104.2
2867.434	1113.2
2870.83	1138.2
2874.223	1170.2
2877.613	1211.2
2881	1212.2
2884.385	1230.2
2887.766	1216.2
2891.145	1219.2
2894.521	1221.2
2897.894	1215.2
2901.264	1218.2
2904.631	1222.2
2907.996	1218.2
2911.358	1251.2
2914.717	1219.2
2918.073	1222.2
2921.426	1271.2
2924.777	1276.2
2928.124	1292.2
2931.469	1310.2
2934.811	1344.2
2938.15	1350.2
2941.487	1356.2
2944.821	1380.2
2948.152	1378.2
2951.48	1372.2
2954.805	1364.2
2958.128	1340.2
2961.447	1327.2
2964.765	1330.2
2968.079	1348.2
2971.39	1342.2
2974.699	1356.2
2978.005	1382.2
2981.308	1410.2
2984.609	1424.2
2987.907	1448.2
2991.202	1496.2
2994.494	1518.2
2997.784	1552.2
3001.07	1576.2
3004.355	1607.2
3007.636	1634.2
3010.915	1661.2
3014.191	1674.2
3017.464	1682.2
3020.734	1678.2
3024.002	1697.2
3027.267	1708.2
3030.53	1715.2
3033.789	1749.2
3037.046	1752.2
3040.301	1800.2
3043.552	1823.2
3046.801	1889.2
3050.048	1915.2
3053.291	1964.2
3056.532	2011.2
3059.771	2083.2
3063.006	2140.2
3066.239	2202.2
3069.469	2258.2
3072.697	2324.2
3075.922	2376.2
3079.144	2451.2
3082.364	2497.2
3085.581	2538.2
3088.795	2603.2
3092.007	2666.2
3095.216	2712.2
3098.423	2784.2
3101.627	2829.2
3104.828	2899.2
3108.026	2978.2
3111.222	3031.2
3114.416	3115.2
3117.607	3188.2
3120.795	3246.2
3123.98	3335.2
3127.163	3403.2
3130.344	3479.2
3133.521	3562.2
3136.696	3667.2
3139.869	3712.2
3143.039	3771.2
3146.206	3825.2
3149.371	3902.2
3152.533	3933.2
3155.693	3952.2
3158.85	3955.2
3162.005	3981.2
3165.157	4009.2
3168.306	4012.2
3171.453	4017.2
3174.597	4020.2
3177.739	4049.2
3180.878	4040.2
3184.014	4056.2
3187.149	4066.2
3190.28	4077.2
3193.409	4047.2
3196.536	4061.2
3199.659	4108.2
3202.781	4098.2
3205.9	4075.2
3209.016	4099.2
3212.13	4084.2
3215.241	4036.2
3218.35	3990.2
3221.456	3981.2
3224.56	3906.2
3227.661	3876.2
3230.76	3845.2
3233.856	3802.2
3236.95	3773.2
3240.041	3727.2
3243.13	3686.2
3246.216	3684.2
3249.3	3650.2
3252.382	3631.2
3255.46	3588.2
3258.537	3630.2
3261.611	3604.2
3264.682	3635.2
3267.751	3625.2
3270.818	3618.2
3273.882	3589.2
3276.943	3595.2
3280.002	3523.2
3283.059	3495.2
3286.113	3469.2
3289.165	3432.2
3292.214	3392.2
3295.261	3310.2
3298.306	3258.2
3301.348	3230.2
3304.387	3183.2
3307.425	3112.2
3310.459	3073.2
3313.492	3028.2
3316.521	2994.2
3319.549	2951.2
3322.574	2944.2
3325.597	2876.2
3328.617	2896.2
3331.635	2849.2
3334.65	2826.2
3337.663	2843.2
3340.674	2824.2
3343.682	2818.2
3346.688	2807.2
3349.691	2784.2
3352.692	2767.2
3355.691	2738.2
3358.687	2714.2
3361.681	2679.2
3364.673	2654.2
3367.662	2620.2
3370.649	2567.2
3373.633	2559.2
3376.615	2516.2
3379.595	2458.2
3382.572	2427.2
3385.547	2392.2
3388.52	2352.2
3391.49	2324.2
3394.458	2301.2
3397.424	2259.2
3400.387	2229.2
3403.348	2193.2
3406.307	2188.2
3409.263	2167.2
3412.217	2123.2
3415.168	2122.2
3418.118	2075.2
3421.065	2034.2
3424.009	2035.2
3426.951	1986.2
3429.891	1962.2
3432.829	1913.2
3435.764	1873.2
3438.697	1820.2
3441.628	1784.2
3444.557	1728.2
3447.483	1664.2
3450.407	1618.2
3453.328	1546.2
3456.247	1508.2
3459.164	1436.2
3462.079	1405.2
3464.991	1363.2
3467.902	1301.2
3470.809	1241.2
3473.715	1187.2
3476.618	1160.2
3479.519	1120.2
3482.418	1085.2
3485.315	1045.2
3488.209	999.2
3491.101	971.2
3493.99	928.2
3496.878	888.2
3499.763	870.2
3502.646	828.2
3505.527	775.2
3508.405	744.2
3511.281	713.2
3514.155	667.2
3517.027	616.2
3519.897	577.2
3522.764	552.2
3525.629	506.2
3528.492	454.2
3531.352	417.2
3534.211	377.2
3537.067	326.2
3539.921	308.2
3542.773	274.2
3545.622	229.2
3548.469	205.2
3551.315	183.2
3554.157	155.2
3556.998	125.2
3559.837	101.2
3562.673	82.2
3565.507	54.2
3568.339	38.2
3571.169	18.2
3573.996	-14.8
3576.822	-20.8
3579.645	-37.8
3582.466	-64.8
3585.285	-88.8
3588.101	-101.8
3590.916	-132.8
3593.728	-148.8
3596.538	-170.8
3599.346	-188.8
3602.152	-196.8
3604.956	-212.8
3607.757	-226.8
3610.556	-234.8
3613.354	-253.8
3616.149	-270.8
3618.942	-280.8
3621.732	-296.8
3624.521	-302.8
3627.307	-319.8
3630.092	-337.8
3632.874	-347.8
3635.654	-354.8
3638.432	-354.8
3641.208	-367.8
3643.982	-378.8
3646.753	-380.8
3649.523	-394.8
3652.29	-406.8
3655.055	-403.8
3657.818	-416.8
3660.579	-432.8
3663.338	-437.8
3666.095	-451.8
3668.849	-470.8
3671.602	-467.8
3674.352	-479.8
3677.101	-488.8
3679.847	-497.8
3682.591	-494.8
3685.333	-501.8
3688.073	-508.8
3690.811	-511.8
3693.547	-508.8
3696.281	-522.8
3699.013	-520.8
3701.742	-540.8
3704.47	-538.8
3707.195	-548.8
3709.919	-543.8
3712.64	-549.8
3715.359	-559.8
3718.076	-556.8
3720.792	-566.8
3723.505	-560.8
3726.216	-574.8
3728.925	-571.8
3731.632	-589.8
3734.336	-590.8
3737.039	-596.8
3739.74	-580.8
3742.439	-588.8
3745.136	-592.8
3747.83	-591.8
3750.523	-595.8
3753.213	-603.8
3755.902	-599.8
3758.589	-600.8
3761.273	-597.8
3763.956	-599.8
3766.636	-604.8
3769.315	-607.8
3771.991	-607.8
3774.665	-609.8
3777.338	-611.8
3780.008	-612.8
3782.677	-611.8
3785.343	-618.8
3788.007	-609.8
3790.67	-618.8
3793.33	-621.8
3795.989	-624.8
3798.645	-632.8
3801.299	-626.8
3803.952	-631.8
3806.602	-628.8
3809.251	-635.8
3811.897	-620.8
3814.542	-621.8
3817.184	-629.8
3819.825	-630.8
3822.463	-627.8
3825.1	-631.8
3827.735	-635.8
3830.367	-639.8
3832.998	-632.8
3835.627	-636.8
3838.253	-639.8
3840.878	-636.8
3843.501	-640.8
3846.122	-636.8
3848.741	-640.8
3851.358	-637.8
3853.973	-646.8
3856.586	-644.8
3859.197	-644.8
3861.806	-639.8
3864.414	-640.8
3867.019	-642.8
3869.622	-638.8
3872.224	-637.8
3874.823	-621.8
3877.421	-606.8
3880.016	-583.8
3882.61	-552.8
3885.202	-552.8
3887.792	-572.8
3890.38	-603.8
3892.966	-624.8
3895.55	-635.8
3898.132	-640.8
3900.713	-652.8
3903.291	-649.8
3905.868	-652.8
3908.442	-656.8
3911.015	-653.8
3913.586	-651.8
3916.155	-653.8
3918.722	-648.8
3921.287	-654.8
3923.85	-652.8
3926.411	-650.8
3928.971	-654.8
3931.528	-657.8
3934.084	-647.8
3936.638	-659.8
3939.19	-662.8
3941.74	-662.8
3944.288	-658.8
3946.834	-656.8
3949.378	-654.8
3951.921	-658.8
3954.462	-660.8
3957	-655.8
3959.537	-651.8
3962.072	-651.8
3964.606	-648.8
3967.137	-655.8
3969.667	-652.8
3972.194	-652.8
3974.72	-650.8
3977.244	-646.8
3979.766	-650.8
3982.286	-645.8
3984.805	-640.8
3987.321	-640.8
3989.836	-646.8
3992.349	-642.8
3994.86	-640.8
3997.369	-646.8
3999.877	-642.8
4002.382	-636.8
4004.886	-647.8
4007.388	-644.8
4009.888	-641.8
4012.386	-641.8
4014.883	-637.8
4017.377	-640.8
4019.87	-638.8
4022.361	-641.8
4024.85	-642.8
4027.338	-645.8
4029.823	-643.8
4032.307	-646.8
4034.789	-649.8
4037.269	-650.8
4039.747	-650.8
4042.224	-641.8
4044.699	-648.8
4047.172	-651.8
4049.643	-647.8
4052.112	-640.8
4054.58	-637.8
4057.046	-651.8
4059.51	-645.8
4061.972	-651.8
4064.432	-643.8
4066.891	-647.8
4069.348	-647.8
4071.803	-653.8
4074.256	-644.8
4076.708	-642.8
4079.158	-640.8
4081.606	-633.8
4084.052	-638.8
4086.497	-642.8
4088.939	-634.8
4091.38	-634.8
4093.819	-641.8
4096.257	-679.8
4098.693	-677.8
4101.127	-678.8
4103.559	-680.8
4105.989	-399.8
4108.418	-385.8
4110.845	-352.8
4113.27	-334.8
4115.694	-286.8
4118.115	-241.8
4120.535	-638.8
4122.954	-644.8
4125.37	-638.8
4127.785	-639.8
4130.198	-645.8
4132.609	-644.8
4135.019	-683.8
4137.427	-678.8
4139.833	-680.8
4142.237	-678.8
