Data from 2018-2-7_conc=2_RamanShift_11.txt Node
Date: Tue Feb 13 11:51:44 IST 2018
User: aro
Spectrometer: QEPB0276
Trigger mode: 0
Integration Time (sec): 3.000000E1
Scans to average: 1
Electric dark correction enabled: true
Nonlinearity correction enabled: false
Boxcar width: 0
XAxis mode: Raman Shifts
Number of Pixels in Spectrum: 1044
>>>>>Begin Spectral Data<<<<<
160.701	-164.5
166.742	27.5
172.777	591.5
178.805	2258.5
184.826	6174.5
190.841	12661.5
196.849	20080.5
202.85	25225.5
208.845	26779.5
214.833	26407.5
220.815	25922.5
226.789	25697.5
232.758	25523.5
238.719	25299.5
244.674	24872.5
250.623	24403.5
256.565	23864.5
262.5	23317.5
268.429	22744.5
274.351	22435.5
280.267	22091.5
286.176	21838.5
292.079	21572.5
297.975	21330.5
303.865	21178.5
309.748	20988.5
315.625	20821.5
321.495	20652.5
327.359	20628.5
333.217	20557.5
339.068	20538.5
344.912	20472.5
350.751	20478.5
356.583	20485.5
362.408	20396.5
368.227	20419.5
374.04	20416.5
379.847	20487.5
385.647	20539.5
391.44	20636.5
397.228	20791.5
403.009	20868.5
408.784	21002.5
414.553	20937.5
420.315	20985.5
426.071	20954.5
431.821	20985.5
437.565	21002.5
443.302	20965.5
449.033	20860.5
454.758	20840.5
460.477	20812.5
466.189	20756.5
471.896	20722.5
477.596	20616.5
483.29	20615.5
488.978	20593.5
494.66	20520.5
500.335	20378.5
506.005	20147.5
511.668	19944.5
517.325	19692.5
522.977	19494.5
528.622	19309.5
534.261	19239.5
539.894	19102.5
545.521	19041.5
551.141	18977.5
556.756	18891.5
562.365	18820.5
567.968	18724.5
573.565	18657.5
579.155	18560.5
584.74	18565.5
590.319	18449.5
595.892	18371.5
601.459	18344.5
607.02	18201.5
612.575	18122.5
618.124	18060.5
623.667	17883.5
629.204	17808.5
634.735	17786.5
640.261	17655.5
645.781	17558.5
651.294	17549.5
656.802	17530.5
662.304	17481.5
667.8	17424.5
673.29	17451.5
678.775	17328.5
684.254	17276.5
689.726	17295.5
695.193	17206.5
700.655	17128.5
706.11	17074.5
711.56	16991.5
717.004	16903.5
722.442	16822.5
727.874	16753.5
733.301	16682.5
738.722	16649.5
744.137	16626.5
749.547	16619.5
754.951	16599.5
760.349	16626.5
765.741	16607.5
771.128	16687.5
776.509	16667.5
781.885	16622.5
787.254	16574.5
792.618	16579.5
797.977	16372.5
803.33	16302.5
808.677	16200.5
814.019	16115.5
819.355	16063.5
824.686	16015.5
830.011	15921.5
835.33	15897.5
840.644	15921.5
845.952	15989.5
851.255	16013.5
856.552	16041.5
861.844	15947.5
867.13	15918.5
872.41	15812.5
877.686	15796.5
882.955	15683.5
888.219	15529.5
893.478	15341.5
898.731	15150.5
903.979	15050.5
909.221	14876.5
914.458	14814.5
919.69	14880.5
924.916	14875.5
930.136	14926.5
935.351	14993.5
940.561	14935.5
945.766	14933.5
950.965	14813.5
956.158	14713.5
961.347	14579.5
966.529	14399.5
971.707	14163.5
976.879	14042.5
982.046	13903.5
987.208	13874.5
992.364	13907.5
997.515	13998.5
1002.66	14088.5
1007.801	14330.5
1012.936	14329.5
1018.066	14415.5
1023.19	14325.5
1028.309	14341.5
1033.423	14324.5
1038.532	14206.5
1043.636	14091.5
1048.734	13912.5
1053.827	13714.5
1058.915	13598.5
1063.998	13588.5
1069.075	13455.5
1074.147	13515.5
1079.214	13562.5
1084.276	13669.5
1089.333	13728.5
1094.385	13820.5
1099.431	13831.5
1104.472	13823.5
1109.509	13768.5
1114.54	13571.5
1119.565	13388.5
1124.586	13234.5
1129.602	13067.5
1134.613	13054.5
1139.618	12931.5
1144.619	12918.5
1149.614	12864.5
1154.604	12944.5
1159.589	12916.5
1164.57	13051.5
1169.545	12993.5
1174.515	12990.5
1179.48	12934.5
1184.44	12869.5
1189.395	12755.5
1194.345	12665.5
1199.29	12658.5
1204.23	12653.5
1209.165	12628.5
1214.095	12694.5
1219.021	12792.5
1223.941	12904.5
1228.856	12927.5
1233.766	12955.5
1238.672	13025.5
1243.572	12976.5
1248.467	12869.5
1253.358	12728.5
1258.244	12585.5
1263.124	12307.5
1268	12183.5
1272.871	12031.5
1277.737	11921.5
1282.599	11879.5
1287.455	11914.5
1292.306	11927.5
1297.153	11933.5
1301.995	12027.5
1306.832	12053.5
1311.664	12068.5
1316.491	12038.5
1321.314	11922.5
1326.132	11738.5
1330.945	11471.5
1335.753	11168.5
1340.556	10893.5
1345.354	10665.5
1350.148	10526.5
1354.937	10435.5
1359.722	10422.5
1364.501	10517.5
1369.276	10587.5
1374.046	10750.5
1378.811	10881.5
1383.572	10949.5
1388.327	11012.5
1393.079	10948.5
1397.825	10857.5
1402.567	10694.5
1407.304	10580.5
1412.036	10448.5
1416.764	10411.5
1421.487	10305.5
1426.205	10248.5
1430.919	10289.5
1435.628	10271.5
1440.333	10247.5
1445.032	10277.5
1449.727	10381.5
1454.418	10269.5
1459.104	10155.5
1463.785	9966.5
1468.462	9742.5
1473.134	9554.5
1477.802	9363.5
1482.465	9181.5
1487.123	9095.5
1491.777	9039.5
1496.426	9086.5
1501.071	9171.5
1505.711	9347.5
1510.347	9521.5
1514.978	9659.5
1519.604	9828.5
1524.226	9890.5
1528.844	9895.5
1533.457	9855.5
1538.065	9843.5
1542.669	9805.5
1547.269	9746.5
1551.864	9672.5
1556.454	9652.5
1561.041	9661.5
1565.622	9650.5
1570.199	9631.5
1574.772	9720.5
1579.34	9827.5
1583.904	9807.5
1588.464	9872.5
1593.019	9900.5
1597.569	9854.5
1602.115	9802.5
1606.657	9739.5
1611.195	9727.5
1615.728	9672.5
1620.256	9607.5
1624.78	9629.5
1629.3	9660.5
1633.816	9678.5
1638.327	9737.5
1642.834	9778.5
1647.336	9817.5
1651.834	9820.5
1656.328	9778.5
1660.817	9765.5
1665.302	9638.5
1669.783	9448.5
1674.259	9228.5
1678.732	8960.5
1683.199	8636.5
1687.663	8327.5
1692.122	8104.5
1696.577	7942.5
1701.028	7907.5
1705.474	7956.5
1709.917	8031.5
1714.355	8044.5
1718.788	7986.5
1723.218	7853.5
1727.643	7732.5
1732.064	7532.5
1736.481	7357.5
1740.893	7194.5
1745.301	7026.5
1749.705	6808.5
1754.105	6645.5
1758.501	6480.5
1762.893	6285.5
1767.28	6142.5
1771.663	5956.5
1776.042	5857.5
1780.417	5820.5
1784.787	5806.5
1789.154	5862.5
1793.516	5919.5
1797.874	6074.5
1802.228	6165.5
1806.578	6240.5
1810.924	6223.5
1815.266	6198.5
1819.603	6092.5
1823.937	6000.5
1828.266	5900.5
1832.591	5805.5
1836.913	5750.5
1841.23	5692.5
1845.543	5639.5
1849.852	5636.5
1854.156	5596.5
1858.457	5581.5
1862.754	5596.5
1867.047	5584.5
1871.335	5586.5
1875.62	5544.5
1879.9	5528.5
1884.177	5480.5
1888.449	5459.5
1892.718	5362.5
1896.982	5322.5
1901.243	5293.5
1905.499	5218.5
1909.752	5242.5
1914	5207.5
1918.245	5250.5
1922.485	5282.5
1926.722	5317.5
1930.954	5379.5
1935.183	5444.5
1939.408	5480.5
1943.628	5518.5
1947.845	5546.5
1952.058	5534.5
1956.267	5489.5
1960.472	5436.5
1964.673	5328.5
1968.87	5232.5
1973.063	5186.5
1977.252	5116.5
1981.438	5055.5
1985.619	5008.5
1989.797	4961.5
1993.971	4968.5
1998.14	4947.5
2002.306	4913.5
2006.469	4891.5
2010.627	4871.5
2014.781	4831.5
2018.932	4819.5
2023.078	4761.5
2027.221	4722.5
2031.36	4641.5
2035.495	4542.5
2039.627	4507.5
2043.754	4430.5
2047.878	4370.5
2051.998	4379.5
2056.114	4316.5
2060.226	4327.5
2064.334	4338.5
2068.439	4361.5
2072.54	4377.5
2076.637	4392.5
2080.73	4424.5
2084.82	4490.5
2088.906	4465.5
2092.988	4483.5
2097.066	4467.5
2101.14	4428.5
2105.211	4434.5
2109.278	4386.5
2113.342	4356.5
2117.401	4325.5
2121.457	4317.5
2125.509	4310.5
2129.558	4276.5
2133.602	4245.5
2137.643	4238.5
2141.681	4179.5
2145.714	4182.5
2149.744	4153.5
2153.77	4127.5
2157.793	4069.5
2161.812	4039.5
2165.827	3938.5
2169.838	3922.5
2173.846	3865.5
2177.851	3777.5
2181.851	3769.5
2185.848	3685.5
2189.841	3637.5
2193.831	3586.5
2197.817	3604.5
2201.799	3565.5
2205.778	3577.5
2209.753	3507.5
2213.725	3524.5
2217.693	3499.5
2221.657	3511.5
2225.618	3503.5
2229.575	3479.5
2233.529	3456.5
2237.479	3419.5
2241.425	3371.5
2245.368	3328.5
2249.307	3272.5
2253.243	3255.5
2257.175	3206.5
2261.104	3141.5
2265.029	3115.5
2268.95	3084.5
2272.868	3036.5
2276.783	3027.5
2280.694	2977.5
2284.601	2972.5
2288.505	2932.5
2292.405	2896.5
2296.302	2873.5
2300.195	2836.5
2304.085	2810.5
2307.971	2757.5
2311.854	2704.5
2315.734	2691.5
2319.609	2661.5
2323.482	2630.5
2327.351	2590.5
2331.216	2595.5
2335.078	2560.5
2338.937	2552.5
2342.792	2538.5
2346.643	2533.5
2350.492	2521.5
2354.336	2534.5
2358.178	2529.5
2362.015	2549.5
2365.85	2555.5
2369.681	2563.5
2373.508	2540.5
2377.333	2544.5
2381.153	2556.5
2384.971	2540.5
2388.785	2518.5
2392.595	2485.5
2396.402	2451.5
2400.206	2429.5
2404.007	2396.5
2407.804	2414.5
2411.597	2381.5
2415.388	2365.5
2419.174	2363.5
2422.958	2345.5
2426.738	2344.5
2430.515	2317.5
2434.289	2283.5
2438.059	2253.5
2441.825	2275.5
2445.589	2243.5
2449.349	2228.5
2453.106	2165.5
2456.859	2159.5
2460.61	2123.5
2464.356	2102.5
2468.1	2076.5
2471.84	2045.5
2475.577	2035.5
2479.311	2001.5
2483.041	1985.5
2486.768	1996.5
2490.492	1995.5
2494.213	1988.5
2497.93	1960.5
2501.644	1963.5
2505.355	1959.5
2509.062	1914.5
2512.766	1927.5
2516.467	1907.5
2520.165	1894.5
2523.859	1904.5
2527.551	1865.5
2531.239	1850.5
2534.923	1855.5
2538.605	1846.5
2542.283	1850.5
2545.958	1834.5
2549.63	1850.5
2553.299	1816.5
2556.964	1818.5
2560.626	1819.5
2564.285	1809.5
2567.941	1800.5
2571.594	1786.5
2575.243	1772.5
2578.89	1772.5
2582.533	1758.5
2586.173	1730.5
2589.809	1717.5
2593.443	1710.5
2597.073	1698.5
2600.701	1696.5
2604.325	1672.5
2607.946	1673.5
2611.564	1644.5
2615.178	1667.5
2618.79	1608.5
2622.398	1611.5
2626.004	1597.5
2629.606	1579.5
2633.205	1529.5
2636.801	1529.5
2640.394	1521.5
2643.983	1481.5
2647.57	1479.5
2651.153	1433.5
2654.734	1426.5
2658.311	1404.5
2661.885	1397.5
2665.456	1372.5
2669.025	1342.5
2672.589	1350.5
2676.151	1325.5
2679.71	1296.5
2683.266	1284.5
2686.819	1264.5
2690.368	1225.5
2693.915	1222.5
2697.458	1178.5
2700.999	1149.5
2704.536	1120.5
2708.071	1103.5
2711.602	1077.5
2715.13	1061.5
2718.656	1026.5
2722.178	1009.5
2725.697	1005.5
2729.214	989.5
2732.727	982.5
2736.237	985.5
2739.744	983.5
2743.249	984.5
2746.75	973.5
2750.248	975.5
2753.743	1002.5
2757.236	1001.5
2760.725	994.5
2764.211	1033.5
2767.695	1032.5
2771.175	1012.5
2774.652	1027.5
2778.127	1024.5
2781.598	1017.5
2785.067	1010.5
2788.532	993.5
2791.995	1026.5
2795.455	1005.5
2798.911	1009.5
2802.365	990.5
2805.816	1008.5
2809.264	1005.5
2812.709	973.5
2816.151	1010.5
2819.59	1007.5
2823.026	1019.5
2826.46	1002.5
2829.89	1016.5
2833.318	1015.5
2836.742	1016.5
2840.164	1021.5
2843.583	1043.5
2846.999	1049.5
2850.412	1064.5
2853.822	1064.5
2857.229	1081.5
2860.634	1085.5
2864.035	1111.5
2867.434	1135.5
2870.83	1165.5
2874.223	1175.5
2877.613	1206.5
2881	1211.5
2884.385	1245.5
2887.766	1232.5
2891.145	1246.5
2894.521	1228.5
2897.894	1227.5
2901.264	1219.5
2904.631	1222.5
2907.996	1251.5
2911.358	1230.5
2914.717	1253.5
2918.073	1269.5
2921.426	1274.5
2924.777	1298.5
2928.124	1319.5
2931.469	1345.5
2934.811	1364.5
2938.15	1374.5
2941.487	1408.5
2944.821	1410.5
2948.152	1413.5
2951.48	1394.5
2954.805	1404.5
2958.128	1368.5
2961.447	1365.5
2964.765	1363.5
2968.079	1367.5
2971.39	1371.5
2974.699	1381.5
2978.005	1405.5
2981.308	1439.5
2984.609	1469.5
2987.907	1487.5
2991.202	1533.5
2994.494	1543.5
2997.784	1571.5
3001.07	1595.5
3004.355	1623.5
3007.636	1651.5
3010.915	1685.5
3014.191	1712.5
3017.464	1711.5
3020.734	1725.5
3024.002	1738.5
3027.267	1743.5
3030.53	1754.5
3033.789	1784.5
3037.046	1804.5
3040.301	1826.5
3043.552	1876.5
3046.801	1918.5
3050.048	1934.5
3053.291	2000.5
3056.532	2069.5
3059.771	2139.5
3063.006	2203.5
3066.239	2226.5
3069.469	2323.5
3072.697	2380.5
3075.922	2413.5
3079.144	2498.5
3082.364	2552.5
3085.581	2607.5
3088.795	2676.5
3092.007	2723.5
3095.216	2771.5
3098.423	2831.5
3101.627	2892.5
3104.828	2948.5
3108.026	3011.5
3111.222	3101.5
3114.416	3149.5
3117.607	3231.5
3120.795	3295.5
3123.98	3372.5
3127.163	3502.5
3130.344	3550.5
3133.521	3650.5
3136.696	3728.5
3139.869	3805.5
3143.039	3871.5
3146.206	3920.5
3149.371	3983.5
3152.533	3995.5
3155.693	4039.5
3158.85	4058.5
3162.005	4062.5
3165.157	4055.5
3168.306	4092.5
3171.453	4089.5
3174.597	4130.5
3177.739	4146.5
3180.878	4113.5
3184.014	4137.5
3187.149	4153.5
3190.28	4146.5
3193.409	4139.5
3196.536	4153.5
3199.659	4160.5
3202.781	4155.5
3205.9	4177.5
3209.016	4132.5
3212.13	4123.5
3215.241	4143.5
3218.35	4063.5
3221.456	4034.5
3224.56	4011.5
3227.661	3984.5
3230.76	3923.5
3233.856	3863.5
3236.95	3829.5
3240.041	3781.5
3243.13	3762.5
3246.216	3749.5
3249.3	3730.5
3252.382	3703.5
3255.46	3717.5
3258.537	3696.5
3261.611	3707.5
3264.682	3674.5
3267.751	3669.5
3270.818	3666.5
3273.882	3660.5
3276.943	3634.5
3280.002	3604.5
3283.059	3571.5
3286.113	3515.5
3289.165	3476.5
3292.214	3436.5
3295.261	3363.5
3298.306	3313.5
3301.348	3267.5
3304.387	3219.5
3307.425	3176.5
3310.459	3120.5
3313.492	3082.5
3316.521	3028.5
3319.549	2988.5
3322.574	2980.5
3325.597	2959.5
3328.617	2948.5
3331.635	2927.5
3334.65	2894.5
3337.663	2876.5
3340.674	2831.5
3343.682	2848.5
3346.688	2846.5
3349.691	2800.5
3352.692	2787.5
3355.691	2791.5
3358.687	2745.5
3361.681	2726.5
3364.673	2689.5
3367.662	2655.5
3370.649	2608.5
3373.633	2566.5
3376.615	2551.5
3379.595	2493.5
3382.572	2466.5
3385.547	2441.5
3388.52	2395.5
3391.49	2344.5
3394.458	2324.5
3397.424	2300.5
3400.387	2268.5
3403.348	2237.5
3406.307	2203.5
3409.263	2161.5
3412.217	2154.5
3415.168	2117.5
3418.118	2108.5
3421.065	2087.5
3424.009	2045.5
3426.951	2014.5
3429.891	1958.5
3432.829	1942.5
3435.764	1893.5
3438.697	1814.5
3441.628	1790.5
3444.557	1743.5
3447.483	1704.5
3450.407	1640.5
3453.328	1557.5
3456.247	1502.5
3459.164	1479.5
3462.079	1413.5
3464.991	1362.5
3467.902	1323.5
3470.809	1272.5
3473.715	1204.5
3476.618	1194.5
3479.519	1147.5
3482.418	1110.5
3485.315	1051.5
3488.209	1016.5
3491.101	994.5
3493.99	967.5
3496.878	900.5
3499.763	870.5
3502.646	828.5
3505.527	805.5
3508.405	772.5
3511.281	716.5
3514.155	692.5
3517.027	628.5
3519.897	598.5
3522.764	557.5
3525.629	514.5
3528.492	469.5
3531.352	452.5
3534.211	396.5
3537.067	335.5
3539.921	315.5
3542.773	286.5
3545.622	254.5
3548.469	224.5
3551.315	189.5
3554.157	168.5
3556.998	132.5
3559.837	110.5
3562.673	95.5
3565.507	65.5
3568.339	52.5
3571.169	21.5
3573.996	-1.5
3576.822	-24.5
3579.645	-34.5
3582.466	-62.5
3585.285	-77.5
3588.101	-97.5
3590.916	-114.5
3593.728	-132.5
3596.538	-159.5
3599.346	-175.5
3602.152	-181.5
3604.956	-213.5
3607.757	-234.5
3610.556	-240.5
3613.354	-257.5
3616.149	-265.5
3618.942	-272.5
3621.732	-296.5
3624.521	-298.5
3627.307	-314.5
3630.092	-329.5
3632.874	-331.5
3635.654	-341.5
3638.432	-359.5
3641.208	-354.5
3643.982	-367.5
3646.753	-369.5
3649.523	-385.5
3652.29	-396.5
3655.055	-399.5
3657.818	-416.5
3660.579	-423.5
3663.338	-427.5
3666.095	-441.5
3668.849	-460.5
3671.602	-464.5
3674.352	-471.5
3677.101	-476.5
3679.847	-491.5
3682.591	-487.5
3685.333	-501.5
3688.073	-501.5
3690.811	-505.5
3693.547	-511.5
3696.281	-527.5
3699.013	-527.5
3701.742	-525.5
3704.47	-534.5
3707.195	-543.5
3709.919	-544.5
3712.64	-547.5
3715.359	-548.5
3718.076	-561.5
3720.792	-561.5
3723.505	-566.5
3726.216	-571.5
3728.925	-569.5
3731.632	-582.5
3734.336	-584.5
3737.039	-586.5
3739.74	-580.5
3742.439	-582.5
3745.136	-583.5
3747.83	-589.5
3750.523	-589.5
3753.213	-599.5
3755.902	-593.5
3758.589	-594.5
3761.273	-591.5
3763.956	-608.5
3766.636	-606.5
3769.315	-603.5
3771.991	-607.5
3774.665	-603.5
3777.338	-601.5
3780.008	-607.5
3782.677	-609.5
3785.343	-612.5
3788.007	-604.5
3790.67	-615.5
3793.33	-616.5
3795.989	-615.5
3798.645	-620.5
3801.299	-619.5
3803.952	-627.5
3806.602	-624.5
3809.251	-632.5
3811.897	-618.5
3814.542	-614.5
3817.184	-627.5
3819.825	-626.5
3822.463	-621.5
3825.1	-632.5
3827.735	-632.5
3830.367	-625.5
3832.998	-634.5
3835.627	-634.5
3838.253	-630.5
3840.878	-632.5
3843.501	-633.5
3846.122	-635.5
3848.741	-630.5
3851.358	-639.5
3853.973	-630.5
3856.586	-633.5
3859.197	-643.5
3861.806	-639.5
3864.414	-630.5
3867.019	-633.5
3869.622	-634.5
3872.224	-634.5
3874.823	-619.5
3877.421	-605.5
3880.016	-588.5
3882.61	-564.5
3885.202	-563.5
3887.792	-589.5
3890.38	-614.5
3892.966	-631.5
3895.55	-632.5
3898.132	-646.5
3900.713	-647.5
3903.291	-649.5
3905.868	-654.5
3908.442	-650.5
3911.015	-649.5
3913.586	-641.5
3916.155	-649.5
3918.722	-644.5
3921.287	-648.5
3923.85	-651.5
3926.411	-653.5
3928.971	-651.5
3931.528	-652.5
3934.084	-644.5
3936.638	-650.5
3939.19	-656.5
3941.74	-657.5
3944.288	-653.5
3946.834	-658.5
3949.378	-654.5
3951.921	-648.5
3954.462	-655.5
3957	-652.5
3959.537	-648.5
3962.072	-646.5
3964.606	-648.5
3967.137	-652.5
3969.667	-648.5
3972.194	-647.5
3974.72	-649.5
3977.244	-646.5
3979.766	-639.5
3982.286	-643.5
3984.805	-640.5
3987.321	-642.5
3989.836	-639.5
3992.349	-637.5
3994.86	-631.5
3997.369	-646.5
3999.877	-630.5
4002.382	-634.5
4004.886	-642.5
4007.388	-640.5
4009.888	-637.5
4012.386	-639.5
4014.883	-637.5
4017.377	-638.5
4019.87	-633.5
4022.361	-640.5
4024.85	-641.5
4027.338	-645.5
4029.823	-637.5
4032.307	-639.5
4034.789	-642.5
4037.269	-650.5
4039.747	-644.5
4042.224	-638.5
4044.699	-644.5
4047.172	-640.5
4049.643	-640.5
4052.112	-638.5
4054.58	-639.5
4057.046	-645.5
4059.51	-643.5
4061.972	-648.5
4064.432	-648.5
4066.891	-637.5
4069.348	-643.5
4071.803	-647.5
4074.256	-640.5
4076.708	-640.5
4079.158	-642.5
4081.606	-643.5
4084.052	-638.5
4086.497	-641.5
4088.939	-640.5
4091.38	-637.5
4093.819	-637.5
4096.257	-674.5
4098.693	-678.5
4101.127	-677.5
4103.559	-678.5
4105.989	-401.5
4108.418	-381.5
4110.845	-367.5
4113.27	-339.5
4115.694	-292.5
4118.115	-250.5
4120.535	-640.5
4122.954	-642.5
4125.37	-643.5
4127.785	-641.5
4130.198	-646.5
4132.609	-640.5
4135.019	-682.5
4137.427	-676.5
4139.833	-678.5
4142.237	-675.5
