Data from 2018-2-7_conc=2_RamanShift_33.txt Node
Date: Tue Feb 13 12:08:44 IST 2018
User: aro
Spectrometer: QEPB0276
Trigger mode: 0
Integration Time (sec): 3.000000E1
Scans to average: 1
Electric dark correction enabled: true
Nonlinearity correction enabled: false
Boxcar width: 0
XAxis mode: Raman Shifts
Number of Pixels in Spectrum: 1044
>>>>>Begin Spectral Data<<<<<
160.701	-158.2
166.742	19.8
172.777	589.8
178.805	2268.8
184.826	6154.8
190.841	12696.8
196.849	20105.8
202.85	25198.8
208.845	26758.8
214.833	26413.8
220.815	25931.8
226.789	25707.8
232.758	25541.8
238.719	25448.8
244.674	24962.8
250.623	24460.8
256.565	23907.8
262.5	23432.8
268.429	22986.8
274.351	22626.8
280.267	22239.8
286.176	21936.8
292.079	21722.8
297.975	21530.8
303.865	21319.8
309.748	21193.8
315.625	20969.8
321.495	20897.8
327.359	20771.8
333.217	20798.8
339.068	20721.8
344.912	20697.8
350.751	20698.8
356.583	20610.8
362.408	20672.8
368.227	20659.8
374.04	20634.8
379.847	20727.8
385.647	20757.8
391.44	20850.8
397.228	20952.8
403.009	21046.8
408.784	21132.8
414.553	21187.8
420.315	21278.8
426.071	21277.8
431.821	21235.8
437.565	21255.8
443.302	21173.8
449.033	21144.8
454.758	21077.8
460.477	21033.8
466.189	20987.8
471.896	20984.8
477.596	20872.8
483.29	20785.8
488.978	20808.8
494.66	20664.8
500.335	20562.8
506.005	20329.8
511.668	20101.8
517.325	19872.8
522.977	19726.8
528.622	19532.8
534.261	19396.8
539.894	19339.8
545.521	19250.8
551.141	19169.8
556.756	19120.8
562.365	19022.8
567.968	18981.8
573.565	18888.8
579.155	18805.8
584.74	18759.8
590.319	18658.8
595.892	18619.8
601.459	18494.8
607.02	18478.8
612.575	18243.8
618.124	18234.8
623.667	18097.8
629.204	18004.8
634.735	17930.8
640.261	17909.8
645.781	17840.8
651.294	17768.8
656.802	17771.8
662.304	17701.8
667.8	17675.8
673.29	17628.8
678.775	17608.8
684.254	17555.8
689.726	17518.8
695.193	17461.8
700.655	17319.8
706.11	17285.8
711.56	17191.8
717.004	17099.8
722.442	17013.8
727.874	16909.8
733.301	16905.8
738.722	16915.8
744.137	16801.8
749.547	16775.8
754.951	16786.8
760.349	16823.8
765.741	16834.8
771.128	16863.8
776.509	16876.8
781.885	16836.8
787.254	16813.8
792.618	16716.8
797.977	16577.8
803.33	16504.8
808.677	16395.8
814.019	16313.8
819.355	16212.8
824.686	16155.8
830.011	16096.8
835.33	16186.8
840.644	16147.8
845.952	16180.8
851.255	16220.8
856.552	16274.8
861.844	16222.8
867.13	16134.8
872.41	16056.8
877.686	15953.8
882.955	15868.8
888.219	15712.8
893.478	15572.8
898.731	15318.8
903.979	15225.8
909.221	15064.8
914.458	15057.8
919.69	15014.8
924.916	15075.8
930.136	15098.8
935.351	15144.8
940.561	15123.8
945.766	15135.8
950.965	14991.8
956.158	14938.8
961.347	14674.8
966.529	14585.8
971.707	14393.8
976.879	14212.8
982.046	14115.8
987.208	14096.8
992.364	14069.8
997.515	14193.8
1002.66	14309.8
1007.801	14455.8
1012.936	14486.8
1018.066	14547.8
1023.19	14571.8
1028.309	14581.8
1033.423	14489.8
1038.532	14401.8
1043.636	14296.8
1048.734	14105.8
1053.827	13933.8
1058.915	13787.8
1063.998	13733.8
1069.075	13637.8
1074.147	13645.8
1079.214	13771.8
1084.276	13800.8
1089.333	13901.8
1094.385	13985.8
1099.431	13965.8
1104.472	13990.8
1109.509	13853.8
1114.54	13752.8
1119.565	13586.8
1124.586	13414.8
1129.602	13225.8
1134.613	13150.8
1139.618	13088.8
1144.619	13040.8
1149.614	13097.8
1154.604	13112.8
1159.589	13123.8
1164.57	13163.8
1169.545	13142.8
1174.515	13175.8
1179.48	13110.8
1184.44	13043.8
1189.395	12927.8
1194.345	12788.8
1199.29	12790.8
1204.23	12760.8
1209.165	12812.8
1214.095	12886.8
1219.021	12936.8
1223.941	13000.8
1228.856	13040.8
1233.766	13075.8
1238.672	13098.8
1243.572	13159.8
1248.467	13009.8
1253.358	12869.8
1258.244	12724.8
1263.124	12443.8
1268	12301.8
1272.871	12144.8
1277.737	12073.8
1282.599	12033.8
1287.455	12017.8
1292.306	12039.8
1297.153	12086.8
1301.995	12127.8
1306.832	12142.8
1311.664	12115.8
1316.491	12089.8
1321.314	12009.8
1326.132	11799.8
1330.945	11593.8
1335.753	11281.8
1340.556	10948.8
1345.354	10798.8
1350.148	10665.8
1354.937	10566.8
1359.722	10609.8
1364.501	10670.8
1369.276	10793.8
1374.046	10903.8
1378.811	11073.8
1383.572	11190.8
1388.327	11139.8
1393.079	11108.8
1397.825	10978.8
1402.567	10799.8
1407.304	10675.8
1412.036	10614.8
1416.764	10495.8
1421.487	10467.8
1426.205	10387.8
1430.919	10322.8
1435.628	10342.8
1440.333	10311.8
1445.032	10377.8
1449.727	10474.8
1454.418	10385.8
1459.104	10258.8
1463.785	10100.8
1468.462	9838.8
1473.134	9686.8
1477.802	9452.8
1482.465	9353.8
1487.123	9249.8
1491.777	9201.8
1496.426	9271.8
1501.071	9379.8
1505.711	9570.8
1510.347	9717.8
1514.978	9886.8
1519.604	10012.8
1524.226	10081.8
1528.844	10086.8
1533.457	10048.8
1538.065	9978.8
1542.669	9913.8
1547.269	9851.8
1551.864	9836.8
1556.454	9800.8
1561.041	9798.8
1565.622	9777.8
1570.199	9763.8
1574.772	9855.8
1579.34	9912.8
1583.904	9938.8
1588.464	10004.8
1593.019	10024.8
1597.569	9966.8
1602.115	9938.8
1606.657	9850.8
1611.195	9824.8
1615.728	9793.8
1620.256	9723.8
1624.78	9686.8
1629.3	9740.8
1633.816	9789.8
1638.327	9817.8
1642.834	9860.8
1647.336	9896.8
1651.834	9899.8
1656.328	9908.8
1660.817	9868.8
1665.302	9755.8
1669.783	9607.8
1674.259	9370.8
1678.732	9079.8
1683.199	8736.8
1687.663	8485.8
1692.122	8287.8
1696.577	8130.8
1701.028	8126.8
1705.474	8204.8
1709.917	8228.8
1714.355	8208.8
1718.788	8128.8
1723.218	7996.8
1727.643	7871.8
1732.064	7705.8
1736.481	7559.8
1740.893	7323.8
1745.301	7158.8
1749.705	6952.8
1754.105	6747.8
1758.501	6563.8
1762.893	6374.8
1767.28	6211.8
1771.663	6109.8
1776.042	5987.8
1780.417	5969.8
1784.787	5984.8
1789.154	6060.8
1793.516	6167.8
1797.874	6274.8
1802.228	6381.8
1806.578	6436.8
1810.924	6424.8
1815.266	6352.8
1819.603	6228.8
1823.937	6176.8
1828.266	6044.8
1832.591	5964.8
1836.913	5872.8
1841.23	5845.8
1845.543	5778.8
1849.852	5751.8
1854.156	5760.8
1858.457	5723.8
1862.754	5723.8
1867.047	5712.8
1871.335	5715.8
1875.62	5685.8
1879.9	5693.8
1884.177	5660.8
1888.449	5606.8
1892.718	5551.8
1896.982	5463.8
1901.243	5437.8
1905.499	5398.8
1909.752	5394.8
1914	5397.8
1918.245	5422.8
1922.485	5472.8
1926.722	5546.8
1930.954	5583.8
1935.183	5638.8
1939.408	5676.8
1943.628	5729.8
1947.845	5745.8
1952.058	5721.8
1956.267	5635.8
1960.472	5597.8
1964.673	5495.8
1968.87	5398.8
1973.063	5342.8
1977.252	5273.8
1981.438	5210.8
1985.619	5186.8
1989.797	5140.8
1993.971	5097.8
1998.14	5053.8
2002.306	5036.8
2006.469	5053.8
2010.627	4983.8
2014.781	4996.8
2018.932	4917.8
2023.078	4900.8
2027.221	4823.8
2031.36	4715.8
2035.495	4643.8
2039.627	4623.8
2043.754	4533.8
2047.878	4532.8
2051.998	4490.8
2056.114	4498.8
2060.226	4473.8
2064.334	4450.8
2068.439	4508.8
2072.54	4514.8
2076.637	4576.8
2080.73	4579.8
2084.82	4585.8
2088.906	4638.8
2092.988	4626.8
2097.066	4652.8
2101.14	4589.8
2105.211	4573.8
2109.278	4513.8
2113.342	4509.8
2117.401	4448.8
2121.457	4436.8
2125.509	4403.8
2129.558	4377.8
2133.602	4373.8
2137.643	4330.8
2141.681	4350.8
2145.714	4293.8
2149.744	4278.8
2153.77	4245.8
2157.793	4178.8
2161.812	4129.8
2165.827	4080.8
2169.838	4046.8
2173.846	3948.8
2177.851	3884.8
2181.851	3832.8
2185.848	3791.8
2189.841	3766.8
2193.831	3724.8
2197.817	3665.8
2201.799	3662.8
2205.778	3650.8
2209.753	3619.8
2213.725	3607.8
2217.693	3598.8
2221.657	3611.8
2225.618	3595.8
2229.575	3574.8
2233.529	3542.8
2237.479	3475.8
2241.425	3446.8
2245.368	3415.8
2249.307	3351.8
2253.243	3324.8
2257.175	3271.8
2261.104	3243.8
2265.029	3203.8
2268.95	3153.8
2272.868	3142.8
2276.783	3098.8
2280.694	3055.8
2284.601	3038.8
2288.505	3013.8
2292.405	2954.8
2296.302	2941.8
2300.195	2900.8
2304.085	2867.8
2307.971	2818.8
2311.854	2801.8
2315.734	2760.8
2319.609	2703.8
2323.482	2656.8
2327.351	2631.8
2331.216	2628.8
2335.078	2620.8
2338.937	2584.8
2342.792	2573.8
2346.643	2591.8
2350.492	2577.8
2354.336	2581.8
2358.178	2582.8
2362.015	2583.8
2365.85	2590.8
2369.681	2588.8
2373.508	2591.8
2377.333	2566.8
2381.153	2560.8
2384.971	2572.8
2388.785	2541.8
2392.595	2525.8
2396.402	2489.8
2400.206	2488.8
2404.007	2445.8
2407.804	2440.8
2411.597	2427.8
2415.388	2406.8
2419.174	2381.8
2422.958	2392.8
2426.738	2349.8
2430.515	2319.8
2434.289	2321.8
2438.059	2300.8
2441.825	2299.8
2445.589	2257.8
2449.349	2241.8
2453.106	2202.8
2456.859	2161.8
2460.61	2140.8
2464.356	2139.8
2468.1	2102.8
2471.84	2065.8
2475.577	2043.8
2479.311	2032.8
2483.041	2036.8
2486.768	2043.8
2490.492	2010.8
2494.213	2004.8
2497.93	2009.8
2501.644	2007.8
2505.355	1983.8
2509.062	1972.8
2512.766	1962.8
2516.467	1954.8
2520.165	1962.8
2523.859	1921.8
2527.551	1888.8
2531.239	1904.8
2534.923	1891.8
2538.605	1863.8
2542.283	1885.8
2545.958	1893.8
2549.63	1845.8
2553.299	1887.8
2556.964	1853.8
2560.626	1883.8
2564.285	1853.8
2567.941	1852.8
2571.594	1828.8
2575.243	1827.8
2578.89	1801.8
2582.533	1777.8
2586.173	1773.8
2589.809	1756.8
2593.443	1746.8
2597.073	1716.8
2600.701	1706.8
2604.325	1696.8
2607.946	1699.8
2611.564	1680.8
2615.178	1690.8
2618.79	1666.8
2622.398	1627.8
2626.004	1616.8
2629.606	1597.8
2633.205	1562.8
2636.801	1552.8
2640.394	1523.8
2643.983	1505.8
2647.57	1486.8
2651.153	1473.8
2654.734	1453.8
2658.311	1427.8
2661.885	1408.8
2665.456	1390.8
2669.025	1371.8
2672.589	1369.8
2676.151	1327.8
2679.71	1327.8
2683.266	1303.8
2686.819	1274.8
2690.368	1230.8
2693.915	1254.8
2697.458	1206.8
2700.999	1167.8
2704.536	1153.8
2708.071	1110.8
2711.602	1099.8
2715.13	1079.8
2718.656	1058.8
2722.178	1036.8
2725.697	1020.8
2729.214	1000.8
2732.727	987.8
2736.237	994.8
2739.744	999.8
2743.249	1000.8
2746.75	1002.8
2750.248	1010.8
2753.743	1033.8
2757.236	1056.8
2760.725	1056.8
2764.211	1054.8
2767.695	1067.8
2771.175	1054.8
2774.652	1042.8
2778.127	1041.8
2781.598	1046.8
2785.067	1044.8
2788.532	1023.8
2791.995	1007.8
2795.455	1034.8
2798.911	1040.8
2802.365	1035.8
2805.816	1028.8
2809.264	1033.8
2812.709	1021.8
2816.151	1023.8
2819.59	1020.8
2823.026	1033.8
2826.46	1038.8
2829.89	1045.8
2833.318	1027.8
2836.742	1026.8
2840.164	1057.8
2843.583	1031.8
2846.999	1079.8
2850.412	1068.8
2853.822	1092.8
2857.229	1079.8
2860.634	1109.8
2864.035	1135.8
2867.434	1157.8
2870.83	1167.8
2874.223	1191.8
2877.613	1197.8
2881	1239.8
2884.385	1243.8
2887.766	1233.8
2891.145	1235.8
2894.521	1214.8
2897.894	1233.8
2901.264	1241.8
2904.631	1225.8
2907.996	1247.8
2911.358	1233.8
2914.717	1261.8
2918.073	1276.8
2921.426	1273.8
2924.777	1288.8
2928.124	1333.8
2931.469	1334.8
2934.811	1378.8
2938.15	1390.8
2941.487	1394.8
2944.821	1394.8
2948.152	1428.8
2951.48	1387.8
2954.805	1382.8
2958.128	1370.8
2961.447	1365.8
2964.765	1357.8
2968.079	1352.8
2971.39	1360.8
2974.699	1392.8
2978.005	1428.8
2981.308	1428.8
2984.609	1456.8
2987.907	1485.8
2991.202	1515.8
2994.494	1522.8
2997.784	1559.8
3001.07	1609.8
3004.355	1603.8
3007.636	1641.8
3010.915	1653.8
3014.191	1678.8
3017.464	1670.8
3020.734	1698.8
3024.002	1714.8
3027.267	1722.8
3030.53	1719.8
3033.789	1775.8
3037.046	1773.8
3040.301	1788.8
3043.552	1836.8
3046.801	1870.8
3050.048	1944.8
3053.291	1960.8
3056.532	2025.8
3059.771	2089.8
3063.006	2137.8
3066.239	2216.8
3069.469	2269.8
3072.697	2363.8
3075.922	2395.8
3079.144	2450.8
3082.364	2505.8
3085.581	2552.8
3088.795	2612.8
3092.007	2678.8
3095.216	2714.8
3098.423	2775.8
3101.627	2859.8
3104.828	2900.8
3108.026	2982.8
3111.222	3029.8
3114.416	3104.8
3117.607	3165.8
3120.795	3253.8
3123.98	3324.8
3127.163	3397.8
3130.344	3456.8
3133.521	3559.8
3136.696	3610.8
3139.869	3710.8
3143.039	3775.8
3146.206	3846.8
3149.371	3878.8
3152.533	3931.8
3155.693	3945.8
3158.85	3965.8
3162.005	3963.8
3165.157	4015.8
3168.306	3982.8
3171.453	4041.8
3174.597	4037.8
3177.739	4032.8
3180.878	4043.8
3184.014	4041.8
3187.149	4043.8
3190.28	4069.8
3193.409	4032.8
3196.536	4071.8
3199.659	4119.8
3202.781	4091.8
3205.9	4076.8
3209.016	4065.8
3212.13	4061.8
3215.241	4022.8
3218.35	3988.8
3221.456	3927.8
3224.56	3892.8
3227.661	3887.8
3230.76	3834.8
3233.856	3786.8
3236.95	3749.8
3240.041	3719.8
3243.13	3693.8
3246.216	3674.8
3249.3	3630.8
3252.382	3601.8
3255.46	3604.8
3258.537	3610.8
3261.611	3602.8
3264.682	3609.8
3267.751	3582.8
3270.818	3587.8
3273.882	3574.8
3276.943	3541.8
3280.002	3524.8
3283.059	3478.8
3286.113	3471.8
3289.165	3421.8
3292.214	3344.8
3295.261	3325.8
3298.306	3240.8
3301.348	3225.8
3304.387	3129.8
3307.425	3096.8
3310.459	3064.8
3313.492	3023.8
3316.521	2972.8
3319.549	2921.8
3322.574	2892.8
3325.597	2884.8
3328.617	2875.8
3331.635	2832.8
3334.65	2830.8
3337.663	2831.8
3340.674	2819.8
3343.682	2804.8
3346.688	2784.8
3349.691	2777.8
3352.692	2760.8
3355.691	2745.8
3358.687	2720.8
3361.681	2668.8
3364.673	2655.8
3367.662	2610.8
3370.649	2565.8
3373.633	2552.8
3376.615	2496.8
3379.595	2491.8
3382.572	2430.8
3385.547	2403.8
3388.52	2363.8
3391.49	2310.8
3394.458	2280.8
3397.424	2254.8
3400.387	2220.8
3403.348	2194.8
3406.307	2173.8
3409.263	2155.8
3412.217	2107.8
3415.168	2093.8
3418.118	2074.8
3421.065	2038.8
3424.009	2009.8
3426.951	1982.8
3429.891	1945.8
3432.829	1886.8
3435.764	1853.8
3438.697	1799.8
3441.628	1772.8
3444.557	1689.8
3447.483	1684.8
3450.407	1591.8
3453.328	1571.8
3456.247	1498.8
3459.164	1423.8
3462.079	1369.8
3464.991	1324.8
3467.902	1275.8
3470.809	1235.8
3473.715	1193.8
3476.618	1153.8
3479.519	1111.8
3482.418	1063.8
3485.315	1039.8
3488.209	996.8
3491.101	962.8
3493.99	912.8
3496.878	882.8
3499.763	850.8
3502.646	825.8
3505.527	790.8
3508.405	735.8
3511.281	686.8
3514.155	667.8
3517.027	624.8
3519.897	574.8
3522.764	544.8
3525.629	498.8
3528.492	462.8
3531.352	393.8
3534.211	379.8
3537.067	335.8
3539.921	300.8
3542.773	274.8
3545.622	224.8
3548.469	207.8
3551.315	159.8
3554.157	139.8
3556.998	118.8
3559.837	98.8
3562.673	76.8
3565.507	65.8
3568.339	32.8
3571.169	8.8
3573.996	-14.2
3576.822	-28.2
3579.645	-52.2
3582.466	-74.2
3585.285	-100.2
3588.101	-109.2
3590.916	-138.2
3593.728	-155.2
3596.538	-160.2
3599.346	-189.2
3602.152	-202.2
3604.956	-212.2
3607.757	-231.2
3610.556	-248.2
3613.354	-259.2
3616.149	-274.2
3618.942	-287.2
3621.732	-298.2
3624.521	-318.2
3627.307	-325.2
3630.092	-334.2
3632.874	-349.2
3635.654	-354.2
3638.432	-368.2
3641.208	-369.2
3643.982	-377.2
3646.753	-380.2
3649.523	-394.2
3652.29	-407.2
3655.055	-414.2
3657.818	-417.2
3660.579	-433.2
3663.338	-436.2
3666.095	-451.2
3668.849	-468.2
3671.602	-472.2
3674.352	-473.2
3677.101	-493.2
3679.847	-493.2
3682.591	-489.2
3685.333	-506.2
3688.073	-511.2
3690.811	-517.2
3693.547	-516.2
3696.281	-524.2
3699.013	-529.2
3701.742	-540.2
3704.47	-542.2
3707.195	-548.2
3709.919	-549.2
3712.64	-553.2
3715.359	-560.2
3718.076	-560.2
3720.792	-567.2
3723.505	-563.2
3726.216	-573.2
3728.925	-575.2
3731.632	-576.2
3734.336	-587.2
3737.039	-592.2
3739.74	-587.2
3742.439	-583.2
3745.136	-594.2
3747.83	-595.2
3750.523	-596.2
3753.213	-606.2
3755.902	-597.2
3758.589	-593.2
3761.273	-597.2
3763.956	-603.2
3766.636	-606.2
3769.315	-605.2
3771.991	-611.2
3774.665	-614.2
3777.338	-610.2
3780.008	-609.2
3782.677	-615.2
3785.343	-622.2
3788.007	-604.2
3790.67	-622.2
3793.33	-625.2
3795.989	-627.2
3798.645	-628.2
3801.299	-626.2
3803.952	-621.2
3806.602	-626.2
3809.251	-633.2
3811.897	-627.2
3814.542	-625.2
3817.184	-630.2
3819.825	-632.2
3822.463	-622.2
3825.1	-637.2
3827.735	-638.2
3830.367	-636.2
3832.998	-638.2
3835.627	-639.2
3838.253	-638.2
3840.878	-640.2
3843.501	-638.2
3846.122	-638.2
3848.741	-636.2
3851.358	-642.2
3853.973	-639.2
3856.586	-639.2
3859.197	-639.2
3861.806	-641.2
3864.414	-638.2
3867.019	-634.2
3869.622	-639.2
3872.224	-631.2
3874.823	-625.2
3877.421	-606.2
3880.016	-595.2
3882.61	-558.2
3885.202	-562.2
3887.792	-582.2
3890.38	-610.2
3892.966	-624.2
3895.55	-635.2
3898.132	-642.2
3900.713	-649.2
3903.291	-652.2
3905.868	-654.2
3908.442	-650.2
3911.015	-652.2
3913.586	-649.2
3916.155	-656.2
3918.722	-653.2
3921.287	-653.2
3923.85	-654.2
3926.411	-656.2
3928.971	-652.2
3931.528	-657.2
3934.084	-649.2
3936.638	-657.2
3939.19	-658.2
3941.74	-660.2
3944.288	-657.2
3946.834	-661.2
3949.378	-659.2
3951.921	-657.2
3954.462	-658.2
3957	-657.2
3959.537	-650.2
3962.072	-653.2
3964.606	-651.2
3967.137	-654.2
3969.667	-653.2
3972.194	-653.2
3974.72	-654.2
3977.244	-646.2
3979.766	-645.2
3982.286	-643.2
3984.805	-637.2
3987.321	-638.2
3989.836	-642.2
3992.349	-640.2
3994.86	-642.2
3997.369	-649.2
3999.877	-644.2
4002.382	-641.2
4004.886	-645.2
4007.388	-642.2
4009.888	-642.2
4012.386	-640.2
4014.883	-645.2
4017.377	-643.2
4019.87	-639.2
4022.361	-641.2
4024.85	-646.2
4027.338	-649.2
4029.823	-642.2
4032.307	-647.2
4034.789	-645.2
4037.269	-650.2
4039.747	-649.2
4042.224	-650.2
4044.699	-646.2
4047.172	-653.2
4049.643	-645.2
4052.112	-649.2
4054.58	-639.2
4057.046	-649.2
4059.51	-650.2
4061.972	-652.2
4064.432	-644.2
4066.891	-643.2
4069.348	-645.2
4071.803	-648.2
4074.256	-643.2
4076.708	-643.2
4079.158	-647.2
4081.606	-640.2
4084.052	-645.2
4086.497	-645.2
4088.939	-642.2
4091.38	-637.2
4093.819	-641.2
4096.257	-678.2
4098.693	-679.2
4101.127	-679.2
4103.559	-683.2
4105.989	-411.2
4108.418	-387.2
4110.845	-368.2
4113.27	-350.2
4115.694	-305.2
4118.115	-254.2
4120.535	-640.2
4122.954	-654.2
4125.37	-648.2
4127.785	-647.2
4130.198	-648.2
4132.609	-641.2
4135.019	-686.2
4137.427	-680.2
4139.833	-677.2
4142.237	-676.2
