Data from 2018-2-7_conc=2_RamanShift_31.txt Node
Date: Tue Feb 13 12:06:44 IST 2018
User: aro
Spectrometer: QEPB0276
Trigger mode: 0
Integration Time (sec): 3.000000E1
Scans to average: 1
Electric dark correction enabled: true
Nonlinearity correction enabled: false
Boxcar width: 0
XAxis mode: Raman Shifts
Number of Pixels in Spectrum: 1044
>>>>>Begin Spectral Data<<<<<
160.701	-150.4
166.742	24.6
172.777	556.6
178.805	2112.6
184.826	5779.6
190.841	11838.6
196.849	18808.6
202.85	23574.6
208.845	25080.6
214.833	24853.6
220.815	24434.6
226.789	24156.6
232.758	24140.6
238.719	23939.6
244.674	23602.6
250.623	23200.6
256.565	22705.6
262.5	22211.6
268.429	21801.6
274.351	21496.6
280.267	21170.6
286.176	20931.6
292.079	20770.6
297.975	20540.6
303.865	20380.6
309.748	20229.6
315.625	20123.6
321.495	19993.6
327.359	19917.6
333.217	19898.6
339.068	19936.6
344.912	19766.6
350.751	19802.6
356.583	19767.6
362.408	19765.6
368.227	19792.6
374.04	19772.6
379.847	19850.6
385.647	19903.6
391.44	19973.6
397.228	19998.6
403.009	20146.6
408.784	20217.6
414.553	20285.6
420.315	20315.6
426.071	20307.6
431.821	20302.6
437.565	20276.6
443.302	20263.6
449.033	20229.6
454.758	20204.6
460.477	20137.6
466.189	20136.6
471.896	20101.6
477.596	20007.6
483.29	20014.6
488.978	19987.6
494.66	19844.6
500.335	19709.6
506.005	19580.6
511.668	19335.6
517.325	19150.6
522.977	18977.6
528.622	18834.6
534.261	18679.6
539.894	18646.6
545.521	18528.6
551.141	18489.6
556.756	18472.6
562.365	18321.6
567.968	18217.6
573.565	18235.6
579.155	18158.6
584.74	18070.6
590.319	18010.6
595.892	17989.6
601.459	17869.6
607.02	17816.6
612.575	17658.6
618.124	17556.6
623.667	17437.6
629.204	17378.6
634.735	17296.6
640.261	17271.6
645.781	17192.6
651.294	17152.6
656.802	17168.6
662.304	17118.6
667.8	17040.6
673.29	17014.6
678.775	16975.6
684.254	16940.6
689.726	16919.6
695.193	16832.6
700.655	16720.6
706.11	16699.6
711.56	16575.6
717.004	16480.6
722.442	16445.6
727.874	16391.6
733.301	16295.6
738.722	16292.6
744.137	16236.6
749.547	16227.6
754.951	16236.6
760.349	16249.6
765.741	16255.6
771.128	16223.6
776.509	16247.6
781.885	16283.6
787.254	16199.6
792.618	16136.6
797.977	16069.6
803.33	15942.6
808.677	15815.6
814.019	15738.6
819.355	15674.6
824.686	15568.6
830.011	15574.6
835.33	15569.6
840.644	15579.6
845.952	15625.6
851.255	15667.6
856.552	15691.6
861.844	15649.6
867.13	15584.6
872.41	15564.6
877.686	15475.6
882.955	15271.6
888.219	15259.6
893.478	15049.6
898.731	14877.6
903.979	14738.6
909.221	14595.6
914.458	14527.6
919.69	14556.6
924.916	14553.6
930.136	14651.6
935.351	14601.6
940.561	14642.6
945.766	14620.6
950.965	14556.6
956.158	14456.6
961.347	14297.6
966.529	14083.6
971.707	13926.6
976.879	13755.6
982.046	13636.6
987.208	13609.6
992.364	13643.6
997.515	13661.6
1002.66	13857.6
1007.801	13973.6
1012.936	14080.6
1018.066	14050.6
1023.19	14073.6
1028.309	14073.6
1033.423	14066.6
1038.532	13921.6
1043.636	13801.6
1048.734	13573.6
1053.827	13495.6
1058.915	13278.6
1063.998	13219.6
1069.075	13193.6
1074.147	13221.6
1079.214	13281.6
1084.276	13313.6
1089.333	13436.6
1094.385	13467.6
1099.431	13472.6
1104.472	13506.6
1109.509	13380.6
1114.54	13266.6
1119.565	13086.6
1124.586	12932.6
1129.602	12821.6
1134.613	12723.6
1139.618	12641.6
1144.619	12574.6
1149.614	12620.6
1154.604	12616.6
1159.589	12704.6
1164.57	12692.6
1169.545	12762.6
1174.515	12727.6
1179.48	12665.6
1184.44	12542.6
1189.395	12486.6
1194.345	12349.6
1199.29	12296.6
1204.23	12296.6
1209.165	12384.6
1214.095	12402.6
1219.021	12456.6
1223.941	12545.6
1228.856	12613.6
1233.766	12620.6
1238.672	12649.6
1243.572	12634.6
1248.467	12555.6
1253.358	12378.6
1258.244	12222.6
1263.124	12026.6
1268	11851.6
1272.871	11747.6
1277.737	11634.6
1282.599	11586.6
1287.455	11632.6
1292.306	11636.6
1297.153	11645.6
1301.995	11702.6
1306.832	11691.6
1311.664	11684.6
1316.491	11679.6
1321.314	11555.6
1326.132	11429.6
1330.945	11133.6
1335.753	10886.6
1340.556	10660.6
1345.354	10443.6
1350.148	10249.6
1354.937	10171.6
1359.722	10155.6
1364.501	10212.6
1369.276	10276.6
1374.046	10377.6
1378.811	10538.6
1383.572	10653.6
1388.327	10649.6
1393.079	10634.6
1397.825	10524.6
1402.567	10355.6
1407.304	10261.6
1412.036	10142.6
1416.764	10073.6
1421.487	10016.6
1426.205	9945.6
1430.919	9920.6
1435.628	9917.6
1440.333	9947.6
1445.032	9939.6
1449.727	10020.6
1454.418	9966.6
1459.104	9847.6
1463.785	9665.6
1468.462	9467.6
1473.134	9230.6
1477.802	9085.6
1482.465	8897.6
1487.123	8806.6
1491.777	8810.6
1496.426	8824.6
1501.071	8902.6
1505.711	9004.6
1510.347	9123.6
1514.978	9311.6
1519.604	9406.6
1524.226	9513.6
1528.844	9553.6
1533.457	9501.6
1538.065	9474.6
1542.669	9398.6
1547.269	9327.6
1551.864	9356.6
1556.454	9283.6
1561.041	9339.6
1565.622	9304.6
1570.199	9299.6
1574.772	9376.6
1579.34	9439.6
1583.904	9445.6
1588.464	9508.6
1593.019	9525.6
1597.569	9463.6
1602.115	9408.6
1606.657	9339.6
1611.195	9287.6
1615.728	9260.6
1620.256	9238.6
1624.78	9202.6
1629.3	9232.6
1633.816	9225.6
1638.327	9298.6
1642.834	9319.6
1647.336	9355.6
1651.834	9379.6
1656.328	9333.6
1660.817	9263.6
1665.302	9197.6
1669.783	9004.6
1674.259	8788.6
1678.732	8538.6
1683.199	8230.6
1687.663	7965.6
1692.122	7744.6
1696.577	7572.6
1701.028	7545.6
1705.474	7597.6
1709.917	7630.6
1714.355	7662.6
1718.788	7629.6
1723.218	7502.6
1727.643	7375.6
1732.064	7261.6
1736.481	7085.6
1740.893	6946.6
1745.301	6723.6
1749.705	6591.6
1754.105	6381.6
1758.501	6196.6
1762.893	6002.6
1767.28	5869.6
1771.663	5750.6
1776.042	5657.6
1780.417	5613.6
1784.787	5605.6
1789.154	5646.6
1793.516	5755.6
1797.874	5830.6
1802.228	5917.6
1806.578	5979.6
1810.924	5986.6
1815.266	5956.6
1819.603	5842.6
1823.937	5782.6
1828.266	5703.6
1832.591	5607.6
1836.913	5535.6
1841.23	5489.6
1845.543	5443.6
1849.852	5366.6
1854.156	5401.6
1858.457	5371.6
1862.754	5419.6
1867.047	5350.6
1871.335	5351.6
1875.62	5360.6
1879.9	5336.6
1884.177	5296.6
1888.449	5226.6
1892.718	5168.6
1896.982	5127.6
1901.243	5071.6
1905.499	5014.6
1909.752	5005.6
1914	5003.6
1918.245	5018.6
1922.485	5046.6
1926.722	5082.6
1930.954	5142.6
1935.183	5193.6
1939.408	5254.6
1943.628	5275.6
1947.845	5314.6
1952.058	5250.6
1956.267	5231.6
1960.472	5164.6
1964.673	5088.6
1968.87	5016.6
1973.063	4938.6
1977.252	4858.6
1981.438	4851.6
1985.619	4808.6
1989.797	4764.6
1993.971	4720.6
1998.14	4717.6
2002.306	4704.6
2006.469	4689.6
2010.627	4652.6
2014.781	4648.6
2018.932	4591.6
2023.078	4550.6
2027.221	4469.6
2031.36	4405.6
2035.495	4336.6
2039.627	4289.6
2043.754	4234.6
2047.878	4167.6
2051.998	4156.6
2056.114	4172.6
2060.226	4150.6
2064.334	4151.6
2068.439	4157.6
2072.54	4159.6
2076.637	4210.6
2080.73	4223.6
2084.82	4222.6
2088.906	4252.6
2092.988	4246.6
2097.066	4241.6
2101.14	4222.6
2105.211	4181.6
2109.278	4157.6
2113.342	4146.6
2117.401	4109.6
2121.457	4097.6
2125.509	4060.6
2129.558	4078.6
2133.602	4028.6
2137.643	4000.6
2141.681	3980.6
2145.714	3985.6
2149.744	3947.6
2153.77	3919.6
2157.793	3884.6
2161.812	3848.6
2165.827	3783.6
2169.838	3727.6
2173.846	3651.6
2177.851	3594.6
2181.851	3571.6
2185.848	3511.6
2189.841	3471.6
2193.831	3424.6
2197.817	3399.6
2201.799	3376.6
2205.778	3381.6
2209.753	3354.6
2213.725	3368.6
2217.693	3321.6
2221.657	3353.6
2225.618	3324.6
2229.575	3355.6
2233.529	3288.6
2237.479	3243.6
2241.425	3204.6
2245.368	3158.6
2249.307	3154.6
2253.243	3086.6
2257.175	3043.6
2261.104	2999.6
2265.029	2964.6
2268.95	2949.6
2272.868	2897.6
2276.783	2886.6
2280.694	2859.6
2284.601	2834.6
2288.505	2789.6
2292.405	2742.6
2296.302	2728.6
2300.195	2700.6
2304.085	2658.6
2307.971	2628.6
2311.854	2609.6
2315.734	2570.6
2319.609	2526.6
2323.482	2490.6
2327.351	2459.6
2331.216	2462.6
2335.078	2450.6
2338.937	2438.6
2342.792	2414.6
2346.643	2407.6
2350.492	2417.6
2354.336	2427.6
2358.178	2415.6
2362.015	2429.6
2365.85	2433.6
2369.681	2432.6
2373.508	2409.6
2377.333	2451.6
2381.153	2419.6
2384.971	2428.6
2388.785	2410.6
2392.595	2380.6
2396.402	2359.6
2400.206	2334.6
2404.007	2328.6
2407.804	2307.6
2411.597	2272.6
2415.388	2269.6
2419.174	2249.6
2422.958	2262.6
2426.738	2226.6
2430.515	2209.6
2434.289	2215.6
2438.059	2169.6
2441.825	2176.6
2445.589	2128.6
2449.349	2097.6
2453.106	2082.6
2456.859	2065.6
2460.61	2022.6
2464.356	2011.6
2468.1	1991.6
2471.84	1963.6
2475.577	1950.6
2479.311	1954.6
2483.041	1919.6
2486.768	1903.6
2490.492	1878.6
2494.213	1896.6
2497.93	1884.6
2501.644	1884.6
2505.355	1875.6
2509.062	1866.6
2512.766	1841.6
2516.467	1843.6
2520.165	1819.6
2523.859	1804.6
2527.551	1796.6
2531.239	1777.6
2534.923	1769.6
2538.605	1767.6
2542.283	1739.6
2545.958	1738.6
2549.63	1731.6
2553.299	1730.6
2556.964	1743.6
2560.626	1723.6
2564.285	1716.6
2567.941	1716.6
2571.594	1687.6
2575.243	1694.6
2578.89	1666.6
2582.533	1679.6
2586.173	1651.6
2589.809	1627.6
2593.443	1632.6
2597.073	1610.6
2600.701	1597.6
2604.325	1576.6
2607.946	1580.6
2611.564	1552.6
2615.178	1560.6
2618.79	1552.6
2622.398	1528.6
2626.004	1521.6
2629.606	1513.6
2633.205	1489.6
2636.801	1457.6
2640.394	1459.6
2643.983	1417.6
2647.57	1389.6
2651.153	1375.6
2654.734	1364.6
2658.311	1328.6
2661.885	1316.6
2665.456	1306.6
2669.025	1282.6
2672.589	1269.6
2676.151	1258.6
2679.71	1250.6
2683.266	1222.6
2686.819	1202.6
2690.368	1163.6
2693.915	1151.6
2697.458	1130.6
2700.999	1092.6
2704.536	1076.6
2708.071	1052.6
2711.602	1026.6
2715.13	994.6
2718.656	979.6
2722.178	968.6
2725.697	940.6
2729.214	935.6
2732.727	931.6
2736.237	916.6
2739.744	925.6
2743.249	919.6
2746.75	929.6
2750.248	937.6
2753.743	931.6
2757.236	950.6
2760.725	948.6
2764.211	960.6
2767.695	966.6
2771.175	960.6
2774.652	951.6
2778.127	962.6
2781.598	950.6
2785.067	948.6
2788.532	944.6
2791.995	940.6
2795.455	952.6
2798.911	936.6
2802.365	940.6
2805.816	934.6
2809.264	940.6
2812.709	941.6
2816.151	944.6
2819.59	934.6
2823.026	941.6
2826.46	936.6
2829.89	951.6
2833.318	932.6
2836.742	947.6
2840.164	961.6
2843.583	955.6
2846.999	973.6
2850.412	983.6
2853.822	983.6
2857.229	982.6
2860.634	1006.6
2864.035	1030.6
2867.434	1053.6
2870.83	1068.6
2874.223	1088.6
2877.613	1098.6
2881	1115.6
2884.385	1130.6
2887.766	1131.6
2891.145	1139.6
2894.521	1122.6
2897.894	1145.6
2901.264	1127.6
2904.631	1142.6
2907.996	1116.6
2911.358	1130.6
2914.717	1138.6
2918.073	1160.6
2921.426	1185.6
2924.777	1181.6
2928.124	1193.6
2931.469	1225.6
2934.811	1237.6
2938.15	1252.6
2941.487	1266.6
2944.821	1282.6
2948.152	1256.6
2951.48	1260.6
2954.805	1259.6
2958.128	1223.6
2961.447	1201.6
2964.765	1205.6
2968.079	1219.6
2971.39	1248.6
2974.699	1235.6
2978.005	1264.6
2981.308	1298.6
2984.609	1296.6
2987.907	1337.6
2991.202	1343.6
2994.494	1391.6
2997.784	1420.6
3001.07	1432.6
3004.355	1454.6
3007.636	1467.6
3010.915	1492.6
3014.191	1503.6
3017.464	1521.6
3020.734	1522.6
3024.002	1526.6
3027.267	1551.6
3030.53	1566.6
3033.789	1571.6
3037.046	1578.6
3040.301	1616.6
3043.552	1654.6
3046.801	1675.6
3050.048	1737.6
3053.291	1797.6
3056.532	1829.6
3059.771	1865.6
3063.006	1914.6
3066.239	1967.6
3069.469	2038.6
3072.697	2095.6
3075.922	2152.6
3079.144	2196.6
3082.364	2250.6
3085.581	2295.6
3088.795	2342.6
3092.007	2399.6
3095.216	2431.6
3098.423	2503.6
3101.627	2543.6
3104.828	2600.6
3108.026	2687.6
3111.222	2700.6
3114.416	2769.6
3117.607	2847.6
3120.795	2899.6
3123.98	2992.6
3127.163	3049.6
3130.344	3138.6
3133.521	3217.6
3136.696	3284.6
3139.869	3328.6
3143.039	3381.6
3146.206	3445.6
3149.371	3465.6
3152.533	3508.6
3155.693	3534.6
3158.85	3546.6
3162.005	3552.6
3165.157	3578.6
3168.306	3604.6
3171.453	3603.6
3174.597	3598.6
3177.739	3621.6
3180.878	3606.6
3184.014	3623.6
3187.149	3641.6
3190.28	3624.6
3193.409	3653.6
3196.536	3660.6
3199.659	3642.6
3202.781	3654.6
3205.9	3630.6
3209.016	3660.6
3212.13	3634.6
3215.241	3604.6
3218.35	3562.6
3221.456	3521.6
3224.56	3499.6
3227.661	3445.6
3230.76	3412.6
3233.856	3391.6
3236.95	3365.6
3240.041	3336.6
3243.13	3278.6
3246.216	3272.6
3249.3	3244.6
3252.382	3248.6
3255.46	3207.6
3258.537	3211.6
3261.611	3200.6
3264.682	3205.6
3267.751	3211.6
3270.818	3212.6
3273.882	3174.6
3276.943	3159.6
3280.002	3144.6
3283.059	3106.6
3286.113	3080.6
3289.165	3045.6
3292.214	2996.6
3295.261	2948.6
3298.306	2891.6
3301.348	2874.6
3304.387	2813.6
3307.425	2761.6
3310.459	2758.6
3313.492	2670.6
3316.521	2650.6
3319.549	2626.6
3322.574	2601.6
3325.597	2590.6
3328.617	2550.6
3331.635	2560.6
3334.65	2526.6
3337.663	2498.6
3340.674	2477.6
3343.682	2511.6
3346.688	2500.6
3349.691	2470.6
3352.692	2458.6
3355.691	2447.6
3358.687	2416.6
3361.681	2364.6
3364.673	2363.6
3367.662	2317.6
3370.649	2287.6
3373.633	2273.6
3376.615	2226.6
3379.595	2198.6
3382.572	2154.6
3385.547	2122.6
3388.52	2085.6
3391.49	2058.6
3394.458	2031.6
3397.424	1967.6
3400.387	1961.6
3403.348	1952.6
3406.307	1922.6
3409.263	1903.6
3412.217	1885.6
3415.168	1856.6
3418.118	1847.6
3421.065	1793.6
3424.009	1768.6
3426.951	1734.6
3429.891	1708.6
3432.829	1682.6
3435.764	1645.6
3438.697	1604.6
3441.628	1565.6
3444.557	1503.6
3447.483	1460.6
3450.407	1404.6
3453.328	1382.6
3456.247	1311.6
3459.164	1280.6
3462.079	1215.6
3464.991	1181.6
3467.902	1131.6
3470.809	1088.6
3473.715	1043.6
3476.618	1007.6
3479.519	969.6
3482.418	949.6
3485.315	903.6
3488.209	858.6
3491.101	838.6
3493.99	811.6
3496.878	772.6
3499.763	740.6
3502.646	711.6
3505.527	665.6
3508.405	647.6
3511.281	598.6
3514.155	571.6
3517.027	536.6
3519.897	497.6
3522.764	462.6
3525.629	422.6
3528.492	383.6
3531.352	343.6
3534.211	302.6
3537.067	296.6
3539.921	242.6
3542.773	223.6
3545.622	185.6
3548.469	150.6
3551.315	130.6
3554.157	97.6
3556.998	83.6
3559.837	58.6
3562.673	27.6
3565.507	8.6
3568.339	3.6
3571.169	-22.4
3573.996	-33.4
3576.822	-51.4
3579.645	-67.4
3582.466	-90.4
3585.285	-110.4
3588.101	-130.4
3590.916	-137.4
3593.728	-161.4
3596.538	-176.4
3599.346	-191.4
3602.152	-208.4
3604.956	-219.4
3607.757	-229.4
3610.556	-239.4
3613.354	-274.4
3616.149	-275.4
3618.942	-282.4
3621.732	-298.4
3624.521	-301.4
3627.307	-317.4
3630.092	-325.4
3632.874	-338.4
3635.654	-337.4
3638.432	-343.4
3641.208	-354.4
3643.982	-367.4
3646.753	-366.4
3649.523	-379.4
3652.29	-389.4
3655.055	-392.4
3657.818	-399.4
3660.579	-412.4
3663.338	-416.4
3666.095	-429.4
3668.849	-446.4
3671.602	-453.4
3674.352	-450.4
3677.101	-464.4
3679.847	-474.4
3682.591	-477.4
3685.333	-482.4
3688.073	-481.4
3690.811	-481.4
3693.547	-491.4
3696.281	-498.4
3699.013	-497.4
3701.742	-505.4
3704.47	-508.4
3707.195	-516.4
3709.919	-514.4
3712.64	-515.4
3715.359	-524.4
3718.076	-519.4
3720.792	-532.4
3723.505	-536.4
3726.216	-537.4
3728.925	-537.4
3731.632	-550.4
3734.336	-552.4
3737.039	-555.4
3739.74	-558.4
3742.439	-552.4
3745.136	-555.4
3747.83	-559.4
3750.523	-555.4
3753.213	-567.4
3755.902	-559.4
3758.589	-557.4
3761.273	-559.4
3763.956	-572.4
3766.636	-568.4
3769.315	-570.4
3771.991	-573.4
3774.665	-575.4
3777.338	-572.4
3780.008	-576.4
3782.677	-577.4
3785.343	-581.4
3788.007	-576.4
3790.67	-578.4
3793.33	-579.4
3795.989	-584.4
3798.645	-581.4
3801.299	-589.4
3803.952	-588.4
3806.602	-588.4
3809.251	-597.4
3811.897	-585.4
3814.542	-582.4
3817.184	-588.4
3819.825	-589.4
3822.463	-588.4
3825.1	-592.4
3827.735	-597.4
3830.367	-598.4
3832.998	-599.4
3835.627	-598.4
3838.253	-605.4
3840.878	-595.4
3843.501	-598.4
3846.122	-595.4
3848.741	-599.4
3851.358	-604.4
3853.973	-595.4
3856.586	-596.4
3859.197	-598.4
3861.806	-600.4
3864.414	-592.4
3867.019	-597.4
3869.622	-605.4
3872.224	-601.4
3874.823	-588.4
3877.421	-571.4
3880.016	-555.4
3882.61	-521.4
3885.202	-531.4
3887.792	-550.4
3890.38	-574.4
3892.966	-590.4
3895.55	-595.4
3898.132	-604.4
3900.713	-609.4
3903.291	-608.4
3905.868	-606.4
3908.442	-610.4
3911.015	-611.4
3913.586	-613.4
3916.155	-613.4
3918.722	-611.4
3921.287	-616.4
3923.85	-612.4
3926.411	-612.4
3928.971	-614.4
3931.528	-610.4
3934.084	-607.4
3936.638	-610.4
3939.19	-616.4
3941.74	-620.4
3944.288	-618.4
3946.834	-616.4
3949.378	-617.4
3951.921	-616.4
3954.462	-615.4
3957	-611.4
3959.537	-612.4
3962.072	-615.4
3964.606	-607.4
3967.137	-616.4
3969.667	-608.4
3972.194	-613.4
3974.72	-613.4
3977.244	-607.4
3979.766	-606.4
3982.286	-607.4
3984.805	-596.4
3987.321	-594.4
3989.836	-600.4
3992.349	-601.4
3994.86	-595.4
3997.369	-606.4
3999.877	-600.4
4002.382	-595.4
4004.886	-602.4
4007.388	-608.4
4009.888	-602.4
4012.386	-605.4
4014.883	-597.4
4017.377	-598.4
4019.87	-599.4
4022.361	-597.4
4024.85	-604.4
4027.338	-606.4
4029.823	-601.4
4032.307	-600.4
4034.789	-602.4
4037.269	-612.4
4039.747	-610.4
4042.224	-599.4
4044.699	-608.4
4047.172	-608.4
4049.643	-605.4
4052.112	-602.4
4054.58	-604.4
4057.046	-611.4
4059.51	-603.4
4061.972	-605.4
4064.432	-608.4
4066.891	-600.4
4069.348	-606.4
4071.803	-608.4
4074.256	-606.4
4076.708	-603.4
4079.158	-608.4
4081.606	-601.4
4084.052	-599.4
4086.497	-601.4
4088.939	-599.4
4091.38	-601.4
4093.819	-599.4
4096.257	-635.4
4098.693	-638.4
4101.127	-636.4
4103.559	-636.4
4105.989	-384.4
4108.418	-355.4
4110.845	-340.4
4113.27	-315.4
4115.694	-280.4
4118.115	-225.4
4120.535	-605.4
4122.954	-611.4
4125.37	-602.4
4127.785	-601.4
4130.198	-609.4
4132.609	-597.4
4135.019	-638.4
4137.427	-637.4
4139.833	-635.4
4142.237	-632.4
