Data from 2018-2-7_conc=4_RamanShift_07.txt Node
Date: Tue Feb 13 13:32:43 IST 2018
User: aro
Spectrometer: QEPB0276
Trigger mode: 0
Integration Time (sec): 3.000000E1
Scans to average: 1
Electric dark correction enabled: true
Nonlinearity correction enabled: false
Boxcar width: 0
XAxis mode: Raman Shifts
Number of Pixels in Spectrum: 1044
>>>>>Begin Spectral Data<<<<<
160.701	-171.5
166.742	30.5
172.777	597.5
178.805	2280.5
184.826	6208.5
190.841	12793.5
196.849	20058.5
202.85	25136.5
208.845	26624.5
214.833	26413.5
220.815	26004.5
226.789	25775.5
232.758	25720.5
238.719	25558.5
244.674	25240.5
250.623	24809.5
256.565	24286.5
262.5	23838.5
268.429	23436.5
274.351	23114.5
280.267	22754.5
286.176	22551.5
292.079	22379.5
297.975	22179.5
303.865	22042.5
309.748	21906.5
315.625	21740.5
321.495	21677.5
327.359	21588.5
333.217	21471.5
339.068	21454.5
344.912	21477.5
350.751	21459.5
356.583	21456.5
362.408	21425.5
368.227	21387.5
374.04	21468.5
379.847	21460.5
385.647	21563.5
391.44	21660.5
397.228	21698.5
403.009	21856.5
408.784	21856.5
414.553	21964.5
420.315	22043.5
426.071	21981.5
431.821	21990.5
437.565	21991.5
443.302	21955.5
449.033	21860.5
454.758	21835.5
460.477	21806.5
466.189	21786.5
471.896	21765.5
477.596	21655.5
483.29	21661.5
488.978	21612.5
494.66	21520.5
500.335	21434.5
506.005	21242.5
511.668	20954.5
517.325	20686.5
522.977	20567.5
528.622	20403.5
534.261	20305.5
539.894	20191.5
545.521	20155.5
551.141	20055.5
556.756	20008.5
562.365	19901.5
567.968	19877.5
573.565	19818.5
579.155	19781.5
584.74	19633.5
590.319	19595.5
595.892	19521.5
601.459	19442.5
607.02	19282.5
612.575	19212.5
618.124	19088.5
623.667	18982.5
629.204	18889.5
634.735	18808.5
640.261	18745.5
645.781	18711.5
651.294	18648.5
656.802	18614.5
662.304	18620.5
667.8	18594.5
673.29	18543.5
678.775	18483.5
684.254	18417.5
689.726	18413.5
695.193	18266.5
700.655	18219.5
706.11	18160.5
711.56	18028.5
717.004	17887.5
722.442	17870.5
727.874	17762.5
733.301	17764.5
738.722	17665.5
744.137	17642.5
749.547	17706.5
754.951	17622.5
760.349	17687.5
765.741	17655.5
771.128	17655.5
776.509	17684.5
781.885	17709.5
787.254	17639.5
792.618	17546.5
797.977	17389.5
803.33	17306.5
808.677	17245.5
814.019	17133.5
819.355	17091.5
824.686	16946.5
830.011	16917.5
835.33	16926.5
840.644	16919.5
845.952	16981.5
851.255	17071.5
856.552	17036.5
861.844	16997.5
867.13	16983.5
872.41	16849.5
877.686	16837.5
882.955	16646.5
888.219	16534.5
893.478	16271.5
898.731	16108.5
903.979	15950.5
909.221	15848.5
914.458	15817.5
919.69	15754.5
924.916	15856.5
930.136	15870.5
935.351	15908.5
940.561	15903.5
945.766	15885.5
950.965	15748.5
956.158	15679.5
961.347	15526.5
966.529	15316.5
971.707	15136.5
976.879	14956.5
982.046	14834.5
987.208	14818.5
992.364	14788.5
997.515	14821.5
1002.66	15008.5
1007.801	15182.5
1012.936	15263.5
1018.066	15250.5
1023.19	15300.5
1028.309	15244.5
1033.423	15257.5
1038.532	15147.5
1043.636	14960.5
1048.734	14778.5
1053.827	14632.5
1058.915	14447.5
1063.998	14345.5
1069.075	14351.5
1074.147	14336.5
1079.214	14395.5
1084.276	14465.5
1089.333	14603.5
1094.385	14640.5
1099.431	14715.5
1104.472	14652.5
1109.509	14566.5
1114.54	14402.5
1119.565	14186.5
1124.586	14060.5
1129.602	13894.5
1134.613	13824.5
1139.618	13675.5
1144.619	13696.5
1149.614	13694.5
1154.604	13721.5
1159.589	13744.5
1164.57	13783.5
1169.545	13763.5
1174.515	13815.5
1179.48	13671.5
1184.44	13671.5
1189.395	13512.5
1194.345	13455.5
1199.29	13359.5
1204.23	13315.5
1209.165	13385.5
1214.095	13481.5
1219.021	13556.5
1223.941	13631.5
1228.856	13687.5
1233.766	13742.5
1238.672	13685.5
1243.572	13705.5
1248.467	13616.5
1253.358	13406.5
1258.244	13267.5
1263.124	13051.5
1268	12870.5
1272.871	12709.5
1277.737	12624.5
1282.599	12575.5
1287.455	12469.5
1292.306	12529.5
1297.153	12635.5
1301.995	12661.5
1306.832	12690.5
1311.664	12701.5
1316.491	12650.5
1321.314	12554.5
1326.132	12342.5
1330.945	12107.5
1335.753	11763.5
1340.556	11448.5
1345.354	11281.5
1350.148	11069.5
1354.937	11011.5
1359.722	10946.5
1364.501	10964.5
1369.276	11111.5
1374.046	11227.5
1378.811	11385.5
1383.572	11476.5
1388.327	11517.5
1393.079	11478.5
1397.825	11354.5
1402.567	11202.5
1407.304	11080.5
1412.036	10989.5
1416.764	10899.5
1421.487	10853.5
1426.205	10723.5
1430.919	10738.5
1435.628	10720.5
1440.333	10769.5
1445.032	10800.5
1449.727	10817.5
1454.418	10771.5
1459.104	10642.5
1463.785	10480.5
1468.462	10169.5
1473.134	9967.5
1477.802	9775.5
1482.465	9607.5
1487.123	9471.5
1491.777	9446.5
1496.426	9485.5
1501.071	9567.5
1505.711	9728.5
1510.347	9837.5
1514.978	10080.5
1519.604	10187.5
1524.226	10275.5
1528.844	10305.5
1533.457	10276.5
1538.065	10234.5
1542.669	10124.5
1547.269	10103.5
1551.864	10029.5
1556.454	10047.5
1561.041	9981.5
1565.622	9990.5
1570.199	10003.5
1574.772	10083.5
1579.34	10145.5
1583.904	10240.5
1588.464	10245.5
1593.019	10209.5
1597.569	10206.5
1602.115	10100.5
1606.657	10018.5
1611.195	10004.5
1615.728	9887.5
1620.256	9830.5
1624.78	9860.5
1629.3	9832.5
1633.816	9866.5
1638.327	9899.5
1642.834	10009.5
1647.336	10014.5
1651.834	10025.5
1656.328	9984.5
1660.817	9924.5
1665.302	9811.5
1669.783	9611.5
1674.259	9378.5
1678.732	9100.5
1683.199	8813.5
1687.663	8496.5
1692.122	8200.5
1696.577	8096.5
1701.028	8073.5
1705.474	8048.5
1709.917	8138.5
1714.355	8231.5
1718.788	8173.5
1723.218	8099.5
1727.643	7935.5
1732.064	7779.5
1736.481	7636.5
1740.893	7431.5
1745.301	7277.5
1749.705	7022.5
1754.105	6865.5
1758.501	6651.5
1762.893	6421.5
1767.28	6281.5
1771.663	6136.5
1776.042	6037.5
1780.417	5977.5
1784.787	5959.5
1789.154	6000.5
1793.516	6067.5
1797.874	6183.5
1802.228	6309.5
1806.578	6365.5
1810.924	6379.5
1815.266	6342.5
1819.603	6269.5
1823.937	6147.5
1828.266	6085.5
1832.591	6009.5
1836.913	5894.5
1841.23	5892.5
1845.543	5819.5
1849.852	5783.5
1854.156	5766.5
1858.457	5743.5
1862.754	5734.5
1867.047	5741.5
1871.335	5717.5
1875.62	5722.5
1879.9	5645.5
1884.177	5636.5
1888.449	5559.5
1892.718	5518.5
1896.982	5454.5
1901.243	5406.5
1905.499	5322.5
1909.752	5315.5
1914	5283.5
1918.245	5299.5
1922.485	5338.5
1926.722	5391.5
1930.954	5436.5
1935.183	5543.5
1939.408	5585.5
1943.628	5592.5
1947.845	5598.5
1952.058	5607.5
1956.267	5549.5
1960.472	5501.5
1964.673	5419.5
1968.87	5331.5
1973.063	5234.5
1977.252	5178.5
1981.438	5159.5
1985.619	5087.5
1989.797	5056.5
1993.971	5031.5
1998.14	5030.5
2002.306	4969.5
2006.469	4964.5
2010.627	4931.5
2014.781	4882.5
2018.932	4846.5
2023.078	4812.5
2027.221	4750.5
2031.36	4689.5
2035.495	4595.5
2039.627	4475.5
2043.754	4453.5
2047.878	4434.5
2051.998	4390.5
2056.114	4342.5
2060.226	4381.5
2064.334	4353.5
2068.439	4349.5
2072.54	4371.5
2076.637	4441.5
2080.73	4431.5
2084.82	4438.5
2088.906	4467.5
2092.988	4503.5
2097.066	4443.5
2101.14	4443.5
2105.211	4410.5
2109.278	4379.5
2113.342	4369.5
2117.401	4332.5
2121.457	4313.5
2125.509	4283.5
2129.558	4246.5
2133.602	4238.5
2137.643	4234.5
2141.681	4212.5
2145.714	4177.5
2149.744	4142.5
2153.77	4118.5
2157.793	4075.5
2161.812	4077.5
2165.827	3973.5
2169.838	3925.5
2173.846	3843.5
2177.851	3796.5
2181.851	3712.5
2185.848	3690.5
2189.841	3648.5
2193.831	3616.5
2197.817	3594.5
2201.799	3573.5
2205.778	3564.5
2209.753	3522.5
2213.725	3528.5
2217.693	3525.5
2221.657	3496.5
2225.618	3476.5
2229.575	3471.5
2233.529	3430.5
2237.479	3414.5
2241.425	3360.5
2245.368	3333.5
2249.307	3284.5
2253.243	3242.5
2257.175	3207.5
2261.104	3140.5
2265.029	3091.5
2268.95	3086.5
2272.868	3044.5
2276.783	3001.5
2280.694	2986.5
2284.601	2969.5
2288.505	2946.5
2292.405	2904.5
2296.302	2847.5
2300.195	2853.5
2304.085	2804.5
2307.971	2762.5
2311.854	2739.5
2315.734	2697.5
2319.609	2663.5
2323.482	2620.5
2327.351	2589.5
2331.216	2568.5
2335.078	2576.5
2338.937	2547.5
2342.792	2531.5
2346.643	2543.5
2350.492	2542.5
2354.336	2530.5
2358.178	2553.5
2362.015	2578.5
2365.85	2555.5
2369.681	2575.5
2373.508	2563.5
2377.333	2546.5
2381.153	2564.5
2384.971	2560.5
2388.785	2551.5
2392.595	2521.5
2396.402	2462.5
2400.206	2445.5
2404.007	2464.5
2407.804	2439.5
2411.597	2403.5
2415.388	2396.5
2419.174	2382.5
2422.958	2344.5
2426.738	2358.5
2430.515	2305.5
2434.289	2295.5
2438.059	2289.5
2441.825	2281.5
2445.589	2224.5
2449.349	2223.5
2453.106	2186.5
2456.859	2152.5
2460.61	2140.5
2464.356	2097.5
2468.1	2095.5
2471.84	2048.5
2475.577	2045.5
2479.311	2027.5
2483.041	1992.5
2486.768	2003.5
2490.492	1988.5
2494.213	1991.5
2497.93	1980.5
2501.644	1975.5
2505.355	1948.5
2509.062	1950.5
2512.766	1942.5
2516.467	1920.5
2520.165	1900.5
2523.859	1895.5
2527.551	1880.5
2531.239	1832.5
2534.923	1849.5
2538.605	1829.5
2542.283	1820.5
2545.958	1803.5
2549.63	1812.5
2553.299	1814.5
2556.964	1804.5
2560.626	1796.5
2564.285	1782.5
2567.941	1771.5
2571.594	1764.5
2575.243	1764.5
2578.89	1744.5
2582.533	1747.5
2586.173	1720.5
2589.809	1691.5
2593.443	1675.5
2597.073	1644.5
2600.701	1658.5
2604.325	1633.5
2607.946	1641.5
2611.564	1626.5
2615.178	1639.5
2618.79	1606.5
2622.398	1598.5
2626.004	1575.5
2629.606	1554.5
2633.205	1528.5
2636.801	1512.5
2640.394	1480.5
2643.983	1479.5
2647.57	1441.5
2651.153	1434.5
2654.734	1396.5
2658.311	1375.5
2661.885	1359.5
2665.456	1317.5
2669.025	1310.5
2672.589	1317.5
2676.151	1296.5
2679.71	1278.5
2683.266	1240.5
2686.819	1232.5
2690.368	1206.5
2693.915	1174.5
2697.458	1146.5
2700.999	1125.5
2704.536	1085.5
2708.071	1071.5
2711.602	1048.5
2715.13	1017.5
2718.656	992.5
2722.178	959.5
2725.697	951.5
2729.214	943.5
2732.727	948.5
2736.237	942.5
2739.744	926.5
2743.249	908.5
2746.75	936.5
2750.248	923.5
2753.743	936.5
2757.236	955.5
2760.725	963.5
2764.211	967.5
2767.695	970.5
2771.175	970.5
2774.652	978.5
2778.127	979.5
2781.598	949.5
2785.067	932.5
2788.532	919.5
2791.995	954.5
2795.455	937.5
2798.911	947.5
2802.365	943.5
2805.816	929.5
2809.264	946.5
2812.709	936.5
2816.151	932.5
2819.59	943.5
2823.026	961.5
2826.46	940.5
2829.89	952.5
2833.318	958.5
2836.742	957.5
2840.164	976.5
2843.583	976.5
2846.999	982.5
2850.412	974.5
2853.822	991.5
2857.229	1012.5
2860.634	1035.5
2864.035	1046.5
2867.434	1063.5
2870.83	1074.5
2874.223	1121.5
2877.613	1120.5
2881	1135.5
2884.385	1149.5
2887.766	1144.5
2891.145	1120.5
2894.521	1135.5
2897.894	1149.5
2901.264	1135.5
2904.631	1139.5
2907.996	1132.5
2911.358	1142.5
2914.717	1151.5
2918.073	1169.5
2921.426	1175.5
2924.777	1192.5
2928.124	1199.5
2931.469	1223.5
2934.811	1261.5
2938.15	1247.5
2941.487	1275.5
2944.821	1274.5
2948.152	1272.5
2951.48	1268.5
2954.805	1257.5
2958.128	1234.5
2961.447	1233.5
2964.765	1219.5
2968.079	1235.5
2971.39	1252.5
2974.699	1251.5
2978.005	1272.5
2981.308	1289.5
2984.609	1315.5
2987.907	1349.5
2991.202	1360.5
2994.494	1410.5
2997.784	1414.5
3001.07	1458.5
3004.355	1480.5
3007.636	1507.5
3010.915	1497.5
3014.191	1524.5
3017.464	1558.5
3020.734	1552.5
3024.002	1561.5
3027.267	1571.5
3030.53	1610.5
3033.789	1594.5
3037.046	1634.5
3040.301	1657.5
3043.552	1693.5
3046.801	1725.5
3050.048	1765.5
3053.291	1838.5
3056.532	1861.5
3059.771	1918.5
3063.006	1992.5
3066.239	2036.5
3069.469	2082.5
3072.697	2154.5
3075.922	2185.5
3079.144	2258.5
3082.364	2303.5
3085.581	2369.5
3088.795	2419.5
3092.007	2469.5
3095.216	2500.5
3098.423	2565.5
3101.627	2613.5
3104.828	2698.5
3108.026	2750.5
3111.222	2802.5
3114.416	2863.5
3117.607	2915.5
3120.795	3012.5
3123.98	3079.5
3127.163	3141.5
3130.344	3216.5
3133.521	3302.5
3136.696	3392.5
3139.869	3445.5
3143.039	3507.5
3146.206	3560.5
3149.371	3603.5
3152.533	3655.5
3155.693	3672.5
3158.85	3678.5
3162.005	3679.5
3165.157	3692.5
3168.306	3727.5
3171.453	3747.5
3174.597	3716.5
3177.739	3733.5
3180.878	3731.5
3184.014	3747.5
3187.149	3740.5
3190.28	3746.5
3193.409	3781.5
3196.536	3766.5
3199.659	3756.5
3202.781	3767.5
3205.9	3764.5
3209.016	3761.5
3212.13	3732.5
3215.241	3724.5
3218.35	3693.5
3221.456	3659.5
3224.56	3620.5
3227.661	3585.5
3230.76	3548.5
3233.856	3492.5
3236.95	3458.5
3240.041	3435.5
3243.13	3404.5
3246.216	3388.5
3249.3	3366.5
3252.382	3340.5
3255.46	3315.5
3258.537	3337.5
3261.611	3321.5
3264.682	3314.5
3267.751	3330.5
3270.818	3313.5
3273.882	3265.5
3276.943	3283.5
3280.002	3229.5
3283.059	3235.5
3286.113	3159.5
3289.165	3135.5
3292.214	3093.5
3295.261	3025.5
3298.306	2989.5
3301.348	2945.5
3304.387	2909.5
3307.425	2845.5
3310.459	2803.5
3313.492	2775.5
3316.521	2738.5
3319.549	2678.5
3322.574	2669.5
3325.597	2617.5
3328.617	2653.5
3331.635	2622.5
3334.65	2578.5
3337.663	2581.5
3340.674	2576.5
3343.682	2541.5
3346.688	2543.5
3349.691	2539.5
3352.692	2504.5
3355.691	2525.5
3358.687	2498.5
3361.681	2462.5
3364.673	2439.5
3367.662	2401.5
3370.649	2360.5
3373.633	2324.5
3376.615	2271.5
3379.595	2261.5
3382.572	2199.5
3385.547	2172.5
3388.52	2157.5
3391.49	2087.5
3394.458	2086.5
3397.424	2035.5
3400.387	2018.5
3403.348	1999.5
3406.307	1987.5
3409.263	1941.5
3412.217	1914.5
3415.168	1890.5
3418.118	1870.5
3421.065	1843.5
3424.009	1841.5
3426.951	1811.5
3429.891	1766.5
3432.829	1729.5
3435.764	1678.5
3438.697	1639.5
3441.628	1566.5
3444.557	1539.5
3447.483	1476.5
3450.407	1443.5
3453.328	1403.5
3456.247	1335.5
3459.164	1297.5
3462.079	1242.5
3464.991	1200.5
3467.902	1137.5
3470.809	1095.5
3473.715	1058.5
3476.618	1022.5
3479.519	977.5
3482.418	956.5
3485.315	915.5
3488.209	872.5
3491.101	841.5
3493.99	810.5
3496.878	775.5
3499.763	745.5
3502.646	710.5
3505.527	675.5
3508.405	645.5
3511.281	593.5
3514.155	567.5
3517.027	514.5
3519.897	483.5
3522.764	460.5
3525.629	418.5
3528.492	363.5
3531.352	340.5
3534.211	306.5
3537.067	268.5
3539.921	225.5
3542.773	201.5
3545.622	169.5
3548.469	138.5
3551.315	106.5
3554.157	88.5
3556.998	43.5
3559.837	35.5
3562.673	1.5
3565.507	5.5
3568.339	-14.5
3571.169	-48.5
3573.996	-56.5
3576.822	-77.5
3579.645	-87.5
3582.466	-115.5
3585.285	-133.5
3588.101	-142.5
3590.916	-171.5
3593.728	-190.5
3596.538	-205.5
3599.346	-219.5
3602.152	-239.5
3604.956	-260.5
3607.757	-268.5
3610.556	-280.5
3613.354	-289.5
3616.149	-310.5
3618.942	-314.5
3621.732	-321.5
3624.521	-346.5
3627.307	-350.5
3630.092	-359.5
3632.874	-364.5
3635.654	-378.5
3638.432	-383.5
3641.208	-390.5
3643.982	-400.5
3646.753	-403.5
3649.523	-422.5
3652.29	-425.5
3655.055	-435.5
3657.818	-441.5
3660.579	-457.5
3663.338	-459.5
3666.095	-474.5
3668.849	-483.5
3671.602	-482.5
3674.352	-491.5
3677.101	-504.5
3679.847	-514.5
3682.591	-517.5
3685.333	-517.5
3688.073	-522.5
3690.811	-526.5
3693.547	-536.5
3696.281	-552.5
3699.013	-547.5
3701.742	-551.5
3704.47	-553.5
3707.195	-567.5
3709.919	-565.5
3712.64	-566.5
3715.359	-572.5
3718.076	-565.5
3720.792	-579.5
3723.505	-580.5
3726.216	-583.5
3728.925	-585.5
3731.632	-599.5
3734.336	-592.5
3737.039	-600.5
3739.74	-599.5
3742.439	-601.5
3745.136	-602.5
3747.83	-605.5
3750.523	-603.5
3753.213	-608.5
3755.902	-606.5
3758.589	-604.5
3761.273	-607.5
3763.956	-617.5
3766.636	-607.5
3769.315	-618.5
3771.991	-617.5
3774.665	-620.5
3777.338	-620.5
3780.008	-620.5
3782.677	-623.5
3785.343	-625.5
3788.007	-623.5
3790.67	-628.5
3793.33	-638.5
3795.989	-630.5
3798.645	-632.5
3801.299	-636.5
3803.952	-639.5
3806.602	-636.5
3809.251	-642.5
3811.897	-633.5
3814.542	-631.5
3817.184	-642.5
3819.825	-633.5
3822.463	-637.5
3825.1	-642.5
3827.735	-645.5
3830.367	-644.5
3832.998	-647.5
3835.627	-648.5
3838.253	-651.5
3840.878	-648.5
3843.501	-650.5
3846.122	-642.5
3848.741	-646.5
3851.358	-649.5
3853.973	-648.5
3856.586	-645.5
3859.197	-646.5
3861.806	-645.5
3864.414	-642.5
3867.019	-645.5
3869.622	-645.5
3872.224	-645.5
3874.823	-635.5
3877.421	-619.5
3880.016	-607.5
3882.61	-578.5
3885.202	-574.5
3887.792	-601.5
3890.38	-614.5
3892.966	-635.5
3895.55	-649.5
3898.132	-646.5
3900.713	-656.5
3903.291	-660.5
3905.868	-656.5
3908.442	-658.5
3911.015	-659.5
3913.586	-668.5
3916.155	-661.5
3918.722	-660.5
3921.287	-662.5
3923.85	-667.5
3926.411	-657.5
3928.971	-663.5
3931.528	-661.5
3934.084	-659.5
3936.638	-657.5
3939.19	-664.5
3941.74	-663.5
3944.288	-666.5
3946.834	-661.5
3949.378	-669.5
3951.921	-663.5
3954.462	-662.5
3957	-659.5
3959.537	-661.5
3962.072	-657.5
3964.606	-660.5
3967.137	-666.5
3969.667	-660.5
3972.194	-658.5
3974.72	-657.5
3977.244	-653.5
3979.766	-652.5
3982.286	-650.5
3984.805	-645.5
3987.321	-654.5
3989.836	-646.5
3992.349	-645.5
3994.86	-640.5
3997.369	-656.5
3999.877	-649.5
4002.382	-646.5
4004.886	-652.5
4007.388	-650.5
4009.888	-645.5
4012.386	-648.5
4014.883	-647.5
4017.377	-653.5
4019.87	-648.5
4022.361	-648.5
4024.85	-649.5
4027.338	-650.5
4029.823	-647.5
4032.307	-648.5
4034.789	-651.5
4037.269	-654.5
4039.747	-657.5
4042.224	-654.5
4044.699	-651.5
4047.172	-656.5
4049.643	-651.5
4052.112	-653.5
4054.58	-644.5
4057.046	-653.5
4059.51	-647.5
4061.972	-659.5
4064.432	-650.5
4066.891	-644.5
4069.348	-653.5
4071.803	-652.5
4074.256	-650.5
4076.708	-655.5
4079.158	-643.5
4081.606	-647.5
4084.052	-653.5
4086.497	-653.5
4088.939	-650.5
4091.38	-648.5
4093.819	-646.5
4096.257	-684.5
4098.693	-686.5
4101.127	-684.5
4103.559	-687.5
4105.989	-410.5
4108.418	-397.5
4110.845	-371.5
4113.27	-350.5
4115.694	-302.5
4118.115	-255.5
4120.535	-648.5
4122.954	-652.5
4125.37	-654.5
4127.785	-646.5
4130.198	-653.5
4132.609	-643.5
4135.019	-686.5
4137.427	-684.5
4139.833	-682.5
4142.237	-683.5
