Data from 2018-2-7_conc=5_RamanShift_09.txt Node
Date: Tue Feb 13 14:01:43 IST 2018
User: aro
Spectrometer: QEPB0276
Trigger mode: 0
Integration Time (sec): 3.000000E1
Scans to average: 1
Electric dark correction enabled: true
Nonlinearity correction enabled: false
Boxcar width: 0
XAxis mode: Raman Shifts
Number of Pixels in Spectrum: 1044
>>>>>Begin Spectral Data<<<<<
160.701	-158.5
166.742	13.5
172.777	546.5
178.805	2108.5
184.826	5697.5
190.841	11767.5
196.849	18669.5
202.85	23375.5
208.845	24728.5
214.833	24473.5
220.815	23990.5
226.789	23772.5
232.758	23682.5
238.719	23477.5
244.674	23141.5
250.623	22749.5
256.565	22220.5
262.5	21725.5
268.429	21289.5
274.351	20965.5
280.267	20681.5
286.176	20436.5
292.079	20256.5
297.975	20019.5
303.865	19818.5
309.748	19686.5
315.625	19521.5
321.495	19480.5
327.359	19383.5
333.217	19333.5
339.068	19256.5
344.912	19267.5
350.751	19298.5
356.583	19227.5
362.408	19226.5
368.227	19230.5
374.04	19287.5
379.847	19295.5
385.647	19358.5
391.44	19445.5
397.228	19524.5
403.009	19616.5
408.784	19741.5
414.553	19703.5
420.315	19792.5
426.071	19761.5
431.821	19782.5
437.565	19734.5
443.302	19718.5
449.033	19712.5
454.758	19615.5
460.477	19599.5
466.189	19572.5
471.896	19473.5
477.596	19441.5
483.29	19390.5
488.978	19378.5
494.66	19272.5
500.335	19177.5
506.005	18960.5
511.668	18688.5
517.325	18550.5
522.977	18314.5
528.622	18188.5
534.261	18096.5
539.894	17976.5
545.521	17949.5
551.141	17902.5
556.756	17801.5
562.365	17669.5
567.968	17679.5
573.565	17540.5
579.155	17525.5
584.74	17413.5
590.319	17385.5
595.892	17307.5
601.459	17257.5
607.02	17206.5
612.575	17046.5
618.124	16969.5
623.667	16872.5
629.204	16785.5
634.735	16708.5
640.261	16579.5
645.781	16578.5
651.294	16539.5
656.802	16529.5
662.304	16512.5
667.8	16453.5
673.29	16408.5
678.775	16441.5
684.254	16362.5
689.726	16322.5
695.193	16257.5
700.655	16130.5
706.11	16061.5
711.56	16004.5
717.004	15912.5
722.442	15897.5
727.874	15795.5
733.301	15683.5
738.722	15638.5
744.137	15660.5
749.547	15666.5
754.951	15649.5
760.349	15683.5
765.741	15615.5
771.128	15692.5
776.509	15700.5
781.885	15655.5
787.254	15654.5
792.618	15549.5
797.977	15493.5
803.33	15304.5
808.677	15322.5
814.019	15226.5
819.355	15120.5
824.686	15091.5
830.011	15047.5
835.33	15015.5
840.644	15033.5
845.952	15008.5
851.255	15063.5
856.552	15110.5
861.844	15104.5
867.13	14995.5
872.41	14956.5
877.686	14905.5
882.955	14819.5
888.219	14654.5
893.478	14515.5
898.731	14359.5
903.979	14173.5
909.221	14100.5
914.458	14035.5
919.69	14019.5
924.916	14030.5
930.136	14092.5
935.351	14098.5
940.561	14081.5
945.766	14070.5
950.965	14004.5
956.158	13913.5
961.347	13811.5
966.529	13569.5
971.707	13411.5
976.879	13275.5
982.046	13128.5
987.208	13100.5
992.364	13078.5
997.515	13236.5
1002.66	13335.5
1007.801	13469.5
1012.936	13554.5
1018.066	13567.5
1023.19	13579.5
1028.309	13551.5
1033.423	13528.5
1038.532	13465.5
1043.636	13357.5
1048.734	13231.5
1053.827	12991.5
1058.915	12870.5
1063.998	12767.5
1069.075	12808.5
1074.147	12751.5
1079.214	12842.5
1084.276	12934.5
1089.333	12928.5
1094.385	13010.5
1099.431	13068.5
1104.472	13058.5
1109.509	12997.5
1114.54	12872.5
1119.565	12660.5
1124.586	12524.5
1129.602	12410.5
1134.613	12289.5
1139.618	12230.5
1144.619	12173.5
1149.614	12166.5
1154.604	12234.5
1159.589	12275.5
1164.57	12289.5
1169.545	12279.5
1174.515	12297.5
1179.48	12200.5
1184.44	12192.5
1189.395	12024.5
1194.345	11965.5
1199.29	11909.5
1204.23	11935.5
1209.165	11970.5
1214.095	12020.5
1219.021	12058.5
1223.941	12161.5
1228.856	12221.5
1233.766	12246.5
1238.672	12261.5
1243.572	12267.5
1248.467	12197.5
1253.358	12018.5
1258.244	11852.5
1263.124	11686.5
1268	11554.5
1272.871	11396.5
1277.737	11264.5
1282.599	11245.5
1287.455	11235.5
1292.306	11306.5
1297.153	11275.5
1301.995	11343.5
1306.832	11363.5
1311.664	11381.5
1316.491	11335.5
1321.314	11226.5
1326.132	11096.5
1330.945	10871.5
1335.753	10567.5
1340.556	10337.5
1345.354	10091.5
1350.148	9964.5
1354.937	9830.5
1359.722	9860.5
1364.501	9819.5
1369.276	9914.5
1374.046	10038.5
1378.811	10137.5
1383.572	10203.5
1388.327	10260.5
1393.079	10278.5
1397.825	10169.5
1402.567	10057.5
1407.304	9910.5
1412.036	9854.5
1416.764	9782.5
1421.487	9749.5
1426.205	9677.5
1430.919	9700.5
1435.628	9674.5
1440.333	9698.5
1445.032	9680.5
1449.727	9770.5
1454.418	9668.5
1459.104	9567.5
1463.785	9451.5
1468.462	9211.5
1473.134	8984.5
1477.802	8815.5
1482.465	8612.5
1487.123	8513.5
1491.777	8510.5
1496.426	8517.5
1501.071	8566.5
1505.711	8650.5
1510.347	8824.5
1514.978	8962.5
1519.604	9051.5
1524.226	9168.5
1528.844	9199.5
1533.457	9175.5
1538.065	9142.5
1542.669	9115.5
1547.269	9042.5
1551.864	9004.5
1556.454	9033.5
1561.041	8990.5
1565.622	8988.5
1570.199	9017.5
1574.772	9058.5
1579.34	9189.5
1583.904	9205.5
1588.464	9232.5
1593.019	9259.5
1597.569	9229.5
1602.115	9173.5
1606.657	9134.5
1611.195	9112.5
1615.728	9026.5
1620.256	8985.5
1624.78	8972.5
1629.3	8985.5
1633.816	9025.5
1638.327	9056.5
1642.834	9076.5
1647.336	9161.5
1651.834	9092.5
1656.328	9072.5
1660.817	9044.5
1665.302	8897.5
1669.783	8743.5
1674.259	8575.5
1678.732	8308.5
1683.199	7975.5
1687.663	7744.5
1692.122	7492.5
1696.577	7317.5
1701.028	7249.5
1705.474	7308.5
1709.917	7327.5
1714.355	7379.5
1718.788	7327.5
1723.218	7256.5
1727.643	7180.5
1732.064	6976.5
1736.481	6859.5
1740.893	6689.5
1745.301	6509.5
1749.705	6349.5
1754.105	6154.5
1758.501	5999.5
1762.893	5818.5
1767.28	5697.5
1771.663	5528.5
1776.042	5453.5
1780.417	5361.5
1784.787	5349.5
1789.154	5332.5
1793.516	5439.5
1797.874	5540.5
1802.228	5627.5
1806.578	5664.5
1810.924	5693.5
1815.266	5697.5
1819.603	5604.5
1823.937	5551.5
1828.266	5452.5
1832.591	5362.5
1836.913	5273.5
1841.23	5236.5
1845.543	5228.5
1849.852	5215.5
1854.156	5191.5
1858.457	5160.5
1862.754	5186.5
1867.047	5149.5
1871.335	5135.5
1875.62	5107.5
1879.9	5140.5
1884.177	5076.5
1888.449	5016.5
1892.718	4952.5
1896.982	4875.5
1901.243	4819.5
1905.499	4769.5
1909.752	4745.5
1914	4753.5
1918.245	4755.5
1922.485	4774.5
1926.722	4793.5
1930.954	4883.5
1935.183	4890.5
1939.408	4983.5
1943.628	4998.5
1947.845	5009.5
1952.058	5030.5
1956.267	4985.5
1960.472	4949.5
1964.673	4858.5
1968.87	4773.5
1973.063	4717.5
1977.252	4649.5
1981.438	4629.5
1985.619	4597.5
1989.797	4548.5
1993.971	4531.5
1998.14	4505.5
2002.306	4474.5
2006.469	4454.5
2010.627	4435.5
2014.781	4432.5
2018.932	4406.5
2023.078	4375.5
2027.221	4300.5
2031.36	4197.5
2035.495	4170.5
2039.627	4091.5
2043.754	4040.5
2047.878	3988.5
2051.998	3964.5
2056.114	3934.5
2060.226	3935.5
2064.334	3918.5
2068.439	3921.5
2072.54	3955.5
2076.637	4005.5
2080.73	4018.5
2084.82	4021.5
2088.906	4036.5
2092.988	4023.5
2097.066	4059.5
2101.14	4007.5
2105.211	4013.5
2109.278	3937.5
2113.342	3944.5
2117.401	3943.5
2121.457	3889.5
2125.509	3907.5
2129.558	3847.5
2133.602	3840.5
2137.643	3831.5
2141.681	3802.5
2145.714	3794.5
2149.744	3770.5
2153.77	3731.5
2157.793	3689.5
2161.812	3678.5
2165.827	3624.5
2169.838	3568.5
2173.846	3498.5
2177.851	3453.5
2181.851	3407.5
2185.848	3355.5
2189.841	3332.5
2193.831	3279.5
2197.817	3274.5
2201.799	3241.5
2205.778	3244.5
2209.753	3230.5
2213.725	3215.5
2217.693	3207.5
2221.657	3229.5
2225.618	3180.5
2229.575	3187.5
2233.529	3142.5
2237.479	3106.5
2241.425	3090.5
2245.368	3034.5
2249.307	3019.5
2253.243	2952.5
2257.175	2934.5
2261.104	2855.5
2265.029	2842.5
2268.95	2831.5
2272.868	2781.5
2276.783	2757.5
2280.694	2719.5
2284.601	2688.5
2288.505	2679.5
2292.405	2649.5
2296.302	2645.5
2300.195	2606.5
2304.085	2577.5
2307.971	2534.5
2311.854	2508.5
2315.734	2472.5
2319.609	2453.5
2323.482	2409.5
2327.351	2378.5
2331.216	2386.5
2335.078	2378.5
2338.937	2367.5
2342.792	2325.5
2346.643	2338.5
2350.492	2354.5
2354.336	2335.5
2358.178	2327.5
2362.015	2367.5
2365.85	2376.5
2369.681	2383.5
2373.508	2387.5
2377.333	2374.5
2381.153	2385.5
2384.971	2338.5
2388.785	2335.5
2392.595	2319.5
2396.402	2298.5
2400.206	2269.5
2404.007	2276.5
2407.804	2261.5
2411.597	2234.5
2415.388	2227.5
2419.174	2232.5
2422.958	2185.5
2426.738	2172.5
2430.515	2157.5
2434.289	2162.5
2438.059	2117.5
2441.825	2119.5
2445.589	2090.5
2449.349	2067.5
2453.106	2045.5
2456.859	2008.5
2460.61	1989.5
2464.356	1974.5
2468.1	1953.5
2471.84	1930.5
2475.577	1884.5
2479.311	1892.5
2483.041	1862.5
2486.768	1875.5
2490.492	1866.5
2494.213	1853.5
2497.93	1833.5
2501.644	1834.5
2505.355	1807.5
2509.062	1802.5
2512.766	1798.5
2516.467	1767.5
2520.165	1794.5
2523.859	1758.5
2527.551	1732.5
2531.239	1718.5
2534.923	1708.5
2538.605	1705.5
2542.283	1689.5
2545.958	1698.5
2549.63	1681.5
2553.299	1689.5
2556.964	1685.5
2560.626	1648.5
2564.285	1669.5
2567.941	1648.5
2571.594	1630.5
2575.243	1633.5
2578.89	1629.5
2582.533	1620.5
2586.173	1605.5
2589.809	1565.5
2593.443	1579.5
2597.073	1561.5
2600.701	1536.5
2604.325	1557.5
2607.946	1535.5
2611.564	1531.5
2615.178	1525.5
2618.79	1498.5
2622.398	1484.5
2626.004	1454.5
2629.606	1451.5
2633.205	1440.5
2636.801	1414.5
2640.394	1398.5
2643.983	1368.5
2647.57	1367.5
2651.153	1346.5
2654.734	1319.5
2658.311	1305.5
2661.885	1296.5
2665.456	1273.5
2669.025	1253.5
2672.589	1244.5
2676.151	1219.5
2679.71	1215.5
2683.266	1177.5
2686.819	1168.5
2690.368	1147.5
2693.915	1110.5
2697.458	1096.5
2700.999	1059.5
2704.536	1050.5
2708.071	1029.5
2711.602	1008.5
2715.13	976.5
2718.656	941.5
2722.178	935.5
2725.697	929.5
2729.214	910.5
2732.727	886.5
2736.237	892.5
2739.744	897.5
2743.249	884.5
2746.75	872.5
2750.248	874.5
2753.743	901.5
2757.236	891.5
2760.725	899.5
2764.211	916.5
2767.695	914.5
2771.175	920.5
2774.652	923.5
2778.127	911.5
2781.598	901.5
2785.067	897.5
2788.532	887.5
2791.995	882.5
2795.455	897.5
2798.911	900.5
2802.365	906.5
2805.816	908.5
2809.264	900.5
2812.709	903.5
2816.151	900.5
2819.59	890.5
2823.026	908.5
2826.46	901.5
2829.89	905.5
2833.318	910.5
2836.742	923.5
2840.164	923.5
2843.583	932.5
2846.999	946.5
2850.412	942.5
2853.822	969.5
2857.229	986.5
2860.634	986.5
2864.035	1003.5
2867.434	1032.5
2870.83	1042.5
2874.223	1085.5
2877.613	1093.5
2881	1078.5
2884.385	1117.5
2887.766	1111.5
2891.145	1119.5
2894.521	1090.5
2897.894	1107.5
2901.264	1106.5
2904.631	1103.5
2907.996	1116.5
2911.358	1109.5
2914.717	1112.5
2918.073	1129.5
2921.426	1154.5
2924.777	1170.5
2928.124	1197.5
2931.469	1197.5
2934.811	1235.5
2938.15	1233.5
2941.487	1249.5
2944.821	1271.5
2948.152	1240.5
2951.48	1249.5
2954.805	1232.5
2958.128	1226.5
2961.447	1210.5
2964.765	1199.5
2968.079	1212.5
2971.39	1204.5
2974.699	1233.5
2978.005	1254.5
2981.308	1277.5
2984.609	1288.5
2987.907	1304.5
2991.202	1314.5
2994.494	1354.5
2997.784	1395.5
3001.07	1417.5
3004.355	1451.5
3007.636	1454.5
3010.915	1462.5
3014.191	1491.5
3017.464	1485.5
3020.734	1527.5
3024.002	1541.5
3027.267	1535.5
3030.53	1553.5
3033.789	1567.5
3037.046	1602.5
3040.301	1614.5
3043.552	1650.5
3046.801	1683.5
3050.048	1738.5
3053.291	1772.5
3056.532	1828.5
3059.771	1891.5
3063.006	1908.5
3066.239	1989.5
3069.469	2053.5
3072.697	2115.5
3075.922	2145.5
3079.144	2207.5
3082.364	2257.5
3085.581	2282.5
3088.795	2356.5
3092.007	2409.5
3095.216	2467.5
3098.423	2493.5
3101.627	2542.5
3104.828	2604.5
3108.026	2666.5
3111.222	2723.5
3114.416	2801.5
3117.607	2866.5
3120.795	2941.5
3123.98	2988.5
3127.163	3055.5
3130.344	3132.5
3133.521	3210.5
3136.696	3275.5
3139.869	3362.5
3143.039	3401.5
3146.206	3485.5
3149.371	3505.5
3152.533	3533.5
3155.693	3565.5
3158.85	3592.5
3162.005	3585.5
3165.157	3603.5
3168.306	3627.5
3171.453	3617.5
3174.597	3600.5
3177.739	3631.5
3180.878	3633.5
3184.014	3648.5
3187.149	3626.5
3190.28	3655.5
3193.409	3662.5
3196.536	3684.5
3199.659	3671.5
3202.781	3659.5
3205.9	3686.5
3209.016	3660.5
3212.13	3667.5
3215.241	3631.5
3218.35	3587.5
3221.456	3526.5
3224.56	3539.5
3227.661	3495.5
3230.76	3433.5
3233.856	3408.5
3236.95	3351.5
3240.041	3315.5
3243.13	3307.5
3246.216	3282.5
3249.3	3274.5
3252.382	3254.5
3255.46	3238.5
3258.537	3246.5
3261.611	3236.5
3264.682	3240.5
3267.751	3233.5
3270.818	3216.5
3273.882	3186.5
3276.943	3206.5
3280.002	3170.5
3283.059	3138.5
3286.113	3093.5
3289.165	3082.5
3292.214	3006.5
3295.261	2959.5
3298.306	2904.5
3301.348	2872.5
3304.387	2829.5
3307.425	2775.5
3310.459	2735.5
3313.492	2717.5
3316.521	2692.5
3319.549	2635.5
3322.574	2607.5
3325.597	2611.5
3328.617	2559.5
3331.635	2554.5
3334.65	2542.5
3337.663	2498.5
3340.674	2479.5
3343.682	2506.5
3346.688	2476.5
3349.691	2474.5
3352.692	2475.5
3355.691	2461.5
3358.687	2425.5
3361.681	2424.5
3364.673	2364.5
3367.662	2345.5
3370.649	2292.5
3373.633	2288.5
3376.615	2236.5
3379.595	2209.5
3382.572	2184.5
3385.547	2146.5
3388.52	2098.5
3391.49	2067.5
3394.458	2048.5
3397.424	1983.5
3400.387	1969.5
3403.348	1961.5
3406.307	1945.5
3409.263	1919.5
3412.217	1887.5
3415.168	1858.5
3418.118	1866.5
3421.065	1844.5
3424.009	1781.5
3426.951	1763.5
3429.891	1710.5
3432.829	1709.5
3435.764	1665.5
3438.697	1618.5
3441.628	1578.5
3444.557	1525.5
3447.483	1475.5
3450.407	1420.5
3453.328	1380.5
3456.247	1331.5
3459.164	1258.5
3462.079	1235.5
3464.991	1191.5
3467.902	1141.5
3470.809	1081.5
3473.715	1054.5
3476.618	1022.5
3479.519	988.5
3482.418	941.5
3485.315	898.5
3488.209	864.5
3491.101	845.5
3493.99	820.5
3496.878	776.5
3499.763	732.5
3502.646	711.5
3505.527	680.5
3508.405	645.5
3511.281	615.5
3514.155	574.5
3517.027	543.5
3519.897	503.5
3522.764	463.5
3525.629	425.5
3528.492	391.5
3531.352	345.5
3534.211	309.5
3537.067	293.5
3539.921	245.5
3542.773	221.5
3545.622	187.5
3548.469	159.5
3551.315	135.5
3554.157	106.5
3556.998	84.5
3559.837	63.5
3562.673	36.5
3565.507	23.5
3568.339	5.5
3571.169	-20.5
3573.996	-26.5
3576.822	-55.5
3579.645	-63.5
3582.466	-77.5
3585.285	-98.5
3588.101	-113.5
3590.916	-136.5
3593.728	-149.5
3596.538	-171.5
3599.346	-180.5
3602.152	-208.5
3604.956	-213.5
3607.757	-225.5
3610.556	-238.5
3613.354	-260.5
3616.149	-272.5
3618.942	-278.5
3621.732	-295.5
3624.521	-301.5
3627.307	-312.5
3630.092	-324.5
3632.874	-330.5
3635.654	-338.5
3638.432	-341.5
3641.208	-349.5
3643.982	-355.5
3646.753	-370.5
3649.523	-372.5
3652.29	-384.5
3655.055	-381.5
3657.818	-397.5
3660.579	-410.5
3663.338	-414.5
3666.095	-423.5
3668.849	-441.5
3671.602	-440.5
3674.352	-439.5
3677.101	-451.5
3679.847	-461.5
3682.591	-454.5
3685.333	-468.5
3688.073	-474.5
3690.811	-480.5
3693.547	-481.5
3696.281	-493.5
3699.013	-496.5
3701.742	-503.5
3704.47	-504.5
3707.195	-518.5
3709.919	-508.5
3712.64	-518.5
3715.359	-511.5
3718.076	-523.5
3720.792	-527.5
3723.505	-525.5
3726.216	-524.5
3728.925	-526.5
3731.632	-533.5
3734.336	-533.5
3737.039	-542.5
3739.74	-543.5
3742.439	-546.5
3745.136	-545.5
3747.83	-548.5
3750.523	-541.5
3753.213	-558.5
3755.902	-555.5
3758.589	-550.5
3761.273	-548.5
3763.956	-565.5
3766.636	-562.5
3769.315	-562.5
3771.991	-559.5
3774.665	-564.5
3777.338	-568.5
3780.008	-562.5
3782.677	-570.5
3785.343	-575.5
3788.007	-566.5
3790.67	-577.5
3793.33	-566.5
3795.989	-578.5
3798.645	-586.5
3801.299	-584.5
3803.952	-579.5
3806.602	-573.5
3809.251	-586.5
3811.897	-579.5
3814.542	-571.5
3817.184	-586.5
3819.825	-580.5
3822.463	-577.5
3825.1	-585.5
3827.735	-588.5
3830.367	-583.5
3832.998	-592.5
3835.627	-594.5
3838.253	-589.5
3840.878	-591.5
3843.501	-593.5
3846.122	-589.5
3848.741	-594.5
3851.358	-593.5
3853.973	-592.5
3856.586	-589.5
3859.197	-596.5
3861.806	-594.5
3864.414	-590.5
3867.019	-584.5
3869.622	-595.5
3872.224	-584.5
3874.823	-575.5
3877.421	-554.5
3880.016	-543.5
3882.61	-504.5
3885.202	-506.5
3887.792	-533.5
3890.38	-555.5
3892.966	-577.5
3895.55	-586.5
3898.132	-595.5
3900.713	-596.5
3903.291	-602.5
3905.868	-608.5
3908.442	-601.5
3911.015	-602.5
3913.586	-604.5
3916.155	-603.5
3918.722	-604.5
3921.287	-605.5
3923.85	-608.5
3926.411	-606.5
3928.971	-605.5
3931.528	-607.5
3934.084	-601.5
3936.638	-609.5
3939.19	-607.5
3941.74	-613.5
3944.288	-611.5
3946.834	-608.5
3949.378	-609.5
3951.921	-609.5
3954.462	-605.5
3957	-606.5
3959.537	-602.5
3962.072	-600.5
3964.606	-600.5
3967.137	-607.5
3969.667	-605.5
3972.194	-600.5
3974.72	-598.5
3977.244	-602.5
3979.766	-598.5
3982.286	-598.5
3984.805	-585.5
3987.321	-593.5
3989.836	-593.5
3992.349	-594.5
3994.86	-592.5
3997.369	-604.5
3999.877	-592.5
4002.382	-589.5
4004.886	-598.5
4007.388	-599.5
4009.888	-594.5
4012.386	-591.5
4014.883	-597.5
4017.377	-599.5
4019.87	-593.5
4022.361	-594.5
4024.85	-595.5
4027.338	-595.5
4029.823	-591.5
4032.307	-598.5
4034.789	-600.5
4037.269	-600.5
4039.747	-603.5
4042.224	-586.5
4044.699	-596.5
4047.172	-603.5
4049.643	-594.5
4052.112	-596.5
4054.58	-589.5
4057.046	-601.5
4059.51	-596.5
4061.972	-602.5
4064.432	-598.5
4066.891	-595.5
4069.348	-599.5
4071.803	-601.5
4074.256	-593.5
4076.708	-595.5
4079.158	-597.5
4081.606	-589.5
4084.052	-590.5
4086.497	-602.5
4088.939	-595.5
4091.38	-591.5
4093.819	-592.5
4096.257	-628.5
4098.693	-630.5
4101.127	-628.5
4103.559	-629.5
4105.989	-371.5
4108.418	-360.5
4110.845	-337.5
4113.27	-305.5
4115.694	-274.5
4118.115	-230.5
4120.535	-594.5
4122.954	-603.5
4125.37	-595.5
4127.785	-594.5
4130.198	-599.5
4132.609	-589.5
4135.019	-629.5
4137.427	-627.5
4139.833	-625.5
4142.237	-627.5
