Data from 2018-2-7_conc=5_RamanShift_29.txt Node
Date: Tue Feb 13 14:18:13 IST 2018
User: aro
Spectrometer: QEPB0276
Trigger mode: 0
Integration Time (sec): 3.000000E1
Scans to average: 1
Electric dark correction enabled: true
Nonlinearity correction enabled: false
Boxcar width: 0
XAxis mode: Raman Shifts
Number of Pixels in Spectrum: 1044
>>>>>Begin Spectral Data<<<<<
160.701	-165.2
166.742	26.8
172.777	594.8
178.805	2268.8
184.826	6148.8
190.841	12785.8
196.849	20200.8
202.85	25437.8
208.845	27027.8
214.833	26650.8
220.815	26234.8
226.789	25956.8
232.758	25866.8
238.719	25595.8
244.674	25314.8
250.623	24792.8
256.565	24166.8
262.5	23705.8
268.429	23189.8
274.351	22832.8
280.267	22583.8
286.176	22328.8
292.079	22049.8
297.975	21830.8
303.865	21611.8
309.748	21479.8
315.625	21299.8
321.495	21186.8
327.359	21141.8
333.217	21040.8
339.068	21089.8
344.912	21008.8
350.751	21009.8
356.583	20954.8
362.408	20954.8
368.227	21015.8
374.04	20919.8
379.847	21030.8
385.647	21086.8
391.44	21117.8
397.228	21288.8
403.009	21293.8
408.784	21425.8
414.553	21509.8
420.315	21486.8
426.071	21576.8
431.821	21529.8
437.565	21448.8
443.302	21451.8
449.033	21432.8
454.758	21373.8
460.477	21293.8
466.189	21326.8
471.896	21241.8
477.596	21156.8
483.29	21131.8
488.978	21076.8
494.66	20992.8
500.335	20804.8
506.005	20653.8
511.668	20376.8
517.325	20153.8
522.977	19959.8
528.622	19819.8
534.261	19669.8
539.894	19567.8
545.521	19494.8
551.141	19372.8
556.756	19338.8
562.365	19244.8
567.968	19204.8
573.565	19072.8
579.155	19124.8
584.74	18929.8
590.319	18855.8
595.892	18837.8
601.459	18748.8
607.02	18692.8
612.575	18502.8
618.124	18469.8
623.667	18295.8
629.204	18268.8
634.735	18103.8
640.261	18058.8
645.781	18045.8
651.294	18018.8
656.802	17932.8
662.304	17900.8
667.8	17893.8
673.29	17888.8
678.775	17877.8
684.254	17689.8
689.726	17672.8
695.193	17634.8
700.655	17614.8
706.11	17464.8
711.56	17375.8
717.004	17293.8
722.442	17165.8
727.874	17164.8
733.301	17066.8
738.722	17095.8
744.137	17040.8
749.547	17064.8
754.951	16976.8
760.349	16945.8
765.741	17042.8
771.128	17068.8
776.509	17000.8
781.885	17004.8
787.254	17008.8
792.618	16916.8
797.977	16834.8
803.33	16729.8
808.677	16550.8
814.019	16481.8
819.355	16402.8
824.686	16377.8
830.011	16314.8
835.33	16299.8
840.644	16299.8
845.952	16375.8
851.255	16371.8
856.552	16415.8
861.844	16346.8
867.13	16346.8
872.41	16286.8
877.686	16133.8
882.955	16050.8
888.219	15897.8
893.478	15744.8
898.731	15545.8
903.979	15357.8
909.221	15268.8
914.458	15222.8
919.69	15209.8
924.916	15244.8
930.136	15270.8
935.351	15321.8
940.561	15304.8
945.766	15309.8
950.965	15187.8
956.158	15040.8
961.347	14928.8
966.529	14747.8
971.707	14516.8
976.879	14418.8
982.046	14222.8
987.208	14230.8
992.364	14227.8
997.515	14349.8
1002.66	14460.8
1007.801	14621.8
1012.936	14686.8
1018.066	14758.8
1023.19	14717.8
1028.309	14707.8
1033.423	14625.8
1038.532	14556.8
1043.636	14494.8
1048.734	14301.8
1053.827	14102.8
1058.915	13942.8
1063.998	13840.8
1069.075	13833.8
1074.147	13857.8
1079.214	13856.8
1084.276	13988.8
1089.333	14065.8
1094.385	14091.8
1099.431	14160.8
1104.472	14129.8
1109.509	14063.8
1114.54	13864.8
1119.565	13711.8
1124.586	13577.8
1129.602	13435.8
1134.613	13325.8
1139.618	13267.8
1144.619	13285.8
1149.614	13185.8
1154.604	13276.8
1159.589	13282.8
1164.57	13312.8
1169.545	13337.8
1174.515	13323.8
1179.48	13272.8
1184.44	13180.8
1189.395	13079.8
1194.345	12972.8
1199.29	12896.8
1204.23	12885.8
1209.165	12979.8
1214.095	13026.8
1219.021	13094.8
1223.941	13156.8
1228.856	13230.8
1233.766	13318.8
1238.672	13284.8
1243.572	13270.8
1248.467	13183.8
1253.358	13008.8
1258.244	12877.8
1263.124	12659.8
1268	12453.8
1272.871	12318.8
1277.737	12209.8
1282.599	12157.8
1287.455	12146.8
1292.306	12177.8
1297.153	12275.8
1301.995	12225.8
1306.832	12285.8
1311.664	12311.8
1316.491	12290.8
1321.314	12207.8
1326.132	11988.8
1330.945	11712.8
1335.753	11471.8
1340.556	11124.8
1345.354	10941.8
1350.148	10698.8
1354.937	10663.8
1359.722	10608.8
1364.501	10697.8
1369.276	10803.8
1374.046	10932.8
1378.811	11064.8
1383.572	11179.8
1388.327	11185.8
1393.079	11188.8
1397.825	11036.8
1402.567	10866.8
1407.304	10784.8
1412.036	10659.8
1416.764	10625.8
1421.487	10559.8
1426.205	10506.8
1430.919	10481.8
1435.628	10469.8
1440.333	10504.8
1445.032	10511.8
1449.727	10532.8
1454.418	10517.8
1459.104	10392.8
1463.785	10150.8
1468.462	9963.8
1473.134	9712.8
1477.802	9490.8
1482.465	9338.8
1487.123	9230.8
1491.777	9187.8
1496.426	9240.8
1501.071	9362.8
1505.711	9457.8
1510.347	9672.8
1514.978	9796.8
1519.604	9911.8
1524.226	10010.8
1528.844	10072.8
1533.457	10012.8
1538.065	10012.8
1542.669	9965.8
1547.269	9848.8
1551.864	9826.8
1556.454	9778.8
1561.041	9825.8
1565.622	9781.8
1570.199	9822.8
1574.772	9879.8
1579.34	9964.8
1583.904	10038.8
1588.464	10054.8
1593.019	10054.8
1597.569	9995.8
1602.115	9977.8
1606.657	9936.8
1611.195	9875.8
1615.728	9775.8
1620.256	9755.8
1624.78	9784.8
1629.3	9765.8
1633.816	9837.8
1638.327	9865.8
1642.834	9949.8
1647.336	9933.8
1651.834	9956.8
1656.328	9914.8
1660.817	9849.8
1665.302	9755.8
1669.783	9599.8
1674.259	9345.8
1678.732	9061.8
1683.199	8797.8
1687.663	8407.8
1692.122	8188.8
1696.577	8011.8
1701.028	7984.8
1705.474	8055.8
1709.917	8100.8
1714.355	8122.8
1718.788	8062.8
1723.218	7960.8
1727.643	7836.8
1732.064	7675.8
1736.481	7514.8
1740.893	7312.8
1745.301	7104.8
1749.705	6957.8
1754.105	6738.8
1758.501	6518.8
1762.893	6377.8
1767.28	6221.8
1771.663	6048.8
1776.042	5948.8
1780.417	5925.8
1784.787	5875.8
1789.154	5916.8
1793.516	6058.8
1797.874	6180.8
1802.228	6246.8
1806.578	6312.8
1810.924	6321.8
1815.266	6268.8
1819.603	6156.8
1823.937	6119.8
1828.266	5950.8
1832.591	5894.8
1836.913	5796.8
1841.23	5798.8
1845.543	5719.8
1849.852	5686.8
1854.156	5696.8
1858.457	5665.8
1862.754	5690.8
1867.047	5646.8
1871.335	5661.8
1875.62	5619.8
1879.9	5628.8
1884.177	5539.8
1888.449	5521.8
1892.718	5467.8
1896.982	5378.8
1901.243	5328.8
1905.499	5298.8
1909.752	5282.8
1914	5271.8
1918.245	5264.8
1922.485	5336.8
1926.722	5374.8
1930.954	5446.8
1935.183	5503.8
1939.408	5544.8
1943.628	5605.8
1947.845	5595.8
1952.058	5584.8
1956.267	5548.8
1960.472	5495.8
1964.673	5419.8
1968.87	5342.8
1973.063	5263.8
1977.252	5168.8
1981.438	5130.8
1985.619	5097.8
1989.797	5027.8
1993.971	5030.8
1998.14	4989.8
2002.306	4979.8
2006.469	4947.8
2010.627	4952.8
2014.781	4914.8
2018.932	4865.8
2023.078	4848.8
2027.221	4748.8
2031.36	4682.8
2035.495	4599.8
2039.627	4546.8
2043.754	4495.8
2047.878	4415.8
2051.998	4448.8
2056.114	4420.8
2060.226	4351.8
2064.334	4391.8
2068.439	4399.8
2072.54	4445.8
2076.637	4462.8
2080.73	4479.8
2084.82	4501.8
2088.906	4518.8
2092.988	4540.8
2097.066	4499.8
2101.14	4468.8
2105.211	4449.8
2109.278	4425.8
2113.342	4407.8
2117.401	4351.8
2121.457	4356.8
2125.509	4326.8
2129.558	4323.8
2133.602	4285.8
2137.643	4268.8
2141.681	4242.8
2145.714	4219.8
2149.744	4219.8
2153.77	4186.8
2157.793	4140.8
2161.812	4104.8
2165.827	4009.8
2169.838	3958.8
2173.846	3910.8
2177.851	3840.8
2181.851	3771.8
2185.848	3725.8
2189.841	3708.8
2193.831	3651.8
2197.817	3641.8
2201.799	3630.8
2205.778	3592.8
2209.753	3619.8
2213.725	3593.8
2217.693	3566.8
2221.657	3551.8
2225.618	3529.8
2229.575	3524.8
2233.529	3457.8
2237.479	3457.8
2241.425	3431.8
2245.368	3360.8
2249.307	3344.8
2253.243	3281.8
2257.175	3252.8
2261.104	3199.8
2265.029	3162.8
2268.95	3108.8
2272.868	3083.8
2276.783	3068.8
2280.694	3023.8
2284.601	3025.8
2288.505	2980.8
2292.405	2954.8
2296.302	2902.8
2300.195	2881.8
2304.085	2858.8
2307.971	2822.8
2311.854	2761.8
2315.734	2738.8
2319.609	2700.8
2323.482	2658.8
2327.351	2617.8
2331.216	2623.8
2335.078	2595.8
2338.937	2596.8
2342.792	2583.8
2346.643	2554.8
2350.492	2581.8
2354.336	2589.8
2358.178	2594.8
2362.015	2627.8
2365.85	2594.8
2369.681	2607.8
2373.508	2595.8
2377.333	2598.8
2381.153	2603.8
2384.971	2583.8
2388.785	2548.8
2392.595	2548.8
2396.402	2520.8
2400.206	2513.8
2404.007	2471.8
2407.804	2455.8
2411.597	2450.8
2415.388	2456.8
2419.174	2416.8
2422.958	2395.8
2426.738	2377.8
2430.515	2360.8
2434.289	2349.8
2438.059	2322.8
2441.825	2318.8
2445.589	2295.8
2449.349	2248.8
2453.106	2228.8
2456.859	2192.8
2460.61	2153.8
2464.356	2136.8
2468.1	2138.8
2471.84	2087.8
2475.577	2092.8
2479.311	2068.8
2483.041	2069.8
2486.768	2052.8
2490.492	2034.8
2494.213	2011.8
2497.93	2039.8
2501.644	2010.8
2505.355	2003.8
2509.062	2000.8
2512.766	1967.8
2516.467	1946.8
2520.165	1945.8
2523.859	1942.8
2527.551	1917.8
2531.239	1901.8
2534.923	1901.8
2538.605	1872.8
2542.283	1878.8
2545.958	1889.8
2549.63	1862.8
2553.299	1843.8
2556.964	1873.8
2560.626	1840.8
2564.285	1872.8
2567.941	1852.8
2571.594	1841.8
2575.243	1818.8
2578.89	1804.8
2582.533	1794.8
2586.173	1798.8
2589.809	1773.8
2593.443	1758.8
2597.073	1735.8
2600.701	1716.8
2604.325	1714.8
2607.946	1724.8
2611.564	1670.8
2615.178	1684.8
2618.79	1652.8
2622.398	1664.8
2626.004	1656.8
2629.606	1626.8
2633.205	1584.8
2636.801	1574.8
2640.394	1552.8
2643.983	1550.8
2647.57	1504.8
2651.153	1493.8
2654.734	1462.8
2658.311	1444.8
2661.885	1424.8
2665.456	1421.8
2669.025	1408.8
2672.589	1379.8
2676.151	1356.8
2679.71	1342.8
2683.266	1321.8
2686.819	1305.8
2690.368	1264.8
2693.915	1255.8
2697.458	1216.8
2700.999	1183.8
2704.536	1162.8
2708.071	1139.8
2711.602	1116.8
2715.13	1083.8
2718.656	1064.8
2722.178	1030.8
2725.697	1043.8
2729.214	1018.8
2732.727	1007.8
2736.237	983.8
2739.744	1007.8
2743.249	992.8
2746.75	998.8
2750.248	1015.8
2753.743	1014.8
2757.236	1035.8
2760.725	1037.8
2764.211	1055.8
2767.695	1048.8
2771.175	1042.8
2774.652	1028.8
2778.127	1033.8
2781.598	1023.8
2785.067	1032.8
2788.532	1022.8
2791.995	1031.8
2795.455	1017.8
2798.911	1034.8
2802.365	1024.8
2805.816	1032.8
2809.264	1031.8
2812.709	1039.8
2816.151	1019.8
2819.59	1020.8
2823.026	1020.8
2826.46	1024.8
2829.89	1033.8
2833.318	1027.8
2836.742	1042.8
2840.164	1051.8
2843.583	1059.8
2846.999	1058.8
2850.412	1089.8
2853.822	1091.8
2857.229	1091.8
2860.634	1101.8
2864.035	1140.8
2867.434	1168.8
2870.83	1185.8
2874.223	1211.8
2877.613	1223.8
2881	1267.8
2884.385	1258.8
2887.766	1250.8
2891.145	1240.8
2894.521	1241.8
2897.894	1241.8
2901.264	1241.8
2904.631	1254.8
2907.996	1253.8
2911.358	1274.8
2914.717	1273.8
2918.073	1303.8
2921.426	1286.8
2924.777	1294.8
2928.124	1348.8
2931.469	1367.8
2934.811	1400.8
2938.15	1390.8
2941.487	1393.8
2944.821	1409.8
2948.152	1401.8
2951.48	1384.8
2954.805	1405.8
2958.128	1358.8
2961.447	1366.8
2964.765	1368.8
2968.079	1360.8
2971.39	1393.8
2974.699	1397.8
2978.005	1399.8
2981.308	1436.8
2984.609	1450.8
2987.907	1483.8
2991.202	1513.8
2994.494	1560.8
2997.784	1560.8
3001.07	1606.8
3004.355	1619.8
3007.636	1640.8
3010.915	1677.8
3014.191	1704.8
3017.464	1696.8
3020.734	1715.8
3024.002	1709.8
3027.267	1729.8
3030.53	1766.8
3033.789	1772.8
3037.046	1776.8
3040.301	1812.8
3043.552	1839.8
3046.801	1897.8
3050.048	1925.8
3053.291	1973.8
3056.532	2037.8
3059.771	2107.8
3063.006	2141.8
3066.239	2209.8
3069.469	2273.8
3072.697	2350.8
3075.922	2400.8
3079.144	2449.8
3082.364	2516.8
3085.581	2546.8
3088.795	2616.8
3092.007	2700.8
3095.216	2711.8
3098.423	2785.8
3101.627	2827.8
3104.828	2896.8
3108.026	2987.8
3111.222	3059.8
3114.416	3103.8
3117.607	3207.8
3120.795	3254.8
3123.98	3324.8
3127.163	3393.8
3130.344	3477.8
3133.521	3566.8
3136.696	3658.8
3139.869	3712.8
3143.039	3750.8
3146.206	3858.8
3149.371	3874.8
3152.533	3939.8
3155.693	3947.8
3158.85	3957.8
3162.005	3999.8
3165.157	4016.8
3168.306	4001.8
3171.453	4037.8
3174.597	4032.8
3177.739	4054.8
3180.878	4034.8
3184.014	4043.8
3187.149	4061.8
3190.28	4076.8
3193.409	4067.8
3196.536	4077.8
3199.659	4071.8
3202.781	4078.8
3205.9	4143.8
3209.016	4079.8
3212.13	4065.8
3215.241	4058.8
3218.35	4028.8
3221.456	3978.8
3224.56	3922.8
3227.661	3853.8
3230.76	3863.8
3233.856	3784.8
3236.95	3745.8
3240.041	3741.8
3243.13	3681.8
3246.216	3666.8
3249.3	3674.8
3252.382	3629.8
3255.46	3599.8
3258.537	3645.8
3261.611	3612.8
3264.682	3617.8
3267.751	3618.8
3270.818	3611.8
3273.882	3599.8
3276.943	3571.8
3280.002	3529.8
3283.059	3495.8
3286.113	3480.8
3289.165	3433.8
3292.214	3379.8
3295.261	3346.8
3298.306	3290.8
3301.348	3231.8
3304.387	3174.8
3307.425	3120.8
3310.459	3094.8
3313.492	3052.8
3316.521	2981.8
3319.549	2954.8
3322.574	2936.8
3325.597	2880.8
3328.617	2870.8
3331.635	2871.8
3334.65	2866.8
3337.663	2812.8
3340.674	2829.8
3343.682	2822.8
3346.688	2828.8
3349.691	2809.8
3352.692	2762.8
3355.691	2751.8
3358.687	2709.8
3361.681	2705.8
3364.673	2698.8
3367.662	2635.8
3370.649	2578.8
3373.633	2584.8
3376.615	2524.8
3379.595	2465.8
3382.572	2424.8
3385.547	2396.8
3388.52	2390.8
3391.49	2320.8
3394.458	2286.8
3397.424	2272.8
3400.387	2254.8
3403.348	2214.8
3406.307	2187.8
3409.263	2194.8
3412.217	2114.8
3415.168	2117.8
3418.118	2092.8
3421.065	2076.8
3424.009	2010.8
3426.951	1984.8
3429.891	1950.8
3432.829	1908.8
3435.764	1866.8
3438.697	1825.8
3441.628	1761.8
3444.557	1724.8
3447.483	1671.8
3450.407	1616.8
3453.328	1577.8
3456.247	1516.8
3459.164	1452.8
3462.079	1398.8
3464.991	1360.8
3467.902	1294.8
3470.809	1259.8
3473.715	1194.8
3476.618	1135.8
3479.519	1141.8
3482.418	1086.8
3485.315	1043.8
3488.209	1026.8
3491.101	970.8
3493.99	946.8
3496.878	914.8
3499.763	856.8
3502.646	823.8
3505.527	798.8
3508.405	758.8
3511.281	729.8
3514.155	664.8
3517.027	611.8
3519.897	597.8
3522.764	557.8
3525.629	517.8
3528.492	469.8
3531.352	423.8
3534.211	376.8
3537.067	335.8
3539.921	313.8
3542.773	288.8
3545.622	239.8
3548.469	218.8
3551.315	176.8
3554.157	163.8
3556.998	132.8
3559.837	104.8
3562.673	80.8
3565.507	61.8
3568.339	40.8
3571.169	22.8
3573.996	-4.2
3576.822	-23.2
3579.645	-40.2
3582.466	-75.2
3585.285	-73.2
3588.101	-106.2
3590.916	-125.2
3593.728	-138.2
3596.538	-158.2
3599.346	-188.2
3602.152	-194.2
3604.956	-218.2
3607.757	-229.2
3610.556	-243.2
3613.354	-255.2
3616.149	-270.2
3618.942	-282.2
3621.732	-301.2
3624.521	-304.2
3627.307	-323.2
3630.092	-330.2
3632.874	-336.2
3635.654	-345.2
3638.432	-361.2
3641.208	-371.2
3643.982	-374.2
3646.753	-390.2
3649.523	-401.2
3652.29	-403.2
3655.055	-408.2
3657.818	-424.2
3660.579	-431.2
3663.338	-431.2
3666.095	-451.2
3668.849	-466.2
3671.602	-470.2
3674.352	-474.2
3677.101	-488.2
3679.847	-495.2
3682.591	-500.2
3685.333	-499.2
3688.073	-507.2
3690.811	-516.2
3693.547	-518.2
3696.281	-529.2
3699.013	-529.2
3701.742	-537.2
3704.47	-532.2
3707.195	-551.2
3709.919	-548.2
3712.64	-555.2
3715.359	-559.2
3718.076	-557.2
3720.792	-563.2
3723.505	-562.2
3726.216	-573.2
3728.925	-571.2
3731.632	-582.2
3734.336	-582.2
3737.039	-592.2
3739.74	-582.2
3742.439	-590.2
3745.136	-589.2
3747.83	-597.2
3750.523	-595.2
3753.213	-608.2
3755.902	-600.2
3758.589	-599.2
3761.273	-600.2
3763.956	-611.2
3766.636	-608.2
3769.315	-609.2
3771.991	-608.2
3774.665	-612.2
3777.338	-615.2
3780.008	-613.2
3782.677	-617.2
3785.343	-615.2
3788.007	-615.2
3790.67	-624.2
3793.33	-615.2
3795.989	-626.2
3798.645	-620.2
3801.299	-625.2
3803.952	-629.2
3806.602	-628.2
3809.251	-633.2
3811.897	-628.2
3814.542	-621.2
3817.184	-627.2
3819.825	-628.2
3822.463	-624.2
3825.1	-639.2
3827.735	-634.2
3830.367	-638.2
3832.998	-641.2
3835.627	-642.2
3838.253	-640.2
3840.878	-643.2
3843.501	-639.2
3846.122	-638.2
3848.741	-639.2
3851.358	-644.2
3853.973	-641.2
3856.586	-633.2
3859.197	-647.2
3861.806	-639.2
3864.414	-639.2
3867.019	-634.2
3869.622	-640.2
3872.224	-630.2
3874.823	-618.2
3877.421	-596.2
3880.016	-581.2
3882.61	-549.2
3885.202	-542.2
3887.792	-577.2
3890.38	-600.2
3892.966	-625.2
3895.55	-635.2
3898.132	-648.2
3900.713	-649.2
3903.291	-656.2
3905.868	-654.2
3908.442	-654.2
3911.015	-654.2
3913.586	-657.2
3916.155	-654.2
3918.722	-654.2
3921.287	-652.2
3923.85	-653.2
3926.411	-651.2
3928.971	-649.2
3931.528	-657.2
3934.084	-649.2
3936.638	-654.2
3939.19	-657.2
3941.74	-663.2
3944.288	-661.2
3946.834	-654.2
3949.378	-656.2
3951.921	-655.2
3954.462	-657.2
3957	-655.2
3959.537	-649.2
3962.072	-658.2
3964.606	-650.2
3967.137	-655.2
3969.667	-652.2
3972.194	-653.2
3974.72	-648.2
3977.244	-648.2
3979.766	-645.2
3982.286	-643.2
3984.805	-643.2
3987.321	-642.2
3989.836	-645.2
3992.349	-643.2
3994.86	-639.2
3997.369	-653.2
3999.877	-642.2
4002.382	-645.2
4004.886	-642.2
4007.388	-645.2
4009.888	-640.2
4012.386	-645.2
4014.883	-642.2
4017.377	-638.2
4019.87	-641.2
4022.361	-643.2
4024.85	-641.2
4027.338	-648.2
4029.823	-641.2
4032.307	-648.2
4034.789	-648.2
4037.269	-654.2
4039.747	-645.2
4042.224	-647.2
4044.699	-652.2
4047.172	-648.2
4049.643	-651.2
4052.112	-647.2
4054.58	-640.2
4057.046	-652.2
4059.51	-653.2
4061.972	-646.2
4064.432	-646.2
4066.891	-648.2
4069.348	-651.2
4071.803	-653.2
4074.256	-645.2
4076.708	-640.2
4079.158	-643.2
4081.606	-641.2
4084.052	-646.2
4086.497	-646.2
4088.939	-639.2
4091.38	-635.2
4093.819	-642.2
4096.257	-678.2
4098.693	-678.2
4101.127	-684.2
4103.559	-679.2
4105.989	-407.2
4108.418	-384.2
4110.845	-366.2
4113.27	-339.2
4115.694	-300.2
4118.115	-252.2
4120.535	-641.2
4122.954	-650.2
4125.37	-646.2
4127.785	-653.2
4130.198	-651.2
4132.609	-642.2
4135.019	-686.2
4137.427	-681.2
4139.833	-679.2
4142.237	-678.2
