Data from 2018-2-7_conc=6_RamanShift_24.txt Node
Date: Tue Feb 13 14:42:43 IST 2018
User: aro
Spectrometer: QEPB0276
Trigger mode: 0
Integration Time (sec): 3.000000E1
Scans to average: 1
Electric dark correction enabled: true
Nonlinearity correction enabled: false
Boxcar width: 0
XAxis mode: Raman Shifts
Number of Pixels in Spectrum: 1044
>>>>>Begin Spectral Data<<<<<
160.701	-150.1
166.742	33.9
172.777	554.9
178.805	2119.9
184.826	5848.9
190.841	12063.9
196.849	19147.9
202.85	23978.9
208.845	25537.9
214.833	25225.9
220.815	24747.9
226.789	24437.9
232.758	24411.9
238.719	24245.9
244.674	23872.9
250.623	23425.9
256.565	22820.9
262.5	22351.9
268.429	21908.9
274.351	21609.9
280.267	21325.9
286.176	21009.9
292.079	20848.9
297.975	20601.9
303.865	20349.9
309.748	20255.9
315.625	20039.9
321.495	20012.9
327.359	19889.9
333.217	19833.9
339.068	19851.9
344.912	19817.9
350.751	19767.9
356.583	19728.9
362.408	19722.9
368.227	19745.9
374.04	19738.9
379.847	19771.9
385.647	19888.9
391.44	19947.9
397.228	20031.9
403.009	20151.9
408.784	20120.9
414.553	20264.9
420.315	20278.9
426.071	20342.9
431.821	20244.9
437.565	20263.9
443.302	20253.9
449.033	20189.9
454.758	20144.9
460.477	20105.9
466.189	20052.9
471.896	20039.9
477.596	19950.9
483.29	19903.9
488.978	19884.9
494.66	19808.9
500.335	19650.9
506.005	19449.9
511.668	19224.9
517.325	18982.9
522.977	18896.9
528.622	18766.9
534.261	18667.9
539.894	18502.9
545.521	18407.9
551.141	18337.9
556.756	18314.9
562.365	18203.9
567.968	18143.9
573.565	18126.9
579.155	18019.9
584.74	17856.9
590.319	17866.9
595.892	17788.9
601.459	17789.9
607.02	17684.9
612.575	17601.9
618.124	17414.9
623.667	17361.9
629.204	17256.9
634.735	17171.9
640.261	17077.9
645.781	17050.9
651.294	16978.9
656.802	16994.9
662.304	16959.9
667.8	16916.9
673.29	16951.9
678.775	16875.9
684.254	16783.9
689.726	16789.9
695.193	16698.9
700.655	16660.9
706.11	16614.9
711.56	16476.9
717.004	16347.9
722.442	16270.9
727.874	16232.9
733.301	16227.9
738.722	16130.9
744.137	16124.9
749.547	16097.9
754.951	16119.9
760.349	16090.9
765.741	16086.9
771.128	16099.9
776.509	16215.9
781.885	16118.9
787.254	16113.9
792.618	16029.9
797.977	15900.9
803.33	15817.9
808.677	15694.9
814.019	15663.9
819.355	15514.9
824.686	15501.9
830.011	15468.9
835.33	15456.9
840.644	15510.9
845.952	15448.9
851.255	15576.9
856.552	15502.9
861.844	15497.9
867.13	15489.9
872.41	15433.9
877.686	15322.9
882.955	15190.9
888.219	15099.9
893.478	14919.9
898.731	14789.9
903.979	14611.9
909.221	14471.9
914.458	14445.9
919.69	14405.9
924.916	14439.9
930.136	14528.9
935.351	14487.9
940.561	14566.9
945.766	14492.9
950.965	14432.9
956.158	14328.9
961.347	14165.9
966.529	13963.9
971.707	13829.9
976.879	13651.9
982.046	13530.9
987.208	13544.9
992.364	13515.9
997.515	13579.9
1002.66	13712.9
1007.801	13872.9
1012.936	13974.9
1018.066	13997.9
1023.19	13963.9
1028.309	13931.9
1033.423	13933.9
1038.532	13884.9
1043.636	13755.9
1048.734	13582.9
1053.827	13332.9
1058.915	13230.9
1063.998	13142.9
1069.075	13090.9
1074.147	13104.9
1079.214	13151.9
1084.276	13215.9
1089.333	13306.9
1094.385	13429.9
1099.431	13481.9
1104.472	13397.9
1109.509	13373.9
1114.54	13153.9
1119.565	13038.9
1124.586	12893.9
1129.602	12724.9
1134.613	12634.9
1139.618	12546.9
1144.619	12571.9
1149.614	12592.9
1154.604	12575.9
1159.589	12625.9
1164.57	12643.9
1169.545	12647.9
1174.515	12649.9
1179.48	12561.9
1184.44	12501.9
1189.395	12376.9
1194.345	12291.9
1199.29	12253.9
1204.23	12248.9
1209.165	12311.9
1214.095	12398.9
1219.021	12431.9
1223.941	12491.9
1228.856	12605.9
1233.766	12554.9
1238.672	12658.9
1243.572	12625.9
1248.467	12566.9
1253.358	12375.9
1258.244	12183.9
1263.124	12021.9
1268	11879.9
1272.871	11747.9
1277.737	11628.9
1282.599	11551.9
1287.455	11572.9
1292.306	11604.9
1297.153	11628.9
1301.995	11710.9
1306.832	11741.9
1311.664	11711.9
1316.491	11677.9
1321.314	11631.9
1326.132	11433.9
1330.945	11132.9
1335.753	10854.9
1340.556	10597.9
1345.354	10376.9
1350.148	10199.9
1354.937	10143.9
1359.722	10123.9
1364.501	10140.9
1369.276	10238.9
1374.046	10399.9
1378.811	10536.9
1383.572	10685.9
1388.327	10702.9
1393.079	10648.9
1397.825	10542.9
1402.567	10398.9
1407.304	10236.9
1412.036	10148.9
1416.764	10076.9
1421.487	10010.9
1426.205	9998.9
1430.919	9966.9
1435.628	9949.9
1440.333	9985.9
1445.032	10003.9
1449.727	10080.9
1454.418	9994.9
1459.104	9875.9
1463.785	9730.9
1468.462	9469.9
1473.134	9275.9
1477.802	9099.9
1482.465	8877.9
1487.123	8777.9
1491.777	8788.9
1496.426	8823.9
1501.071	8868.9
1505.711	9034.9
1510.347	9149.9
1514.978	9313.9
1519.604	9503.9
1524.226	9592.9
1528.844	9585.9
1533.457	9580.9
1538.065	9537.9
1542.669	9461.9
1547.269	9385.9
1551.864	9357.9
1556.454	9312.9
1561.041	9383.9
1565.622	9357.9
1570.199	9358.9
1574.772	9388.9
1579.34	9485.9
1583.904	9544.9
1588.464	9586.9
1593.019	9585.9
1597.569	9581.9
1602.115	9487.9
1606.657	9423.9
1611.195	9373.9
1615.728	9366.9
1620.256	9301.9
1624.78	9277.9
1629.3	9330.9
1633.816	9350.9
1638.327	9381.9
1642.834	9430.9
1647.336	9490.9
1651.834	9460.9
1656.328	9438.9
1660.817	9389.9
1665.302	9246.9
1669.783	9091.9
1674.259	8865.9
1678.732	8602.9
1683.199	8339.9
1687.663	8062.9
1692.122	7743.9
1696.577	7646.9
1701.028	7601.9
1705.474	7642.9
1709.917	7741.9
1714.355	7742.9
1718.788	7669.9
1723.218	7605.9
1727.643	7454.9
1732.064	7307.9
1736.481	7154.9
1740.893	6970.9
1745.301	6800.9
1749.705	6593.9
1754.105	6402.9
1758.501	6240.9
1762.893	6074.9
1767.28	5869.9
1771.663	5739.9
1776.042	5677.9
1780.417	5563.9
1784.787	5577.9
1789.154	5601.9
1793.516	5719.9
1797.874	5789.9
1802.228	5943.9
1806.578	6009.9
1810.924	6006.9
1815.266	5934.9
1819.603	5853.9
1823.937	5786.9
1828.266	5691.9
1832.591	5610.9
1836.913	5553.9
1841.23	5524.9
1845.543	5465.9
1849.852	5432.9
1854.156	5410.9
1858.457	5398.9
1862.754	5371.9
1867.047	5386.9
1871.335	5331.9
1875.62	5351.9
1879.9	5326.9
1884.177	5307.9
1888.449	5235.9
1892.718	5149.9
1896.982	5130.9
1901.243	5081.9
1905.499	4996.9
1909.752	5003.9
1914	5011.9
1918.245	4993.9
1922.485	5035.9
1926.722	5072.9
1930.954	5152.9
1935.183	5181.9
1939.408	5271.9
1943.628	5285.9
1947.845	5282.9
1952.058	5283.9
1956.267	5228.9
1960.472	5234.9
1964.673	5130.9
1968.87	5060.9
1973.063	4979.9
1977.252	4904.9
1981.438	4869.9
1985.619	4854.9
1989.797	4751.9
1993.971	4762.9
1998.14	4746.9
2002.306	4702.9
2006.469	4694.9
2010.627	4659.9
2014.781	4657.9
2018.932	4626.9
2023.078	4574.9
2027.221	4533.9
2031.36	4439.9
2035.495	4375.9
2039.627	4300.9
2043.754	4228.9
2047.878	4207.9
2051.998	4150.9
2056.114	4179.9
2060.226	4134.9
2064.334	4168.9
2068.439	4147.9
2072.54	4188.9
2076.637	4209.9
2080.73	4244.9
2084.82	4259.9
2088.906	4291.9
2092.988	4298.9
2097.066	4254.9
2101.14	4240.9
2105.211	4203.9
2109.278	4177.9
2113.342	4150.9
2117.401	4131.9
2121.457	4141.9
2125.509	4109.9
2129.558	4082.9
2133.602	4035.9
2137.643	4060.9
2141.681	4022.9
2145.714	4033.9
2149.744	3997.9
2153.77	3952.9
2157.793	3900.9
2161.812	3905.9
2165.827	3799.9
2169.838	3746.9
2173.846	3711.9
2177.851	3643.9
2181.851	3584.9
2185.848	3566.9
2189.841	3501.9
2193.831	3473.9
2197.817	3467.9
2201.799	3443.9
2205.778	3438.9
2209.753	3381.9
2213.725	3391.9
2217.693	3383.9
2221.657	3361.9
2225.618	3344.9
2229.575	3326.9
2233.529	3320.9
2237.479	3276.9
2241.425	3259.9
2245.368	3183.9
2249.307	3148.9
2253.243	3128.9
2257.175	3093.9
2261.104	3040.9
2265.029	3004.9
2268.95	2962.9
2272.868	2932.9
2276.783	2905.9
2280.694	2887.9
2284.601	2853.9
2288.505	2832.9
2292.405	2807.9
2296.302	2761.9
2300.195	2748.9
2304.085	2702.9
2307.971	2671.9
2311.854	2642.9
2315.734	2592.9
2319.609	2555.9
2323.482	2545.9
2327.351	2499.9
2331.216	2500.9
2335.078	2487.9
2338.937	2474.9
2342.792	2428.9
2346.643	2416.9
2350.492	2447.9
2354.336	2471.9
2358.178	2449.9
2362.015	2465.9
2365.85	2476.9
2369.681	2471.9
2373.508	2466.9
2377.333	2461.9
2381.153	2482.9
2384.971	2443.9
2388.785	2439.9
2392.595	2432.9
2396.402	2402.9
2400.206	2358.9
2404.007	2363.9
2407.804	2358.9
2411.597	2319.9
2415.388	2304.9
2419.174	2306.9
2422.958	2297.9
2426.738	2292.9
2430.515	2250.9
2434.289	2242.9
2438.059	2211.9
2441.825	2189.9
2445.589	2169.9
2449.349	2157.9
2453.106	2138.9
2456.859	2097.9
2460.61	2066.9
2464.356	2032.9
2468.1	2024.9
2471.84	1990.9
2475.577	1960.9
2479.311	1972.9
2483.041	1972.9
2486.768	1942.9
2490.492	1948.9
2494.213	1937.9
2497.93	1914.9
2501.644	1919.9
2505.355	1876.9
2509.062	1897.9
2512.766	1886.9
2516.467	1855.9
2520.165	1846.9
2523.859	1856.9
2527.551	1833.9
2531.239	1806.9
2534.923	1790.9
2538.605	1790.9
2542.283	1781.9
2545.958	1779.9
2549.63	1775.9
2553.299	1778.9
2556.964	1766.9
2560.626	1768.9
2564.285	1760.9
2567.941	1735.9
2571.594	1745.9
2575.243	1744.9
2578.89	1718.9
2582.533	1711.9
2586.173	1695.9
2589.809	1689.9
2593.443	1680.9
2597.073	1647.9
2600.701	1651.9
2604.325	1619.9
2607.946	1621.9
2611.564	1608.9
2615.178	1609.9
2618.79	1582.9
2622.398	1560.9
2626.004	1569.9
2629.606	1517.9
2633.205	1523.9
2636.801	1473.9
2640.394	1476.9
2643.983	1458.9
2647.57	1430.9
2651.153	1427.9
2654.734	1394.9
2658.311	1370.9
2661.885	1331.9
2665.456	1330.9
2669.025	1322.9
2672.589	1305.9
2676.151	1284.9
2679.71	1275.9
2683.266	1236.9
2686.819	1217.9
2690.368	1201.9
2693.915	1188.9
2697.458	1142.9
2700.999	1124.9
2704.536	1109.9
2708.071	1082.9
2711.602	1069.9
2715.13	1031.9
2718.656	1003.9
2722.178	966.9
2725.697	985.9
2729.214	955.9
2732.727	949.9
2736.237	938.9
2739.744	951.9
2743.249	935.9
2746.75	949.9
2750.248	946.9
2753.743	945.9
2757.236	962.9
2760.725	963.9
2764.211	988.9
2767.695	996.9
2771.175	993.9
2774.652	995.9
2778.127	986.9
2781.598	978.9
2785.067	945.9
2788.532	979.9
2791.995	963.9
2795.455	955.9
2798.911	966.9
2802.365	975.9
2805.816	955.9
2809.264	978.9
2812.709	968.9
2816.151	965.9
2819.59	955.9
2823.026	968.9
2826.46	962.9
2829.89	984.9
2833.318	972.9
2836.742	989.9
2840.164	995.9
2843.583	1005.9
2846.999	1010.9
2850.412	1025.9
2853.822	1015.9
2857.229	1052.9
2860.634	1066.9
2864.035	1066.9
2867.434	1100.9
2870.83	1124.9
2874.223	1140.9
2877.613	1166.9
2881	1168.9
2884.385	1184.9
2887.766	1190.9
2891.145	1210.9
2894.521	1187.9
2897.894	1195.9
2901.264	1185.9
2904.631	1178.9
2907.996	1184.9
2911.358	1206.9
2914.717	1197.9
2918.073	1208.9
2921.426	1219.9
2924.777	1239.9
2928.124	1253.9
2931.469	1274.9
2934.811	1296.9
2938.15	1318.9
2941.487	1354.9
2944.821	1335.9
2948.152	1344.9
2951.48	1311.9
2954.805	1306.9
2958.128	1308.9
2961.447	1276.9
2964.765	1278.9
2968.079	1276.9
2971.39	1277.9
2974.699	1313.9
2978.005	1328.9
2981.308	1348.9
2984.609	1372.9
2987.907	1401.9
2991.202	1434.9
2994.494	1445.9
2997.784	1491.9
3001.07	1515.9
3004.355	1553.9
3007.636	1543.9
3010.915	1563.9
3014.191	1598.9
3017.464	1591.9
3020.734	1605.9
3024.002	1636.9
3027.267	1630.9
3030.53	1647.9
3033.789	1668.9
3037.046	1687.9
3040.301	1710.9
3043.552	1736.9
3046.801	1789.9
3050.048	1826.9
3053.291	1875.9
3056.532	1928.9
3059.771	1983.9
3063.006	2036.9
3066.239	2089.9
3069.469	2170.9
3072.697	2214.9
3075.922	2262.9
3079.144	2321.9
3082.364	2377.9
3085.581	2444.9
3088.795	2505.9
3092.007	2534.9
3095.216	2575.9
3098.423	2652.9
3101.627	2685.9
3104.828	2740.9
3108.026	2804.9
3111.222	2899.9
3114.416	2953.9
3117.607	3030.9
3120.795	3087.9
3123.98	3161.9
3127.163	3228.9
3130.344	3315.9
3133.521	3422.9
3136.696	3488.9
3139.869	3544.9
3143.039	3612.9
3146.206	3653.9
3149.371	3714.9
3152.533	3719.9
3155.693	3756.9
3158.85	3795.9
3162.005	3808.9
3165.157	3791.9
3168.306	3829.9
3171.453	3824.9
3174.597	3804.9
3177.739	3847.9
3180.878	3849.9
3184.014	3851.9
3187.149	3834.9
3190.28	3863.9
3193.409	3882.9
3196.536	3885.9
3199.659	3867.9
3202.781	3893.9
3205.9	3868.9
3209.016	3861.9
3212.13	3886.9
3215.241	3828.9
3218.35	3783.9
3221.456	3778.9
3224.56	3704.9
3227.661	3666.9
3230.76	3618.9
3233.856	3591.9
3236.95	3575.9
3240.041	3538.9
3243.13	3514.9
3246.216	3446.9
3249.3	3468.9
3252.382	3428.9
3255.46	3412.9
3258.537	3406.9
3261.611	3402.9
3264.682	3411.9
3267.751	3427.9
3270.818	3416.9
3273.882	3399.9
3276.943	3394.9
3280.002	3363.9
3283.059	3324.9
3286.113	3269.9
3289.165	3264.9
3292.214	3193.9
3295.261	3174.9
3298.306	3086.9
3301.348	3045.9
3304.387	3004.9
3307.425	2959.9
3310.459	2906.9
3313.492	2865.9
3316.521	2812.9
3319.549	2812.9
3322.574	2769.9
3325.597	2735.9
3328.617	2739.9
3331.635	2718.9
3334.65	2711.9
3337.663	2668.9
3340.674	2676.9
3343.682	2661.9
3346.688	2657.9
3349.691	2621.9
3352.692	2615.9
3355.691	2614.9
3358.687	2563.9
3361.681	2560.9
3364.673	2514.9
3367.662	2490.9
3370.649	2454.9
3373.633	2428.9
3376.615	2364.9
3379.595	2359.9
3382.572	2311.9
3385.547	2276.9
3388.52	2249.9
3391.49	2191.9
3394.458	2193.9
3397.424	2155.9
3400.387	2129.9
3403.348	2102.9
3406.307	2073.9
3409.263	2037.9
3412.217	2026.9
3415.168	1999.9
3418.118	1977.9
3421.065	1934.9
3424.009	1929.9
3426.951	1871.9
3429.891	1859.9
3432.829	1823.9
3435.764	1793.9
3438.697	1731.9
3441.628	1700.9
3444.557	1625.9
3447.483	1577.9
3450.407	1531.9
3453.328	1465.9
3456.247	1430.9
3459.164	1379.9
3462.079	1336.9
3464.991	1289.9
3467.902	1220.9
3470.809	1187.9
3473.715	1139.9
3476.618	1091.9
3479.519	1056.9
3482.418	1018.9
3485.315	974.9
3488.209	959.9
3491.101	924.9
3493.99	896.9
3496.878	850.9
3499.763	818.9
3502.646	774.9
3505.527	749.9
3508.405	715.9
3511.281	665.9
3514.155	652.9
3517.027	594.9
3519.897	547.9
3522.764	515.9
3525.629	478.9
3528.492	437.9
3531.352	401.9
3534.211	355.9
3537.067	323.9
3539.921	300.9
3542.773	267.9
3545.622	228.9
3548.469	196.9
3551.315	178.9
3554.157	149.9
3556.998	126.9
3559.837	90.9
3562.673	76.9
3565.507	61.9
3568.339	36.9
3571.169	15.9
3573.996	-5.1
3576.822	-31.1
3579.645	-41.1
3582.466	-80.1
3585.285	-81.1
3588.101	-94.1
3590.916	-118.1
3593.728	-146.1
3596.538	-157.1
3599.346	-179.1
3602.152	-187.1
3604.956	-194.1
3607.757	-216.1
3610.556	-223.1
3613.354	-244.1
3616.149	-258.1
3618.942	-274.1
3621.732	-283.1
3624.521	-295.1
3627.307	-291.1
3630.092	-316.1
3632.874	-319.1
3635.654	-333.1
3638.432	-329.1
3641.208	-344.1
3643.982	-359.1
3646.753	-355.1
3649.523	-373.1
3652.29	-386.1
3655.055	-385.1
3657.818	-397.1
3660.579	-409.1
3663.338	-408.1
3666.095	-420.1
3668.849	-435.1
3671.602	-437.1
3674.352	-439.1
3677.101	-451.1
3679.847	-466.1
3682.591	-465.1
3685.333	-468.1
3688.073	-474.1
3690.811	-483.1
3693.547	-486.1
3696.281	-501.1
3699.013	-490.1
3701.742	-506.1
3704.47	-509.1
3707.195	-518.1
3709.919	-514.1
3712.64	-513.1
3715.359	-528.1
3718.076	-528.1
3720.792	-534.1
3723.505	-525.1
3726.216	-532.1
3728.925	-534.1
3731.632	-550.1
3734.336	-546.1
3737.039	-557.1
3739.74	-547.1
3742.439	-554.1
3745.136	-553.1
3747.83	-557.1
3750.523	-555.1
3753.213	-563.1
3755.902	-562.1
3758.589	-561.1
3761.273	-564.1
3763.956	-572.1
3766.636	-571.1
3769.315	-567.1
3771.991	-575.1
3774.665	-575.1
3777.338	-576.1
3780.008	-570.1
3782.677	-576.1
3785.343	-579.1
3788.007	-575.1
3790.67	-580.1
3793.33	-583.1
3795.989	-583.1
3798.645	-585.1
3801.299	-589.1
3803.952	-588.1
3806.602	-592.1
3809.251	-592.1
3811.897	-587.1
3814.542	-580.1
3817.184	-589.1
3819.825	-590.1
3822.463	-589.1
3825.1	-595.1
3827.735	-597.1
3830.367	-596.1
3832.998	-598.1
3835.627	-602.1
3838.253	-608.1
3840.878	-601.1
3843.501	-603.1
3846.122	-600.1
3848.741	-599.1
3851.358	-605.1
3853.973	-601.1
3856.586	-596.1
3859.197	-604.1
3861.806	-605.1
3864.414	-594.1
3867.019	-591.1
3869.622	-600.1
3872.224	-596.1
3874.823	-583.1
3877.421	-565.1
3880.016	-551.1
3882.61	-516.1
3885.202	-514.1
3887.792	-534.1
3890.38	-564.1
3892.966	-583.1
3895.55	-594.1
3898.132	-605.1
3900.713	-611.1
3903.291	-614.1
3905.868	-616.1
3908.442	-618.1
3911.015	-613.1
3913.586	-620.1
3916.155	-612.1
3918.722	-611.1
3921.287	-618.1
3923.85	-614.1
3926.411	-614.1
3928.971	-620.1
3931.528	-615.1
3934.084	-609.1
3936.638	-620.1
3939.19	-621.1
3941.74	-624.1
3944.288	-623.1
3946.834	-622.1
3949.378	-621.1
3951.921	-618.1
3954.462	-619.1
3957	-618.1
3959.537	-612.1
3962.072	-617.1
3964.606	-611.1
3967.137	-627.1
3969.667	-613.1
3972.194	-614.1
3974.72	-611.1
3977.244	-609.1
3979.766	-615.1
3982.286	-609.1
3984.805	-599.1
3987.321	-602.1
3989.836	-608.1
3992.349	-605.1
3994.86	-603.1
3997.369	-609.1
3999.877	-605.1
4002.382	-602.1
4004.886	-609.1
4007.388	-606.1
4009.888	-599.1
4012.386	-601.1
4014.883	-598.1
4017.377	-602.1
4019.87	-607.1
4022.361	-602.1
4024.85	-609.1
4027.338	-604.1
4029.823	-604.1
4032.307	-608.1
4034.789	-612.1
4037.269	-619.1
4039.747	-611.1
4042.224	-604.1
4044.699	-615.1
4047.172	-610.1
4049.643	-608.1
4052.112	-607.1
4054.58	-604.1
4057.046	-611.1
4059.51	-605.1
4061.972	-613.1
4064.432	-608.1
4066.891	-606.1
4069.348	-615.1
4071.803	-611.1
4074.256	-605.1
4076.708	-609.1
4079.158	-608.1
4081.606	-601.1
4084.052	-603.1
4086.497	-611.1
4088.939	-605.1
4091.38	-592.1
4093.819	-604.1
4096.257	-640.1
4098.693	-639.1
4101.127	-638.1
4103.559	-638.1
4105.989	-380.1
4108.418	-369.1
4110.845	-334.1
4113.27	-322.1
4115.694	-274.1
4118.115	-229.1
4120.535	-605.1
4122.954	-616.1
4125.37	-606.1
4127.785	-606.1
4130.198	-612.1
4132.609	-605.1
4135.019	-645.1
4137.427	-637.1
4139.833	-638.1
4142.237	-638.1
