Data from 2018-2-7_conc=5_RamanShift_15.txt Node
Date: Tue Feb 13 14:06:43 IST 2018
User: aro
Spectrometer: QEPB0276
Trigger mode: 0
Integration Time (sec): 3.000000E1
Scans to average: 1
Electric dark correction enabled: true
Nonlinearity correction enabled: false
Boxcar width: 0
XAxis mode: Raman Shifts
Number of Pixels in Spectrum: 1044
>>>>>Begin Spectral Data<<<<<
160.701	-166.5
166.742	28.5
172.777	599.5
178.805	2280.5
184.826	6267.5
190.841	12963.5
196.849	20496.5
202.85	25693.5
208.845	27391.5
214.833	26957.5
220.815	26474.5
226.789	26252.5
232.758	26103.5
238.719	25906.5
244.674	25467.5
250.623	24988.5
256.565	24406.5
262.5	23866.5
268.429	23369.5
274.351	23001.5
280.267	22680.5
286.176	22383.5
292.079	22174.5
297.975	21975.5
303.865	21673.5
309.748	21635.5
315.625	21374.5
321.495	21247.5
327.359	21217.5
333.217	21193.5
339.068	21124.5
344.912	21059.5
350.751	21030.5
356.583	20996.5
362.408	21022.5
368.227	20903.5
374.04	21035.5
379.847	21039.5
385.647	21137.5
391.44	21230.5
397.228	21358.5
403.009	21426.5
408.784	21466.5
414.553	21518.5
420.315	21595.5
426.071	21586.5
431.821	21571.5
437.565	21533.5
443.302	21535.5
449.033	21497.5
454.758	21433.5
460.477	21431.5
466.189	21381.5
471.896	21304.5
477.596	21198.5
483.29	21204.5
488.978	21170.5
494.66	21068.5
500.335	20908.5
506.005	20764.5
511.668	20416.5
517.325	20187.5
522.977	20043.5
528.622	19901.5
534.261	19775.5
539.894	19690.5
545.521	19607.5
551.141	19514.5
556.756	19460.5
562.365	19390.5
567.968	19302.5
573.565	19235.5
579.155	19151.5
584.74	19059.5
590.319	18980.5
595.892	18928.5
601.459	18855.5
607.02	18728.5
612.575	18655.5
618.124	18594.5
623.667	18472.5
629.204	18334.5
634.735	18235.5
640.261	18203.5
645.781	18112.5
651.294	18101.5
656.802	18038.5
662.304	18000.5
667.8	17919.5
673.29	17999.5
678.775	17969.5
684.254	17844.5
689.726	17846.5
695.193	17745.5
700.655	17668.5
706.11	17550.5
711.56	17532.5
717.004	17365.5
722.442	17341.5
727.874	17278.5
733.301	17207.5
738.722	17145.5
744.137	17129.5
749.547	17139.5
754.951	17137.5
760.349	17088.5
765.741	17126.5
771.128	17078.5
776.509	17124.5
781.885	17115.5
787.254	17077.5
792.618	17062.5
797.977	16874.5
803.33	16782.5
808.677	16667.5
814.019	16576.5
819.355	16507.5
824.686	16459.5
830.011	16468.5
835.33	16443.5
840.644	16418.5
845.952	16494.5
851.255	16537.5
856.552	16505.5
861.844	16444.5
867.13	16434.5
872.41	16338.5
877.686	16285.5
882.955	16166.5
888.219	15977.5
893.478	15865.5
898.731	15625.5
903.979	15489.5
909.221	15348.5
914.458	15319.5
919.69	15299.5
924.916	15369.5
930.136	15415.5
935.351	15447.5
940.561	15396.5
945.766	15382.5
950.965	15379.5
956.158	15173.5
961.347	15012.5
966.529	14823.5
971.707	14610.5
976.879	14424.5
982.046	14399.5
987.208	14336.5
992.364	14342.5
997.515	14412.5
1002.66	14591.5
1007.801	14698.5
1012.936	14821.5
1018.066	14814.5
1023.19	14842.5
1028.309	14850.5
1033.423	14782.5
1038.532	14714.5
1043.636	14572.5
1048.734	14399.5
1053.827	14215.5
1058.915	14059.5
1063.998	13998.5
1069.075	13877.5
1074.147	13989.5
1079.214	14069.5
1084.276	14118.5
1089.333	14231.5
1094.385	14213.5
1099.431	14309.5
1104.472	14310.5
1109.509	14202.5
1114.54	14004.5
1119.565	13860.5
1124.586	13745.5
1129.602	13563.5
1134.613	13457.5
1139.618	13355.5
1144.619	13354.5
1149.614	13455.5
1154.604	13403.5
1159.589	13445.5
1164.57	13414.5
1169.545	13494.5
1174.515	13457.5
1179.48	13408.5
1184.44	13284.5
1189.395	13266.5
1194.345	13181.5
1199.29	13079.5
1204.23	13063.5
1209.165	13097.5
1214.095	13188.5
1219.021	13264.5
1223.941	13332.5
1228.856	13359.5
1233.766	13445.5
1238.672	13412.5
1243.572	13423.5
1248.467	13320.5
1253.358	13181.5
1258.244	12972.5
1263.124	12814.5
1268	12608.5
1272.871	12498.5
1277.737	12404.5
1282.599	12330.5
1287.455	12313.5
1292.306	12307.5
1297.153	12394.5
1301.995	12476.5
1306.832	12456.5
1311.664	12468.5
1316.491	12454.5
1321.314	12346.5
1326.132	12147.5
1330.945	11933.5
1335.753	11625.5
1340.556	11313.5
1345.354	11076.5
1350.148	10902.5
1354.937	10791.5
1359.722	10783.5
1364.501	10869.5
1369.276	10977.5
1374.046	11109.5
1378.811	11255.5
1383.572	11386.5
1388.327	11439.5
1393.079	11367.5
1397.825	11268.5
1402.567	11088.5
1407.304	10921.5
1412.036	10841.5
1416.764	10736.5
1421.487	10700.5
1426.205	10624.5
1430.919	10639.5
1435.628	10609.5
1440.333	10605.5
1445.032	10680.5
1449.727	10692.5
1454.418	10652.5
1459.104	10540.5
1463.785	10317.5
1468.462	10146.5
1473.134	9883.5
1477.802	9711.5
1482.465	9536.5
1487.123	9418.5
1491.777	9415.5
1496.426	9444.5
1501.071	9558.5
1505.711	9702.5
1510.347	9844.5
1514.978	10005.5
1519.604	10173.5
1524.226	10267.5
1528.844	10301.5
1533.457	10270.5
1538.065	10257.5
1542.669	10183.5
1547.269	10085.5
1551.864	10053.5
1556.454	9967.5
1561.041	10054.5
1565.622	10008.5
1570.199	10014.5
1574.772	10053.5
1579.34	10151.5
1583.904	10214.5
1588.464	10272.5
1593.019	10240.5
1597.569	10243.5
1602.115	10196.5
1606.657	10124.5
1611.195	10090.5
1615.728	10004.5
1620.256	9992.5
1624.78	9958.5
1629.3	9982.5
1633.816	10020.5
1638.327	10070.5
1642.834	10132.5
1647.336	10164.5
1651.834	10155.5
1656.328	10165.5
1660.817	10111.5
1665.302	10006.5
1669.783	9801.5
1674.259	9532.5
1678.732	9327.5
1683.199	8946.5
1687.663	8657.5
1692.122	8378.5
1696.577	8240.5
1701.028	8215.5
1705.474	8284.5
1709.917	8345.5
1714.355	8345.5
1718.788	8270.5
1723.218	8204.5
1727.643	8077.5
1732.064	7867.5
1736.481	7685.5
1740.893	7550.5
1745.301	7339.5
1749.705	7122.5
1754.105	6902.5
1758.501	6709.5
1762.893	6537.5
1767.28	6402.5
1771.663	6295.5
1776.042	6128.5
1780.417	6075.5
1784.787	6081.5
1789.154	6144.5
1793.516	6221.5
1797.874	6340.5
1802.228	6455.5
1806.578	6497.5
1810.924	6523.5
1815.266	6453.5
1819.603	6391.5
1823.937	6290.5
1828.266	6189.5
1832.591	6101.5
1836.913	5971.5
1841.23	5939.5
1845.543	5909.5
1849.852	5865.5
1854.156	5833.5
1858.457	5842.5
1862.754	5818.5
1867.047	5828.5
1871.335	5816.5
1875.62	5839.5
1879.9	5781.5
1884.177	5742.5
1888.449	5687.5
1892.718	5659.5
1896.982	5578.5
1901.243	5557.5
1905.499	5492.5
1909.752	5471.5
1914	5474.5
1918.245	5496.5
1922.485	5508.5
1926.722	5590.5
1930.954	5648.5
1935.183	5718.5
1939.408	5763.5
1943.628	5805.5
1947.845	5798.5
1952.058	5792.5
1956.267	5724.5
1960.472	5662.5
1964.673	5615.5
1968.87	5486.5
1973.063	5435.5
1977.252	5342.5
1981.438	5306.5
1985.619	5250.5
1989.797	5207.5
1993.971	5185.5
1998.14	5182.5
2002.306	5136.5
2006.469	5156.5
2010.627	5106.5
2014.781	5066.5
2018.932	5022.5
2023.078	4996.5
2027.221	4927.5
2031.36	4832.5
2035.495	4733.5
2039.627	4654.5
2043.754	4655.5
2047.878	4602.5
2051.998	4580.5
2056.114	4535.5
2060.226	4517.5
2064.334	4544.5
2068.439	4563.5
2072.54	4570.5
2076.637	4601.5
2080.73	4637.5
2084.82	4638.5
2088.906	4643.5
2092.988	4663.5
2097.066	4626.5
2101.14	4631.5
2105.211	4619.5
2109.278	4557.5
2113.342	4572.5
2117.401	4524.5
2121.457	4508.5
2125.509	4484.5
2129.558	4465.5
2133.602	4410.5
2137.643	4423.5
2141.681	4400.5
2145.714	4393.5
2149.744	4349.5
2153.77	4322.5
2157.793	4288.5
2161.812	4249.5
2165.827	4177.5
2169.838	4101.5
2173.846	4050.5
2177.851	3942.5
2181.851	3891.5
2185.848	3857.5
2189.841	3838.5
2193.831	3775.5
2197.817	3752.5
2201.799	3743.5
2205.778	3706.5
2209.753	3704.5
2213.725	3690.5
2217.693	3683.5
2221.657	3653.5
2225.618	3642.5
2229.575	3639.5
2233.529	3598.5
2237.479	3573.5
2241.425	3547.5
2245.368	3478.5
2249.307	3418.5
2253.243	3391.5
2257.175	3386.5
2261.104	3318.5
2265.029	3256.5
2268.95	3204.5
2272.868	3182.5
2276.783	3157.5
2280.694	3136.5
2284.601	3110.5
2288.505	3067.5
2292.405	3040.5
2296.302	3023.5
2300.195	2964.5
2304.085	2920.5
2307.971	2899.5
2311.854	2871.5
2315.734	2823.5
2319.609	2780.5
2323.482	2740.5
2327.351	2705.5
2331.216	2682.5
2335.078	2699.5
2338.937	2678.5
2342.792	2672.5
2346.643	2625.5
2350.492	2639.5
2354.336	2655.5
2358.178	2638.5
2362.015	2654.5
2365.85	2643.5
2369.681	2652.5
2373.508	2692.5
2377.333	2681.5
2381.153	2654.5
2384.971	2633.5
2388.785	2627.5
2392.595	2600.5
2396.402	2586.5
2400.206	2579.5
2404.007	2521.5
2407.804	2535.5
2411.597	2510.5
2415.388	2472.5
2419.174	2463.5
2422.958	2472.5
2426.738	2438.5
2430.515	2406.5
2434.289	2386.5
2438.059	2371.5
2441.825	2359.5
2445.589	2349.5
2449.349	2322.5
2453.106	2284.5
2456.859	2247.5
2460.61	2223.5
2464.356	2191.5
2468.1	2154.5
2471.84	2156.5
2475.577	2134.5
2479.311	2118.5
2483.041	2108.5
2486.768	2108.5
2490.492	2102.5
2494.213	2092.5
2497.93	2062.5
2501.644	2064.5
2505.355	2060.5
2509.062	2042.5
2512.766	2036.5
2516.467	2012.5
2520.165	2021.5
2523.859	1987.5
2527.551	1976.5
2531.239	1951.5
2534.923	1929.5
2538.605	1942.5
2542.283	1938.5
2545.958	1931.5
2549.63	1901.5
2553.299	1906.5
2556.964	1919.5
2560.626	1904.5
2564.285	1917.5
2567.941	1896.5
2571.594	1889.5
2575.243	1863.5
2578.89	1872.5
2582.533	1842.5
2586.173	1800.5
2589.809	1794.5
2593.443	1793.5
2597.073	1772.5
2600.701	1770.5
2604.325	1748.5
2607.946	1740.5
2611.564	1725.5
2615.178	1738.5
2618.79	1731.5
2622.398	1680.5
2626.004	1685.5
2629.606	1663.5
2633.205	1632.5
2636.801	1599.5
2640.394	1579.5
2643.983	1565.5
2647.57	1535.5
2651.153	1538.5
2654.734	1495.5
2658.311	1472.5
2661.885	1452.5
2665.456	1439.5
2669.025	1430.5
2672.589	1410.5
2676.151	1381.5
2679.71	1383.5
2683.266	1346.5
2686.819	1334.5
2690.368	1305.5
2693.915	1278.5
2697.458	1253.5
2700.999	1232.5
2704.536	1207.5
2708.071	1178.5
2711.602	1150.5
2715.13	1118.5
2718.656	1098.5
2722.178	1069.5
2725.697	1059.5
2729.214	1046.5
2732.727	1046.5
2736.237	1029.5
2739.744	1035.5
2743.249	1050.5
2746.75	1024.5
2750.248	1034.5
2753.743	1046.5
2757.236	1074.5
2760.725	1075.5
2764.211	1076.5
2767.695	1074.5
2771.175	1085.5
2774.652	1080.5
2778.127	1064.5
2781.598	1061.5
2785.067	1073.5
2788.532	1053.5
2791.995	1039.5
2795.455	1061.5
2798.911	1043.5
2802.365	1054.5
2805.816	1069.5
2809.264	1049.5
2812.709	1046.5
2816.151	1052.5
2819.59	1042.5
2823.026	1047.5
2826.46	1030.5
2829.89	1050.5
2833.318	1053.5
2836.742	1064.5
2840.164	1085.5
2843.583	1088.5
2846.999	1102.5
2850.412	1125.5
2853.822	1114.5
2857.229	1138.5
2860.634	1136.5
2864.035	1185.5
2867.434	1198.5
2870.83	1205.5
2874.223	1251.5
2877.613	1255.5
2881	1281.5
2884.385	1301.5
2887.766	1290.5
2891.145	1276.5
2894.521	1278.5
2897.894	1280.5
2901.264	1292.5
2904.631	1295.5
2907.996	1273.5
2911.358	1291.5
2914.717	1293.5
2918.073	1311.5
2921.426	1353.5
2924.777	1338.5
2928.124	1367.5
2931.469	1394.5
2934.811	1426.5
2938.15	1450.5
2941.487	1450.5
2944.821	1456.5
2948.152	1440.5
2951.48	1448.5
2954.805	1425.5
2958.128	1419.5
2961.447	1405.5
2964.765	1377.5
2968.079	1383.5
2971.39	1416.5
2974.699	1423.5
2978.005	1470.5
2981.308	1487.5
2984.609	1501.5
2987.907	1530.5
2991.202	1561.5
2994.494	1600.5
2997.784	1625.5
3001.07	1651.5
3004.355	1697.5
3007.636	1682.5
3010.915	1730.5
3014.191	1715.5
3017.464	1726.5
3020.734	1758.5
3024.002	1759.5
3027.267	1798.5
3030.53	1781.5
3033.789	1815.5
3037.046	1839.5
3040.301	1861.5
3043.552	1897.5
3046.801	1954.5
3050.048	2002.5
3053.291	2047.5
3056.532	2098.5
3059.771	2156.5
3063.006	2203.5
3066.239	2283.5
3069.469	2348.5
3072.697	2413.5
3075.922	2465.5
3079.144	2552.5
3082.364	2556.5
3085.581	2627.5
3088.795	2711.5
3092.007	2763.5
3095.216	2810.5
3098.423	2872.5
3101.627	2929.5
3104.828	3001.5
3108.026	3083.5
3111.222	3184.5
3114.416	3223.5
3117.607	3295.5
3120.795	3371.5
3123.98	3438.5
3127.163	3503.5
3130.344	3583.5
3133.521	3697.5
3136.696	3760.5
3139.869	3833.5
3143.039	3908.5
3146.206	3982.5
3149.371	4001.5
3152.533	4039.5
3155.693	4058.5
3158.85	4098.5
3162.005	4115.5
3165.157	4129.5
3168.306	4118.5
3171.453	4138.5
3174.597	4159.5
3177.739	4178.5
3180.878	4186.5
3184.014	4183.5
3187.149	4193.5
3190.28	4211.5
3193.409	4202.5
3196.536	4205.5
3199.659	4203.5
3202.781	4235.5
3205.9	4231.5
3209.016	4203.5
3212.13	4193.5
3215.241	4176.5
3218.35	4136.5
3221.456	4079.5
3224.56	4043.5
3227.661	4001.5
3230.76	3960.5
3233.856	3920.5
3236.95	3882.5
3240.041	3869.5
3243.13	3828.5
3246.216	3813.5
3249.3	3797.5
3252.382	3761.5
3255.46	3738.5
3258.537	3741.5
3261.611	3744.5
3264.682	3735.5
3267.751	3715.5
3270.818	3730.5
3273.882	3694.5
3276.943	3699.5
3280.002	3675.5
3283.059	3615.5
3286.113	3561.5
3289.165	3527.5
3292.214	3488.5
3295.261	3424.5
3298.306	3352.5
3301.348	3324.5
3304.387	3274.5
3307.425	3214.5
3310.459	3186.5
3313.492	3108.5
3316.521	3102.5
3319.549	3053.5
3322.574	3008.5
3325.597	3012.5
3328.617	2953.5
3331.635	2960.5
3334.65	2962.5
3337.663	2908.5
3340.674	2898.5
3343.682	2915.5
3346.688	2900.5
3349.691	2884.5
3352.692	2862.5
3355.691	2841.5
3358.687	2812.5
3361.681	2759.5
3364.673	2745.5
3367.662	2689.5
3370.649	2651.5
3373.633	2627.5
3376.615	2593.5
3379.595	2563.5
3382.572	2516.5
3385.547	2489.5
3388.52	2456.5
3391.49	2404.5
3394.458	2361.5
3397.424	2322.5
3400.387	2304.5
3403.348	2277.5
3406.307	2251.5
3409.263	2210.5
3412.217	2207.5
3415.168	2162.5
3418.118	2153.5
3421.065	2103.5
3424.009	2086.5
3426.951	2053.5
3429.891	2029.5
3432.829	1992.5
3435.764	1924.5
3438.697	1893.5
3441.628	1821.5
3444.557	1781.5
3447.483	1719.5
3450.407	1669.5
3453.328	1621.5
3456.247	1550.5
3459.164	1496.5
3462.079	1446.5
3464.991	1390.5
3467.902	1327.5
3470.809	1295.5
3473.715	1244.5
3476.618	1195.5
3479.519	1174.5
3482.418	1119.5
3485.315	1085.5
3488.209	1037.5
3491.101	1005.5
3493.99	986.5
3496.878	930.5
3499.763	898.5
3502.646	878.5
3505.527	819.5
3508.405	767.5
3511.281	748.5
3514.155	685.5
3517.027	655.5
3519.897	606.5
3522.764	564.5
3525.629	507.5
3528.492	483.5
3531.352	434.5
3534.211	407.5
3537.067	359.5
3539.921	314.5
3542.773	291.5
3545.622	254.5
3548.469	223.5
3551.315	193.5
3554.157	179.5
3556.998	129.5
3559.837	112.5
3562.673	99.5
3565.507	65.5
3568.339	55.5
3571.169	33.5
3573.996	9.5
3576.822	-26.5
3579.645	-34.5
3582.466	-64.5
3585.285	-78.5
3588.101	-105.5
3590.916	-107.5
3593.728	-145.5
3596.538	-174.5
3599.346	-182.5
3602.152	-198.5
3604.956	-218.5
3607.757	-231.5
3610.556	-244.5
3613.354	-257.5
3616.149	-271.5
3618.942	-287.5
3621.732	-306.5
3624.521	-307.5
3627.307	-313.5
3630.092	-336.5
3632.874	-344.5
3635.654	-352.5
3638.432	-359.5
3641.208	-365.5
3643.982	-372.5
3646.753	-377.5
3649.523	-395.5
3652.29	-400.5
3655.055	-405.5
3657.818	-421.5
3660.579	-438.5
3663.338	-437.5
3666.095	-459.5
3668.849	-468.5
3671.602	-469.5
3674.352	-478.5
3677.101	-484.5
3679.847	-501.5
3682.591	-501.5
3685.333	-510.5
3688.073	-511.5
3690.811	-508.5
3693.547	-519.5
3696.281	-532.5
3699.013	-532.5
3701.742	-539.5
3704.47	-542.5
3707.195	-543.5
3709.919	-555.5
3712.64	-556.5
3715.359	-563.5
3718.076	-560.5
3720.792	-565.5
3723.505	-570.5
3726.216	-567.5
3728.925	-574.5
3731.632	-583.5
3734.336	-588.5
3737.039	-589.5
3739.74	-588.5
3742.439	-596.5
3745.136	-591.5
3747.83	-597.5
3750.523	-595.5
3753.213	-596.5
3755.902	-605.5
3758.589	-601.5
3761.273	-598.5
3763.956	-613.5
3766.636	-607.5
3769.315	-613.5
3771.991	-621.5
3774.665	-611.5
3777.338	-619.5
3780.008	-617.5
3782.677	-621.5
3785.343	-621.5
3788.007	-615.5
3790.67	-621.5
3793.33	-628.5
3795.989	-627.5
3798.645	-631.5
3801.299	-629.5
3803.952	-631.5
3806.602	-631.5
3809.251	-635.5
3811.897	-628.5
3814.542	-624.5
3817.184	-633.5
3819.825	-637.5
3822.463	-630.5
3825.1	-633.5
3827.735	-645.5
3830.367	-638.5
3832.998	-643.5
3835.627	-645.5
3838.253	-650.5
3840.878	-642.5
3843.501	-644.5
3846.122	-643.5
3848.741	-648.5
3851.358	-646.5
3853.973	-647.5
3856.586	-641.5
3859.197	-648.5
3861.806	-642.5
3864.414	-644.5
3867.019	-640.5
3869.622	-645.5
3872.224	-634.5
3874.823	-619.5
3877.421	-602.5
3880.016	-585.5
3882.61	-545.5
3885.202	-543.5
3887.792	-573.5
3890.38	-602.5
3892.966	-627.5
3895.55	-643.5
3898.132	-651.5
3900.713	-650.5
3903.291	-655.5
3905.868	-656.5
3908.442	-657.5
3911.015	-656.5
3913.586	-663.5
3916.155	-657.5
3918.722	-658.5
3921.287	-660.5
3923.85	-658.5
3926.411	-663.5
3928.971	-665.5
3931.528	-659.5
3934.084	-657.5
3936.638	-661.5
3939.19	-665.5
3941.74	-667.5
3944.288	-666.5
3946.834	-665.5
3949.378	-662.5
3951.921	-660.5
3954.462	-666.5
3957	-655.5
3959.537	-653.5
3962.072	-661.5
3964.606	-651.5
3967.137	-657.5
3969.667	-657.5
3972.194	-654.5
3974.72	-655.5
3977.244	-655.5
3979.766	-652.5
3982.286	-646.5
3984.805	-643.5
3987.321	-647.5
3989.836	-650.5
3992.349	-647.5
3994.86	-644.5
3997.369	-657.5
3999.877	-642.5
4002.382	-648.5
4004.886	-653.5
4007.388	-648.5
4009.888	-643.5
4012.386	-625.5
4014.883	-545.5
4017.377	-586.5
4019.87	-627.5
4022.361	-648.5
4024.85	-649.5
4027.338	-647.5
4029.823	-649.5
4032.307	-650.5
4034.789	-653.5
4037.269	-652.5
4039.747	-656.5
4042.224	-649.5
4044.699	-653.5
4047.172	-654.5
4049.643	-649.5
4052.112	-650.5
4054.58	-645.5
4057.046	-654.5
4059.51	-654.5
4061.972	-651.5
4064.432	-654.5
4066.891	-649.5
4069.348	-657.5
4071.803	-655.5
4074.256	-656.5
4076.708	-647.5
4079.158	-649.5
4081.606	-644.5
4084.052	-649.5
4086.497	-652.5
4088.939	-649.5
4091.38	-636.5
4093.819	-643.5
4096.257	-679.5
4098.693	-684.5
4101.127	-685.5
4103.559	-685.5
4105.989	-402.5
4108.418	-386.5
4110.845	-365.5
4113.27	-346.5
4115.694	-291.5
4118.115	-244.5
4120.535	-647.5
4122.954	-653.5
4125.37	-645.5
4127.785	-649.5
4130.198	-654.5
4132.609	-646.5
4135.019	-690.5
4137.427	-683.5
4139.833	-682.5
4142.237	-685.5
