Data from 2018-2-7_conc=4_RamanShift_17.txt Node
Date: Tue Feb 13 13:41:13 IST 2018
User: aro
Spectrometer: QEPB0276
Trigger mode: 0
Integration Time (sec): 3.000000E1
Scans to average: 1
Electric dark correction enabled: true
Nonlinearity correction enabled: false
Boxcar width: 0
XAxis mode: Raman Shifts
Number of Pixels in Spectrum: 1044
>>>>>Begin Spectral Data<<<<<
160.701	-45.2
166.742	42.8
172.777	293.8
178.805	1037.8
184.826	2774.8
190.841	5671.8
196.849	8861.8
202.85	11100.8
208.845	11822.8
214.833	11700.8
220.815	11567.8
226.789	11554.8
232.758	11509.8
238.719	11536.8
244.674	11397.8
250.623	11239.8
256.565	11073.8
262.5	10916.8
268.429	10759.8
274.351	10600.8
280.267	10520.8
286.176	10476.8
292.079	10411.8
297.975	10322.8
303.865	10305.8
309.748	10258.8
315.625	10237.8
321.495	10182.8
327.359	10218.8
333.217	10192.8
339.068	10198.8
344.912	10187.8
350.751	10201.8
356.583	10250.8
362.408	10228.8
368.227	10231.8
374.04	10293.8
379.847	10340.8
385.647	10366.8
391.44	10410.8
397.228	10461.8
403.009	10503.8
408.784	10528.8
414.553	10568.8
420.315	10589.8
426.071	10659.8
431.821	10654.8
437.565	10595.8
443.302	10587.8
449.033	10542.8
454.758	10518.8
460.477	10465.8
466.189	10428.8
471.896	10422.8
477.596	10302.8
483.29	10342.8
488.978	10304.8
494.66	10245.8
500.335	10100.8
506.005	9851.8
511.668	9627.8
517.325	9430.8
522.977	9252.8
528.622	9078.8
534.261	8961.8
539.894	8924.8
545.521	8865.8
551.141	8772.8
556.756	8731.8
562.365	8654.8
567.968	8631.8
573.565	8584.8
579.155	8515.8
584.74	8486.8
590.319	8496.8
595.892	8456.8
601.459	8440.8
607.02	8392.8
612.575	8382.8
618.124	8288.8
623.667	8212.8
629.204	8109.8
634.735	8117.8
640.261	8021.8
645.781	7978.8
651.294	7986.8
656.802	7977.8
662.304	7924.8
667.8	7908.8
673.29	7909.8
678.775	7903.8
684.254	7823.8
689.726	7859.8
695.193	7771.8
700.655	7700.8
706.11	7681.8
711.56	7664.8
717.004	7641.8
722.442	7645.8
727.874	7583.8
733.301	7523.8
738.722	7523.8
744.137	7522.8
749.547	7484.8
754.951	7480.8
760.349	7507.8
765.741	7506.8
771.128	7509.8
776.509	7532.8
781.885	7567.8
787.254	7578.8
792.618	7577.8
797.977	7554.8
803.33	7491.8
808.677	7443.8
814.019	7393.8
819.355	7307.8
824.686	7322.8
830.011	7281.8
835.33	7245.8
840.644	7241.8
845.952	7234.8
851.255	7231.8
856.552	7228.8
861.844	7152.8
867.13	7156.8
872.41	7126.8
877.686	7060.8
882.955	7018.8
888.219	6956.8
893.478	6867.8
898.731	6750.8
903.979	6705.8
909.221	6642.8
914.458	6645.8
919.69	6608.8
924.916	6621.8
930.136	6642.8
935.351	6655.8
940.561	6640.8
945.766	6623.8
950.965	6628.8
956.158	6542.8
961.347	6500.8
966.529	6388.8
971.707	6321.8
976.879	6222.8
982.046	6194.8
987.208	6150.8
992.364	6139.8
997.515	6144.8
1002.66	6251.8
1007.801	6332.8
1012.936	6363.8
1018.066	6365.8
1023.19	6342.8
1028.309	6375.8
1033.423	6330.8
1038.532	6361.8
1043.636	6277.8
1048.734	6211.8
1053.827	6140.8
1058.915	6073.8
1063.998	6033.8
1069.075	6017.8
1074.147	6015.8
1079.214	6036.8
1084.276	6050.8
1089.333	6110.8
1094.385	6111.8
1099.431	6139.8
1104.472	6121.8
1109.509	6074.8
1114.54	6006.8
1119.565	5880.8
1124.586	5794.8
1129.602	5768.8
1134.613	5753.8
1139.618	5686.8
1144.619	5637.8
1149.614	5684.8
1154.604	5702.8
1159.589	5705.8
1164.57	5726.8
1169.545	5714.8
1174.515	5698.8
1179.48	5655.8
1184.44	5657.8
1189.395	5597.8
1194.345	5570.8
1199.29	5537.8
1204.23	5516.8
1209.165	5536.8
1214.095	5609.8
1219.021	5590.8
1223.941	5655.8
1228.856	5663.8
1233.766	5668.8
1238.672	5687.8
1243.572	5654.8
1248.467	5595.8
1253.358	5539.8
1258.244	5505.8
1263.124	5372.8
1268	5290.8
1272.871	5221.8
1277.737	5192.8
1282.599	5164.8
1287.455	5162.8
1292.306	5165.8
1297.153	5180.8
1301.995	5185.8
1306.832	5191.8
1311.664	5200.8
1316.491	5202.8
1321.314	5162.8
1326.132	5047.8
1330.945	5002.8
1335.753	4887.8
1340.556	4795.8
1345.354	4694.8
1350.148	4627.8
1354.937	4590.8
1359.722	4532.8
1364.501	4500.8
1369.276	4505.8
1374.046	4462.8
1378.811	4479.8
1383.572	4508.8
1388.327	4523.8
1393.079	4527.8
1397.825	4482.8
1402.567	4445.8
1407.304	4402.8
1412.036	4398.8
1416.764	4389.8
1421.487	4345.8
1426.205	4350.8
1430.919	4342.8
1435.628	4354.8
1440.333	4387.8
1445.032	4409.8
1449.727	4417.8
1454.418	4396.8
1459.104	4382.8
1463.785	4295.8
1468.462	4191.8
1473.134	4124.8
1477.802	4006.8
1482.465	3938.8
1487.123	3887.8
1491.777	3826.8
1496.426	3844.8
1501.071	3834.8
1505.711	3859.8
1510.347	3872.8
1514.978	3923.8
1519.604	3928.8
1524.226	3948.8
1528.844	3957.8
1533.457	3934.8
1538.065	3903.8
1542.669	3889.8
1547.269	3886.8
1551.864	3889.8
1556.454	3850.8
1561.041	3884.8
1565.622	3914.8
1570.199	3916.8
1574.772	3944.8
1579.34	3981.8
1583.904	4005.8
1588.464	4035.8
1593.019	4041.8
1597.569	4060.8
1602.115	4023.8
1606.657	3994.8
1611.195	3999.8
1615.728	3951.8
1620.256	3944.8
1624.78	3957.8
1629.3	3963.8
1633.816	3938.8
1638.327	3979.8
1642.834	3981.8
1647.336	3993.8
1651.834	3988.8
1656.328	3982.8
1660.817	3955.8
1665.302	3909.8
1669.783	3813.8
1674.259	3753.8
1678.732	3625.8
1683.199	3508.8
1687.663	3406.8
1692.122	3275.8
1696.577	3195.8
1701.028	3126.8
1705.474	3097.8
1709.917	3063.8
1714.355	3066.8
1718.788	3041.8
1723.218	2999.8
1727.643	2978.8
1732.064	2933.8
1736.481	2861.8
1740.893	2812.8
1745.301	2740.8
1749.705	2676.8
1754.105	2592.8
1758.501	2548.8
1762.893	2464.8
1767.28	2407.8
1771.663	2352.8
1776.042	2297.8
1780.417	2305.8
1784.787	2294.8
1789.154	2269.8
1793.516	2280.8
1797.874	2277.8
1802.228	2292.8
1806.578	2298.8
1810.924	2311.8
1815.266	2289.8
1819.603	2247.8
1823.937	2226.8
1828.266	2214.8
1832.591	2178.8
1836.913	2188.8
1841.23	2185.8
1845.543	2174.8
1849.852	2147.8
1854.156	2169.8
1858.457	2176.8
1862.754	2176.8
1867.047	2186.8
1871.335	2156.8
1875.62	2150.8
1879.9	2131.8
1884.177	2118.8
1888.449	2112.8
1892.718	2074.8
1896.982	2048.8
1901.243	2039.8
1905.499	2010.8
1909.752	1980.8
1914	1954.8
1918.245	1960.8
1922.485	1958.8
1926.722	1942.8
1930.954	1987.8
1935.183	1971.8
1939.408	1981.8
1943.628	1985.8
1947.845	1972.8
1952.058	1979.8
1956.267	1939.8
1960.472	1933.8
1964.673	1913.8
1968.87	1877.8
1973.063	1859.8
1977.252	1831.8
1981.438	1832.8
1985.619	1814.8
1989.797	1782.8
1993.971	1779.8
1998.14	1800.8
2002.306	1780.8
2006.469	1789.8
2010.627	1788.8
2014.781	1771.8
2018.932	1767.8
2023.078	1726.8
2027.221	1721.8
2031.36	1694.8
2035.495	1670.8
2039.627	1640.8
2043.754	1658.8
2047.878	1611.8
2051.998	1589.8
2056.114	1587.8
2060.226	1585.8
2064.334	1576.8
2068.439	1584.8
2072.54	1573.8
2076.637	1591.8
2080.73	1594.8
2084.82	1603.8
2088.906	1600.8
2092.988	1607.8
2097.066	1593.8
2101.14	1560.8
2105.211	1543.8
2109.278	1549.8
2113.342	1524.8
2117.401	1514.8
2121.457	1511.8
2125.509	1490.8
2129.558	1490.8
2133.602	1454.8
2137.643	1463.8
2141.681	1472.8
2145.714	1473.8
2149.744	1458.8
2153.77	1452.8
2157.793	1423.8
2161.812	1435.8
2165.827	1395.8
2169.838	1378.8
2173.846	1348.8
2177.851	1337.8
2181.851	1338.8
2185.848	1315.8
2189.841	1288.8
2193.831	1272.8
2197.817	1257.8
2201.799	1262.8
2205.778	1261.8
2209.753	1253.8
2213.725	1257.8
2217.693	1239.8
2221.657	1247.8
2225.618	1234.8
2229.575	1232.8
2233.529	1214.8
2237.479	1201.8
2241.425	1169.8
2245.368	1174.8
2249.307	1136.8
2253.243	1137.8
2257.175	1126.8
2261.104	1104.8
2265.029	1084.8
2268.95	1063.8
2272.868	1078.8
2276.783	1054.8
2280.694	1027.8
2284.601	1028.8
2288.505	1024.8
2292.405	1005.8
2296.302	989.8
2300.195	983.8
2304.085	986.8
2307.971	956.8
2311.854	944.8
2315.734	925.8
2319.609	912.8
2323.482	911.8
2327.351	901.8
2331.216	900.8
2335.078	901.8
2338.937	895.8
2342.792	894.8
2346.643	895.8
2350.492	890.8
2354.336	891.8
2358.178	889.8
2362.015	896.8
2365.85	906.8
2369.681	914.8
2373.508	902.8
2377.333	915.8
2381.153	917.8
2384.971	919.8
2388.785	910.8
2392.595	892.8
2396.402	886.8
2400.206	893.8
2404.007	876.8
2407.804	863.8
2411.597	863.8
2415.388	861.8
2419.174	850.8
2422.958	837.8
2426.738	838.8
2430.515	824.8
2434.289	826.8
2438.059	814.8
2441.825	819.8
2445.589	813.8
2449.349	794.8
2453.106	781.8
2456.859	758.8
2460.61	742.8
2464.356	748.8
2468.1	738.8
2471.84	721.8
2475.577	716.8
2479.311	725.8
2483.041	693.8
2486.768	690.8
2490.492	704.8
2494.213	698.8
2497.93	711.8
2501.644	685.8
2505.355	690.8
2509.062	675.8
2512.766	689.8
2516.467	665.8
2520.165	655.8
2523.859	661.8
2527.551	647.8
2531.239	632.8
2534.923	634.8
2538.605	625.8
2542.283	625.8
2545.958	609.8
2549.63	613.8
2553.299	613.8
2556.964	619.8
2560.626	582.8
2564.285	599.8
2567.941	592.8
2571.594	588.8
2575.243	579.8
2578.89	575.8
2582.533	564.8
2586.173	560.8
2589.809	557.8
2593.443	559.8
2597.073	548.8
2600.701	533.8
2604.325	534.8
2607.946	538.8
2611.564	514.8
2615.178	533.8
2618.79	527.8
2622.398	509.8
2626.004	509.8
2629.606	498.8
2633.205	482.8
2636.801	484.8
2640.394	488.8
2643.983	470.8
2647.57	469.8
2651.153	452.8
2654.734	448.8
2658.311	436.8
2661.885	434.8
2665.456	428.8
2669.025	436.8
2672.589	430.8
2676.151	413.8
2679.71	405.8
2683.266	391.8
2686.819	401.8
2690.368	386.8
2693.915	378.8
2697.458	371.8
2700.999	351.8
2704.536	346.8
2708.071	341.8
2711.602	337.8
2715.13	336.8
2718.656	309.8
2722.178	305.8
2725.697	292.8
2729.214	293.8
2732.727	281.8
2736.237	284.8
2739.744	287.8
2743.249	283.8
2746.75	278.8
2750.248	266.8
2753.743	274.8
2757.236	285.8
2760.725	268.8
2764.211	273.8
2767.695	269.8
2771.175	274.8
2774.652	260.8
2778.127	278.8
2781.598	263.8
2785.067	270.8
2788.532	276.8
2791.995	275.8
2795.455	266.8
2798.911	272.8
2802.365	277.8
2805.816	280.8
2809.264	281.8
2812.709	271.8
2816.151	270.8
2819.59	277.8
2823.026	282.8
2826.46	276.8
2829.89	280.8
2833.318	283.8
2836.742	276.8
2840.164	293.8
2843.583	294.8
2846.999	278.8
2850.412	311.8
2853.822	304.8
2857.229	305.8
2860.634	318.8
2864.035	311.8
2867.434	329.8
2870.83	339.8
2874.223	341.8
2877.613	364.8
2881	351.8
2884.385	369.8
2887.766	358.8
2891.145	363.8
2894.521	347.8
2897.894	358.8
2901.264	357.8
2904.631	363.8
2907.996	358.8
2911.358	365.8
2914.717	366.8
2918.073	371.8
2921.426	383.8
2924.777	382.8
2928.124	406.8
2931.469	406.8
2934.811	423.8
2938.15	425.8
2941.487	432.8
2944.821	436.8
2948.152	409.8
2951.48	434.8
2954.805	425.8
2958.128	429.8
2961.447	431.8
2964.765	421.8
2968.079	415.8
2971.39	413.8
2974.699	415.8
2978.005	430.8
2981.308	440.8
2984.609	438.8
2987.907	438.8
2991.202	449.8
2994.494	457.8
2997.784	474.8
3001.07	468.8
3004.355	494.8
3007.636	490.8
3010.915	495.8
3014.191	523.8
3017.464	522.8
3020.734	511.8
3024.002	545.8
3027.267	539.8
3030.53	528.8
3033.789	558.8
3037.046	563.8
3040.301	571.8
3043.552	605.8
3046.801	610.8
3050.048	621.8
3053.291	645.8
3056.532	670.8
3059.771	673.8
3063.006	713.8
3066.239	739.8
3069.469	752.8
3072.697	781.8
3075.922	815.8
3079.144	830.8
3082.364	863.8
3085.581	866.8
3088.795	879.8
3092.007	925.8
3095.216	937.8
3098.423	963.8
3101.627	983.8
3104.828	1007.8
3108.026	1026.8
3111.222	1050.8
3114.416	1062.8
3117.607	1103.8
3120.795	1140.8
3123.98	1157.8
3127.163	1191.8
3130.344	1221.8
3133.521	1254.8
3136.696	1260.8
3139.869	1287.8
3143.039	1330.8
3146.206	1345.8
3149.371	1357.8
3152.533	1393.8
3155.693	1389.8
3158.85	1369.8
3162.005	1390.8
3165.157	1404.8
3168.306	1406.8
3171.453	1410.8
3174.597	1400.8
3177.739	1409.8
3180.878	1404.8
3184.014	1411.8
3187.149	1423.8
3190.28	1421.8
3193.409	1427.8
3196.536	1416.8
3199.659	1422.8
3202.781	1422.8
3205.9	1411.8
3209.016	1419.8
3212.13	1428.8
3215.241	1406.8
3218.35	1398.8
3221.456	1358.8
3224.56	1365.8
3227.661	1348.8
3230.76	1330.8
3233.856	1318.8
3236.95	1298.8
3240.041	1282.8
3243.13	1271.8
3246.216	1244.8
3249.3	1257.8
3252.382	1233.8
3255.46	1211.8
3258.537	1242.8
3261.611	1226.8
3264.682	1211.8
3267.751	1218.8
3270.818	1226.8
3273.882	1212.8
3276.943	1213.8
3280.002	1200.8
3283.059	1177.8
3286.113	1153.8
3289.165	1155.8
3292.214	1144.8
3295.261	1116.8
3298.306	1114.8
3301.348	1081.8
3304.387	1071.8
3307.425	1057.8
3310.459	1045.8
3313.492	1015.8
3316.521	1008.8
3319.549	1009.8
3322.574	988.8
3325.597	980.8
3328.617	988.8
3331.635	952.8
3334.65	971.8
3337.663	965.8
3340.674	957.8
3343.682	943.8
3346.688	958.8
3349.691	953.8
3352.692	935.8
3355.691	941.8
3358.687	925.8
3361.681	917.8
3364.673	891.8
3367.662	895.8
3370.649	872.8
3373.633	856.8
3376.615	868.8
3379.595	824.8
3382.572	844.8
3385.547	821.8
3388.52	813.8
3391.49	780.8
3394.458	769.8
3397.424	749.8
3400.387	742.8
3403.348	726.8
3406.307	732.8
3409.263	715.8
3412.217	700.8
3415.168	704.8
3418.118	699.8
3421.065	676.8
3424.009	672.8
3426.951	656.8
3429.891	642.8
3432.829	608.8
3435.764	596.8
3438.697	588.8
3441.628	579.8
3444.557	558.8
3447.483	536.8
3450.407	523.8
3453.328	483.8
3456.247	478.8
3459.164	458.8
3462.079	440.8
3464.991	405.8
3467.902	378.8
3470.809	373.8
3473.715	359.8
3476.618	353.8
3479.519	325.8
3482.418	316.8
3485.315	312.8
3488.209	285.8
3491.101	276.8
3493.99	253.8
3496.878	240.8
3499.763	224.8
3502.646	213.8
3505.527	199.8
3508.405	188.8
3511.281	173.8
3514.155	153.8
3517.027	141.8
3519.897	138.8
3522.764	116.8
3525.629	108.8
3528.492	81.8
3531.352	70.8
3534.211	62.8
3537.067	48.8
3539.921	20.8
3542.773	16.8
3545.622	15.8
3548.469	-8.2
3551.315	-15.2
3554.157	-26.2
3556.998	-37.2
3559.837	-44.2
3562.673	-62.2
3565.507	-64.2
3568.339	-68.2
3571.169	-75.2
3573.996	-80.2
3576.822	-89.2
3579.645	-104.2
3582.466	-108.2
3585.285	-120.2
3588.101	-123.2
3590.916	-127.2
3593.728	-140.2
3596.538	-145.2
3599.346	-148.2
3602.152	-149.2
3604.956	-151.2
3607.757	-166.2
3610.556	-166.2
3613.354	-172.2
3616.149	-184.2
3618.942	-177.2
3621.732	-188.2
3624.521	-190.2
3627.307	-202.2
3630.092	-198.2
3632.874	-204.2
3635.654	-209.2
3638.432	-212.2
3641.208	-220.2
3643.982	-213.2
3646.753	-224.2
3649.523	-222.2
3652.29	-231.2
3655.055	-225.2
3657.818	-232.2
3660.579	-246.2
3663.338	-238.2
3666.095	-247.2
3668.849	-253.2
3671.602	-255.2
3674.352	-254.2
3677.101	-262.2
3679.847	-263.2
3682.591	-258.2
3685.333	-266.2
3688.073	-263.2
3690.811	-269.2
3693.547	-263.2
3696.281	-276.2
3699.013	-272.2
3701.742	-274.2
3704.47	-278.2
3707.195	-285.2
3709.919	-280.2
3712.64	-279.2
3715.359	-284.2
3718.076	-282.2
3720.792	-293.2
3723.505	-290.2
3726.216	-289.2
3728.925	-292.2
3731.632	-298.2
3734.336	-299.2
3737.039	-302.2
3739.74	-297.2
3742.439	-296.2
3745.136	-293.2
3747.83	-297.2
3750.523	-297.2
3753.213	-300.2
3755.902	-304.2
3758.589	-301.2
3761.273	-297.2
3763.956	-302.2
3766.636	-301.2
3769.315	-305.2
3771.991	-304.2
3774.665	-303.2
3777.338	-303.2
3780.008	-301.2
3782.677	-309.2
3785.343	-311.2
3788.007	-305.2
3790.67	-311.2
3793.33	-309.2
3795.989	-313.2
3798.645	-311.2
3801.299	-317.2
3803.952	-313.2
3806.602	-315.2
3809.251	-318.2
3811.897	-309.2
3814.542	-308.2
3817.184	-310.2
3819.825	-308.2
3822.463	-313.2
3825.1	-312.2
3827.735	-313.2
3830.367	-317.2
3832.998	-316.2
3835.627	-320.2
3838.253	-320.2
3840.878	-314.2
3843.501	-316.2
3846.122	-311.2
3848.741	-315.2
3851.358	-320.2
3853.973	-318.2
3856.586	-314.2
3859.197	-317.2
3861.806	-318.2
3864.414	-311.2
3867.019	-307.2
3869.622	-313.2
3872.224	-303.2
3874.823	-280.2
3877.421	-260.2
3880.016	-233.2
3882.61	-184.2
3885.202	-176.2
3887.792	-214.2
3890.38	-258.2
3892.966	-280.2
3895.55	-301.2
3898.132	-311.2
3900.713	-316.2
3903.291	-319.2
3905.868	-317.2
3908.442	-314.2
3911.015	-317.2
3913.586	-320.2
3916.155	-317.2
3918.722	-317.2
3921.287	-317.2
3923.85	-321.2
3926.411	-316.2
3928.971	-324.2
3931.528	-324.2
3934.084	-316.2
3936.638	-323.2
3939.19	-324.2
3941.74	-323.2
3944.288	-320.2
3946.834	-323.2
3949.378	-323.2
3951.921	-319.2
3954.462	-324.2
3957	-315.2
3959.537	-311.2
3962.072	-314.2
3964.606	-314.2
3967.137	-322.2
3969.667	-319.2
3972.194	-318.2
3974.72	-318.2
3977.244	-318.2
3979.766	-318.2
3982.286	-316.2
3984.805	-311.2
3987.321	-319.2
3989.836	-318.2
3992.349	-315.2
3994.86	-311.2
3997.369	-322.2
3999.877	-314.2
4002.382	-309.2
4004.886	-314.2
4007.388	-314.2
4009.888	-306.2
4012.386	-310.2
4014.883	-309.2
4017.377	-313.2
4019.87	-312.2
4022.361	-315.2
4024.85	-317.2
4027.338	-315.2
4029.823	-313.2
4032.307	-319.2
4034.789	-318.2
4037.269	-325.2
4039.747	-322.2
4042.224	-310.2
4044.699	-321.2
4047.172	-317.2
4049.643	-316.2
4052.112	-315.2
4054.58	-312.2
4057.046	-318.2
4059.51	-316.2
4061.972	-319.2
4064.432	-316.2
4066.891	-309.2
4069.348	-315.2
4071.803	-319.2
4074.256	-310.2
4076.708	-314.2
4079.158	-310.2
4081.606	-309.2
4084.052	-315.2
4086.497	-319.2
4088.939	-314.2
4091.38	-302.2
4093.819	-310.2
4096.257	-330.2
4098.693	-331.2
4101.127	-333.2
4103.559	-329.2
4105.989	-130.2
4108.418	-124.2
4110.845	-117.2
4113.27	-113.2
4115.694	-93.2
4118.115	-76.2
4120.535	-316.2
4122.954	-322.2
4125.37	-318.2
4127.785	-315.2
4130.198	-317.2
4132.609	-313.2
4135.019	-335.2
4137.427	-334.2
4139.833	-331.2
4142.237	-328.2
