Data from 2018-2-7_conc=02_RamanShift_13.txt Node
Date: Tue Feb 13 11:34:44 IST 2018
User: aro
Spectrometer: QEPB0276
Trigger mode: 0
Integration Time (sec): 3.000000E1
Scans to average: 1
Electric dark correction enabled: true
Nonlinearity correction enabled: false
Boxcar width: 0
XAxis mode: Raman Shifts
Number of Pixels in Spectrum: 1044
>>>>>Begin Spectral Data<<<<<
160.701	-162.5
166.742	20.5
172.777	583.5
178.805	2241.5
184.826	6081.5
190.841	12493.5
196.849	19725.5
202.85	24664.5
208.845	26226.5
214.833	25967.5
220.815	25496.5
226.789	25318.5
232.758	25254.5
238.719	25071.5
244.674	24723.5
250.623	24260.5
256.565	23721.5
262.5	23265.5
268.429	22877.5
274.351	22452.5
280.267	22272.5
286.176	21964.5
292.079	21795.5
297.975	21582.5
303.865	21384.5
309.748	21265.5
315.625	21065.5
321.495	20942.5
327.359	20917.5
333.217	20837.5
339.068	20876.5
344.912	20887.5
350.751	20768.5
356.583	20745.5
362.408	20717.5
368.227	20756.5
374.04	20794.5
379.847	20822.5
385.647	20895.5
391.44	20982.5
397.228	21040.5
403.009	21145.5
408.784	21265.5
414.553	21328.5
420.315	21370.5
426.071	21276.5
431.821	21338.5
437.565	21374.5
443.302	21299.5
449.033	21289.5
454.758	21221.5
460.477	21151.5
466.189	21104.5
471.896	21107.5
477.596	21047.5
483.29	20929.5
488.978	20940.5
494.66	20807.5
500.335	20771.5
506.005	20497.5
511.668	20322.5
517.325	20047.5
522.977	19851.5
528.622	19725.5
534.261	19605.5
539.894	19498.5
545.521	19480.5
551.141	19445.5
556.756	19304.5
562.365	19264.5
567.968	19213.5
573.565	19090.5
579.155	18979.5
584.74	18968.5
590.319	18877.5
595.892	18843.5
601.459	18750.5
607.02	18601.5
612.575	18525.5
618.124	18504.5
623.667	18343.5
629.204	18324.5
634.735	18198.5
640.261	18118.5
645.781	18060.5
651.294	17990.5
656.802	18047.5
662.304	17961.5
667.8	17910.5
673.29	17914.5
678.775	17908.5
684.254	17853.5
689.726	17761.5
695.193	17703.5
700.655	17629.5
706.11	17508.5
711.56	17437.5
717.004	17386.5
722.442	17258.5
727.874	17197.5
733.301	17180.5
738.722	17145.5
744.137	17130.5
749.547	17113.5
754.951	17073.5
760.349	17068.5
765.741	17109.5
771.128	17133.5
776.509	17091.5
781.885	17136.5
787.254	17114.5
792.618	16971.5
797.977	16869.5
803.33	16771.5
808.677	16748.5
814.019	16617.5
819.355	16500.5
824.686	16456.5
830.011	16401.5
835.33	16397.5
840.644	16396.5
845.952	16459.5
851.255	16524.5
856.552	16520.5
861.844	16499.5
867.13	16490.5
872.41	16384.5
877.686	16282.5
882.955	16152.5
888.219	16001.5
893.478	15836.5
898.731	15660.5
903.979	15498.5
909.221	15432.5
914.458	15325.5
919.69	15347.5
924.916	15350.5
930.136	15468.5
935.351	15451.5
940.561	15490.5
945.766	15444.5
950.965	15400.5
956.158	15299.5
961.347	15126.5
966.529	14933.5
971.707	14643.5
976.879	14588.5
982.046	14434.5
987.208	14376.5
992.364	14417.5
997.515	14498.5
1002.66	14635.5
1007.801	14796.5
1012.936	14864.5
1018.066	14936.5
1023.19	14901.5
1028.309	14874.5
1033.423	14788.5
1038.532	14773.5
1043.636	14668.5
1048.734	14411.5
1053.827	14318.5
1058.915	14150.5
1063.998	14083.5
1069.075	13960.5
1074.147	14003.5
1079.214	14081.5
1084.276	14204.5
1089.333	14285.5
1094.385	14264.5
1099.431	14335.5
1104.472	14354.5
1109.509	14235.5
1114.54	14036.5
1119.565	13944.5
1124.586	13735.5
1129.602	13623.5
1134.613	13510.5
1139.618	13479.5
1144.619	13395.5
1149.614	13441.5
1154.604	13462.5
1159.589	13435.5
1164.57	13505.5
1169.545	13529.5
1174.515	13518.5
1179.48	13441.5
1184.44	13346.5
1189.395	13288.5
1194.345	13198.5
1199.29	13139.5
1204.23	13121.5
1209.165	13136.5
1214.095	13285.5
1219.021	13293.5
1223.941	13325.5
1228.856	13478.5
1233.766	13479.5
1238.672	13467.5
1243.572	13489.5
1248.467	13410.5
1253.358	13263.5
1258.244	13086.5
1263.124	12855.5
1268	12712.5
1272.871	12516.5
1277.737	12471.5
1282.599	12396.5
1287.455	12382.5
1292.306	12385.5
1297.153	12460.5
1301.995	12544.5
1306.832	12571.5
1311.664	12497.5
1316.491	12484.5
1321.314	12352.5
1326.132	12155.5
1330.945	11958.5
1335.753	11585.5
1340.556	11399.5
1345.354	11153.5
1350.148	10935.5
1354.937	10878.5
1359.722	10846.5
1364.501	10918.5
1369.276	11005.5
1374.046	11176.5
1378.811	11308.5
1383.572	11449.5
1388.327	11446.5
1393.079	11435.5
1397.825	11304.5
1402.567	11124.5
1407.304	11019.5
1412.036	10903.5
1416.764	10807.5
1421.487	10757.5
1426.205	10752.5
1430.919	10676.5
1435.628	10693.5
1440.333	10650.5
1445.032	10724.5
1449.727	10744.5
1454.418	10739.5
1459.104	10600.5
1463.785	10384.5
1468.462	10164.5
1473.134	9964.5
1477.802	9804.5
1482.465	9550.5
1487.123	9451.5
1491.777	9427.5
1496.426	9462.5
1501.071	9588.5
1505.711	9726.5
1510.347	9921.5
1514.978	10045.5
1519.604	10187.5
1524.226	10250.5
1528.844	10326.5
1533.457	10294.5
1538.065	10257.5
1542.669	10200.5
1547.269	10110.5
1551.864	10061.5
1556.454	10036.5
1561.041	10063.5
1565.622	10029.5
1570.199	10048.5
1574.772	10085.5
1579.34	10176.5
1583.904	10211.5
1588.464	10258.5
1593.019	10232.5
1597.569	10232.5
1602.115	10178.5
1606.657	10093.5
1611.195	9992.5
1615.728	9937.5
1620.256	9913.5
1624.78	9936.5
1629.3	9886.5
1633.816	9921.5
1638.327	9969.5
1642.834	10042.5
1647.336	10050.5
1651.834	10055.5
1656.328	10036.5
1660.817	10009.5
1665.302	9912.5
1669.783	9713.5
1674.259	9497.5
1678.732	9238.5
1683.199	8863.5
1687.663	8585.5
1692.122	8354.5
1696.577	8234.5
1701.028	8192.5
1705.474	8258.5
1709.917	8355.5
1714.355	8339.5
1718.788	8288.5
1723.218	8188.5
1727.643	8038.5
1732.064	7902.5
1736.481	7735.5
1740.893	7547.5
1745.301	7384.5
1749.705	7161.5
1754.105	6954.5
1758.501	6764.5
1762.893	6544.5
1767.28	6393.5
1771.663	6285.5
1776.042	6150.5
1780.417	6106.5
1784.787	6107.5
1789.154	6191.5
1793.516	6252.5
1797.874	6392.5
1802.228	6482.5
1806.578	6546.5
1810.924	6587.5
1815.266	6513.5
1819.603	6406.5
1823.937	6306.5
1828.266	6207.5
1832.591	6119.5
1836.913	6029.5
1841.23	6008.5
1845.543	5971.5
1849.852	5952.5
1854.156	5892.5
1858.457	5915.5
1862.754	5858.5
1867.047	5890.5
1871.335	5876.5
1875.62	5838.5
1879.9	5830.5
1884.177	5757.5
1888.449	5707.5
1892.718	5677.5
1896.982	5600.5
1901.243	5574.5
1905.499	5491.5
1909.752	5482.5
1914	5489.5
1918.245	5492.5
1922.485	5520.5
1926.722	5586.5
1930.954	5664.5
1935.183	5719.5
1939.408	5758.5
1943.628	5810.5
1947.845	5812.5
1952.058	5777.5
1956.267	5780.5
1960.472	5689.5
1964.673	5618.5
1968.87	5494.5
1973.063	5472.5
1977.252	5388.5
1981.438	5331.5
1985.619	5293.5
1989.797	5233.5
1993.971	5179.5
1998.14	5185.5
2002.306	5152.5
2006.469	5154.5
2010.627	5123.5
2014.781	5079.5
2018.932	5030.5
2023.078	4963.5
2027.221	4910.5
2031.36	4829.5
2035.495	4753.5
2039.627	4689.5
2043.754	4642.5
2047.878	4594.5
2051.998	4561.5
2056.114	4566.5
2060.226	4542.5
2064.334	4556.5
2068.439	4571.5
2072.54	4584.5
2076.637	4616.5
2080.73	4634.5
2084.82	4651.5
2088.906	4669.5
2092.988	4679.5
2097.066	4630.5
2101.14	4598.5
2105.211	4596.5
2109.278	4555.5
2113.342	4579.5
2117.401	4530.5
2121.457	4491.5
2125.509	4498.5
2129.558	4452.5
2133.602	4408.5
2137.643	4388.5
2141.681	4390.5
2145.714	4370.5
2149.744	4352.5
2153.77	4276.5
2157.793	4244.5
2161.812	4221.5
2165.827	4142.5
2169.838	4092.5
2173.846	4032.5
2177.851	3974.5
2181.851	3892.5
2185.848	3862.5
2189.841	3821.5
2193.831	3781.5
2197.817	3738.5
2201.799	3726.5
2205.778	3675.5
2209.753	3683.5
2213.725	3706.5
2217.693	3670.5
2221.657	3671.5
2225.618	3639.5
2229.575	3648.5
2233.529	3601.5
2237.479	3570.5
2241.425	3527.5
2245.368	3470.5
2249.307	3419.5
2253.243	3374.5
2257.175	3344.5
2261.104	3302.5
2265.029	3265.5
2268.95	3233.5
2272.868	3208.5
2276.783	3152.5
2280.694	3114.5
2284.601	3101.5
2288.505	3082.5
2292.405	3045.5
2296.302	3031.5
2300.195	2993.5
2304.085	2960.5
2307.971	2906.5
2311.854	2869.5
2315.734	2838.5
2319.609	2783.5
2323.482	2743.5
2327.351	2728.5
2331.216	2713.5
2335.078	2699.5
2338.937	2674.5
2342.792	2652.5
2346.643	2642.5
2350.492	2664.5
2354.336	2667.5
2358.178	2670.5
2362.015	2676.5
2365.85	2660.5
2369.681	2681.5
2373.508	2695.5
2377.333	2723.5
2381.153	2675.5
2384.971	2665.5
2388.785	2651.5
2392.595	2618.5
2396.402	2581.5
2400.206	2577.5
2404.007	2541.5
2407.804	2566.5
2411.597	2510.5
2415.388	2489.5
2419.174	2479.5
2422.958	2482.5
2426.738	2446.5
2430.515	2426.5
2434.289	2436.5
2438.059	2391.5
2441.825	2389.5
2445.589	2348.5
2449.349	2338.5
2453.106	2308.5
2456.859	2285.5
2460.61	2250.5
2464.356	2219.5
2468.1	2209.5
2471.84	2180.5
2475.577	2169.5
2479.311	2132.5
2483.041	2115.5
2486.768	2126.5
2490.492	2101.5
2494.213	2105.5
2497.93	2104.5
2501.644	2078.5
2505.355	2063.5
2509.062	2063.5
2512.766	2029.5
2516.467	2009.5
2520.165	2026.5
2523.859	2012.5
2527.551	1983.5
2531.239	1961.5
2534.923	1977.5
2538.605	1943.5
2542.283	1972.5
2545.958	1930.5
2549.63	1944.5
2553.299	1926.5
2556.964	1929.5
2560.626	1899.5
2564.285	1917.5
2567.941	1907.5
2571.594	1885.5
2575.243	1875.5
2578.89	1873.5
2582.533	1872.5
2586.173	1843.5
2589.809	1839.5
2593.443	1804.5
2597.073	1800.5
2600.701	1781.5
2604.325	1775.5
2607.946	1742.5
2611.564	1768.5
2615.178	1754.5
2618.79	1720.5
2622.398	1706.5
2626.004	1692.5
2629.606	1666.5
2633.205	1639.5
2636.801	1635.5
2640.394	1614.5
2643.983	1594.5
2647.57	1546.5
2651.153	1536.5
2654.734	1503.5
2658.311	1490.5
2661.885	1466.5
2665.456	1453.5
2669.025	1463.5
2672.589	1418.5
2676.151	1396.5
2679.71	1405.5
2683.266	1380.5
2686.819	1328.5
2690.368	1311.5
2693.915	1295.5
2697.458	1252.5
2700.999	1218.5
2704.536	1208.5
2708.071	1164.5
2711.602	1136.5
2715.13	1146.5
2718.656	1104.5
2722.178	1069.5
2725.697	1067.5
2729.214	1042.5
2732.727	1035.5
2736.237	1030.5
2739.744	1032.5
2743.249	1038.5
2746.75	1044.5
2750.248	1056.5
2753.743	1056.5
2757.236	1061.5
2760.725	1052.5
2764.211	1088.5
2767.695	1095.5
2771.175	1077.5
2774.652	1073.5
2778.127	1083.5
2781.598	1061.5
2785.067	1062.5
2788.532	1042.5
2791.995	1041.5
2795.455	1049.5
2798.911	1061.5
2802.365	1048.5
2805.816	1057.5
2809.264	1027.5
2812.709	1048.5
2816.151	1051.5
2819.59	1039.5
2823.026	1051.5
2826.46	1056.5
2829.89	1039.5
2833.318	1042.5
2836.742	1063.5
2840.164	1065.5
2843.583	1080.5
2846.999	1094.5
2850.412	1082.5
2853.822	1101.5
2857.229	1098.5
2860.634	1117.5
2864.035	1134.5
2867.434	1169.5
2870.83	1189.5
2874.223	1198.5
2877.613	1226.5
2881	1246.5
2884.385	1245.5
2887.766	1242.5
2891.145	1240.5
2894.521	1232.5
2897.894	1248.5
2901.264	1252.5
2904.631	1244.5
2907.996	1230.5
2911.358	1226.5
2914.717	1257.5
2918.073	1238.5
2921.426	1290.5
2924.777	1275.5
2928.124	1292.5
2931.469	1312.5
2934.811	1352.5
2938.15	1353.5
2941.487	1385.5
2944.821	1373.5
2948.152	1360.5
2951.48	1383.5
2954.805	1353.5
2958.128	1332.5
2961.447	1323.5
2964.765	1297.5
2968.079	1311.5
2971.39	1342.5
2974.699	1339.5
2978.005	1358.5
2981.308	1376.5
2984.609	1412.5
2987.907	1420.5
2991.202	1458.5
2994.494	1498.5
2997.784	1512.5
3001.07	1554.5
3004.355	1575.5
3007.636	1598.5
3010.915	1600.5
3014.191	1614.5
3017.464	1647.5
3020.734	1627.5
3024.002	1650.5
3027.267	1669.5
3030.53	1672.5
3033.789	1680.5
3037.046	1705.5
3040.301	1763.5
3043.552	1769.5
3046.801	1816.5
3050.048	1850.5
3053.291	1893.5
3056.532	1949.5
3059.771	1981.5
3063.006	2049.5
3066.239	2114.5
3069.469	2158.5
3072.697	2209.5
3075.922	2290.5
3079.144	2332.5
3082.364	2386.5
3085.581	2418.5
3088.795	2487.5
3092.007	2509.5
3095.216	2583.5
3098.423	2630.5
3101.627	2686.5
3104.828	2768.5
3108.026	2802.5
3111.222	2873.5
3114.416	2953.5
3117.607	3020.5
3120.795	3076.5
3123.98	3160.5
3127.163	3216.5
3130.344	3298.5
3133.521	3353.5
3136.696	3441.5
3139.869	3495.5
3143.039	3569.5
3146.206	3632.5
3149.371	3659.5
3152.533	3702.5
3155.693	3730.5
3158.85	3751.5
3162.005	3756.5
3165.157	3793.5
3168.306	3787.5
3171.453	3789.5
3174.597	3803.5
3177.739	3806.5
3180.878	3817.5
3184.014	3816.5
3187.149	3810.5
3190.28	3811.5
3193.409	3816.5
3196.536	3818.5
3199.659	3823.5
3202.781	3837.5
3205.9	3822.5
3209.016	3818.5
3212.13	3814.5
3215.241	3769.5
3218.35	3745.5
3221.456	3708.5
3224.56	3689.5
3227.661	3660.5
3230.76	3593.5
3233.856	3575.5
3236.95	3535.5
3240.041	3507.5
3243.13	3454.5
3246.216	3416.5
3249.3	3411.5
3252.382	3399.5
3255.46	3392.5
3258.537	3413.5
3261.611	3390.5
3264.682	3369.5
3267.751	3390.5
3270.818	3385.5
3273.882	3352.5
3276.943	3348.5
3280.002	3310.5
3283.059	3260.5
3286.113	3252.5
3289.165	3206.5
3292.214	3164.5
3295.261	3105.5
3298.306	3071.5
3301.348	2993.5
3304.387	2963.5
3307.425	2912.5
3310.459	2862.5
3313.492	2803.5
3316.521	2809.5
3319.549	2751.5
3322.574	2723.5
3325.597	2695.5
3328.617	2680.5
3331.635	2660.5
3334.65	2618.5
3337.663	2662.5
3340.674	2642.5
3343.682	2601.5
3346.688	2627.5
3349.691	2583.5
3352.692	2571.5
3355.691	2541.5
3358.687	2533.5
3361.681	2502.5
3364.673	2482.5
3367.662	2445.5
3370.649	2387.5
3373.633	2364.5
3376.615	2351.5
3379.595	2280.5
3382.572	2257.5
3385.547	2229.5
3388.52	2185.5
3391.49	2163.5
3394.458	2118.5
3397.424	2087.5
3400.387	2066.5
3403.348	2030.5
3406.307	2027.5
3409.263	1997.5
3412.217	1959.5
3415.168	1966.5
3418.118	1937.5
3421.065	1900.5
3424.009	1885.5
3426.951	1838.5
3429.891	1806.5
3432.829	1771.5
3435.764	1723.5
3438.697	1659.5
3441.628	1624.5
3444.557	1577.5
3447.483	1521.5
3450.407	1488.5
3453.328	1422.5
3456.247	1399.5
3459.164	1348.5
3462.079	1288.5
3464.991	1235.5
3467.902	1199.5
3470.809	1143.5
3473.715	1085.5
3476.618	1057.5
3479.519	1014.5
3482.418	983.5
3485.315	942.5
3488.209	907.5
3491.101	890.5
3493.99	836.5
3496.878	807.5
3499.763	778.5
3502.646	748.5
3505.527	713.5
3508.405	665.5
3511.281	633.5
3514.155	588.5
3517.027	549.5
3519.897	532.5
3522.764	480.5
3525.629	438.5
3528.492	407.5
3531.352	356.5
3534.211	328.5
3537.067	292.5
3539.921	251.5
3542.773	234.5
3545.622	194.5
3548.469	174.5
3551.315	136.5
3554.157	119.5
3556.998	100.5
3559.837	60.5
3562.673	44.5
3565.507	25.5
3568.339	15.5
3571.169	-10.5
3573.996	-33.5
3576.822	-67.5
3579.645	-64.5
3582.466	-91.5
3585.285	-102.5
3588.101	-130.5
3590.916	-146.5
3593.728	-170.5
3596.538	-179.5
3599.346	-205.5
3602.152	-211.5
3604.956	-235.5
3607.757	-242.5
3610.556	-254.5
3613.354	-272.5
3616.149	-283.5
3618.942	-293.5
3621.732	-317.5
3624.521	-324.5
3627.307	-324.5
3630.092	-340.5
3632.874	-344.5
3635.654	-350.5
3638.432	-361.5
3641.208	-370.5
3643.982	-392.5
3646.753	-392.5
3649.523	-395.5
3652.29	-404.5
3655.055	-419.5
3657.818	-421.5
3660.579	-426.5
3663.338	-439.5
3666.095	-449.5
3668.849	-464.5
3671.602	-474.5
3674.352	-469.5
3677.101	-477.5
3679.847	-493.5
3682.591	-494.5
3685.333	-502.5
3688.073	-508.5
3690.811	-514.5
3693.547	-513.5
3696.281	-521.5
3699.013	-522.5
3701.742	-531.5
3704.47	-535.5
3707.195	-547.5
3709.919	-544.5
3712.64	-544.5
3715.359	-555.5
3718.076	-549.5
3720.792	-560.5
3723.505	-559.5
3726.216	-564.5
3728.925	-569.5
3731.632	-576.5
3734.336	-580.5
3737.039	-584.5
3739.74	-580.5
3742.439	-577.5
3745.136	-585.5
3747.83	-584.5
3750.523	-583.5
3753.213	-596.5
3755.902	-587.5
3758.589	-582.5
3761.273	-588.5
3763.956	-598.5
3766.636	-593.5
3769.315	-598.5
3771.991	-604.5
3774.665	-603.5
3777.338	-604.5
3780.008	-601.5
3782.677	-606.5
3785.343	-611.5
3788.007	-607.5
3790.67	-606.5
3793.33	-613.5
3795.989	-620.5
3798.645	-609.5
3801.299	-616.5
3803.952	-611.5
3806.602	-617.5
3809.251	-623.5
3811.897	-613.5
3814.542	-614.5
3817.184	-621.5
3819.825	-621.5
3822.463	-620.5
3825.1	-625.5
3827.735	-625.5
3830.367	-628.5
3832.998	-631.5
3835.627	-629.5
3838.253	-633.5
3840.878	-627.5
3843.501	-629.5
3846.122	-627.5
3848.741	-629.5
3851.358	-632.5
3853.973	-631.5
3856.586	-630.5
3859.197	-632.5
3861.806	-632.5
3864.414	-627.5
3867.019	-630.5
3869.622	-635.5
3872.224	-632.5
3874.823	-618.5
3877.421	-600.5
3880.016	-593.5
3882.61	-572.5
3885.202	-564.5
3887.792	-584.5
3890.38	-608.5
3892.966	-620.5
3895.55	-629.5
3898.132	-635.5
3900.713	-638.5
3903.291	-645.5
3905.868	-644.5
3908.442	-644.5
3911.015	-644.5
3913.586	-648.5
3916.155	-641.5
3918.722	-643.5
3921.287	-645.5
3923.85	-645.5
3926.411	-645.5
3928.971	-645.5
3931.528	-644.5
3934.084	-639.5
3936.638	-642.5
3939.19	-646.5
3941.74	-651.5
3944.288	-651.5
3946.834	-653.5
3949.378	-650.5
3951.921	-644.5
3954.462	-644.5
3957	-642.5
3959.537	-644.5
3962.072	-642.5
3964.606	-644.5
3967.137	-646.5
3969.667	-640.5
3972.194	-636.5
3974.72	-640.5
3977.244	-629.5
3979.766	-635.5
3982.286	-633.5
3984.805	-629.5
3987.321	-629.5
3989.836	-632.5
3992.349	-637.5
3994.86	-634.5
3997.369	-641.5
3999.877	-632.5
4002.382	-634.5
4004.886	-634.5
4007.388	-636.5
4009.888	-634.5
4012.386	-632.5
4014.883	-628.5
4017.377	-630.5
4019.87	-634.5
4022.361	-632.5
4024.85	-634.5
4027.338	-636.5
4029.823	-635.5
4032.307	-642.5
4034.789	-643.5
4037.269	-639.5
4039.747	-644.5
4042.224	-636.5
4044.699	-644.5
4047.172	-642.5
4049.643	-637.5
4052.112	-634.5
4054.58	-634.5
4057.046	-642.5
4059.51	-640.5
4061.972	-634.5
4064.432	-637.5
4066.891	-635.5
4069.348	-635.5
4071.803	-637.5
4074.256	-633.5
4076.708	-637.5
4079.158	-640.5
4081.606	-631.5
4084.052	-633.5
4086.497	-638.5
4088.939	-632.5
4091.38	-624.5
4093.819	-630.5
4096.257	-666.5
4098.693	-671.5
4101.127	-670.5
4103.559	-673.5
4105.989	-400.5
4108.418	-380.5
4110.845	-360.5
4113.27	-336.5
4115.694	-293.5
4118.115	-242.5
4120.535	-637.5
4122.954	-638.5
4125.37	-637.5
4127.785	-631.5
4130.198	-633.5
4132.609	-628.5
4135.019	-673.5
4137.427	-670.5
4139.833	-666.5
4142.237	-672.5
