Data from 2018-2-7_conc=4_RamanShift_02.txt Node
Date: Tue Feb 13 13:28:13 IST 2018
User: aro
Spectrometer: QEPB0276
Trigger mode: 0
Integration Time (sec): 3.000000E1
Scans to average: 1
Electric dark correction enabled: true
Nonlinearity correction enabled: false
Boxcar width: 0
XAxis mode: Raman Shifts
Number of Pixels in Spectrum: 1044
>>>>>Begin Spectral Data<<<<<
160.701	-168.5
166.742	36.5
172.777	587.5
178.805	2259.5
184.826	6208.5
190.841	12709.5
196.849	20041.5
202.85	24940.5
208.845	26378.5
214.833	26058.5
220.815	25614.5
226.789	25321.5
232.758	25164.5
238.719	24982.5
244.674	24533.5
250.623	24041.5
256.565	23597.5
262.5	23022.5
268.429	22539.5
274.351	22247.5
280.267	21888.5
286.176	21601.5
292.079	21325.5
297.975	21167.5
303.865	20960.5
309.748	20786.5
315.625	20612.5
321.495	20502.5
327.359	20384.5
333.217	20356.5
339.068	20338.5
344.912	20357.5
350.751	20278.5
356.583	20279.5
362.408	20252.5
368.227	20245.5
374.04	20248.5
379.847	20290.5
385.647	20410.5
391.44	20504.5
397.228	20579.5
403.009	20762.5
408.784	20709.5
414.553	20797.5
420.315	20883.5
426.071	20826.5
431.821	20873.5
437.565	20819.5
443.302	20790.5
449.033	20748.5
454.758	20722.5
460.477	20665.5
466.189	20613.5
471.896	20542.5
477.596	20494.5
483.29	20434.5
488.978	20437.5
494.66	20337.5
500.335	20208.5
506.005	19987.5
511.668	19774.5
517.325	19525.5
522.977	19340.5
528.622	19231.5
534.261	19061.5
539.894	18988.5
545.521	18967.5
551.141	18856.5
556.756	18755.5
562.365	18695.5
567.968	18676.5
573.565	18492.5
579.155	18475.5
584.74	18347.5
590.319	18350.5
595.892	18247.5
601.459	18225.5
607.02	18078.5
612.575	17944.5
618.124	17890.5
623.667	17784.5
629.204	17679.5
634.735	17595.5
640.261	17527.5
645.781	17459.5
651.294	17485.5
656.802	17461.5
662.304	17353.5
667.8	17340.5
673.29	17304.5
678.775	17287.5
684.254	17232.5
689.726	17139.5
695.193	17059.5
700.655	17020.5
706.11	16918.5
711.56	16845.5
717.004	16781.5
722.442	16736.5
727.874	16630.5
733.301	16560.5
738.722	16541.5
744.137	16528.5
749.547	16537.5
754.951	16500.5
760.349	16516.5
765.741	16546.5
771.128	16505.5
776.509	16560.5
781.885	16556.5
787.254	16498.5
792.618	16452.5
797.977	16275.5
803.33	16167.5
808.677	16089.5
814.019	15989.5
819.355	15944.5
824.686	15886.5
830.011	15877.5
835.33	15877.5
840.644	15878.5
845.952	15861.5
851.255	15902.5
856.552	15963.5
861.844	15903.5
867.13	15838.5
872.41	15761.5
877.686	15784.5
882.955	15590.5
888.219	15478.5
893.478	15291.5
898.731	15064.5
903.979	14941.5
909.221	14806.5
914.458	14747.5
919.69	14775.5
924.916	14844.5
930.136	14867.5
935.351	14868.5
940.561	14855.5
945.766	14808.5
950.965	14769.5
956.158	14627.5
961.347	14484.5
966.529	14288.5
971.707	14058.5
976.879	13989.5
982.046	13852.5
987.208	13827.5
992.364	13832.5
997.515	13920.5
1002.66	14040.5
1007.801	14232.5
1012.936	14275.5
1018.066	14289.5
1023.19	14264.5
1028.309	14269.5
1033.423	14235.5
1038.532	14213.5
1043.636	14017.5
1048.734	13872.5
1053.827	13676.5
1058.915	13506.5
1063.998	13483.5
1069.075	13420.5
1074.147	13448.5
1079.214	13477.5
1084.276	13568.5
1089.333	13628.5
1094.385	13737.5
1099.431	13753.5
1104.472	13750.5
1109.509	13667.5
1114.54	13530.5
1119.565	13329.5
1124.586	13234.5
1129.602	12995.5
1134.613	12951.5
1139.618	12893.5
1144.619	12896.5
1149.614	12880.5
1154.604	12865.5
1159.589	12932.5
1164.57	13001.5
1169.545	12961.5
1174.515	12949.5
1179.48	12881.5
1184.44	12790.5
1189.395	12741.5
1194.345	12610.5
1199.29	12551.5
1204.23	12579.5
1209.165	12629.5
1214.095	12658.5
1219.021	12756.5
1223.941	12842.5
1228.856	12868.5
1233.766	12938.5
1238.672	12919.5
1243.572	12923.5
1248.467	12834.5
1253.358	12689.5
1258.244	12514.5
1263.124	12336.5
1268	12117.5
1272.871	11984.5
1277.737	11920.5
1282.599	11827.5
1287.455	11804.5
1292.306	11883.5
1297.153	11869.5
1301.995	11926.5
1306.832	11983.5
1311.664	12010.5
1316.491	11944.5
1321.314	11864.5
1326.132	11707.5
1330.945	11380.5
1335.753	11161.5
1340.556	10855.5
1345.354	10656.5
1350.148	10484.5
1354.937	10423.5
1359.722	10393.5
1364.501	10462.5
1369.276	10520.5
1374.046	10647.5
1378.811	10818.5
1383.572	10937.5
1388.327	10974.5
1393.079	10913.5
1397.825	10800.5
1402.567	10638.5
1407.304	10490.5
1412.036	10478.5
1416.764	10359.5
1421.487	10307.5
1426.205	10215.5
1430.919	10219.5
1435.628	10189.5
1440.333	10253.5
1445.032	10219.5
1449.727	10285.5
1454.418	10276.5
1459.104	10112.5
1463.785	9942.5
1468.462	9724.5
1473.134	9508.5
1477.802	9270.5
1482.465	9128.5
1487.123	9045.5
1491.777	9078.5
1496.426	9051.5
1501.071	9162.5
1505.711	9304.5
1510.347	9483.5
1514.978	9555.5
1519.604	9748.5
1524.226	9817.5
1528.844	9852.5
1533.457	9871.5
1538.065	9764.5
1542.669	9725.5
1547.269	9630.5
1551.864	9610.5
1556.454	9578.5
1561.041	9611.5
1565.622	9607.5
1570.199	9628.5
1574.772	9671.5
1579.34	9768.5
1583.904	9818.5
1588.464	9863.5
1593.019	9838.5
1597.569	9753.5
1602.115	9755.5
1606.657	9708.5
1611.195	9599.5
1615.728	9582.5
1620.256	9562.5
1624.78	9573.5
1629.3	9542.5
1633.816	9586.5
1638.327	9608.5
1642.834	9658.5
1647.336	9734.5
1651.834	9716.5
1656.328	9695.5
1660.817	9608.5
1665.302	9527.5
1669.783	9351.5
1674.259	9124.5
1678.732	8877.5
1683.199	8553.5
1687.663	8220.5
1692.122	7983.5
1696.577	7872.5
1701.028	7829.5
1705.474	7876.5
1709.917	7964.5
1714.355	7979.5
1718.788	7869.5
1723.218	7781.5
1727.643	7644.5
1732.064	7472.5
1736.481	7323.5
1740.893	7180.5
1745.301	6971.5
1749.705	6810.5
1754.105	6597.5
1758.501	6397.5
1762.893	6246.5
1767.28	6075.5
1771.663	5955.5
1776.042	5821.5
1780.417	5790.5
1784.787	5762.5
1789.154	5850.5
1793.516	5930.5
1797.874	6057.5
1802.228	6127.5
1806.578	6167.5
1810.924	6187.5
1815.266	6140.5
1819.603	6099.5
1823.937	5969.5
1828.266	5858.5
1832.591	5790.5
1836.913	5703.5
1841.23	5665.5
1845.543	5629.5
1849.852	5605.5
1854.156	5569.5
1858.457	5556.5
1862.754	5537.5
1867.047	5570.5
1871.335	5543.5
1875.62	5510.5
1879.9	5517.5
1884.177	5477.5
1888.449	5398.5
1892.718	5375.5
1896.982	5306.5
1901.243	5231.5
1905.499	5225.5
1909.752	5177.5
1914	5187.5
1918.245	5200.5
1922.485	5252.5
1926.722	5297.5
1930.954	5343.5
1935.183	5400.5
1939.408	5437.5
1943.628	5498.5
1947.845	5510.5
1952.058	5468.5
1956.267	5420.5
1960.472	5361.5
1964.673	5299.5
1968.87	5193.5
1973.063	5155.5
1977.252	5083.5
1981.438	5037.5
1985.619	4986.5
1989.797	4941.5
1993.971	4936.5
1998.14	4900.5
2002.306	4872.5
2006.469	4867.5
2010.627	4852.5
2014.781	4773.5
2018.932	4763.5
2023.078	4721.5
2027.221	4659.5
2031.36	4580.5
2035.495	4520.5
2039.627	4424.5
2043.754	4401.5
2047.878	4342.5
2051.998	4318.5
2056.114	4318.5
2060.226	4313.5
2064.334	4307.5
2068.439	4308.5
2072.54	4339.5
2076.637	4378.5
2080.73	4379.5
2084.82	4426.5
2088.906	4442.5
2092.988	4423.5
2097.066	4417.5
2101.14	4379.5
2105.211	4339.5
2109.278	4344.5
2113.342	4330.5
2117.401	4276.5
2121.457	4265.5
2125.509	4259.5
2129.558	4226.5
2133.602	4202.5
2137.643	4174.5
2141.681	4187.5
2145.714	4156.5
2149.744	4131.5
2153.77	4076.5
2157.793	4042.5
2161.812	4007.5
2165.827	3921.5
2169.838	3853.5
2173.846	3825.5
2177.851	3750.5
2181.851	3695.5
2185.848	3642.5
2189.841	3644.5
2193.831	3565.5
2197.817	3558.5
2201.799	3536.5
2205.778	3514.5
2209.753	3503.5
2213.725	3493.5
2217.693	3483.5
2221.657	3448.5
2225.618	3446.5
2229.575	3434.5
2233.529	3395.5
2237.479	3357.5
2241.425	3314.5
2245.368	3293.5
2249.307	3243.5
2253.243	3189.5
2257.175	3156.5
2261.104	3121.5
2265.029	3084.5
2268.95	3053.5
2272.868	3013.5
2276.783	2974.5
2280.694	2933.5
2284.601	2907.5
2288.505	2906.5
2292.405	2866.5
2296.302	2826.5
2300.195	2806.5
2304.085	2748.5
2307.971	2745.5
2311.854	2711.5
2315.734	2666.5
2319.609	2615.5
2323.482	2581.5
2327.351	2570.5
2331.216	2555.5
2335.078	2535.5
2338.937	2523.5
2342.792	2519.5
2346.643	2506.5
2350.492	2510.5
2354.336	2496.5
2358.178	2493.5
2362.015	2521.5
2365.85	2508.5
2369.681	2531.5
2373.508	2527.5
2377.333	2528.5
2381.153	2497.5
2384.971	2497.5
2388.785	2472.5
2392.595	2457.5
2396.402	2443.5
2400.206	2429.5
2404.007	2399.5
2407.804	2386.5
2411.597	2375.5
2415.388	2339.5
2419.174	2339.5
2422.958	2309.5
2426.738	2305.5
2430.515	2271.5
2434.289	2273.5
2438.059	2256.5
2441.825	2233.5
2445.589	2198.5
2449.349	2186.5
2453.106	2139.5
2456.859	2121.5
2460.61	2093.5
2464.356	2079.5
2468.1	2043.5
2471.84	2031.5
2475.577	2004.5
2479.311	2004.5
2483.041	1992.5
2486.768	1967.5
2490.492	1974.5
2494.213	1971.5
2497.93	1946.5
2501.644	1943.5
2505.355	1935.5
2509.062	1922.5
2512.766	1884.5
2516.467	1889.5
2520.165	1899.5
2523.859	1858.5
2527.551	1849.5
2531.239	1837.5
2534.923	1834.5
2538.605	1802.5
2542.283	1817.5
2545.958	1816.5
2549.63	1804.5
2553.299	1792.5
2556.964	1797.5
2560.626	1786.5
2564.285	1785.5
2567.941	1776.5
2571.594	1772.5
2575.243	1755.5
2578.89	1735.5
2582.533	1711.5
2586.173	1741.5
2589.809	1707.5
2593.443	1702.5
2597.073	1677.5
2600.701	1660.5
2604.325	1661.5
2607.946	1618.5
2611.564	1639.5
2615.178	1597.5
2618.79	1596.5
2622.398	1598.5
2626.004	1595.5
2629.606	1547.5
2633.205	1533.5
2636.801	1500.5
2640.394	1508.5
2643.983	1474.5
2647.57	1445.5
2651.153	1405.5
2654.734	1393.5
2658.311	1373.5
2661.885	1352.5
2665.456	1348.5
2669.025	1328.5
2672.589	1304.5
2676.151	1280.5
2679.71	1277.5
2683.266	1257.5
2686.819	1222.5
2690.368	1205.5
2693.915	1171.5
2697.458	1172.5
2700.999	1133.5
2704.536	1111.5
2708.071	1062.5
2711.602	1057.5
2715.13	1047.5
2718.656	1009.5
2722.178	993.5
2725.697	978.5
2729.214	968.5
2732.727	962.5
2736.237	952.5
2739.744	967.5
2743.249	953.5
2746.75	951.5
2750.248	969.5
2753.743	970.5
2757.236	990.5
2760.725	977.5
2764.211	1008.5
2767.695	1014.5
2771.175	995.5
2774.652	994.5
2778.127	984.5
2781.598	979.5
2785.067	965.5
2788.532	986.5
2791.995	969.5
2795.455	982.5
2798.911	984.5
2802.365	974.5
2805.816	979.5
2809.264	981.5
2812.709	975.5
2816.151	978.5
2819.59	979.5
2823.026	980.5
2826.46	977.5
2829.89	964.5
2833.318	972.5
2836.742	979.5
2840.164	992.5
2843.583	997.5
2846.999	1007.5
2850.412	1012.5
2853.822	1038.5
2857.229	1053.5
2860.634	1075.5
2864.035	1087.5
2867.434	1105.5
2870.83	1137.5
2874.223	1153.5
2877.613	1173.5
2881	1187.5
2884.385	1184.5
2887.766	1196.5
2891.145	1197.5
2894.521	1181.5
2897.894	1180.5
2901.264	1192.5
2904.631	1180.5
2907.996	1194.5
2911.358	1194.5
2914.717	1199.5
2918.073	1215.5
2921.426	1235.5
2924.777	1255.5
2928.124	1270.5
2931.469	1290.5
2934.811	1309.5
2938.15	1334.5
2941.487	1343.5
2944.821	1358.5
2948.152	1345.5
2951.48	1332.5
2954.805	1313.5
2958.128	1320.5
2961.447	1295.5
2964.765	1296.5
2968.079	1290.5
2971.39	1309.5
2974.699	1342.5
2978.005	1352.5
2981.308	1372.5
2984.609	1401.5
2987.907	1426.5
2991.202	1463.5
2994.494	1479.5
2997.784	1493.5
3001.07	1529.5
3004.355	1547.5
3007.636	1571.5
3010.915	1583.5
3014.191	1616.5
3017.464	1624.5
3020.734	1637.5
3024.002	1653.5
3027.267	1661.5
3030.53	1690.5
3033.789	1709.5
3037.046	1717.5
3040.301	1759.5
3043.552	1767.5
3046.801	1834.5
3050.048	1871.5
3053.291	1938.5
3056.532	1981.5
3059.771	2035.5
3063.006	2082.5
3066.239	2152.5
3069.469	2199.5
3072.697	2278.5
3075.922	2324.5
3079.144	2375.5
3082.364	2437.5
3085.581	2480.5
3088.795	2532.5
3092.007	2590.5
3095.216	2649.5
3098.423	2712.5
3101.627	2767.5
3104.828	2833.5
3108.026	2892.5
3111.222	2954.5
3114.416	3032.5
3117.607	3077.5
3120.795	3169.5
3123.98	3236.5
3127.163	3337.5
3130.344	3376.5
3133.521	3444.5
3136.696	3521.5
3139.869	3609.5
3143.039	3685.5
3146.206	3746.5
3149.371	3792.5
3152.533	3790.5
3155.693	3840.5
3158.85	3858.5
3162.005	3869.5
3165.157	3883.5
3168.306	3891.5
3171.453	3905.5
3174.597	3927.5
3177.739	3940.5
3180.878	3906.5
3184.014	3938.5
3187.149	3943.5
3190.28	3964.5
3193.409	3959.5
3196.536	3959.5
3199.659	3974.5
3202.781	3952.5
3205.9	3950.5
3209.016	3950.5
3212.13	3953.5
3215.241	3917.5
3218.35	3891.5
3221.456	3815.5
3224.56	3781.5
3227.661	3750.5
3230.76	3675.5
3233.856	3659.5
3236.95	3613.5
3240.041	3583.5
3243.13	3559.5
3246.216	3523.5
3249.3	3508.5
3252.382	3511.5
3255.46	3479.5
3258.537	3485.5
3261.611	3466.5
3264.682	3479.5
3267.751	3459.5
3270.818	3459.5
3273.882	3444.5
3276.943	3446.5
3280.002	3396.5
3283.059	3364.5
3286.113	3303.5
3289.165	3278.5
3292.214	3234.5
3295.261	3190.5
3298.306	3129.5
3301.348	3100.5
3304.387	3038.5
3307.425	2968.5
3310.459	2964.5
3313.492	2898.5
3316.521	2873.5
3319.549	2855.5
3322.574	2803.5
3325.597	2787.5
3328.617	2780.5
3331.635	2766.5
3334.65	2739.5
3337.663	2706.5
3340.674	2721.5
3343.682	2689.5
3346.688	2685.5
3349.691	2668.5
3352.692	2661.5
3355.691	2642.5
3358.687	2588.5
3361.681	2555.5
3364.673	2536.5
3367.662	2520.5
3370.649	2464.5
3373.633	2441.5
3376.615	2415.5
3379.595	2363.5
3382.572	2342.5
3385.547	2288.5
3388.52	2276.5
3391.49	2216.5
3394.458	2169.5
3397.424	2151.5
3400.387	2122.5
3403.348	2106.5
3406.307	2086.5
3409.263	2074.5
3412.217	2035.5
3415.168	2013.5
3418.118	1986.5
3421.065	1952.5
3424.009	1927.5
3426.951	1892.5
3429.891	1846.5
3432.829	1815.5
3435.764	1761.5
3438.697	1736.5
3441.628	1678.5
3444.557	1606.5
3447.483	1570.5
3450.407	1515.5
3453.328	1468.5
3456.247	1427.5
3459.164	1357.5
3462.079	1322.5
3464.991	1272.5
3467.902	1214.5
3470.809	1152.5
3473.715	1104.5
3476.618	1079.5
3479.519	1043.5
3482.418	1025.5
3485.315	969.5
3488.209	939.5
3491.101	887.5
3493.99	872.5
3496.878	811.5
3499.763	786.5
3502.646	766.5
3505.527	721.5
3508.405	665.5
3511.281	640.5
3514.155	609.5
3517.027	575.5
3519.897	525.5
3522.764	504.5
3525.629	448.5
3528.492	393.5
3531.352	369.5
3534.211	318.5
3537.067	292.5
3539.921	251.5
3542.773	239.5
3545.622	199.5
3548.469	174.5
3551.315	142.5
3554.157	117.5
3556.998	85.5
3559.837	73.5
3562.673	41.5
3565.507	23.5
3568.339	16.5
3571.169	-13.5
3573.996	-32.5
3576.822	-59.5
3579.645	-71.5
3582.466	-100.5
3585.285	-120.5
3588.101	-141.5
3590.916	-153.5
3593.728	-169.5
3596.538	-192.5
3599.346	-215.5
3602.152	-220.5
3604.956	-237.5
3607.757	-244.5
3610.556	-263.5
3613.354	-282.5
3616.149	-291.5
3618.942	-307.5
3621.732	-325.5
3624.521	-327.5
3627.307	-341.5
3630.092	-353.5
3632.874	-363.5
3635.654	-368.5
3638.432	-369.5
3641.208	-379.5
3643.982	-392.5
3646.753	-393.5
3649.523	-409.5
3652.29	-422.5
3655.055	-428.5
3657.818	-433.5
3660.579	-444.5
3663.338	-451.5
3666.095	-460.5
3668.849	-482.5
3671.602	-477.5
3674.352	-480.5
3677.101	-492.5
3679.847	-504.5
3682.591	-510.5
3685.333	-510.5
3688.073	-510.5
3690.811	-514.5
3693.547	-523.5
3696.281	-529.5
3699.013	-524.5
3701.742	-538.5
3704.47	-545.5
3707.195	-557.5
3709.919	-554.5
3712.64	-562.5
3715.359	-559.5
3718.076	-564.5
3720.792	-570.5
3723.505	-573.5
3726.216	-571.5
3728.925	-576.5
3731.632	-585.5
3734.336	-584.5
3737.039	-589.5
3739.74	-590.5
3742.439	-590.5
3745.136	-604.5
3747.83	-592.5
3750.523	-590.5
3753.213	-604.5
3755.902	-603.5
3758.589	-599.5
3761.273	-598.5
3763.956	-609.5
3766.636	-609.5
3769.315	-616.5
3771.991	-614.5
3774.665	-615.5
3777.338	-618.5
3780.008	-617.5
3782.677	-615.5
3785.343	-620.5
3788.007	-612.5
3790.67	-619.5
3793.33	-626.5
3795.989	-623.5
3798.645	-625.5
3801.299	-624.5
3803.952	-627.5
3806.602	-631.5
3809.251	-635.5
3811.897	-626.5
3814.542	-619.5
3817.184	-633.5
3819.825	-629.5
3822.463	-632.5
3825.1	-636.5
3827.735	-640.5
3830.367	-639.5
3832.998	-642.5
3835.627	-641.5
3838.253	-644.5
3840.878	-643.5
3843.501	-637.5
3846.122	-635.5
3848.741	-640.5
3851.358	-641.5
3853.973	-635.5
3856.586	-641.5
3859.197	-641.5
3861.806	-647.5
3864.414	-640.5
3867.019	-647.5
3869.622	-645.5
3872.224	-640.5
3874.823	-625.5
3877.421	-608.5
3880.016	-593.5
3882.61	-559.5
3885.202	-564.5
3887.792	-580.5
3890.38	-608.5
3892.966	-629.5
3895.55	-636.5
3898.132	-648.5
3900.713	-651.5
3903.291	-652.5
3905.868	-653.5
3908.442	-656.5
3911.015	-655.5
3913.586	-658.5
3916.155	-653.5
3918.722	-647.5
3921.287	-653.5
3923.85	-651.5
3926.411	-656.5
3928.971	-653.5
3931.528	-656.5
3934.084	-646.5
3936.638	-656.5
3939.19	-656.5
3941.74	-663.5
3944.288	-658.5
3946.834	-661.5
3949.378	-659.5
3951.921	-664.5
3954.462	-662.5
3957	-658.5
3959.537	-656.5
3962.072	-653.5
3964.606	-650.5
3967.137	-658.5
3969.667	-653.5
3972.194	-653.5
3974.72	-653.5
3977.244	-647.5
3979.766	-644.5
3982.286	-647.5
3984.805	-638.5
3987.321	-640.5
3989.836	-642.5
3992.349	-644.5
3994.86	-639.5
3997.369	-651.5
3999.877	-644.5
4002.382	-641.5
4004.886	-647.5
4007.388	-648.5
4009.888	-642.5
4012.386	-645.5
4014.883	-640.5
4017.377	-642.5
4019.87	-639.5
4022.361	-644.5
4024.85	-641.5
4027.338	-646.5
4029.823	-641.5
4032.307	-647.5
4034.789	-648.5
4037.269	-653.5
4039.747	-652.5
4042.224	-646.5
4044.699	-651.5
4047.172	-652.5
4049.643	-648.5
4052.112	-646.5
4054.58	-643.5
4057.046	-646.5
4059.51	-648.5
4061.972	-648.5
4064.432	-645.5
4066.891	-643.5
4069.348	-647.5
4071.803	-647.5
4074.256	-639.5
4076.708	-644.5
4079.158	-649.5
4081.606	-644.5
4084.052	-643.5
4086.497	-648.5
4088.939	-643.5
4091.38	-639.5
4093.819	-645.5
4096.257	-674.5
4098.693	-680.5
4101.127	-682.5
4103.559	-683.5
4105.989	-408.5
4108.418	-395.5
4110.845	-368.5
4113.27	-350.5
4115.694	-299.5
4118.115	-257.5
4120.535	-648.5
4122.954	-653.5
4125.37	-647.5
4127.785	-641.5
4130.198	-649.5
4132.609	-637.5
4135.019	-682.5
4137.427	-680.5
4139.833	-674.5
4142.237	-677.5
