Data from 2018-2-7_conc=02_RamanShift_02.txt Node
Date: Tue Feb 13 11:25:14 IST 2018
User: aro
Spectrometer: QEPB0276
Trigger mode: 0
Integration Time (sec): 3.000000E1
Scans to average: 1
Electric dark correction enabled: true
Nonlinearity correction enabled: false
Boxcar width: 0
XAxis mode: Raman Shifts
Number of Pixels in Spectrum: 1044
>>>>>Begin Spectral Data<<<<<
160.701	-155.4
166.742	23.6
172.777	582.6
178.805	2245.6
184.826	6134.6
190.841	12570.6
196.849	19873.6
202.85	24798.6
208.845	26344.6
214.833	26066.6
220.815	25547.6
226.789	25344.6
232.758	25134.6
238.719	24916.6
244.674	24472.6
250.623	24093.6
256.565	23549.6
262.5	23006.6
268.429	22560.6
274.351	22169.6
280.267	21805.6
286.176	21573.6
292.079	21366.6
297.975	21103.6
303.865	20964.6
309.748	20740.6
315.625	20620.6
321.495	20483.6
327.359	20431.6
333.217	20343.6
339.068	20336.6
344.912	20321.6
350.751	20248.6
356.583	20270.6
362.408	20257.6
368.227	20210.6
374.04	20322.6
379.847	20344.6
385.647	20347.6
391.44	20409.6
397.228	20540.6
403.009	20682.6
408.784	20718.6
414.553	20780.6
420.315	20749.6
426.071	20803.6
431.821	20743.6
437.565	20798.6
443.302	20775.6
449.033	20711.6
454.758	20671.6
460.477	20584.6
466.189	20587.6
471.896	20509.6
477.596	20470.6
483.29	20397.6
488.978	20350.6
494.66	20275.6
500.335	20147.6
506.005	19909.6
511.668	19727.6
517.325	19492.6
522.977	19338.6
528.622	19136.6
534.261	19048.6
539.894	18995.6
545.521	18839.6
551.141	18811.6
556.756	18721.6
562.365	18665.6
567.968	18623.6
573.565	18558.6
579.155	18379.6
584.74	18363.6
590.319	18383.6
595.892	18269.6
601.459	18088.6
607.02	18118.6
612.575	18011.6
618.124	17861.6
623.667	17776.6
629.204	17696.6
634.735	17628.6
640.261	17518.6
645.781	17467.6
651.294	17462.6
656.802	17348.6
662.304	17352.6
667.8	17327.6
673.29	17314.6
678.775	17339.6
684.254	17245.6
689.726	17211.6
695.193	17130.6
700.655	17102.6
706.11	16963.6
711.56	16861.6
717.004	16766.6
722.442	16716.6
727.874	16649.6
733.301	16562.6
738.722	16519.6
744.137	16508.6
749.547	16509.6
754.951	16506.6
760.349	16477.6
765.741	16526.6
771.128	16495.6
776.509	16496.6
781.885	16525.6
787.254	16466.6
792.618	16399.6
797.977	16270.6
803.33	16128.6
808.677	16114.6
814.019	16006.6
819.355	15908.6
824.686	15880.6
830.011	15789.6
835.33	15826.6
840.644	15878.6
845.952	15850.6
851.255	15874.6
856.552	15856.6
861.844	15900.6
867.13	15840.6
872.41	15775.6
877.686	15702.6
882.955	15520.6
888.219	15441.6
893.478	15269.6
898.731	15012.6
903.979	14898.6
909.221	14754.6
914.458	14690.6
919.69	14755.6
924.916	14748.6
930.136	14832.6
935.351	14875.6
940.561	14853.6
945.766	14768.6
950.965	14742.6
956.158	14654.6
961.347	14454.6
966.529	14252.6
971.707	14101.6
976.879	13928.6
982.046	13789.6
987.208	13822.6
992.364	13795.6
997.515	13852.6
1002.66	14036.6
1007.801	14163.6
1012.936	14209.6
1018.066	14254.6
1023.19	14209.6
1028.309	14266.6
1033.423	14134.6
1038.532	14133.6
1043.636	13975.6
1048.734	13813.6
1053.827	13638.6
1058.915	13521.6
1063.998	13389.6
1069.075	13326.6
1074.147	13370.6
1079.214	13485.6
1084.276	13550.6
1089.333	13579.6
1094.385	13638.6
1099.431	13722.6
1104.472	13695.6
1109.509	13597.6
1114.54	13465.6
1119.565	13275.6
1124.586	13133.6
1129.602	12972.6
1134.613	12859.6
1139.618	12864.6
1144.619	12766.6
1149.614	12784.6
1154.604	12802.6
1159.589	12866.6
1164.57	12869.6
1169.545	12862.6
1174.515	12915.6
1179.48	12806.6
1184.44	12740.6
1189.395	12627.6
1194.345	12525.6
1199.29	12503.6
1204.23	12465.6
1209.165	12499.6
1214.095	12583.6
1219.021	12639.6
1223.941	12731.6
1228.856	12787.6
1233.766	12796.6
1238.672	12883.6
1243.572	12847.6
1248.467	12738.6
1253.358	12602.6
1258.244	12375.6
1263.124	12226.6
1268	12091.6
1272.871	11901.6
1277.737	11879.6
1282.599	11752.6
1287.455	11733.6
1292.306	11758.6
1297.153	11796.6
1301.995	11854.6
1306.832	11901.6
1311.664	11923.6
1316.491	11879.6
1321.314	11822.6
1326.132	11556.6
1330.945	11362.6
1335.753	11071.6
1340.556	10841.6
1345.354	10581.6
1350.148	10465.6
1354.937	10398.6
1359.722	10367.6
1364.501	10435.6
1369.276	10486.6
1374.046	10608.6
1378.811	10737.6
1383.572	10854.6
1388.327	10863.6
1393.079	10868.6
1397.825	10707.6
1402.567	10584.6
1407.304	10450.6
1412.036	10354.6
1416.764	10299.6
1421.487	10261.6
1426.205	10168.6
1430.919	10113.6
1435.628	10127.6
1440.333	10135.6
1445.032	10182.6
1449.727	10222.6
1454.418	10147.6
1459.104	10059.6
1463.785	9896.6
1468.462	9674.6
1473.134	9539.6
1477.802	9328.6
1482.465	9184.6
1487.123	9022.6
1491.777	9032.6
1496.426	9087.6
1501.071	9174.6
1505.711	9284.6
1510.347	9477.6
1514.978	9601.6
1519.604	9710.6
1524.226	9807.6
1528.844	9823.6
1533.457	9789.6
1538.065	9754.6
1542.669	9662.6
1547.269	9609.6
1551.864	9592.6
1556.454	9543.6
1561.041	9568.6
1565.622	9524.6
1570.199	9533.6
1574.772	9587.6
1579.34	9680.6
1583.904	9740.6
1588.464	9777.6
1593.019	9817.6
1597.569	9727.6
1602.115	9698.6
1606.657	9662.6
1611.195	9589.6
1615.728	9574.6
1620.256	9504.6
1624.78	9490.6
1629.3	9529.6
1633.816	9588.6
1638.327	9632.6
1642.834	9668.6
1647.336	9741.6
1651.834	9736.6
1656.328	9726.6
1660.817	9659.6
1665.302	9541.6
1669.783	9384.6
1674.259	9154.6
1678.732	8914.6
1683.199	8579.6
1687.663	8329.6
1692.122	8037.6
1696.577	7934.6
1701.028	7875.6
1705.474	7890.6
1709.917	7964.6
1714.355	7974.6
1718.788	7875.6
1723.218	7747.6
1727.643	7633.6
1732.064	7502.6
1736.481	7369.6
1740.893	7155.6
1745.301	6963.6
1749.705	6768.6
1754.105	6591.6
1758.501	6400.6
1762.893	6208.6
1767.28	6063.6
1771.663	5944.6
1776.042	5859.6
1780.417	5817.6
1784.787	5822.6
1789.154	5876.6
1793.516	5938.6
1797.874	6030.6
1802.228	6141.6
1806.578	6219.6
1810.924	6147.6
1815.266	6152.6
1819.603	6043.6
1823.937	5964.6
1828.266	5842.6
1832.591	5795.6
1836.913	5688.6
1841.23	5647.6
1845.543	5648.6
1849.852	5589.6
1854.156	5594.6
1858.457	5565.6
1862.754	5562.6
1867.047	5566.6
1871.335	5543.6
1875.62	5513.6
1879.9	5493.6
1884.177	5482.6
1888.449	5449.6
1892.718	5366.6
1896.982	5306.6
1901.243	5288.6
1905.499	5226.6
1909.752	5210.6
1914	5202.6
1918.245	5249.6
1922.485	5249.6
1926.722	5299.6
1930.954	5351.6
1935.183	5415.6
1939.408	5499.6
1943.628	5504.6
1947.845	5504.6
1952.058	5495.6
1956.267	5449.6
1960.472	5376.6
1964.673	5291.6
1968.87	5236.6
1973.063	5105.6
1977.252	5068.6
1981.438	5007.6
1985.619	4966.6
1989.797	4922.6
1993.971	4917.6
1998.14	4900.6
2002.306	4946.6
2006.469	4854.6
2010.627	4820.6
2014.781	4791.6
2018.932	4736.6
2023.078	4696.6
2027.221	4674.6
2031.36	4563.6
2035.495	4517.6
2039.627	4412.6
2043.754	4396.6
2047.878	4345.6
2051.998	4338.6
2056.114	4323.6
2060.226	4291.6
2064.334	4312.6
2068.439	4305.6
2072.54	4336.6
2076.637	4405.6
2080.73	4410.6
2084.82	4458.6
2088.906	4452.6
2092.988	4452.6
2097.066	4405.6
2101.14	4411.6
2105.211	4371.6
2109.278	4347.6
2113.342	4338.6
2117.401	4317.6
2121.457	4267.6
2125.509	4248.6
2129.558	4227.6
2133.602	4179.6
2137.643	4185.6
2141.681	4180.6
2145.714	4123.6
2149.744	4105.6
2153.77	4081.6
2157.793	4046.6
2161.812	3995.6
2165.827	3913.6
2169.838	3859.6
2173.846	3810.6
2177.851	3751.6
2181.851	3672.6
2185.848	3634.6
2189.841	3594.6
2193.831	3572.6
2197.817	3536.6
2201.799	3510.6
2205.778	3486.6
2209.753	3483.6
2213.725	3511.6
2217.693	3474.6
2221.657	3435.6
2225.618	3444.6
2229.575	3442.6
2233.529	3383.6
2237.479	3372.6
2241.425	3344.6
2245.368	3304.6
2249.307	3247.6
2253.243	3170.6
2257.175	3156.6
2261.104	3091.6
2265.029	3044.6
2268.95	3030.6
2272.868	2970.6
2276.783	2991.6
2280.694	2930.6
2284.601	2894.6
2288.505	2902.6
2292.405	2869.6
2296.302	2829.6
2300.195	2804.6
2304.085	2747.6
2307.971	2685.6
2311.854	2674.6
2315.734	2651.6
2319.609	2596.6
2323.482	2564.6
2327.351	2538.6
2331.216	2530.6
2335.078	2516.6
2338.937	2498.6
2342.792	2470.6
2346.643	2500.6
2350.492	2482.6
2354.336	2493.6
2358.178	2500.6
2362.015	2516.6
2365.85	2489.6
2369.681	2501.6
2373.508	2495.6
2377.333	2508.6
2381.153	2481.6
2384.971	2469.6
2388.785	2455.6
2392.595	2437.6
2396.402	2399.6
2400.206	2373.6
2404.007	2367.6
2407.804	2367.6
2411.597	2345.6
2415.388	2327.6
2419.174	2324.6
2422.958	2304.6
2426.738	2271.6
2430.515	2257.6
2434.289	2246.6
2438.059	2219.6
2441.825	2203.6
2445.589	2182.6
2449.349	2146.6
2453.106	2136.6
2456.859	2091.6
2460.61	2067.6
2464.356	2054.6
2468.1	2032.6
2471.84	1989.6
2475.577	1988.6
2479.311	1990.6
2483.041	1965.6
2486.768	1958.6
2490.492	1939.6
2494.213	1920.6
2497.93	1921.6
2501.644	1918.6
2505.355	1901.6
2509.062	1899.6
2512.766	1900.6
2516.467	1893.6
2520.165	1865.6
2523.859	1855.6
2527.551	1841.6
2531.239	1828.6
2534.923	1822.6
2538.605	1796.6
2542.283	1789.6
2545.958	1783.6
2549.63	1798.6
2553.299	1799.6
2556.964	1787.6
2560.626	1779.6
2564.285	1772.6
2567.941	1752.6
2571.594	1729.6
2575.243	1723.6
2578.89	1741.6
2582.533	1686.6
2586.173	1703.6
2589.809	1673.6
2593.443	1646.6
2597.073	1639.6
2600.701	1628.6
2604.325	1613.6
2607.946	1618.6
2611.564	1582.6
2615.178	1597.6
2618.79	1572.6
2622.398	1574.6
2626.004	1546.6
2629.606	1520.6
2633.205	1524.6
2636.801	1472.6
2640.394	1487.6
2643.983	1436.6
2647.57	1419.6
2651.153	1395.6
2654.734	1390.6
2658.311	1358.6
2661.885	1337.6
2665.456	1306.6
2669.025	1297.6
2672.589	1291.6
2676.151	1292.6
2679.71	1250.6
2683.266	1227.6
2686.819	1214.6
2690.368	1195.6
2693.915	1155.6
2697.458	1145.6
2700.999	1117.6
2704.536	1083.6
2708.071	1070.6
2711.602	1037.6
2715.13	1019.6
2718.656	1001.6
2722.178	990.6
2725.697	962.6
2729.214	957.6
2732.727	943.6
2736.237	964.6
2739.744	962.6
2743.249	944.6
2746.75	941.6
2750.248	959.6
2753.743	969.6
2757.236	973.6
2760.725	972.6
2764.211	1011.6
2767.695	1007.6
2771.175	1009.6
2774.652	981.6
2778.127	975.6
2781.598	969.6
2785.067	981.6
2788.532	969.6
2791.995	961.6
2795.455	970.6
2798.911	964.6
2802.365	978.6
2805.816	979.6
2809.264	969.6
2812.709	980.6
2816.151	960.6
2819.59	960.6
2823.026	959.6
2826.46	961.6
2829.89	969.6
2833.318	960.6
2836.742	974.6
2840.164	974.6
2843.583	1001.6
2846.999	1005.6
2850.412	1012.6
2853.822	1019.6
2857.229	1043.6
2860.634	1062.6
2864.035	1095.6
2867.434	1106.6
2870.83	1138.6
2874.223	1143.6
2877.613	1167.6
2881	1180.6
2884.385	1189.6
2887.766	1194.6
2891.145	1201.6
2894.521	1184.6
2897.894	1184.6
2901.264	1194.6
2904.631	1191.6
2907.996	1198.6
2911.358	1209.6
2914.717	1236.6
2918.073	1230.6
2921.426	1244.6
2924.777	1261.6
2928.124	1281.6
2931.469	1310.6
2934.811	1339.6
2938.15	1356.6
2941.487	1356.6
2944.821	1371.6
2948.152	1385.6
2951.48	1355.6
2954.805	1329.6
2958.128	1324.6
2961.447	1325.6
2964.765	1311.6
2968.079	1308.6
2971.39	1320.6
2974.699	1349.6
2978.005	1360.6
2981.308	1407.6
2984.609	1416.6
2987.907	1453.6
2991.202	1482.6
2994.494	1498.6
2997.784	1526.6
3001.07	1549.6
3004.355	1591.6
3007.636	1618.6
3010.915	1623.6
3014.191	1651.6
3017.464	1666.6
3020.734	1660.6
3024.002	1689.6
3027.267	1699.6
3030.53	1712.6
3033.789	1714.6
3037.046	1747.6
3040.301	1780.6
3043.552	1820.6
3046.801	1854.6
3050.048	1884.6
3053.291	1941.6
3056.532	1999.6
3059.771	2045.6
3063.006	2103.6
3066.239	2185.6
3069.469	2257.6
3072.697	2313.6
3075.922	2369.6
3079.144	2443.6
3082.364	2485.6
3085.581	2522.6
3088.795	2601.6
3092.007	2642.6
3095.216	2717.6
3098.423	2753.6
3101.627	2821.6
3104.828	2879.6
3108.026	2940.6
3111.222	3010.6
3114.416	3090.6
3117.607	3173.6
3120.795	3226.6
3123.98	3302.6
3127.163	3396.6
3130.344	3477.6
3133.521	3546.6
3136.696	3625.6
3139.869	3690.6
3143.039	3767.6
3146.206	3804.6
3149.371	3907.6
3152.533	3905.6
3155.693	3929.6
3158.85	3939.6
3162.005	3988.6
3165.157	3973.6
3168.306	4026.6
3171.453	4033.6
3174.597	4018.6
3177.739	4028.6
3180.878	4020.6
3184.014	4040.6
3187.149	4033.6
3190.28	4051.6
3193.409	4060.6
3196.536	4051.6
3199.659	4086.6
3202.781	4083.6
3205.9	4056.6
3209.016	4056.6
3212.13	4026.6
3215.241	4036.6
3218.35	4010.6
3221.456	3926.6
3224.56	3910.6
3227.661	3878.6
3230.76	3818.6
3233.856	3796.6
3236.95	3741.6
3240.041	3697.6
3243.13	3686.6
3246.216	3666.6
3249.3	3635.6
3252.382	3635.6
3255.46	3607.6
3258.537	3598.6
3261.611	3591.6
3264.682	3575.6
3267.751	3589.6
3270.818	3601.6
3273.882	3564.6
3276.943	3548.6
3280.002	3504.6
3283.059	3484.6
3286.113	3455.6
3289.165	3399.6
3292.214	3350.6
3295.261	3296.6
3298.306	3232.6
3301.348	3198.6
3304.387	3135.6
3307.425	3081.6
3310.459	3038.6
3313.492	3012.6
3316.521	2963.6
3319.549	2938.6
3322.574	2883.6
3325.597	2867.6
3328.617	2871.6
3331.635	2828.6
3334.65	2806.6
3337.663	2802.6
3340.674	2800.6
3343.682	2777.6
3346.688	2795.6
3349.691	2748.6
3352.692	2738.6
3355.691	2723.6
3358.687	2698.6
3361.681	2672.6
3364.673	2605.6
3367.662	2603.6
3370.649	2547.6
3373.633	2512.6
3376.615	2474.6
3379.595	2446.6
3382.572	2420.6
3385.547	2365.6
3388.52	2345.6
3391.49	2284.6
3394.458	2280.6
3397.424	2234.6
3400.387	2231.6
3403.348	2152.6
3406.307	2144.6
3409.263	2136.6
3412.217	2100.6
3415.168	2086.6
3418.118	2056.6
3421.065	2014.6
3424.009	1991.6
3426.951	1979.6
3429.891	1917.6
3432.829	1879.6
3435.764	1840.6
3438.697	1795.6
3441.628	1744.6
3444.557	1691.6
3447.483	1654.6
3450.407	1595.6
3453.328	1533.6
3456.247	1488.6
3459.164	1428.6
3462.079	1364.6
3464.991	1341.6
3467.902	1288.6
3470.809	1216.6
3473.715	1168.6
3476.618	1154.6
3479.519	1109.6
3482.418	1084.6
3485.315	1018.6
3488.209	993.6
3491.101	947.6
3493.99	922.6
3496.878	886.6
3499.763	854.6
3502.646	808.6
3505.527	775.6
3508.405	743.6
3511.281	696.6
3514.155	663.6
3517.027	616.6
3519.897	584.6
3522.764	533.6
3525.629	499.6
3528.492	456.6
3531.352	403.6
3534.211	358.6
3537.067	332.6
3539.921	302.6
3542.773	271.6
3545.622	232.6
3548.469	203.6
3551.315	164.6
3554.157	145.6
3556.998	132.6
3559.837	95.6
3562.673	73.6
3565.507	52.6
3568.339	35.6
3571.169	22.6
3573.996	-6.4
3576.822	-28.4
3579.645	-42.4
3582.466	-72.4
3585.285	-86.4
3588.101	-105.4
3590.916	-127.4
3593.728	-142.4
3596.538	-171.4
3599.346	-184.4
3602.152	-199.4
3604.956	-211.4
3607.757	-224.4
3610.556	-240.4
3613.354	-261.4
3616.149	-273.4
3618.942	-284.4
3621.732	-293.4
3624.521	-301.4
3627.307	-319.4
3630.092	-328.4
3632.874	-342.4
3635.654	-353.4
3638.432	-352.4
3641.208	-362.4
3643.982	-382.4
3646.753	-391.4
3649.523	-400.4
3652.29	-403.4
3655.055	-410.4
3657.818	-422.4
3660.579	-423.4
3663.338	-440.4
3666.095	-445.4
3668.849	-470.4
3671.602	-479.4
3674.352	-474.4
3677.101	-478.4
3679.847	-494.4
3682.591	-493.4
3685.333	-497.4
3688.073	-509.4
3690.811	-506.4
3693.547	-511.4
3696.281	-522.4
3699.013	-527.4
3701.742	-538.4
3704.47	-538.4
3707.195	-546.4
3709.919	-544.4
3712.64	-551.4
3715.359	-552.4
3718.076	-554.4
3720.792	-563.4
3723.505	-567.4
3726.216	-564.4
3728.925	-571.4
3731.632	-582.4
3734.336	-577.4
3737.039	-581.4
3739.74	-576.4
3742.439	-583.4
3745.136	-594.4
3747.83	-592.4
3750.523	-589.4
3753.213	-599.4
3755.902	-595.4
3758.589	-595.4
3761.273	-599.4
3763.956	-597.4
3766.636	-606.4
3769.315	-606.4
3771.991	-599.4
3774.665	-609.4
3777.338	-603.4
3780.008	-607.4
3782.677	-608.4
3785.343	-613.4
3788.007	-605.4
3790.67	-612.4
3793.33	-620.4
3795.989	-622.4
3798.645	-622.4
3801.299	-620.4
3803.952	-624.4
3806.602	-626.4
3809.251	-635.4
3811.897	-621.4
3814.542	-619.4
3817.184	-625.4
3819.825	-621.4
3822.463	-628.4
3825.1	-628.4
3827.735	-627.4
3830.367	-634.4
3832.998	-632.4
3835.627	-635.4
3838.253	-641.4
3840.878	-634.4
3843.501	-638.4
3846.122	-635.4
3848.741	-632.4
3851.358	-639.4
3853.973	-636.4
3856.586	-637.4
3859.197	-634.4
3861.806	-640.4
3864.414	-632.4
3867.019	-635.4
3869.622	-637.4
3872.224	-630.4
3874.823	-619.4
3877.421	-604.4
3880.016	-594.4
3882.61	-563.4
3885.202	-565.4
3887.792	-582.4
3890.38	-607.4
3892.966	-626.4
3895.55	-638.4
3898.132	-642.4
3900.713	-646.4
3903.291	-648.4
3905.868	-647.4
3908.442	-650.4
3911.015	-643.4
3913.586	-651.4
3916.155	-651.4
3918.722	-648.4
3921.287	-652.4
3923.85	-648.4
3926.411	-654.4
3928.971	-649.4
3931.528	-651.4
3934.084	-645.4
3936.638	-652.4
3939.19	-654.4
3941.74	-654.4
3944.288	-651.4
3946.834	-649.4
3949.378	-650.4
3951.921	-650.4
3954.462	-656.4
3957	-649.4
3959.537	-640.4
3962.072	-645.4
3964.606	-649.4
3967.137	-657.4
3969.667	-654.4
3972.194	-647.4
3974.72	-643.4
3977.244	-645.4
3979.766	-645.4
3982.286	-640.4
3984.805	-634.4
3987.321	-639.4
3989.836	-643.4
3992.349	-640.4
3994.86	-637.4
3997.369	-647.4
3999.877	-638.4
4002.382	-635.4
4004.886	-637.4
4007.388	-641.4
4009.888	-639.4
4012.386	-635.4
4014.883	-634.4
4017.377	-641.4
4019.87	-635.4
4022.361	-640.4
4024.85	-636.4
4027.338	-644.4
4029.823	-635.4
4032.307	-640.4
4034.789	-641.4
4037.269	-645.4
4039.747	-649.4
4042.224	-635.4
4044.699	-652.4
4047.172	-649.4
4049.643	-638.4
4052.112	-641.4
4054.58	-635.4
4057.046	-650.4
4059.51	-639.4
4061.972	-645.4
4064.432	-640.4
4066.891	-637.4
4069.348	-641.4
4071.803	-640.4
4074.256	-635.4
4076.708	-645.4
4079.158	-647.4
4081.606	-634.4
4084.052	-635.4
4086.497	-639.4
4088.939	-635.4
4091.38	-638.4
4093.819	-641.4
4096.257	-675.4
4098.693	-674.4
4101.127	-674.4
4103.559	-679.4
4105.989	-392.4
4108.418	-379.4
4110.845	-363.4
4113.27	-334.4
4115.694	-302.4
4118.115	-249.4
4120.535	-640.4
4122.954	-646.4
4125.37	-641.4
4127.785	-640.4
4130.198	-642.4
4132.609	-641.4
4135.019	-676.4
4137.427	-674.4
4139.833	-675.4
4142.237	-670.4
