Data from 2018-2-7_conc=5_RamanShift_05.txt Node
Date: Tue Feb 13 13:58:43 IST 2018
User: aro
Spectrometer: QEPB0276
Trigger mode: 0
Integration Time (sec): 3.000000E1
Scans to average: 1
Electric dark correction enabled: true
Nonlinearity correction enabled: false
Boxcar width: 0
XAxis mode: Raman Shifts
Number of Pixels in Spectrum: 1044
>>>>>Begin Spectral Data<<<<<
160.701	-153.5
166.742	27.5
172.777	568.5
178.805	2168.5
184.826	5978.5
190.841	12335.5
196.849	19502.5
202.85	24488.5
208.845	26000.5
214.833	25707.5
220.815	25216.5
226.789	24973.5
232.758	24831.5
238.719	24699.5
244.674	24332.5
250.623	23836.5
256.565	23318.5
262.5	22850.5
268.429	22391.5
274.351	22035.5
280.267	21691.5
286.176	21488.5
292.079	21243.5
297.975	21063.5
303.865	20873.5
309.748	20682.5
315.625	20519.5
321.495	20411.5
327.359	20344.5
333.217	20277.5
339.068	20262.5
344.912	20221.5
350.751	20182.5
356.583	20119.5
362.408	20194.5
368.227	20207.5
374.04	20140.5
379.847	20215.5
385.647	20308.5
391.44	20376.5
397.228	20489.5
403.009	20595.5
408.784	20594.5
414.553	20690.5
420.315	20732.5
426.071	20808.5
431.821	20725.5
437.565	20741.5
443.302	20666.5
449.033	20642.5
454.758	20627.5
460.477	20594.5
466.189	20537.5
471.896	20436.5
477.596	20386.5
483.29	20341.5
488.978	20362.5
494.66	20218.5
500.335	20205.5
506.005	19914.5
511.668	19731.5
517.325	19476.5
522.977	19385.5
528.622	19211.5
534.261	19010.5
539.894	18909.5
545.521	18834.5
551.141	18822.5
556.756	18697.5
562.365	18683.5
567.968	18612.5
573.565	18484.5
579.155	18493.5
584.74	18378.5
590.319	18360.5
595.892	18230.5
601.459	18146.5
607.02	18065.5
612.575	17965.5
618.124	17874.5
623.667	17732.5
629.204	17691.5
634.735	17641.5
640.261	17531.5
645.781	17488.5
651.294	17485.5
656.802	17410.5
662.304	17410.5
667.8	17370.5
673.29	17298.5
678.775	17259.5
684.254	17232.5
689.726	17181.5
695.193	17133.5
700.655	17079.5
706.11	16985.5
711.56	16886.5
717.004	16780.5
722.442	16724.5
727.874	16662.5
733.301	16640.5
738.722	16560.5
744.137	16491.5
749.547	16551.5
754.951	16580.5
760.349	16521.5
765.741	16525.5
771.128	16537.5
776.509	16545.5
781.885	16555.5
787.254	16448.5
792.618	16371.5
797.977	16225.5
803.33	16237.5
808.677	16069.5
814.019	16022.5
819.355	15901.5
824.686	15878.5
830.011	15793.5
835.33	15833.5
840.644	15821.5
845.952	15863.5
851.255	15918.5
856.552	15927.5
861.844	15885.5
867.13	15815.5
872.41	15758.5
877.686	15734.5
882.955	15595.5
888.219	15447.5
893.478	15244.5
898.731	15072.5
903.979	14972.5
909.221	14847.5
914.458	14751.5
919.69	14745.5
924.916	14788.5
930.136	14903.5
935.351	14843.5
940.561	14860.5
945.766	14818.5
950.965	14759.5
956.158	14636.5
961.347	14477.5
966.529	14308.5
971.707	14089.5
976.879	13986.5
982.046	13884.5
987.208	13796.5
992.364	13823.5
997.515	13888.5
1002.66	14069.5
1007.801	14246.5
1012.936	14290.5
1018.066	14265.5
1023.19	14311.5
1028.309	14291.5
1033.423	14192.5
1038.532	14205.5
1043.636	14022.5
1048.734	13866.5
1053.827	13687.5
1058.915	13553.5
1063.998	13530.5
1069.075	13391.5
1074.147	13394.5
1079.214	13531.5
1084.276	13592.5
1089.333	13661.5
1094.385	13731.5
1099.431	13744.5
1104.472	13721.5
1109.509	13652.5
1114.54	13517.5
1119.565	13359.5
1124.586	13170.5
1129.602	13056.5
1134.613	12964.5
1139.618	12870.5
1144.619	12830.5
1149.614	12844.5
1154.604	12849.5
1159.589	12885.5
1164.57	12937.5
1169.545	12959.5
1174.515	12912.5
1179.48	12846.5
1184.44	12795.5
1189.395	12699.5
1194.345	12595.5
1199.29	12513.5
1204.23	12519.5
1209.165	12588.5
1214.095	12647.5
1219.021	12699.5
1223.941	12783.5
1228.856	12895.5
1233.766	12890.5
1238.672	12931.5
1243.572	12904.5
1248.467	12819.5
1253.358	12642.5
1258.244	12449.5
1263.124	12329.5
1268	12132.5
1272.871	11989.5
1277.737	11874.5
1282.599	11857.5
1287.455	11824.5
1292.306	11853.5
1297.153	11894.5
1301.995	11916.5
1306.832	11978.5
1311.664	11941.5
1316.491	11985.5
1321.314	11818.5
1326.132	11670.5
1330.945	11405.5
1335.753	11102.5
1340.556	10797.5
1345.354	10564.5
1350.148	10418.5
1354.937	10326.5
1359.722	10312.5
1364.501	10328.5
1369.276	10426.5
1374.046	10579.5
1378.811	10734.5
1383.572	10853.5
1388.327	10886.5
1393.079	10890.5
1397.825	10696.5
1402.567	10569.5
1407.304	10452.5
1412.036	10353.5
1416.764	10287.5
1421.487	10234.5
1426.205	10215.5
1430.919	10135.5
1435.628	10119.5
1440.333	10154.5
1445.032	10184.5
1449.727	10228.5
1454.418	10186.5
1459.104	10087.5
1463.785	9853.5
1468.462	9619.5
1473.134	9429.5
1477.802	9237.5
1482.465	9079.5
1487.123	8919.5
1491.777	8874.5
1496.426	8929.5
1501.071	8990.5
1505.711	9163.5
1510.347	9322.5
1514.978	9438.5
1519.604	9601.5
1524.226	9688.5
1528.844	9720.5
1533.457	9746.5
1538.065	9682.5
1542.669	9626.5
1547.269	9535.5
1551.864	9493.5
1556.454	9472.5
1561.041	9468.5
1565.622	9469.5
1570.199	9475.5
1574.772	9555.5
1579.34	9613.5
1583.904	9687.5
1588.464	9759.5
1593.019	9757.5
1597.569	9674.5
1602.115	9633.5
1606.657	9587.5
1611.195	9505.5
1615.728	9484.5
1620.256	9426.5
1624.78	9437.5
1629.3	9454.5
1633.816	9452.5
1638.327	9477.5
1642.834	9536.5
1647.336	9553.5
1651.834	9591.5
1656.328	9604.5
1660.817	9442.5
1665.302	9342.5
1669.783	9218.5
1674.259	8954.5
1678.732	8679.5
1683.199	8398.5
1687.663	8080.5
1692.122	7815.5
1696.577	7669.5
1701.028	7611.5
1705.474	7707.5
1709.917	7787.5
1714.355	7823.5
1718.788	7744.5
1723.218	7607.5
1727.643	7493.5
1732.064	7386.5
1736.481	7217.5
1740.893	7043.5
1745.301	6846.5
1749.705	6677.5
1754.105	6444.5
1758.501	6312.5
1762.893	6098.5
1767.28	5926.5
1771.663	5785.5
1776.042	5675.5
1780.417	5588.5
1784.787	5609.5
1789.154	5647.5
1793.516	5713.5
1797.874	5861.5
1802.228	5936.5
1806.578	6005.5
1810.924	6030.5
1815.266	5991.5
1819.603	5904.5
1823.937	5827.5
1828.266	5747.5
1832.591	5661.5
1836.913	5605.5
1841.23	5526.5
1845.543	5498.5
1849.852	5463.5
1854.156	5441.5
1858.457	5437.5
1862.754	5392.5
1867.047	5397.5
1871.335	5410.5
1875.62	5408.5
1879.9	5371.5
1884.177	5322.5
1888.449	5262.5
1892.718	5206.5
1896.982	5149.5
1901.243	5106.5
1905.499	5031.5
1909.752	4980.5
1914	4995.5
1918.245	4988.5
1922.485	5002.5
1926.722	5060.5
1930.954	5132.5
1935.183	5164.5
1939.408	5258.5
1943.628	5316.5
1947.845	5289.5
1952.058	5319.5
1956.267	5271.5
1960.472	5183.5
1964.673	5103.5
1968.87	5055.5
1973.063	4965.5
1977.252	4942.5
1981.438	4871.5
1985.619	4830.5
1989.797	4792.5
1993.971	4781.5
1998.14	4734.5
2002.306	4752.5
2006.469	4735.5
2010.627	4651.5
2014.781	4667.5
2018.932	4632.5
2023.078	4597.5
2027.221	4524.5
2031.36	4426.5
2035.495	4368.5
2039.627	4310.5
2043.754	4268.5
2047.878	4205.5
2051.998	4160.5
2056.114	4153.5
2060.226	4173.5
2064.334	4160.5
2068.439	4161.5
2072.54	4182.5
2076.637	4199.5
2080.73	4243.5
2084.82	4255.5
2088.906	4231.5
2092.988	4274.5
2097.066	4250.5
2101.14	4234.5
2105.211	4201.5
2109.278	4207.5
2113.342	4149.5
2117.401	4138.5
2121.457	4135.5
2125.509	4119.5
2129.558	4086.5
2133.602	4035.5
2137.643	4064.5
2141.681	4027.5
2145.714	4032.5
2149.744	3970.5
2153.77	3952.5
2157.793	3919.5
2161.812	3869.5
2165.827	3807.5
2169.838	3753.5
2173.846	3673.5
2177.851	3654.5
2181.851	3566.5
2185.848	3546.5
2189.841	3515.5
2193.831	3470.5
2197.817	3469.5
2201.799	3431.5
2205.778	3435.5
2209.753	3416.5
2213.725	3394.5
2217.693	3414.5
2221.657	3353.5
2225.618	3349.5
2229.575	3334.5
2233.529	3296.5
2237.479	3290.5
2241.425	3245.5
2245.368	3197.5
2249.307	3164.5
2253.243	3108.5
2257.175	3077.5
2261.104	3029.5
2265.029	2964.5
2268.95	2967.5
2272.868	2926.5
2276.783	2884.5
2280.694	2899.5
2284.601	2844.5
2288.505	2847.5
2292.405	2819.5
2296.302	2769.5
2300.195	2742.5
2304.085	2732.5
2307.971	2681.5
2311.854	2650.5
2315.734	2607.5
2319.609	2573.5
2323.482	2527.5
2327.351	2517.5
2331.216	2517.5
2335.078	2520.5
2338.937	2472.5
2342.792	2470.5
2346.643	2474.5
2350.492	2466.5
2354.336	2456.5
2358.178	2466.5
2362.015	2471.5
2365.85	2485.5
2369.681	2499.5
2373.508	2496.5
2377.333	2476.5
2381.153	2483.5
2384.971	2482.5
2388.785	2459.5
2392.595	2449.5
2396.402	2404.5
2400.206	2395.5
2404.007	2382.5
2407.804	2358.5
2411.597	2339.5
2415.388	2343.5
2419.174	2340.5
2422.958	2286.5
2426.738	2272.5
2430.515	2249.5
2434.289	2229.5
2438.059	2226.5
2441.825	2211.5
2445.589	2183.5
2449.349	2166.5
2453.106	2137.5
2456.859	2137.5
2460.61	2067.5
2464.356	2061.5
2468.1	2031.5
2471.84	2006.5
2475.577	1982.5
2479.311	1971.5
2483.041	1955.5
2486.768	1948.5
2490.492	1948.5
2494.213	1924.5
2497.93	1920.5
2501.644	1898.5
2505.355	1903.5
2509.062	1921.5
2512.766	1896.5
2516.467	1859.5
2520.165	1868.5
2523.859	1825.5
2527.551	1821.5
2531.239	1819.5
2534.923	1794.5
2538.605	1774.5
2542.283	1778.5
2545.958	1778.5
2549.63	1754.5
2553.299	1769.5
2556.964	1776.5
2560.626	1746.5
2564.285	1733.5
2567.941	1735.5
2571.594	1722.5
2575.243	1717.5
2578.89	1720.5
2582.533	1691.5
2586.173	1678.5
2589.809	1689.5
2593.443	1658.5
2597.073	1637.5
2600.701	1629.5
2604.325	1634.5
2607.946	1613.5
2611.564	1602.5
2615.178	1596.5
2618.79	1581.5
2622.398	1575.5
2626.004	1541.5
2629.606	1541.5
2633.205	1494.5
2636.801	1477.5
2640.394	1479.5
2643.983	1431.5
2647.57	1408.5
2651.153	1409.5
2654.734	1387.5
2658.311	1367.5
2661.885	1347.5
2665.456	1316.5
2669.025	1299.5
2672.589	1289.5
2676.151	1264.5
2679.71	1276.5
2683.266	1215.5
2686.819	1220.5
2690.368	1190.5
2693.915	1162.5
2697.458	1158.5
2700.999	1119.5
2704.536	1085.5
2708.071	1065.5
2711.602	1046.5
2715.13	1002.5
2718.656	988.5
2722.178	958.5
2725.697	950.5
2729.214	935.5
2732.727	927.5
2736.237	916.5
2739.744	904.5
2743.249	898.5
2746.75	914.5
2750.248	927.5
2753.743	939.5
2757.236	956.5
2760.725	949.5
2764.211	981.5
2767.695	960.5
2771.175	984.5
2774.652	956.5
2778.127	953.5
2781.598	961.5
2785.067	973.5
2788.532	950.5
2791.995	963.5
2795.455	926.5
2798.911	962.5
2802.365	932.5
2805.816	960.5
2809.264	949.5
2812.709	961.5
2816.151	960.5
2819.59	952.5
2823.026	935.5
2826.46	960.5
2829.89	949.5
2833.318	968.5
2836.742	974.5
2840.164	966.5
2843.583	975.5
2846.999	988.5
2850.412	997.5
2853.822	1011.5
2857.229	1045.5
2860.634	1018.5
2864.035	1068.5
2867.434	1081.5
2870.83	1087.5
2874.223	1114.5
2877.613	1163.5
2881	1151.5
2884.385	1168.5
2887.766	1166.5
2891.145	1172.5
2894.521	1145.5
2897.894	1170.5
2901.264	1171.5
2904.631	1160.5
2907.996	1166.5
2911.358	1183.5
2914.717	1175.5
2918.073	1200.5
2921.426	1197.5
2924.777	1208.5
2928.124	1249.5
2931.469	1262.5
2934.811	1284.5
2938.15	1298.5
2941.487	1302.5
2944.821	1333.5
2948.152	1321.5
2951.48	1306.5
2954.805	1288.5
2958.128	1269.5
2961.447	1272.5
2964.765	1272.5
2968.079	1260.5
2971.39	1279.5
2974.699	1297.5
2978.005	1304.5
2981.308	1342.5
2984.609	1354.5
2987.907	1355.5
2991.202	1409.5
2994.494	1430.5
2997.784	1457.5
3001.07	1483.5
3004.355	1523.5
3007.636	1521.5
3010.915	1545.5
3014.191	1581.5
3017.464	1584.5
3020.734	1604.5
3024.002	1597.5
3027.267	1622.5
3030.53	1640.5
3033.789	1677.5
3037.046	1672.5
3040.301	1691.5
3043.552	1733.5
3046.801	1797.5
3050.048	1804.5
3053.291	1855.5
3056.532	1924.5
3059.771	1953.5
3063.006	2020.5
3066.239	2091.5
3069.469	2145.5
3072.697	2207.5
3075.922	2247.5
3079.144	2315.5
3082.364	2398.5
3085.581	2423.5
3088.795	2489.5
3092.007	2549.5
3095.216	2576.5
3098.423	2620.5
3101.627	2687.5
3104.828	2769.5
3108.026	2810.5
3111.222	2873.5
3114.416	2950.5
3117.607	2992.5
3120.795	3054.5
3123.98	3160.5
3127.163	3235.5
3130.344	3302.5
3133.521	3383.5
3136.696	3456.5
3139.869	3522.5
3143.039	3575.5
3146.206	3654.5
3149.371	3662.5
3152.533	3696.5
3155.693	3745.5
3158.85	3769.5
3162.005	3790.5
3165.157	3810.5
3168.306	3776.5
3171.453	3827.5
3174.597	3818.5
3177.739	3799.5
3180.878	3838.5
3184.014	3872.5
3187.149	3832.5
3190.28	3830.5
3193.409	3851.5
3196.536	3820.5
3199.659	3840.5
3202.781	3872.5
3205.9	3840.5
3209.016	3860.5
3212.13	3827.5
3215.241	3785.5
3218.35	3760.5
3221.456	3732.5
3224.56	3674.5
3227.661	3642.5
3230.76	3600.5
3233.856	3556.5
3236.95	3521.5
3240.041	3473.5
3243.13	3495.5
3246.216	3432.5
3249.3	3440.5
3252.382	3411.5
3255.46	3395.5
3258.537	3391.5
3261.611	3387.5
3264.682	3375.5
3267.751	3383.5
3270.818	3358.5
3273.882	3352.5
3276.943	3340.5
3280.002	3320.5
3283.059	3304.5
3286.113	3242.5
3289.165	3199.5
3292.214	3150.5
3295.261	3116.5
3298.306	3066.5
3301.348	3023.5
3304.387	2969.5
3307.425	2901.5
3310.459	2875.5
3313.492	2835.5
3316.521	2793.5
3319.549	2782.5
3322.574	2722.5
3325.597	2709.5
3328.617	2709.5
3331.635	2683.5
3334.65	2692.5
3337.663	2653.5
3340.674	2613.5
3343.682	2621.5
3346.688	2642.5
3349.691	2598.5
3352.692	2591.5
3355.691	2581.5
3358.687	2565.5
3361.681	2523.5
3364.673	2484.5
3367.662	2465.5
3370.649	2429.5
3373.633	2394.5
3376.615	2357.5
3379.595	2314.5
3382.572	2288.5
3385.547	2249.5
3388.52	2219.5
3391.49	2163.5
3394.458	2148.5
3397.424	2111.5
3400.387	2086.5
3403.348	2058.5
3406.307	2047.5
3409.263	2012.5
3412.217	1995.5
3415.168	1973.5
3418.118	1932.5
3421.065	1917.5
3424.009	1897.5
3426.951	1845.5
3429.891	1810.5
3432.829	1781.5
3435.764	1746.5
3438.697	1692.5
3441.628	1632.5
3444.557	1617.5
3447.483	1542.5
3450.407	1502.5
3453.328	1448.5
3456.247	1386.5
3459.164	1337.5
3462.079	1286.5
3464.991	1242.5
3467.902	1179.5
3470.809	1150.5
3473.715	1117.5
3476.618	1060.5
3479.519	1026.5
3482.418	999.5
3485.315	940.5
3488.209	926.5
3491.101	875.5
3493.99	863.5
3496.878	803.5
3499.763	781.5
3502.646	762.5
3505.527	715.5
3508.405	688.5
3511.281	630.5
3514.155	599.5
3517.027	572.5
3519.897	530.5
3522.764	478.5
3525.629	438.5
3528.492	410.5
3531.352	373.5
3534.211	326.5
3537.067	300.5
3539.921	270.5
3542.773	240.5
3545.622	197.5
3548.469	174.5
3551.315	149.5
3554.157	130.5
3556.998	90.5
3559.837	89.5
3562.673	46.5
3565.507	20.5
3568.339	8.5
3571.169	-9.5
3573.996	-32.5
3576.822	-56.5
3579.645	-68.5
3582.466	-89.5
3585.285	-97.5
3588.101	-104.5
3590.916	-133.5
3593.728	-148.5
3596.538	-170.5
3599.346	-189.5
3602.152	-197.5
3604.956	-219.5
3607.757	-236.5
3610.556	-237.5
3613.354	-249.5
3616.149	-274.5
3618.942	-282.5
3621.732	-301.5
3624.521	-306.5
3627.307	-310.5
3630.092	-316.5
3632.874	-338.5
3635.654	-348.5
3638.432	-348.5
3641.208	-358.5
3643.982	-369.5
3646.753	-370.5
3649.523	-391.5
3652.29	-392.5
3655.055	-404.5
3657.818	-403.5
3660.579	-415.5
3663.338	-420.5
3666.095	-438.5
3668.849	-452.5
3671.602	-457.5
3674.352	-463.5
3677.101	-466.5
3679.847	-487.5
3682.591	-480.5
3685.333	-481.5
3688.073	-490.5
3690.811	-495.5
3693.547	-498.5
3696.281	-504.5
3699.013	-512.5
3701.742	-511.5
3704.47	-517.5
3707.195	-530.5
3709.919	-525.5
3712.64	-525.5
3715.359	-538.5
3718.076	-542.5
3720.792	-538.5
3723.505	-541.5
3726.216	-549.5
3728.925	-547.5
3731.632	-560.5
3734.336	-560.5
3737.039	-561.5
3739.74	-561.5
3742.439	-565.5
3745.136	-564.5
3747.83	-566.5
3750.523	-566.5
3753.213	-572.5
3755.902	-572.5
3758.589	-574.5
3761.273	-573.5
3763.956	-577.5
3766.636	-579.5
3769.315	-582.5
3771.991	-589.5
3774.665	-587.5
3777.338	-589.5
3780.008	-592.5
3782.677	-595.5
3785.343	-590.5
3788.007	-590.5
3790.67	-595.5
3793.33	-592.5
3795.989	-592.5
3798.645	-601.5
3801.299	-601.5
3803.952	-608.5
3806.602	-599.5
3809.251	-602.5
3811.897	-599.5
3814.542	-597.5
3817.184	-602.5
3819.825	-599.5
3822.463	-600.5
3825.1	-613.5
3827.735	-607.5
3830.367	-610.5
3832.998	-613.5
3835.627	-618.5
3838.253	-618.5
3840.878	-613.5
3843.501	-618.5
3846.122	-615.5
3848.741	-608.5
3851.358	-618.5
3853.973	-612.5
3856.586	-610.5
3859.197	-613.5
3861.806	-614.5
3864.414	-607.5
3867.019	-606.5
3869.622	-609.5
3872.224	-613.5
3874.823	-598.5
3877.421	-581.5
3880.016	-564.5
3882.61	-529.5
3885.202	-530.5
3887.792	-561.5
3890.38	-585.5
3892.966	-597.5
3895.55	-613.5
3898.132	-615.5
3900.713	-625.5
3903.291	-630.5
3905.868	-628.5
3908.442	-629.5
3911.015	-624.5
3913.586	-627.5
3916.155	-625.5
3918.722	-627.5
3921.287	-625.5
3923.85	-625.5
3926.411	-625.5
3928.971	-627.5
3931.528	-627.5
3934.084	-623.5
3936.638	-626.5
3939.19	-634.5
3941.74	-631.5
3944.288	-632.5
3946.834	-628.5
3949.378	-632.5
3951.921	-631.5
3954.462	-629.5
3957	-623.5
3959.537	-621.5
3962.072	-627.5
3964.606	-622.5
3967.137	-630.5
3969.667	-625.5
3972.194	-622.5
3974.72	-626.5
3977.244	-617.5
3979.766	-623.5
3982.286	-617.5
3984.805	-613.5
3987.321	-617.5
3989.836	-612.5
3992.349	-614.5
3994.86	-611.5
3997.369	-622.5
3999.877	-612.5
4002.382	-603.5
4004.886	-618.5
4007.388	-616.5
4009.888	-609.5
4012.386	-613.5
4014.883	-612.5
4017.377	-612.5
4019.87	-618.5
4022.361	-616.5
4024.85	-616.5
4027.338	-624.5
4029.823	-614.5
4032.307	-618.5
4034.789	-622.5
4037.269	-627.5
4039.747	-622.5
4042.224	-619.5
4044.699	-622.5
4047.172	-619.5
4049.643	-616.5
4052.112	-624.5
4054.58	-614.5
4057.046	-620.5
4059.51	-616.5
4061.972	-620.5
4064.432	-617.5
4066.891	-616.5
4069.348	-620.5
4071.803	-625.5
4074.256	-619.5
4076.708	-619.5
4079.158	-617.5
4081.606	-611.5
4084.052	-612.5
4086.497	-620.5
4088.939	-614.5
4091.38	-610.5
4093.819	-612.5
4096.257	-647.5
4098.693	-651.5
4101.127	-652.5
4103.559	-653.5
4105.989	-395.5
4108.418	-372.5
4110.845	-360.5
4113.27	-323.5
4115.694	-283.5
4118.115	-241.5
4120.535	-617.5
4122.954	-624.5
4125.37	-619.5
4127.785	-619.5
4130.198	-626.5
4132.609	-616.5
4135.019	-656.5
4137.427	-654.5
4139.833	-649.5
4142.237	-650.5
