Data from 2018-2-7_conc=4_RamanShift_19.txt Node
Date: Tue Feb 13 13:42:43 IST 2018
User: aro
Spectrometer: QEPB0276
Trigger mode: 0
Integration Time (sec): 3.000000E1
Scans to average: 1
Electric dark correction enabled: true
Nonlinearity correction enabled: false
Boxcar width: 0
XAxis mode: Raman Shifts
Number of Pixels in Spectrum: 1044
>>>>>Begin Spectral Data<<<<<
160.701	-56.6
166.742	34.4
172.777	276.4
178.805	1009.4
184.826	2677.4
190.841	5470.4
196.849	8633.4
202.85	10798.4
208.845	11497.4
214.833	11409.4
220.815	11272.4
226.789	11170.4
232.758	11195.4
238.719	11151.4
244.674	11140.4
250.623	10947.4
256.565	10750.4
262.5	10529.4
268.429	10420.4
274.351	10280.4
280.267	10277.4
286.176	10175.4
292.079	10085.4
297.975	10046.4
303.865	10010.4
309.748	10006.4
315.625	9952.4
321.495	9925.4
327.359	9933.4
333.217	9929.4
339.068	9935.4
344.912	9911.4
350.751	9899.4
356.583	9924.4
362.408	9942.4
368.227	9985.4
374.04	10016.4
379.847	10042.4
385.647	10045.4
391.44	10087.4
397.228	10179.4
403.009	10171.4
408.784	10276.4
414.553	10280.4
420.315	10310.4
426.071	10306.4
431.821	10251.4
437.565	10295.4
443.302	10271.4
449.033	10289.4
454.758	10216.4
460.477	10152.4
466.189	10112.4
471.896	10091.4
477.596	10056.4
483.29	10054.4
488.978	10030.4
494.66	9993.4
500.335	9836.4
506.005	9639.4
511.668	9399.4
517.325	9229.4
522.977	9089.4
528.622	8938.4
534.261	8860.4
539.894	8734.4
545.521	8702.4
551.141	8645.4
556.756	8607.4
562.365	8576.4
567.968	8544.4
573.565	8473.4
579.155	8440.4
584.74	8401.4
590.319	8362.4
595.892	8365.4
601.459	8338.4
607.02	8275.4
612.575	8209.4
618.124	8200.4
623.667	8106.4
629.204	8066.4
634.735	7996.4
640.261	7974.4
645.781	7926.4
651.294	7929.4
656.802	7893.4
662.304	7852.4
667.8	7828.4
673.29	7835.4
678.775	7863.4
684.254	7786.4
689.726	7769.4
695.193	7742.4
700.655	7672.4
706.11	7626.4
711.56	7597.4
717.004	7557.4
722.442	7535.4
727.874	7490.4
733.301	7450.4
738.722	7460.4
744.137	7431.4
749.547	7434.4
754.951	7431.4
760.349	7438.4
765.741	7433.4
771.128	7461.4
776.509	7491.4
781.885	7501.4
787.254	7520.4
792.618	7493.4
797.977	7481.4
803.33	7413.4
808.677	7326.4
814.019	7315.4
819.355	7257.4
824.686	7234.4
830.011	7177.4
835.33	7183.4
840.644	7176.4
845.952	7192.4
851.255	7135.4
856.552	7162.4
861.844	7152.4
867.13	7097.4
872.41	7035.4
877.686	6973.4
882.955	6946.4
888.219	6926.4
893.478	6784.4
898.731	6692.4
903.979	6638.4
909.221	6589.4
914.458	6559.4
919.69	6580.4
924.916	6608.4
930.136	6615.4
935.351	6611.4
940.561	6601.4
945.766	6639.4
950.965	6574.4
956.158	6495.4
961.347	6476.4
966.529	6379.4
971.707	6280.4
976.879	6208.4
982.046	6137.4
987.208	6149.4
992.364	6134.4
997.515	6171.4
1002.66	6221.4
1007.801	6318.4
1012.936	6359.4
1018.066	6340.4
1023.19	6335.4
1028.309	6343.4
1033.423	6307.4
1038.532	6256.4
1043.636	6222.4
1048.734	6189.4
1053.827	6095.4
1058.915	6021.4
1063.998	5992.4
1069.075	5963.4
1074.147	5980.4
1079.214	5981.4
1084.276	6015.4
1089.333	6061.4
1094.385	6074.4
1099.431	6074.4
1104.472	6068.4
1109.509	5998.4
1114.54	5953.4
1119.565	5880.4
1124.586	5791.4
1129.602	5731.4
1134.613	5701.4
1139.618	5646.4
1144.619	5633.4
1149.614	5640.4
1154.604	5622.4
1159.589	5676.4
1164.57	5702.4
1169.545	5711.4
1174.515	5678.4
1179.48	5644.4
1184.44	5584.4
1189.395	5578.4
1194.345	5536.4
1199.29	5497.4
1204.23	5519.4
1209.165	5510.4
1214.095	5533.4
1219.021	5566.4
1223.941	5617.4
1228.856	5653.4
1233.766	5643.4
1238.672	5631.4
1243.572	5603.4
1248.467	5588.4
1253.358	5539.4
1258.244	5413.4
1263.124	5330.4
1268	5273.4
1272.871	5183.4
1277.737	5178.4
1282.599	5096.4
1287.455	5102.4
1292.306	5118.4
1297.153	5152.4
1301.995	5182.4
1306.832	5178.4
1311.664	5203.4
1316.491	5200.4
1321.314	5128.4
1326.132	5095.4
1330.945	4978.4
1335.753	4883.4
1340.556	4740.4
1345.354	4666.4
1350.148	4631.4
1354.937	4571.4
1359.722	4522.4
1364.501	4508.4
1369.276	4517.4
1374.046	4518.4
1378.811	4532.4
1383.572	4526.4
1388.327	4561.4
1393.079	4485.4
1397.825	4481.4
1402.567	4454.4
1407.304	4423.4
1412.036	4397.4
1416.764	4378.4
1421.487	4377.4
1426.205	4343.4
1430.919	4348.4
1435.628	4371.4
1440.333	4403.4
1445.032	4419.4
1449.727	4437.4
1454.418	4438.4
1459.104	4381.4
1463.785	4320.4
1468.462	4240.4
1473.134	4134.4
1477.802	4058.4
1482.465	3983.4
1487.123	3916.4
1491.777	3882.4
1496.426	3917.4
1501.071	3922.4
1505.711	3924.4
1510.347	3952.4
1514.978	3979.4
1519.604	3993.4
1524.226	4051.4
1528.844	4044.4
1533.457	4020.4
1538.065	3987.4
1542.669	3948.4
1547.269	3935.4
1551.864	3948.4
1556.454	3918.4
1561.041	3944.4
1565.622	3937.4
1570.199	3946.4
1574.772	3966.4
1579.34	4025.4
1583.904	4017.4
1588.464	4072.4
1593.019	4078.4
1597.569	4055.4
1602.115	4033.4
1606.657	4025.4
1611.195	3990.4
1615.728	3986.4
1620.256	3952.4
1624.78	3965.4
1629.3	3962.4
1633.816	3987.4
1638.327	4005.4
1642.834	4028.4
1647.336	4041.4
1651.834	4023.4
1656.328	4023.4
1660.817	4019.4
1665.302	3972.4
1669.783	3886.4
1674.259	3840.4
1678.732	3690.4
1683.199	3588.4
1687.663	3486.4
1692.122	3353.4
1696.577	3312.4
1701.028	3228.4
1705.474	3204.4
1709.917	3200.4
1714.355	3168.4
1718.788	3130.4
1723.218	3087.4
1727.643	3080.4
1732.064	3018.4
1736.481	2934.4
1740.893	2901.4
1745.301	2803.4
1749.705	2765.4
1754.105	2698.4
1758.501	2620.4
1762.893	2545.4
1767.28	2502.4
1771.663	2424.4
1776.042	2419.4
1780.417	2390.4
1784.787	2361.4
1789.154	2354.4
1793.516	2383.4
1797.874	2382.4
1802.228	2388.4
1806.578	2414.4
1810.924	2385.4
1815.266	2385.4
1819.603	2350.4
1823.937	2349.4
1828.266	2323.4
1832.591	2278.4
1836.913	2250.4
1841.23	2250.4
1845.543	2247.4
1849.852	2241.4
1854.156	2248.4
1858.457	2244.4
1862.754	2227.4
1867.047	2240.4
1871.335	2249.4
1875.62	2244.4
1879.9	2249.4
1884.177	2206.4
1888.449	2199.4
1892.718	2166.4
1896.982	2141.4
1901.243	2137.4
1905.499	2101.4
1909.752	2101.4
1914	2061.4
1918.245	2082.4
1922.485	2078.4
1926.722	2071.4
1930.954	2091.4
1935.183	2080.4
1939.408	2094.4
1943.628	2114.4
1947.845	2103.4
1952.058	2091.4
1956.267	2058.4
1960.472	2028.4
1964.673	2000.4
1968.87	1960.4
1973.063	1951.4
1977.252	1916.4
1981.438	1905.4
1985.619	1879.4
1989.797	1879.4
1993.971	1874.4
1998.14	1873.4
2002.306	1878.4
2006.469	1853.4
2010.627	1852.4
2014.781	1855.4
2018.932	1804.4
2023.078	1823.4
2027.221	1791.4
2031.36	1772.4
2035.495	1738.4
2039.627	1714.4
2043.754	1705.4
2047.878	1675.4
2051.998	1668.4
2056.114	1656.4
2060.226	1654.4
2064.334	1662.4
2068.439	1633.4
2072.54	1674.4
2076.637	1676.4
2080.73	1678.4
2084.82	1676.4
2088.906	1669.4
2092.988	1676.4
2097.066	1664.4
2101.14	1671.4
2105.211	1623.4
2109.278	1618.4
2113.342	1611.4
2117.401	1603.4
2121.457	1579.4
2125.509	1566.4
2129.558	1551.4
2133.602	1536.4
2137.643	1528.4
2141.681	1530.4
2145.714	1527.4
2149.744	1538.4
2153.77	1516.4
2157.793	1477.4
2161.812	1497.4
2165.827	1463.4
2169.838	1429.4
2173.846	1416.4
2177.851	1387.4
2181.851	1359.4
2185.848	1339.4
2189.841	1340.4
2193.831	1325.4
2197.817	1311.4
2201.799	1298.4
2205.778	1295.4
2209.753	1304.4
2213.725	1281.4
2217.693	1273.4
2221.657	1268.4
2225.618	1291.4
2229.575	1265.4
2233.529	1250.4
2237.479	1228.4
2241.425	1218.4
2245.368	1216.4
2249.307	1186.4
2253.243	1167.4
2257.175	1155.4
2261.104	1127.4
2265.029	1106.4
2268.95	1083.4
2272.868	1074.4
2276.783	1078.4
2280.694	1062.4
2284.601	1053.4
2288.505	1047.4
2292.405	1048.4
2296.302	1030.4
2300.195	1008.4
2304.085	1001.4
2307.971	977.4
2311.854	966.4
2315.734	939.4
2319.609	943.4
2323.482	929.4
2327.351	913.4
2331.216	931.4
2335.078	923.4
2338.937	904.4
2342.792	907.4
2346.643	907.4
2350.492	902.4
2354.336	913.4
2358.178	895.4
2362.015	926.4
2365.85	919.4
2369.681	914.4
2373.508	908.4
2377.333	929.4
2381.153	923.4
2384.971	918.4
2388.785	904.4
2392.595	899.4
2396.402	883.4
2400.206	878.4
2404.007	879.4
2407.804	867.4
2411.597	848.4
2415.388	864.4
2419.174	868.4
2422.958	840.4
2426.738	850.4
2430.515	834.4
2434.289	823.4
2438.059	797.4
2441.825	815.4
2445.589	810.4
2449.349	797.4
2453.106	766.4
2456.859	764.4
2460.61	746.4
2464.356	747.4
2468.1	743.4
2471.84	736.4
2475.577	724.4
2479.311	730.4
2483.041	705.4
2486.768	723.4
2490.492	709.4
2494.213	717.4
2497.93	713.4
2501.644	709.4
2505.355	709.4
2509.062	684.4
2512.766	682.4
2516.467	675.4
2520.165	682.4
2523.859	658.4
2527.551	665.4
2531.239	652.4
2534.923	666.4
2538.605	634.4
2542.283	643.4
2545.958	625.4
2549.63	634.4
2553.299	623.4
2556.964	623.4
2560.626	617.4
2564.285	621.4
2567.941	607.4
2571.594	593.4
2575.243	603.4
2578.89	589.4
2582.533	588.4
2586.173	577.4
2589.809	576.4
2593.443	561.4
2597.073	566.4
2600.701	557.4
2604.325	549.4
2607.946	540.4
2611.564	541.4
2615.178	536.4
2618.79	534.4
2622.398	529.4
2626.004	523.4
2629.606	504.4
2633.205	500.4
2636.801	500.4
2640.394	491.4
2643.983	479.4
2647.57	475.4
2651.153	472.4
2654.734	452.4
2658.311	443.4
2661.885	437.4
2665.456	429.4
2669.025	436.4
2672.589	434.4
2676.151	419.4
2679.71	429.4
2683.266	403.4
2686.819	407.4
2690.368	388.4
2693.915	379.4
2697.458	374.4
2700.999	361.4
2704.536	354.4
2708.071	348.4
2711.602	336.4
2715.13	335.4
2718.656	324.4
2722.178	320.4
2725.697	322.4
2729.214	310.4
2732.727	307.4
2736.237	308.4
2739.744	309.4
2743.249	295.4
2746.75	290.4
2750.248	284.4
2753.743	289.4
2757.236	297.4
2760.725	292.4
2764.211	299.4
2767.695	292.4
2771.175	288.4
2774.652	281.4
2778.127	291.4
2781.598	283.4
2785.067	290.4
2788.532	280.4
2791.995	281.4
2795.455	284.4
2798.911	289.4
2802.365	294.4
2805.816	300.4
2809.264	297.4
2812.709	301.4
2816.151	294.4
2819.59	298.4
2823.026	299.4
2826.46	299.4
2829.89	299.4
2833.318	289.4
2836.742	278.4
2840.164	306.4
2843.583	306.4
2846.999	307.4
2850.412	306.4
2853.822	316.4
2857.229	321.4
2860.634	317.4
2864.035	337.4
2867.434	343.4
2870.83	346.4
2874.223	361.4
2877.613	361.4
2881	370.4
2884.385	379.4
2887.766	361.4
2891.145	367.4
2894.521	364.4
2897.894	370.4
2901.264	364.4
2904.631	365.4
2907.996	366.4
2911.358	370.4
2914.717	375.4
2918.073	385.4
2921.426	383.4
2924.777	399.4
2928.124	409.4
2931.469	404.4
2934.811	422.4
2938.15	421.4
2941.487	427.4
2944.821	430.4
2948.152	422.4
2951.48	436.4
2954.805	425.4
2958.128	425.4
2961.447	413.4
2964.765	424.4
2968.079	413.4
2971.39	432.4
2974.699	429.4
2978.005	426.4
2981.308	441.4
2984.609	448.4
2987.907	464.4
2991.202	463.4
2994.494	472.4
2997.784	486.4
3001.07	501.4
3004.355	494.4
3007.636	504.4
3010.915	511.4
3014.191	533.4
3017.464	526.4
3020.734	525.4
3024.002	525.4
3027.267	542.4
3030.53	536.4
3033.789	557.4
3037.046	557.4
3040.301	581.4
3043.552	588.4
3046.801	612.4
3050.048	618.4
3053.291	642.4
3056.532	666.4
3059.771	684.4
3063.006	708.4
3066.239	737.4
3069.469	759.4
3072.697	786.4
3075.922	799.4
3079.144	827.4
3082.364	846.4
3085.581	862.4
3088.795	890.4
3092.007	911.4
3095.216	919.4
3098.423	957.4
3101.627	981.4
3104.828	1004.4
3108.026	1012.4
3111.222	1036.4
3114.416	1065.4
3117.607	1101.4
3120.795	1128.4
3123.98	1149.4
3127.163	1196.4
3130.344	1206.4
3133.521	1235.4
3136.696	1273.4
3139.869	1290.4
3143.039	1303.4
3146.206	1349.4
3149.371	1370.4
3152.533	1373.4
3155.693	1390.4
3158.85	1389.4
3162.005	1385.4
3165.157	1399.4
3168.306	1395.4
3171.453	1388.4
3174.597	1391.4
3177.739	1397.4
3180.878	1400.4
3184.014	1425.4
3187.149	1396.4
3190.28	1405.4
3193.409	1422.4
3196.536	1431.4
3199.659	1424.4
3202.781	1406.4
3205.9	1404.4
3209.016	1423.4
3212.13	1419.4
3215.241	1395.4
3218.35	1388.4
3221.456	1368.4
3224.56	1351.4
3227.661	1335.4
3230.76	1323.4
3233.856	1324.4
3236.95	1282.4
3240.041	1291.4
3243.13	1272.4
3246.216	1273.4
3249.3	1257.4
3252.382	1234.4
3255.46	1249.4
3258.537	1248.4
3261.611	1231.4
3264.682	1213.4
3267.751	1236.4
3270.818	1231.4
3273.882	1223.4
3276.943	1216.4
3280.002	1191.4
3283.059	1182.4
3286.113	1171.4
3289.165	1157.4
3292.214	1119.4
3295.261	1119.4
3298.306	1095.4
3301.348	1088.4
3304.387	1059.4
3307.425	1057.4
3310.459	1029.4
3313.492	1000.4
3316.521	1012.4
3319.549	991.4
3322.574	987.4
3325.597	966.4
3328.617	959.4
3331.635	951.4
3334.65	964.4
3337.663	963.4
3340.674	941.4
3343.682	951.4
3346.688	937.4
3349.691	952.4
3352.692	934.4
3355.691	923.4
3358.687	920.4
3361.681	899.4
3364.673	884.4
3367.662	884.4
3370.649	871.4
3373.633	846.4
3376.615	842.4
3379.595	843.4
3382.572	815.4
3385.547	813.4
3388.52	808.4
3391.49	770.4
3394.458	772.4
3397.424	748.4
3400.387	752.4
3403.348	735.4
3406.307	727.4
3409.263	712.4
3412.217	713.4
3415.168	709.4
3418.118	683.4
3421.065	685.4
3424.009	660.4
3426.951	662.4
3429.891	652.4
3432.829	631.4
3435.764	607.4
3438.697	589.4
3441.628	573.4
3444.557	559.4
3447.483	524.4
3450.407	516.4
3453.328	503.4
3456.247	476.4
3459.164	453.4
3462.079	440.4
3464.991	422.4
3467.902	402.4
3470.809	389.4
3473.715	360.4
3476.618	361.4
3479.519	324.4
3482.418	325.4
3485.315	316.4
3488.209	294.4
3491.101	283.4
3493.99	267.4
3496.878	240.4
3499.763	241.4
3502.646	218.4
3505.527	212.4
3508.405	190.4
3511.281	166.4
3514.155	171.4
3517.027	146.4
3519.897	147.4
3522.764	125.4
3525.629	115.4
3528.492	96.4
3531.352	87.4
3534.211	65.4
3537.067	49.4
3539.921	43.4
3542.773	30.4
3545.622	20.4
3548.469	4.4
3551.315	-13.6
3554.157	-9.6
3556.998	-25.6
3559.837	-32.6
3562.673	-44.6
3565.507	-52.6
3568.339	-61.6
3571.169	-62.6
3573.996	-77.6
3576.822	-82.6
3579.645	-87.6
3582.466	-93.6
3585.285	-113.6
3588.101	-115.6
3590.916	-118.6
3593.728	-127.6
3596.538	-133.6
3599.346	-139.6
3602.152	-137.6
3604.956	-141.6
3607.757	-152.6
3610.556	-154.6
3613.354	-161.6
3616.149	-168.6
3618.942	-172.6
3621.732	-185.6
3624.521	-187.6
3627.307	-185.6
3630.092	-193.6
3632.874	-192.6
3635.654	-199.6
3638.432	-195.6
3641.208	-206.6
3643.982	-214.6
3646.753	-210.6
3649.523	-210.6
3652.29	-221.6
3655.055	-216.6
3657.818	-222.6
3660.579	-225.6
3663.338	-229.6
3666.095	-228.6
3668.849	-242.6
3671.602	-248.6
3674.352	-241.6
3677.101	-247.6
3679.847	-256.6
3682.591	-251.6
3685.333	-251.6
3688.073	-256.6
3690.811	-257.6
3693.547	-254.6
3696.281	-259.6
3699.013	-261.6
3701.742	-263.6
3704.47	-270.6
3707.195	-275.6
3709.919	-267.6
3712.64	-275.6
3715.359	-269.6
3718.076	-272.6
3720.792	-284.6
3723.505	-280.6
3726.216	-281.6
3728.925	-281.6
3731.632	-288.6
3734.336	-285.6
3737.039	-290.6
3739.74	-282.6
3742.439	-285.6
3745.136	-286.6
3747.83	-284.6
3750.523	-283.6
3753.213	-289.6
3755.902	-286.6
3758.589	-288.6
3761.273	-282.6
3763.956	-293.6
3766.636	-293.6
3769.315	-289.6
3771.991	-292.6
3774.665	-293.6
3777.338	-290.6
3780.008	-293.6
3782.677	-293.6
3785.343	-296.6
3788.007	-291.6
3790.67	-294.6
3793.33	-298.6
3795.989	-297.6
3798.645	-303.6
3801.299	-305.6
3803.952	-301.6
3806.602	-302.6
3809.251	-306.6
3811.897	-296.6
3814.542	-297.6
3817.184	-304.6
3819.825	-304.6
3822.463	-296.6
3825.1	-299.6
3827.735	-301.6
3830.367	-302.6
3832.998	-308.6
3835.627	-306.6
3838.253	-306.6
3840.878	-303.6
3843.501	-307.6
3846.122	-300.6
3848.741	-300.6
3851.358	-307.6
3853.973	-299.6
3856.586	-297.6
3859.197	-304.6
3861.806	-303.6
3864.414	-297.6
3867.019	-298.6
3869.622	-299.6
3872.224	-295.6
3874.823	-283.6
3877.421	-262.6
3880.016	-239.6
3882.61	-193.6
3885.202	-196.6
3887.792	-218.6
3890.38	-254.6
3892.966	-277.6
3895.55	-289.6
3898.132	-298.6
3900.713	-305.6
3903.291	-308.6
3905.868	-309.6
3908.442	-306.6
3911.015	-306.6
3913.586	-310.6
3916.155	-307.6
3918.722	-306.6
3921.287	-308.6
3923.85	-309.6
3926.411	-305.6
3928.971	-307.6
3931.528	-311.6
3934.084	-298.6
3936.638	-311.6
3939.19	-312.6
3941.74	-317.6
3944.288	-310.6
3946.834	-314.6
3949.378	-309.6
3951.921	-308.6
3954.462	-309.6
3957	-302.6
3959.537	-301.6
3962.072	-298.6
3964.606	-300.6
3967.137	-308.6
3969.667	-301.6
3972.194	-303.6
3974.72	-302.6
3977.244	-299.6
3979.766	-307.6
3982.286	-298.6
3984.805	-299.6
3987.321	-301.6
3989.836	-308.6
3992.349	-302.6
3994.86	-297.6
3997.369	-310.6
3999.877	-300.6
4002.382	-301.6
4004.886	-306.6
4007.388	-303.6
4009.888	-296.6
4012.386	-308.6
4014.883	-305.6
4017.377	-296.6
4019.87	-302.6
4022.361	-307.6
4024.85	-306.6
4027.338	-302.6
4029.823	-299.6
4032.307	-306.6
4034.789	-305.6
4037.269	-304.6
4039.747	-304.6
4042.224	-297.6
4044.699	-305.6
4047.172	-305.6
4049.643	-297.6
4052.112	-302.6
4054.58	-296.6
4057.046	-306.6
4059.51	-302.6
4061.972	-307.6
4064.432	-302.6
4066.891	-303.6
4069.348	-304.6
4071.803	-309.6
4074.256	-306.6
4076.708	-302.6
4079.158	-306.6
4081.606	-300.6
4084.052	-306.6
4086.497	-306.6
4088.939	-300.6
4091.38	-294.6
4093.819	-303.6
4096.257	-318.6
4098.693	-320.6
4101.127	-319.6
4103.559	-319.6
4105.989	-146.6
4108.418	-137.6
4110.845	-136.6
4113.27	-124.6
4115.694	-102.6
4118.115	-90.6
4120.535	-298.6
4122.954	-309.6
4125.37	-304.6
4127.785	-298.6
4130.198	-304.6
4132.609	-299.6
4135.019	-318.6
4137.427	-314.6
4139.833	-315.6
4142.237	-314.6
