Data from boil_coli_100s_RamanShift_1.txt Node
Date: Mon Mar 27 13:36:28 IDT 2017
User: aro
Spectrometer: QEPB0276
Trigger mode: 0
Integration Time (sec): 1.000000E2
Scans to average: 3
Electric dark correction enabled: true
Nonlinearity correction enabled: false
Boxcar width: 0
XAxis mode: Raman Shifts
Number of Pixels in Spectrum: 1044
>>>>>Begin Spectral Data<<<<<
160.701	-169.79
166.742	108.54
172.777	892.54
178.805	3373.21
184.826	9412.21
190.841	19631.88
196.849	31505.88
202.85	39174.21
208.845	41013.88
214.833	39841.21
220.815	38595.88
226.789	37713.54
232.758	36886.88
238.719	36128.21
244.674	34979.21
250.623	33778.88
256.565	32569.21
262.5	31326.21
268.429	30272.88
274.351	29290.88
280.267	28483.88
286.176	27672.54
292.079	27027.54
297.975	26334.88
303.865	25767.88
309.748	25190.54
315.625	24710.88
321.495	24225.54
327.359	23985.21
333.217	23659.88
339.068	23535.21
344.912	23383.54
350.751	23265.21
356.583	23209.87
362.408	23083.21
368.227	23083.54
374.04	23123.21
379.847	23156.21
385.647	23183.88
391.44	23353.88
397.228	23474.54
403.009	23519.21
408.784	23611.88
414.553	23715.87
420.315	23794.54
426.071	23974.21
431.821	24014.54
437.565	24078.88
443.302	24077.21
449.033	23912.54
454.758	23669.21
460.477	23474.88
466.189	23199.21
471.896	23028.88
477.596	22796.21
483.29	22740.21
488.978	22587.54
494.66	22519.21
500.335	22162.54
506.005	21651.88
511.668	21087.21
517.325	20659.87
522.977	20241.21
528.622	19893.21
534.261	19651.88
539.894	19429.21
545.521	19242.54
551.141	19213.21
556.756	19063.54
562.365	18937.54
567.968	18825.21
573.565	18678.54
579.155	18546.21
584.74	18467.21
590.319	18306.88
595.892	18205.87
601.459	18100.54
607.02	18022.54
612.575	17893.21
618.124	17732.54
623.667	17523.88
629.204	17322.54
634.735	17204.87
640.261	17080.21
645.781	17016.54
651.294	16977.21
656.802	16865.54
662.304	16832.88
667.8	16680.54
673.29	16749.21
678.775	16635.21
684.254	16625.21
689.726	16557.88
695.193	16482.21
700.655	16360.54
706.11	16320.54
711.56	16121.54
717.004	16061.88
722.442	16084.88
727.874	15899.88
733.301	15904.54
738.722	15838.54
744.137	15790.88
749.547	15793.21
754.951	15720.21
760.349	15741.88
765.741	15701.21
771.128	15791.88
776.509	15861.54
781.885	15864.54
787.254	15868.21
792.618	15906.54
797.977	15805.88
803.33	15702.88
808.677	15632.54
814.019	15514.88
819.355	15354.21
824.686	15268.88
830.011	15210.21
835.33	15103.54
840.644	15062.88
845.952	15142.54
851.255	15098.21
856.552	15207.54
861.844	15370.88
867.13	15810.54
872.41	16686.21
877.686	18207.54
882.955	19421.88
888.219	19017.88
893.478	17241.21
898.731	15406.54
903.979	14393.54
909.221	13991.54
914.458	13759.54
919.69	13670.88
924.916	13678.54
930.136	13583.88
935.351	13607.88
940.561	13550.54
945.766	13539.54
950.965	13395.88
956.158	13366.21
961.347	13211.21
966.529	13043.88
971.707	12824.54
976.879	12653.54
982.046	12588.21
987.208	12621.21
992.364	12611.54
997.515	12712.54
1002.66	12845.88
1007.801	13030.54
1012.936	13270.21
1018.066	13530.88
1023.19	13607.54
1028.309	13672.54
1033.423	13847.21
1038.532	14012.54
1043.636	14354.88
1048.734	14562.21
1053.827	14616.21
1058.915	14227.21
1063.998	13737.21
1069.075	13569.54
1074.147	13598.21
1079.214	13972.54
1084.276	14294.21
1089.333	14599.21
1094.385	14627.21
1099.431	14474.54
1104.472	14039.54
1109.509	13720.88
1114.54	13422.54
1119.565	13146.88
1124.586	12977.21
1129.602	12873.88
1134.613	12770.88
1139.618	12687.21
1144.619	12584.21
1149.614	12570.54
1154.604	12666.54
1159.589	12751.21
1164.57	12656.88
1169.545	12699.21
1174.515	12707.21
1179.48	12642.21
1184.44	12544.88
1189.395	12473.21
1194.345	12424.21
1199.29	12356.54
1204.23	12411.21
1209.165	12555.88
1214.095	12562.21
1219.021	12703.21
1223.941	12818.21
1228.856	12934.21
1233.766	12975.88
1238.672	12972.88
1243.572	12940.54
1248.467	12906.54
1253.358	12782.21
1258.244	12720.54
1263.124	12536.88
1268	12439.88
1272.871	12515.21
1277.737	12564.21
1282.599	12670.54
1287.455	12679.54
1292.306	12549.88
1297.153	12573.54
1301.995	12528.88
1306.832	12529.21
1311.664	12517.88
1316.491	12523.88
1321.314	12419.88
1326.132	12324.21
1330.945	12154.21
1335.753	11959.54
1340.556	11832.21
1345.354	11729.21
1350.148	11583.88
1354.937	11544.54
1359.722	11562.88
1364.501	11552.54
1369.276	11587.88
1374.046	11600.21
1378.811	11777.21
1383.572	11815.54
1388.327	11820.21
1393.079	11811.54
1397.825	11733.21
1402.567	11533.54
1407.304	11451.88
1412.036	11412.88
1416.764	11432.21
1421.487	11468.54
1426.205	11554.88
1430.919	11685.21
1435.628	11955.54
1440.333	12167.21
1445.032	12471.54
1449.727	12908.54
1454.418	13464.54
1459.104	13851.54
1463.785	13687.88
1468.462	12903.54
1473.134	12300.54
1477.802	11917.88
1482.465	11920.54
1487.123	11805.88
1491.777	11832.88
1496.426	11807.88
1501.071	11629.88
1505.711	11653.54
1510.347	11685.54
1514.978	11740.54
1519.604	11872.21
1524.226	11913.21
1528.844	11936.88
1533.457	11867.88
1538.065	11839.88
1542.669	11793.21
1547.269	11767.88
1551.864	11757.54
1556.454	11868.88
1561.041	11907.54
1565.622	11962.54
1570.199	12033.54
1574.772	12170.88
1579.34	12304.54
1583.904	12428.88
1588.464	12641.21
1593.019	12702.54
1597.569	12781.88
1602.115	12856.88
1606.657	12851.54
1611.195	12849.88
1615.728	12942.88
1620.256	13056.54
1624.78	13236.88
1629.3	13365.54
1633.816	13517.54
1638.327	13638.88
1642.834	13828.54
1647.336	13953.21
1651.834	14002.21
1656.328	14001.54
1660.817	13911.54
1665.302	13807.88
1669.783	13565.54
1674.259	13293.21
1678.732	12920.54
1683.199	12535.21
1687.663	12152.88
1692.122	11744.88
1696.577	11421.21
1701.028	11130.54
1705.474	10931.54
1709.917	10748.88
1714.355	10565.54
1718.788	10411.21
1723.218	10304.88
1727.643	10148.54
1732.064	9907.54
1736.481	9754.88
1740.893	9483.21
1745.301	9270.88
1749.705	9152.88
1754.105	8908.88
1758.501	8736.88
1762.893	8555.54
1767.28	8578.88
1771.663	8441.88
1776.042	8419.88
1780.417	8386.54
1784.787	8359.21
1789.154	8415.88
1793.516	8463.54
1797.874	8545.88
1802.228	8607.54
1806.578	8583.54
1810.924	8460.21
1815.266	8730.54
1819.603	8221.54
1823.937	8160.21
1828.266	8109.54
1832.591	8021.54
1836.913	7941.21
1841.23	7917.54
1845.543	7923.21
1849.852	7901.21
1854.156	7927.21
1858.457	7940.21
1862.754	8016.21
1867.047	7967.54
1871.335	7960.54
1875.62	8042.54
1879.9	8056.54
1884.177	8049.88
1888.449	7976.21
1892.718	7946.54
1896.982	7930.88
1901.243	7933.54
1905.499	7872.21
1909.752	7938.88
1914	7933.21
1918.245	7871.88
1922.485	7904.88
1926.722	7940.21
1930.954	7993.54
1935.183	8020.21
1939.408	8028.21
1943.628	8092.88
1947.845	8095.54
1952.058	8097.54
1956.267	8079.21
1960.472	7985.88
1964.673	7893.21
1968.87	7854.21
1973.063	7786.54
1977.252	7728.54
1981.438	7693.54
1985.619	7675.54
1989.797	7719.88
1993.971	7662.88
1998.14	7668.21
2002.306	7715.54
2006.469	7738.54
2010.627	7757.88
2014.781	7745.54
2018.932	7772.88
2023.078	7695.54
2027.221	7671.21
2031.36	7600.54
2035.495	7510.88
2039.627	7495.21
2043.754	7409.54
2047.878	7409.54
2051.998	7397.21
2056.114	7449.88
2060.226	7419.88
2064.334	7437.21
2068.439	7474.88
2072.54	7503.88
2076.637	7622.21
2080.73	7619.88
2084.82	7672.54
2088.906	7659.21
2092.988	7663.21
2097.066	7576.21
2101.14	7501.88
2105.211	7452.88
2109.278	7436.54
2113.342	7394.88
2117.401	7439.88
2121.457	7408.21
2125.509	7385.21
2129.558	7294.21
2133.602	7290.54
2137.643	7281.54
2141.681	7292.54
2145.714	7262.54
2149.744	7198.88
2153.77	7179.88
2157.793	7140.54
2161.812	7091.54
2165.827	7086.54
2169.838	6886.88
2173.846	6815.54
2177.851	6735.21
2181.851	6642.21
2185.848	6607.54
2189.841	6497.21
2193.831	6475.88
2197.817	6446.88
2201.799	6401.54
2205.778	6444.88
2209.753	6445.54
2213.725	6435.88
2217.693	6390.54
2221.657	6443.21
2225.618	6341.21
2229.575	6375.21
2233.529	6316.88
2237.479	6311.21
2241.425	6244.88
2245.368	6188.21
2249.307	6123.88
2253.243	6049.88
2257.175	5973.21
2261.104	5923.88
2265.029	5821.54
2268.95	5747.54
2272.868	5732.54
2276.783	5683.54
2280.694	5628.88
2284.601	5581.21
2288.505	5503.21
2292.405	5430.54
2296.302	5425.88
2300.195	5351.21
2304.085	5347.21
2307.971	5199.21
2311.854	5197.21
2315.734	5066.88
2319.609	4994.88
2323.482	4997.54
2327.351	4893.88
2331.216	4921.54
2335.078	4881.21
2338.937	4851.54
2342.792	4798.21
2346.643	4782.54
2350.492	4712.21
2354.336	4751.21
2358.178	4768.54
2362.015	4799.88
2365.85	4773.54
2369.681	4810.88
2373.508	4792.54
2377.333	4776.54
2381.153	4812.88
2384.971	4809.88
2388.785	4729.54
2392.595	4733.88
2396.402	4668.54
2400.206	4700.54
2404.007	4633.21
2407.804	4600.21
2411.597	4584.88
2415.388	4609.54
2419.174	4577.88
2422.958	4591.54
2426.738	4566.88
2430.515	4507.54
2434.289	4510.88
2438.059	4536.54
2441.825	4491.21
2445.589	4386.88
2449.349	4489.54
2453.106	4387.88
2456.859	4371.21
2460.61	4347.54
2464.356	4316.88
2468.1	4293.21
2471.84	4247.54
2475.577	4241.21
2479.311	4225.54
2483.041	4186.21
2486.768	4163.54
2490.492	4200.88
2494.213	4222.21
2497.93	4230.54
2501.644	4261.88
2505.355	4246.21
2509.062	4227.54
2512.766	4191.88
2516.467	4198.21
2520.165	4188.88
2523.859	4155.54
2527.551	4038.21
2531.239	4099.88
2534.923	4054.21
2538.605	3994.54
2542.283	3985.54
2545.958	3987.88
2549.63	3950.21
2553.299	3971.54
2556.964	3920.88
2560.626	3904.54
2564.285	3857.88
2567.941	3912.88
2571.594	3866.54
2575.243	3765.54
2578.89	3834.54
2582.533	3773.88
2586.173	3778.88
2589.809	3666.88
2593.443	3811.21
2597.073	3694.88
2600.701	3672.88
2604.325	3655.88
2607.946	3693.88
2611.564	3629.54
2615.178	3605.54
2618.79	3635.54
2622.398	3651.54
2626.004	3575.21
2629.606	3558.88
2633.205	3577.88
2636.801	3448.21
2640.394	3454.21
2643.983	3398.88
2647.57	3446.88
2651.153	3367.54
2654.734	3318.88
2658.311	3359.88
2661.885	3274.54
2665.456	3260.21
2669.025	3248.88
2672.589	3274.21
2676.151	3175.54
2679.71	3170.21
2683.266	3198.88
2686.819	3136.88
2690.368	3108.88
2693.915	3072.88
2697.458	3060.54
2700.999	3020.54
2704.536	3008.54
2708.071	2993.54
2711.602	2959.21
2715.13	3012.88
2718.656	3018.21
2722.178	3038.21
2725.697	3051.88
2729.214	3018.54
2732.727	3060.21
2736.237	3102.54
2739.744	3067.54
2743.249	3127.21
2746.75	3065.21
2750.248	3077.21
2753.743	3055.88
2757.236	3044.54
2760.725	3006.88
2764.211	3129.21
2767.695	2970.21
2771.175	2949.54
2774.652	2898.54
2778.127	2950.21
2781.598	2893.88
2785.067	2903.21
2788.532	2941.54
2791.995	2897.88
2795.455	2906.21
2798.911	2910.88
2802.365	2967.54
2805.816	2971.54
2809.264	2906.54
2812.709	2992.88
2816.151	2984.21
2819.59	3052.21
2823.026	3048.21
2826.46	3053.88
2829.89	3025.54
2833.318	3163.21
2836.742	3104.54
2840.164	3173.54
2843.583	3231.21
2846.999	3253.21
2850.412	3307.21
2853.822	3355.54
2857.229	3348.21
2860.634	3448.88
2864.035	3595.54
2867.434	3577.54
2870.83	3738.54
2874.223	3889.88
2877.613	4032.88
2881	4237.88
2884.385	4391.21
2887.766	4421.88
2891.145	4476.54
2894.521	4392.21
2897.894	4378.54
2901.264	4279.21
2904.631	4306.21
2907.996	4307.54
2911.358	4246.54
2914.717	4274.88
2918.073	4354.54
2921.426	4462.88
2924.777	4558.54
2928.124	4699.21
2931.469	4935.54
2934.811	5328.54
2938.15	5422.21
2941.487	5448.88
2944.821	5227.88
2948.152	5146.21
2951.48	4953.54
2954.805	4774.88
2958.128	4601.21
2961.447	4535.88
2964.765	4476.21
2968.079	4490.54
2971.39	4472.88
2974.699	4583.21
2978.005	4629.21
2981.308	4727.21
2984.609	4822.88
2987.907	4818.54
2991.202	4840.21
2994.494	4896.54
2997.784	4812.21
3001.07	4815.88
3004.355	4795.88
3007.636	4855.21
3010.915	4795.54
3014.191	4812.88
3017.464	4860.21
3020.734	4809.54
3024.002	4828.54
3027.267	4895.21
3030.53	4908.54
3033.789	4956.54
3037.046	5046.21
3040.301	5089.54
3043.552	5152.21
3046.801	5220.88
3050.048	5289.54
3053.291	5397.88
3056.532	5518.21
3059.771	5749.88
3063.006	5820.88
3066.239	5957.21
3069.469	6124.88
3072.697	6342.54
3075.922	6474.88
3079.144	6566.88
3082.364	6638.88
3085.581	6828.21
3088.795	6854.54
3092.007	7043.21
3095.216	7188.21
3098.423	7350.54
3101.627	7558.21
3104.828	7653.54
3108.026	7796.54
3111.222	7976.21
3114.416	8101.54
3117.607	8230.54
3120.795	8426.21
3123.98	8642.88
3127.163	8883.54
3130.344	9030.21
3133.521	9202.54
3136.696	9362.21
3139.869	9545.54
3143.039	9727.54
3146.206	9784.54
3149.371	9886.21
3152.533	10035.88
3155.693	10174.54
3158.85	10164.54
3162.005	10214.54
3165.157	10241.88
3168.306	10298.21
3171.453	10294.88
3174.597	10356.88
3177.739	10466.54
3180.878	10389.54
3184.014	10435.88
3187.149	10467.21
3190.28	10434.21
3193.409	10488.88
3196.536	10552.21
3199.659	10566.21
3202.781	10604.54
3205.9	10673.88
3209.016	10661.21
3212.13	10620.54
3215.241	10598.54
3218.35	10473.88
3221.456	10427.21
3224.56	10384.88
3227.661	10237.88
3230.76	10165.88
3233.856	10096.21
3236.95	10006.54
3240.041	9980.54
3243.13	9783.54
3246.216	9748.21
3249.3	9696.54
3252.382	9656.88
3255.46	9673.88
3258.537	9959.54
3261.611	9613.88
3264.682	9508.88
3267.751	9519.88
3270.818	9524.21
3273.882	9464.21
3276.943	9400.88
3280.002	9296.21
3283.059	9261.54
3286.113	9117.21
3289.165	9043.21
3292.214	8883.88
3295.261	8741.54
3298.306	8706.21
3301.348	8497.54
3304.387	8348.54
3307.425	8196.54
3310.459	8150.21
3313.492	7991.54
3316.521	7940.21
3319.549	7856.54
3322.574	7745.88
3325.597	7701.54
3328.617	7655.54
3331.635	7619.88
3334.65	7583.88
3337.663	7510.54
3340.674	7524.54
3343.682	7471.54
3346.688	7436.88
3349.691	7444.54
3352.692	7434.21
3355.691	7304.21
3358.687	7261.88
3361.681	7201.88
3364.673	7128.88
3367.662	7034.21
3370.649	6915.54
3373.633	6845.88
3376.615	6772.88
3379.595	6776.88
3382.572	6566.88
3385.547	6553.21
3388.52	6470.54
3391.49	6323.54
3394.458	6276.21
3397.424	6184.54
3400.387	6123.21
3403.348	6059.88
3406.307	5984.21
3409.263	5964.21
3412.217	5826.21
3415.168	5790.54
3418.118	5762.21
3421.065	5688.88
3424.009	5591.54
3426.951	5580.88
3429.891	5476.54
3432.829	5388.21
3435.764	5237.88
3438.697	5205.88
3441.628	5015.88
3444.557	4957.21
3447.483	4823.54
3450.407	4647.21
3453.328	4568.54
3456.247	4429.88
3459.164	4384.54
3462.079	4173.88
3464.991	4064.88
3467.902	3965.21
3470.809	3806.54
3473.715	3701.88
3476.618	3620.88
3479.519	3504.21
3482.418	3477.88
3485.315	3360.88
3488.209	3253.54
3491.101	3140.88
3493.99	3066.21
3496.878	3000.21
3499.763	2890.21
3502.646	2803.21
3505.527	2788.88
3508.405	2655.54
3511.281	2588.54
3514.155	2421.21
3517.027	2311.54
3519.897	2277.54
3522.764	2100.21
3525.629	2049.21
3528.492	1944.54
3531.352	1797.54
3534.211	1702.21
3537.067	1660.21
3539.921	1589.54
3542.773	1468.88
3545.622	1393.54
3548.469	1368.54
3551.315	1267.21
3554.157	1224.54
3556.998	1115.21
3559.837	1032.54
3562.673	954.21
3565.507	959.54
3568.339	899.88
3571.169	867.88
3573.996	795.88
3576.822	758.54
3579.645	738.88
3582.466	668.88
3585.285	541.88
3588.101	533.21
3590.916	502.54
3593.728	447.54
3596.538	376.54
3599.346	313.54
3602.152	333.21
3604.956	260.21
3607.757	218.88
3610.556	219.54
3613.354	133.54
3616.149	120.54
3618.942	52.54
3621.732	4.54
3624.521	90.21
3627.307	12.21
3630.092	-35.46
3632.874	-60.79
3635.654	-47.79
3638.432	-49.12
3641.208	-111.79
3643.982	-145.12
3646.753	-175.79
3649.523	-78.79
3652.29	-189.79
3655.055	-254.79
3657.818	-253.12
3660.579	-303.46
3663.338	-262.79
3666.095	-291.79
3668.849	-264.12
3671.602	-377.46
3674.352	-303.79
3677.101	-423.46
3679.847	-466.12
3682.591	-428.46
3685.333	-399.12
3688.073	-480.79
3690.811	-454.79
3693.547	-427.12
3696.281	-507.12
3699.013	-523.46
3701.742	-518.79
3704.47	-509.12
3707.195	-561.12
3709.919	-555.46
3712.64	-551.79
3715.359	-568.79
3718.076	-633.79
3720.792	-618.12
3723.505	-603.79
3726.216	-662.79
3728.925	-584.79
3731.632	-624.46
3734.336	-610.12
3737.039	-641.79
3739.74	-641.12
3742.439	-491.46
3745.136	-651.46
3747.83	-689.46
3750.523	-704.46
3753.213	-425.46
3755.902	-683.12
3758.589	-608.46
3761.273	-670.79
3763.956	-710.46
3766.636	-650.12
3769.315	-744.12
3771.991	-690.12
3774.665	-704.12
3777.338	-737.12
3780.008	-693.79
3782.677	-690.12
3785.343	-683.12
3788.007	-681.12
3790.67	-715.79
3793.33	-719.46
3795.989	-720.46
3798.645	-756.12
3801.299	-685.12
3803.952	-709.46
3806.602	-759.12
3809.251	-750.12
3811.897	-736.79
3814.542	-733.46
3817.184	-738.12
3819.825	-769.79
3822.463	-763.12
3825.1	-765.12
3827.735	-761.12
3830.367	-755.46
3832.998	-801.12
3835.627	-780.46
3838.253	-812.79
3840.878	-753.79
3843.501	-813.46
3846.122	-781.79
3848.741	-796.46
3851.358	-799.12
3853.973	-716.12
3856.586	-785.79
3859.197	-785.46
3861.806	-797.12
3864.414	-768.12
3867.019	-739.79
3869.622	-790.12
3872.224	-767.12
3874.823	-753.12
3877.421	-740.46
3880.016	-705.79
3882.61	-678.79
3885.202	-652.46
3887.792	-690.79
3890.38	-754.79
3892.966	-752.79
3895.55	-705.46
3898.132	-805.12
3900.713	-803.46
3903.291	-786.46
3905.868	-757.79
3908.442	-818.12
3911.015	-826.12
3913.586	-796.12
3916.155	-819.79
3918.722	-812.79
3921.287	-823.12
3923.85	-770.46
3926.411	-821.46
3928.971	-824.79
3931.528	-820.79
3934.084	-811.46
3936.638	-815.46
3939.19	-811.46
3941.74	-844.12
3944.288	-840.12
3946.834	-802.79
3949.378	-853.46
3951.921	-776.79
3954.462	-790.46
3957	-841.12
3959.537	-822.12
3962.072	-760.46
3964.606	-752.79
3967.137	-834.79
3969.667	-812.46
3972.194	-830.79
3974.72	-802.79
3977.244	-710.46
3979.766	-761.12
3982.286	-775.79
3984.805	-832.79
3987.321	-834.12
3989.836	-806.46
3992.349	-763.12
3994.86	-813.12
3997.369	-803.12
3999.877	-802.46
4002.382	-795.12
4004.886	-818.46
4007.388	-781.79
4009.888	-822.12
4012.386	-833.79
4014.883	-835.12
4017.377	-803.79
4019.87	-805.12
4022.361	-789.79
4024.85	-805.46
4027.338	-813.79
4029.823	-818.46
4032.307	-831.79
4034.789	-839.46
4037.269	-812.46
4039.747	-744.46
4042.224	-820.12
4044.699	-756.12
4047.172	-799.12
4049.643	-862.79
4052.112	-759.12
4054.58	-830.46
4057.046	-801.79
4059.51	-808.79
4061.972	-811.12
4064.432	-723.12
4066.891	-857.12
4069.348	-822.79
4071.803	-846.46
4074.256	-831.79
4076.708	-834.12
4079.158	-799.46
4081.606	-888.46
4084.052	-800.79
4086.497	-873.46
4088.939	-814.46
4091.38	-797.79
4093.819	-842.12
4096.257	-1019.79
4098.693	-1032.12
4101.127	-1065.46
4103.559	-1027.46
4105.989	-462.79
4108.418	-479.79
4110.845	-415.46
4113.27	-415.46
4115.694	-322.12
4118.115	-234.46
4120.535	-872.79
4122.954	-831.12
4125.37	-893.79
4127.785	-865.46
4130.198	-856.12
4132.609	-844.46
4135.019	-1057.46
4137.427	-1047.79
4139.833	-1054.46
4142.237	-1044.79
