Data from ice_coli_100s_RamanShift_3.txt Node
Date: Mon Mar 27 12:19:45 IDT 2017
User: aro
Spectrometer: QEPB0276
Trigger mode: 0
Integration Time (sec): 1.000000E2
Scans to average: 3
Electric dark correction enabled: true
Nonlinearity correction enabled: false
Boxcar width: 0
XAxis mode: Raman Shifts
Number of Pixels in Spectrum: 1044
>>>>>Begin Spectral Data<<<<<
160.701	-163.04
166.742	107.29
172.777	877.62
178.805	3274.29
184.826	9164.62
190.841	19240.96
196.849	30928.96
202.85	38434.96
208.845	40345.62
214.833	39154.29
220.815	37896.96
226.789	37028.62
232.758	36218.29
238.719	35348.96
244.674	34326.29
250.623	33079.29
256.565	31857.62
262.5	30601.96
268.429	29560.29
274.351	28681.29
280.267	27811.96
286.176	27009.96
292.079	26378.96
297.975	25665.63
303.865	25070.96
309.748	24489.62
315.625	24042.29
321.495	23571.29
327.359	23330.62
333.217	23010.62
339.068	22866.62
344.912	22740.29
350.751	22636.62
356.583	22540.62
362.408	22443.29
368.227	22408.62
374.04	22448.96
379.847	22464.96
385.647	22567.63
391.44	22672.62
397.228	22769.63
403.009	22794.29
408.784	22858.29
414.553	22959.29
420.315	23019.62
426.071	23075.63
431.821	23079.96
437.565	23131.62
443.302	23064.62
449.033	22964.62
454.758	22827.62
460.477	22603.63
466.189	22423.63
471.896	22282.96
477.596	22109.29
483.29	22015.63
488.978	21913.29
494.66	21802.62
500.335	21488.96
506.005	20995.96
511.668	20444.96
517.325	19996.96
522.977	19641.62
528.622	19265.62
534.261	19033.29
539.894	18876.29
545.521	18663.62
551.141	18649.62
556.756	18490.62
562.365	18323.62
567.968	18256.96
573.565	18134.29
579.155	18009.29
584.74	17904.96
590.319	17795.29
595.892	17727.96
601.459	17590.96
607.02	17491.96
612.575	17367.62
618.124	17129.29
623.667	17012.62
629.204	16819.62
634.735	16673.62
640.261	16557.62
645.781	16503.96
651.294	16469.62
656.802	16357.96
662.304	16288.62
667.8	16186.96
673.29	16241.62
678.775	16201.29
684.254	16115.29
689.726	16055.96
695.193	15933.62
700.655	15904.96
706.11	15814.29
711.56	15648.29
717.004	15557.29
722.442	15581.29
727.874	15412.29
733.301	15441.29
738.722	15354.62
744.137	15337.96
749.547	15356.62
754.951	15284.62
760.349	15287.29
765.741	15227.29
771.128	15328.62
776.509	15374.29
781.885	15397.29
787.254	15401.96
792.618	15439.29
797.977	15331.96
803.33	15217.62
808.677	15099.29
814.019	15021.96
819.355	14904.62
824.686	14799.29
830.011	14708.29
835.33	14603.62
840.644	14514.96
845.952	14589.29
851.255	14492.29
856.552	14567.62
861.844	14597.96
867.13	14765.96
872.41	15126.96
877.686	15754.62
882.955	16264.62
888.219	15980.29
893.478	15102.96
898.731	14162.62
903.979	13610.29
909.221	13366.29
914.458	13200.96
919.69	13161.62
924.916	13189.96
930.136	13157.29
935.351	13191.62
940.561	13129.96
945.766	13109.62
950.965	13020.29
956.158	12988.62
961.347	12808.62
966.529	12647.29
971.707	12459.96
976.879	12291.62
982.046	12208.29
987.208	12225.29
992.364	12199.96
997.515	12315.29
1002.66	12415.96
1007.801	12612.29
1012.936	12760.96
1018.066	12981.29
1023.19	13003.62
1028.309	13028.29
1033.423	13128.96
1038.532	13157.96
1043.636	13312.29
1048.734	13342.96
1053.827	13303.96
1058.915	13118.29
1063.998	12824.62
1069.075	12737.62
1074.147	12741.62
1079.214	13013.96
1084.276	13150.96
1089.333	13357.62
1094.385	13429.29
1099.431	13413.62
1104.472	13185.62
1109.509	13017.29
1114.54	12830.62
1119.565	12595.29
1124.586	12443.62
1129.602	12380.96
1134.613	12275.29
1139.618	12226.62
1144.619	12176.29
1149.614	12148.96
1154.604	12291.29
1159.589	12328.96
1164.57	12307.62
1169.545	12371.62
1174.515	12364.62
1179.48	12336.29
1184.44	12220.62
1189.395	12140.96
1194.345	12134.96
1199.29	12069.62
1204.23	12152.62
1209.165	12244.96
1214.095	12291.62
1219.021	12389.62
1223.941	12511.62
1228.856	12612.62
1233.766	12647.96
1238.672	12638.62
1243.572	12639.62
1248.467	12608.96
1253.358	12409.96
1258.244	12373.29
1263.124	12162.62
1268	12015.96
1272.871	12021.96
1277.737	11983.96
1282.599	12029.62
1287.455	12040.62
1292.306	12024.29
1297.153	12101.29
1301.995	12091.62
1306.832	12154.62
1311.664	12181.29
1316.491	12208.96
1321.314	12152.62
1326.132	12032.96
1330.945	11868.62
1335.753	11682.29
1340.556	11553.62
1345.354	11459.29
1350.148	11293.96
1354.937	11197.62
1359.722	11243.62
1364.501	11198.96
1369.276	11191.96
1374.046	11173.96
1378.811	11342.29
1383.572	11379.96
1388.327	11351.62
1393.079	11327.29
1397.825	11249.96
1402.567	11056.29
1407.304	10991.29
1412.036	10967.29
1416.764	10964.29
1421.487	10986.62
1426.205	11007.62
1430.919	11134.29
1435.628	11342.62
1440.333	11489.96
1445.032	11667.62
1449.727	11907.96
1454.418	12171.62
1459.104	12380.96
1463.785	12222.96
1468.462	11769.62
1473.134	11440.62
1477.802	11191.62
1482.465	11237.29
1487.123	11051.62
1491.777	11145.62
1496.426	11160.96
1501.071	10979.29
1505.711	11077.62
1510.347	11216.29
1514.978	11239.29
1519.604	11389.29
1524.226	11436.29
1528.844	11479.62
1533.457	11411.29
1538.065	11445.96
1542.669	11395.62
1547.269	11398.96
1551.864	11402.62
1556.454	11519.62
1561.041	11570.96
1565.622	11663.29
1570.199	11745.96
1574.772	11910.96
1579.34	11995.96
1583.904	12160.62
1588.464	12369.96
1593.019	12409.62
1597.569	12484.29
1602.115	12586.29
1606.657	12570.96
1611.195	12599.29
1615.728	12654.96
1620.256	12776.96
1624.78	12962.62
1629.3	13064.62
1633.816	13199.96
1638.327	13372.96
1642.834	13503.29
1647.336	13628.62
1651.834	13695.96
1656.328	13674.96
1660.817	13596.62
1665.302	13498.96
1669.783	13223.29
1674.259	12919.96
1678.732	12584.62
1683.199	12204.96
1687.663	11828.62
1692.122	11406.29
1696.577	11053.62
1701.028	10807.62
1705.474	10614.62
1709.917	10426.29
1714.355	10250.96
1718.788	10074.62
1723.218	10002.96
1727.643	9853.29
1732.064	9634.96
1736.481	9509.96
1740.893	9282.62
1745.301	9064.96
1749.705	8968.62
1754.105	8694.96
1758.501	8534.96
1762.893	8399.62
1767.28	8376.29
1771.663	8274.29
1776.042	8225.96
1780.417	8225.29
1784.787	8186.96
1789.154	8221.29
1793.516	8274.29
1797.874	8350.29
1802.228	8389.96
1806.578	8361.29
1810.924	8251.62
1815.266	8530.29
1819.603	8033.62
1823.937	8014.62
1828.266	7931.96
1832.591	7900.96
1836.913	7781.62
1841.23	7799.29
1845.543	7752.96
1849.852	7725.29
1854.156	7797.29
1858.457	7818.62
1862.754	7866.96
1867.047	7847.29
1871.335	7809.29
1875.62	7889.62
1879.9	7902.96
1884.177	7880.96
1888.449	7846.62
1892.718	7803.62
1896.982	7754.62
1901.243	7760.96
1905.499	7710.62
1909.752	7737.62
1914	7744.96
1918.245	7700.62
1922.485	7711.29
1926.722	7732.29
1930.954	7739.62
1935.183	7804.29
1939.408	7808.62
1943.628	7887.29
1947.845	7857.96
1952.058	7885.62
1956.267	7885.29
1960.472	7800.96
1964.673	7709.62
1968.87	7684.62
1973.063	7603.96
1977.252	7576.62
1981.438	7525.29
1985.619	7493.29
1989.797	7564.29
1993.971	7506.29
1998.14	7515.29
2002.306	7589.62
2006.469	7595.29
2010.627	7601.96
2014.781	7605.62
2018.932	7635.29
2023.078	7570.29
2027.221	7539.29
2031.36	7471.96
2035.495	7412.29
2039.627	7357.29
2043.754	7281.96
2047.878	7246.29
2051.998	7232.96
2056.114	7294.96
2060.226	7271.29
2064.334	7288.96
2068.439	7318.96
2072.54	7343.29
2076.637	7426.62
2080.73	7421.62
2084.82	7476.29
2088.906	7482.96
2092.988	7468.96
2097.066	7393.62
2101.14	7331.96
2105.211	7268.29
2109.278	7255.96
2113.342	7218.29
2117.401	7240.29
2121.457	7212.96
2125.509	7212.29
2129.558	7112.62
2133.602	7117.29
2137.643	7143.96
2141.681	7124.96
2145.714	7121.62
2149.744	7051.96
2153.77	7027.29
2157.793	7018.29
2161.812	6956.29
2165.827	6978.62
2169.838	6763.29
2173.846	6707.96
2177.851	6620.29
2181.851	6509.62
2185.848	6485.96
2189.841	6388.62
2193.831	6387.29
2197.817	6325.62
2201.799	6321.96
2205.778	6364.96
2209.753	6363.62
2213.725	6349.62
2217.693	6289.96
2221.657	6378.96
2225.618	6249.62
2229.575	6298.62
2233.529	6243.62
2237.479	6252.29
2241.425	6172.96
2245.368	6135.96
2249.307	6044.96
2253.243	5974.96
2257.175	5902.96
2261.104	5860.62
2265.029	5781.96
2268.95	5701.96
2272.868	5684.62
2276.783	5631.62
2280.694	5582.62
2284.601	5544.62
2288.505	5478.62
2292.405	5407.29
2296.302	5400.96
2300.195	5334.96
2304.085	5321.29
2307.971	5191.62
2311.854	5178.96
2315.734	5056.29
2319.609	4966.96
2323.482	4982.29
2327.351	4901.96
2331.216	4892.62
2335.078	4879.29
2338.937	4856.29
2342.792	4802.96
2346.643	4781.29
2350.492	4742.62
2354.336	4776.62
2358.178	4784.96
2362.015	4795.96
2365.85	4807.96
2369.681	4816.96
2373.508	4812.96
2377.333	4760.29
2381.153	4827.62
2384.971	4831.29
2388.785	4736.29
2392.595	4722.29
2396.402	4697.62
2400.206	4714.29
2404.007	4665.62
2407.804	4611.29
2411.597	4608.29
2415.388	4640.96
2419.174	4600.96
2422.958	4598.96
2426.738	4582.29
2430.515	4537.62
2434.289	4551.29
2438.059	4539.96
2441.825	4495.29
2445.589	4422.29
2449.349	4501.96
2453.106	4398.96
2456.859	4364.96
2460.61	4357.29
2464.356	4308.62
2468.1	4342.29
2471.84	4278.96
2475.577	4268.62
2479.311	4237.96
2483.041	4202.29
2486.768	4173.96
2490.492	4242.29
2494.213	4223.96
2497.93	4251.96
2501.644	4288.96
2505.355	4245.62
2509.062	4222.62
2512.766	4186.29
2516.467	4209.29
2520.165	4189.62
2523.859	4173.62
2527.551	4035.62
2531.239	4084.29
2534.923	4049.62
2538.605	4001.29
2542.283	3975.96
2545.958	3968.29
2549.63	3939.29
2553.299	3968.29
2556.964	3895.96
2560.626	3856.29
2564.285	3855.62
2567.941	3885.96
2571.594	3843.96
2575.243	3773.96
2578.89	3833.96
2582.533	3770.96
2586.173	3759.62
2589.809	3676.96
2593.443	3822.29
2597.073	3675.29
2600.701	3645.29
2604.325	3625.62
2607.946	3676.96
2611.564	3626.96
2615.178	3596.29
2618.79	3626.96
2622.398	3656.29
2626.004	3579.29
2629.606	3550.62
2633.205	3547.62
2636.801	3467.29
2640.394	3443.96
2643.983	3410.62
2647.57	3453.62
2651.153	3384.29
2654.734	3321.62
2658.311	3374.62
2661.885	3279.62
2665.456	3265.96
2669.025	3246.29
2672.589	3276.62
2676.151	3188.96
2679.71	3169.62
2683.266	3198.96
2686.819	3162.96
2690.368	3114.62
2693.915	3060.29
2697.458	3059.29
2700.999	3002.29
2704.536	2977.62
2708.071	2954.96
2711.602	2932.62
2715.13	2949.62
2718.656	2960.96
2722.178	2951.62
2725.697	2981.96
2729.214	2926.62
2732.727	2953.62
2736.237	2980.62
2739.744	2970.96
2743.249	2985.29
2746.75	2926.96
2750.248	2964.62
2753.743	2940.29
2757.236	2916.62
2760.725	2886.29
2764.211	2999.29
2767.695	2874.96
2771.175	2838.62
2774.652	2784.96
2778.127	2834.62
2781.598	2807.29
2785.067	2796.29
2788.532	2837.96
2791.995	2814.29
2795.455	2797.62
2798.911	2821.29
2802.365	2856.62
2805.816	2858.62
2809.264	2763.62
2812.709	2861.29
2816.151	2806.96
2819.59	2900.96
2823.026	2866.62
2826.46	2861.62
2829.89	2825.96
2833.318	2930.96
2836.742	2860.62
2840.164	2910.29
2843.583	2956.96
2846.999	2949.62
2850.412	2987.62
2853.822	3020.62
2857.229	2999.29
2860.634	3080.29
2864.035	3190.29
2867.434	3126.96
2870.83	3258.96
2874.223	3322.62
2877.613	3376.29
2881	3488.62
2884.385	3561.96
2887.766	3547.96
2891.145	3627.62
2894.521	3571.62
2897.894	3567.62
2901.264	3492.29
2904.631	3538.62
2907.996	3517.96
2911.358	3478.62
2914.717	3524.96
2918.073	3591.62
2921.426	3626.62
2924.777	3709.62
2928.124	3765.96
2931.469	3882.96
2934.811	4150.62
2938.15	4146.62
2941.487	4195.96
2944.821	4056.29
2948.152	4053.96
2951.48	3961.29
2954.805	3891.96
2958.128	3804.29
2961.447	3766.96
2964.765	3749.29
2968.079	3811.29
2971.39	3776.62
2974.699	3854.29
2978.005	3908.29
2981.308	3987.62
2984.609	4078.29
2987.907	4076.29
2991.202	4115.96
2994.494	4215.62
2997.784	4174.62
3001.07	4233.96
3004.355	4272.29
3007.636	4355.96
3010.915	4343.62
3014.191	4380.96
3017.464	4465.96
3020.734	4442.29
3024.002	4461.62
3027.267	4529.96
3030.53	4553.29
3033.789	4611.96
3037.046	4716.62
3040.301	4750.62
3043.552	4817.62
3046.801	4885.96
3050.048	4933.96
3053.291	5030.96
3056.532	5179.96
3059.771	5383.29
3063.006	5461.29
3066.239	5569.96
3069.469	5744.62
3072.697	5925.96
3075.922	6080.62
3079.144	6154.62
3082.364	6181.29
3085.581	6371.29
3088.795	6425.96
3092.007	6554.29
3095.216	6708.29
3098.423	6840.62
3101.627	7041.62
3104.828	7113.62
3108.026	7263.62
3111.222	7393.96
3114.416	7516.96
3117.607	7643.29
3120.795	7823.62
3123.98	8054.96
3127.163	8240.96
3130.344	8360.29
3133.521	8539.96
3136.696	8665.29
3139.869	8883.62
3143.039	9007.62
3146.206	9026.29
3149.371	9159.29
3152.533	9255.62
3155.693	9415.96
3158.85	9408.62
3162.005	9466.29
3165.157	9488.29
3168.306	9519.29
3171.453	9499.29
3174.597	9618.29
3177.739	9719.29
3180.878	9653.96
3184.014	9656.96
3187.149	9658.62
3190.28	9681.96
3193.409	9710.62
3196.536	9753.29
3199.659	9797.62
3202.781	9827.29
3205.9	9869.62
3209.016	9834.29
3212.13	9803.96
3215.241	9762.62
3218.35	9643.29
3221.456	9606.29
3224.56	9549.96
3227.661	9405.62
3230.76	9338.62
3233.856	9295.62
3236.95	9194.62
3240.041	9163.29
3243.13	8964.62
3246.216	8941.29
3249.3	8889.62
3252.382	8830.62
3255.46	8862.29
3258.537	9156.29
3261.611	8783.96
3264.682	8715.29
3267.751	8750.62
3270.818	8760.62
3273.882	8685.62
3276.943	8625.29
3280.002	8549.96
3283.059	8532.62
3286.113	8408.62
3289.165	8324.62
3292.214	8213.62
3295.261	8056.96
3298.306	8045.29
3301.348	7848.62
3304.387	7717.29
3307.425	7589.96
3310.459	7544.62
3313.492	7391.96
3316.521	7353.29
3319.549	7247.29
3322.574	7156.96
3325.597	7139.96
3328.617	7076.62
3331.635	7052.96
3334.65	7042.29
3337.663	6944.62
3340.674	6975.62
3343.682	6913.62
3346.688	6868.96
3349.691	6876.62
3352.692	6877.62
3355.691	6754.29
3358.687	6707.62
3361.681	6659.62
3364.673	6591.62
3367.662	6471.29
3370.649	6385.62
3373.633	6346.29
3376.615	6236.62
3379.595	6238.96
3382.572	6054.96
3385.547	6021.96
3388.52	5944.29
3391.49	5849.29
3394.458	5753.96
3397.424	5664.29
3400.387	5630.29
3403.348	5564.62
3406.307	5494.96
3409.263	5476.96
3412.217	5331.96
3415.168	5325.62
3418.118	5286.29
3421.065	5217.29
3424.009	5095.62
3426.951	5125.96
3429.891	5013.62
3432.829	4928.29
3435.764	4781.29
3438.697	4758.29
3441.628	4566.96
3444.557	4519.29
3447.483	4403.29
3450.407	4249.96
3453.328	4167.29
3456.247	4020.29
3459.164	4010.29
3462.079	3779.62
3464.991	3667.29
3467.902	3619.29
3470.809	3437.29
3473.715	3332.96
3476.618	3283.96
3479.519	3184.62
3482.418	3146.62
3485.315	3030.96
3488.209	2918.96
3491.101	2824.29
3493.99	2769.96
3496.878	2697.96
3499.763	2577.29
3502.646	2530.96
3505.527	2492.29
3508.405	2381.96
3511.281	2317.29
3514.155	2162.62
3517.027	2066.96
3519.897	2036.96
3522.764	1862.96
3525.629	1831.96
3528.492	1731.96
3531.352	1597.29
3534.211	1500.29
3537.067	1454.62
3539.921	1406.29
3542.773	1309.62
3545.622	1242.62
3548.469	1213.96
3551.315	1109.62
3554.157	1069.96
3556.998	975.62
3559.837	903.96
3562.673	825.29
3565.507	840.29
3568.339	780.96
3571.169	755.62
3573.996	684.96
3576.822	660.96
3579.645	639.29
3582.466	577.96
3585.285	448.96
3588.101	456.62
3590.916	427.29
3593.728	367.29
3596.538	304.96
3599.346	229.96
3602.152	267.62
3604.956	199.62
3607.757	152.29
3610.556	160.29
3613.354	78.29
3616.149	58.96
3618.942	-2.38
3621.732	-29.71
3624.521	54.96
3627.307	-22.04
3630.092	-69.04
3632.874	-93.71
3635.654	-86.38
3638.432	-75.71
3641.208	-128.38
3643.982	-172.71
3646.753	-201.04
3649.523	-102.04
3652.29	-209.04
3655.055	-265.04
3657.818	-270.04
3660.579	-316.04
3663.338	-264.71
3666.095	-302.04
3668.849	-277.38
3671.602	-389.04
3674.352	-299.38
3677.101	-417.04
3679.847	-464.71
3682.591	-424.04
3685.333	-396.38
3688.073	-474.71
3690.811	-455.04
3693.547	-414.38
3696.281	-489.04
3699.013	-512.04
3701.742	-517.38
3704.47	-498.71
3707.195	-559.04
3709.919	-548.38
3712.64	-541.71
3715.359	-550.04
3718.076	-619.04
3720.792	-602.04
3723.505	-591.71
3726.216	-646.04
3728.925	-575.71
3731.632	-607.04
3734.336	-592.38
3737.039	-623.04
3739.74	-621.71
3742.439	-469.71
3745.136	-642.38
3747.83	-671.38
3750.523	-679.71
3753.213	-428.71
3755.902	-667.38
3758.589	-599.71
3761.273	-653.71
3763.956	-689.38
3766.636	-626.04
3769.315	-724.38
3771.991	-666.38
3774.665	-682.04
3777.338	-717.38
3780.008	-671.38
3782.677	-665.04
3785.343	-654.04
3788.007	-661.04
3790.67	-691.38
3793.33	-705.38
3795.989	-686.71
3798.645	-734.04
3801.299	-671.38
3803.952	-684.38
3806.602	-738.04
3809.251	-727.04
3811.897	-718.71
3814.542	-709.04
3817.184	-713.71
3819.825	-749.71
3822.463	-736.71
3825.1	-744.71
3827.735	-735.71
3830.367	-728.04
3832.998	-775.04
3835.627	-764.04
3838.253	-789.38
3840.878	-730.04
3843.501	-787.71
3846.122	-754.04
3848.741	-768.71
3851.358	-769.04
3853.973	-686.71
3856.586	-765.38
3859.197	-759.38
3861.806	-774.38
3864.414	-742.04
3867.019	-721.71
3869.622	-760.71
3872.224	-743.04
3874.823	-700.38
3877.421	-628.38
3880.016	-635.38
3882.61	-615.71
3885.202	-613.04
3887.792	-649.38
3890.38	-723.04
3892.966	-721.38
3895.55	-683.38
3898.132	-778.71
3900.713	-781.38
3903.291	-754.04
3905.868	-709.04
3908.442	-791.71
3911.015	-798.38
3913.586	-776.71
3916.155	-794.04
3918.722	-784.04
3921.287	-799.38
3923.85	-743.04
3926.411	-789.04
3928.971	-800.04
3931.528	-798.71
3934.084	-787.71
3936.638	-787.71
3939.19	-782.38
3941.74	-812.38
3944.288	-822.71
3946.834	-772.38
3949.378	-829.71
3951.921	-749.04
3954.462	-761.38
3957	-815.71
3959.537	-793.71
3962.072	-733.71
3964.606	-728.04
3967.137	-811.04
3969.667	-791.04
3972.194	-802.38
3974.72	-771.71
3977.244	-676.38
3979.766	-735.71
3982.286	-742.38
3984.805	-805.38
3987.321	-808.04
3989.836	-780.04
3992.349	-742.04
3994.86	-790.38
3997.369	-773.71
3999.877	-779.71
4002.382	-771.38
4004.886	-791.04
4007.388	-757.38
4009.888	-791.71
4012.386	-805.38
4014.883	-806.04
4017.377	-775.71
4019.87	-778.38
4022.361	-773.38
4024.85	-779.71
4027.338	-786.71
4029.823	-789.04
4032.307	-803.04
4034.789	-810.38
4037.269	-788.38
4039.747	-722.04
4042.224	-794.71
4044.699	-728.04
4047.172	-776.38
4049.643	-836.04
4052.112	-733.04
4054.58	-806.38
4057.046	-775.71
4059.51	-786.04
4061.972	-783.71
4064.432	-695.38
4066.891	-833.38
4069.348	-799.71
4071.803	-818.71
4074.256	-806.71
4076.708	-800.38
4079.158	-754.38
4081.606	-863.04
4084.052	-774.71
4086.497	-849.71
4088.939	-795.04
4091.38	-779.38
4093.819	-818.04
4096.257	-990.04
4098.693	-1004.04
4101.127	-1035.38
4103.559	-996.04
4105.989	-448.71
4108.418	-451.38
4110.845	-387.71
4113.27	-396.38
4115.694	-321.04
4118.115	-227.71
4120.535	-849.04
4122.954	-815.04
4125.37	-861.71
4127.785	-837.04
4130.198	-829.71
4132.609	-827.38
4135.019	-1029.04
4137.427	-1023.04
4139.833	-1029.71
4142.237	-1014.38
