Data from ice_coli_5s_RamanShift_3.txt Node
Date: Mon Mar 27 11:46:03 IDT 2017
User: aro
Spectrometer: QEPB0276
Trigger mode: 0
Integration Time (sec): 5.000000E0
Scans to average: 3
Electric dark correction enabled: true
Nonlinearity correction enabled: false
Boxcar width: 0
XAxis mode: Raman Shifts
Number of Pixels in Spectrum: 1044
>>>>>Begin Spectral Data<<<<<
160.701	-10.75
166.742	-0.42
172.777	37.58
178.805	151.25
184.826	419.25
190.841	872.58
196.849	1382.25
202.85	1713.25
208.845	1792.25
214.833	1741.25
220.815	1684.58
226.789	1655.58
232.758	1612.25
238.719	1577.58
244.674	1527.25
250.623	1485.58
256.565	1420.25
262.5	1370.25
268.429	1316.92
274.351	1276.25
280.267	1239.25
286.176	1212.58
292.079	1180.92
297.975	1147.25
303.865	1124.25
309.748	1098.92
315.625	1075.92
321.495	1061.92
327.359	1049.25
333.217	1036.92
339.068	1022.58
344.912	1020.92
350.751	1013.58
356.583	1014.92
362.408	1016.58
368.227	1013.92
374.04	1028.58
379.847	1020.25
385.647	1035.92
391.44	1032.25
397.228	1027.25
403.009	1035.92
408.784	1036.25
414.553	1044.58
420.315	1046.25
426.071	1048.92
431.821	1050.58
437.565	1044.25
443.302	1038.92
449.033	1034.25
454.758	1029.92
460.477	1018.58
466.189	1011.25
471.896	1008.58
477.596	1005.25
483.29	1000.58
488.978	996.92
494.66	991.92
500.335	978.58
506.005	953.92
511.668	931.58
517.325	908.58
522.977	886.58
528.622	876.25
534.261	863.92
539.894	857.25
545.521	842.58
551.141	841.58
556.756	837.58
562.365	828.92
567.968	830.25
573.565	818.92
579.155	809.58
584.74	809.58
590.319	797.25
595.892	798.25
601.459	794.58
607.02	794.58
612.575	780.92
618.124	784.25
623.667	767.25
629.204	762.92
634.735	758.92
640.261	745.25
645.781	739.58
651.294	743.25
656.802	742.92
662.304	736.58
667.8	736.25
673.29	733.25
678.775	728.58
684.254	719.25
689.726	721.92
695.193	722.92
700.655	715.58
706.11	716.25
711.56	706.58
717.004	701.25
722.442	698.58
727.874	691.25
733.301	688.92
738.722	691.25
744.137	686.92
749.547	689.25
754.951	683.58
760.349	689.25
765.741	683.25
771.128	688.92
776.509	686.58
781.885	697.92
787.254	692.25
792.618	689.58
797.977	688.25
803.33	687.25
808.677	681.25
814.019	671.58
819.355	670.58
824.686	660.25
830.011	653.58
835.33	652.25
840.644	647.25
845.952	649.58
851.255	647.58
856.552	643.92
861.844	632.58
867.13	636.25
872.41	641.58
877.686	640.25
882.955	637.25
888.219	631.25
893.478	611.58
898.731	599.92
903.979	583.58
909.221	583.25
914.458	583.92
919.69	582.25
924.916	581.92
930.136	581.25
935.351	581.58
940.561	576.25
945.766	572.92
950.965	575.92
956.158	566.58
961.347	558.25
966.529	553.58
971.707	552.92
976.879	544.92
982.046	538.92
987.208	541.58
992.364	538.58
997.515	544.92
1002.66	549.25
1007.801	551.25
1012.936	556.92
1018.066	559.58
1023.19	561.25
1028.309	570.58
1033.423	569.25
1038.532	565.58
1043.636	560.92
1048.734	558.25
1053.827	551.25
1058.915	543.92
1063.998	544.25
1069.075	548.92
1074.147	544.25
1079.214	549.25
1084.276	551.92
1089.333	555.92
1094.385	564.92
1099.431	564.25
1104.472	559.92
1109.509	552.58
1114.54	554.92
1119.565	541.92
1124.586	539.25
1129.602	536.92
1134.613	531.58
1139.618	525.25
1144.619	532.25
1149.614	529.58
1154.604	535.58
1159.589	532.92
1164.57	537.58
1169.545	539.25
1174.515	538.92
1179.48	541.25
1184.44	535.58
1189.395	527.58
1194.345	527.92
1199.29	530.58
1204.23	530.25
1209.165	529.92
1214.095	532.92
1219.021	536.92
1223.941	543.58
1228.856	547.25
1233.766	552.58
1238.672	545.58
1243.572	553.58
1248.467	549.58
1253.358	539.92
1258.244	538.25
1263.124	523.25
1268	521.58
1272.871	510.25
1277.737	508.92
1282.599	514.92
1287.455	512.58
1292.306	514.58
1297.153	516.58
1301.995	517.25
1306.832	522.25
1311.664	521.92
1316.491	523.92
1321.314	521.25
1326.132	511.58
1330.945	503.25
1335.753	501.25
1340.556	490.92
1345.354	490.25
1350.148	497.58
1354.937	484.92
1359.722	490.25
1364.501	490.25
1369.276	489.25
1374.046	490.25
1378.811	491.58
1383.572	497.25
1388.327	492.58
1393.079	490.92
1397.825	493.58
1402.567	473.58
1407.304	468.58
1412.036	467.92
1416.764	471.58
1421.487	465.25
1426.205	461.58
1430.919	464.92
1435.628	472.92
1440.333	477.92
1445.032	485.25
1449.727	491.25
1454.418	491.25
1459.104	496.58
1463.785	492.25
1468.462	488.25
1473.134	480.58
1477.802	474.92
1482.465	472.58
1487.123	471.58
1491.777	479.25
1496.426	480.58
1501.071	481.25
1505.711	495.58
1510.347	494.58
1514.978	500.92
1519.604	499.25
1524.226	504.25
1528.844	501.25
1533.457	497.25
1538.065	504.92
1542.669	502.58
1547.269	503.92
1551.864	497.25
1556.454	499.58
1561.041	508.92
1565.622	506.92
1570.199	511.58
1574.772	511.58
1579.34	525.25
1583.904	525.25
1588.464	537.58
1593.019	543.58
1597.569	545.25
1602.115	543.58
1606.657	550.58
1611.195	548.25
1615.728	553.25
1620.256	559.92
1624.78	568.58
1629.3	574.25
1633.816	578.58
1638.327	587.92
1642.834	598.58
1647.336	603.92
1651.834	608.25
1656.328	601.92
1660.817	600.58
1665.302	590.58
1669.783	581.58
1674.259	567.58
1678.732	557.92
1683.199	545.92
1687.663	528.25
1692.122	501.92
1696.577	495.92
1701.028	495.92
1705.474	476.58
1709.917	473.25
1714.355	464.25
1718.788	452.92
1723.218	445.58
1727.643	432.58
1732.064	426.92
1736.481	417.58
1740.893	404.25
1745.301	397.92
1749.705	390.92
1754.105	378.92
1758.501	367.92
1762.893	366.58
1767.28	369.25
1771.663	359.25
1776.042	357.58
1780.417	360.25
1784.787	362.58
1789.154	365.25
1793.516	369.25
1797.874	368.25
1802.228	372.58
1806.578	366.92
1810.924	365.92
1815.266	361.58
1819.603	355.25
1823.937	350.92
1828.266	345.92
1832.591	345.25
1836.913	335.92
1841.23	337.25
1845.543	338.58
1849.852	338.92
1854.156	338.58
1858.457	332.92
1862.754	338.58
1867.047	338.58
1871.335	336.58
1875.62	344.25
1879.9	342.92
1884.177	347.25
1888.449	344.25
1892.718	339.58
1896.982	335.92
1901.243	339.92
1905.499	342.25
1909.752	340.92
1914	338.25
1918.245	337.92
1922.485	343.92
1926.722	344.58
1930.954	349.25
1935.183	349.58
1939.408	354.25
1943.628	353.25
1947.845	353.25
1952.058	349.25
1956.267	349.25
1960.472	348.25
1964.673	337.58
1968.87	338.58
1973.063	326.92
1977.252	331.92
1981.438	327.58
1985.619	329.58
1989.797	325.58
1993.971	324.92
1998.14	327.58
2002.306	328.58
2006.469	330.25
2010.627	330.25
2014.781	327.25
2018.932	327.92
2023.078	327.25
2027.221	325.58
2031.36	318.58
2035.495	322.25
2039.627	315.92
2043.754	314.58
2047.878	318.25
2051.998	314.92
2056.114	317.58
2060.226	315.92
2064.334	326.25
2068.439	319.92
2072.54	324.58
2076.637	324.92
2080.73	327.92
2084.82	324.92
2088.906	329.58
2092.988	327.25
2097.066	328.25
2101.14	325.58
2105.211	323.58
2109.278	322.58
2113.342	320.25
2117.401	320.58
2121.457	313.92
2125.509	317.58
2129.558	310.25
2133.602	311.92
2137.643	311.25
2141.681	308.58
2145.714	304.25
2149.744	301.25
2153.77	303.58
2157.793	302.92
2161.812	299.92
2165.827	294.92
2169.838	290.58
2173.846	290.92
2177.851	278.92
2181.851	281.92
2185.848	273.58
2189.841	270.25
2193.831	276.92
2197.817	274.58
2201.799	272.58
2205.778	269.92
2209.753	264.92
2213.725	270.25
2217.693	270.92
2221.657	270.25
2225.618	265.92
2229.575	267.92
2233.529	267.25
2237.479	259.92
2241.425	262.92
2245.368	254.92
2249.307	253.25
2253.243	247.58
2257.175	252.58
2261.104	246.58
2265.029	239.58
2268.95	243.25
2272.868	241.25
2276.783	237.25
2280.694	237.58
2284.601	229.58
2288.505	235.25
2292.405	224.92
2296.302	222.25
2300.195	219.92
2304.085	217.58
2307.971	214.92
2311.854	210.25
2315.734	207.92
2319.609	207.25
2323.482	200.58
2327.351	197.92
2331.216	198.58
2335.078	201.25
2338.937	199.92
2342.792	193.92
2346.643	191.58
2350.492	201.25
2354.336	190.92
2358.178	194.25
2362.015	193.25
2365.85	196.25
2369.681	193.25
2373.508	192.58
2377.333	193.92
2381.153	190.92
2384.971	196.58
2388.785	193.25
2392.595	188.25
2396.402	189.25
2400.206	185.92
2404.007	187.92
2407.804	181.58
2411.597	179.25
2415.388	182.58
2419.174	185.92
2422.958	184.25
2426.738	179.58
2430.515	180.58
2434.289	182.25
2438.059	181.92
2441.825	175.92
2445.589	176.58
2449.349	175.92
2453.106	174.58
2456.859	174.92
2460.61	170.58
2464.356	172.25
2468.1	169.58
2471.84	168.25
2475.577	168.92
2479.311	166.92
2483.041	166.58
2486.768	168.25
2490.492	168.25
2494.213	165.25
2497.93	167.92
2501.644	162.25
2505.355	169.25
2509.062	169.92
2512.766	167.58
2516.467	164.25
2520.165	166.25
2523.859	158.25
2527.551	163.58
2531.239	163.25
2534.923	166.58
2538.605	162.25
2542.283	159.58
2545.958	161.25
2549.63	161.25
2553.299	160.58
2556.964	157.58
2560.626	154.58
2564.285	158.92
2567.941	154.58
2571.594	154.25
2575.243	153.92
2578.89	151.58
2582.533	149.92
2586.173	151.58
2589.809	149.58
2593.443	147.25
2597.073	144.58
2600.701	146.58
2604.325	143.92
2607.946	146.25
2611.564	145.58
2615.178	144.58
2618.79	143.92
2622.398	147.92
2626.004	144.25
2629.606	144.58
2633.205	140.58
2636.801	135.58
2640.394	136.92
2643.983	136.25
2647.57	135.25
2651.153	132.25
2654.734	130.25
2658.311	131.25
2661.885	128.58
2665.456	127.58
2669.025	124.58
2672.589	125.92
2676.151	125.58
2679.71	126.25
2683.266	120.92
2686.819	121.92
2690.368	118.92
2693.915	120.58
2697.458	117.58
2700.999	116.25
2704.536	114.25
2708.071	111.25
2711.602	111.25
2715.13	114.58
2718.656	114.25
2722.178	115.92
2725.697	113.25
2729.214	114.92
2732.727	114.58
2736.237	114.58
2739.744	114.92
2743.249	116.58
2746.75	112.58
2750.248	114.92
2753.743	115.58
2757.236	112.92
2760.725	112.25
2764.211	114.58
2767.695	113.92
2771.175	111.58
2774.652	110.58
2778.127	112.58
2781.598	110.58
2785.067	110.92
2788.532	109.92
2791.995	110.92
2795.455	114.58
2798.911	108.92
2802.365	114.25
2805.816	111.58
2809.264	112.58
2812.709	109.92
2816.151	107.58
2819.59	106.58
2823.026	108.92
2826.46	111.25
2829.89	110.58
2833.318	108.58
2836.742	109.92
2840.164	107.92
2843.583	108.92
2846.999	110.92
2850.412	107.92
2853.822	111.25
2857.229	114.58
2860.634	115.92
2864.035	118.92
2867.434	120.92
2870.83	126.25
2874.223	122.92
2877.613	122.58
2881	119.92
2884.385	123.92
2887.766	120.58
2891.145	121.58
2894.521	121.58
2897.894	123.92
2901.264	122.58
2904.631	121.92
2907.996	122.25
2911.358	122.25
2914.717	117.58
2918.073	121.58
2921.426	127.58
2924.777	126.58
2928.124	128.58
2931.469	135.25
2934.811	134.92
2938.15	142.92
2941.487	143.92
2944.821	141.58
2948.152	140.92
2951.48	141.92
2954.805	141.92
2958.128	141.58
2961.447	144.92
2964.765	142.92
2968.079	150.92
2971.39	147.25
2974.699	153.58
2978.005	157.25
2981.308	154.92
2984.609	160.92
2987.907	163.58
2991.202	165.58
2994.494	169.25
2997.784	171.92
3001.07	177.25
3004.355	182.25
3007.636	186.92
3010.915	187.58
3014.191	191.25
3017.464	191.92
3020.734	191.25
3024.002	196.25
3027.267	198.25
3030.53	202.58
3033.789	206.25
3037.046	206.92
3040.301	214.58
3043.552	215.92
3046.801	217.58
3050.048	224.92
3053.291	229.92
3056.532	237.92
3059.771	238.92
3063.006	251.58
3066.239	252.25
3069.469	260.58
3072.697	269.92
3075.922	276.58
3079.144	286.25
3082.364	291.92
3085.581	293.92
3088.795	304.92
3092.007	312.92
3095.216	308.25
3098.423	318.58
3101.627	325.92
3104.828	333.58
3108.026	341.58
3111.222	353.25
3114.416	353.25
3117.607	364.92
3120.795	363.58
3123.98	374.58
3127.163	385.92
3130.344	394.92
3133.521	402.92
3136.696	412.58
3139.869	427.25
3143.039	428.25
3146.206	428.25
3149.371	436.58
3152.533	440.92
3155.693	443.25
3158.85	442.25
3162.005	449.92
3165.157	455.58
3168.306	452.58
3171.453	457.25
3174.597	454.58
3177.739	455.25
3180.878	459.58
3184.014	460.58
3187.149	463.58
3190.28	467.25
3193.409	467.92
3196.536	467.58
3199.659	470.92
3202.781	471.58
3205.9	469.25
3209.016	468.25
3212.13	470.58
3215.241	470.92
3218.35	460.58
3221.456	462.25
3224.56	456.25
3227.661	450.92
3230.76	440.25
3233.856	443.25
3236.95	438.58
3240.041	437.92
3243.13	433.58
3246.216	427.25
3249.3	430.25
3252.382	422.58
3255.46	421.58
3258.537	428.92
3261.611	419.92
3264.682	417.58
3267.751	415.25
3270.818	422.58
3273.882	416.92
3276.943	410.25
3280.002	415.25
3283.059	410.58
3286.113	400.58
3289.165	396.92
3292.214	393.58
3295.261	383.58
3298.306	383.92
3301.348	373.58
3304.387	361.92
3307.425	361.92
3310.459	360.25
3313.492	352.25
3316.521	349.58
3319.549	343.58
3322.574	336.92
3325.597	338.58
3328.617	333.58
3331.635	334.92
3334.65	330.92
3337.663	327.58
3340.674	329.25
3343.682	327.58
3346.688	326.92
3349.691	329.92
3352.692	320.92
3355.691	318.92
3358.687	314.58
3361.681	310.25
3364.673	309.25
3367.662	307.25
3370.649	299.58
3373.633	296.92
3376.615	295.58
3379.595	296.58
3382.572	284.58
3385.547	280.92
3388.52	277.25
3391.49	274.25
3394.458	272.25
3397.424	266.58
3400.387	264.25
3403.348	262.92
3406.307	257.92
3409.263	255.92
3412.217	255.58
3415.168	249.58
3418.118	252.58
3421.065	248.92
3424.009	243.58
3426.951	245.25
3429.891	234.25
3432.829	235.25
3435.764	221.92
3438.697	226.58
3441.628	219.25
3444.557	213.58
3447.483	208.92
3450.407	201.25
3453.328	191.92
3456.247	192.92
3459.164	185.92
3462.079	180.25
3464.991	175.25
3467.902	169.58
3470.809	166.92
3473.715	158.25
3476.618	154.25
3479.519	147.25
3482.418	144.92
3485.315	138.25
3488.209	136.58
3491.101	133.58
3493.99	133.58
3496.878	129.58
3499.763	124.92
3502.646	120.92
3505.527	115.58
3508.405	112.58
3511.281	101.92
3514.155	101.25
3517.027	98.58
3519.897	93.92
3522.764	89.92
3525.629	85.25
3528.492	81.25
3531.352	74.25
3534.211	72.58
3537.067	68.92
3539.921	56.25
3542.773	56.92
3545.622	55.25
3548.469	48.92
3551.315	48.25
3554.157	44.92
3556.998	42.25
3559.837	39.92
3562.673	40.25
3565.507	33.92
3568.339	34.25
3571.169	28.92
3573.996	28.92
3576.822	26.58
3579.645	23.92
3582.466	20.25
3585.285	18.92
3588.101	16.25
3590.916	15.92
3593.728	12.58
3596.538	7.58
3599.346	6.58
3602.152	7.92
3604.956	0.58
3607.757	2.92
3610.556	0.25
3613.354	1.25
3616.149	-1.08
3618.942	-5.75
3621.732	-5.42
3624.521	-6.75
3627.307	-7.75
3630.092	-6.75
3632.874	-7.75
3635.654	-8.75
3638.432	-9.08
3641.208	-10.42
3643.982	-14.42
3646.753	-13.75
3649.523	-15.08
3652.29	-16.08
3655.055	-18.75
3657.818	-19.08
3660.579	-22.42
3663.338	-19.42
3666.095	-22.75
3668.849	-22.08
3671.602	-23.75
3674.352	-22.42
3677.101	-24.42
3679.847	-24.75
3682.591	-27.08
3685.333	-27.42
3688.073	-27.75
3690.811	-27.42
3693.547	-30.08
3696.281	-29.08
3699.013	-27.75
3701.742	-28.42
3704.47	-30.75
3707.195	-30.08
3709.919	-32.75
3712.64	-34.75
3715.359	-33.08
3718.076	-32.75
3720.792	-33.42
3723.505	-32.08
3726.216	-33.08
3728.925	-34.08
3731.632	-33.75
3734.336	-34.75
3737.039	-34.75
3739.74	-36.75
3742.439	-35.08
3745.136	-36.08
3747.83	-34.08
3750.523	-36.75
3753.213	-37.75
3755.902	-34.42
3758.589	-35.75
3761.273	-38.75
3763.956	-36.08
3766.636	-35.75
3769.315	-38.75
3771.991	-39.42
3774.665	-39.42
3777.338	-41.08
3780.008	-36.75
3782.677	-37.75
3785.343	-37.08
3788.007	-34.42
3790.67	-39.42
3793.33	-38.42
3795.989	-40.08
3798.645	-40.08
3801.299	-38.75
3803.952	-39.08
3806.602	-40.75
3809.251	-39.08
3811.897	-39.08
3814.542	-40.42
3817.184	-39.42
3819.825	-41.08
3822.463	-42.08
3825.1	-41.42
3827.735	-41.42
3830.367	-42.08
3832.998	-41.42
3835.627	-39.08
3838.253	-41.08
3840.878	-39.08
3843.501	-42.42
3846.122	-41.75
3848.741	-41.75
3851.358	-43.08
3853.973	-42.42
3856.586	-41.08
3859.197	-43.42
3861.806	-40.75
3864.414	-40.08
3867.019	-41.08
3869.622	-41.42
3872.224	-40.42
3874.823	-38.75
3877.421	-40.42
3880.016	-39.08
3882.61	-37.42
3885.202	-34.75
3887.792	-37.42
3890.38	-39.08
3892.966	-40.42
3895.55	-38.75
3898.132	-41.08
3900.713	-42.08
3903.291	-42.75
3905.868	-43.42
3908.442	-41.75
3911.015	-42.42
3913.586	-41.42
3916.155	-41.75
3918.722	-41.75
3921.287	-41.75
3923.85	-39.75
3926.411	-44.42
3928.971	-43.08
3931.528	-44.08
3934.084	-44.75
3936.638	-42.75
3939.19	-42.75
3941.74	-44.08
3944.288	-43.08
3946.834	-44.42
3949.378	-42.75
3951.921	-43.08
3954.462	-42.75
3957	-42.08
3959.537	-42.42
3962.072	-43.75
3964.606	-42.42
3967.137	-42.08
3969.667	-42.42
3972.194	-42.75
3974.72	-40.42
3977.244	-42.75
3979.766	-43.42
3982.286	-44.08
3984.805	-44.08
3987.321	-44.08
3989.836	-42.42
3992.349	-44.42
3994.86	-41.08
3997.369	-42.75
3999.877	-42.08
4002.382	-41.08
4004.886	-42.42
4007.388	-44.42
4009.888	-43.08
4012.386	-40.75
4014.883	-42.08
4017.377	-40.42
4019.87	-42.08
4022.361	-41.42
4024.85	-40.75
4027.338	-42.42
4029.823	-43.08
4032.307	-42.08
4034.789	-44.08
4037.269	-44.42
4039.747	-45.08
4042.224	-42.75
4044.699	-44.08
4047.172	-40.75
4049.643	-42.42
4052.112	-40.42
4054.58	-42.42
4057.046	-42.75
4059.51	-42.75
4061.972	-43.08
4064.432	-43.08
4066.891	-42.75
4069.348	-42.42
4071.803	-42.08
4074.256	-41.75
4076.708	-42.75
4079.158	-41.75
4081.606	-43.42
4084.052	-43.08
4086.497	-44.42
4088.939	-42.75
4091.38	-43.08
4093.819	-41.08
4096.257	-43.42
4098.693	-43.42
4101.127	-44.75
4103.559	-44.08
4105.989	-28.75
4108.418	-25.75
4110.845	-27.08
4113.27	-22.75
4115.694	-21.75
4118.115	-15.75
4120.535	-41.42
4122.954	-44.08
4125.37	-41.75
4127.785	-42.42
4130.198	-42.75
4132.609	-42.75
4135.019	-43.75
4137.427	-45.08
4139.833	-44.75
4142.237	-44.08
