Data from ice_water_5s_RamanShift_1.txt Node
Date: Mon Mar 27 11:06:15 IDT 2017
User: aro
Spectrometer: QEPB0276
Trigger mode: 0
Integration Time (sec): 5.000000E0
Scans to average: 3
Electric dark correction enabled: true
Nonlinearity correction enabled: false
Boxcar width: 0
XAxis mode: Raman Shifts
Number of Pixels in Spectrum: 1044
>>>>>Begin Spectral Data<<<<<
160.701	-26.42
166.742	0.25
172.777	87.25
178.805	356.58
184.826	1022.25
190.841	2144.25
196.849	3410.25
202.85	4191.58
208.845	4364.92
214.833	4233.25
220.815	4117.58
226.789	4020.58
232.758	3961.58
238.719	3882.25
244.674	3755.92
250.623	3634.58
256.565	3509.92
262.5	3383.92
268.429	3272.58
274.351	3180.58
280.267	3080.92
286.176	3020.92
292.079	2945.25
297.975	2858.92
303.865	2796.25
309.748	2721.92
315.625	2667.92
321.495	2599.58
327.359	2545.58
333.217	2532.92
339.068	2508.25
344.912	2471.25
350.751	2458.58
356.583	2435.92
362.408	2441.92
368.227	2420.58
374.04	2431.58
379.847	2416.58
385.647	2426.25
391.44	2419.92
397.228	2444.58
403.009	2440.92
408.784	2442.58
414.553	2450.25
420.315	2439.58
426.071	2469.58
431.821	2443.92
437.565	2452.92
443.302	2451.92
449.033	2445.58
454.758	2426.58
460.477	2423.58
466.189	2424.58
471.896	2411.58
477.596	2393.58
483.29	2385.25
488.978	2382.25
494.66	2362.25
500.335	2350.58
506.005	2312.92
511.668	2276.92
517.325	2246.25
522.977	2219.92
528.622	2194.25
534.261	2182.92
539.894	2159.92
545.521	2157.92
551.141	2154.25
556.756	2147.58
562.365	2136.58
567.968	2132.92
573.565	2129.25
579.155	2118.58
584.74	2107.58
590.319	2104.58
595.892	2082.25
601.459	2081.25
607.02	2071.58
612.575	2049.92
618.124	2030.92
623.667	2023.58
629.204	2007.92
634.735	2004.25
640.261	1994.92
645.781	1976.92
651.294	1974.58
656.802	1974.58
662.304	1969.58
667.8	1960.92
673.29	1964.58
678.775	1953.25
684.254	1948.58
689.726	1943.25
695.193	1942.58
700.655	1931.25
706.11	1920.25
711.56	1914.25
717.004	1899.58
722.442	1898.58
727.874	1888.58
733.301	1891.92
738.722	1882.92
744.137	1875.25
749.547	1874.58
754.951	1885.58
760.349	1882.58
765.741	1897.25
771.128	1891.58
776.509	1891.92
781.885	1887.92
787.254	1884.92
792.618	1887.92
797.977	1877.58
803.33	1868.25
808.677	1859.25
814.019	1853.92
819.355	1839.92
824.686	1828.58
830.011	1815.92
835.33	1815.25
840.644	1820.92
845.952	1828.25
851.255	1826.25
856.552	1824.25
861.844	1826.92
867.13	1826.58
872.41	1843.25
877.686	1853.25
882.955	1863.58
888.219	1827.92
893.478	1791.92
898.731	1756.25
903.979	1731.25
909.221	1719.92
914.458	1711.58
919.69	1708.25
924.916	1709.25
930.136	1712.25
935.351	1724.92
940.561	1714.92
945.766	1714.58
950.965	1715.25
956.158	1690.25
961.347	1689.58
966.529	1666.25
971.707	1648.25
976.879	1643.92
982.046	1626.58
987.208	1625.92
992.364	1624.25
997.515	1640.58
1002.66	1653.92
1007.801	1669.92
1012.936	1682.25
1018.066	1695.58
1023.19	1716.58
1028.309	1718.25
1033.423	1722.58
1038.532	1718.25
1043.636	1709.58
1048.734	1704.58
1053.827	1692.25
1058.915	1675.25
1063.998	1657.92
1069.075	1661.58
1074.147	1654.25
1079.214	1681.25
1084.276	1691.58
1089.333	1701.25
1094.385	1721.92
1099.431	1730.58
1104.472	1728.58
1109.509	1722.25
1114.54	1699.25
1119.565	1684.58
1124.586	1666.58
1129.602	1661.25
1134.613	1639.25
1139.618	1643.25
1144.619	1642.25
1149.614	1648.58
1154.604	1663.92
1159.589	1668.92
1164.57	1667.92
1169.545	1683.92
1174.515	1682.58
1179.48	1668.92
1184.44	1657.25
1189.395	1655.25
1194.345	1654.25
1199.29	1647.25
1204.23	1651.92
1209.165	1664.25
1214.095	1664.58
1219.021	1679.25
1223.941	1712.58
1228.856	1718.25
1233.766	1719.25
1238.672	1729.58
1243.572	1718.25
1248.467	1716.92
1253.358	1695.58
1258.244	1677.58
1263.124	1660.25
1268	1633.25
1272.871	1619.25
1277.737	1607.58
1282.599	1622.58
1287.455	1614.58
1292.306	1627.58
1297.153	1630.92
1301.995	1663.25
1306.832	1665.58
1311.664	1677.58
1316.491	1672.25
1321.314	1675.25
1326.132	1655.58
1330.945	1650.92
1335.753	1621.92
1340.556	1606.92
1345.354	1589.58
1350.148	1582.58
1354.937	1571.92
1359.722	1577.92
1364.501	1577.92
1369.276	1570.58
1374.046	1571.92
1378.811	1578.25
1383.572	1579.92
1388.327	1574.25
1393.079	1566.92
1397.825	1549.25
1402.567	1527.58
1407.304	1521.58
1412.036	1520.25
1416.764	1507.58
1421.487	1518.58
1426.205	1526.25
1430.919	1525.92
1435.628	1545.92
1440.333	1559.25
1445.032	1572.25
1449.727	1602.25
1454.418	1609.58
1459.104	1617.25
1463.785	1602.92
1468.462	1586.25
1473.134	1564.92
1477.802	1549.92
1482.465	1553.25
1487.123	1551.58
1491.777	1564.25
1496.426	1558.25
1501.071	1573.92
1505.711	1587.92
1510.347	1600.25
1514.978	1611.58
1519.604	1622.25
1524.226	1636.92
1528.844	1636.58
1533.457	1631.58
1538.065	1639.92
1542.669	1619.58
1547.269	1610.92
1551.864	1614.92
1556.454	1609.58
1561.041	1607.25
1565.622	1615.92
1570.199	1626.58
1574.772	1646.25
1579.34	1674.92
1583.904	1688.25
1588.464	1698.92
1593.019	1701.92
1597.569	1712.58
1602.115	1717.25
1606.657	1711.92
1611.195	1706.58
1615.728	1712.58
1620.256	1734.92
1624.78	1736.58
1629.3	1753.25
1633.816	1765.25
1638.327	1783.25
1642.834	1816.58
1647.336	1832.92
1651.834	1849.58
1656.328	1840.92
1660.817	1835.25
1665.302	1824.92
1669.783	1803.25
1674.259	1768.25
1678.732	1746.58
1683.199	1697.92
1687.663	1661.58
1692.122	1619.58
1696.577	1572.92
1701.028	1552.25
1705.474	1521.58
1709.917	1492.25
1714.355	1483.58
1718.788	1471.25
1723.218	1455.92
1727.643	1438.92
1732.064	1411.58
1736.481	1393.92
1740.893	1371.25
1745.301	1341.92
1749.705	1311.92
1754.105	1296.25
1758.501	1270.58
1762.893	1257.92
1767.28	1251.92
1771.663	1246.25
1776.042	1239.25
1780.417	1249.58
1784.787	1247.58
1789.154	1266.58
1793.516	1272.92
1797.874	1277.58
1802.228	1283.25
1806.578	1270.92
1810.924	1268.58
1815.266	1244.25
1819.603	1235.58
1823.937	1224.25
1828.266	1198.92
1832.591	1196.92
1836.913	1197.92
1841.23	1191.58
1845.543	1187.58
1849.852	1181.25
1854.156	1186.92
1858.457	1194.92
1862.754	1191.58
1867.047	1201.58
1871.335	1196.58
1875.62	1207.58
1879.9	1208.92
1884.177	1210.58
1888.449	1210.58
1892.718	1206.25
1896.982	1199.25
1901.243	1192.92
1905.499	1195.25
1909.752	1192.58
1914	1198.58
1918.245	1203.92
1922.485	1199.92
1926.722	1205.92
1930.954	1205.92
1935.183	1211.25
1939.408	1215.92
1943.628	1224.25
1947.845	1217.58
1952.058	1217.58
1956.267	1223.92
1960.472	1205.25
1964.673	1186.25
1968.87	1180.58
1973.063	1161.25
1977.252	1157.25
1981.438	1153.58
1985.619	1150.25
1989.797	1146.92
1993.971	1150.25
1998.14	1146.58
2002.306	1151.92
2006.469	1154.92
2010.627	1154.58
2014.781	1156.25
2018.932	1151.92
2023.078	1144.25
2027.221	1136.92
2031.36	1134.25
2035.495	1119.58
2039.627	1109.58
2043.754	1111.58
2047.878	1097.92
2051.998	1099.25
2056.114	1097.25
2060.226	1107.25
2064.334	1113.58
2068.439	1109.92
2072.54	1113.25
2076.637	1123.92
2080.73	1124.58
2084.82	1124.25
2088.906	1129.25
2092.988	1130.58
2097.066	1124.92
2101.14	1109.58
2105.211	1114.92
2109.278	1107.92
2113.342	1098.25
2117.401	1099.92
2121.457	1088.92
2125.509	1083.25
2129.558	1084.25
2133.602	1080.92
2137.643	1075.58
2141.681	1081.58
2145.714	1073.92
2149.744	1061.58
2153.77	1056.92
2157.793	1051.25
2161.812	1039.25
2165.827	1026.58
2169.838	1031.58
2173.846	999.25
2177.851	989.25
2181.851	986.58
2185.848	970.25
2189.841	966.92
2193.831	964.25
2197.817	963.25
2201.799	956.92
2205.778	947.25
2209.753	961.25
2213.725	952.25
2217.693	952.58
2221.657	962.25
2225.618	953.25
2229.575	946.25
2233.529	947.25
2237.479	941.25
2241.425	937.25
2245.368	924.92
2249.307	912.92
2253.243	902.25
2257.175	900.92
2261.104	886.92
2265.029	880.58
2268.95	866.92
2272.868	861.92
2276.783	854.92
2280.694	845.92
2284.601	835.25
2288.505	827.58
2292.405	816.58
2296.302	811.25
2300.195	804.92
2304.085	799.25
2307.971	783.25
2311.854	777.25
2315.734	756.58
2319.609	752.58
2323.482	741.25
2327.351	737.58
2331.216	734.58
2335.078	724.58
2338.937	715.25
2342.792	711.58
2346.643	716.58
2350.492	713.25
2354.336	711.25
2358.178	715.92
2362.015	721.25
2365.85	715.92
2369.681	716.92
2373.508	726.92
2377.333	725.25
2381.153	722.92
2384.971	715.58
2388.785	712.58
2392.595	701.92
2396.402	703.92
2400.206	700.92
2404.007	698.92
2407.804	698.58
2411.597	689.25
2415.388	691.25
2419.174	691.25
2422.958	690.25
2426.738	685.25
2430.515	680.58
2434.289	682.92
2438.059	678.25
2441.825	672.58
2445.589	673.92
2449.349	661.92
2453.106	660.25
2456.859	656.92
2460.61	653.92
2464.356	649.58
2468.1	646.25
2471.84	639.92
2475.577	636.25
2479.311	642.92
2483.041	634.92
2486.768	635.58
2490.492	635.25
2494.213	643.25
2497.93	641.25
2501.644	642.58
2505.355	645.25
2509.062	639.58
2512.766	634.92
2516.467	633.92
2520.165	630.25
2523.859	619.92
2527.551	624.25
2531.239	618.25
2534.923	613.25
2538.605	616.58
2542.283	610.25
2545.958	602.58
2549.63	603.92
2553.299	603.58
2556.964	605.58
2560.626	595.58
2564.285	597.58
2567.941	587.92
2571.594	588.92
2575.243	581.58
2578.89	582.25
2582.533	582.92
2586.173	575.25
2589.809	571.92
2593.443	568.25
2597.073	559.58
2600.701	557.92
2604.325	561.25
2607.946	560.25
2611.564	553.25
2615.178	558.58
2618.79	556.58
2622.398	559.92
2626.004	547.58
2629.606	538.92
2633.205	534.25
2636.801	523.25
2640.394	531.92
2643.983	523.92
2647.57	525.92
2651.153	517.25
2654.734	511.58
2658.311	498.92
2661.885	506.25
2665.456	499.58
2669.025	493.92
2672.589	484.25
2676.151	487.92
2679.71	484.58
2683.266	470.92
2686.819	468.58
2690.368	470.92
2693.915	463.25
2697.458	463.25
2700.999	456.92
2704.536	452.58
2708.071	439.25
2711.602	443.25
2715.13	435.58
2718.656	431.25
2722.178	434.58
2725.697	437.25
2729.214	434.25
2732.727	442.25
2736.237	444.92
2739.744	441.58
2743.249	443.92
2746.75	446.25
2750.248	447.25
2753.743	444.92
2757.236	442.92
2760.725	440.92
2764.211	437.25
2767.695	432.92
2771.175	427.92
2774.652	431.25
2778.127	425.58
2781.598	423.25
2785.067	418.58
2788.532	412.58
2791.995	418.25
2795.455	415.25
2798.911	414.25
2802.365	417.25
2805.816	411.92
2809.264	413.58
2812.709	409.92
2816.151	406.92
2819.59	407.58
2823.026	406.92
2826.46	404.58
2829.89	404.25
2833.318	403.25
2836.742	403.58
2840.164	403.92
2843.583	405.25
2846.999	405.25
2850.412	404.25
2853.822	411.25
2857.229	412.92
2860.634	415.25
2864.035	415.92
2867.434	424.92
2870.83	422.58
2874.223	425.25
2877.613	423.25
2881	427.92
2884.385	424.25
2887.766	419.25
2891.145	422.25
2894.521	415.92
2897.894	411.58
2901.264	416.92
2904.631	409.58
2907.996	416.25
2911.358	416.25
2914.717	415.25
2918.073	408.92
2921.426	411.92
2924.777	413.25
2928.124	426.92
2931.469	430.92
2934.811	441.25
2938.15	436.25
2941.487	433.92
2944.821	444.58
2948.152	449.92
2951.48	442.58
2954.805	443.58
2958.128	448.25
2961.447	441.25
2964.765	442.25
2968.079	449.25
2971.39	451.92
2974.699	454.25
2978.005	462.58
2981.308	474.92
2984.609	481.58
2987.907	485.25
2991.202	498.25
2994.494	502.25
2997.784	506.25
3001.07	523.58
3004.355	535.92
3007.636	535.58
3010.915	544.25
3014.191	544.25
3017.464	546.58
3020.734	546.25
3024.002	547.92
3027.267	553.92
3030.53	555.92
3033.789	566.92
3037.046	565.92
3040.301	574.25
3043.552	588.25
3046.801	597.92
3050.048	607.58
3053.291	616.92
3056.532	629.92
3059.771	645.58
3063.006	657.25
3066.239	676.58
3069.469	686.25
3072.697	710.58
3075.922	721.25
3079.144	738.92
3082.364	756.25
3085.581	762.58
3088.795	780.92
3092.007	798.25
3095.216	803.92
3098.423	817.58
3101.627	836.58
3104.828	854.92
3108.026	861.25
3111.222	882.58
3114.416	896.58
3117.607	916.92
3120.795	940.25
3123.98	949.92
3127.163	968.92
3130.344	980.92
3133.521	1005.58
3136.696	1027.58
3139.869	1045.25
3143.039	1063.58
3146.206	1074.58
3149.371	1078.58
3152.533	1084.58
3155.693	1098.92
3158.85	1101.25
3162.005	1109.92
3165.157	1105.92
3168.306	1122.58
3171.453	1119.92
3174.597	1107.92
3177.739	1114.58
3180.878	1110.92
3184.014	1113.25
3187.149	1124.92
3190.28	1126.92
3193.409	1118.92
3196.536	1130.25
3199.659	1125.92
3202.781	1139.58
3205.9	1134.25
3209.016	1135.25
3212.13	1126.25
3215.241	1125.92
3218.35	1123.25
3221.456	1111.25
3224.56	1097.58
3227.661	1087.25
3230.76	1074.92
3233.856	1073.25
3236.95	1058.92
3240.041	1053.25
3243.13	1050.25
3246.216	1041.92
3249.3	1027.25
3252.382	1031.58
3255.46	1020.58
3258.537	1013.58
3261.611	1020.25
3264.682	1013.58
3267.751	1007.58
3270.818	1000.58
3273.882	996.25
3276.943	990.25
3280.002	979.25
3283.059	967.58
3286.113	962.25
3289.165	943.25
3292.214	930.92
3295.261	915.58
3298.306	904.92
3301.348	882.92
3304.387	868.25
3307.425	857.58
3310.459	847.58
3313.492	834.25
3316.521	826.58
3319.549	814.25
3322.574	809.92
3325.597	799.58
3328.617	794.58
3331.635	790.25
3334.65	780.25
3337.663	774.92
3340.674	771.25
3343.682	774.92
3346.688	768.92
3349.691	760.58
3352.692	762.25
3355.691	749.92
3358.687	742.58
3361.681	737.92
3364.673	734.25
3367.662	716.92
3370.649	708.58
3373.633	701.92
3376.615	687.25
3379.595	683.58
3382.572	673.58
3385.547	666.58
3388.52	653.58
3391.49	641.58
3394.458	633.58
3397.424	631.25
3400.387	622.92
3403.348	617.58
3406.307	604.25
3409.263	603.58
3412.217	594.92
3415.168	589.25
3418.118	579.92
3421.065	579.25
3424.009	571.92
3426.951	561.25
3429.891	548.58
3432.829	540.25
3435.764	531.25
3438.697	522.58
3441.628	509.58
3444.557	501.58
3447.483	488.25
3450.407	469.92
3453.328	451.92
3456.247	448.58
3459.164	432.92
3462.079	421.25
3464.991	408.58
3467.902	397.25
3470.809	386.58
3473.715	373.25
3476.618	361.25
3479.519	350.25
3482.418	339.25
3485.315	327.25
3488.209	321.92
3491.101	316.25
3493.99	307.58
3496.878	296.58
3499.763	292.58
3502.646	283.92
3505.527	268.92
3508.405	262.25
3511.281	242.92
3514.155	232.25
3517.027	230.58
3519.897	217.25
3522.764	206.58
3525.629	195.92
3528.492	186.58
3531.352	179.25
3534.211	165.58
3537.067	152.25
3539.921	143.58
3542.773	140.58
3545.622	133.58
3548.469	121.58
3551.315	112.92
3554.157	105.25
3556.998	100.92
3559.837	96.25
3562.673	91.25
3565.507	80.92
3568.339	79.92
3571.169	69.25
3573.996	64.92
3576.822	63.58
3579.645	58.25
3582.466	53.58
3585.285	49.25
3588.101	43.58
3590.916	36.25
3593.728	34.25
3596.538	26.58
3599.346	24.92
3602.152	19.25
3604.956	10.58
3607.757	8.25
3610.556	4.25
3613.354	3.58
3616.149	0.92
3618.942	-0.08
3621.732	-7.75
3624.521	-10.42
3627.307	-10.75
3630.092	-15.75
3632.874	-16.75
3635.654	-20.75
3638.432	-22.75
3641.208	-22.42
3643.982	-29.42
3646.753	-29.75
3649.523	-32.75
3652.29	-34.42
3655.055	-37.75
3657.818	-40.42
3660.579	-39.08
3663.338	-42.08
3666.095	-46.75
3668.849	-47.42
3671.602	-48.75
3674.352	-53.08
3677.101	-54.08
3679.847	-54.42
3682.591	-61.08
3685.333	-62.08
3688.073	-62.42
3690.811	-62.42
3693.547	-61.42
3696.281	-61.08
3699.013	-64.08
3701.742	-64.75
3704.47	-67.08
3707.195	-68.42
3709.919	-72.42
3712.64	-72.75
3715.359	-74.08
3718.076	-73.42
3720.792	-73.42
3723.505	-72.75
3726.216	-73.08
3728.925	-73.75
3731.632	-74.08
3734.336	-74.42
3737.039	-77.42
3739.74	-77.08
3742.439	-80.08
3745.136	-81.08
3747.83	-79.42
3750.523	-81.75
3753.213	-83.42
3755.902	-80.75
3758.589	-83.08
3761.273	-83.42
3763.956	-81.08
3766.636	-81.42
3769.315	-81.75
3771.991	-84.42
3774.665	-85.42
3777.338	-89.08
3780.008	-86.08
3782.677	-85.42
3785.343	-85.42
3788.007	-84.75
3790.67	-85.08
3793.33	-86.08
3795.989	-88.42
3798.645	-88.42
3801.299	-87.42
3803.952	-87.42
3806.602	-87.75
3809.251	-88.08
3811.897	-90.08
3814.542	-89.08
3817.184	-89.08
3819.825	-91.08
3822.463	-91.42
3825.1	-91.75
3827.735	-91.08
3830.367	-90.75
3832.998	-90.42
3835.627	-88.75
3838.253	-91.42
3840.878	-88.08
3843.501	-92.75
3846.122	-93.42
3848.741	-95.42
3851.358	-95.75
3853.973	-94.42
3856.586	-95.42
3859.197	-95.42
3861.806	-94.42
3864.414	-93.08
3867.019	-93.42
3869.622	-93.42
3872.224	-94.42
3874.823	-92.42
3877.421	-91.42
3880.016	-91.42
3882.61	-89.08
3885.202	-86.42
3887.792	-90.75
3890.38	-94.42
3892.966	-95.08
3895.55	-92.42
3898.132	-96.08
3900.713	-96.08
3903.291	-97.42
3905.868	-96.75
3908.442	-97.42
3911.015	-97.08
3913.586	-97.75
3916.155	-96.42
3918.722	-99.42
3921.287	-98.75
3923.85	-97.08
3926.411	-100.42
3928.971	-97.42
3931.528	-98.42
3934.084	-98.42
3936.638	-96.42
3939.19	-97.42
3941.74	-97.75
3944.288	-98.42
3946.834	-96.75
3949.378	-98.08
3951.921	-100.08
3954.462	-100.42
3957	-100.08
3959.537	-102.08
3962.072	-98.42
3964.606	-99.08
3967.137	-98.42
3969.667	-98.42
3972.194	-97.08
3974.72	-96.75
3977.244	-96.75
3979.766	-98.75
3982.286	-98.75
3984.805	-98.75
3987.321	-98.42
3989.836	-97.75
3992.349	-97.42
3994.86	-96.75
3997.369	-96.75
3999.877	-97.08
4002.382	-96.42
4004.886	-96.08
4007.388	-100.08
4009.888	-96.75
4012.386	-97.08
4014.883	-98.42
4017.377	-98.08
4019.87	-97.42
4022.361	-96.08
4024.85	-96.75
4027.338	-98.42
4029.823	-97.08
4032.307	-97.75
4034.789	-96.42
4037.269	-100.42
4039.747	-98.08
4042.224	-99.42
4044.699	-97.08
4047.172	-96.75
4049.643	-97.75
4052.112	-98.08
4054.58	-98.08
4057.046	-98.08
4059.51	-98.08
4061.972	-100.42
4064.432	-98.08
4066.891	-97.75
4069.348	-96.75
4071.803	-96.42
4074.256	-98.75
4076.708	-97.08
4079.158	-99.42
4081.606	-98.75
4084.052	-98.75
4086.497	-97.75
4088.939	-101.08
4091.38	-98.08
4093.819	-98.42
4096.257	-104.42
4098.693	-103.75
4101.127	-104.42
4103.559	-101.75
4105.989	-68.08
4108.418	-62.75
4110.845	-61.75
4113.27	-54.42
4115.694	-50.42
4118.115	-41.42
4120.535	-96.08
4122.954	-97.08
4125.37	-96.75
4127.785	-96.75
4130.198	-100.08
4132.609	-98.75
4135.019	-105.08
4137.427	-105.42
4139.833	-103.42
4142.237	-103.75
