Data from ice_water_30s_RamanShift_2.txt Node
Date: Mon Mar 27 11:12:19 IDT 2017
User: aro
Spectrometer: QEPB0276
Trigger mode: 0
Integration Time (sec): 3.000000E1
Scans to average: 3
Electric dark correction enabled: true
Nonlinearity correction enabled: false
Boxcar width: 0
XAxis mode: Raman Shifts
Number of Pixels in Spectrum: 1044
>>>>>Begin Spectral Data<<<<<
160.701	-140.71
166.742	23.29
172.777	513.62
178.805	2058.96
184.826	5836.62
190.841	12265.96
196.849	19550.29
202.85	24205.96
208.845	25258.29
214.833	24526.96
220.815	23764.96
226.789	23304.29
232.758	22932.63
238.719	22395.62
244.674	21780.62
250.623	21045.29
256.565	20308.29
262.5	19580.96
268.429	18962.29
274.351	18401.62
280.267	17878.62
286.176	17434.29
292.079	16975.96
297.975	16560.29
303.865	16097.96
309.748	15757.29
315.625	15359.62
321.495	15081.96
327.359	14847.29
333.217	14643.29
339.068	14454.62
344.912	14351.29
350.751	14245.96
356.583	14143.29
362.408	14067.62
368.227	14044.96
374.04	14001.29
379.847	13993.62
385.647	14010.62
391.44	14086.29
397.228	14113.62
403.009	14130.29
408.784	14156.96
414.553	14194.96
420.315	14217.29
426.071	14244.29
431.821	14217.96
437.565	14247.29
443.302	14172.62
449.033	14160.29
454.758	14100.96
460.477	14023.62
466.189	13965.62
471.896	13895.29
477.596	13789.62
483.29	13755.96
488.978	13720.29
494.66	13647.29
500.335	13520.62
506.005	13343.96
511.668	13122.29
517.325	12961.62
522.977	12814.96
528.622	12684.29
534.261	12556.62
539.894	12475.62
545.521	12420.62
551.141	12401.96
556.756	12354.62
562.365	12303.29
567.968	12257.62
573.565	12225.96
579.155	12187.62
584.74	12097.62
590.319	12037.96
595.892	12008.96
601.459	11939.96
607.02	11872.62
612.575	11785.96
618.124	11720.62
623.667	11603.62
629.204	11522.62
634.735	11455.62
640.261	11388.29
645.781	11340.62
651.294	11327.62
656.802	11297.96
662.304	11265.96
667.8	11243.62
673.29	11235.29
678.775	11228.96
684.254	11212.29
689.726	11178.29
695.193	11120.29
700.655	11070.62
706.11	11057.62
711.56	10946.62
717.004	10901.62
722.442	10902.29
727.874	10829.29
733.301	10849.96
738.722	10806.29
744.137	10793.62
749.547	10795.29
754.951	10801.62
760.349	10779.62
765.741	10787.96
771.128	10826.29
776.509	10861.62
781.885	10852.62
787.254	10869.29
792.618	10833.62
797.977	10770.96
803.33	10722.62
808.677	10680.29
814.019	10584.96
819.355	10550.29
824.686	10495.62
830.011	10460.96
835.33	10414.29
840.644	10418.62
845.952	10461.29
851.255	10439.29
856.552	10486.29
861.844	10532.62
867.13	10594.96
872.41	10777.62
877.686	10992.96
882.955	11181.29
888.219	11018.29
893.478	10596.29
898.731	10222.29
903.979	9975.96
909.221	9823.62
914.458	9810.96
919.69	9761.96
924.916	9790.29
930.136	9802.62
935.351	9835.96
940.561	9840.62
945.766	9835.29
950.965	9813.96
956.158	9752.29
961.347	9670.29
966.529	9561.62
971.707	9435.29
976.879	9331.62
982.046	9274.62
987.208	9286.29
992.364	9280.29
997.515	9367.96
1002.66	9437.96
1007.801	9529.29
1012.936	9680.96
1018.066	9789.29
1023.19	9853.62
1028.309	9890.62
1033.423	9921.96
1038.532	9900.96
1043.636	9913.62
1048.734	9904.96
1053.827	9829.96
1058.915	9713.62
1063.998	9594.62
1069.075	9572.62
1074.147	9610.29
1079.214	9722.29
1084.276	9836.29
1089.333	9967.62
1094.385	10012.62
1099.431	10045.96
1104.472	9990.29
1109.509	9917.96
1114.54	9807.29
1119.565	9654.29
1124.586	9556.96
1129.602	9504.62
1134.613	9434.96
1139.618	9404.96
1144.619	9424.29
1149.614	9414.96
1154.604	9496.29
1159.589	9545.29
1164.57	9556.29
1169.545	9611.96
1174.515	9611.29
1179.48	9584.62
1184.44	9515.29
1189.395	9488.96
1194.345	9463.96
1199.29	9429.62
1204.23	9432.96
1209.165	9518.96
1214.095	9556.62
1219.021	9644.29
1223.941	9720.62
1228.856	9811.62
1233.766	9855.29
1238.672	9848.29
1243.572	9842.96
1248.467	9778.96
1253.358	9698.62
1258.244	9595.29
1263.124	9489.29
1268	9374.29
1272.871	9355.96
1277.737	9305.62
1282.599	9330.62
1287.455	9346.29
1292.306	9368.29
1297.153	9432.96
1301.995	9488.29
1306.832	9538.29
1311.664	9566.29
1316.491	9578.62
1321.314	9547.62
1326.132	9495.29
1330.945	9374.62
1335.753	9279.29
1340.556	9122.62
1345.354	9052.62
1350.148	8966.96
1354.937	8961.96
1359.722	8951.62
1364.501	8971.62
1369.276	9010.96
1374.046	9036.62
1378.811	9086.29
1383.572	9078.29
1388.327	9061.29
1393.079	8985.96
1397.825	8924.29
1402.567	8788.62
1407.304	8738.96
1412.036	8692.96
1416.764	8676.96
1421.487	8690.62
1426.205	8740.29
1430.919	8823.96
1435.628	8929.96
1440.333	9028.62
1445.032	9141.29
1449.727	9255.96
1454.418	9390.62
1459.104	9449.29
1463.785	9385.96
1468.462	9199.29
1473.134	9028.29
1477.802	8920.62
1482.465	8945.62
1487.123	8887.96
1491.777	8927.62
1496.426	8965.96
1501.071	8966.96
1505.711	9031.96
1510.347	9125.96
1514.978	9208.29
1519.604	9297.29
1524.226	9315.96
1528.844	9336.96
1533.457	9287.29
1538.065	9294.62
1542.669	9247.96
1547.269	9195.29
1551.864	9190.96
1556.454	9206.96
1561.041	9208.62
1565.622	9266.62
1570.199	9316.62
1574.772	9401.96
1579.34	9497.62
1583.904	9594.29
1588.464	9712.29
1593.019	9714.96
1597.569	9758.29
1602.115	9783.62
1606.657	9786.96
1611.195	9773.62
1615.728	9803.96
1620.256	9841.96
1624.78	9936.62
1629.3	10005.62
1633.816	10113.96
1638.327	10229.29
1642.834	10338.29
1647.336	10434.62
1651.834	10483.96
1656.328	10519.29
1660.817	10481.62
1665.302	10441.62
1669.783	10263.62
1674.259	10116.29
1678.732	9909.29
1683.199	9653.29
1687.663	9429.29
1692.122	9177.29
1696.577	8948.96
1701.028	8784.96
1705.474	8656.62
1709.917	8525.96
1714.355	8424.96
1718.788	8330.96
1723.218	8257.96
1727.643	8160.29
1732.064	8050.96
1736.481	7921.96
1740.893	7750.29
1745.301	7622.62
1749.705	7500.96
1754.105	7378.96
1758.501	7224.96
1762.893	7145.29
1767.28	7104.29
1771.663	7061.62
1776.042	7057.29
1780.417	7082.96
1784.787	7090.29
1789.154	7146.96
1793.516	7196.62
1797.874	7227.29
1802.228	7266.96
1806.578	7227.62
1810.924	7163.29
1815.266	7195.62
1819.603	6990.62
1823.937	6946.96
1828.266	6865.29
1832.591	6809.96
1836.913	6742.96
1841.23	6746.62
1845.543	6712.96
1849.852	6712.29
1854.156	6726.29
1858.457	6750.96
1862.754	6773.96
1867.047	6793.29
1871.335	6804.96
1875.62	6858.29
1879.9	6856.96
1884.177	6857.96
1888.449	6828.96
1892.718	6806.62
1896.982	6784.96
1901.243	6795.29
1905.499	6757.29
1909.752	6758.62
1914	6746.96
1918.245	6758.62
1922.485	6771.96
1926.722	6793.29
1930.954	6812.62
1935.183	6848.96
1939.408	6871.29
1943.628	6912.62
1947.845	6907.96
1952.058	6913.62
1956.267	6883.29
1960.472	6814.29
1964.673	6726.29
1968.87	6687.29
1973.063	6633.62
1977.252	6575.29
1981.438	6516.96
1985.619	6518.96
1989.797	6511.96
1993.971	6491.62
1998.14	6518.62
2002.306	6536.62
2006.469	6545.96
2010.627	6558.29
2014.781	6567.96
2018.932	6531.62
2023.078	6503.62
2027.221	6472.62
2031.36	6389.62
2035.495	6338.29
2039.627	6297.96
2043.754	6258.29
2047.878	6231.29
2051.998	6219.29
2056.114	6241.62
2060.226	6255.29
2064.334	6264.62
2068.439	6281.96
2072.54	6318.29
2076.637	6358.62
2080.73	6375.29
2084.82	6405.62
2088.906	6393.62
2092.988	6380.29
2097.066	6351.96
2101.14	6313.96
2105.211	6276.29
2109.278	6245.96
2113.342	6222.29
2117.401	6212.29
2121.457	6201.29
2125.509	6166.62
2129.558	6113.29
2133.602	6103.96
2137.643	6105.29
2141.681	6077.29
2145.714	6085.96
2149.744	6062.29
2153.77	6008.62
2157.793	5979.29
2161.812	5933.96
2165.827	5874.62
2169.838	5775.29
2173.846	5725.62
2177.851	5651.62
2181.851	5585.96
2185.848	5538.62
2189.841	5473.96
2193.831	5455.96
2197.817	5432.29
2201.799	5421.62
2205.778	5409.96
2209.753	5415.62
2213.725	5407.29
2217.693	5388.29
2221.657	5407.96
2225.618	5405.62
2229.575	5400.62
2233.529	5359.62
2237.479	5348.62
2241.425	5292.96
2245.368	5233.29
2249.307	5189.62
2253.243	5114.29
2257.175	5065.29
2261.104	5011.96
2265.029	4959.62
2268.95	4931.29
2272.868	4873.62
2276.783	4843.29
2280.694	4791.29
2284.601	4761.96
2288.505	4696.62
2292.405	4660.29
2296.302	4621.96
2300.195	4572.96
2304.085	4551.96
2307.971	4460.29
2311.854	4407.62
2315.734	4334.62
2319.609	4274.96
2323.482	4231.62
2327.351	4174.62
2331.216	4182.96
2335.078	4114.96
2338.937	4100.96
2342.792	4084.96
2346.643	4076.29
2350.492	4061.96
2354.336	4079.29
2358.178	4079.29
2362.015	4102.96
2365.85	4110.96
2369.681	4109.62
2373.508	4114.62
2377.333	4083.96
2381.153	4101.29
2384.971	4110.29
2388.785	4057.62
2392.595	4042.96
2396.402	4005.96
2400.206	4010.96
2404.007	3987.96
2407.804	3940.29
2411.597	3941.29
2415.388	3954.96
2419.174	3927.62
2422.958	3931.62
2426.738	3905.96
2430.515	3892.62
2434.289	3874.62
2438.059	3865.96
2441.825	3840.96
2445.589	3810.96
2449.349	3807.62
2453.106	3779.29
2456.859	3756.29
2460.61	3743.96
2464.356	3702.29
2468.1	3688.96
2471.84	3653.96
2475.577	3649.62
2479.311	3662.96
2483.041	3658.62
2486.768	3639.96
2490.492	3643.96
2494.213	3646.96
2497.93	3665.96
2501.644	3667.96
2505.355	3659.96
2509.062	3633.96
2512.766	3638.29
2516.467	3615.96
2520.165	3590.62
2523.859	3574.96
2527.551	3532.62
2531.239	3527.62
2534.923	3492.96
2538.605	3471.62
2542.283	3473.96
2545.958	3457.62
2549.63	3442.29
2553.299	3438.96
2556.964	3415.29
2560.626	3407.96
2564.285	3381.29
2567.941	3376.62
2571.594	3355.62
2575.243	3320.62
2578.89	3318.29
2582.533	3297.62
2586.173	3280.96
2589.809	3237.29
2593.443	3261.62
2597.073	3228.29
2600.701	3202.29
2604.325	3188.62
2607.946	3187.62
2611.564	3185.96
2615.178	3178.29
2618.79	3173.62
2622.398	3150.96
2626.004	3127.62
2629.606	3106.62
2633.205	3073.29
2636.801	3043.96
2640.394	3010.62
2643.983	2985.62
2647.57	2989.96
2651.153	2943.29
2654.734	2906.62
2658.311	2894.62
2661.885	2860.96
2665.456	2831.29
2669.025	2810.62
2672.589	2808.29
2676.151	2774.62
2679.71	2752.96
2683.266	2752.29
2686.819	2706.62
2690.368	2672.29
2693.915	2660.96
2697.458	2629.29
2700.999	2594.29
2704.536	2559.29
2708.071	2552.29
2711.602	2538.62
2715.13	2535.62
2718.656	2519.29
2722.178	2521.62
2725.697	2536.29
2729.214	2529.62
2732.727	2536.96
2736.237	2549.62
2739.744	2562.62
2743.249	2562.29
2746.75	2544.96
2750.248	2546.29
2753.743	2536.29
2757.236	2515.62
2760.725	2521.29
2764.211	2516.96
2767.695	2490.29
2771.175	2469.62
2774.652	2451.62
2778.127	2438.29
2781.598	2418.62
2785.067	2409.62
2788.532	2413.62
2791.995	2406.29
2795.455	2395.96
2798.911	2396.29
2802.365	2405.62
2805.816	2404.96
2809.264	2370.96
2812.709	2383.96
2816.151	2369.29
2819.59	2378.62
2823.026	2364.29
2826.46	2373.29
2829.89	2347.62
2833.318	2373.62
2836.742	2355.29
2840.164	2362.62
2843.583	2377.62
2846.999	2385.96
2850.412	2389.96
2853.822	2417.29
2857.229	2423.96
2860.634	2424.62
2864.035	2470.29
2867.434	2469.29
2870.83	2498.62
2874.223	2537.96
2877.613	2534.29
2881	2583.62
2884.385	2597.62
2887.766	2594.96
2891.145	2604.96
2894.521	2570.62
2897.894	2555.29
2901.264	2532.29
2904.631	2539.29
2907.996	2533.62
2911.358	2518.29
2914.717	2531.29
2918.073	2537.62
2921.426	2543.29
2924.777	2581.96
2928.124	2589.29
2931.469	2666.29
2934.811	2757.96
2938.15	2773.62
2941.487	2807.29
2944.821	2765.29
2948.152	2750.62
2951.48	2723.62
2954.805	2692.29
2958.128	2673.96
2961.447	2656.96
2964.765	2676.96
2968.079	2699.62
2971.39	2696.96
2974.699	2749.96
2978.005	2772.62
2981.308	2834.96
2984.609	2877.96
2987.907	2914.96
2991.202	2933.96
2994.494	2990.62
2997.784	3000.96
3001.07	3035.62
3004.355	3061.96
3007.636	3111.96
3010.915	3118.29
3014.191	3155.96
3017.464	3176.62
3020.734	3158.62
3024.002	3170.62
3027.267	3198.29
3030.53	3221.62
3033.789	3261.62
3037.046	3292.62
3040.301	3321.29
3043.552	3369.62
3046.801	3416.29
3050.048	3466.29
3053.291	3536.29
3056.532	3603.29
3059.771	3711.96
3063.006	3788.62
3066.239	3863.62
3069.469	3953.96
3072.697	4068.96
3075.922	4161.29
3079.144	4214.62
3082.364	4266.62
3085.581	4365.96
3088.795	4431.96
3092.007	4505.96
3095.216	4608.62
3098.423	4685.96
3101.627	4784.29
3104.828	4848.29
3108.026	4942.62
3111.222	5024.29
3114.416	5125.96
3117.607	5204.96
3120.795	5302.96
3123.98	5433.29
3127.163	5543.29
3130.344	5642.62
3133.521	5753.96
3136.696	5845.62
3139.869	5937.29
3143.039	6054.96
3146.206	6093.62
3149.371	6166.62
3152.533	6206.29
3155.693	6276.96
3158.85	6292.62
3162.005	6303.96
3165.157	6328.29
3168.306	6331.62
3171.453	6348.96
3174.597	6372.96
3177.739	6397.62
3180.878	6354.62
3184.014	6394.29
3187.149	6374.96
3190.28	6395.62
3193.409	6427.62
3196.536	6446.96
3199.659	6444.62
3202.781	6478.29
3205.9	6477.62
3209.016	6460.62
3212.13	6465.29
3215.241	6449.62
3218.35	6391.29
3221.456	6350.29
3224.56	6299.96
3227.661	6243.29
3230.76	6184.62
3233.856	6138.96
3236.95	6071.96
3240.041	6040.62
3243.13	5985.29
3246.216	5946.29
3249.3	5902.96
3252.382	5878.96
3255.46	5858.62
3258.537	5922.96
3261.611	5810.62
3264.682	5778.29
3267.751	5752.29
3270.818	5745.96
3273.882	5698.62
3276.943	5662.29
3280.002	5604.96
3283.059	5566.62
3286.113	5464.96
3289.165	5376.62
3292.214	5312.96
3295.261	5219.96
3298.306	5185.96
3301.348	5073.62
3304.387	4976.62
3307.425	4901.62
3310.459	4856.96
3313.492	4767.96
3316.521	4711.29
3319.549	4640.62
3322.574	4607.29
3325.597	4578.96
3328.617	4521.96
3331.635	4502.29
3334.65	4483.62
3337.663	4436.29
3340.674	4431.96
3343.682	4409.62
3346.688	4398.29
3349.691	4372.96
3352.692	4364.29
3355.691	4309.29
3358.687	4260.96
3361.681	4238.96
3364.673	4174.62
3367.662	4132.29
3370.649	4045.62
3373.633	4027.96
3376.615	3952.96
3379.595	3936.62
3382.572	3830.29
3385.547	3823.62
3388.52	3768.29
3391.49	3702.29
3394.458	3655.96
3397.424	3607.62
3400.387	3583.96
3403.348	3532.29
3406.307	3478.29
3409.263	3463.96
3412.217	3405.96
3415.168	3374.96
3418.118	3348.29
3421.065	3328.96
3424.009	3270.29
3426.951	3239.29
3429.891	3179.29
3432.829	3115.96
3435.764	3047.62
3438.697	3013.62
3441.628	2906.29
3444.557	2869.29
3447.483	2788.96
3450.407	2710.62
3453.328	2638.62
3456.247	2560.29
3459.164	2503.96
3462.079	2418.96
3464.991	2348.96
3467.902	2284.96
3470.809	2205.96
3473.715	2142.29
3476.618	2099.62
3479.519	2031.62
3482.418	1993.62
3485.315	1936.29
3488.209	1872.62
3491.101	1815.62
3493.99	1778.62
3496.878	1723.62
3499.763	1666.62
3502.646	1616.62
3505.527	1575.62
3508.405	1520.29
3511.281	1454.62
3514.155	1386.96
3517.027	1329.96
3519.897	1287.29
3522.764	1203.62
3525.629	1150.29
3528.492	1089.29
3531.352	1015.62
3534.211	963.29
3537.067	916.29
3539.921	867.96
3542.773	819.62
3545.622	769.29
3548.469	730.96
3551.315	687.29
3554.157	652.96
3556.998	612.96
3559.837	570.96
3562.673	538.96
3565.507	507.62
3568.339	482.62
3571.169	451.62
3573.996	415.29
3576.822	398.29
3579.645	371.29
3582.466	333.62
3585.285	291.29
3588.101	270.96
3590.916	248.29
3593.728	220.96
3596.538	187.29
3599.346	144.96
3602.152	148.96
3604.956	109.96
3607.757	83.29
3610.556	73.96
3613.354	40.29
3616.149	22.62
3618.942	-0.04
3621.732	-22.71
3624.521	-9.04
3627.307	-45.04
3630.092	-58.04
3632.874	-79.38
3635.654	-79.04
3638.432	-78.38
3641.208	-105.04
3643.982	-124.04
3646.753	-141.38
3649.523	-127.38
3652.29	-161.71
3655.055	-191.38
3657.818	-196.38
3660.579	-213.71
3663.338	-208.71
3666.095	-223.38
3668.849	-223.71
3671.602	-260.04
3674.352	-244.38
3677.101	-281.71
3679.847	-300.04
3682.591	-291.04
3685.333	-296.38
3688.073	-316.38
3690.811	-317.71
3693.547	-312.04
3696.281	-335.04
3699.013	-341.38
3701.742	-350.38
3704.47	-346.38
3707.195	-364.71
3709.919	-368.04
3712.64	-371.71
3715.359	-377.04
3718.076	-395.04
3720.792	-387.71
3723.505	-393.71
3726.216	-404.71
3728.925	-398.04
3731.632	-408.38
3734.336	-404.38
3737.039	-415.04
3739.74	-415.04
3742.439	-385.04
3745.136	-425.04
3747.83	-434.38
3750.523	-438.38
3753.213	-377.04
3755.902	-441.38
3758.589	-421.38
3761.273	-436.38
3763.956	-450.38
3766.636	-431.38
3769.315	-462.71
3771.991	-451.04
3774.665	-454.38
3777.338	-466.04
3780.008	-448.04
3782.677	-450.38
3785.343	-453.38
3788.007	-455.38
3790.67	-465.71
3793.33	-467.38
3795.989	-469.71
3798.645	-478.04
3801.299	-463.04
3803.952	-467.38
3806.602	-484.04
3809.251	-481.71
3811.897	-478.71
3814.542	-480.04
3817.184	-480.04
3819.825	-489.38
3822.463	-487.71
3825.1	-494.38
3827.735	-491.71
3830.367	-488.71
3832.998	-502.04
3835.627	-495.38
3838.253	-509.38
3840.878	-493.38
3843.501	-508.38
3846.122	-503.38
3848.741	-507.38
3851.358	-510.38
3853.973	-487.04
3856.586	-505.04
3859.197	-509.04
3861.806	-513.38
3864.414	-500.38
3867.019	-499.04
3869.622	-504.38
3872.224	-505.04
3874.823	-497.38
3877.421	-491.38
3880.016	-485.38
3882.61	-471.04
3885.202	-457.71
3887.792	-473.04
3890.38	-500.38
3892.966	-500.71
3895.55	-492.38
3898.132	-521.38
3900.713	-523.38
3903.291	-522.04
3905.868	-510.04
3908.442	-530.71
3911.015	-529.71
3913.586	-524.38
3916.155	-529.04
3918.722	-528.38
3921.287	-534.04
3923.85	-518.38
3926.411	-529.71
3928.971	-534.04
3931.528	-530.71
3934.084	-533.38
3936.638	-532.04
3939.19	-530.04
3941.74	-536.71
3944.288	-541.04
3946.834	-523.38
3949.378	-541.71
3951.921	-522.04
3954.462	-528.38
3957	-539.71
3959.537	-533.71
3962.072	-519.38
3964.606	-517.38
3967.137	-539.71
3969.667	-529.04
3972.194	-536.38
3974.72	-524.38
3977.244	-500.38
3979.766	-516.38
3982.286	-513.38
3984.805	-533.04
3987.321	-534.38
3989.836	-523.71
3992.349	-515.04
3994.86	-524.71
3997.369	-521.04
3999.877	-519.04
4002.382	-519.71
4004.886	-526.71
4007.388	-522.04
4009.888	-531.04
4012.386	-531.71
4014.883	-532.71
4017.377	-525.04
4019.87	-528.71
4022.361	-522.71
4024.85	-528.38
4027.338	-530.71
4029.823	-530.04
4032.307	-532.38
4034.789	-538.71
4037.269	-532.04
4039.747	-518.38
4042.224	-534.04
4044.699	-516.71
4047.172	-529.04
4049.643	-545.04
4052.112	-513.71
4054.58	-537.38
4057.046	-529.04
4059.51	-533.04
4061.972	-533.71
4064.432	-506.04
4066.891	-544.38
4069.348	-534.38
4071.803	-535.71
4074.256	-535.38
4076.708	-534.38
4079.158	-526.38
4081.606	-549.04
4084.052	-528.38
4086.497	-546.04
4088.939	-533.38
4091.38	-529.04
4093.819	-542.04
4096.257	-605.38
4098.693	-610.04
4101.127	-617.04
4103.559	-605.71
4105.989	-349.38
4108.418	-340.71
4110.845	-316.04
4113.27	-297.04
4115.694	-257.04
4118.115	-201.38
4120.535	-547.71
4122.954	-539.38
4125.37	-550.04
4127.785	-547.04
4130.198	-543.38
4132.609	-544.38
4135.019	-615.71
4137.427	-613.04
4139.833	-613.71
4142.237	-612.71
