Data from ice_coli_30s_RamanShift_3.txt Node
Date: Mon Mar 27 11:51:42 IDT 2017
User: aro
Spectrometer: QEPB0276
Trigger mode: 0
Integration Time (sec): 3.000000E1
Scans to average: 3
Electric dark correction enabled: true
Nonlinearity correction enabled: false
Boxcar width: 0
XAxis mode: Raman Shifts
Number of Pixels in Spectrum: 1044
>>>>>Begin Spectral Data<<<<<
160.701	-51.33
166.742	24.67
172.777	249.67
178.805	937
184.826	2584.33
190.841	5345
196.849	8528.33
202.85	10607
208.845	11119.33
214.833	10775
220.815	10417.33
226.789	10162.33
232.758	9948.67
238.719	9747.67
244.674	9439.67
250.623	9098.33
256.565	8761.33
262.5	8389.67
268.429	8095.33
274.351	7879
280.267	7631
286.176	7403
292.079	7230
297.975	7042.33
303.865	6880.33
309.748	6711
315.625	6620
321.495	6459
327.359	6406.33
333.217	6337.33
339.068	6296.33
344.912	6266.33
350.751	6269
356.583	6216.67
362.408	6186.67
368.227	6192.33
374.04	6220.67
379.847	6215.67
385.647	6216
391.44	6276.33
397.228	6281.67
403.009	6313.33
408.784	6332.33
414.553	6350
420.315	6371
426.071	6372
431.821	6374.67
437.565	6381.33
443.302	6357
449.033	6317.33
454.758	6306
460.477	6250
466.189	6215
471.896	6176.67
477.596	6103.67
483.29	6103.33
488.978	6081.33
494.66	6044
500.335	5943.67
506.005	5829.67
511.668	5655.67
517.325	5520.67
522.977	5421.67
528.622	5334
534.261	5235.67
539.894	5190
545.521	5129.33
551.141	5116.33
556.756	5086
562.365	5039
567.968	5022.33
573.565	4992.33
579.155	4929.33
584.74	4920
590.319	4895
595.892	4873
601.459	4850.67
607.02	4820.33
612.575	4773
618.124	4710
623.667	4658.33
629.204	4619.67
634.735	4570.33
640.261	4544
645.781	4507.33
651.294	4520.33
656.802	4473
662.304	4478.33
667.8	4442.33
673.29	4465
678.775	4419.67
684.254	4422.33
689.726	4398
695.193	4376
700.655	4344.33
706.11	4344
711.56	4302.67
717.004	4274.33
722.442	4279.67
727.874	4229
733.301	4219
738.722	4210
744.137	4193
749.547	4193
754.951	4169.67
760.349	4180
765.741	4179.67
771.128	4177
776.509	4202
781.885	4204.67
787.254	4210.67
792.618	4213.67
797.977	4193
803.33	4150.67
808.677	4120.67
814.019	4090
819.355	4051
824.686	4023.33
830.011	4006
835.33	3985.33
840.644	3947.67
845.952	3965.67
851.255	3914
856.552	3939.67
861.844	3927.67
867.13	3931.33
872.41	3963.67
877.686	4025.67
882.955	4067.33
888.219	4014
893.478	3877.67
898.731	3717.67
903.979	3633
909.221	3589
914.458	3564
919.69	3550.33
924.916	3543
930.136	3540.67
935.351	3559.33
940.561	3533.67
945.766	3534.67
950.965	3518.67
956.158	3499
961.347	3439
966.529	3409
971.707	3365.67
976.879	3316.67
982.046	3298
987.208	3302.33
992.364	3286.67
997.515	3309.33
1002.66	3351
1007.801	3386.67
1012.936	3425.33
1018.066	3479.67
1023.19	3478.67
1028.309	3485.33
1033.423	3479.67
1038.532	3479
1043.636	3500.33
1048.734	3494.33
1053.827	3461.67
1058.915	3425
1063.998	3382
1069.075	3372.33
1074.147	3367.67
1079.214	3430.33
1084.276	3447.67
1089.333	3481.67
1094.385	3497.67
1099.431	3519.33
1104.472	3470.33
1109.509	3461.67
1114.54	3415
1119.565	3344
1124.586	3326.33
1129.602	3300
1134.613	3269.33
1139.618	3270
1144.619	3264.67
1149.614	3280.33
1154.604	3291.67
1159.589	3312
1164.57	3303
1169.545	3304
1174.515	3324.33
1179.48	3305.67
1184.44	3270.33
1189.395	3258.67
1194.345	3247
1199.29	3226
1204.23	3265.33
1209.165	3281
1214.095	3282.67
1219.021	3312.33
1223.941	3356.67
1228.856	3392
1233.766	3395.33
1238.672	3391.67
1243.572	3391.67
1248.467	3351.67
1253.358	3317
1258.244	3310.67
1263.124	3228
1268	3183
1272.871	3179.33
1277.737	3176.67
1282.599	3175
1287.455	3171.67
1292.306	3175.67
1297.153	3195.67
1301.995	3210
1306.832	3215.33
1311.664	3231.67
1316.491	3230
1321.314	3222.67
1326.132	3182
1330.945	3142.33
1335.753	3095.33
1340.556	3073.67
1345.354	3047.33
1350.148	3004.67
1354.937	2992.33
1359.722	2996
1364.501	2986.33
1369.276	3000.67
1374.046	2985.33
1378.811	3027.67
1383.572	3040
1388.327	3018
1393.079	3024.67
1397.825	2993.33
1402.567	2925
1407.304	2907.67
1412.036	2878
1416.764	2876.33
1421.487	2876.67
1426.205	2893.67
1430.919	2906.33
1435.628	2962.67
1440.333	2994.67
1445.032	3035
1449.727	3074.33
1454.418	3102
1459.104	3125.33
1463.785	3106
1468.462	3024
1473.134	2985.33
1477.802	2941
1482.465	2950.67
1487.123	2901.33
1491.777	2937.33
1496.426	2962.33
1501.071	2938.33
1505.711	2972.67
1510.347	3009.33
1514.978	3025.67
1519.604	3071.33
1524.226	3081
1528.844	3093.33
1533.457	3072.33
1538.065	3084.67
1542.669	3078.67
1547.269	3078
1551.864	3068.33
1556.454	3088.33
1561.041	3114.33
1565.622	3133.33
1570.199	3148.33
1574.772	3186
1579.34	3223.33
1583.904	3242.33
1588.464	3310.67
1593.019	3325
1597.569	3346
1602.115	3376
1606.657	3374.33
1611.195	3385.67
1615.728	3403.67
1620.256	3436.33
1624.78	3489.67
1629.3	3514
1633.816	3559.33
1638.327	3616.67
1642.834	3651.33
1647.336	3676.67
1651.834	3683.67
1656.328	3699.67
1660.817	3690.33
1665.302	3647.67
1669.783	3569.67
1674.259	3505.33
1678.732	3387
1683.199	3317.67
1687.663	3222
1692.122	3111.67
1696.577	3026.33
1701.028	2954.67
1705.474	2895.33
1709.917	2855.33
1714.355	2804.67
1718.788	2760.33
1723.218	2719.33
1727.643	2673.67
1732.064	2609.33
1736.481	2573.33
1740.893	2487
1745.301	2434.33
1749.705	2408.67
1754.105	2336.33
1758.501	2291
1762.893	2244.67
1767.28	2251.67
1771.663	2212.33
1776.042	2209.67
1780.417	2211.33
1784.787	2205
1789.154	2214
1793.516	2237
1797.874	2250
1802.228	2274
1806.578	2254
1810.924	2212.67
1815.266	2302
1819.603	2163
1823.937	2135.67
1828.266	2116.67
1832.591	2096.67
1836.913	2078.33
1841.23	2071.33
1845.543	2068.67
1849.852	2059
1854.156	2064.67
1858.457	2074
1862.754	2102
1867.047	2082.33
1871.335	2074
1875.62	2101
1879.9	2107.67
1884.177	2108.67
1888.449	2092
1892.718	2084.67
1896.982	2078.33
1901.243	2085.67
1905.499	2078.33
1909.752	2084.33
1914	2084
1918.245	2077.67
1922.485	2076
1926.722	2088.33
1930.954	2100.33
1935.183	2128
1939.408	2120
1943.628	2147
1947.845	2137.67
1952.058	2135.33
1956.267	2131.67
1960.472	2095.67
1964.673	2086.67
1968.87	2079
1973.063	2038.67
1977.252	2031.33
1981.438	2023.67
1985.619	2005
1989.797	2034
1993.971	2019.67
1998.14	2004
2002.306	2025.33
2006.469	2034.33
2010.627	2019.67
2014.781	2032
2018.932	2030.33
2023.078	2006.67
2027.221	2008
2031.36	1994.33
2035.495	1962.33
2039.627	1955.67
2043.754	1933.67
2047.878	1943
2051.998	1934.33
2056.114	1957.67
2060.226	1945.33
2064.334	1965.33
2068.439	1965.33
2072.54	1979.67
2076.637	2006.67
2080.73	2007.33
2084.82	2015.33
2088.906	2020
2092.988	2012.67
2097.066	2006
2101.14	1977.33
2105.211	1960
2109.278	1958.67
2113.342	1961
2117.401	1952.33
2121.457	1957.67
2125.509	1945.33
2129.558	1912.67
2133.602	1909.33
2137.643	1908.67
2141.681	1920.67
2145.714	1915.67
2149.744	1889.33
2153.77	1879
2157.793	1876.33
2161.812	1850.33
2165.827	1861.67
2169.838	1798
2173.846	1791.67
2177.851	1760.33
2181.851	1732
2185.848	1725.33
2189.841	1699
2193.831	1696
2197.817	1694
2201.799	1669
2205.778	1684.67
2209.753	1686
2213.725	1677.33
2217.693	1658.33
2221.657	1685.33
2225.618	1649.67
2229.575	1668
2233.529	1651.33
2237.479	1656.67
2241.425	1633.33
2245.368	1623.67
2249.307	1593.33
2253.243	1575.67
2257.175	1555.33
2261.104	1541.67
2265.029	1515.33
2268.95	1490.67
2272.868	1497
2276.783	1473.67
2280.694	1464.33
2284.601	1447.67
2288.505	1422.33
2292.405	1412.67
2296.302	1405
2300.195	1389.33
2304.085	1388.33
2307.971	1347.33
2311.854	1343.67
2315.734	1315.33
2319.609	1288
2323.482	1284.67
2327.351	1272.33
2331.216	1270
2335.078	1260
2338.937	1256.67
2342.792	1227
2346.643	1236.67
2350.492	1215
2354.336	1220.67
2358.178	1227.67
2362.015	1228.67
2365.85	1226
2369.681	1220.33
2373.508	1232
2377.333	1216
2381.153	1238.33
2384.971	1233.67
2388.785	1219
2392.595	1211
2396.402	1201.33
2400.206	1201
2404.007	1191.67
2407.804	1173.67
2411.597	1176
2415.388	1176.33
2419.174	1173.67
2422.958	1164.33
2426.738	1171
2430.515	1149.67
2434.289	1148
2438.059	1149.67
2441.825	1142.33
2445.589	1118.33
2449.349	1137
2453.106	1111
2456.859	1108
2460.61	1109.33
2464.356	1092
2468.1	1104.33
2471.84	1084.67
2475.577	1079.67
2479.311	1083.67
2483.041	1072.33
2486.768	1058
2490.492	1075
2494.213	1076.33
2497.93	1085.67
2501.644	1081.33
2505.355	1072
2509.062	1076.33
2512.766	1069
2516.467	1075
2520.165	1063
2523.859	1068.33
2527.551	1031.33
2531.239	1057.33
2534.923	1037
2538.605	1028.67
2542.283	1017
2545.958	1012.67
2549.63	1014
2553.299	1017
2556.964	1010.33
2560.626	996.67
2564.285	998.33
2567.941	1005.67
2571.594	992.33
2575.243	969.33
2578.89	982.67
2582.533	966
2586.173	972
2589.809	939
2593.443	981.67
2597.073	945.33
2600.701	939.67
2604.325	929.33
2607.946	936.33
2611.564	923.33
2615.178	914.67
2618.79	923.67
2622.398	923.33
2626.004	912.33
2629.606	905
2633.205	899.33
2636.801	881.33
2640.394	874
2643.983	862.67
2647.57	875.33
2651.153	851.67
2654.734	846.67
2658.311	857
2661.885	830.67
2665.456	819.33
2669.025	821
2672.589	825.67
2676.151	794.33
2679.71	791
2683.266	803.67
2686.819	793
2690.368	778.33
2693.915	767.67
2697.458	768.67
2700.999	745.33
2704.536	741
2708.071	738.67
2711.602	723.33
2715.13	740.67
2718.656	738
2722.178	737.33
2725.697	750.33
2729.214	732.67
2732.727	741.33
2736.237	757
2739.744	749.67
2743.249	763.67
2746.75	750
2750.248	758.67
2753.743	759
2757.236	744.33
2760.725	740.67
2764.211	763
2767.695	730.33
2771.175	733.67
2774.652	717.33
2778.127	728.33
2781.598	713.33
2785.067	710.67
2788.532	726.33
2791.995	711
2795.455	714.67
2798.911	726
2802.365	737.67
2805.816	727
2809.264	708.33
2812.709	730.33
2816.151	717.33
2819.59	735.67
2823.026	724
2826.46	724
2829.89	720
2833.318	756.33
2836.742	722
2840.164	734.67
2843.583	746.33
2846.999	746.33
2850.412	752
2853.822	764.67
2857.229	752.33
2860.634	772
2864.035	802.33
2867.434	783.67
2870.83	804
2874.223	814.67
2877.613	820.67
2881	844
2884.385	852
2887.766	840.33
2891.145	864.67
2894.521	851.67
2897.894	855.67
2901.264	840.33
2904.631	844
2907.996	841.33
2911.358	840.67
2914.717	850
2918.073	861.33
2921.426	873.33
2924.777	884.67
2928.124	902
2931.469	912.67
2934.811	961.33
2938.15	960.33
2941.487	982
2944.821	951.67
2948.152	970.67
2951.48	954
2954.805	952
2958.128	938.67
2961.447	943
2964.765	948.33
2968.079	980.67
2971.39	969.33
2974.699	991
2978.005	1001.67
2981.308	1025.67
2984.609	1062.33
2987.907	1064.33
2991.202	1080.67
2994.494	1113.67
2997.784	1104.67
3001.07	1140.33
3004.355	1169.33
3007.636	1181.33
3010.915	1186.33
3014.191	1193.67
3017.464	1216.33
3020.734	1215.67
3024.002	1224.33
3027.267	1258.33
3030.53	1263.33
3033.789	1296.33
3037.046	1313
3040.301	1322
3043.552	1348
3046.801	1366.67
3050.048	1384.67
3053.291	1416
3056.532	1454.67
3059.771	1521.67
3063.006	1550
3066.239	1573.33
3069.469	1621.67
3072.697	1677
3075.922	1731.33
3079.144	1740.33
3082.364	1768
3085.581	1801.33
3088.795	1837
3092.007	1882.67
3095.216	1930
3098.423	1965
3101.627	2024.67
3104.828	2058
3108.026	2095
3111.222	2133.33
3114.416	2163.33
3117.607	2219
3120.795	2264.33
3123.98	2332.33
3127.163	2383.67
3130.344	2424.67
3133.521	2477.33
3136.696	2520.67
3139.869	2572
3143.039	2620
3146.206	2647.67
3149.371	2677
3152.533	2695.67
3155.693	2746
3158.85	2741
3162.005	2755.67
3165.157	2757
3168.306	2778.33
3171.453	2779
3174.597	2792
3177.739	2817
3180.878	2798.67
3184.014	2828.33
3187.149	2820.33
3190.28	2805.67
3193.409	2837
3196.536	2841
3199.659	2842.67
3202.781	2842.33
3205.9	2862.67
3209.016	2878.33
3212.13	2847
3215.241	2847.67
3218.35	2822
3221.456	2809.67
3224.56	2804
3227.661	2748
3230.76	2732
3233.856	2711.33
3236.95	2688.33
3240.041	2675.33
3243.13	2626
3246.216	2632
3249.3	2603.67
3252.382	2582.33
3255.46	2607.33
3258.537	2678
3261.611	2588.33
3264.682	2568
3267.751	2571.67
3270.818	2558.67
3273.882	2546.67
3276.943	2526.67
3280.002	2491
3283.059	2476
3286.113	2445.33
3289.165	2428.67
3292.214	2405.33
3295.261	2346
3298.306	2329.67
3301.348	2282.67
3304.387	2239.67
3307.425	2207.67
3310.459	2192.67
3313.492	2144
3316.521	2130.33
3319.549	2105.33
3322.574	2085.33
3325.597	2062
3328.617	2057.67
3331.635	2041.67
3334.65	2038.67
3337.663	2013.33
3340.674	2002.33
3343.682	2004.33
3346.688	1989.33
3349.691	1990.67
3352.692	1983.67
3355.691	1953.67
3358.687	1933.33
3361.681	1923.67
3364.673	1903.33
3367.662	1871.67
3370.649	1848
3373.633	1836
3376.615	1800.33
3379.595	1806.67
3382.572	1752.67
3385.547	1736
3388.52	1729.33
3391.49	1697.67
3394.458	1668.67
3397.424	1649
3400.387	1644.67
3403.348	1624
3406.307	1599.67
3409.263	1590.67
3412.217	1560
3415.168	1550.33
3418.118	1534.67
3421.065	1516.67
3424.009	1490.33
3426.951	1479.67
3429.891	1456.33
3432.829	1439.33
3435.764	1396.33
3438.697	1387.33
3441.628	1323.67
3444.557	1315
3447.483	1298
3450.407	1240.33
3453.328	1212
3456.247	1177.33
3459.164	1166.67
3462.079	1109
3464.991	1077
3467.902	1068.33
3470.809	1004.67
3473.715	980.33
3476.618	968.33
3479.519	928.67
3482.418	919
3485.315	890
3488.209	863
3491.101	832.67
3493.99	817.33
3496.878	792.33
3499.763	765
3502.646	744.33
3505.527	739
3508.405	697
3511.281	679
3514.155	638
3517.027	612.33
3519.897	604
3522.764	557.33
3525.629	546.67
3528.492	512.67
3531.352	474.67
3534.211	445.67
3537.067	429
3539.921	408.67
3542.773	382.67
3545.622	371.33
3548.469	363.67
3551.315	326.33
3554.157	324
3556.998	288.67
3559.837	273
3562.673	252.67
3565.507	249.33
3568.339	234.67
3571.169	223.33
3573.996	201.33
3576.822	193.67
3579.645	192.67
3582.466	170.67
3585.285	139
3588.101	135
3590.916	126.67
3593.728	107.67
3596.538	95.67
3599.346	79
3602.152	82.33
3604.956	56.33
3607.757	46.67
3610.556	44.33
3613.354	27.67
3616.149	22
3618.942	3.67
3621.732	-5.33
3624.521	14.67
3627.307	-8
3630.092	-26
3632.874	-25.33
3635.654	-27.33
3638.432	-24
3641.208	-39.33
3643.982	-49
3646.753	-55.67
3649.523	-31.33
3652.29	-62.67
3655.055	-82.67
3657.818	-75.33
3660.579	-92.33
3663.338	-77.33
3666.095	-91
3668.849	-78
3671.602	-113.33
3674.352	-93.33
3677.101	-117
3679.847	-131.33
3682.591	-124
3685.333	-121
3688.073	-136.33
3690.811	-132.67
3693.547	-123
3696.281	-142.67
3699.013	-148.67
3701.742	-149.33
3704.47	-144
3707.195	-161
3709.919	-163
3712.64	-157
3715.359	-165.67
3718.076	-181
3720.792	-177.67
3723.505	-171.67
3726.216	-181.33
3728.925	-167
3731.632	-178
3734.336	-169
3737.039	-180
3739.74	-182
3742.439	-143.33
3745.136	-189
3747.83	-193
3750.523	-194.67
3753.213	-126.33
3755.902	-190
3758.589	-174
3761.273	-189.67
3763.956	-199.67
3766.636	-183.33
3769.315	-211
3771.991	-198
3774.665	-201.33
3777.338	-207.33
3780.008	-194.67
3782.677	-195
3785.343	-191
3788.007	-188.33
3790.67	-199.33
3793.33	-200.33
3795.989	-199.67
3798.645	-209
3801.299	-196
3803.952	-198.33
3806.602	-211.67
3809.251	-208.33
3811.897	-208
3814.542	-205
3817.184	-205.33
3819.825	-214.33
3822.463	-213.33
3825.1	-215.33
3827.735	-215
3830.367	-210.33
3832.998	-223.67
3835.627	-220
3838.253	-225.33
3840.878	-207.67
3843.501	-225.33
3846.122	-223
3848.741	-224.67
3851.358	-222.67
3853.973	-201
3856.586	-222
3859.197	-221
3861.806	-221.67
3864.414	-213.33
3867.019	-207.33
3869.622	-216
3872.224	-211.67
3874.823	-209
3877.421	-203
3880.016	-194.67
3882.61	-183.67
3885.202	-173.67
3887.792	-186
3890.38	-204.67
3892.966	-209.67
3895.55	-200
3898.132	-226.67
3900.713	-225.67
3903.291	-222.67
3905.868	-216.33
3908.442	-229.67
3911.015	-230.67
3913.586	-219.67
3916.155	-224.33
3918.722	-226
3921.287	-227.67
3923.85	-214
3926.411	-227.33
3928.971	-227.67
3931.528	-227.33
3934.084	-227.67
3936.638	-226
3939.19	-222.67
3941.74	-234
3944.288	-233
3946.834	-222
3949.378	-237
3951.921	-219.67
3954.462	-220.67
3957	-236.67
3959.537	-233
3962.072	-218.33
3964.606	-212.33
3967.137	-233
3969.667	-226
3972.194	-229.67
3974.72	-222.67
3977.244	-197.67
3979.766	-212.33
3982.286	-214.33
3984.805	-232.33
3987.321	-231.67
3989.836	-220.67
3992.349	-212.33
3994.86	-227
3997.369	-223
3999.877	-222.33
4002.382	-219.67
4004.886	-228.67
4007.388	-221.33
4009.888	-228.33
4012.386	-233
4014.883	-234
4017.377	-228.33
4019.87	-226
4022.361	-220.33
4024.85	-224.67
4027.338	-225
4029.823	-227.67
4032.307	-230.67
4034.789	-233
4037.269	-227
4039.747	-210.67
4042.224	-227
4044.699	-212.67
4047.172	-220.33
4049.643	-240.33
4052.112	-211.67
4054.58	-231
4057.046	-223.33
4059.51	-224.67
4061.972	-227.33
4064.432	-202.67
4066.891	-240.67
4069.348	-230.67
4071.803	-233.67
4074.256	-232
4076.708	-230.67
4079.158	-224
4081.606	-245.33
4084.052	-222
4086.497	-242.33
4088.939	-225
4091.38	-223.33
4093.819	-231.67
4096.257	-279.67
4098.693	-282.33
4101.127	-292
4103.559	-282.33
4105.989	-130.33
4108.418	-134
4110.845	-121.33
4113.27	-116.67
4115.694	-99
4118.115	-74.33
4120.535	-240.67
4122.954	-231.33
4125.37	-245.67
4127.785	-239
4130.198	-238
4132.609	-237.67
4135.019	-289.67
4137.427	-290
4139.833	-290.67
4142.237	-289.67
