Data from ice_coli_5s_RamanShift_2.txt Node
Date: Mon Mar 27 11:45:45 IDT 2017
User: aro
Spectrometer: QEPB0276
Trigger mode: 0
Integration Time (sec): 5.000000E0
Scans to average: 3
Electric dark correction enabled: true
Nonlinearity correction enabled: false
Boxcar width: 0
XAxis mode: Raman Shifts
Number of Pixels in Spectrum: 1044
>>>>>Begin Spectral Data<<<<<
160.701	-10.08
166.742	-1.08
172.777	37.25
178.805	147.58
184.826	419.92
190.841	876.92
196.849	1394.92
202.85	1731.25
208.845	1806.25
214.833	1753.92
220.815	1704.92
226.789	1662.58
232.758	1629.58
238.719	1587.58
244.674	1536.58
250.623	1486.92
256.565	1421.25
262.5	1380.25
268.429	1329.25
274.351	1285.58
280.267	1249.92
286.176	1213.25
292.079	1193.92
297.975	1163.92
303.865	1135.25
309.748	1108.58
315.625	1078.25
321.495	1075.92
327.359	1054.92
333.217	1045.92
339.068	1036.58
344.912	1032.25
350.751	1033.58
356.583	1024.25
362.408	1032.58
368.227	1032.92
374.04	1030.92
379.847	1021.92
385.647	1040.92
391.44	1042.92
397.228	1035.25
403.009	1043.25
408.784	1047.58
414.553	1050.25
420.315	1057.58
426.071	1057.92
431.821	1050.92
437.565	1051.25
443.302	1051.58
449.033	1041.25
454.758	1041.25
460.477	1043.92
466.189	1030.58
471.896	1017.92
477.596	1016.25
483.29	1009.58
488.978	1013.25
494.66	1002.25
500.335	982.25
506.005	963.25
511.668	935.58
517.325	912.25
522.977	885.92
528.622	882.92
534.261	871.25
539.894	859.25
545.521	849.25
551.141	854.58
556.756	838.25
562.365	833.92
567.968	830.58
573.565	829.92
579.155	820.58
584.74	815.58
590.319	818.58
595.892	810.58
601.459	806.58
607.02	801.25
612.575	792.92
618.124	785.92
623.667	768.58
629.204	767.25
634.735	766.25
640.261	754.58
645.781	755.58
651.294	745.92
656.802	744.92
662.304	748.25
667.8	744.58
673.29	746.92
678.775	740.92
684.254	727.58
689.726	728.25
695.193	728.25
700.655	722.92
706.11	707.58
711.56	710.92
717.004	707.58
722.442	703.58
727.874	705.92
733.301	698.25
738.722	696.25
744.137	698.58
749.547	689.58
754.951	694.92
760.349	693.25
765.741	689.58
771.128	696.92
776.509	703.58
781.885	701.92
787.254	698.92
792.618	696.58
797.977	689.25
803.33	689.58
808.677	683.92
814.019	680.25
819.355	675.92
824.686	669.92
830.011	659.92
835.33	657.92
840.644	663.92
845.952	655.92
851.255	652.25
856.552	649.92
861.844	645.25
867.13	637.92
872.41	646.92
877.686	638.58
882.955	637.92
888.219	636.92
893.478	619.25
898.731	605.92
903.979	596.25
909.221	588.25
914.458	587.58
919.69	584.92
924.916	587.58
930.136	589.25
935.351	585.92
940.561	584.25
945.766	584.58
950.965	578.25
956.158	572.25
961.347	562.92
966.529	560.92
971.707	553.92
976.879	551.25
982.046	548.92
987.208	546.92
992.364	542.25
997.515	544.92
1002.66	550.25
1007.801	552.25
1012.936	555.92
1018.066	565.25
1023.19	572.25
1028.309	579.92
1033.423	575.92
1038.532	569.92
1043.636	564.58
1048.734	564.58
1053.827	559.58
1058.915	552.58
1063.998	549.58
1069.075	548.92
1074.147	548.58
1079.214	552.92
1084.276	562.58
1089.333	560.92
1094.385	563.58
1099.431	562.92
1104.472	564.58
1109.509	561.92
1114.54	550.58
1119.565	549.58
1124.586	538.92
1129.602	538.58
1134.613	533.25
1139.618	536.92
1144.619	535.58
1149.614	534.25
1154.604	544.58
1159.589	539.58
1164.57	541.58
1169.545	544.92
1174.515	541.58
1179.48	542.25
1184.44	537.92
1189.395	530.92
1194.345	534.92
1199.29	527.25
1204.23	530.92
1209.165	532.58
1214.095	540.25
1219.021	539.58
1223.941	546.58
1228.856	551.25
1233.766	555.25
1238.672	557.92
1243.572	555.25
1248.467	548.92
1253.358	544.92
1258.244	544.25
1263.124	531.58
1268	522.25
1272.871	512.92
1277.737	514.25
1282.599	512.92
1287.455	513.58
1292.306	514.25
1297.153	513.92
1301.995	524.92
1306.832	527.58
1311.664	528.92
1316.491	522.92
1321.314	525.25
1326.132	519.58
1330.945	507.58
1335.753	507.92
1340.556	501.92
1345.354	489.92
1350.148	493.92
1354.937	499.92
1359.722	486.25
1364.501	491.25
1369.276	491.25
1374.046	493.25
1378.811	489.25
1383.572	497.92
1388.327	493.25
1393.079	495.92
1397.825	483.58
1402.567	477.92
1407.304	474.92
1412.036	466.58
1416.764	473.25
1421.487	466.58
1426.205	466.58
1430.919	469.58
1435.628	478.25
1440.333	479.92
1445.032	486.92
1449.727	500.25
1454.418	494.25
1459.104	502.25
1463.785	491.58
1468.462	487.92
1473.134	474.58
1477.802	481.58
1482.465	478.25
1487.123	477.92
1491.777	481.25
1496.426	477.58
1501.071	484.92
1505.711	493.92
1510.347	493.92
1514.978	494.92
1519.604	509.25
1524.226	502.25
1528.844	507.58
1533.457	507.58
1538.065	504.92
1542.669	508.92
1547.269	504.25
1551.864	504.25
1556.454	505.25
1561.041	504.58
1565.622	508.58
1570.199	518.58
1574.772	514.58
1579.34	526.58
1583.904	531.58
1588.464	537.25
1593.019	545.58
1597.569	545.92
1602.115	550.58
1606.657	554.92
1611.195	545.25
1615.728	555.92
1620.256	567.58
1624.78	569.25
1629.3	575.25
1633.816	580.92
1638.327	584.92
1642.834	593.25
1647.336	601.58
1651.834	605.25
1656.328	606.92
1660.817	599.92
1665.302	595.25
1669.783	585.92
1674.259	568.25
1678.732	556.58
1683.199	546.92
1687.663	530.25
1692.122	515.25
1696.577	504.58
1701.028	487.58
1705.474	479.58
1709.917	474.25
1714.355	460.25
1718.788	456.25
1723.218	447.25
1727.643	435.92
1732.064	426.25
1736.481	424.92
1740.893	405.58
1745.301	402.25
1749.705	383.92
1754.105	381.92
1758.501	378.58
1762.893	366.92
1767.28	368.92
1771.663	359.25
1776.042	358.58
1780.417	361.25
1784.787	362.58
1789.154	369.58
1793.516	368.25
1797.874	372.58
1802.228	375.92
1806.578	372.92
1810.924	370.92
1815.266	362.92
1819.603	354.25
1823.937	344.58
1828.266	344.58
1832.591	342.58
1836.913	339.92
1841.23	337.58
1845.543	335.58
1849.852	334.92
1854.156	331.92
1858.457	331.92
1862.754	336.92
1867.047	342.92
1871.335	340.58
1875.62	344.25
1879.9	344.58
1884.177	343.92
1888.449	344.58
1892.718	344.58
1896.982	344.25
1901.243	342.25
1905.499	343.25
1909.752	341.92
1914	341.58
1918.245	347.25
1922.485	346.92
1926.722	344.92
1930.954	351.58
1935.183	350.25
1939.408	355.25
1943.628	352.25
1947.845	355.58
1952.058	352.58
1956.267	346.25
1960.472	344.58
1964.673	343.58
1968.87	342.58
1973.063	336.25
1977.252	334.92
1981.438	327.58
1985.619	325.25
1989.797	324.25
1993.971	325.92
1998.14	326.92
2002.306	330.25
2006.469	328.58
2010.627	332.92
2014.781	333.25
2018.932	326.92
2023.078	326.92
2027.221	324.25
2031.36	322.25
2035.495	322.58
2039.627	316.25
2043.754	315.92
2047.878	320.58
2051.998	319.58
2056.114	317.92
2060.226	318.92
2064.334	320.25
2068.439	322.92
2072.54	325.25
2076.637	326.25
2080.73	325.25
2084.82	328.25
2088.906	327.92
2092.988	326.58
2097.066	328.92
2101.14	326.58
2105.211	325.92
2109.278	322.92
2113.342	317.25
2117.401	319.58
2121.457	312.58
2125.509	316.25
2129.558	315.58
2133.602	317.58
2137.643	310.92
2141.681	308.25
2145.714	308.25
2149.744	310.25
2153.77	304.25
2157.793	307.58
2161.812	302.25
2165.827	293.92
2169.838	295.58
2173.846	288.58
2177.851	282.25
2181.851	286.58
2185.848	282.25
2189.841	278.92
2193.831	271.58
2197.817	270.25
2201.799	271.92
2205.778	267.58
2209.753	272.58
2213.725	268.25
2217.693	270.92
2221.657	269.25
2225.618	273.25
2229.575	265.92
2233.529	268.25
2237.479	268.58
2241.425	266.58
2245.368	263.92
2249.307	256.25
2253.243	256.58
2257.175	249.92
2261.104	250.25
2265.029	242.92
2268.95	241.58
2272.868	240.58
2276.783	237.25
2280.694	232.92
2284.601	232.25
2288.505	227.58
2292.405	222.25
2296.302	222.25
2300.195	222.58
2304.085	220.25
2307.971	217.92
2311.854	215.58
2315.734	213.58
2319.609	208.92
2323.482	204.25
2327.351	200.58
2331.216	203.25
2335.078	203.25
2338.937	197.92
2342.792	196.92
2346.643	193.92
2350.492	198.25
2354.336	196.25
2358.178	193.25
2362.015	193.25
2365.85	192.92
2369.681	193.92
2373.508	193.58
2377.333	192.92
2381.153	189.92
2384.971	193.92
2388.785	194.58
2392.595	191.58
2396.402	191.25
2400.206	185.92
2404.007	186.92
2407.804	188.92
2411.597	184.25
2415.388	186.25
2419.174	185.58
2422.958	182.92
2426.738	180.58
2430.515	182.58
2434.289	179.25
2438.059	180.92
2441.825	177.92
2445.589	176.25
2449.349	175.58
2453.106	175.92
2456.859	173.58
2460.61	175.58
2464.356	172.58
2468.1	173.25
2471.84	170.25
2475.577	168.58
2479.311	167.25
2483.041	166.25
2486.768	167.92
2490.492	169.92
2494.213	165.25
2497.93	168.25
2501.644	170.92
2505.355	168.92
2509.062	170.58
2512.766	172.92
2516.467	166.92
2520.165	167.58
2523.859	163.58
2527.551	165.25
2531.239	163.25
2534.923	164.92
2538.605	166.25
2542.283	161.92
2545.958	159.58
2549.63	160.25
2553.299	159.58
2556.964	154.92
2560.626	154.58
2564.285	153.25
2567.941	155.25
2571.594	156.92
2575.243	152.92
2578.89	156.25
2582.533	148.92
2586.173	150.58
2589.809	147.25
2593.443	148.25
2597.073	143.58
2600.701	146.92
2604.325	145.58
2607.946	141.58
2611.564	145.58
2615.178	145.25
2618.79	144.58
2622.398	143.92
2626.004	143.92
2629.606	143.25
2633.205	137.92
2636.801	134.25
2640.394	135.25
2643.983	133.25
2647.57	135.58
2651.153	133.25
2654.734	128.58
2658.311	126.92
2661.885	128.25
2665.456	128.25
2669.025	125.92
2672.589	121.58
2676.151	119.92
2679.71	125.58
2683.266	123.92
2686.819	117.92
2690.368	120.92
2693.915	118.58
2697.458	117.25
2700.999	117.92
2704.536	115.58
2708.071	112.92
2711.602	113.58
2715.13	111.25
2718.656	113.25
2722.178	114.25
2725.697	107.25
2729.214	117.25
2732.727	115.58
2736.237	116.58
2739.744	111.92
2743.249	114.58
2746.75	117.92
2750.248	114.25
2753.743	116.58
2757.236	113.92
2760.725	116.92
2764.211	117.25
2767.695	116.25
2771.175	113.92
2774.652	112.58
2778.127	109.58
2781.598	111.92
2785.067	112.25
2788.532	112.92
2791.995	110.92
2795.455	113.25
2798.911	110.58
2802.365	108.92
2805.816	109.25
2809.264	109.58
2812.709	108.25
2816.151	109.25
2819.59	105.25
2823.026	106.92
2826.46	108.58
2829.89	108.92
2833.318	109.25
2836.742	112.25
2840.164	113.92
2843.583	108.58
2846.999	113.25
2850.412	114.58
2853.822	114.25
2857.229	115.92
2860.634	118.58
2864.035	117.58
2867.434	122.92
2870.83	123.58
2874.223	125.58
2877.613	124.25
2881	125.92
2884.385	118.92
2887.766	117.58
2891.145	122.25
2894.521	122.25
2897.894	122.92
2901.264	121.58
2904.631	122.58
2907.996	121.25
2911.358	124.58
2914.717	122.25
2918.073	126.58
2921.426	125.92
2924.777	127.58
2928.124	130.92
2931.469	132.92
2934.811	138.58
2938.15	142.25
2941.487	139.58
2944.821	141.92
2948.152	142.92
2951.48	141.58
2954.805	137.25
2958.128	142.58
2961.447	141.92
2964.765	145.92
2968.079	148.92
2971.39	147.25
2974.699	153.25
2978.005	154.92
2981.308	155.58
2984.609	161.92
2987.907	162.58
2991.202	167.25
2994.494	170.92
2997.784	172.25
3001.07	180.58
3004.355	188.58
3007.636	187.92
3010.915	190.58
3014.191	194.25
3017.464	194.25
3020.734	198.25
3024.002	199.25
3027.267	199.25
3030.53	202.58
3033.789	200.58
3037.046	207.58
3040.301	214.25
3043.552	215.92
3046.801	218.25
3050.048	228.58
3053.291	228.92
3056.532	237.58
3059.771	236.92
3063.006	249.58
3066.239	256.25
3069.469	260.25
3072.697	268.58
3075.922	281.58
3079.144	284.92
3082.364	294.58
3085.581	299.58
3088.795	303.92
3092.007	310.58
3095.216	320.58
3098.423	323.58
3101.627	329.25
3104.828	336.25
3108.026	342.25
3111.222	351.58
3114.416	356.25
3117.607	366.92
3120.795	370.92
3123.98	377.58
3127.163	388.25
3130.344	398.92
3133.521	406.92
3136.696	412.58
3139.869	424.58
3143.039	434.25
3146.206	441.92
3149.371	444.25
3152.533	443.92
3155.693	446.92
3158.85	445.58
3162.005	453.58
3165.157	455.92
3168.306	459.58
3171.453	466.25
3174.597	461.92
3177.739	457.25
3180.878	463.25
3184.014	461.25
3187.149	469.25
3190.28	462.92
3193.409	463.58
3196.536	466.25
3199.659	464.25
3202.781	475.25
3205.9	478.58
3209.016	473.58
3212.13	474.25
3215.241	476.58
3218.35	463.92
3221.456	456.25
3224.56	459.25
3227.661	455.25
3230.76	451.58
3233.856	446.58
3236.95	442.58
3240.041	439.58
3243.13	440.92
3246.216	434.58
3249.3	432.58
3252.382	429.58
3255.46	426.58
3258.537	423.92
3261.611	421.92
3264.682	423.25
3267.751	424.25
3270.818	417.58
3273.882	417.58
3276.943	419.25
3280.002	420.58
3283.059	411.58
3286.113	406.92
3289.165	402.92
3292.214	394.25
3295.261	385.25
3298.306	379.58
3301.348	371.92
3304.387	370.58
3307.425	361.92
3310.459	353.92
3313.492	352.92
3316.521	357.25
3319.549	346.92
3322.574	345.25
3325.597	339.25
3328.617	337.25
3331.635	334.58
3334.65	330.58
3337.663	330.58
3340.674	328.58
3343.682	329.58
3346.688	333.58
3349.691	324.92
3352.692	323.25
3355.691	326.25
3358.687	319.25
3361.681	321.25
3364.673	312.25
3367.662	314.25
3370.649	304.58
3373.633	299.92
3376.615	293.92
3379.595	294.92
3382.572	282.25
3385.547	281.92
3388.52	280.25
3391.49	278.58
3394.458	273.58
3397.424	266.25
3400.387	267.58
3403.348	266.25
3406.307	261.58
3409.263	259.25
3412.217	255.25
3415.168	252.92
3418.118	249.92
3421.065	249.25
3424.009	246.25
3426.951	243.92
3429.891	242.25
3432.829	232.58
3435.764	230.25
3438.697	223.92
3441.628	217.92
3444.557	215.25
3447.483	208.92
3450.407	202.58
3453.328	195.25
3456.247	194.58
3459.164	186.58
3462.079	181.92
3464.991	176.92
3467.902	171.58
3470.809	165.58
3473.715	163.92
3476.618	150.92
3479.519	151.25
3482.418	146.92
3485.315	139.58
3488.209	137.92
3491.101	131.92
3493.99	131.58
3496.878	128.58
3499.763	126.25
3502.646	123.58
3505.527	118.25
3508.405	110.25
3511.281	106.58
3514.155	99.25
3517.027	99.25
3519.897	94.92
3522.764	88.58
3525.629	85.58
3528.492	79.25
3531.352	73.92
3534.211	72.58
3537.067	64.25
3539.921	59.92
3542.773	57.25
3545.622	56.25
3548.469	52.25
3551.315	50.92
3554.157	43.92
3556.998	41.92
3559.837	37.58
3562.673	38.25
3565.507	34.25
3568.339	30.92
3571.169	28.92
3573.996	30.58
3576.822	26.25
3579.645	23.92
3582.466	23.92
3585.285	21.25
3588.101	17.92
3590.916	15.58
3593.728	15.58
3596.538	10.25
3599.346	9.92
3602.152	10.58
3604.956	4.92
3607.757	3.25
3610.556	1.58
3613.354	2.25
3616.149	1.58
3618.942	-0.75
3621.732	-3.42
3624.521	-6.75
3627.307	-8.42
3630.092	-10.42
3632.874	-5.08
3635.654	-11.42
3638.432	-8.08
3641.208	-9.42
3643.982	-13.75
3646.753	-9.42
3649.523	-16.08
3652.29	-15.08
3655.055	-17.42
3657.818	-18.75
3660.579	-19.42
3663.338	-19.42
3666.095	-21.42
3668.849	-18.42
3671.602	-21.08
3674.352	-22.42
3677.101	-24.08
3679.847	-23.42
3682.591	-26.75
3685.333	-28.08
3688.073	-26.75
3690.811	-29.42
3693.547	-29.08
3696.281	-28.08
3699.013	-29.42
3701.742	-28.42
3704.47	-28.42
3707.195	-30.08
3709.919	-31.08
3712.64	-32.42
3715.359	-34.08
3718.076	-31.42
3720.792	-32.08
3723.505	-33.08
3726.216	-31.42
3728.925	-31.08
3731.632	-30.42
3734.336	-31.08
3737.039	-35.42
3739.74	-34.42
3742.439	-35.08
3745.136	-36.08
3747.83	-34.75
3750.523	-35.42
3753.213	-36.42
3755.902	-35.42
3758.589	-34.42
3761.273	-37.08
3763.956	-38.42
3766.636	-36.42
3769.315	-37.75
3771.991	-40.08
3774.665	-38.42
3777.338	-40.42
3780.008	-37.42
3782.677	-35.42
3785.343	-36.42
3788.007	-34.75
3790.67	-37.42
3793.33	-36.08
3795.989	-38.75
3798.645	-36.75
3801.299	-38.42
3803.952	-37.75
3806.602	-37.75
3809.251	-37.42
3811.897	-38.75
3814.542	-39.75
3817.184	-38.42
3819.825	-40.08
3822.463	-41.08
3825.1	-43.42
3827.735	-40.75
3830.367	-42.08
3832.998	-40.08
3835.627	-38.08
3838.253	-41.08
3840.878	-38.42
3843.501	-41.08
3846.122	-41.42
3848.741	-40.75
3851.358	-41.08
3853.973	-42.42
3856.586	-40.42
3859.197	-39.75
3861.806	-40.42
3864.414	-39.42
3867.019	-40.42
3869.622	-40.42
3872.224	-40.75
3874.823	-38.42
3877.421	-39.08
3880.016	-37.42
3882.61	-37.42
3885.202	-34.75
3887.792	-36.42
3890.38	-39.08
3892.966	-39.75
3895.55	-39.08
3898.132	-40.42
3900.713	-40.08
3903.291	-41.75
3905.868	-41.75
3908.442	-41.42
3911.015	-40.08
3913.586	-41.42
3916.155	-41.08
3918.722	-41.75
3921.287	-41.42
3923.85	-41.08
3926.411	-41.08
3928.971	-39.75
3931.528	-43.42
3934.084	-43.75
3936.638	-43.75
3939.19	-41.75
3941.74	-41.75
3944.288	-43.08
3946.834	-43.08
3949.378	-41.42
3951.921	-42.08
3954.462	-42.75
3957	-41.75
3959.537	-42.42
3962.072	-44.42
3964.606	-42.75
3967.137	-43.75
3969.667	-41.08
3972.194	-41.75
3974.72	-39.75
3977.244	-41.75
3979.766	-42.75
3982.286	-42.75
3984.805	-42.08
3987.321	-43.08
3989.836	-40.75
3992.349	-41.75
3994.86	-39.08
3997.369	-40.42
3999.877	-42.42
4002.382	-40.75
4004.886	-42.42
4007.388	-43.42
4009.888	-43.08
4012.386	-41.42
4014.883	-43.08
4017.377	-41.75
4019.87	-41.75
4022.361	-39.08
4024.85	-41.08
4027.338	-40.08
4029.823	-42.08
4032.307	-40.08
4034.789	-42.75
4037.269	-43.08
4039.747	-43.42
4042.224	-42.08
4044.699	-42.75
4047.172	-42.75
4049.643	-41.08
4052.112	-41.42
4054.58	-41.75
4057.046	-40.75
4059.51	-43.08
4061.972	-43.42
4064.432	-41.42
4066.891	-43.75
4069.348	-41.08
4071.803	-39.75
4074.256	-40.75
4076.708	-41.08
4079.158	-41.08
4081.606	-42.08
4084.052	-42.42
4086.497	-42.08
4088.939	-43.42
4091.38	-43.08
4093.819	-40.75
4096.257	-43.08
4098.693	-43.08
4101.127	-43.08
4103.559	-43.75
4105.989	-28.42
4108.418	-24.75
4110.845	-26.42
4113.27	-22.75
4115.694	-19.42
4118.115	-15.75
4120.535	-40.08
4122.954	-41.08
4125.37	-42.42
4127.785	-42.08
4130.198	-43.42
4132.609	-43.08
4135.019	-43.75
4137.427	-43.75
4139.833	-43.08
4142.237	-43.08
