Data from ice_coli_60s_RamanShift_2.txt Node
Date: Mon Mar 27 11:59:03 IDT 2017
User: aro
Spectrometer: QEPB0276
Trigger mode: 0
Integration Time (sec): 6.000000E1
Scans to average: 3
Electric dark correction enabled: true
Nonlinearity correction enabled: false
Boxcar width: 0
XAxis mode: Raman Shifts
Number of Pixels in Spectrum: 1044
>>>>>Begin Spectral Data<<<<<
160.701	-101.54
166.742	58.79
172.777	510.79
178.805	1881.46
184.826	5242.12
190.841	10900.79
196.849	17427.12
202.85	21712.79
208.845	22734.46
214.833	22089.79
220.815	21322.12
226.789	20818.46
232.758	20389.46
238.719	19908.12
244.674	19339.12
250.623	18582.46
256.565	17923.12
262.5	17202.12
268.429	16587.46
274.351	16085.79
280.267	15614.79
286.176	15143.79
292.079	14789.79
297.975	14421.79
303.865	14075.79
309.748	13758.46
315.625	13498.12
321.495	13233.79
327.359	13125.79
333.217	12962.12
339.068	12855.79
344.912	12795.12
350.751	12767.79
356.583	12708.79
362.408	12654.79
368.227	12634.79
374.04	12678.12
379.847	12688.79
385.647	12711.12
391.44	12805.12
397.228	12856.12
403.009	12864.13
408.784	12924.79
414.553	12945.13
420.315	12998.46
426.071	13029.46
431.821	13023.13
437.565	13011.46
443.302	12970.46
449.033	12932.79
454.758	12858.46
460.477	12749.12
466.189	12683.12
471.896	12605.12
477.596	12473.13
483.29	12431.46
488.978	12363.79
494.66	12349.79
500.335	12140.46
506.005	11880.46
511.668	11546.13
517.325	11269.13
522.977	11058.12
528.622	10882.79
534.261	10708.46
539.894	10595.79
545.521	10484.79
551.141	10470.46
556.756	10406.46
562.365	10310.46
567.968	10255.13
573.565	10160.79
579.155	10106.79
584.74	10053.46
590.319	9986.12
595.892	9962.13
601.459	9893.46
607.02	9838.13
612.575	9767.46
618.124	9613.79
623.667	9558.46
629.204	9436.79
634.735	9345.13
640.261	9293.46
645.781	9254.79
651.294	9245.46
656.802	9171.79
662.304	9162.46
667.8	9068.46
673.29	9120.46
678.775	9047.79
684.254	9042.46
689.726	9004.79
695.193	8930.46
700.655	8921.46
706.11	8881.13
711.56	8790.46
717.004	8736.79
722.442	8753.79
727.874	8648.46
733.301	8627.46
738.722	8608.46
744.137	8588.79
749.547	8580.79
754.951	8546.46
760.349	8560.79
765.741	8504.46
771.128	8577.12
776.509	8596.12
781.885	8589.12
787.254	8624.12
792.618	8632.13
797.977	8570.79
803.33	8506.46
808.677	8442.12
814.019	8373.12
819.355	8321.46
824.686	8271.13
830.011	8235.46
835.33	8152.79
840.644	8084.79
845.952	8158.13
851.255	8072.46
856.552	8077.12
861.844	8074.13
867.13	8109.46
872.41	8212.79
877.686	8398.12
882.955	8539.79
888.219	8421.12
893.478	8064.46
898.731	7688.12
903.979	7476.79
909.221	7365.46
914.458	7297.79
919.69	7320.46
924.916	7282.12
930.136	7262.12
935.351	7309.79
940.561	7246.12
945.766	7233.46
950.965	7188.79
956.158	7190.79
961.347	7095.79
966.529	7000.46
971.707	6874.12
976.879	6808.13
982.046	6753.79
987.208	6752.46
992.364	6729.46
997.515	6824.79
1002.66	6832.46
1007.801	6954.46
1012.936	7021.46
1018.066	7131.46
1023.19	7141.13
1028.309	7179.79
1033.423	7186.12
1038.532	7178.79
1043.636	7241.46
1048.734	7219.46
1053.827	7180.13
1058.915	7069.79
1063.998	6971.46
1069.075	6971.46
1074.147	6948.79
1079.214	7088.79
1084.276	7122.79
1089.333	7187.46
1094.385	7231.79
1099.431	7275.79
1104.472	7166.46
1109.509	7111.79
1114.54	7022.12
1119.565	6879.13
1124.586	6818.46
1129.602	6786.12
1134.613	6744.79
1139.618	6713.12
1144.619	6687.79
1149.614	6684.46
1154.604	6780.46
1159.589	6782.46
1164.57	6762.12
1169.545	6806.79
1174.515	6821.46
1179.48	6778.12
1184.44	6719.79
1189.395	6711.46
1194.345	6669.13
1199.29	6636.12
1204.23	6670.13
1209.165	6745.12
1214.095	6746.12
1219.021	6811.12
1223.941	6902.46
1228.856	6931.12
1233.766	6964.46
1238.672	6927.79
1243.572	6935.46
1248.467	6884.79
1253.358	6812.13
1258.244	6783.13
1263.124	6639.46
1268	6559.13
1272.871	6559.46
1277.737	6540.13
1282.599	6539.79
1287.455	6546.46
1292.306	6539.46
1297.153	6619.46
1301.995	6607.46
1306.832	6649.79
1311.664	6654.12
1316.491	6684.79
1321.314	6626.79
1326.132	6575.79
1330.945	6476.13
1335.753	6404.46
1340.556	6286.79
1345.354	6259.79
1350.148	6186.79
1354.937	6156.79
1359.722	6175.46
1364.501	6155.12
1369.276	6174.46
1374.046	6174.12
1378.811	6234.46
1383.572	6263.79
1388.327	6207.46
1393.079	6202.46
1397.825	6159.46
1402.567	6053.12
1407.304	6002.46
1412.036	5960.79
1416.764	5949.12
1421.487	5952.12
1426.205	5981.13
1430.919	6031.79
1435.628	6139.46
1440.333	6193.13
1445.032	6278.79
1449.727	6387.79
1454.418	6484.46
1459.104	6540.79
1463.785	6495.46
1468.462	6293.12
1473.134	6168.46
1477.802	6073.46
1482.465	6136.79
1487.123	6005.79
1491.777	6078.46
1496.426	6098.12
1501.071	6078.46
1505.711	6124.79
1510.347	6170.79
1514.978	6221.46
1519.604	6282.12
1524.226	6331.46
1528.844	6372.79
1533.457	6319.79
1538.065	6343.46
1542.669	6313.12
1547.269	6306.46
1551.864	6318.79
1556.454	6372.12
1561.041	6399.79
1565.622	6450.79
1570.199	6463.79
1574.772	6562.79
1579.34	6609.46
1583.904	6701.79
1588.464	6805.46
1593.019	6872.12
1597.569	6901.13
1602.115	6975.46
1606.657	6955.79
1611.195	6955.46
1615.728	6976.13
1620.256	7098.46
1624.78	7180.46
1629.3	7225.79
1633.816	7319.12
1638.327	7415.13
1642.834	7491.79
1647.336	7589.79
1651.834	7602.46
1656.328	7603.46
1660.817	7579.12
1665.302	7520.79
1669.783	7372.12
1674.259	7205.46
1678.732	6997.46
1683.199	6822.46
1687.663	6604.12
1692.122	6386.79
1696.577	6206.46
1701.028	6061.12
1705.474	5960.46
1709.917	5836.12
1714.355	5730.46
1718.788	5667.46
1723.218	5577.13
1727.643	5498.46
1732.064	5359.46
1736.481	5287.46
1740.893	5125.79
1745.301	5004.46
1749.705	4955.12
1754.105	4800.12
1758.501	4707.79
1762.893	4641.12
1767.28	4632.79
1771.663	4575.79
1776.042	4567.79
1780.417	4552.46
1784.787	4535.46
1789.154	4564.79
1793.516	4604.12
1797.874	4618.79
1802.228	4662.79
1806.578	4635.12
1810.924	4585.12
1815.266	4742.46
1819.603	4456.12
1823.937	4431.46
1828.266	4374.12
1832.591	4337.46
1836.913	4286.12
1841.23	4278.46
1845.543	4255.79
1849.852	4247.12
1854.156	4289.79
1858.457	4275.79
1862.754	4312.79
1867.047	4301.12
1871.335	4287.12
1875.62	4343.12
1879.9	4361.46
1884.177	4345.12
1888.449	4335.12
1892.718	4310.46
1896.982	4284.46
1901.243	4310.46
1905.499	4278.79
1909.752	4295.12
1914	4299.79
1918.245	4281.46
1922.485	4287.46
1926.722	4322.46
1930.954	4341.46
1935.183	4352.79
1939.408	4366.79
1943.628	4391.12
1947.845	4397.12
1952.058	4407.46
1956.267	4385.46
1960.472	4332.46
1964.673	4290.46
1968.87	4273.12
1973.063	4213.79
1977.252	4186.46
1981.438	4179.46
1985.619	4147.12
1989.797	4178.12
1993.971	4144.46
1998.14	4131.79
2002.306	4172.46
2006.469	4196.46
2010.627	4188.12
2014.781	4187.79
2018.932	4209.79
2023.078	4157.79
2027.221	4157.79
2031.36	4119.79
2035.495	4081.12
2039.627	4070.79
2043.754	4027.79
2047.878	4002.46
2051.998	4002.46
2056.114	4029.12
2060.226	4035.13
2064.334	4037.13
2068.439	4056.13
2072.54	4088.79
2076.637	4142.46
2080.73	4136.46
2084.82	4146.46
2088.906	4156.79
2092.988	4154.12
2097.066	4109.79
2101.14	4071.79
2105.211	4052.46
2109.278	4035.79
2113.342	4005.46
2117.401	4035.79
2121.457	4026.79
2125.509	4004.79
2129.558	3949.46
2133.602	3949.79
2137.643	3950.12
2141.681	3961.79
2145.714	3952.13
2149.744	3909.46
2153.77	3909.12
2157.793	3872.13
2161.812	3847.13
2165.827	3843.12
2169.838	3727.79
2173.846	3686.79
2177.851	3655.46
2181.851	3588.46
2185.848	3571.46
2189.841	3520.46
2193.831	3520.79
2197.817	3492.46
2201.799	3467.12
2205.778	3479.46
2209.753	3499.79
2213.725	3470.13
2217.693	3444.79
2221.657	3478.12
2225.618	3425.46
2229.575	3466.12
2233.529	3423.46
2237.479	3435.13
2241.425	3393.46
2245.368	3358.46
2249.307	3306.79
2253.243	3265.12
2257.175	3223.79
2261.104	3190.12
2265.029	3151.46
2268.95	3109.46
2272.868	3096.12
2276.783	3060.13
2280.694	3025.79
2284.601	3008.46
2288.505	2960.13
2292.405	2938.79
2296.302	2923.46
2300.195	2893.13
2304.085	2889.12
2307.971	2816.13
2311.854	2803.79
2315.734	2728.79
2319.609	2683.79
2323.482	2695.12
2327.351	2647.79
2331.216	2633.12
2335.078	2630.79
2338.937	2626.12
2342.792	2584.79
2346.643	2571.46
2350.492	2538.46
2354.336	2556.79
2358.178	2567.79
2362.015	2579.46
2365.85	2569.12
2369.681	2588.12
2373.508	2578.46
2377.333	2550.46
2381.153	2600.46
2384.971	2593.79
2388.785	2537.12
2392.595	2516.46
2396.402	2505.46
2400.206	2510.46
2404.007	2488.79
2407.804	2456.79
2411.597	2458.12
2415.388	2462.79
2419.174	2462.12
2422.958	2454.46
2426.738	2443.79
2430.515	2415.12
2434.289	2417.79
2438.059	2435.79
2441.825	2401.46
2445.589	2350.46
2449.349	2395.13
2453.106	2335.46
2456.859	2325.79
2460.61	2315.12
2464.356	2305.12
2468.1	2306.79
2471.84	2275.79
2475.577	2270.46
2479.311	2261.79
2483.041	2237.12
2486.768	2214.46
2490.492	2239.46
2494.213	2239.46
2497.93	2272.12
2501.644	2299.79
2505.355	2261.13
2509.062	2253.79
2512.766	2251.46
2516.467	2240.46
2520.165	2246.79
2523.859	2220.79
2527.551	2161.46
2531.239	2192.12
2534.923	2180.46
2538.605	2156.46
2542.283	2141.46
2545.958	2137.79
2549.63	2114.79
2553.299	2129.46
2556.964	2101.46
2560.626	2090.46
2564.285	2075.12
2567.941	2108.13
2571.594	2069.12
2575.243	2020.12
2578.89	2051.12
2582.533	2038.46
2586.173	2029.13
2589.809	1977.79
2593.443	2037.79
2597.073	1979.79
2600.701	1956.79
2604.325	1937.13
2607.946	1989.46
2611.564	1946.12
2615.178	1927.46
2618.79	1941.46
2622.398	1963.79
2626.004	1915.79
2629.606	1892.12
2633.205	1895.79
2636.801	1840.46
2640.394	1847.79
2643.983	1812.79
2647.57	1842.79
2651.153	1789.79
2654.734	1764.13
2658.311	1789.79
2661.885	1739.79
2665.456	1732.12
2669.025	1715.79
2672.589	1727.12
2676.151	1672.12
2679.71	1675.13
2683.266	1687.12
2686.819	1663.46
2690.368	1642.79
2693.915	1615.79
2697.458	1605.12
2700.999	1583.12
2704.536	1561.13
2708.071	1566.46
2711.602	1535.79
2715.13	1565.12
2718.656	1565.46
2722.178	1560.13
2725.697	1567.12
2729.214	1545.12
2732.727	1568.79
2736.237	1594.46
2739.744	1581.79
2743.249	1605.12
2746.75	1571.79
2750.248	1585.79
2753.743	1583.46
2757.236	1563.12
2760.725	1547.12
2764.211	1614.79
2767.695	1542.13
2771.175	1531.46
2774.652	1497.46
2778.127	1509.79
2781.598	1499.46
2785.067	1505.12
2788.532	1520.79
2791.995	1507.12
2795.455	1500.46
2798.911	1508.79
2802.365	1535.79
2805.816	1526.46
2809.264	1479.12
2812.709	1523.46
2816.151	1510.79
2819.59	1551.12
2823.026	1529.13
2826.46	1539.12
2829.89	1504.46
2833.318	1561.13
2836.742	1533.12
2840.164	1545.46
2843.583	1564.79
2846.999	1574.12
2850.412	1585.12
2853.822	1603.79
2857.229	1598.79
2860.634	1619.46
2864.035	1682.46
2867.434	1649.79
2870.83	1702.46
2874.223	1733.46
2877.613	1759.46
2881	1795.79
2884.385	1831.46
2887.766	1813.12
2891.145	1848.79
2894.521	1827.79
2897.894	1837.12
2901.264	1791.79
2904.631	1811.46
2907.996	1818.12
2911.358	1781.79
2914.717	1807.79
2918.073	1850.12
2921.426	1873.12
2924.777	1895.12
2928.124	1926.79
2931.469	1960.79
2934.811	2094.46
2938.15	2072.79
2941.487	2113.79
2944.821	2051.79
2948.152	2078.46
2951.48	2043.79
2954.805	2024.46
2958.128	1988.79
2961.447	1989.79
2964.765	1979.13
2968.079	2028.46
2971.39	2034.46
2974.699	2078.46
2978.005	2095.12
2981.308	2137.46
2984.609	2208.12
2987.907	2216.12
2991.202	2255.46
2994.494	2320.12
2997.784	2322.79
3001.07	2356.79
3004.355	2376.46
3007.636	2439.79
3010.915	2450.79
3014.191	2460.13
3017.464	2518.46
3020.734	2505.13
3024.002	2528.46
3027.267	2580.13
3030.53	2591.13
3033.789	2621.12
3037.046	2685.46
3040.301	2695.79
3043.552	2749.12
3046.801	2787.12
3050.048	2831.46
3053.291	2893.46
3056.532	2962.79
3059.771	3102.46
3063.006	3132.46
3066.239	3209.13
3069.469	3293.13
3072.697	3423.13
3075.922	3494.46
3079.144	3543.79
3082.364	3596.46
3085.581	3700.12
3088.795	3722.12
3092.007	3805.46
3095.216	3909.46
3098.423	3996.46
3101.627	4099.12
3104.828	4159.12
3108.026	4249.46
3111.222	4334.12
3114.416	4403.46
3117.607	4487.46
3120.795	4594.46
3123.98	4713.46
3127.163	4832.79
3130.344	4912.12
3133.521	5025.46
3136.696	5093.12
3139.869	5196.46
3143.039	5310.79
3146.206	5338.79
3149.371	5393.79
3152.533	5453.79
3155.693	5540.46
3158.85	5557.12
3162.005	5564.46
3165.157	5585.46
3168.306	5605.79
3171.453	5614.12
3174.597	5665.13
3177.739	5715.46
3180.878	5693.79
3184.014	5679.46
3187.149	5698.46
3190.28	5677.79
3193.409	5738.79
3196.536	5756.12
3199.659	5747.46
3202.781	5777.12
3205.9	5807.13
3209.016	5808.79
3212.13	5776.46
3215.241	5749.46
3218.35	5684.13
3221.456	5674.79
3224.56	5641.79
3227.661	5567.12
3230.76	5538.12
3233.856	5497.46
3236.95	5412.79
3240.041	5434.79
3243.13	5312.12
3246.216	5303.46
3249.3	5267.46
3252.382	5246.79
3255.46	5242.12
3258.537	5442.46
3261.611	5231.79
3264.682	5189.79
3267.751	5186.79
3270.818	5183.46
3273.882	5135.12
3276.943	5100.46
3280.002	5050.79
3283.059	5044.79
3286.113	4951.12
3289.165	4915.46
3292.214	4848.46
3295.261	4764.79
3298.306	4739.79
3301.348	4619.79
3304.387	4541.12
3307.425	4456.79
3310.459	4436.79
3313.492	4341.46
3316.521	4323.12
3319.549	4266.46
3322.574	4202.46
3325.597	4208.46
3328.617	4137.46
3331.635	4130.46
3334.65	4117.46
3337.663	4081.46
3340.674	4073.46
3343.682	4063.79
3346.688	4023.79
3349.691	4026.12
3352.692	4024.79
3355.691	3958.79
3358.687	3927.13
3361.681	3894.13
3364.673	3869.46
3367.662	3802.79
3370.649	3743.12
3373.633	3717.46
3376.615	3663.13
3379.595	3663.79
3382.572	3557.12
3385.547	3541.13
3388.52	3495.13
3391.49	3430.79
3394.458	3393.12
3397.424	3331.79
3400.387	3309.79
3403.348	3268.12
3406.307	3224.46
3409.263	3218.79
3412.217	3154.46
3415.168	3119.12
3418.118	3112.46
3421.065	3081.79
3424.009	3015.46
3426.951	3009.79
3429.891	2953.79
3432.829	2909.46
3435.764	2826.46
3438.697	2808.79
3441.628	2689.79
3444.557	2663.46
3447.483	2602.46
3450.407	2502.46
3453.328	2469.79
3456.247	2383.12
3459.164	2352.46
3462.079	2239.79
3464.991	2187.46
3467.902	2123.13
3470.809	2049.46
3473.715	1983.12
3476.618	1942.79
3479.519	1880.12
3482.418	1876.46
3485.315	1806.46
3488.209	1739.46
3491.101	1692.46
3493.99	1647.46
3496.878	1605.12
3499.763	1556.12
3502.646	1502.79
3505.527	1497.46
3508.405	1428.12
3511.281	1376.13
3514.155	1295.79
3517.027	1245.46
3519.897	1222.13
3522.764	1122.12
3525.629	1092.79
3528.492	1046.12
3531.352	954.79
3534.211	910.13
3537.067	875.79
3539.921	834.12
3542.773	781.46
3545.622	741.12
3548.469	723.46
3551.315	678.46
3554.157	642.46
3556.998	592.46
3559.837	544.46
3562.673	501.79
3565.507	500.79
3568.339	481.79
3571.169	455.12
3573.996	416.13
3576.822	399.79
3579.645	390.46
3582.466	346.79
3585.285	281.79
3588.101	277.79
3590.916	260.79
3593.728	218.79
3596.538	194.79
3599.346	150.12
3602.152	167.12
3604.956	123.46
3607.757	100.12
3610.556	102.79
3613.354	61.46
3616.149	45.46
3618.942	6.79
3621.732	-12.21
3624.521	35.46
3627.307	-2.88
3630.092	-32.88
3632.874	-39.54
3635.654	-43.88
3638.432	-39.54
3641.208	-70.21
3643.982	-94.54
3646.753	-108.54
3649.523	-51.21
3652.29	-115.54
3655.055	-151.21
3657.818	-151.54
3660.579	-175.21
3663.338	-145.54
3666.095	-173.87
3668.849	-157.88
3671.602	-222.87
3674.352	-176.54
3677.101	-242.54
3679.847	-266.21
3682.591	-246.21
3685.333	-225.88
3688.073	-273.54
3690.811	-260.21
3693.547	-239.54
3696.281	-281.54
3699.013	-293.21
3701.742	-290.88
3704.47	-286.54
3707.195	-316.54
3709.919	-319.21
3712.64	-309.21
3715.359	-318.88
3718.076	-354.88
3720.792	-350.88
3723.505	-338.21
3726.216	-367.88
3728.925	-331.87
3731.632	-349.54
3734.336	-338.54
3737.039	-360.87
3739.74	-363.54
3742.439	-270.88
3745.136	-369.21
3747.83	-386.88
3750.523	-393.21
3753.213	-237.54
3755.902	-384.88
3758.589	-339.88
3761.273	-373.21
3763.956	-397.87
3766.636	-366.21
3769.315	-416.54
3771.991	-386.54
3774.665	-389.54
3777.338	-412.54
3780.008	-386.21
3782.677	-384.21
3785.343	-375.54
3788.007	-381.54
3790.67	-399.54
3793.33	-400.88
3795.989	-401.21
3798.645	-417.21
3801.299	-386.21
3803.952	-393.54
3806.602	-427.54
3809.251	-419.21
3811.897	-411.21
3814.542	-410.21
3817.184	-410.88
3819.825	-430.54
3822.463	-426.54
3825.1	-430.54
3827.735	-422.21
3830.367	-420.21
3832.998	-445.54
3835.627	-434.88
3838.253	-451.21
3840.878	-417.88
3843.501	-450.87
3846.122	-436.88
3848.741	-439.54
3851.358	-445.21
3853.973	-394.87
3856.586	-440.21
3859.197	-438.88
3861.806	-445.54
3864.414	-424.21
3867.019	-410.88
3869.622	-437.21
3872.224	-425.54
3874.823	-416.54
3877.421	-406.21
3880.016	-385.21
3882.61	-363.88
3885.202	-347.54
3887.792	-373.21
3890.38	-411.54
3892.966	-412.88
3895.55	-390.54
3898.132	-443.88
3900.713	-449.54
3903.291	-435.21
3905.868	-422.21
3908.442	-453.21
3911.015	-457.88
3913.586	-445.54
3916.155	-451.21
3918.722	-450.21
3921.287	-462.54
3923.85	-428.21
3926.411	-454.88
3928.971	-461.54
3931.528	-455.87
3934.084	-452.88
3936.638	-455.54
3939.19	-449.88
3941.74	-466.21
3944.288	-473.21
3946.834	-447.21
3949.378	-476.87
3951.921	-427.54
3954.462	-441.88
3957	-469.54
3959.537	-453.54
3962.072	-421.54
3964.606	-418.54
3967.137	-467.88
3969.667	-453.54
3972.194	-458.87
3974.72	-444.21
3977.244	-392.88
3979.766	-421.54
3982.286	-426.54
3984.805	-463.21
3987.321	-462.54
3989.836	-443.54
3992.349	-423.87
3994.86	-451.87
3997.369	-447.54
3999.877	-446.87
4002.382	-443.88
4004.886	-453.88
4007.388	-436.21
4009.888	-455.87
4012.386	-461.54
4014.883	-463.54
4017.377	-449.54
4019.87	-446.87
4022.361	-443.21
4024.85	-451.88
4027.338	-453.21
4029.823	-454.87
4032.307	-457.87
4034.789	-471.54
4037.269	-451.87
4039.747	-414.21
4042.224	-455.88
4044.699	-421.54
4047.172	-443.88
4049.643	-481.21
4052.112	-419.88
4054.58	-460.21
4057.046	-446.54
4059.51	-449.54
4061.972	-454.54
4064.432	-398.54
4066.891	-473.88
4069.348	-456.88
4071.803	-465.21
4074.256	-456.21
4076.708	-462.54
4079.158	-444.54
4081.606	-496.87
4084.052	-444.88
4086.497	-487.21
4088.939	-459.88
4091.38	-446.88
4093.819	-468.54
4096.257	-567.88
4098.693	-573.21
4101.127	-594.88
4103.559	-573.54
4105.989	-258.88
4108.418	-264.21
4110.845	-230.88
4113.27	-230.88
4115.694	-181.54
4118.115	-135.54
4120.535	-490.21
4122.954	-463.21
4125.37	-495.54
4127.785	-481.54
4130.198	-476.54
4132.609	-472.21
4135.019	-590.88
4137.427	-585.54
4139.833	-587.87
4142.237	-585.21
