Data from ice_coli_60s_RamanShift_0.txt Node
Date: Mon Mar 27 11:56:25 IDT 2017
User: aro
Spectrometer: QEPB0276
Trigger mode: 0
Integration Time (sec): 6.000000E1
Scans to average: 3
Electric dark correction enabled: true
Nonlinearity correction enabled: false
Boxcar width: 0
XAxis mode: Raman Shifts
Number of Pixels in Spectrum: 1044
>>>>>Begin Spectral Data<<<<<
160.701	-400.21
166.742	112.79
172.777	1612.12
178.805	6327.46
184.826	18052.12
190.841	38174.12
196.849	60304.12
202.85	61129.46
208.845	61128.12
214.833	61130.12
220.815	61127.46
226.789	61128.46
232.758	61127.79
238.719	61125.46
244.674	61125.12
250.623	61128.46
256.565	61123.46
262.5	61126.12
268.429	60055.12
274.351	58060.46
280.267	56512.46
286.176	55094.79
292.079	53832.79
297.975	52473.12
303.865	51195.12
309.748	50077.12
315.625	49071.12
321.495	48059.46
327.359	47351.12
333.217	46747.79
339.068	46337.79
344.912	45923.12
350.751	45608.12
356.583	45296.79
362.408	45047.12
368.227	45007.46
374.04	44934.12
379.847	44880.12
385.647	44922.79
391.44	45143.79
397.228	45250.79
403.009	45299.12
408.784	45380.46
414.553	45487.46
420.315	45601.12
426.071	45686.79
431.821	45711.79
437.565	45758.79
443.302	45641.79
449.033	45512.46
454.758	45211.46
460.477	44999.79
466.189	44788.79
471.896	44542.12
477.596	44260.79
483.29	44150.79
488.978	43912.79
494.66	43757.79
500.335	43359.46
506.005	42754.12
511.668	41999.79
517.325	41416.46
522.977	40931.79
528.622	40530.12
534.261	40129.12
539.894	39920.79
545.521	39727.79
551.141	39598.12
556.756	39450.79
562.365	39306.79
567.968	39177.79
573.565	38975.46
579.155	38800.46
584.74	38659.12
590.319	38489.79
595.892	38280.79
601.459	38146.46
607.02	37906.12
612.575	37603.12
618.124	37288.46
623.667	37038.12
629.204	36817.79
634.735	36541.79
640.261	36350.12
645.781	36137.46
651.294	36119.79
656.802	35998.46
662.304	35962.46
667.8	35824.79
673.29	35881.79
678.775	35766.12
684.254	35704.46
689.726	35599.12
695.193	35486.79
700.655	35299.79
706.11	35214.46
711.56	34990.46
717.004	34786.46
722.442	34811.46
727.874	34614.46
733.301	34507.46
738.722	34489.79
744.137	34411.12
749.547	34387.12
754.951	34402.12
760.349	34414.46
765.741	34417.12
771.128	34505.46
776.509	34566.46
781.885	34632.46
787.254	34584.46
792.618	34572.79
797.977	34390.46
803.33	34193.46
808.677	34057.12
814.019	33844.12
819.355	33631.46
824.686	33488.46
830.011	33358.12
835.33	33273.46
840.644	33249.12
845.952	33396.46
851.255	33330.79
856.552	33456.12
861.844	33657.46
867.13	33965.79
872.41	34660.12
877.686	35715.12
882.955	36559.79
888.219	36054.79
893.478	34485.46
898.731	32819.79
903.979	31931.12
909.221	31529.12
914.458	31256.13
919.69	31176.46
924.916	31212.13
930.136	31260.12
935.351	31354.79
940.561	31316.12
945.766	31336.46
950.965	31186.79
956.158	31034.12
961.347	30807.79
966.529	30449.12
971.707	29981.46
976.879	29771.46
982.046	29566.12
987.208	29583.12
992.364	29558.79
997.515	29820.79
1002.66	30102.46
1007.801	30462.79
1012.936	30805.46
1018.066	31288.79
1023.19	31475.12
1028.309	31567.12
1033.423	31716.79
1038.532	31704.46
1043.636	31867.79
1048.734	31895.46
1053.827	31709.12
1058.915	31318.46
1063.998	30842.12
1069.075	30663.46
1074.147	30741.46
1079.214	31188.79
1084.276	31526.12
1089.333	31992.13
1094.385	32200.12
1099.431	32238.79
1104.472	31945.12
1109.509	31678.79
1114.54	31271.13
1119.565	30819.79
1124.586	30460.79
1129.602	30247.46
1134.613	30044.46
1139.618	29991.79
1144.619	29920.79
1149.614	29996.79
1154.604	30206.79
1159.589	30351.46
1164.57	30355.46
1169.545	30501.79
1174.515	30493.12
1179.48	30435.46
1184.44	30246.46
1189.395	30107.46
1194.345	30004.12
1199.29	29887.79
1204.23	30012.12
1209.165	30235.13
1214.095	30357.46
1219.021	30617.46
1223.941	30965.46
1228.856	31181.46
1233.766	31305.46
1238.672	31303.13
1243.572	31256.79
1248.467	31091.79
1253.358	30783.12
1258.244	30531.12
1263.124	30108.12
1268	29765.46
1272.871	29753.79
1277.737	29718.12
1282.599	29725.46
1287.455	29785.13
1292.306	29818.46
1297.153	29958.46
1301.995	30110.79
1306.832	30225.79
1311.664	30339.79
1316.491	30432.79
1321.314	30267.13
1326.132	30034.79
1330.945	29683.12
1335.753	29227.12
1340.556	28843.46
1345.354	28496.12
1350.148	28134.12
1354.937	28021.12
1359.722	28058.12
1364.501	28162.79
1369.276	28302.12
1374.046	28375.12
1378.811	28596.46
1383.572	28642.79
1388.327	28539.79
1393.079	28379.79
1397.825	28180.46
1402.567	27791.46
1407.304	27586.12
1412.036	27504.12
1416.764	27432.12
1421.487	27503.79
1426.205	27667.79
1430.919	27857.46
1435.628	28288.46
1440.333	28626.46
1445.032	29012.46
1449.727	29395.79
1454.418	29949.46
1459.104	30208.12
1463.785	29941.79
1468.462	29178.79
1473.134	28576.46
1477.802	28149.79
1482.465	28122.12
1487.123	27920.46
1491.777	28003.12
1496.426	28079.46
1501.071	28063.12
1505.711	28229.12
1510.347	28510.12
1514.978	28696.12
1519.604	28976.12
1524.226	29118.13
1528.844	29176.79
1533.457	29148.46
1538.065	29072.46
1542.669	28967.12
1547.269	28821.79
1551.864	28816.79
1556.454	28874.46
1561.041	28990.12
1565.622	29107.46
1570.199	29248.79
1574.772	29574.79
1579.34	29855.79
1583.904	30146.46
1588.464	30504.13
1593.019	30630.79
1597.569	30693.79
1602.115	30767.13
1606.657	30772.79
1611.195	30773.12
1615.728	30749.79
1620.256	30972.79
1624.78	31273.46
1629.3	31455.13
1633.816	31724.79
1638.327	32130.12
1642.834	32459.79
1647.336	32764.12
1651.834	32860.46
1656.328	32919.79
1660.817	32791.46
1665.302	32514.13
1669.783	32119.12
1674.259	31506.79
1678.732	30860.79
1683.199	30130.46
1687.663	29331.13
1692.122	28529.46
1696.577	27833.79
1701.028	27275.79
1705.474	26869.12
1709.917	26541.79
1714.355	26239.46
1718.788	26003.46
1723.218	25826.12
1727.643	25531.46
1732.064	25167.12
1736.481	24785.46
1740.893	24288.46
1745.301	23850.12
1749.705	23520.46
1754.105	23005.46
1758.501	22681.46
1762.893	22419.79
1767.28	22295.12
1771.663	22126.79
1776.042	22072.79
1780.417	22107.79
1784.787	22150.12
1789.154	22234.46
1793.516	22379.79
1797.874	22541.12
1802.228	22615.46
1806.578	22618.79
1810.924	22432.79
1815.266	22607.46
1819.603	21936.12
1823.937	21807.79
1828.266	21597.79
1832.591	21417.12
1836.913	21206.12
1841.23	21178.12
1845.543	21098.46
1849.852	21097.46
1854.156	21122.79
1858.457	21200.12
1862.754	21330.46
1867.047	21355.12
1871.335	21385.79
1875.62	21490.12
1879.9	21488.12
1884.177	21462.46
1888.449	21377.12
1892.718	21270.46
1896.982	21193.79
1901.243	21137.46
1905.499	21064.79
1909.752	21017.79
1914	21042.12
1918.245	20976.46
1922.485	21032.79
1926.722	21095.12
1930.954	21213.46
1935.183	21282.79
1939.408	21360.12
1943.628	21463.12
1947.845	21485.79
1952.058	21512.79
1956.267	21435.79
1960.472	21260.12
1964.673	21057.46
1968.87	20908.79
1973.063	20721.46
1977.252	20600.46
1981.438	20493.79
1985.619	20412.12
1989.797	20468.12
1993.971	20355.79
1998.14	20423.12
2002.306	20499.46
2006.469	20526.46
2010.627	20578.12
2014.781	20590.46
2018.932	20567.79
2023.078	20467.46
2027.221	20350.12
2031.36	20115.79
2035.495	19958.46
2039.627	19829.12
2043.754	19631.79
2047.878	19562.46
2051.998	19552.46
2056.114	19579.79
2060.226	19584.12
2064.334	19618.79
2068.439	19673.12
2072.54	19711.46
2076.637	19894.79
2080.73	19894.79
2084.82	19984.12
2088.906	19975.79
2092.988	19949.12
2097.066	19814.12
2101.14	19682.46
2105.211	19554.79
2109.278	19483.46
2113.342	19410.12
2117.401	19409.46
2121.457	19355.46
2125.509	19374.79
2129.558	19187.12
2133.602	19161.12
2137.643	19193.79
2141.681	19191.12
2145.714	19145.46
2149.744	19007.12
2153.77	18937.46
2157.793	18849.46
2161.812	18678.46
2165.827	18558.79
2169.838	18206.79
2173.846	18042.46
2177.851	17777.12
2181.851	17608.79
2185.848	17509.46
2189.841	17307.12
2193.831	17281.46
2197.817	17179.12
2201.799	17087.79
2205.778	17137.12
2209.753	17115.12
2213.725	17088.12
2217.693	17068.46
2221.657	17140.46
2225.618	17046.46
2229.575	17043.79
2233.529	16977.46
2237.479	16959.79
2241.425	16773.12
2245.368	16603.46
2249.307	16439.12
2253.243	16294.46
2257.175	16058.79
2261.104	15931.79
2265.029	15784.12
2268.95	15600.12
2272.868	15542.12
2276.783	15413.46
2280.694	15269.12
2284.601	15139.46
2288.505	15008.79
2292.405	14847.46
2296.302	14758.46
2300.195	14609.79
2304.085	14484.12
2307.971	14249.79
2311.854	14122.46
2315.734	13873.79
2319.609	13679.79
2323.482	13561.46
2327.351	13438.13
2331.216	13343.79
2335.078	13254.12
2338.937	13197.13
2342.792	13130.79
2346.643	13133.46
2350.492	13044.12
2354.336	13091.12
2358.178	13095.46
2362.015	13153.12
2365.85	13151.13
2369.681	13199.46
2373.508	13214.12
2377.333	13165.46
2381.153	13221.12
2384.971	13154.12
2388.785	13033.46
2392.595	12984.12
2396.402	12905.79
2400.206	12867.46
2404.007	12801.46
2407.804	12709.12
2411.597	12722.12
2415.388	12701.46
2419.174	12672.79
2422.958	12658.46
2426.738	12574.46
2430.515	12517.12
2434.289	12478.79
2438.059	12435.46
2441.825	12361.79
2445.589	12242.79
2449.349	12273.79
2453.106	12122.13
2456.859	12007.13
2460.61	11962.12
2464.356	11903.12
2468.1	11848.46
2471.84	11746.46
2475.577	11693.12
2479.311	11714.79
2483.041	11685.12
2486.768	11600.79
2490.492	11662.12
2494.213	11706.79
2497.93	11711.12
2501.644	11748.79
2505.355	11672.79
2509.062	11683.46
2512.766	11600.79
2516.467	11580.46
2520.165	11582.46
2523.859	11494.46
2527.551	11284.79
2531.239	11303.12
2534.923	11204.12
2538.605	11116.79
2542.283	11097.79
2545.958	11029.46
2549.63	10996.12
2553.299	10988.46
2556.964	10907.79
2560.626	10816.46
2564.285	10734.12
2567.941	10784.46
2571.594	10706.12
2575.243	10598.46
2578.89	10607.46
2582.533	10534.46
2586.173	10463.12
2589.809	10372.79
2593.443	10448.12
2597.073	10321.12
2600.701	10271.79
2604.325	10227.12
2607.946	10256.12
2611.564	10178.46
2615.178	10156.12
2618.79	10160.12
2622.398	10153.46
2626.004	10039.46
2629.606	9975.12
2633.205	9918.79
2636.801	9775.79
2640.394	9690.12
2643.983	9582.46
2647.57	9580.79
2651.153	9453.12
2654.734	9342.12
2658.311	9322.79
2661.885	9187.79
2665.456	9114.79
2669.025	9057.12
2672.589	9069.79
2676.151	8932.46
2679.71	8878.79
2683.266	8892.46
2686.819	8768.12
2690.368	8676.46
2693.915	8556.46
2697.458	8485.79
2700.999	8370.12
2704.536	8288.46
2708.071	8235.79
2711.602	8168.79
2715.13	8147.79
2718.656	8147.46
2722.178	8134.12
2725.697	8176.79
2729.214	8114.12
2732.727	8137.12
2736.237	8186.12
2739.744	8204.79
2743.249	8224.79
2746.75	8173.79
2750.248	8181.12
2753.743	8145.79
2757.236	8080.12
2760.725	8035.12
2764.211	8115.46
2767.695	7979.79
2771.175	7911.12
2774.652	7849.46
2778.127	7837.79
2781.598	7762.46
2785.067	7745.79
2788.532	7761.79
2791.995	7728.46
2795.455	7739.46
2798.911	7712.79
2802.365	7765.46
2805.816	7720.79
2809.264	7638.46
2812.709	7688.12
2816.151	7621.12
2819.59	7673.46
2823.026	7628.79
2826.46	7623.46
2829.89	7557.79
2833.318	7659.46
2836.742	7599.79
2840.164	7652.79
2843.583	7683.46
2846.999	7685.79
2850.412	7742.46
2853.822	7806.12
2857.229	7799.46
2860.634	7890.46
2864.035	7993.12
2867.434	8007.46
2870.83	8122.12
2874.223	8224.12
2877.613	8342.46
2881	8462.79
2884.385	8540.79
2887.766	8512.12
2891.145	8558.12
2894.521	8475.79
2897.894	8415.12
2901.264	8342.46
2904.631	8344.12
2907.996	8300.46
2911.358	8273.12
2914.717	8257.79
2918.073	8330.46
2921.426	8380.79
2924.777	8494.46
2928.124	8599.12
2931.469	8813.46
2934.811	9167.46
2938.15	9264.46
2941.487	9294.12
2944.821	9112.46
2948.152	9083.79
2951.48	8936.79
2954.805	8800.12
2958.128	8685.46
2961.447	8626.79
2964.765	8586.46
2968.079	8662.46
2971.39	8630.46
2974.699	8767.46
2978.005	8876.46
2981.308	9021.79
2984.609	9161.12
2987.907	9216.79
2991.202	9287.12
2994.494	9450.12
2997.784	9458.79
3001.07	9561.46
3004.355	9614.46
3007.636	9755.79
3010.915	9764.46
3014.191	9834.46
3017.464	9890.12
3020.734	9891.79
3024.002	9919.12
3027.267	9997.12
3030.53	10064.46
3033.789	10156.46
3037.046	10264.12
3040.301	10358.79
3043.552	10494.46
3046.801	10614.79
3050.048	10785.79
3053.291	10986.79
3056.532	11211.79
3059.771	11552.12
3063.006	11728.79
3066.239	11997.79
3069.469	12263.46
3072.697	12598.79
3075.922	12828.79
3079.144	13024.46
3082.364	13179.79
3085.581	13430.46
3088.795	13591.13
3092.007	13861.46
3095.216	14137.79
3098.423	14375.79
3101.627	14653.46
3104.828	14900.79
3108.026	15133.79
3111.222	15411.79
3114.416	15651.79
3117.607	15906.12
3120.795	16205.79
3123.98	16606.46
3127.163	16933.46
3130.344	17219.12
3133.521	17580.46
3136.696	17828.46
3139.869	18163.79
3143.039	18437.46
3146.206	18598.12
3149.371	18781.79
3152.533	18918.79
3155.693	19120.12
3158.85	19162.46
3162.005	19206.12
3165.157	19255.46
3168.306	19261.46
3171.453	19310.79
3174.597	19412.79
3177.739	19519.46
3180.878	19473.46
3184.014	19488.12
3187.149	19486.79
3190.28	19531.79
3193.409	19597.46
3196.536	19631.79
3199.659	19672.12
3202.781	19702.12
3205.9	19793.79
3209.016	19770.46
3212.13	19696.79
3215.241	19592.46
3218.35	19431.46
3221.456	19302.79
3224.56	19136.46
3227.661	18896.79
3230.76	18747.79
3233.856	18614.46
3236.95	18372.46
3240.041	18317.46
3243.13	18067.46
3246.216	17954.46
3249.3	17827.46
3252.382	17722.79
3255.46	17721.79
3258.537	17961.79
3261.611	17580.79
3264.682	17443.46
3267.751	17417.12
3270.818	17393.46
3273.882	17292.12
3276.943	17197.12
3280.002	17019.79
3283.059	16906.12
3286.113	16654.79
3289.165	16507.12
3292.214	16243.79
3295.261	15979.79
3298.306	15817.13
3301.348	15475.12
3304.387	15219.46
3307.425	15019.79
3310.459	14845.46
3313.492	14605.79
3316.521	14490.79
3319.549	14295.79
3322.574	14116.79
3325.597	14044.12
3328.617	13927.46
3331.635	13819.12
3334.65	13796.13
3337.663	13665.46
3340.674	13667.46
3343.682	13565.79
3346.688	13496.79
3349.691	13442.46
3352.692	13396.12
3355.691	13240.79
3358.687	13098.46
3361.681	12983.79
3364.673	12867.46
3367.662	12702.46
3370.649	12491.46
3373.633	12342.79
3376.615	12135.79
3379.595	12121.46
3382.572	11833.12
3385.547	11715.12
3388.52	11573.12
3391.49	11388.79
3394.458	11234.46
3397.424	11051.46
3400.387	10982.12
3403.348	10827.12
3406.307	10717.46
3409.263	10661.46
3412.217	10438.46
3415.168	10369.12
3418.118	10271.46
3421.065	10171.79
3424.009	10002.12
3426.951	9933.79
3429.891	9743.46
3432.829	9564.46
3435.764	9339.46
3438.697	9214.12
3441.628	8922.79
3444.557	8759.12
3447.483	8534.79
3450.407	8267.12
3453.328	8075.46
3456.247	7858.12
3459.164	7692.46
3462.079	7374.46
3464.991	7155.79
3467.902	6959.46
3470.809	6688.79
3473.715	6505.12
3476.618	6333.46
3479.519	6163.12
3482.418	6093.79
3485.315	5879.12
3488.209	5695.12
3491.101	5501.12
3493.99	5374.12
3496.878	5206.12
3499.763	5066.46
3502.646	4889.46
3505.527	4799.12
3508.405	4596.46
3511.281	4448.46
3514.155	4195.46
3517.027	4013.79
3519.897	3889.46
3522.764	3629.12
3525.629	3503.13
3528.492	3305.46
3531.352	3093.79
3534.211	2912.13
3537.067	2781.79
3539.921	2663.12
3542.773	2473.46
3545.622	2341.46
3548.469	2252.46
3551.315	2092.46
3554.157	1996.13
3556.998	1830.79
3559.837	1709.46
3562.673	1598.79
3565.507	1558.12
3568.339	1462.79
3571.169	1385.79
3573.996	1250.46
3576.822	1186.46
3579.645	1122.46
3582.466	1013.79
3585.285	856.79
3588.101	808.79
3590.916	733.46
3593.728	633.46
3596.538	542.46
3599.346	437.12
3602.152	418.46
3604.956	319.79
3607.757	255.12
3610.556	225.46
3613.354	116.79
3616.149	67.46
3618.942	-25.88
3621.732	-85.54
3624.521	-31.54
3627.307	-117.21
3630.092	-200.88
3632.874	-232.87
3635.654	-245.88
3638.432	-254.54
3641.208	-338.88
3643.982	-389.21
3646.753	-451.54
3649.523	-349.21
3652.29	-489.21
3655.055	-574.54
3657.818	-585.21
3660.579	-658.88
3663.338	-616.21
3666.095	-678.88
3668.849	-675.21
3671.602	-800.88
3674.352	-734.21
3677.101	-871.88
3679.847	-922.88
3682.591	-884.21
3685.333	-880.54
3688.073	-976.88
3690.811	-964.21
3693.547	-945.54
3696.281	-1020.88
3699.013	-1050.54
3701.742	-1058.21
3704.47	-1045.21
3707.195	-1120.21
3709.919	-1124.88
3712.64	-1123.21
3715.359	-1141.21
3718.076	-1217.21
3720.792	-1205.88
3723.505	-1204.88
3726.216	-1258.21
3728.925	-1203.21
3731.632	-1240.54
3734.336	-1227.88
3737.039	-1269.21
3739.74	-1272.54
3742.439	-1134.54
3745.136	-1302.88
3747.83	-1336.54
3750.523	-1345.88
3753.213	-1101.21
3755.902	-1351.54
3758.589	-1276.54
3761.273	-1337.54
3763.956	-1380.88
3766.636	-1320.88
3769.315	-1417.88
3771.991	-1366.54
3774.665	-1381.54
3777.338	-1422.54
3780.008	-1379.88
3782.677	-1376.54
3785.343	-1376.21
3788.007	-1379.54
3790.67	-1417.88
3793.33	-1433.54
3795.989	-1418.21
3798.645	-1468.88
3801.299	-1403.21
3803.952	-1422.54
3806.602	-1477.88
3809.251	-1471.88
3811.897	-1462.54
3814.542	-1460.88
3817.184	-1465.54
3819.825	-1502.54
3822.463	-1497.21
3825.1	-1503.88
3827.735	-1502.21
3830.367	-1487.88
3832.998	-1535.54
3835.627	-1523.88
3838.253	-1566.88
3840.878	-1502.54
3843.501	-1565.88
3846.122	-1535.54
3848.741	-1550.88
3851.358	-1554.88
3853.973	-1475.21
3856.586	-1554.88
3859.197	-1548.21
3861.806	-1563.54
3864.414	-1526.21
3867.019	-1509.88
3869.622	-1555.21
3872.224	-1536.88
3874.823	-1518.21
3877.421	-1498.88
3880.016	-1470.21
3882.61	-1427.21
3885.202	-1390.21
3887.792	-1438.88
3890.38	-1521.88
3892.966	-1531.21
3895.55	-1488.54
3898.132	-1592.54
3900.713	-1597.21
3903.291	-1579.54
3905.868	-1552.88
3908.442	-1614.88
3911.015	-1621.54
3913.586	-1606.88
3916.155	-1617.21
3918.722	-1613.88
3921.287	-1628.88
3923.85	-1577.54
3926.411	-1624.54
3928.971	-1633.88
3931.528	-1624.21
3934.084	-1621.21
3936.638	-1627.88
3939.19	-1618.21
3941.74	-1645.88
3944.288	-1659.54
3946.834	-1600.21
3949.378	-1668.88
3951.921	-1577.88
3954.462	-1603.21
3957	-1647.54
3959.537	-1631.88
3962.072	-1571.54
3964.606	-1566.21
3967.137	-1651.88
3969.667	-1622.21
3972.194	-1627.21
3974.72	-1594.88
3977.244	-1511.21
3979.766	-1561.88
3982.286	-1553.88
3984.805	-1623.54
3987.321	-1629.21
3989.836	-1592.54
3992.349	-1563.21
3994.86	-1604.88
3997.369	-1592.54
3999.877	-1596.88
4002.382	-1586.21
4004.886	-1612.54
4007.388	-1585.88
4009.888	-1615.88
4012.386	-1626.21
4014.883	-1628.21
4017.377	-1599.54
4019.87	-1603.21
4022.361	-1591.21
4024.85	-1610.88
4027.338	-1611.88
4029.823	-1614.21
4032.307	-1635.21
4034.789	-1650.88
4037.269	-1618.21
4039.747	-1555.21
4042.224	-1632.88
4044.699	-1561.54
4047.172	-1613.54
4049.643	-1677.88
4052.112	-1569.54
4054.58	-1637.21
4057.046	-1609.21
4059.51	-1621.54
4061.972	-1622.21
4064.432	-1531.54
4066.891	-1662.54
4069.348	-1634.88
4071.803	-1649.54
4074.256	-1638.54
4076.708	-1633.88
4079.158	-1607.88
4081.606	-1701.54
4084.052	-1611.54
4086.497	-1679.21
4088.939	-1622.88
4091.38	-1614.88
4093.819	-1656.54
4096.257	-1875.88
4098.693	-1889.88
4101.127	-1924.21
4103.559	-1883.21
4105.989	-1030.88
4108.418	-1001.21
4110.845	-916.21
4113.27	-879.21
4115.694	-738.21
4118.115	-583.88
4120.535	-1688.21
4122.954	-1648.88
4125.37	-1703.88
4127.785	-1674.54
4130.198	-1659.88
4132.609	-1664.88
4135.019	-1916.88
4137.427	-1910.21
4139.833	-1914.54
4142.237	-1910.54
