Data from ice_coli_100s_RamanShift_1.txt Node
Date: Mon Mar 27 12:09:35 IDT 2017
User: aro
Spectrometer: QEPB0276
Trigger mode: 0
Integration Time (sec): 1.000000E2
Scans to average: 3
Electric dark correction enabled: true
Nonlinearity correction enabled: false
Boxcar width: 0
XAxis mode: Raman Shifts
Number of Pixels in Spectrum: 1044
>>>>>Begin Spectral Data<<<<<
160.701	-175.63
166.742	101.71
172.777	881.04
178.805	3326.71
184.826	9220.71
190.841	19293.38
196.849	30931.71
202.85	38394.38
208.845	40280.04
214.833	39140.04
220.815	37769.04
226.789	36951.71
232.758	36133.71
238.719	35358.71
244.674	34265.38
250.623	33081.71
256.565	31842.37
262.5	30616.38
268.429	29523.38
274.351	28636.71
280.267	27813.38
286.176	26948.71
292.079	26354.04
297.975	25636.38
303.865	24993.71
309.748	24487.38
315.625	24041.71
321.495	23554.71
327.359	23331.71
333.217	23063.04
339.068	22871.04
344.912	22714.38
350.751	22626.71
356.583	22537.38
362.408	22439.04
368.227	22438.04
374.04	22477.71
379.847	22509.38
385.647	22523.38
391.44	22713.04
397.228	22773.71
403.009	22795.04
408.784	22875.38
414.553	22987.38
420.315	22993.71
426.071	23117.04
431.821	23079.38
437.565	23137.38
443.302	23075.71
449.033	23000.04
454.758	22813.04
460.477	22653.04
466.189	22445.71
471.896	22353.71
477.596	22095.38
483.29	22043.04
488.978	21928.38
494.66	21873.04
500.335	21537.71
506.005	21105.04
511.668	20502.04
517.325	20053.38
522.977	19710.38
528.622	19326.04
534.261	19126.71
539.894	18924.38
545.521	18742.38
551.141	18666.04
556.756	18591.71
562.365	18453.71
567.968	18333.04
573.565	18172.04
579.155	18091.04
584.74	17995.71
590.319	17865.38
595.892	17792.38
601.459	17665.71
607.02	17575.71
612.575	17433.38
618.124	17225.38
623.667	17085.04
629.204	16893.38
634.735	16761.04
640.261	16652.71
645.781	16573.38
651.294	16519.04
656.802	16433.04
662.304	16369.04
667.8	16264.04
673.29	16330.71
678.775	16261.04
684.254	16175.04
689.726	16132.04
695.193	16047.38
700.655	15969.71
706.11	15915.38
711.56	15753.38
717.004	15687.71
722.442	15692.04
727.874	15487.71
733.301	15515.71
738.722	15468.71
744.137	15396.38
749.547	15397.04
754.951	15344.04
760.349	15365.04
765.741	15320.04
771.128	15376.37
776.509	15468.71
781.885	15446.04
787.254	15495.37
792.618	15517.71
797.977	15369.04
803.33	15283.71
808.677	15215.71
814.019	15116.71
819.355	14946.04
824.686	14849.71
830.011	14773.37
835.33	14668.37
840.644	14593.71
845.952	14687.38
851.255	14570.04
856.552	14631.04
861.844	14640.71
867.13	14802.71
872.41	15119.38
877.686	15657.04
882.955	16096.38
888.219	15825.37
893.478	15041.37
898.731	14138.71
903.979	13622.04
909.221	13415.71
914.458	13267.37
919.69	13229.38
924.916	13232.71
930.136	13214.71
935.351	13254.04
940.561	13204.38
945.766	13189.71
950.965	13066.38
956.158	13073.04
961.347	12876.38
966.529	12718.38
971.707	12500.71
976.879	12355.71
982.046	12270.71
987.208	12294.04
992.364	12255.71
997.515	12350.04
1002.66	12462.38
1007.801	12629.71
1012.936	12813.38
1018.066	13053.04
1023.19	13022.04
1028.309	13116.71
1033.423	13169.71
1038.532	13189.71
1043.636	13335.38
1048.734	13361.04
1053.827	13297.04
1058.915	13101.38
1063.998	12855.71
1069.075	12745.71
1074.147	12772.71
1079.214	13022.38
1084.276	13165.38
1089.333	13343.04
1094.385	13400.04
1099.431	13418.71
1104.472	13216.04
1109.509	13044.38
1114.54	12859.37
1119.565	12621.71
1124.586	12504.38
1129.602	12461.38
1134.613	12324.38
1139.618	12289.38
1144.619	12241.04
1149.614	12205.71
1154.604	12358.38
1159.589	12406.04
1164.57	12362.71
1169.545	12400.38
1174.515	12399.38
1179.48	12398.71
1184.44	12285.71
1189.395	12206.71
1194.345	12195.04
1199.29	12094.38
1204.23	12198.71
1209.165	12319.38
1214.095	12331.71
1219.021	12460.04
1223.941	12582.71
1228.856	12682.71
1233.766	12688.38
1238.672	12698.04
1243.572	12647.71
1248.467	12624.04
1253.358	12504.04
1258.244	12417.38
1263.124	12201.04
1268	12036.71
1272.871	12072.04
1277.737	12031.38
1282.599	12058.38
1287.455	12101.38
1292.306	12030.71
1297.153	12135.71
1301.995	12130.71
1306.832	12218.04
1311.664	12179.71
1316.491	12232.38
1321.314	12159.71
1326.132	12052.04
1330.945	11911.38
1335.753	11698.38
1340.556	11580.71
1345.354	11476.38
1350.148	11316.04
1354.937	11263.71
1359.722	11302.71
1364.501	11246.38
1369.276	11249.71
1374.046	11289.04
1378.811	11414.71
1383.572	11464.71
1388.327	11408.71
1393.079	11393.04
1397.825	11292.71
1402.567	11120.38
1407.304	11015.38
1412.036	11024.38
1416.764	10989.38
1421.487	10950.38
1426.205	11008.38
1430.919	11152.38
1435.628	11358.38
1440.333	11517.71
1445.032	11662.04
1449.727	11893.71
1454.418	12168.71
1459.104	12323.04
1463.785	12204.04
1468.462	11760.38
1473.134	11421.71
1477.802	11238.04
1482.465	11266.71
1487.123	11121.38
1491.777	11166.04
1496.426	11170.71
1501.071	11100.04
1505.711	11184.71
1510.347	11271.71
1514.978	11351.04
1519.604	11456.71
1524.226	11510.38
1528.844	11606.38
1533.457	11508.38
1538.065	11509.71
1542.669	11493.71
1547.269	11488.71
1551.864	11478.04
1556.454	11615.04
1561.041	11643.04
1565.622	11725.04
1570.199	11814.38
1574.772	11935.38
1579.34	12060.04
1583.904	12204.38
1588.464	12427.38
1593.019	12475.04
1597.569	12547.38
1602.115	12649.04
1606.657	12624.38
1611.195	12647.38
1615.728	12727.71
1620.256	12863.37
1624.78	13010.37
1629.3	13131.37
1633.816	13284.71
1638.327	13411.04
1642.834	13534.71
1647.336	13720.38
1651.834	13743.04
1656.328	13730.38
1660.817	13667.37
1665.302	13537.37
1669.783	13290.71
1674.259	12996.04
1678.732	12647.04
1683.199	12327.71
1687.663	11910.71
1692.122	11513.71
1696.577	11185.38
1701.028	10938.04
1705.474	10731.04
1709.917	10528.04
1714.355	10357.38
1718.788	10199.38
1723.218	10091.71
1727.643	9968.38
1732.064	9714.04
1736.481	9597.71
1740.893	9349.71
1745.301	9120.38
1749.705	9014.04
1754.105	8768.38
1758.501	8616.71
1762.893	8464.71
1767.28	8444.38
1771.663	8342.04
1776.042	8283.04
1780.417	8292.71
1784.787	8270.04
1789.154	8277.71
1793.516	8355.71
1797.874	8425.38
1802.228	8496.71
1806.578	8451.04
1810.924	8334.04
1815.266	8624.04
1819.603	8129.04
1823.937	8096.71
1828.266	7973.38
1832.591	7926.38
1836.913	7828.38
1841.23	7867.71
1845.543	7808.04
1849.852	7802.04
1854.156	7843.38
1858.457	7853.04
1862.754	7906.71
1867.047	7870.71
1871.335	7869.38
1875.62	7969.38
1879.9	7969.38
1884.177	7946.38
1888.449	7893.38
1892.718	7857.71
1896.982	7824.04
1901.243	7827.71
1905.499	7801.38
1909.752	7817.38
1914	7822.38
1918.245	7759.71
1922.485	7792.04
1926.722	7803.71
1930.954	7854.38
1935.183	7884.04
1939.408	7899.38
1943.628	7972.38
1947.845	7950.71
1952.058	7989.71
1956.267	7965.38
1960.472	7870.71
1964.673	7791.38
1968.87	7754.71
1973.063	7658.71
1977.252	7634.71
1981.438	7589.38
1985.619	7570.38
1989.797	7612.38
1993.971	7564.04
1998.14	7537.04
2002.306	7632.71
2006.469	7630.71
2010.627	7663.38
2014.781	7653.04
2018.932	7655.71
2023.078	7613.71
2027.221	7583.38
2031.36	7508.71
2035.495	7442.71
2039.627	7416.71
2043.754	7328.71
2047.878	7298.38
2051.998	7269.38
2056.114	7359.38
2060.226	7317.04
2064.334	7320.04
2068.439	7366.71
2072.54	7411.71
2076.637	7503.38
2080.73	7498.04
2084.82	7557.38
2088.906	7538.38
2092.988	7506.71
2097.066	7463.71
2101.14	7378.04
2105.211	7322.38
2109.278	7295.38
2113.342	7291.38
2117.401	7302.04
2121.457	7295.71
2125.509	7262.04
2129.558	7181.38
2133.602	7184.71
2137.643	7218.04
2141.681	7168.71
2145.714	7198.38
2149.744	7091.38
2153.77	7066.71
2157.793	7066.38
2161.812	7020.38
2165.827	7000.04
2169.838	6772.38
2173.846	6738.38
2177.851	6671.04
2181.851	6567.04
2185.848	6514.38
2189.841	6429.04
2193.831	6429.04
2197.817	6384.71
2201.799	6344.71
2205.778	6380.71
2209.753	6383.04
2213.725	6355.71
2217.693	6329.71
2221.657	6387.71
2225.618	6302.04
2229.575	6337.38
2233.529	6276.71
2237.479	6287.38
2241.425	6202.04
2245.368	6138.04
2249.307	6085.38
2253.243	5989.04
2257.175	5911.04
2261.104	5876.04
2265.029	5783.04
2268.95	5694.71
2272.868	5710.71
2276.783	5644.71
2280.694	5578.38
2284.601	5545.38
2288.505	5477.04
2292.405	5393.04
2296.302	5401.04
2300.195	5341.04
2304.085	5337.71
2307.971	5195.71
2311.854	5167.38
2315.734	5042.04
2319.609	4960.38
2323.482	4978.71
2327.351	4903.38
2331.216	4889.04
2335.078	4871.38
2338.937	4850.38
2342.792	4780.38
2346.643	4781.04
2350.492	4709.71
2354.336	4763.04
2358.178	4756.38
2362.015	4791.04
2365.85	4782.38
2369.681	4787.38
2373.508	4789.04
2377.333	4762.71
2381.153	4815.71
2384.971	4807.71
2388.785	4739.04
2392.595	4704.38
2396.402	4688.04
2400.206	4696.71
2404.007	4665.04
2407.804	4598.04
2411.597	4584.37
2415.388	4610.37
2419.174	4578.71
2422.958	4594.71
2426.738	4566.71
2430.515	4518.71
2434.289	4531.04
2438.059	4536.04
2441.825	4486.38
2445.589	4378.38
2449.349	4478.71
2453.106	4365.71
2456.859	4333.38
2460.61	4336.71
2464.356	4291.04
2468.1	4299.38
2471.84	4235.71
2475.577	4247.37
2479.311	4247.04
2483.041	4195.04
2486.768	4133.04
2490.492	4185.71
2494.213	4218.04
2497.93	4227.37
2501.644	4275.38
2505.355	4208.71
2509.062	4209.71
2512.766	4182.04
2516.467	4195.71
2520.165	4169.37
2523.859	4160.38
2527.551	4032.38
2531.239	4068.37
2534.923	4049.04
2538.605	3990.37
2542.283	3959.37
2545.958	3953.71
2549.63	3920.04
2553.299	3944.37
2556.964	3900.37
2560.626	3860.04
2564.285	3844.71
2567.941	3910.71
2571.594	3839.04
2575.243	3765.37
2578.89	3835.37
2582.533	3763.71
2586.173	3747.37
2589.809	3673.71
2593.443	3790.38
2597.073	3691.37
2600.701	3653.04
2604.325	3623.04
2607.946	3667.71
2611.564	3612.04
2615.178	3582.04
2618.79	3595.71
2622.398	3642.04
2626.004	3549.04
2629.606	3533.37
2633.205	3529.71
2636.801	3441.71
2640.394	3436.04
2643.983	3367.71
2647.57	3457.71
2651.153	3356.38
2654.734	3299.37
2658.311	3350.71
2661.885	3283.38
2665.456	3255.71
2669.025	3231.71
2672.589	3248.71
2676.151	3155.71
2679.71	3155.71
2683.266	3177.71
2686.819	3129.38
2690.368	3086.37
2693.915	3052.71
2697.458	3033.38
2700.999	2975.71
2704.536	2934.37
2708.071	2918.37
2711.602	2891.71
2715.13	2924.71
2718.656	2927.37
2722.178	2937.37
2725.697	2941.71
2729.214	2897.04
2732.727	2921.04
2736.237	2960.71
2739.744	2957.37
2743.249	2980.38
2746.75	2925.71
2750.248	2930.71
2753.743	2944.37
2757.236	2916.37
2760.725	2877.71
2764.211	2996.71
2767.695	2851.04
2771.175	2822.04
2774.652	2781.38
2778.127	2819.37
2781.598	2788.04
2785.067	2792.71
2788.532	2834.71
2791.995	2790.04
2795.455	2807.71
2798.911	2800.71
2802.365	2852.04
2805.816	2839.71
2809.264	2763.04
2812.709	2822.04
2816.151	2790.38
2819.59	2889.38
2823.026	2843.37
2826.46	2852.38
2829.89	2810.04
2833.318	2933.71
2836.742	2846.04
2840.164	2874.38
2843.583	2928.04
2846.999	2922.38
2850.412	2971.37
2853.822	3011.04
2857.229	2972.37
2860.634	3034.04
2864.035	3162.37
2867.434	3123.37
2870.83	3205.71
2874.223	3274.38
2877.613	3329.71
2881	3420.37
2884.385	3505.71
2887.766	3494.37
2891.145	3543.04
2894.521	3497.04
2897.894	3493.37
2901.264	3430.04
2904.631	3466.04
2907.996	3448.38
2911.358	3423.71
2914.717	3455.71
2918.073	3516.37
2921.426	3575.37
2924.777	3644.71
2928.124	3692.37
2931.469	3799.37
2934.811	4027.38
2938.15	4049.37
2941.487	4092.04
2944.821	3959.04
2948.152	3990.37
2951.48	3898.38
2954.805	3838.38
2958.128	3736.71
2961.447	3734.38
2964.765	3708.37
2968.079	3771.04
2971.39	3755.37
2974.699	3833.71
2978.005	3876.04
2981.308	3940.71
2984.609	4054.71
2987.907	4061.71
2991.202	4090.04
2994.494	4196.71
2997.784	4189.71
3001.07	4245.71
3004.355	4294.04
3007.636	4384.71
3010.915	4371.71
3014.191	4397.38
3017.464	4482.37
3020.734	4424.71
3024.002	4465.71
3027.267	4540.38
3030.53	4581.04
3033.789	4612.71
3037.046	4723.71
3040.301	4773.04
3043.552	4836.71
3046.801	4905.38
3050.048	4966.38
3053.291	5065.38
3056.532	5236.38
3059.771	5431.71
3063.006	5500.04
3066.239	5612.71
3069.469	5765.38
3072.697	5978.38
3075.922	6101.38
3079.144	6186.71
3082.364	6250.04
3085.581	6427.71
3088.795	6474.38
3092.007	6643.38
3095.216	6770.38
3098.423	6905.38
3101.627	7093.04
3104.828	7181.71
3108.026	7340.04
3111.222	7485.04
3114.416	7627.71
3117.607	7743.04
3120.795	7907.38
3123.98	8130.71
3127.163	8314.71
3130.344	8469.71
3133.521	8660.38
3136.696	8772.38
3139.869	8971.04
3143.039	9107.04
3146.206	9172.71
3149.371	9279.71
3152.533	9396.71
3155.693	9511.04
3158.85	9526.71
3162.005	9556.04
3165.157	9608.38
3168.306	9620.71
3171.453	9633.71
3174.597	9714.71
3177.739	9817.38
3180.878	9758.71
3184.014	9769.71
3187.149	9780.38
3190.28	9788.04
3193.409	9816.04
3196.536	9871.04
3199.659	9873.04
3202.781	9899.04
3205.9	9984.38
3209.016	9964.38
3212.13	9936.38
3215.241	9894.04
3218.35	9784.38
3221.456	9720.04
3224.56	9655.38
3227.661	9523.04
3230.76	9476.71
3233.856	9421.71
3236.95	9326.04
3240.041	9285.71
3243.13	9099.71
3246.216	9066.04
3249.3	9014.71
3252.382	8958.71
3255.46	8961.38
3258.537	9283.71
3261.611	8959.04
3264.682	8855.04
3267.751	8840.71
3270.818	8875.71
3273.882	8795.38
3276.943	8749.04
3280.002	8660.38
3283.059	8628.38
3286.113	8508.04
3289.165	8425.38
3292.214	8282.04
3295.261	8152.38
3298.306	8123.38
3301.348	7933.38
3304.387	7777.04
3307.425	7659.38
3310.459	7623.38
3313.492	7479.04
3316.521	7448.04
3319.549	7317.71
3322.574	7241.38
3325.597	7213.38
3328.617	7136.38
3331.635	7122.04
3334.65	7105.38
3337.663	7022.38
3340.674	7017.04
3343.682	6990.38
3346.688	6940.38
3349.691	6936.04
3352.692	6923.71
3355.691	6820.04
3358.687	6736.71
3361.681	6693.71
3364.673	6629.71
3367.662	6533.38
3370.649	6442.71
3373.633	6403.71
3376.615	6276.04
3379.595	6292.71
3382.572	6129.38
3385.547	6082.04
3388.52	6007.38
3391.49	5899.71
3394.458	5820.04
3397.424	5732.04
3400.387	5686.71
3403.348	5623.04
3406.307	5547.04
3409.263	5539.38
3412.217	5392.71
3415.168	5376.71
3418.118	5341.71
3421.065	5286.71
3424.009	5155.38
3426.951	5156.71
3429.891	5049.71
3432.829	4997.04
3435.764	4842.38
3438.697	4792.71
3441.628	4612.04
3444.557	4567.71
3447.483	4440.04
3450.407	4296.38
3453.328	4213.71
3456.247	4083.71
3459.164	4031.71
3462.079	3817.38
3464.991	3727.71
3467.902	3649.37
3470.809	3477.71
3473.715	3369.71
3476.618	3307.37
3479.519	3208.38
3482.418	3198.71
3485.315	3072.04
3488.209	2960.37
3491.101	2865.71
3493.99	2810.38
3496.878	2700.37
3499.763	2620.04
3502.646	2545.04
3505.527	2523.04
3508.405	2404.04
3511.281	2342.04
3514.155	2189.71
3517.027	2113.71
3519.897	2062.71
3522.764	1879.71
3525.629	1845.71
3528.492	1752.04
3531.352	1616.37
3534.211	1515.38
3537.067	1489.04
3539.921	1413.04
3542.773	1321.04
3545.622	1248.71
3548.469	1232.71
3551.315	1129.71
3554.157	1076.71
3556.998	981.04
3559.837	910.71
3562.673	826.71
3565.507	843.37
3568.339	788.38
3571.169	762.37
3573.996	686.71
3576.822	675.04
3579.645	646.71
3582.466	570.04
3585.285	455.71
3588.101	457.71
3590.916	423.04
3593.728	368.71
3596.538	315.71
3599.346	235.71
3602.152	259.04
3604.956	196.04
3607.757	161.04
3610.556	162.04
3613.354	85.71
3616.149	61.04
3618.942	-0.63
3621.732	-37.96
3624.521	47.71
3627.307	-25.96
3630.092	-81.29
3632.874	-99.63
3635.654	-87.96
3638.432	-88.63
3641.208	-136.96
3643.982	-177.29
3646.753	-207.63
3649.523	-114.29
3652.29	-224.63
3655.055	-279.63
3657.818	-271.29
3660.579	-319.96
3663.338	-278.29
3666.095	-306.96
3668.849	-272.96
3671.602	-396.96
3674.352	-313.63
3677.101	-427.29
3679.847	-469.96
3682.591	-433.29
3685.333	-402.63
3688.073	-480.29
3690.811	-456.96
3693.547	-418.29
3696.281	-499.29
3699.013	-518.63
3701.742	-521.96
3704.47	-502.63
3707.195	-564.29
3709.919	-562.63
3712.64	-543.96
3715.359	-555.63
3718.076	-620.29
3720.792	-605.96
3723.505	-595.96
3726.216	-643.29
3728.925	-584.96
3731.632	-618.29
3734.336	-598.96
3737.039	-632.63
3739.74	-629.29
3742.439	-481.96
3745.136	-650.96
3747.83	-676.29
3750.523	-692.63
3753.213	-436.29
3755.902	-675.29
3758.589	-600.63
3761.273	-656.29
3763.956	-701.96
3766.636	-639.63
3769.315	-731.29
3771.991	-678.63
3774.665	-689.29
3777.338	-731.96
3780.008	-684.96
3782.677	-674.63
3785.343	-663.29
3788.007	-668.63
3790.67	-698.63
3793.33	-707.96
3795.989	-695.29
3798.645	-734.63
3801.299	-676.63
3803.952	-696.63
3806.602	-741.96
3809.251	-737.96
3811.897	-724.63
3814.542	-713.63
3817.184	-722.63
3819.825	-752.63
3822.463	-748.63
3825.1	-751.29
3827.735	-741.63
3830.367	-735.63
3832.998	-782.96
3835.627	-767.63
3838.253	-795.29
3840.878	-735.63
3843.501	-795.96
3846.122	-765.63
3848.741	-777.63
3851.358	-777.63
3853.973	-699.29
3856.586	-772.96
3859.197	-769.96
3861.806	-781.96
3864.414	-743.96
3867.019	-726.63
3869.622	-768.63
3872.224	-754.29
3874.823	-734.96
3877.421	-718.29
3880.016	-681.29
3882.61	-657.29
3885.202	-617.63
3887.792	-652.96
3890.38	-736.63
3892.966	-734.96
3895.55	-693.29
3898.132	-789.96
3900.713	-786.29
3903.291	-767.29
3905.868	-743.29
3908.442	-799.63
3911.015	-803.29
3913.586	-789.96
3916.155	-799.29
3918.722	-793.63
3921.287	-809.29
3923.85	-756.29
3926.411	-794.63
3928.971	-810.96
3931.528	-801.96
3934.084	-792.63
3936.638	-799.96
3939.19	-789.63
3941.74	-823.63
3944.288	-827.63
3946.834	-775.63
3949.378	-835.29
3951.921	-756.29
3954.462	-779.29
3957	-822.29
3959.537	-801.96
3962.072	-750.63
3964.606	-741.96
3967.137	-822.63
3969.667	-802.63
3972.194	-805.63
3974.72	-783.63
3977.244	-694.63
3979.766	-749.63
3982.286	-750.63
3984.805	-808.63
3987.321	-813.29
3989.836	-785.29
3992.349	-750.29
3994.86	-796.96
3997.369	-780.29
3999.877	-784.29
4002.382	-780.63
4004.886	-800.63
4007.388	-768.29
4009.888	-804.96
4012.386	-812.96
4014.883	-816.96
4017.377	-785.29
4019.87	-785.63
4022.361	-777.96
4024.85	-790.96
4027.338	-793.29
4029.823	-801.29
4032.307	-814.63
4034.789	-823.63
4037.269	-802.29
4039.747	-735.29
4042.224	-804.96
4044.699	-744.96
4047.172	-783.96
4049.643	-846.96
4052.112	-739.29
4054.58	-811.63
4057.046	-782.96
4059.51	-792.63
4061.972	-793.63
4064.432	-696.29
4066.891	-838.63
4069.348	-808.29
4071.803	-824.63
4074.256	-814.29
4076.708	-811.29
4079.158	-781.29
4081.606	-871.96
4084.052	-785.96
4086.497	-853.96
4088.939	-802.96
4091.38	-785.63
4093.819	-826.96
4096.257	-998.96
4098.693	-1009.63
4101.127	-1045.63
4103.559	-1007.96
4105.989	-458.96
4108.418	-464.63
4110.845	-408.96
4113.27	-406.29
4115.694	-326.96
4118.115	-242.29
4120.535	-861.96
4122.954	-817.96
4125.37	-875.96
4127.785	-847.29
4130.198	-835.63
4132.609	-835.63
4135.019	-1040.63
4137.427	-1031.29
4139.833	-1036.96
4142.237	-1024.96
