Data from ice_coli_30s_RamanShift_2.txt Node
Date: Mon Mar 27 11:50:20 IDT 2017
User: aro
Spectrometer: QEPB0276
Trigger mode: 0
Integration Time (sec): 3.000000E1
Scans to average: 3
Electric dark correction enabled: true
Nonlinearity correction enabled: false
Boxcar width: 0
XAxis mode: Raman Shifts
Number of Pixels in Spectrum: 1044
>>>>>Begin Spectral Data<<<<<
160.701	-50.54
166.742	26.46
172.777	246.46
178.805	921.79
184.826	2544.12
190.841	5303.46
196.849	8450.12
202.85	10493.13
208.845	10996.79
214.833	10681.12
220.815	10335.46
226.789	10061.13
232.758	9849.79
238.719	9615.13
244.674	9339.79
250.623	8990.79
256.565	8648.13
262.5	8313.12
268.429	8044.12
274.351	7794.12
280.267	7554.79
286.176	7350.12
292.079	7145.12
297.975	6969.46
303.865	6802.12
309.748	6666.12
315.625	6555.79
321.495	6410.46
327.359	6336.12
333.217	6283.12
339.068	6239.79
344.912	6222.79
350.751	6196.12
356.583	6165.46
362.408	6121.46
368.227	6150.79
374.04	6143.79
379.847	6192.12
385.647	6195.46
391.44	6228.79
397.228	6253.12
403.009	6264.46
408.784	6277.46
414.553	6288.12
420.315	6302.79
426.071	6330.12
431.821	6324.46
437.565	6304.79
443.302	6310.46
449.033	6285.12
454.758	6227.79
460.477	6188.46
466.189	6163.12
471.896	6132.12
477.596	6066.12
483.29	6044.46
488.978	6012.79
494.66	5990.79
500.335	5904.12
506.005	5776.79
511.668	5605.12
517.325	5481.79
522.977	5356.46
528.622	5260.79
534.261	5202.79
539.894	5147.12
545.521	5102.79
551.141	5085.79
556.756	5042.12
562.365	5013.12
567.968	4971.79
573.565	4945.12
579.155	4901.12
584.74	4883.79
590.319	4842.46
595.892	4824.46
601.459	4795.46
607.02	4764.79
612.575	4730.12
618.124	4661.12
623.667	4630.12
629.204	4576.79
634.735	4541.12
640.261	4505.46
645.781	4482.12
651.294	4463.12
656.802	4447.46
662.304	4426.12
667.8	4391.12
673.29	4411.46
678.775	4380.79
684.254	4384.79
689.726	4375.46
695.193	4320.79
700.655	4302.12
706.11	4292.46
711.56	4261.12
717.004	4230.79
722.442	4224.12
727.874	4182.46
733.301	4189.79
738.722	4163.79
744.137	4154.46
749.547	4153.12
754.951	4151.12
760.349	4132.12
765.741	4119.46
771.128	4151.12
776.509	4167.12
781.885	4169.12
787.254	4178.12
792.618	4162.46
797.977	4149.79
803.33	4123.46
808.677	4098.46
814.019	4054.79
819.355	4005.46
824.686	3985.46
830.011	3960.12
835.33	3933.46
840.644	3898.79
845.952	3936.12
851.255	3887.46
856.552	3879.79
861.844	3867.46
867.13	3880.12
872.41	3896.46
877.686	3958.46
882.955	3981.46
888.219	3911.79
893.478	3800.46
898.731	3669.12
903.979	3579.46
909.221	3541.46
914.458	3498.12
919.69	3497.79
924.916	3491.79
930.136	3491.12
935.351	3513.79
940.561	3510.79
945.766	3491.46
950.965	3460.46
956.158	3451.12
961.347	3398.79
966.529	3351.46
971.707	3301.46
976.879	3269.79
982.046	3252.79
987.208	3256.46
992.364	3247.12
997.515	3271.79
1002.66	3272.12
1007.801	3339.12
1012.936	3370.12
1018.066	3419.79
1023.19	3417.46
1028.309	3413.79
1033.423	3436.46
1038.532	3433.79
1043.636	3438.46
1048.734	3417.12
1053.827	3397.79
1058.915	3363.12
1063.998	3323.12
1069.075	3295.12
1074.147	3302.12
1079.214	3344.12
1084.276	3377.12
1089.333	3408.46
1094.385	3439.12
1099.431	3451.46
1104.472	3415.12
1109.509	3391.79
1114.54	3336.79
1119.565	3290.12
1124.586	3270.79
1129.602	3243.79
1134.613	3215.79
1139.618	3212.46
1144.619	3193.46
1149.614	3193.46
1154.604	3212.12
1159.589	3238.79
1164.57	3230.46
1169.545	3249.12
1174.515	3243.79
1179.48	3246.12
1184.44	3216.46
1189.395	3189.12
1194.345	3204.12
1199.29	3178.12
1204.23	3196.79
1209.165	3225.46
1214.095	3228.12
1219.021	3246.46
1223.941	3288.46
1228.856	3314.79
1233.766	3318.79
1238.672	3338.12
1243.572	3301.46
1248.467	3296.46
1253.358	3240.46
1258.244	3235.79
1263.124	3156.46
1268	3129.12
1272.871	3120.79
1277.737	3090.46
1282.599	3112.12
1287.455	3099.79
1292.306	3105.12
1297.153	3135.79
1301.995	3150.46
1306.832	3151.79
1311.664	3166.79
1316.491	3175.12
1321.314	3152.12
1326.132	3128.79
1330.945	3092.79
1335.753	3049.46
1340.556	3021.46
1345.354	2988.79
1350.148	2960.79
1354.937	2951.46
1359.722	2949.79
1364.501	2946.46
1369.276	2948.12
1374.046	2944.46
1378.811	2984.79
1383.572	2980.12
1388.327	2964.46
1393.079	2967.46
1397.825	2936.12
1402.567	2870.46
1407.304	2848.12
1412.036	2837.46
1416.764	2822.46
1421.487	2817.46
1426.205	2828.79
1430.919	2846.12
1435.628	2911.79
1440.333	2937.79
1445.032	2964.46
1449.727	3007.12
1454.418	3030.12
1459.104	3045.46
1463.785	3031.12
1468.462	2964.79
1473.134	2930.12
1477.802	2884.79
1482.465	2893.46
1487.123	2869.79
1491.777	2891.79
1496.426	2901.46
1501.071	2907.46
1505.711	2931.46
1510.347	2964.12
1514.978	2985.12
1519.604	3020.79
1524.226	3032.46
1528.844	3053.46
1533.457	3034.79
1538.065	3045.12
1542.669	3024.12
1547.269	3021.46
1551.864	3021.12
1556.454	3055.12
1561.041	3045.46
1565.622	3086.46
1570.199	3089.46
1574.772	3124.79
1579.34	3177.12
1583.904	3206.46
1588.464	3251.46
1593.019	3280.12
1597.569	3302.79
1602.115	3330.79
1606.657	3332.46
1611.195	3330.79
1615.728	3349.46
1620.256	3403.46
1624.78	3443.79
1629.3	3464.12
1633.816	3520.46
1638.327	3574.46
1642.834	3592.46
1647.336	3632.46
1651.834	3655.12
1656.328	3672.12
1660.817	3632.79
1665.302	3609.46
1669.783	3543.46
1674.259	3452.79
1678.732	3384.79
1683.199	3278.46
1687.663	3177.46
1692.122	3094.79
1696.577	2997.12
1701.028	2925.12
1705.474	2875.46
1709.917	2825.46
1714.355	2769.46
1718.788	2711.12
1723.218	2689.12
1727.643	2642.79
1732.064	2564.12
1736.481	2536.12
1740.893	2455.46
1745.301	2402.46
1749.705	2365.12
1754.105	2302.79
1758.501	2258.46
1762.893	2205.79
1767.28	2216.46
1771.663	2186.79
1776.042	2180.12
1780.417	2173.46
1784.787	2168.46
1789.154	2182.46
1793.516	2201.46
1797.874	2217.46
1802.228	2249.79
1806.578	2232.46
1810.924	2198.79
1815.266	2273.79
1819.603	2124.46
1823.937	2124.79
1828.266	2089.12
1832.591	2079.46
1836.913	2030.79
1841.23	2050.46
1845.543	2049.79
1849.852	2031.12
1854.156	2039.12
1858.457	2045.79
1862.754	2066.12
1867.047	2066.12
1871.335	2046.12
1875.62	2074.79
1879.9	2079.12
1884.177	2074.79
1888.449	2059.79
1892.718	2048.46
1896.982	2049.46
1901.243	2066.79
1905.499	2041.12
1909.752	2060.46
1914	2075.12
1918.245	2057.46
1922.485	2068.79
1926.722	2074.12
1930.954	2094.79
1935.183	2106.79
1939.408	2100.79
1943.628	2121.12
1947.845	2113.12
1952.058	2110.46
1956.267	2105.79
1960.472	2077.79
1964.673	2058.46
1968.87	2030.79
1973.063	2026.12
1977.252	2004.46
1981.438	1986.46
1985.619	1989.12
1989.797	2006.46
1993.971	1982.79
1998.14	1980.12
2002.306	1990.12
2006.469	1989.46
2010.627	1995.12
2014.781	2000.79
2018.932	2012.12
2023.078	1991.12
2027.221	1974.46
2031.36	1968.46
2035.495	1956.46
2039.627	1930.12
2043.754	1921.79
2047.878	1904.79
2051.998	1908.46
2056.114	1932.12
2060.226	1929.46
2064.334	1944.12
2068.439	1947.46
2072.54	1959.79
2076.637	1982.79
2080.73	1985.79
2084.82	1996.79
2088.906	1998.46
2092.988	1991.12
2097.066	1970.46
2101.14	1956.46
2105.211	1944.79
2109.278	1943.79
2113.342	1933.12
2117.401	1931.12
2121.457	1921.46
2125.509	1913.79
2129.558	1898.79
2133.602	1884.79
2137.643	1885.46
2141.681	1893.12
2145.714	1882.79
2149.744	1872.12
2153.77	1861.79
2157.793	1851.79
2161.812	1837.12
2165.827	1832.46
2169.838	1782.79
2173.846	1763.12
2177.851	1730.46
2181.851	1706.79
2185.848	1696.12
2189.841	1680.79
2193.831	1679.46
2197.817	1656.46
2201.799	1648.12
2205.778	1661.12
2209.753	1667.46
2213.725	1652.12
2217.693	1644.79
2221.657	1664.79
2225.618	1628.46
2229.575	1652.12
2233.529	1614.46
2237.479	1626.46
2241.425	1615.79
2245.368	1592.79
2249.307	1583.46
2253.243	1556.79
2257.175	1537.46
2261.104	1520.12
2265.029	1498.79
2268.95	1480.79
2272.868	1468.79
2276.783	1460.46
2280.694	1437.12
2284.601	1426.46
2288.505	1418.79
2292.405	1387.12
2296.302	1389.12
2300.195	1357.46
2304.085	1371.79
2307.971	1324.12
2311.854	1323.79
2315.734	1291.12
2319.609	1272.46
2323.482	1260.79
2327.351	1255.79
2331.216	1242.79
2335.078	1235.46
2338.937	1231.79
2342.792	1217.12
2346.643	1213.79
2350.492	1194.12
2354.336	1199.46
2358.178	1193.79
2362.015	1212.79
2365.85	1206.12
2369.681	1202.12
2373.508	1204.12
2377.333	1196.12
2381.153	1216.79
2384.971	1216.12
2388.785	1176.46
2392.595	1187.79
2396.402	1167.46
2400.206	1179.12
2404.007	1163.46
2407.804	1142.79
2411.597	1149.12
2415.388	1148.79
2419.174	1140.12
2422.958	1146.12
2426.738	1139.46
2430.515	1121.12
2434.289	1127.46
2438.059	1130.46
2441.825	1119.12
2445.589	1092.79
2449.349	1125.12
2453.106	1099.46
2456.859	1085.79
2460.61	1086.12
2464.356	1079.79
2468.1	1084.46
2471.84	1066.79
2475.577	1056.79
2479.311	1061.12
2483.041	1047.79
2486.768	1034.79
2490.492	1052.12
2494.213	1053.12
2497.93	1060.46
2501.644	1071.12
2505.355	1059.79
2509.062	1061.12
2512.766	1054.12
2516.467	1070.12
2520.165	1050.12
2523.859	1047.46
2527.551	1013.12
2531.239	1027.12
2534.923	1025.12
2538.605	1005.79
2542.283	1004.12
2545.958	1002.12
2549.63	995.12
2553.299	1003.79
2556.964	977.79
2560.626	977.79
2564.285	973.79
2567.941	987.12
2571.594	967.46
2575.243	954.46
2578.89	968.79
2582.533	949.79
2586.173	947.12
2589.809	925.46
2593.443	959.12
2597.073	931.12
2600.701	919.46
2604.325	917.12
2607.946	917.79
2611.564	912.46
2615.178	905.79
2618.79	915.79
2622.398	917.12
2626.004	897.46
2629.606	889.79
2633.205	885.46
2636.801	864.79
2640.394	859.79
2643.983	847.46
2647.57	849.79
2651.153	837.12
2654.734	821.79
2658.311	828.79
2661.885	801.46
2665.456	797.46
2669.025	798.12
2672.589	802.79
2676.151	783.12
2679.71	780.46
2683.266	782.46
2686.819	774.46
2690.368	766.12
2693.915	754.79
2697.458	752.46
2700.999	736.12
2704.536	725.12
2708.071	717.79
2711.602	716.79
2715.13	726.12
2718.656	723.12
2722.178	719.12
2725.697	733.79
2729.214	715.12
2732.727	723.12
2736.237	733.46
2739.744	731.12
2743.249	748.46
2746.75	732.79
2750.248	738.12
2753.743	738.79
2757.236	735.46
2760.725	721.46
2764.211	760.46
2767.695	718.79
2771.175	712.12
2774.652	707.46
2778.127	709.79
2781.598	695.79
2785.067	699.46
2788.532	714.46
2791.995	703.46
2795.455	712.46
2798.911	704.79
2802.365	716.79
2805.816	709.46
2809.264	695.46
2812.709	714.12
2816.151	696.46
2819.59	723.79
2823.026	704.79
2826.46	709.46
2829.89	705.12
2833.318	725.46
2836.742	714.79
2840.164	724.79
2843.583	726.12
2846.999	729.46
2850.412	740.79
2853.822	746.79
2857.229	737.12
2860.634	745.46
2864.035	778.79
2867.434	756.12
2870.83	792.46
2874.223	796.12
2877.613	801.79
2881	820.46
2884.385	825.46
2887.766	817.79
2891.145	835.46
2894.521	827.12
2897.894	825.12
2901.264	812.46
2904.631	825.79
2907.996	815.79
2911.358	815.46
2914.717	816.79
2918.073	838.79
2921.426	854.12
2924.777	866.79
2928.124	865.79
2931.469	889.12
2934.811	928.12
2938.15	930.79
2941.487	949.12
2944.821	929.12
2948.152	942.12
2951.48	934.79
2954.805	927.46
2958.128	920.12
2961.447	919.46
2964.765	924.79
2968.079	945.46
2971.39	946.46
2974.699	977.12
2978.005	985.12
2981.308	1006.79
2984.609	1032.46
2987.907	1047.79
2991.202	1057.79
2994.494	1088.79
2997.784	1087.12
3001.07	1120.12
3004.355	1145.12
3007.636	1176.46
3010.915	1174.79
3014.191	1192.79
3017.464	1213.79
3020.734	1206.46
3024.002	1220.46
3027.267	1239.12
3030.53	1246.12
3033.789	1261.46
3037.046	1301.12
3040.301	1307.79
3043.552	1332.79
3046.801	1350.79
3050.048	1378.79
3053.291	1409.79
3056.532	1434.12
3059.771	1503.46
3063.006	1535.12
3066.239	1558.12
3069.469	1613.46
3072.697	1671.46
3075.922	1704.46
3079.144	1729.46
3082.364	1747.79
3085.581	1816.12
3088.795	1817.12
3092.007	1859.79
3095.216	1911.12
3098.423	1951.79
3101.627	2006.79
3104.828	2033.79
3108.026	2080.12
3111.222	2127.46
3114.416	2167.12
3117.607	2198.12
3120.795	2265.46
3123.98	2311.79
3127.163	2383.12
3130.344	2420.46
3133.521	2470.46
3136.696	2506.12
3139.869	2569.12
3143.039	2613.79
3146.206	2613.12
3149.371	2653.46
3152.533	2688.79
3155.693	2732.12
3158.85	2732.12
3162.005	2720.79
3165.157	2747.46
3168.306	2764.12
3171.453	2763.46
3174.597	2794.79
3177.739	2808.12
3180.878	2802.12
3184.014	2809.46
3187.149	2798.46
3190.28	2797.79
3193.409	2819.46
3196.536	2831.79
3199.659	2835.12
3202.781	2844.46
3205.9	2858.79
3209.016	2849.46
3212.13	2843.12
3215.241	2837.46
3218.35	2812.46
3221.456	2795.46
3224.56	2775.79
3227.661	2736.46
3230.76	2727.12
3233.856	2708.46
3236.95	2673.79
3240.041	2677.46
3243.13	2619.79
3246.216	2609.46
3249.3	2597.46
3252.382	2589.46
3255.46	2603.12
3258.537	2680.12
3261.611	2575.12
3264.682	2551.46
3267.751	2550.46
3270.818	2556.46
3273.882	2545.79
3276.943	2532.12
3280.002	2488.79
3283.059	2478.46
3286.113	2448.46
3289.165	2412.46
3292.214	2385.12
3295.261	2348.79
3298.306	2321.46
3301.348	2272.46
3304.387	2237.12
3307.425	2203.79
3310.459	2190.79
3313.492	2141.79
3316.521	2125.79
3319.549	2102.12
3322.574	2068.46
3325.597	2069.79
3328.617	2032.79
3331.635	2031.46
3334.65	2032.79
3337.663	2003.79
3340.674	2011.46
3343.682	1992.46
3346.688	1987.46
3349.691	1987.12
3352.692	1980.79
3355.691	1952.46
3358.687	1922.79
3361.681	1923.79
3364.673	1893.79
3367.662	1874.79
3370.649	1832.12
3373.633	1832.46
3376.615	1802.12
3379.595	1816.46
3382.572	1740.12
3385.547	1733.79
3388.52	1722.79
3391.49	1687.79
3394.458	1660.46
3397.424	1641.46
3400.387	1628.12
3403.348	1616.12
3406.307	1591.12
3409.263	1582.46
3412.217	1548.12
3415.168	1543.12
3418.118	1519.79
3421.065	1517.79
3424.009	1480.79
3426.951	1480.12
3429.891	1460.46
3432.829	1435.79
3435.764	1392.12
3438.697	1386.79
3441.628	1332.79
3444.557	1314.12
3447.483	1275.12
3450.407	1241.46
3453.328	1211.12
3456.247	1182.79
3459.164	1160.46
3462.079	1108.46
3464.991	1082.46
3467.902	1056.46
3470.809	1007.79
3473.715	977.79
3476.618	956.12
3479.519	922.79
3482.418	927.46
3485.315	896.79
3488.209	862.12
3491.101	824.46
3493.99	815.79
3496.878	791.46
3499.763	761.79
3502.646	748.46
3505.527	734.46
3508.405	701.46
3511.281	677.46
3514.155	634.12
3517.027	615.12
3519.897	601.12
3522.764	559.79
3525.629	536.12
3528.492	518.12
3531.352	474.79
3534.211	447.79
3537.067	432.46
3539.921	413.79
3542.773	388.46
3545.622	368.12
3548.469	361.79
3551.315	334.46
3554.157	316.12
3556.998	287.12
3559.837	269.12
3562.673	247.12
3565.507	250.79
3568.339	235.12
3571.169	224.79
3573.996	203.46
3576.822	194.79
3579.645	190.12
3582.466	167.46
3585.285	138.12
3588.101	137.79
3590.916	130.46
3593.728	112.79
3596.538	94.12
3599.346	79.79
3602.152	82.12
3604.956	63.46
3607.757	48.79
3610.556	49.12
3613.354	29.12
3616.149	25.46
3618.942	5.12
3621.732	-7.54
3624.521	13.46
3627.307	-8.88
3630.092	-19.21
3632.874	-22.54
3635.654	-23.21
3638.432	-23.54
3641.208	-40.88
3643.982	-45.21
3646.753	-56.21
3649.523	-28.88
3652.29	-60.21
3655.055	-74.88
3657.818	-76.88
3660.579	-88.88
3663.338	-76.21
3666.095	-85.88
3668.849	-76.88
3671.602	-112.54
3674.352	-89.88
3677.101	-121.88
3679.847	-132.88
3682.591	-123.21
3685.333	-114.88
3688.073	-135.54
3690.811	-129.54
3693.547	-120.21
3696.281	-139.54
3699.013	-147.21
3701.742	-146.88
3704.47	-140.21
3707.195	-158.21
3709.919	-154.88
3712.64	-151.54
3715.359	-161.88
3718.076	-173.54
3720.792	-172.21
3723.505	-168.54
3726.216	-181.21
3728.925	-166.21
3731.632	-172.54
3734.336	-165.54
3737.039	-181.21
3739.74	-181.54
3742.439	-143.54
3745.136	-185.54
3747.83	-190.88
3750.523	-195.88
3753.213	-123.21
3755.902	-190.21
3758.589	-169.21
3761.273	-188.21
3763.956	-195.21
3766.636	-176.54
3769.315	-206.88
3771.991	-191.88
3774.665	-196.88
3777.338	-202.54
3780.008	-189.21
3782.677	-186.88
3785.343	-189.21
3788.007	-187.21
3790.67	-199.54
3793.33	-201.21
3795.989	-196.88
3798.645	-208.54
3801.299	-191.21
3803.952	-198.88
3806.602	-212.54
3809.251	-208.88
3811.897	-206.54
3814.542	-203.54
3817.184	-204.21
3819.825	-211.21
3822.463	-207.88
3825.1	-213.54
3827.735	-209.54
3830.367	-206.21
3832.998	-219.54
3835.627	-215.21
3838.253	-222.21
3840.878	-207.21
3843.501	-224.54
3846.122	-215.54
3848.741	-218.88
3851.358	-220.21
3853.973	-199.54
3856.586	-216.88
3859.197	-215.54
3861.806	-220.54
3864.414	-211.21
3867.019	-207.54
3869.622	-216.88
3872.224	-210.88
3874.823	-205.21
3877.421	-202.88
3880.016	-189.88
3882.61	-182.88
3885.202	-173.54
3887.792	-185.54
3890.38	-203.21
3892.966	-202.21
3895.55	-191.88
3898.132	-218.21
3900.713	-219.21
3903.291	-216.21
3905.868	-209.21
3908.442	-224.88
3911.015	-224.88
3913.586	-217.88
3916.155	-224.88
3918.722	-224.88
3921.287	-224.88
3923.85	-216.21
3926.411	-225.21
3928.971	-226.88
3931.528	-227.54
3934.084	-225.88
3936.638	-224.54
3939.19	-222.88
3941.74	-227.54
3944.288	-229.88
3946.834	-222.54
3949.378	-232.54
3951.921	-212.54
3954.462	-219.54
3957	-229.21
3959.537	-227.21
3962.072	-212.21
3964.606	-209.21
3967.137	-231.54
3969.667	-223.54
3972.194	-222.21
3974.72	-219.88
3977.244	-193.21
3979.766	-209.21
3982.286	-211.21
3984.805	-228.88
3987.321	-231.88
3989.836	-218.88
3992.349	-211.54
3994.86	-222.21
3997.369	-219.88
3999.877	-219.21
4002.382	-219.21
4004.886	-224.88
4007.388	-217.21
4009.888	-225.21
4012.386	-227.88
4014.883	-226.54
4017.377	-219.21
4019.87	-218.54
4022.361	-218.21
4024.85	-221.54
4027.338	-224.54
4029.823	-223.88
4032.307	-227.54
4034.789	-230.21
4037.269	-225.21
4039.747	-207.21
4042.224	-228.54
4044.699	-214.21
4047.172	-217.88
4049.643	-235.88
4052.112	-207.88
4054.58	-228.88
4057.046	-220.21
4059.51	-222.54
4061.972	-225.54
4064.432	-200.88
4066.891	-233.88
4069.348	-225.88
4071.803	-227.88
4074.256	-223.88
4076.708	-227.54
4079.158	-216.88
4081.606	-245.21
4084.052	-219.54
4086.497	-240.21
4088.939	-226.21
4091.38	-221.88
4093.819	-231.21
4096.257	-276.54
4098.693	-279.54
4101.127	-288.54
4103.559	-278.21
4105.989	-129.88
4108.418	-126.54
4110.845	-113.21
4113.27	-113.88
4115.694	-92.88
4118.115	-70.88
4120.535	-237.54
4122.954	-230.21
4125.37	-243.21
4127.785	-237.21
4130.198	-233.21
4132.609	-231.21
4135.019	-286.54
4137.427	-284.54
4139.833	-288.54
4142.237	-284.54
