Data from ice_coli_100s_RamanShift_2.txt Node
Date: Mon Mar 27 12:14:49 IDT 2017
User: aro
Spectrometer: QEPB0276
Trigger mode: 0
Integration Time (sec): 1.000000E2
Scans to average: 3
Electric dark correction enabled: true
Nonlinearity correction enabled: false
Boxcar width: 0
XAxis mode: Raman Shifts
Number of Pixels in Spectrum: 1044
>>>>>Begin Spectral Data<<<<<
160.701	-168.88
166.742	96.46
172.777	889.13
178.805	3322.12
184.826	9225.46
190.841	19356.79
196.849	31067.46
202.85	38631.46
208.845	40485.79
214.833	39256.79
220.815	37979.79
226.789	37096.46
232.758	36313.12
238.719	35507.46
244.674	34519.79
250.623	33247.79
256.565	31978.79
262.5	30762.79
268.429	29672.79
274.351	28746.12
280.267	27911.46
286.176	27151.79
292.079	26453.12
297.975	25752.12
303.865	25099.12
309.748	24559.79
315.625	24109.46
321.495	23677.46
327.359	23401.12
333.217	23112.79
339.068	22925.12
344.912	22826.46
350.751	22731.12
356.583	22644.12
362.408	22500.46
368.227	22548.12
374.04	22555.79
379.847	22591.46
385.647	22641.46
391.44	22746.46
397.228	22904.79
403.009	22924.79
408.784	22946.46
414.553	23056.46
420.315	23070.46
426.071	23216.79
431.821	23174.12
437.565	23226.12
443.302	23149.46
449.033	23088.46
454.758	22874.79
460.477	22735.79
466.189	22523.46
471.896	22362.46
477.596	22194.12
483.29	22133.12
488.978	22020.79
494.66	21898.46
500.335	21551.79
506.005	21112.12
511.668	20578.79
517.325	20081.12
522.977	19732.79
528.622	19387.79
534.261	19145.46
539.894	18962.79
545.521	18763.12
551.141	18727.79
556.756	18585.46
562.365	18446.79
567.968	18364.46
573.565	18187.79
579.155	18097.12
584.74	18022.79
590.319	17919.12
595.892	17816.12
601.459	17684.46
607.02	17592.79
612.575	17488.46
618.124	17225.79
623.667	17138.12
629.204	16918.79
634.735	16795.12
640.261	16654.12
645.781	16617.46
651.294	16566.79
656.802	16454.12
662.304	16377.46
667.8	16299.46
673.29	16327.79
678.775	16265.79
684.254	16208.12
689.726	16173.13
695.193	16077.13
700.655	15968.79
706.11	15945.46
711.56	15760.46
717.004	15672.12
722.442	15711.79
727.874	15538.79
733.301	15482.46
738.722	15472.46
744.137	15429.46
749.547	15425.46
754.951	15369.12
760.349	15363.12
765.741	15334.46
771.128	15438.46
776.509	15510.12
781.885	15482.13
787.254	15485.12
792.618	15551.79
797.977	15414.12
803.33	15316.12
808.677	15251.46
814.019	15101.12
819.355	14982.46
824.686	14874.46
830.011	14814.79
835.33	14678.46
840.644	14611.13
845.952	14697.12
851.255	14567.12
856.552	14639.79
861.844	14671.12
867.13	14834.46
872.41	15167.46
877.686	15777.46
882.955	16266.79
888.219	16006.79
893.478	15120.79
898.731	14184.79
903.979	13652.13
909.221	13454.12
914.458	13289.46
919.69	13234.13
924.916	13266.46
930.136	13221.13
935.351	13272.46
940.561	13219.79
945.766	13210.79
950.965	13100.46
956.158	13079.79
961.347	12907.12
966.529	12755.12
971.707	12508.46
976.879	12397.46
982.046	12287.79
987.208	12302.79
992.364	12282.79
997.515	12394.12
1002.66	12486.13
1007.801	12667.46
1012.936	12840.12
1018.066	13050.79
1023.19	13076.12
1028.309	13133.12
1033.423	13221.46
1038.532	13260.12
1043.636	13379.79
1048.734	13405.12
1053.827	13341.46
1058.915	13170.46
1063.998	12921.46
1069.075	12820.79
1074.147	12803.12
1079.214	13100.46
1084.276	13206.13
1089.333	13415.12
1094.385	13465.46
1099.431	13448.46
1104.472	13253.12
1109.509	13108.79
1114.54	12933.79
1119.565	12658.79
1124.586	12530.79
1129.602	12437.46
1134.613	12334.12
1139.618	12308.46
1144.619	12276.12
1149.614	12214.79
1154.604	12375.12
1159.589	12424.79
1164.57	12375.79
1169.545	12433.46
1174.515	12418.79
1179.48	12418.12
1184.44	12298.12
1189.395	12226.12
1194.345	12229.79
1199.29	12148.79
1204.23	12243.46
1209.165	12348.79
1214.095	12351.12
1219.021	12463.79
1223.941	12638.46
1228.856	12711.12
1233.766	12734.12
1238.672	12731.46
1243.572	12713.46
1248.467	12658.79
1253.358	12547.13
1258.244	12436.13
1263.124	12235.13
1268	12083.46
1272.871	12108.12
1277.737	12077.46
1282.599	12107.46
1287.455	12127.12
1292.306	12059.12
1297.153	12177.79
1301.995	12185.46
1306.832	12226.12
1311.664	12267.12
1316.491	12250.13
1321.314	12199.46
1326.132	12091.79
1330.945	11937.79
1335.753	11759.46
1340.556	11611.79
1345.354	11481.79
1350.148	11331.79
1354.937	11301.12
1359.722	11295.46
1364.501	11253.12
1369.276	11263.79
1374.046	11250.46
1378.811	11437.79
1383.572	11443.79
1388.327	11383.46
1393.079	11428.79
1397.825	11317.12
1402.567	11173.12
1407.304	11044.46
1412.036	11023.13
1416.764	10981.12
1421.487	11033.46
1426.205	11071.13
1430.919	11180.13
1435.628	11418.12
1440.333	11566.79
1445.032	11708.46
1449.727	11978.46
1454.418	12222.12
1459.104	12383.46
1463.785	12287.46
1468.462	11832.79
1473.134	11475.13
1477.802	11261.12
1482.465	11301.79
1487.123	11115.46
1491.777	11177.46
1496.426	11200.46
1501.071	11108.12
1505.711	11190.46
1510.347	11255.46
1514.978	11310.46
1519.604	11457.79
1524.226	11522.12
1528.844	11582.46
1533.457	11518.13
1538.065	11486.12
1542.669	11506.79
1547.269	11458.46
1551.864	11498.12
1556.454	11601.46
1561.041	11658.12
1565.622	11751.79
1570.199	11793.46
1574.772	11947.46
1579.34	12111.46
1583.904	12221.79
1588.464	12438.46
1593.019	12493.12
1597.569	12560.79
1602.115	12676.79
1606.657	12665.12
1611.195	12679.13
1615.728	12738.46
1620.256	12895.12
1624.78	13041.46
1629.3	13134.46
1633.816	13313.79
1638.327	13456.46
1642.834	13598.79
1647.336	13729.46
1651.834	13742.13
1656.328	13763.46
1660.817	13672.79
1665.302	13539.46
1669.783	13315.79
1674.259	12983.46
1678.732	12669.79
1683.199	12265.12
1687.663	11889.79
1692.122	11482.79
1696.577	11146.79
1701.028	10855.12
1705.474	10666.79
1709.917	10501.46
1714.355	10313.46
1718.788	10174.46
1723.218	10090.46
1727.643	9932.79
1732.064	9688.13
1736.481	9579.79
1740.893	9332.46
1745.301	9100.79
1749.705	9034.46
1754.105	8758.46
1758.501	8609.13
1762.893	8465.13
1767.28	8451.46
1771.663	8306.12
1776.042	8271.46
1780.417	8263.46
1784.787	8249.79
1789.154	8266.79
1793.516	8328.13
1797.874	8379.79
1802.228	8451.79
1806.578	8428.79
1810.924	8323.12
1815.266	8592.79
1819.603	8112.12
1823.937	8064.79
1828.266	7971.79
1832.591	7928.46
1836.913	7812.79
1841.23	7826.46
1845.543	7818.79
1849.852	7777.79
1854.156	7835.79
1858.457	7843.79
1862.754	7884.46
1867.047	7891.12
1871.335	7856.13
1875.62	7961.12
1879.9	7949.79
1884.177	7964.46
1888.449	7869.79
1892.718	7830.79
1896.982	7806.12
1901.243	7806.13
1905.499	7760.12
1909.752	7750.46
1914	7772.46
1918.245	7728.46
1922.485	7744.79
1926.722	7768.46
1930.954	7800.13
1935.183	7873.46
1939.408	7866.79
1943.628	7912.46
1947.845	7929.79
1952.058	7923.46
1956.267	7899.12
1960.472	7833.12
1964.673	7768.13
1968.87	7720.46
1973.063	7647.79
1977.252	7613.12
1981.438	7586.12
1985.619	7559.46
1989.797	7613.46
1993.971	7535.12
1998.14	7561.46
2002.306	7632.46
2006.469	7610.12
2010.627	7658.46
2014.781	7675.46
2018.932	7668.79
2023.078	7593.79
2027.221	7574.46
2031.36	7513.46
2035.495	7435.79
2039.627	7401.79
2043.754	7308.12
2047.878	7300.13
2051.998	7280.46
2056.114	7330.46
2060.226	7310.12
2064.334	7340.12
2068.439	7327.79
2072.54	7383.79
2076.637	7488.46
2080.73	7476.12
2084.82	7519.12
2088.906	7502.46
2092.988	7510.46
2097.066	7414.46
2101.14	7360.79
2105.211	7311.12
2109.278	7285.46
2113.342	7258.12
2117.401	7288.46
2121.457	7251.12
2125.509	7260.13
2129.558	7148.12
2133.602	7162.46
2137.643	7157.12
2141.681	7180.46
2145.714	7175.12
2149.744	7098.13
2153.77	7070.12
2157.793	7054.46
2161.812	7004.46
2165.827	6993.79
2169.838	6793.46
2173.846	6732.46
2177.851	6635.46
2181.851	6536.79
2185.848	6507.46
2189.841	6443.13
2193.831	6394.13
2197.817	6364.79
2201.799	6345.13
2205.778	6367.79
2209.753	6384.12
2213.725	6390.46
2217.693	6313.12
2221.657	6390.13
2225.618	6306.12
2229.575	6319.13
2233.529	6265.12
2237.479	6285.79
2241.425	6192.13
2245.368	6146.12
2249.307	6100.79
2253.243	5993.46
2257.175	5922.12
2261.104	5869.46
2265.029	5784.79
2268.95	5715.79
2272.868	5726.46
2276.783	5668.12
2280.694	5599.79
2284.601	5547.79
2288.505	5489.12
2292.405	5405.79
2296.302	5431.46
2300.195	5359.79
2304.085	5338.12
2307.971	5198.46
2311.854	5170.79
2315.734	5068.46
2319.609	4986.79
2323.482	4995.46
2327.351	4913.79
2331.216	4912.79
2335.078	4878.46
2338.937	4866.79
2342.792	4808.46
2346.643	4785.46
2350.492	4751.79
2354.336	4767.79
2358.178	4781.46
2362.015	4804.12
2365.85	4787.13
2369.681	4810.12
2373.508	4812.12
2377.333	4779.46
2381.153	4833.46
2384.971	4836.12
2388.785	4747.46
2392.595	4743.46
2396.402	4701.46
2400.206	4721.46
2404.007	4672.79
2407.804	4621.12
2411.597	4608.12
2415.388	4627.46
2419.174	4600.46
2422.958	4625.12
2426.738	4591.79
2430.515	4545.46
2434.289	4539.79
2438.059	4566.12
2441.825	4498.46
2445.589	4422.12
2449.349	4497.12
2453.106	4389.46
2456.859	4352.12
2460.61	4345.12
2464.356	4316.12
2468.1	4329.46
2471.84	4262.12
2475.577	4259.12
2479.311	4226.79
2483.041	4207.12
2486.768	4166.46
2490.492	4221.12
2494.213	4231.46
2497.93	4252.46
2501.644	4284.46
2505.355	4223.79
2509.062	4227.79
2512.766	4206.46
2516.467	4220.46
2520.165	4200.79
2523.859	4176.79
2527.551	4051.12
2531.239	4091.46
2534.923	4041.12
2538.605	3997.46
2542.283	3972.79
2545.958	3963.46
2549.63	3926.79
2553.299	3981.79
2556.964	3921.79
2560.626	3886.12
2564.285	3854.79
2567.941	3910.13
2571.594	3840.46
2575.243	3749.46
2578.89	3823.79
2582.533	3771.79
2586.173	3770.46
2589.809	3686.46
2593.443	3810.46
2597.073	3694.79
2600.701	3650.46
2604.325	3632.46
2607.946	3673.46
2611.564	3625.12
2615.178	3606.79
2618.79	3636.46
2622.398	3648.46
2626.004	3574.79
2629.606	3550.46
2633.205	3560.46
2636.801	3471.12
2640.394	3447.79
2643.983	3406.46
2647.57	3452.12
2651.153	3365.46
2654.734	3310.79
2658.311	3372.79
2661.885	3265.79
2665.456	3264.12
2669.025	3244.46
2672.589	3260.12
2676.151	3178.46
2679.71	3164.46
2683.266	3189.46
2686.819	3140.12
2690.368	3121.46
2693.915	3062.79
2697.458	3055.79
2700.999	2995.46
2704.536	2961.79
2708.071	2955.79
2711.602	2906.79
2715.13	2958.79
2718.656	2963.79
2722.178	2953.79
2725.697	2967.12
2729.214	2921.12
2732.727	2933.46
2736.237	2991.46
2739.744	2971.79
2743.249	3005.46
2746.75	2925.46
2750.248	2969.79
2753.743	2927.13
2757.236	2922.46
2760.725	2885.12
2764.211	3011.12
2767.695	2874.79
2771.175	2838.79
2774.652	2796.12
2778.127	2836.13
2781.598	2809.79
2785.067	2784.46
2788.532	2841.12
2791.995	2813.12
2795.455	2808.12
2798.911	2814.79
2802.365	2846.79
2805.816	2861.12
2809.264	2773.46
2812.709	2843.13
2816.151	2835.79
2819.59	2885.79
2823.026	2854.46
2826.46	2871.12
2829.89	2807.13
2833.318	2929.79
2836.742	2866.79
2840.164	2902.46
2843.583	2946.79
2846.999	2951.46
2850.412	2984.12
2853.822	3012.79
2857.229	3001.46
2860.634	3051.79
2864.035	3182.79
2867.434	3127.46
2870.83	3245.79
2874.223	3304.46
2877.613	3362.46
2881	3475.46
2884.385	3550.79
2887.766	3526.12
2891.145	3595.79
2894.521	3557.12
2897.894	3550.46
2901.264	3473.46
2904.631	3510.46
2907.996	3491.12
2911.358	3450.79
2914.717	3498.12
2918.073	3582.79
2921.426	3619.12
2924.777	3699.12
2928.124	3730.46
2931.469	3850.79
2934.811	4106.46
2938.15	4107.12
2941.487	4162.79
2944.821	4022.46
2948.152	4038.79
2951.48	3944.79
2954.805	3873.79
2958.128	3794.79
2961.447	3775.12
2964.765	3747.13
2968.079	3811.46
2971.39	3768.79
2974.699	3860.13
2978.005	3900.79
2981.308	3966.79
2984.609	4103.46
2987.907	4083.46
2991.202	4113.46
2994.494	4226.12
2997.784	4184.12
3001.07	4249.46
3004.355	4292.79
3007.636	4388.79
3010.915	4368.46
3014.191	4392.79
3017.464	4490.46
3020.734	4432.12
3024.002	4476.12
3027.267	4572.79
3030.53	4586.46
3033.789	4625.79
3037.046	4742.79
3040.301	4763.79
3043.552	4846.46
3046.801	4905.46
3050.048	4964.79
3053.291	5056.13
3056.532	5214.79
3059.771	5417.46
3063.006	5501.46
3066.239	5613.79
3069.469	5786.46
3072.697	5954.12
3075.922	6110.12
3079.144	6180.46
3082.364	6239.46
3085.581	6420.13
3088.795	6439.46
3092.007	6624.46
3095.216	6757.46
3098.423	6903.12
3101.627	7074.79
3104.828	7163.79
3108.026	7317.12
3111.222	7455.12
3114.416	7576.79
3117.607	7714.79
3120.795	7883.12
3123.98	8092.79
3127.163	8302.46
3130.344	8437.46
3133.521	8617.79
3136.696	8759.13
3139.869	8938.79
3143.039	9091.46
3146.206	9155.79
3149.371	9230.12
3152.533	9341.79
3155.693	9494.46
3158.85	9498.12
3162.005	9535.79
3165.157	9572.79
3168.306	9605.12
3171.453	9616.79
3174.597	9718.13
3177.739	9791.46
3180.878	9729.46
3184.014	9742.46
3187.149	9729.79
3190.28	9741.79
3193.409	9783.46
3196.536	9846.46
3199.659	9839.79
3202.781	9890.46
3205.9	9949.46
3209.016	9900.79
3212.13	9895.79
3215.241	9827.12
3218.35	9748.79
3221.456	9686.46
3224.56	9634.46
3227.661	9506.12
3230.76	9434.46
3233.856	9374.46
3236.95	9236.12
3240.041	9264.79
3243.13	9061.12
3246.216	9020.12
3249.3	8958.46
3252.382	8907.79
3255.46	8933.12
3258.537	9227.46
3261.611	8875.46
3264.682	8812.12
3267.751	8802.12
3270.818	8828.46
3273.882	8742.79
3276.943	8683.46
3280.002	8585.12
3283.059	8591.79
3286.113	8451.46
3289.165	8400.46
3292.214	8266.46
3295.261	8090.46
3298.306	8086.46
3301.348	7903.46
3304.387	7773.46
3307.425	7615.79
3310.459	7588.46
3313.492	7461.46
3316.521	7387.79
3319.549	7314.79
3322.574	7201.46
3325.597	7203.79
3328.617	7123.79
3331.635	7086.12
3334.65	7057.79
3337.663	6973.46
3340.674	7027.46
3343.682	6974.46
3346.688	6926.79
3349.691	6886.79
3352.692	6907.46
3355.691	6797.13
3358.687	6716.46
3361.681	6669.46
3364.673	6642.46
3367.662	6507.46
3370.649	6410.79
3373.633	6381.13
3376.615	6270.79
3379.595	6260.46
3382.572	6095.46
3385.547	6039.79
3388.52	5976.46
3391.49	5868.12
3394.458	5813.46
3397.424	5696.12
3400.387	5658.12
3403.348	5601.79
3406.307	5518.46
3409.263	5508.46
3412.217	5384.79
3415.168	5350.13
3418.118	5320.13
3421.065	5262.46
3424.009	5124.46
3426.951	5141.46
3429.891	5058.79
3432.829	4973.79
3435.764	4840.12
3438.697	4797.13
3441.628	4599.79
3444.557	4542.79
3447.483	4421.46
3450.407	4264.12
3453.328	4188.79
3456.247	4053.79
3459.164	4027.79
3462.079	3805.46
3464.991	3724.46
3467.902	3627.46
3470.809	3464.46
3473.715	3366.79
3476.618	3301.46
3479.519	3181.79
3482.418	3170.13
3485.315	3053.46
3488.209	2934.13
3491.101	2834.79
3493.99	2779.79
3496.878	2690.79
3499.763	2597.12
3502.646	2525.12
3505.527	2508.46
3508.405	2398.79
3511.281	2312.46
3514.155	2170.79
3517.027	2089.46
3519.897	2037.46
3522.764	1883.12
3525.629	1827.12
3528.492	1743.12
3531.352	1596.13
3534.211	1506.79
3537.067	1476.13
3539.921	1417.13
3542.773	1309.13
3545.622	1246.13
3548.469	1216.46
3551.315	1110.79
3554.157	1062.46
3556.998	970.46
3559.837	893.46
3562.673	840.46
3565.507	846.46
3568.339	781.79
3571.169	750.46
3573.996	673.79
3576.822	664.79
3579.645	632.79
3582.466	557.46
3585.285	452.79
3588.101	441.13
3590.916	416.79
3593.728	363.12
3596.538	304.12
3599.346	231.79
3602.152	258.79
3604.956	190.13
3607.757	152.12
3610.556	151.12
3613.354	79.79
3616.149	57.79
3618.942	4.46
3621.732	-38.87
3624.521	35.79
3627.307	-37.88
3630.092	-87.54
3632.874	-92.21
3635.654	-95.54
3638.432	-83.54
3641.208	-142.87
3643.982	-183.87
3646.753	-211.54
3649.523	-110.88
3652.29	-232.54
3655.055	-283.88
3657.818	-270.21
3660.579	-321.87
3663.338	-279.54
3666.095	-315.54
3668.849	-286.21
3671.602	-397.87
3674.352	-318.21
3677.101	-425.54
3679.847	-473.54
3682.591	-443.21
3685.333	-405.21
3688.073	-486.54
3690.811	-457.21
3693.547	-423.88
3696.281	-501.54
3699.013	-521.54
3701.742	-527.88
3704.47	-505.54
3707.195	-566.54
3709.919	-562.88
3712.64	-543.21
3715.359	-561.54
3718.076	-627.21
3720.792	-613.54
3723.505	-594.88
3726.216	-648.54
3728.925	-585.87
3731.632	-622.21
3734.336	-598.54
3737.039	-632.87
3739.74	-632.87
3742.439	-483.21
3745.136	-650.88
3747.83	-682.21
3750.523	-691.21
3753.213	-439.21
3755.902	-678.88
3758.589	-602.54
3761.273	-665.21
3763.956	-699.87
3766.636	-636.21
3769.315	-732.88
3771.991	-675.54
3774.665	-687.54
3777.338	-724.21
3780.008	-685.21
3782.677	-679.87
3785.343	-669.21
3788.007	-671.21
3790.67	-703.21
3793.33	-711.88
3795.989	-703.54
3798.645	-739.21
3801.299	-679.88
3803.952	-697.87
3806.602	-750.87
3809.251	-741.54
3811.897	-732.21
3814.542	-723.21
3817.184	-724.54
3819.825	-759.21
3822.463	-749.54
3825.1	-751.88
3827.735	-751.54
3830.367	-737.54
3832.998	-787.54
3835.627	-770.88
3838.253	-799.54
3840.878	-741.21
3843.501	-798.87
3846.122	-772.54
3848.741	-778.21
3851.358	-779.21
3853.973	-697.21
3856.586	-772.88
3859.197	-767.88
3861.806	-781.87
3864.414	-748.88
3867.019	-729.88
3869.622	-768.88
3872.224	-753.87
3874.823	-738.54
3877.421	-719.54
3880.016	-685.87
3882.61	-655.54
3885.202	-618.88
3887.792	-658.21
3890.38	-732.21
3892.966	-732.88
3895.55	-694.54
3898.132	-788.54
3900.713	-794.54
3903.291	-767.21
3905.868	-743.21
3908.442	-804.88
3911.015	-811.21
3913.586	-788.88
3916.155	-797.88
3918.722	-800.21
3921.287	-807.21
3923.85	-759.54
3926.411	-800.88
3928.971	-812.88
3931.528	-804.21
3934.084	-794.21
3936.638	-799.21
3939.19	-793.54
3941.74	-826.54
3944.288	-829.88
3946.834	-788.21
3949.378	-836.21
3951.921	-756.54
3954.462	-777.21
3957	-823.54
3959.537	-800.54
3962.072	-748.21
3964.606	-735.54
3967.137	-819.88
3969.667	-800.54
3972.194	-809.21
3974.72	-784.54
3977.244	-694.54
3979.766	-750.21
3982.286	-750.88
3984.805	-816.54
3987.321	-813.88
3989.836	-788.21
3992.349	-754.21
3994.86	-800.21
3997.369	-781.88
3999.877	-786.21
4002.382	-781.88
4004.886	-804.88
4007.388	-770.87
4009.888	-809.21
4012.386	-817.21
4014.883	-817.87
4017.377	-788.21
4019.87	-783.54
4022.361	-781.54
4024.85	-790.54
4027.338	-795.21
4029.823	-800.21
4032.307	-813.21
4034.789	-827.21
4037.269	-796.54
4039.747	-732.54
4042.224	-801.21
4044.699	-740.88
4047.172	-788.54
4049.643	-848.87
4052.112	-739.88
4054.58	-818.21
4057.046	-787.54
4059.51	-795.21
4061.972	-799.21
4064.432	-704.21
4066.891	-838.88
4069.348	-813.21
4071.803	-830.21
4074.256	-815.88
4076.708	-816.21
4079.158	-780.54
4081.606	-877.54
4084.052	-784.88
4086.497	-855.88
4088.939	-803.21
4091.38	-788.54
4093.819	-828.54
4096.257	-1002.21
4098.693	-1015.54
4101.127	-1049.88
4103.559	-1008.54
4105.989	-454.88
4108.418	-463.21
4110.845	-409.54
4113.27	-409.54
4115.694	-327.54
4118.115	-243.54
4120.535	-856.54
4122.954	-824.54
4125.37	-875.54
4127.785	-847.88
4130.198	-840.88
4132.609	-834.21
4135.019	-1039.21
4137.427	-1031.88
4139.833	-1040.21
4142.237	-1027.54
