Data from ice_coli_30s_RamanShift_1.txt Node
Date: Mon Mar 27 11:49:07 IDT 2017
User: aro
Spectrometer: QEPB0276
Trigger mode: 0
Integration Time (sec): 3.000000E1
Scans to average: 3
Electric dark correction enabled: true
Nonlinearity correction enabled: false
Boxcar width: 0
XAxis mode: Raman Shifts
Number of Pixels in Spectrum: 1044
>>>>>Begin Spectral Data<<<<<
160.701	-52.04
166.742	23.62
172.777	243.96
178.805	921.62
184.826	2512.62
190.841	5225.62
196.849	8329.62
202.85	10327.29
208.845	10805.62
214.833	10486.29
220.815	10140.62
226.789	9905.62
232.758	9698.96
238.719	9484.62
244.674	9187.96
250.623	8866.62
256.565	8538.62
262.5	8208.96
268.429	7889.62
274.351	7661.96
280.267	7446.96
286.176	7193.96
292.079	7062.29
297.975	6854.62
303.865	6694.29
309.748	6557.96
315.625	6438.62
321.495	6334.29
327.359	6264.62
333.217	6211.29
339.068	6162.96
344.912	6132.62
350.751	6109.29
356.583	6081.29
362.408	6053.62
368.227	6050.62
374.04	6076.96
379.847	6085.29
385.647	6107.96
391.44	6146.62
397.228	6164.29
403.009	6177.62
408.784	6191.62
414.553	6236.29
420.315	6228.62
426.071	6236.62
431.821	6226.96
437.565	6246.96
443.302	6218.29
449.033	6198.96
454.758	6171.62
460.477	6140.96
466.189	6084.96
471.896	6050.96
477.596	5990.62
483.29	5982.29
488.978	5952.62
494.66	5923.62
500.335	5840.29
506.005	5700.29
511.668	5527.29
517.325	5405.96
522.977	5306.96
528.622	5190.62
534.261	5127.29
539.894	5079.96
545.521	5024.29
551.141	5000.96
556.756	4963.96
562.365	4934.62
567.968	4907.62
573.565	4867.96
579.155	4811.96
584.74	4819.29
590.319	4780.29
595.892	4744.96
601.459	4726.62
607.02	4711.96
612.575	4661.96
618.124	4597.62
623.667	4567.96
629.204	4522.96
634.735	4477.96
640.261	4436.29
645.781	4413.29
651.294	4411.96
656.802	4380.96
662.304	4352.62
667.8	4344.29
673.29	4348.29
678.775	4315.62
684.254	4315.62
689.726	4300.96
695.193	4263.62
700.655	4247.29
706.11	4229.29
711.56	4176.62
717.004	4158.62
722.442	4172.29
727.874	4125.96
733.301	4131.62
738.722	4108.62
744.137	4090.96
749.547	4096.29
754.951	4073.29
760.349	4055.29
765.741	4063.96
771.128	4096.96
776.509	4096.62
781.885	4093.62
787.254	4117.29
792.618	4081.96
797.977	4086.96
803.33	4062.29
808.677	4021.62
814.019	3993.96
819.355	3947.96
824.686	3932.29
830.011	3903.29
835.33	3864.96
840.644	3848.62
845.952	3867.62
851.255	3815.62
856.552	3810.96
861.844	3796.29
867.13	3796.29
872.41	3826.29
877.686	3838.96
882.955	3848.62
888.219	3794.29
893.478	3694.96
898.731	3600.62
903.979	3500.96
909.221	3483.62
914.458	3453.62
919.69	3443.29
924.916	3446.29
930.136	3438.29
935.351	3446.96
940.561	3449.29
945.766	3429.29
950.965	3392.62
956.158	3391.62
961.347	3330.62
966.529	3303.96
971.707	3249.29
976.879	3209.62
982.046	3184.29
987.208	3176.62
992.364	3178.62
997.515	3210.96
1002.66	3225.62
1007.801	3266.62
1012.936	3290.96
1018.066	3347.29
1023.19	3351.62
1028.309	3348.96
1033.423	3364.96
1038.532	3350.96
1043.636	3347.29
1048.734	3325.62
1053.827	3316.62
1058.915	3301.29
1063.998	3243.62
1069.075	3231.29
1074.147	3237.62
1079.214	3278.62
1084.276	3273.62
1089.333	3314.96
1094.385	3339.29
1099.431	3362.96
1104.472	3325.96
1109.509	3312.29
1114.54	3281.29
1119.565	3206.96
1124.586	3184.96
1129.602	3171.29
1134.613	3145.62
1139.618	3136.29
1144.619	3127.62
1149.614	3128.96
1154.604	3165.29
1159.589	3162.96
1164.57	3174.29
1169.545	3185.29
1174.515	3176.29
1179.48	3173.29
1184.44	3161.29
1189.395	3128.96
1194.345	3128.62
1199.29	3111.96
1204.23	3131.96
1209.165	3159.62
1214.095	3147.62
1219.021	3192.62
1223.941	3214.96
1228.856	3249.29
1233.766	3255.29
1238.672	3240.96
1243.572	3242.96
1248.467	3232.96
1253.358	3185.62
1258.244	3164.62
1263.124	3081.29
1268	3057.29
1272.871	3047.96
1277.737	3029.96
1282.599	3028.29
1287.455	3034.62
1292.306	3028.62
1297.153	3068.96
1301.995	3089.96
1306.832	3094.29
1311.664	3106.29
1316.491	3116.62
1321.314	3076.96
1326.132	3056.29
1330.945	3008.29
1335.753	2976.96
1340.556	2942.62
1345.354	2923.96
1350.148	2891.62
1354.937	2890.29
1359.722	2895.62
1364.501	2873.62
1369.276	2892.96
1374.046	2877.96
1378.811	2914.62
1383.572	2913.29
1388.327	2898.62
1393.079	2894.62
1397.825	2851.96
1402.567	2816.96
1407.304	2785.29
1412.036	2759.96
1416.764	2757.96
1421.487	2755.29
1426.205	2757.96
1430.919	2786.29
1435.628	2836.96
1440.333	2853.62
1445.032	2893.29
1449.727	2928.62
1454.418	2948.96
1459.104	2957.62
1463.785	2941.62
1468.462	2880.96
1473.134	2837.62
1477.802	2816.96
1482.465	2840.29
1487.123	2799.29
1491.777	2824.96
1496.426	2850.96
1501.071	2830.96
1505.711	2887.62
1510.347	2899.29
1514.978	2923.29
1519.604	2958.29
1524.226	2974.29
1528.844	2977.96
1533.457	2971.62
1538.065	2987.96
1542.669	2964.96
1547.269	2960.62
1551.864	2958.62
1556.454	2997.29
1561.041	3009.29
1565.622	3012.62
1570.199	3030.96
1574.772	3059.96
1579.34	3079.29
1583.904	3138.29
1588.464	3187.62
1593.019	3215.96
1597.569	3225.96
1602.115	3264.62
1606.657	3265.96
1611.195	3267.96
1615.728	3277.62
1620.256	3322.96
1624.78	3381.29
1629.3	3403.62
1633.816	3445.62
1638.327	3483.96
1642.834	3531.96
1647.336	3565.62
1651.834	3566.29
1656.328	3584.29
1660.817	3568.62
1665.302	3532.29
1669.783	3476.29
1674.259	3394.96
1678.732	3308.29
1683.199	3213.29
1687.663	3122.96
1692.122	3027.96
1696.577	2958.29
1701.028	2885.62
1705.474	2829.96
1709.917	2773.96
1714.355	2723.62
1718.788	2679.62
1723.218	2630.29
1727.643	2591.62
1732.064	2530.62
1736.481	2474.29
1740.893	2406.62
1745.301	2351.62
1749.705	2327.29
1754.105	2260.62
1758.501	2209.62
1762.893	2181.29
1767.28	2176.62
1771.663	2144.62
1776.042	2139.62
1780.417	2139.96
1784.787	2141.96
1789.154	2146.96
1793.516	2169.29
1797.874	2183.29
1802.228	2196.29
1806.578	2192.96
1810.924	2144.62
1815.266	2220.29
1819.603	2093.62
1823.937	2077.96
1828.266	2050.29
1832.591	2023.29
1836.913	1999.29
1841.23	2004.96
1845.543	1996.96
1849.852	1982.96
1854.156	1999.29
1858.457	1995.29
1862.754	2024.62
1867.047	2008.29
1871.335	2012.96
1875.62	2028.96
1879.9	2042.96
1884.177	2019.96
1888.449	2030.96
1892.718	2006.62
1896.982	2011.62
1901.243	2025.62
1905.499	2013.62
1909.752	2024.29
1914	2017.29
1918.245	2027.29
1922.485	2023.29
1926.722	2041.96
1930.954	2053.29
1935.183	2068.62
1939.408	2074.62
1943.628	2081.96
1947.845	2086.62
1952.058	2086.62
1956.267	2071.62
1960.472	2034.96
1964.673	2024.29
1968.87	2007.29
1973.063	1988.96
1977.252	1966.62
1981.438	1949.29
1985.619	1946.96
1989.797	1964.62
1993.971	1937.62
1998.14	1937.29
2002.306	1962.62
2006.469	1961.29
2010.627	1963.96
2014.781	1962.29
2018.932	1967.62
2023.078	1946.96
2027.221	1944.62
2031.36	1929.62
2035.495	1911.29
2039.627	1889.29
2043.754	1870.62
2047.878	1870.96
2051.998	1875.96
2056.114	1897.96
2060.226	1900.96
2064.334	1893.96
2068.439	1895.62
2072.54	1915.62
2076.637	1952.62
2080.73	1952.29
2084.82	1959.29
2088.906	1972.62
2092.988	1959.62
2097.066	1931.62
2101.14	1917.29
2105.211	1907.62
2109.278	1907.62
2113.342	1899.29
2117.401	1907.62
2121.457	1896.62
2125.509	1890.29
2129.558	1852.29
2133.602	1857.62
2137.643	1855.29
2141.681	1859.29
2145.714	1855.62
2149.744	1822.29
2153.77	1821.96
2157.793	1809.29
2161.812	1792.29
2165.827	1787.62
2169.838	1740.62
2173.846	1722.29
2177.851	1692.29
2181.851	1666.62
2185.848	1659.62
2189.841	1635.62
2193.831	1637.62
2197.817	1633.62
2201.799	1619.29
2205.778	1624.29
2209.753	1624.96
2213.725	1617.62
2217.693	1598.62
2221.657	1617.62
2225.618	1601.96
2229.575	1604.29
2233.529	1588.62
2237.479	1584.62
2241.425	1565.62
2245.368	1554.96
2249.307	1534.29
2253.243	1517.96
2257.175	1489.96
2261.104	1494.62
2265.029	1461.62
2268.95	1445.29
2272.868	1429.62
2276.783	1425.29
2280.694	1402.29
2284.601	1395.96
2288.505	1363.62
2292.405	1344.96
2296.302	1356.62
2300.195	1336.29
2304.085	1341.62
2307.971	1285.62
2311.854	1292.96
2315.734	1245.96
2319.609	1229.96
2323.482	1235.96
2327.351	1207.96
2331.216	1209.96
2335.078	1212.62
2338.937	1196.96
2342.792	1176.62
2346.643	1176.62
2350.492	1160.96
2354.336	1166.96
2358.178	1166.62
2362.015	1168.96
2365.85	1177.29
2369.681	1166.96
2373.508	1163.29
2377.333	1159.62
2381.153	1177.96
2384.971	1164.96
2388.785	1158.62
2392.595	1141.62
2396.402	1138.62
2400.206	1143.29
2404.007	1129.62
2407.804	1111.96
2411.597	1113.96
2415.388	1122.29
2419.174	1113.96
2422.958	1117.96
2426.738	1112.29
2430.515	1086.29
2434.289	1099.96
2438.059	1095.96
2441.825	1088.29
2445.589	1052.29
2449.349	1075.29
2453.106	1057.96
2456.859	1053.62
2460.61	1051.96
2464.356	1042.96
2468.1	1054.62
2471.84	1032.29
2475.577	1017.62
2479.311	1016.96
2483.041	1017.29
2486.768	999.96
2490.492	1024.29
2494.213	1027.96
2497.93	1029.96
2501.644	1043.29
2505.355	1032.62
2509.062	1019.29
2512.766	1019.96
2516.467	1020.29
2520.165	1016.62
2523.859	1010.62
2527.551	977.96
2531.239	990.96
2534.923	990.96
2538.605	976.96
2542.283	976.29
2545.958	974.29
2549.63	961.96
2553.299	973.62
2556.964	959.96
2560.626	949.29
2564.285	939.29
2567.941	962.62
2571.594	940.29
2575.243	918.62
2578.89	944.62
2582.533	927.29
2586.173	919.96
2589.809	895.62
2593.443	924.62
2597.073	893.62
2600.701	890.96
2604.325	882.96
2607.946	896.62
2611.564	878.96
2615.178	869.62
2618.79	876.96
2622.398	886.29
2626.004	870.29
2629.606	857.29
2633.205	851.62
2636.801	829.96
2640.394	823.62
2643.983	815.29
2647.57	828.29
2651.153	824.29
2654.734	790.29
2658.311	809.62
2661.885	782.62
2665.456	777.96
2669.025	772.29
2672.589	780.29
2676.151	753.62
2679.71	753.96
2683.266	758.29
2686.819	742.29
2690.368	732.29
2693.915	723.96
2697.458	727.62
2700.999	712.62
2704.536	700.62
2708.071	695.29
2711.602	691.96
2715.13	696.96
2718.656	700.29
2722.178	699.96
2725.697	706.96
2729.214	696.29
2732.727	705.62
2736.237	718.29
2739.744	708.62
2743.249	721.96
2746.75	709.29
2750.248	715.29
2753.743	720.29
2757.236	710.96
2760.725	700.62
2764.211	736.62
2767.695	695.62
2771.175	687.29
2774.652	672.29
2778.127	691.62
2781.598	679.29
2785.067	678.96
2788.532	694.96
2791.995	682.29
2795.455	682.96
2798.911	683.96
2802.365	696.29
2805.816	698.29
2809.264	668.29
2812.709	689.29
2816.151	680.29
2819.59	703.29
2823.026	690.62
2826.46	701.29
2829.89	677.96
2833.318	703.29
2836.742	686.29
2840.164	694.62
2843.583	698.29
2846.999	707.62
2850.412	705.96
2853.822	717.62
2857.229	711.96
2860.634	727.62
2864.035	757.29
2867.434	734.62
2870.83	758.29
2874.223	776.62
2877.613	769.96
2881	780.62
2884.385	790.29
2887.766	778.96
2891.145	796.96
2894.521	788.62
2897.894	789.96
2901.264	773.29
2904.631	789.29
2907.996	790.96
2911.358	779.62
2914.717	786.62
2918.073	813.96
2921.426	813.29
2924.777	834.29
2928.124	829.62
2931.469	842.29
2934.811	898.29
2938.15	881.62
2941.487	904.62
2944.821	873.29
2948.152	904.29
2951.48	888.62
2954.805	897.96
2958.128	879.96
2961.447	896.62
2964.765	892.29
2968.079	918.96
2971.39	913.96
2974.699	945.62
2978.005	950.96
2981.308	977.96
2984.609	1004.29
2987.907	1015.96
2991.202	1038.29
2994.494	1067.29
2997.784	1066.29
3001.07	1097.96
3004.355	1115.96
3007.636	1148.29
3010.915	1149.29
3014.191	1163.96
3017.464	1184.96
3020.734	1178.29
3024.002	1194.29
3027.267	1216.62
3030.53	1232.29
3033.789	1242.29
3037.046	1273.29
3040.301	1281.29
3043.552	1311.62
3046.801	1326.96
3050.048	1348.29
3053.291	1391.96
3056.532	1414.62
3059.771	1469.29
3063.006	1503.29
3066.239	1532.96
3069.469	1586.62
3072.697	1638.96
3075.922	1687.29
3079.144	1710.29
3082.364	1725.29
3085.581	1788.29
3088.795	1806.62
3092.007	1851.62
3095.216	1883.29
3098.423	1937.62
3101.627	1987.62
3104.828	2011.62
3108.026	2057.96
3111.222	2103.29
3114.416	2144.96
3117.607	2175.96
3120.795	2222.62
3123.98	2297.29
3127.163	2352.96
3130.344	2392.29
3133.521	2441.29
3136.696	2483.29
3139.869	2542.62
3143.039	2585.62
3146.206	2592.29
3149.371	2619.96
3152.533	2655.62
3155.693	2704.62
3158.85	2701.29
3162.005	2709.29
3165.157	2721.96
3168.306	2739.62
3171.453	2744.96
3174.597	2763.29
3177.739	2779.62
3180.878	2751.62
3184.014	2766.96
3187.149	2762.96
3190.28	2769.62
3193.409	2789.96
3196.536	2804.96
3199.659	2797.96
3202.781	2811.62
3205.9	2833.62
3209.016	2831.62
3212.13	2814.62
3215.241	2803.29
3218.35	2790.96
3221.456	2761.29
3224.56	2761.29
3227.661	2712.62
3230.76	2709.96
3233.856	2694.29
3236.95	2647.96
3240.041	2652.62
3243.13	2597.96
3246.216	2590.29
3249.3	2577.96
3252.382	2574.96
3255.46	2567.62
3258.537	2644.29
3261.611	2546.96
3264.682	2518.62
3267.751	2529.29
3270.818	2516.96
3273.882	2511.96
3276.943	2497.29
3280.002	2463.62
3283.059	2454.96
3286.113	2413.29
3289.165	2391.96
3292.214	2363.29
3295.261	2305.29
3298.306	2316.96
3301.348	2254.29
3304.387	2202.62
3307.425	2171.29
3310.459	2157.29
3313.492	2113.62
3316.521	2108.29
3319.549	2076.96
3322.574	2048.29
3325.597	2034.62
3328.617	2006.96
3331.635	2009.29
3334.65	2004.96
3337.663	1983.96
3340.674	1983.96
3343.682	1963.62
3346.688	1958.96
3349.691	1962.96
3352.692	1963.29
3355.691	1934.62
3358.687	1905.29
3361.681	1891.96
3364.673	1871.29
3367.662	1853.62
3370.649	1821.62
3373.633	1807.96
3376.615	1780.62
3379.595	1786.62
3382.572	1727.62
3385.547	1724.29
3388.52	1699.96
3391.49	1673.29
3394.458	1643.96
3397.424	1624.29
3400.387	1626.96
3403.348	1595.62
3406.307	1575.96
3409.263	1567.96
3412.217	1526.96
3415.168	1518.62
3418.118	1519.62
3421.065	1498.62
3424.009	1446.62
3426.951	1472.29
3429.891	1440.96
3432.829	1419.62
3435.764	1385.29
3438.697	1359.62
3441.628	1319.29
3444.557	1292.96
3447.483	1264.96
3450.407	1223.96
3453.328	1200.96
3456.247	1167.96
3459.164	1155.96
3462.079	1093.29
3464.991	1063.62
3467.902	1035.62
3470.809	1003.29
3473.715	973.96
3476.618	954.29
3479.519	917.96
3482.418	917.62
3485.315	880.62
3488.209	849.96
3491.101	823.96
3493.99	810.62
3496.878	782.96
3499.763	758.29
3502.646	727.62
3505.527	721.29
3508.405	696.29
3511.281	676.96
3514.155	631.62
3517.027	604.29
3519.897	597.62
3522.764	548.29
3525.629	529.62
3528.492	507.29
3531.352	466.62
3534.211	440.96
3537.067	429.96
3539.921	414.29
3542.773	382.96
3545.622	362.62
3548.469	351.96
3551.315	323.29
3554.157	311.62
3556.998	279.62
3559.837	263.62
3562.673	246.96
3565.507	247.62
3568.339	231.29
3571.169	221.62
3573.996	199.96
3576.822	198.62
3579.645	184.29
3582.466	169.96
3585.285	133.96
3588.101	135.62
3590.916	120.62
3593.728	107.96
3596.538	91.29
3599.346	70.29
3602.152	73.96
3604.956	58.29
3607.757	42.96
3610.556	43.96
3613.354	28.62
3616.149	19.62
3618.942	3.29
3621.732	-6.38
3624.521	13.29
3627.307	-15.71
3630.092	-20.04
3632.874	-24.38
3635.654	-24.71
3638.432	-24.04
3641.208	-39.04
3643.982	-49.71
3646.753	-55.71
3649.523	-29.04
3652.29	-58.71
3655.055	-79.71
3657.818	-77.38
3660.579	-87.04
3663.338	-73.38
3666.095	-89.71
3668.849	-78.71
3671.602	-112.04
3674.352	-89.38
3677.101	-120.38
3679.847	-130.04
3682.591	-124.04
3685.333	-117.04
3688.073	-138.04
3690.811	-129.38
3693.547	-120.04
3696.281	-139.38
3699.013	-144.04
3701.742	-145.71
3704.47	-140.04
3707.195	-156.04
3709.919	-161.38
3712.64	-154.38
3715.359	-160.38
3718.076	-175.38
3720.792	-171.38
3723.505	-170.71
3726.216	-178.71
3728.925	-163.38
3731.632	-173.38
3734.336	-168.38
3737.039	-176.71
3739.74	-181.04
3742.439	-141.38
3745.136	-184.38
3747.83	-189.38
3750.523	-193.71
3753.213	-125.71
3755.902	-188.38
3758.589	-169.71
3761.273	-186.71
3763.956	-195.38
3766.636	-182.04
3769.315	-204.71
3771.991	-189.04
3774.665	-192.71
3777.338	-205.04
3780.008	-191.04
3782.677	-191.71
3785.343	-184.38
3788.007	-188.38
3790.67	-197.71
3793.33	-201.71
3795.989	-199.04
3798.645	-210.38
3801.299	-194.38
3803.952	-196.38
3806.602	-209.04
3809.251	-206.71
3811.897	-206.04
3814.542	-204.04
3817.184	-202.04
3819.825	-212.71
3822.463	-209.38
3825.1	-211.71
3827.735	-208.38
3830.367	-207.38
3832.998	-221.04
3835.627	-216.38
3838.253	-222.04
3840.878	-203.38
3843.501	-224.04
3846.122	-215.71
3848.741	-217.38
3851.358	-221.04
3853.973	-196.71
3856.586	-216.38
3859.197	-215.71
3861.806	-218.38
3864.414	-210.38
3867.019	-204.71
3869.622	-214.71
3872.224	-212.71
3874.823	-206.38
3877.421	-203.04
3880.016	-192.38
3882.61	-179.04
3885.202	-170.04
3887.792	-183.71
3890.38	-201.71
3892.966	-201.38
3895.55	-193.04
3898.132	-218.38
3900.713	-222.04
3903.291	-217.38
3905.868	-209.04
3908.442	-225.04
3911.015	-225.38
3913.586	-215.04
3916.155	-223.38
3918.722	-222.04
3921.287	-224.38
3923.85	-211.38
3926.411	-225.04
3928.971	-225.04
3931.528	-227.38
3934.084	-222.38
3936.638	-221.04
3939.19	-221.38
3941.74	-231.04
3944.288	-232.71
3946.834	-218.38
3949.378	-233.71
3951.921	-214.38
3954.462	-214.38
3957	-227.38
3959.537	-222.71
3962.072	-208.38
3964.606	-206.04
3967.137	-230.04
3969.667	-221.38
3972.194	-223.71
3974.72	-218.38
3977.244	-197.04
3979.766	-210.04
3982.286	-213.38
3984.805	-230.04
3987.321	-228.71
3989.836	-219.38
3992.349	-211.71
3994.86	-221.38
3997.369	-219.38
3999.877	-219.38
4002.382	-219.38
4004.886	-224.38
4007.388	-217.38
4009.888	-224.38
4012.386	-226.38
4014.883	-227.38
4017.377	-217.04
4019.87	-219.38
4022.361	-213.38
4024.85	-220.71
4027.338	-221.04
4029.823	-224.71
4032.307	-227.71
4034.789	-233.04
4037.269	-225.38
4039.747	-207.71
4042.224	-224.71
4044.699	-207.71
4047.172	-221.38
4049.643	-235.38
4052.112	-208.04
4054.58	-227.04
4057.046	-219.71
4059.51	-224.04
4061.972	-223.38
4064.432	-195.71
4066.891	-235.38
4069.348	-221.38
4071.803	-227.71
4074.256	-223.71
4076.708	-226.38
4079.158	-216.71
4081.606	-240.71
4084.052	-220.38
4086.497	-238.04
4088.939	-224.04
4091.38	-218.38
4093.819	-232.38
4096.257	-275.71
4098.693	-280.04
4101.127	-288.38
4103.559	-275.71
4105.989	-131.38
4108.418	-132.38
4110.845	-115.38
4113.27	-112.04
4115.694	-92.38
4118.115	-69.38
4120.535	-240.04
4122.954	-228.38
4125.37	-243.04
4127.785	-237.04
4130.198	-233.71
4132.609	-233.71
4135.019	-285.71
4137.427	-284.38
4139.833	-284.38
4142.237	-282.71
