Data from B_sub_water_1000000CFU3_RamanShift_1.txt Node
Date: Thu Feb 23 12:08:23 IST 2017
User: aro
Spectrometer: QEPB0276
Trigger mode: 0
Integration Time (sec): 5.000000E0
Scans to average: 1
Electric dark correction enabled: true
Nonlinearity correction enabled: false
Boxcar width: 0
XAxis mode: Raman Shifts
Number of Pixels in Spectrum: 1044
>>>>>Begin Spectral Data<<<<<
160.701	-20.5
166.742	1.5
172.777	79.5
178.805	304.5
184.826	862.5
190.841	1790.5
196.849	2858.5
202.85	3539.5
208.845	3710.5
214.833	3597.5
220.815	3402.5
226.789	3333.5
232.758	3218.5
238.719	3111.5
244.674	3002.5
250.623	2856.5
256.565	2722.5
262.5	2588.5
268.429	2473.5
274.351	2339.5
280.267	2231.5
286.176	2168.5
292.079	2079.5
297.975	2009.5
303.865	1953.5
309.748	1897.5
315.625	1846.5
321.495	1822.5
327.359	1784.5
333.217	1776.5
339.068	1769.5
344.912	1758.5
350.751	1729.5
356.583	1730.5
362.408	1734.5
368.227	1745.5
374.04	1754.5
379.847	1743.5
385.647	1740.5
391.44	1758.5
397.228	1781.5
403.009	1774.5
408.784	1797.5
414.553	1774.5
420.315	1790.5
426.071	1797.5
431.821	1797.5
437.565	1796.5
443.302	1792.5
449.033	1780.5
454.758	1761.5
460.477	1769.5
466.189	1760.5
471.896	1739.5
477.596	1714.5
483.29	1725.5
488.978	1695.5
494.66	1700.5
500.335	1667.5
506.005	1630.5
511.668	1597.5
517.325	1555.5
522.977	1524.5
528.622	1499.5
534.261	1486.5
539.894	1473.5
545.521	1466.5
551.141	1446.5
556.756	1423.5
562.365	1417.5
567.968	1395.5
573.565	1388.5
579.155	1374.5
584.74	1357.5
590.319	1349.5
595.892	1347.5
601.459	1325.5
607.02	1321.5
612.575	1310.5
618.124	1305.5
623.667	1285.5
629.204	1279.5
634.735	1258.5
640.261	1245.5
645.781	1240.5
651.294	1222.5
656.802	1218.5
662.304	1199.5
667.8	1210.5
673.29	1214.5
678.775	1195.5
684.254	1195.5
689.726	1182.5
695.193	1172.5
700.655	1160.5
706.11	1151.5
711.56	1145.5
717.004	1133.5
722.442	1120.5
727.874	1112.5
733.301	1095.5
738.722	1100.5
744.137	1076.5
749.547	1072.5
754.951	1094.5
760.349	1084.5
765.741	1090.5
771.128	1075.5
776.509	1060.5
781.885	1074.5
787.254	1070.5
792.618	1059.5
797.977	1065.5
803.33	1046.5
808.677	1023.5
814.019	1021.5
819.355	1010.5
824.686	973.5
830.011	982.5
835.33	967.5
840.644	954.5
845.952	969.5
851.255	940.5
856.552	938.5
861.844	928.5
867.13	931.5
872.41	912.5
877.686	892.5
882.955	883.5
888.219	869.5
893.478	849.5
898.731	841.5
903.979	823.5
909.221	804.5
914.458	807.5
919.69	789.5
924.916	788.5
930.136	783.5
935.351	789.5
940.561	777.5
945.766	774.5
950.965	769.5
956.158	755.5
961.347	747.5
966.529	745.5
971.707	722.5
976.879	717.5
982.046	710.5
987.208	697.5
992.364	698.5
997.515	704.5
1002.66	706.5
1007.801	691.5
1012.936	708.5
1018.066	713.5
1023.19	721.5
1028.309	711.5
1033.423	720.5
1038.532	710.5
1043.636	698.5
1048.734	696.5
1053.827	686.5
1058.915	683.5
1063.998	657.5
1069.075	680.5
1074.147	669.5
1079.214	674.5
1084.276	685.5
1089.333	677.5
1094.385	674.5
1099.431	688.5
1104.472	695.5
1109.509	688.5
1114.54	673.5
1119.565	663.5
1124.586	656.5
1129.602	652.5
1134.613	640.5
1139.618	637.5
1144.619	637.5
1149.614	655.5
1154.604	648.5
1159.589	643.5
1164.57	656.5
1169.545	646.5
1174.515	651.5
1179.48	640.5
1184.44	637.5
1189.395	637.5
1194.345	622.5
1199.29	624.5
1204.23	621.5
1209.165	639.5
1214.095	631.5
1219.021	647.5
1223.941	654.5
1228.856	652.5
1233.766	651.5
1238.672	652.5
1243.572	649.5
1248.467	646.5
1253.358	641.5
1258.244	624.5
1263.124	607.5
1268	603.5
1272.871	604.5
1277.737	593.5
1282.599	586.5
1287.455	575.5
1292.306	599.5
1297.153	597.5
1301.995	591.5
1306.832	603.5
1311.664	605.5
1316.491	606.5
1321.314	597.5
1326.132	591.5
1330.945	573.5
1335.753	550.5
1340.556	546.5
1345.354	536.5
1350.148	538.5
1354.937	544.5
1359.722	533.5
1364.501	550.5
1369.276	546.5
1374.046	553.5
1378.811	547.5
1383.572	559.5
1388.327	558.5
1393.079	547.5
1397.825	532.5
1402.567	524.5
1407.304	520.5
1412.036	519.5
1416.764	504.5
1421.487	516.5
1426.205	512.5
1430.919	520.5
1435.628	527.5
1440.333	520.5
1445.032	533.5
1449.727	528.5
1454.418	529.5
1459.104	526.5
1463.785	526.5
1468.462	513.5
1473.134	515.5
1477.802	500.5
1482.465	504.5
1487.123	506.5
1491.777	515.5
1496.426	513.5
1501.071	520.5
1505.711	528.5
1510.347	546.5
1514.978	557.5
1519.604	559.5
1524.226	565.5
1528.844	565.5
1533.457	566.5
1538.065	577.5
1542.669	576.5
1547.269	565.5
1551.864	580.5
1556.454	575.5
1561.041	576.5
1565.622	597.5
1570.199	605.5
1574.772	606.5
1579.34	631.5
1583.904	641.5
1588.464	652.5
1593.019	679.5
1597.569	680.5
1602.115	703.5
1606.657	716.5
1611.195	718.5
1615.728	732.5
1620.256	754.5
1624.78	762.5
1629.3	771.5
1633.816	792.5
1638.327	807.5
1642.834	817.5
1647.336	818.5
1651.834	808.5
1656.328	826.5
1660.817	801.5
1665.302	801.5
1669.783	760.5
1674.259	749.5
1678.732	714.5
1683.199	678.5
1687.663	646.5
1692.122	604.5
1696.577	584.5
1701.028	559.5
1705.474	554.5
1709.917	544.5
1714.355	523.5
1718.788	500.5
1723.218	478.5
1727.643	458.5
1732.064	436.5
1736.481	418.5
1740.893	397.5
1745.301	384.5
1749.705	378.5
1754.105	351.5
1758.501	334.5
1762.893	334.5
1767.28	320.5
1771.663	317.5
1776.042	299.5
1780.417	287.5
1784.787	303.5
1789.154	302.5
1793.516	303.5
1797.874	316.5
1802.228	315.5
1806.578	317.5
1810.924	290.5
1815.266	301.5
1819.603	296.5
1823.937	282.5
1828.266	280.5
1832.591	274.5
1836.913	264.5
1841.23	267.5
1845.543	268.5
1849.852	268.5
1854.156	268.5
1858.457	260.5
1862.754	261.5
1867.047	262.5
1871.335	265.5
1875.62	264.5
1879.9	262.5
1884.177	259.5
1888.449	257.5
1892.718	257.5
1896.982	262.5
1901.243	263.5
1905.499	261.5
1909.752	263.5
1914	258.5
1918.245	260.5
1922.485	264.5
1926.722	271.5
1930.954	263.5
1935.183	277.5
1939.408	276.5
1943.628	278.5
1947.845	273.5
1952.058	279.5
1956.267	287.5
1960.472	272.5
1964.673	268.5
1968.87	273.5
1973.063	270.5
1977.252	263.5
1981.438	269.5
1985.619	267.5
1989.797	266.5
1993.971	260.5
1998.14	265.5
2002.306	269.5
2006.469	271.5
2010.627	265.5
2014.781	267.5
2018.932	262.5
2023.078	270.5
2027.221	273.5
2031.36	266.5
2035.495	268.5
2039.627	257.5
2043.754	267.5
2047.878	258.5
2051.998	258.5
2056.114	261.5
2060.226	259.5
2064.334	265.5
2068.439	271.5
2072.54	276.5
2076.637	273.5
2080.73	281.5
2084.82	278.5
2088.906	294.5
2092.988	286.5
2097.066	281.5
2101.14	281.5
2105.211	291.5
2109.278	282.5
2113.342	287.5
2117.401	275.5
2121.457	276.5
2125.509	269.5
2129.558	266.5
2133.602	271.5
2137.643	264.5
2141.681	257.5
2145.714	267.5
2149.744	254.5
2153.77	266.5
2157.793	256.5
2161.812	261.5
2165.827	243.5
2169.838	245.5
2173.846	240.5
2177.851	236.5
2181.851	225.5
2185.848	219.5
2189.841	217.5
2193.831	218.5
2197.817	215.5
2201.799	208.5
2205.778	204.5
2209.753	212.5
2213.725	202.5
2217.693	208.5
2221.657	208.5
2225.618	207.5
2229.575	204.5
2233.529	206.5
2237.479	193.5
2241.425	198.5
2245.368	188.5
2249.307	192.5
2253.243	179.5
2257.175	175.5
2261.104	173.5
2265.029	177.5
2268.95	166.5
2272.868	163.5
2276.783	160.5
2280.694	159.5
2284.601	157.5
2288.505	156.5
2292.405	157.5
2296.302	149.5
2300.195	149.5
2304.085	140.5
2307.971	138.5
2311.854	138.5
2315.734	127.5
2319.609	126.5
2323.482	128.5
2327.351	125.5
2331.216	131.5
2335.078	122.5
2338.937	122.5
2342.792	120.5
2346.643	115.5
2350.492	109.5
2354.336	114.5
2358.178	115.5
2362.015	117.5
2365.85	111.5
2369.681	115.5
2373.508	113.5
2377.333	113.5
2381.153	111.5
2384.971	112.5
2388.785	107.5
2392.595	114.5
2396.402	106.5
2400.206	102.5
2404.007	93.5
2407.804	102.5
2411.597	98.5
2415.388	93.5
2419.174	97.5
2422.958	99.5
2426.738	96.5
2430.515	103.5
2434.289	93.5
2438.059	93.5
2441.825	91.5
2445.589	93.5
2449.349	95.5
2453.106	89.5
2456.859	82.5
2460.61	78.5
2464.356	81.5
2468.1	78.5
2471.84	87.5
2475.577	75.5
2479.311	82.5
2483.041	90.5
2486.768	83.5
2490.492	78.5
2494.213	78.5
2497.93	75.5
2501.644	78.5
2505.355	79.5
2509.062	77.5
2512.766	78.5
2516.467	79.5
2520.165	78.5
2523.859	75.5
2527.551	78.5
2531.239	71.5
2534.923	72.5
2538.605	70.5
2542.283	71.5
2545.958	71.5
2549.63	74.5
2553.299	68.5
2556.964	63.5
2560.626	68.5
2564.285	72.5
2567.941	69.5
2571.594	64.5
2575.243	68.5
2578.89	63.5
2582.533	64.5
2586.173	60.5
2589.809	62.5
2593.443	66.5
2597.073	63.5
2600.701	64.5
2604.325	60.5
2607.946	54.5
2611.564	59.5
2615.178	59.5
2618.79	57.5
2622.398	63.5
2626.004	56.5
2629.606	50.5
2633.205	53.5
2636.801	57.5
2640.394	64.5
2643.983	49.5
2647.57	52.5
2651.153	47.5
2654.734	49.5
2658.311	49.5
2661.885	41.5
2665.456	50.5
2669.025	49.5
2672.589	45.5
2676.151	44.5
2679.71	48.5
2683.266	42.5
2686.819	44.5
2690.368	48.5
2693.915	41.5
2697.458	38.5
2700.999	38.5
2704.536	39.5
2708.071	35.5
2711.602	39.5
2715.13	40.5
2718.656	42.5
2722.178	35.5
2725.697	37.5
2729.214	35.5
2732.727	30.5
2736.237	35.5
2739.744	39.5
2743.249	39.5
2746.75	39.5
2750.248	43.5
2753.743	51.5
2757.236	44.5
2760.725	52.5
2764.211	51.5
2767.695	52.5
2771.175	51.5
2774.652	49.5
2778.127	48.5
2781.598	52.5
2785.067	43.5
2788.532	49.5
2791.995	52.5
2795.455	48.5
2798.911	57.5
2802.365	55.5
2805.816	56.5
2809.264	59.5
2812.709	57.5
2816.151	59.5
2819.59	58.5
2823.026	56.5
2826.46	56.5
2829.89	58.5
2833.318	63.5
2836.742	57.5
2840.164	70.5
2843.583	74.5
2846.999	74.5
2850.412	77.5
2853.822	82.5
2857.229	72.5
2860.634	81.5
2864.035	83.5
2867.434	87.5
2870.83	87.5
2874.223	84.5
2877.613	90.5
2881	102.5
2884.385	91.5
2887.766	96.5
2891.145	95.5
2894.521	100.5
2897.894	108.5
2901.264	112.5
2904.631	107.5
2907.996	112.5
2911.358	115.5
2914.717	122.5
2918.073	120.5
2921.426	128.5
2924.777	122.5
2928.124	129.5
2931.469	142.5
2934.811	140.5
2938.15	143.5
2941.487	154.5
2944.821	160.5
2948.152	168.5
2951.48	163.5
2954.805	177.5
2958.128	173.5
2961.447	175.5
2964.765	184.5
2968.079	182.5
2971.39	192.5
2974.699	208.5
2978.005	215.5
2981.308	224.5
2984.609	233.5
2987.907	250.5
2991.202	245.5
2994.494	264.5
2997.784	267.5
3001.07	270.5
3004.355	287.5
3007.636	297.5
3010.915	309.5
3014.191	321.5
3017.464	323.5
3020.734	329.5
3024.002	339.5
3027.267	346.5
3030.53	351.5
3033.789	359.5
3037.046	362.5
3040.301	370.5
3043.552	398.5
3046.801	396.5
3050.048	411.5
3053.291	429.5
3056.532	450.5
3059.771	464.5
3063.006	470.5
3066.239	490.5
3069.469	505.5
3072.697	522.5
3075.922	531.5
3079.144	553.5
3082.364	569.5
3085.581	587.5
3088.795	597.5
3092.007	627.5
3095.216	630.5
3098.423	641.5
3101.627	648.5
3104.828	682.5
3108.026	705.5
3111.222	723.5
3114.416	721.5
3117.607	743.5
3120.795	766.5
3123.98	792.5
3127.163	807.5
3130.344	816.5
3133.521	841.5
3136.696	864.5
3139.869	872.5
3143.039	904.5
3146.206	920.5
3149.371	936.5
3152.533	936.5
3155.693	951.5
3158.85	961.5
3162.005	960.5
3165.157	967.5
3168.306	959.5
3171.453	975.5
3174.597	978.5
3177.739	982.5
3180.878	977.5
3184.014	990.5
3187.149	999.5
3190.28	1009.5
3193.409	1001.5
3196.536	1016.5
3199.659	1008.5
3202.781	1011.5
3205.9	1018.5
3209.016	1007.5
3212.13	1015.5
3215.241	1011.5
3218.35	1008.5
3221.456	998.5
3224.56	995.5
3227.661	990.5
3230.76	977.5
3233.856	956.5
3236.95	952.5
3240.041	960.5
3243.13	954.5
3246.216	949.5
3249.3	928.5
3252.382	940.5
3255.46	919.5
3258.537	933.5
3261.611	919.5
3264.682	922.5
3267.751	923.5
3270.818	922.5
3273.882	917.5
3276.943	924.5
3280.002	908.5
3283.059	885.5
3286.113	887.5
3289.165	879.5
3292.214	867.5
3295.261	855.5
3298.306	825.5
3301.348	812.5
3304.387	803.5
3307.425	788.5
3310.459	786.5
3313.492	776.5
3316.521	769.5
3319.549	750.5
3322.574	760.5
3325.597	750.5
3328.617	732.5
3331.635	731.5
3334.65	728.5
3337.663	724.5
3340.674	715.5
3343.682	723.5
3346.688	731.5
3349.691	727.5
3352.692	703.5
3355.691	714.5
3358.687	710.5
3361.681	691.5
3364.673	679.5
3367.662	678.5
3370.649	667.5
3373.633	656.5
3376.615	655.5
3379.595	644.5
3382.572	641.5
3385.547	636.5
3388.52	626.5
3391.49	606.5
3394.458	596.5
3397.424	602.5
3400.387	588.5
3403.348	579.5
3406.307	566.5
3409.263	574.5
3412.217	570.5
3415.168	564.5
3418.118	561.5
3421.065	554.5
3424.009	552.5
3426.951	535.5
3429.891	524.5
3432.829	514.5
3435.764	496.5
3438.697	495.5
3441.628	485.5
3444.557	479.5
3447.483	466.5
3450.407	454.5
3453.328	435.5
3456.247	430.5
3459.164	415.5
3462.079	405.5
3464.991	386.5
3467.902	384.5
3470.809	370.5
3473.715	365.5
3476.618	345.5
3479.519	334.5
3482.418	329.5
3485.315	326.5
3488.209	313.5
3491.101	310.5
3493.99	301.5
3496.878	285.5
3499.763	275.5
3502.646	273.5
3505.527	271.5
3508.405	244.5
3511.281	242.5
3514.155	230.5
3517.027	222.5
3519.897	209.5
3522.764	209.5
3525.629	193.5
3528.492	183.5
3531.352	175.5
3534.211	162.5
3537.067	154.5
3539.921	146.5
3542.773	143.5
3545.622	133.5
3548.469	118.5
3551.315	115.5
3554.157	109.5
3556.998	104.5
3559.837	96.5
3562.673	91.5
3565.507	85.5
3568.339	81.5
3571.169	86.5
3573.996	73.5
3576.822	74.5
3579.645	60.5
3582.466	54.5
3585.285	55.5
3588.101	47.5
3590.916	45.5
3593.728	40.5
3596.538	30.5
3599.346	26.5
3602.152	25.5
3604.956	24.5
3607.757	16.5
3610.556	17.5
3613.354	15.5
3616.149	7.5
3618.942	0.5
3621.732	3.5
3624.521	-3.5
3627.307	-4.5
3630.092	-5.5
3632.874	-5.5
3635.654	-10.5
3638.432	-13.5
3641.208	-13.5
3643.982	-23.5
3646.753	-23.5
3649.523	-20.5
3652.29	-17.5
3655.055	-27.5
3657.818	-29.5
3660.579	-34.5
3663.338	-34.5
3666.095	-34.5
3668.849	-38.5
3671.602	-42.5
3674.352	-45.5
3677.101	-49.5
3679.847	-52.5
3682.591	-58.5
3685.333	-53.5
3688.073	-50.5
3690.811	-54.5
3693.547	-54.5
3696.281	-58.5
3699.013	-61.5
3701.742	-52.5
3704.47	-62.5
3707.195	-60.5
3709.919	-62.5
3712.64	-67.5
3715.359	-65.5
3718.076	-64.5
3720.792	-63.5
3723.505	-68.5
3726.216	-69.5
3728.925	-65.5
3731.632	-66.5
3734.336	-70.5
3737.039	-70.5
3739.74	-71.5
3742.439	-74.5
3745.136	-72.5
3747.83	-76.5
3750.523	-75.5
3753.213	-73.5
3755.902	-73.5
3758.589	-73.5
3761.273	-73.5
3763.956	-73.5
3766.636	-75.5
3769.315	-74.5
3771.991	-79.5
3774.665	-81.5
3777.338	-79.5
3780.008	-79.5
3782.677	-78.5
3785.343	-77.5
3788.007	-77.5
3790.67	-83.5
3793.33	-75.5
3795.989	-80.5
3798.645	-83.5
3801.299	-81.5
3803.952	-76.5
3806.602	-79.5
3809.251	-78.5
3811.897	-79.5
3814.542	-81.5
3817.184	-80.5
3819.825	-79.5
3822.463	-81.5
3825.1	-78.5
3827.735	-79.5
3830.367	-79.5
3832.998	-81.5
3835.627	-79.5
3838.253	-78.5
3840.878	-82.5
3843.501	-81.5
3846.122	-84.5
3848.741	-81.5
3851.358	-80.5
3853.973	-82.5
3856.586	-83.5
3859.197	-86.5
3861.806	-85.5
3864.414	-88.5
3867.019	-83.5
3869.622	-83.5
3872.224	-79.5
3874.823	-80.5
3877.421	-78.5
3880.016	-75.5
3882.61	-71.5
3885.202	-70.5
3887.792	-79.5
3890.38	-78.5
3892.966	-84.5
3895.55	-85.5
3898.132	-84.5
3900.713	-82.5
3903.291	-83.5
3905.868	-80.5
3908.442	-82.5
3911.015	-82.5
3913.586	-87.5
3916.155	-86.5
3918.722	-80.5
3921.287	-88.5
3923.85	-88.5
3926.411	-86.5
3928.971	-87.5
3931.528	-85.5
3934.084	-86.5
3936.638	-86.5
3939.19	-78.5
3941.74	-81.5
3944.288	-82.5
3946.834	-86.5
3949.378	-85.5
3951.921	-89.5
3954.462	-86.5
3957	-88.5
3959.537	-88.5
3962.072	-85.5
3964.606	-85.5
3967.137	-81.5
3969.667	-85.5
3972.194	-83.5
3974.72	-81.5
3977.244	-84.5
3979.766	-83.5
3982.286	-86.5
3984.805	-85.5
3987.321	-83.5
3989.836	-89.5
3992.349	-77.5
3994.86	-82.5
3997.369	-81.5
3999.877	-81.5
4002.382	-82.5
4004.886	-80.5
4007.388	-85.5
4009.888	-83.5
4012.386	-84.5
4014.883	-85.5
4017.377	-86.5
4019.87	-85.5
4022.361	-84.5
4024.85	-80.5
4027.338	-85.5
4029.823	-83.5
4032.307	-84.5
4034.789	-83.5
4037.269	-87.5
4039.747	-84.5
4042.224	-87.5
4044.699	-84.5
4047.172	-83.5
4049.643	-87.5
4052.112	-85.5
4054.58	-87.5
4057.046	-89.5
4059.51	-85.5
4061.972	-89.5
4064.432	-79.5
4066.891	-84.5
4069.348	-81.5
4071.803	-84.5
4074.256	-80.5
4076.708	-81.5
4079.158	-84.5
4081.606	-88.5
4084.052	-86.5
4086.497	-87.5
4088.939	-88.5
4091.38	-85.5
4093.819	-86.5
4096.257	-88.5
4098.693	-85.5
4101.127	-85.5
4103.559	-85.5
4105.989	-54.5
4108.418	-53.5
4110.845	-52.5
4113.27	-48.5
4115.694	-43.5
4118.115	-33.5
4120.535	-82.5
4122.954	-84.5
4125.37	-84.5
4127.785	-83.5
4130.198	-84.5
4132.609	-85.5
4135.019	-88.5
4137.427	-93.5
4139.833	-91.5
4142.237	-91.5
