Data from B_sub_water_10000CFU1_RamanShift_1.txt Node
Date: Thu Feb 23 11:59:43 IST 2017
User: aro
Spectrometer: QEPB0276
Trigger mode: 0
Integration Time (sec): 5.000000E0
Scans to average: 1
Electric dark correction enabled: true
Nonlinearity correction enabled: false
Boxcar width: 0
XAxis mode: Raman Shifts
Number of Pixels in Spectrum: 1044
>>>>>Begin Spectral Data<<<<<
160.701	-27.25
166.742	3.75
172.777	87.75
178.805	331.75
184.826	952.75
190.841	1981.75
196.849	3151.75
202.85	3924.75
208.845	4109.75
214.833	3993.75
220.815	3832.75
226.789	3731.75
232.758	3634.75
238.719	3516.75
244.674	3402.75
250.623	3251.75
256.565	3096.75
262.5	2941.75
268.429	2840.75
274.351	2716.75
280.267	2608.75
286.176	2525.75
292.079	2445.75
297.975	2354.75
303.865	2298.75
309.748	2268.75
315.625	2207.75
321.495	2123.75
327.359	2102.75
333.217	2094.75
339.068	2063.75
344.912	2085.75
350.751	2081.75
356.583	2060.75
362.408	2071.75
368.227	2067.75
374.04	2085.75
379.847	2087.75
385.647	2088.75
391.44	2105.75
397.228	2088.75
403.009	2132.75
408.784	2139.75
414.553	2116.75
420.315	2151.75
426.071	2124.75
431.821	2133.75
437.565	2114.75
443.302	2128.75
449.033	2136.75
454.758	2118.75
460.477	2110.75
466.189	2097.75
471.896	2076.75
477.596	2057.75
483.29	2043.75
488.978	2041.75
494.66	2006.75
500.335	2016.75
506.005	1972.75
511.668	1923.75
517.325	1892.75
522.977	1865.75
528.622	1825.75
534.261	1820.75
539.894	1795.75
545.521	1776.75
551.141	1774.75
556.756	1740.75
562.365	1756.75
567.968	1740.75
573.565	1722.75
579.155	1697.75
584.74	1693.75
590.319	1692.75
595.892	1656.75
601.459	1674.75
607.02	1643.75
612.575	1633.75
618.124	1629.75
623.667	1604.75
629.204	1591.75
634.735	1567.75
640.261	1559.75
645.781	1549.75
651.294	1520.75
656.802	1513.75
662.304	1532.75
667.8	1520.75
673.29	1506.75
678.775	1511.75
684.254	1507.75
689.726	1499.75
695.193	1489.75
700.655	1480.75
706.11	1453.75
711.56	1449.75
717.004	1442.75
722.442	1438.75
727.874	1420.75
733.301	1415.75
738.722	1402.75
744.137	1405.75
749.547	1394.75
754.951	1393.75
760.349	1390.75
765.741	1374.75
771.128	1391.75
776.509	1379.75
781.885	1378.75
787.254	1385.75
792.618	1368.75
797.977	1367.75
803.33	1350.75
808.677	1340.75
814.019	1328.75
819.355	1309.75
824.686	1297.75
830.011	1282.75
835.33	1273.75
840.644	1272.75
845.952	1261.75
851.255	1256.75
856.552	1248.75
861.844	1237.75
867.13	1232.75
872.41	1217.75
877.686	1206.75
882.955	1187.75
888.219	1184.75
893.478	1158.75
898.731	1155.75
903.979	1124.75
909.221	1115.75
914.458	1100.75
919.69	1109.75
924.916	1094.75
930.136	1085.75
935.351	1088.75
940.561	1092.75
945.766	1088.75
950.965	1086.75
956.158	1062.75
961.347	1062.75
966.529	1040.75
971.707	1028.75
976.879	1012.75
982.046	1016.75
987.208	989.75
992.364	1007.75
997.515	990.75
1002.66	1004.75
1007.801	1016.75
1012.936	1009.75
1018.066	1011.75
1023.19	1025.75
1028.309	1029.75
1033.423	1027.75
1038.532	1022.75
1043.636	1021.75
1048.734	1007.75
1053.827	998.75
1058.915	988.75
1063.998	980.75
1069.075	986.75
1074.147	969.75
1079.214	969.75
1084.276	993.75
1089.333	1007.75
1094.385	1003.75
1099.431	1017.75
1104.472	1026.75
1109.509	999.75
1114.54	995.75
1119.565	978.75
1124.586	951.75
1129.602	962.75
1134.613	940.75
1139.618	956.75
1144.619	942.75
1149.614	953.75
1154.604	951.75
1159.589	973.75
1164.57	961.75
1169.545	942.75
1174.515	958.75
1179.48	953.75
1184.44	951.75
1189.395	938.75
1194.345	943.75
1199.29	928.75
1204.23	937.75
1209.165	937.75
1214.095	954.75
1219.021	968.75
1223.941	966.75
1228.856	972.75
1233.766	985.75
1238.672	967.75
1243.572	964.75
1248.467	954.75
1253.358	951.75
1258.244	949.75
1263.124	924.75
1268	912.75
1272.871	905.75
1277.737	909.75
1282.599	897.75
1287.455	896.75
1292.306	889.75
1297.153	904.75
1301.995	919.75
1306.832	912.75
1311.664	912.75
1316.491	910.75
1321.314	922.75
1326.132	904.75
1330.945	889.75
1335.753	869.75
1340.556	843.75
1345.354	833.75
1350.148	837.75
1354.937	820.75
1359.722	817.75
1364.501	830.75
1369.276	843.75
1374.046	843.75
1378.811	853.75
1383.572	861.75
1388.327	864.75
1393.079	842.75
1397.825	843.75
1402.567	813.75
1407.304	817.75
1412.036	792.75
1416.764	798.75
1421.487	795.75
1426.205	784.75
1430.919	798.75
1435.628	813.75
1440.333	812.75
1445.032	805.75
1449.727	806.75
1454.418	826.75
1459.104	814.75
1463.785	811.75
1468.462	804.75
1473.134	800.75
1477.802	781.75
1482.465	787.75
1487.123	770.75
1491.777	781.75
1496.426	780.75
1501.071	799.75
1505.711	803.75
1510.347	817.75
1514.978	829.75
1519.604	845.75
1524.226	859.75
1528.844	863.75
1533.457	869.75
1538.065	872.75
1542.669	862.75
1547.269	856.75
1551.864	856.75
1556.454	870.75
1561.041	882.75
1565.622	879.75
1570.199	906.75
1574.772	898.75
1579.34	920.75
1583.904	939.75
1588.464	945.75
1593.019	983.75
1597.569	981.75
1602.115	976.75
1606.657	993.75
1611.195	999.75
1615.728	1013.75
1620.256	1025.75
1624.78	1055.75
1629.3	1055.75
1633.816	1075.75
1638.327	1090.75
1642.834	1096.75
1647.336	1115.75
1651.834	1129.75
1656.328	1108.75
1660.817	1097.75
1665.302	1084.75
1669.783	1055.75
1674.259	1023.75
1678.732	976.75
1683.199	948.75
1687.663	890.75
1692.122	849.75
1696.577	830.75
1701.028	814.75
1705.474	808.75
1709.917	796.75
1714.355	773.75
1718.788	757.75
1723.218	724.75
1727.643	704.75
1732.064	695.75
1736.481	662.75
1740.893	647.75
1745.301	624.75
1749.705	613.75
1754.105	588.75
1758.501	579.75
1762.893	564.75
1767.28	551.75
1771.663	540.75
1776.042	549.75
1780.417	527.75
1784.787	535.75
1789.154	536.75
1793.516	536.75
1797.874	545.75
1802.228	548.75
1806.578	554.75
1810.924	547.75
1815.266	552.75
1819.603	533.75
1823.937	529.75
1828.266	513.75
1832.591	503.75
1836.913	487.75
1841.23	495.75
1845.543	486.75
1849.852	497.75
1854.156	500.75
1858.457	490.75
1862.754	483.75
1867.047	487.75
1871.335	493.75
1875.62	485.75
1879.9	493.75
1884.177	495.75
1888.449	483.75
1892.718	494.75
1896.982	484.75
1901.243	481.75
1905.499	477.75
1909.752	467.75
1914	483.75
1918.245	468.75
1922.485	479.75
1926.722	480.75
1930.954	493.75
1935.183	493.75
1939.408	489.75
1943.628	499.75
1947.845	499.75
1952.058	498.75
1956.267	500.75
1960.472	495.75
1964.673	489.75
1968.87	490.75
1973.063	486.75
1977.252	479.75
1981.438	479.75
1985.619	479.75
1989.797	472.75
1993.971	478.75
1998.14	475.75
2002.306	472.75
2006.469	478.75
2010.627	477.75
2014.781	467.75
2018.932	479.75
2023.078	479.75
2027.221	482.75
2031.36	475.75
2035.495	478.75
2039.627	463.75
2043.754	462.75
2047.878	460.75
2051.998	462.75
2056.114	457.75
2060.226	457.75
2064.334	459.75
2068.439	465.75
2072.54	461.75
2076.637	470.75
2080.73	475.75
2084.82	472.75
2088.906	474.75
2092.988	471.75
2097.066	473.75
2101.14	466.75
2105.211	476.75
2109.278	475.75
2113.342	469.75
2117.401	468.75
2121.457	465.75
2125.509	462.75
2129.558	458.75
2133.602	449.75
2137.643	459.75
2141.681	446.75
2145.714	448.75
2149.744	438.75
2153.77	446.75
2157.793	445.75
2161.812	440.75
2165.827	425.75
2169.838	419.75
2173.846	418.75
2177.851	410.75
2181.851	395.75
2185.848	390.75
2189.841	395.75
2193.831	389.75
2197.817	384.75
2201.799	385.75
2205.778	383.75
2209.753	380.75
2213.725	374.75
2217.693	370.75
2221.657	372.75
2225.618	375.75
2229.575	372.75
2233.529	367.75
2237.479	364.75
2241.425	363.75
2245.368	359.75
2249.307	359.75
2253.243	354.75
2257.175	339.75
2261.104	338.75
2265.029	328.75
2268.95	315.75
2272.868	311.75
2276.783	318.75
2280.694	314.75
2284.601	304.75
2288.505	302.75
2292.405	302.75
2296.302	295.75
2300.195	292.75
2304.085	289.75
2307.971	287.75
2311.854	282.75
2315.734	272.75
2319.609	272.75
2323.482	270.75
2327.351	264.75
2331.216	263.75
2335.078	255.75
2338.937	255.75
2342.792	254.75
2346.643	251.75
2350.492	245.75
2354.336	250.75
2358.178	242.75
2362.015	254.75
2365.85	247.75
2369.681	253.75
2373.508	248.75
2377.333	255.75
2381.153	248.75
2384.971	240.75
2388.785	241.75
2392.595	242.75
2396.402	237.75
2400.206	232.75
2404.007	228.75
2407.804	232.75
2411.597	229.75
2415.388	222.75
2419.174	220.75
2422.958	224.75
2426.738	226.75
2430.515	226.75
2434.289	215.75
2438.059	215.75
2441.825	221.75
2445.589	217.75
2449.349	215.75
2453.106	209.75
2456.859	213.75
2460.61	200.75
2464.356	208.75
2468.1	201.75
2471.84	203.75
2475.577	198.75
2479.311	201.75
2483.041	201.75
2486.768	197.75
2490.492	194.75
2494.213	199.75
2497.93	188.75
2501.644	197.75
2505.355	197.75
2509.062	191.75
2512.766	187.75
2516.467	190.75
2520.165	191.75
2523.859	199.75
2527.551	189.75
2531.239	185.75
2534.923	178.75
2538.605	181.75
2542.283	181.75
2545.958	180.75
2549.63	178.75
2553.299	177.75
2556.964	177.75
2560.626	182.75
2564.285	166.75
2567.941	175.75
2571.594	169.75
2575.243	166.75
2578.89	163.75
2582.533	173.75
2586.173	166.75
2589.809	165.75
2593.443	167.75
2597.073	169.75
2600.701	164.75
2604.325	166.75
2607.946	160.75
2611.564	167.75
2615.178	167.75
2618.79	155.75
2622.398	166.75
2626.004	156.75
2629.606	151.75
2633.205	153.75
2636.801	149.75
2640.394	154.75
2643.983	152.75
2647.57	147.75
2651.153	140.75
2654.734	142.75
2658.311	142.75
2661.885	138.75
2665.456	137.75
2669.025	141.75
2672.589	143.75
2676.151	134.75
2679.71	143.75
2683.266	133.75
2686.819	129.75
2690.368	130.75
2693.915	122.75
2697.458	122.75
2700.999	112.75
2704.536	123.75
2708.071	123.75
2711.602	115.75
2715.13	120.75
2718.656	119.75
2722.178	114.75
2725.697	115.75
2729.214	115.75
2732.727	113.75
2736.237	113.75
2739.744	117.75
2743.249	119.75
2746.75	112.75
2750.248	128.75
2753.743	123.75
2757.236	121.75
2760.725	123.75
2764.211	127.75
2767.695	128.75
2771.175	120.75
2774.652	120.75
2778.127	125.75
2781.598	128.75
2785.067	119.75
2788.532	126.75
2791.995	126.75
2795.455	125.75
2798.911	136.75
2802.365	125.75
2805.816	127.75
2809.264	128.75
2812.709	118.75
2816.151	121.75
2819.59	118.75
2823.026	119.75
2826.46	119.75
2829.89	131.75
2833.318	130.75
2836.742	124.75
2840.164	140.75
2843.583	133.75
2846.999	138.75
2850.412	134.75
2853.822	138.75
2857.229	138.75
2860.634	142.75
2864.035	146.75
2867.434	157.75
2870.83	149.75
2874.223	149.75
2877.613	163.75
2881	157.75
2884.385	154.75
2887.766	164.75
2891.145	157.75
2894.521	157.75
2897.894	171.75
2901.264	166.75
2904.631	163.75
2907.996	168.75
2911.358	171.75
2914.717	177.75
2918.073	170.75
2921.426	177.75
2924.777	172.75
2928.124	186.75
2931.469	190.75
2934.811	190.75
2938.15	199.75
2941.487	206.75
2944.821	203.75
2948.152	217.75
2951.48	211.75
2954.805	210.75
2958.128	220.75
2961.447	223.75
2964.765	231.75
2968.079	233.75
2971.39	240.75
2974.699	243.75
2978.005	265.75
2981.308	269.75
2984.609	273.75
2987.907	285.75
2991.202	289.75
2994.494	306.75
2997.784	308.75
3001.07	320.75
3004.355	338.75
3007.636	344.75
3010.915	356.75
3014.191	369.75
3017.464	368.75
3020.734	378.75
3024.002	379.75
3027.267	391.75
3030.53	392.75
3033.789	397.75
3037.046	407.75
3040.301	420.75
3043.552	432.75
3046.801	432.75
3050.048	459.75
3053.291	478.75
3056.532	484.75
3059.771	497.75
3063.006	507.75
3066.239	522.75
3069.469	543.75
3072.697	568.75
3075.922	577.75
3079.144	591.75
3082.364	618.75
3085.581	617.75
3088.795	640.75
3092.007	651.75
3095.216	673.75
3098.423	686.75
3101.627	693.75
3104.828	708.75
3108.026	734.75
3111.222	751.75
3114.416	769.75
3117.607	779.75
3120.795	809.75
3123.98	831.75
3127.163	828.75
3130.344	854.75
3133.521	889.75
3136.696	891.75
3139.869	911.75
3143.039	918.75
3146.206	943.75
3149.371	964.75
3152.533	973.75
3155.693	981.75
3158.85	982.75
3162.005	975.75
3165.157	998.75
3168.306	1002.75
3171.453	992.75
3174.597	1026.75
3177.739	1022.75
3180.878	1018.75
3184.014	1024.75
3187.149	1022.75
3190.28	1032.75
3193.409	1036.75
3196.536	1038.75
3199.659	1061.75
3202.781	1052.75
3205.9	1047.75
3209.016	1046.75
3212.13	1046.75
3215.241	1047.75
3218.35	1034.75
3221.456	1035.75
3224.56	1018.75
3227.661	1006.75
3230.76	1007.75
3233.856	992.75
3236.95	973.75
3240.041	996.75
3243.13	973.75
3246.216	965.75
3249.3	961.75
3252.382	954.75
3255.46	958.75
3258.537	948.75
3261.611	940.75
3264.682	943.75
3267.751	943.75
3270.818	961.75
3273.882	930.75
3276.943	933.75
3280.002	918.75
3283.059	923.75
3286.113	903.75
3289.165	907.75
3292.214	878.75
3295.261	865.75
3298.306	856.75
3301.348	840.75
3304.387	824.75
3307.425	816.75
3310.459	812.75
3313.492	785.75
3316.521	792.75
3319.549	787.75
3322.574	775.75
3325.597	768.75
3328.617	763.75
3331.635	765.75
3334.65	760.75
3337.663	737.75
3340.674	735.75
3343.682	743.75
3346.688	738.75
3349.691	732.75
3352.692	725.75
3355.691	718.75
3358.687	719.75
3361.681	716.75
3364.673	711.75
3367.662	698.75
3370.649	679.75
3373.633	670.75
3376.615	666.75
3379.595	650.75
3382.572	649.75
3385.547	647.75
3388.52	635.75
3391.49	624.75
3394.458	615.75
3397.424	611.75
3400.387	596.75
3403.348	593.75
3406.307	590.75
3409.263	597.75
3412.217	582.75
3415.168	575.75
3418.118	570.75
3421.065	564.75
3424.009	542.75
3426.951	543.75
3429.891	518.75
3432.829	533.75
3435.764	518.75
3438.697	507.75
3441.628	503.75
3444.557	488.75
3447.483	460.75
3450.407	459.75
3453.328	444.75
3456.247	431.75
3459.164	420.75
3462.079	405.75
3464.991	390.75
3467.902	386.75
3470.809	367.75
3473.715	369.75
3476.618	349.75
3479.519	337.75
3482.418	334.75
3485.315	333.75
3488.209	318.75
3491.101	298.75
3493.99	290.75
3496.878	291.75
3499.763	272.75
3502.646	267.75
3505.527	257.75
3508.405	254.75
3511.281	247.75
3514.155	235.75
3517.027	226.75
3519.897	218.75
3522.764	205.75
3525.629	195.75
3528.492	182.75
3531.352	176.75
3534.211	166.75
3537.067	159.75
3539.921	152.75
3542.773	136.75
3545.622	124.75
3548.469	116.75
3551.315	114.75
3554.157	101.75
3556.998	98.75
3559.837	96.75
3562.673	85.75
3565.507	87.75
3568.339	80.75
3571.169	77.75
3573.996	69.75
3576.822	62.75
3579.645	60.75
3582.466	53.75
3585.285	46.75
3588.101	41.75
3590.916	38.75
3593.728	26.75
3596.538	33.75
3599.346	25.75
3602.152	23.75
3604.956	24.75
3607.757	15.75
3610.556	11.75
3613.354	7.75
3616.149	-1.25
3618.942	-2.25
3621.732	-6.25
3624.521	-11.25
3627.307	-10.25
3630.092	-14.25
3632.874	-13.25
3635.654	-14.25
3638.432	-20.25
3641.208	-17.25
3643.982	-26.25
3646.753	-25.25
3649.523	-31.25
3652.29	-28.25
3655.055	-39.25
3657.818	-37.25
3660.579	-40.25
3663.338	-43.25
3666.095	-41.25
3668.849	-44.25
3671.602	-46.25
3674.352	-50.25
3677.101	-53.25
3679.847	-55.25
3682.591	-57.25
3685.333	-62.25
3688.073	-62.25
3690.811	-61.25
3693.547	-64.25
3696.281	-66.25
3699.013	-65.25
3701.742	-65.25
3704.47	-68.25
3707.195	-64.25
3709.919	-64.25
3712.64	-70.25
3715.359	-69.25
3718.076	-72.25
3720.792	-72.25
3723.505	-73.25
3726.216	-80.25
3728.925	-71.25
3731.632	-74.25
3734.336	-79.25
3737.039	-81.25
3739.74	-79.25
3742.439	-84.25
3745.136	-75.25
3747.83	-79.25
3750.523	-80.25
3753.213	-84.25
3755.902	-78.25
3758.589	-78.25
3761.273	-83.25
3763.956	-80.25
3766.636	-84.25
3769.315	-90.25
3771.991	-86.25
3774.665	-83.25
3777.338	-84.25
3780.008	-88.25
3782.677	-84.25
3785.343	-84.25
3788.007	-82.25
3790.67	-86.25
3793.33	-88.25
3795.989	-86.25
3798.645	-92.25
3801.299	-91.25
3803.952	-86.25
3806.602	-88.25
3809.251	-85.25
3811.897	-86.25
3814.542	-88.25
3817.184	-87.25
3819.825	-83.25
3822.463	-88.25
3825.1	-83.25
3827.735	-88.25
3830.367	-85.25
3832.998	-94.25
3835.627	-87.25
3838.253	-89.25
3840.878	-90.25
3843.501	-89.25
3846.122	-88.25
3848.741	-86.25
3851.358	-89.25
3853.973	-91.25
3856.586	-88.25
3859.197	-90.25
3861.806	-91.25
3864.414	-89.25
3867.019	-92.25
3869.622	-92.25
3872.224	-91.25
3874.823	-91.25
3877.421	-88.25
3880.016	-83.25
3882.61	-80.25
3885.202	-81.25
3887.792	-87.25
3890.38	-84.25
3892.966	-87.25
3895.55	-90.25
3898.132	-92.25
3900.713	-93.25
3903.291	-92.25
3905.868	-92.25
3908.442	-93.25
3911.015	-92.25
3913.586	-96.25
3916.155	-94.25
3918.722	-92.25
3921.287	-95.25
3923.85	-94.25
3926.411	-92.25
3928.971	-93.25
3931.528	-95.25
3934.084	-92.25
3936.638	-97.25
3939.19	-92.25
3941.74	-97.25
3944.288	-95.25
3946.834	-95.25
3949.378	-95.25
3951.921	-94.25
3954.462	-94.25
3957	-96.25
3959.537	-95.25
3962.072	-93.25
3964.606	-94.25
3967.137	-95.25
3969.667	-96.25
3972.194	-94.25
3974.72	-93.25
3977.244	-97.25
3979.766	-91.25
3982.286	-98.25
3984.805	-91.25
3987.321	-92.25
3989.836	-91.25
3992.349	-87.25
3994.86	-87.25
3997.369	-89.25
3999.877	-93.25
4002.382	-93.25
4004.886	-92.25
4007.388	-95.25
4009.888	-93.25
4012.386	-92.25
4014.883	-94.25
4017.377	-93.25
4019.87	-93.25
4022.361	-92.25
4024.85	-91.25
4027.338	-94.25
4029.823	-93.25
4032.307	-94.25
4034.789	-98.25
4037.269	-95.25
4039.747	-94.25
4042.224	-93.25
4044.699	-95.25
4047.172	-93.25
4049.643	-88.25
4052.112	-93.25
4054.58	-94.25
4057.046	-94.25
4059.51	-94.25
4061.972	-97.25
4064.432	-95.25
4066.891	-97.25
4069.348	-93.25
4071.803	-94.25
4074.256	-94.25
4076.708	-93.25
4079.158	-94.25
4081.606	-94.25
4084.052	-92.25
4086.497	-92.25
4088.939	-95.25
4091.38	-94.25
4093.819	-94.25
4096.257	-98.25
4098.693	-92.25
4101.127	-96.25
4103.559	-95.25
4105.989	-61.25
4108.418	-57.25
4110.845	-55.25
4113.27	-54.25
4115.694	-48.25
4118.115	-36.25
4120.535	-96.25
4122.954	-92.25
4125.37	-96.25
4127.785	-93.25
4130.198	-94.25
4132.609	-93.25
4135.019	-96.25
4137.427	-100.25
4139.833	-98.25
4142.237	-101.25
