Data from B_sub_water_100CFU_B1_RamanShift_1.txt Node
Date: Thu Feb 23 12:13:08 IST 2017
User: aro
Spectrometer: QEPB0276
Trigger mode: 0
Integration Time (sec): 5.000000E0
Scans to average: 1
Electric dark correction enabled: true
Nonlinearity correction enabled: false
Boxcar width: 0
XAxis mode: Raman Shifts
Number of Pixels in Spectrum: 1044
>>>>>Begin Spectral Data<<<<<
160.701	-29.12
166.742	-2.12
172.777	87.88
178.805	356.88
184.826	997.88
190.841	2076.88
196.849	3330.88
202.85	4112.88
208.845	4290.88
214.833	4137.88
220.815	3978.88
226.789	3819.88
232.758	3712.88
238.719	3563.88
244.674	3439.88
250.623	3281.88
256.565	3126.88
262.5	2944.88
268.429	2790.88
274.351	2689.88
280.267	2548.88
286.176	2450.88
292.079	2362.88
297.975	2264.88
303.865	2191.88
309.748	2123.88
315.625	2060.88
321.495	2027.88
327.359	1966.88
333.217	1964.88
339.068	1959.88
344.912	1928.88
350.751	1933.88
356.583	1918.88
362.408	1914.88
368.227	1922.88
374.04	1939.88
379.847	1941.88
385.647	1943.88
391.44	1947.88
397.228	1964.88
403.009	1978.88
408.784	1959.88
414.553	1978.88
420.315	1993.88
426.071	1985.88
431.821	1998.88
437.565	1984.88
443.302	1991.88
449.033	1962.88
454.758	1972.88
460.477	1962.88
466.189	1942.88
471.896	1918.88
477.596	1907.88
483.29	1888.88
488.978	1872.88
494.66	1865.88
500.335	1857.88
506.005	1795.88
511.668	1768.88
517.325	1721.88
522.977	1673.88
528.622	1661.88
534.261	1642.88
539.894	1619.88
545.521	1594.88
551.141	1585.88
556.756	1564.88
562.365	1569.88
567.968	1542.88
573.565	1521.88
579.155	1500.88
584.74	1504.88
590.319	1490.88
595.892	1481.88
601.459	1470.88
607.02	1460.88
612.575	1443.88
618.124	1430.88
623.667	1398.88
629.204	1401.88
634.735	1372.88
640.261	1357.88
645.781	1335.88
651.294	1330.88
656.802	1336.88
662.304	1321.88
667.8	1303.88
673.29	1314.88
678.775	1287.88
684.254	1291.88
689.726	1285.88
695.193	1280.88
700.655	1259.88
706.11	1252.88
711.56	1229.88
717.004	1222.88
722.442	1205.88
727.874	1209.88
733.301	1193.88
738.722	1180.88
744.137	1189.88
749.547	1169.88
754.951	1152.88
760.349	1169.88
765.741	1150.88
771.128	1136.88
776.509	1159.88
781.885	1153.88
787.254	1144.88
792.618	1134.88
797.977	1117.88
803.33	1119.88
808.677	1105.88
814.019	1088.88
819.355	1063.88
824.686	1047.88
830.011	1049.88
835.33	1042.88
840.644	1018.88
845.952	1010.88
851.255	1000.88
856.552	991.88
861.844	981.88
867.13	962.88
872.41	953.88
877.686	948.88
882.955	924.88
888.219	913.88
893.478	887.88
898.731	856.88
903.979	844.88
909.221	820.88
914.458	834.88
919.69	820.88
924.916	817.88
930.136	815.88
935.351	812.88
940.561	795.88
945.766	787.88
950.965	777.88
956.158	775.88
961.347	764.88
966.529	748.88
971.707	735.88
976.879	722.88
982.046	717.88
987.208	714.88
992.364	705.88
997.515	717.88
1002.66	711.88
1007.801	713.88
1012.936	721.88
1018.066	723.88
1023.19	722.88
1028.309	723.88
1033.423	723.88
1038.532	720.88
1043.636	720.88
1048.734	702.88
1053.827	699.88
1058.915	689.88
1063.998	688.88
1069.075	671.88
1074.147	672.88
1079.214	676.88
1084.276	685.88
1089.333	694.88
1094.385	689.88
1099.431	693.88
1104.472	703.88
1109.509	691.88
1114.54	672.88
1119.565	679.88
1124.586	660.88
1129.602	659.88
1134.613	646.88
1139.618	645.88
1144.619	641.88
1149.614	645.88
1154.604	642.88
1159.589	656.88
1164.57	650.88
1169.545	656.88
1174.515	654.88
1179.48	646.88
1184.44	656.88
1189.395	628.88
1194.345	643.88
1199.29	635.88
1204.23	638.88
1209.165	631.88
1214.095	644.88
1219.021	652.88
1223.941	644.88
1228.856	655.88
1233.766	638.88
1238.672	663.88
1243.572	647.88
1248.467	639.88
1253.358	628.88
1258.244	634.88
1263.124	615.88
1268	606.88
1272.871	608.88
1277.737	597.88
1282.599	582.88
1287.455	588.88
1292.306	602.88
1297.153	582.88
1301.995	600.88
1306.832	596.88
1311.664	608.88
1316.491	599.88
1321.314	592.88
1326.132	583.88
1330.945	588.88
1335.753	570.88
1340.556	548.88
1345.354	551.88
1350.148	541.88
1354.937	525.88
1359.722	527.88
1364.501	542.88
1369.276	539.88
1374.046	551.88
1378.811	557.88
1383.572	558.88
1388.327	551.88
1393.079	552.88
1397.825	545.88
1402.567	514.88
1407.304	511.88
1412.036	504.88
1416.764	498.88
1421.487	506.88
1426.205	503.88
1430.919	500.88
1435.628	510.88
1440.333	524.88
1445.032	524.88
1449.727	533.88
1454.418	519.88
1459.104	514.88
1463.785	513.88
1468.462	514.88
1473.134	508.88
1477.802	508.88
1482.465	491.88
1487.123	512.88
1491.777	513.88
1496.426	510.88
1501.071	517.88
1505.711	535.88
1510.347	547.88
1514.978	551.88
1519.604	556.88
1524.226	574.88
1528.844	584.88
1533.457	580.88
1538.065	579.88
1542.669	576.88
1547.269	570.88
1551.864	587.88
1556.454	594.88
1561.041	607.88
1565.622	628.88
1570.199	614.88
1574.772	636.88
1579.34	646.88
1583.904	651.88
1588.464	692.88
1593.019	705.88
1597.569	714.88
1602.115	739.88
1606.657	752.88
1611.195	753.88
1615.728	761.88
1620.256	810.88
1624.78	816.88
1629.3	835.88
1633.816	855.88
1638.327	865.88
1642.834	888.88
1647.336	875.88
1651.834	877.88
1656.328	874.88
1660.817	867.88
1665.302	847.88
1669.783	816.88
1674.259	789.88
1678.732	761.88
1683.199	723.88
1687.663	675.88
1692.122	642.88
1696.577	607.88
1701.028	586.88
1705.474	568.88
1709.917	555.88
1714.355	531.88
1718.788	504.88
1723.218	472.88
1727.643	449.88
1732.064	431.88
1736.481	411.88
1740.893	388.88
1745.301	381.88
1749.705	364.88
1754.105	347.88
1758.501	315.88
1762.893	319.88
1767.28	293.88
1771.663	291.88
1776.042	287.88
1780.417	285.88
1784.787	279.88
1789.154	279.88
1793.516	287.88
1797.874	294.88
1802.228	296.88
1806.578	281.88
1810.924	283.88
1815.266	283.88
1819.603	264.88
1823.937	254.88
1828.266	248.88
1832.591	244.88
1836.913	236.88
1841.23	236.88
1845.543	237.88
1849.852	239.88
1854.156	243.88
1858.457	241.88
1862.754	239.88
1867.047	237.88
1871.335	237.88
1875.62	234.88
1879.9	239.88
1884.177	229.88
1888.449	234.88
1892.718	235.88
1896.982	230.88
1901.243	234.88
1905.499	234.88
1909.752	228.88
1914	232.88
1918.245	236.88
1922.485	235.88
1926.722	251.88
1930.954	246.88
1935.183	251.88
1939.408	250.88
1943.628	249.88
1947.845	256.88
1952.058	248.88
1956.267	252.88
1960.472	254.88
1964.673	244.88
1968.87	252.88
1973.063	248.88
1977.252	247.88
1981.438	239.88
1985.619	239.88
1989.797	242.88
1993.971	243.88
1998.14	239.88
2002.306	237.88
2006.469	241.88
2010.627	240.88
2014.781	248.88
2018.932	243.88
2023.078	250.88
2027.221	253.88
2031.36	246.88
2035.495	252.88
2039.627	240.88
2043.754	248.88
2047.878	245.88
2051.998	239.88
2056.114	243.88
2060.226	250.88
2064.334	263.88
2068.439	266.88
2072.54	262.88
2076.637	264.88
2080.73	272.88
2084.82	268.88
2088.906	271.88
2092.988	274.88
2097.066	270.88
2101.14	264.88
2105.211	258.88
2109.278	272.88
2113.342	266.88
2117.401	266.88
2121.457	262.88
2125.509	268.88
2129.558	263.88
2133.602	251.88
2137.643	263.88
2141.681	257.88
2145.714	248.88
2149.744	239.88
2153.77	241.88
2157.793	240.88
2161.812	246.88
2165.827	233.88
2169.838	225.88
2173.846	223.88
2177.851	215.88
2181.851	208.88
2185.848	207.88
2189.841	202.88
2193.831	196.88
2197.817	203.88
2201.799	198.88
2205.778	191.88
2209.753	188.88
2213.725	194.88
2217.693	183.88
2221.657	182.88
2225.618	182.88
2229.575	185.88
2233.529	181.88
2237.479	182.88
2241.425	172.88
2245.368	162.88
2249.307	173.88
2253.243	161.88
2257.175	164.88
2261.104	154.88
2265.029	150.88
2268.95	146.88
2272.868	142.88
2276.783	145.88
2280.694	138.88
2284.601	131.88
2288.505	128.88
2292.405	129.88
2296.302	127.88
2300.195	125.88
2304.085	116.88
2307.971	118.88
2311.854	111.88
2315.734	106.88
2319.609	109.88
2323.482	103.88
2327.351	104.88
2331.216	103.88
2335.078	92.88
2338.937	92.88
2342.792	96.88
2346.643	81.88
2350.492	88.88
2354.336	97.88
2358.178	87.88
2362.015	84.88
2365.85	92.88
2369.681	89.88
2373.508	89.88
2377.333	85.88
2381.153	84.88
2384.971	86.88
2388.785	82.88
2392.595	86.88
2396.402	76.88
2400.206	78.88
2404.007	74.88
2407.804	77.88
2411.597	75.88
2415.388	70.88
2419.174	75.88
2422.958	66.88
2426.738	68.88
2430.515	74.88
2434.289	65.88
2438.059	69.88
2441.825	65.88
2445.589	67.88
2449.349	60.88
2453.106	58.88
2456.859	58.88
2460.61	58.88
2464.356	57.88
2468.1	56.88
2471.84	57.88
2475.577	54.88
2479.311	57.88
2483.041	56.88
2486.768	53.88
2490.492	53.88
2494.213	53.88
2497.93	53.88
2501.644	47.88
2505.355	50.88
2509.062	51.88
2512.766	44.88
2516.467	51.88
2520.165	55.88
2523.859	49.88
2527.551	47.88
2531.239	45.88
2534.923	43.88
2538.605	44.88
2542.283	45.88
2545.958	48.88
2549.63	44.88
2553.299	44.88
2556.964	43.88
2560.626	41.88
2564.285	42.88
2567.941	39.88
2571.594	39.88
2575.243	37.88
2578.89	40.88
2582.533	30.88
2586.173	36.88
2589.809	34.88
2593.443	40.88
2597.073	35.88
2600.701	36.88
2604.325	35.88
2607.946	32.88
2611.564	29.88
2615.178	31.88
2618.79	31.88
2622.398	34.88
2626.004	33.88
2629.606	31.88
2633.205	35.88
2636.801	32.88
2640.394	35.88
2643.983	31.88
2647.57	22.88
2651.153	22.88
2654.734	17.88
2658.311	20.88
2661.885	16.88
2665.456	20.88
2669.025	19.88
2672.589	18.88
2676.151	21.88
2679.71	20.88
2683.266	20.88
2686.819	25.88
2690.368	20.88
2693.915	22.88
2697.458	12.88
2700.999	14.88
2704.536	10.88
2708.071	15.88
2711.602	16.88
2715.13	22.88
2718.656	13.88
2722.178	13.88
2725.697	13.88
2729.214	13.88
2732.727	15.88
2736.237	15.88
2739.744	21.88
2743.249	19.88
2746.75	19.88
2750.248	23.88
2753.743	21.88
2757.236	25.88
2760.725	28.88
2764.211	28.88
2767.695	30.88
2771.175	34.88
2774.652	23.88
2778.127	39.88
2781.598	35.88
2785.067	32.88
2788.532	33.88
2791.995	32.88
2795.455	35.88
2798.911	38.88
2802.365	41.88
2805.816	38.88
2809.264	37.88
2812.709	44.88
2816.151	41.88
2819.59	44.88
2823.026	44.88
2826.46	45.88
2829.89	55.88
2833.318	47.88
2836.742	47.88
2840.164	54.88
2843.583	58.88
2846.999	59.88
2850.412	58.88
2853.822	67.88
2857.229	67.88
2860.634	67.88
2864.035	73.88
2867.434	77.88
2870.83	79.88
2874.223	88.88
2877.613	89.88
2881	85.88
2884.385	91.88
2887.766	90.88
2891.145	90.88
2894.521	96.88
2897.894	104.88
2901.264	104.88
2904.631	106.88
2907.996	108.88
2911.358	111.88
2914.717	120.88
2918.073	119.88
2921.426	136.88
2924.777	126.88
2928.124	129.88
2931.469	138.88
2934.811	150.88
2938.15	148.88
2941.487	152.88
2944.821	161.88
2948.152	175.88
2951.48	170.88
2954.805	186.88
2958.128	197.88
2961.447	197.88
2964.765	198.88
2968.079	202.88
2971.39	208.88
2974.699	222.88
2978.005	240.88
2981.308	248.88
2984.609	256.88
2987.907	265.88
2991.202	269.88
2994.494	305.88
2997.784	292.88
3001.07	326.88
3004.355	327.88
3007.636	332.88
3010.915	346.88
3014.191	352.88
3017.464	367.88
3020.734	369.88
3024.002	381.88
3027.267	391.88
3030.53	398.88
3033.789	406.88
3037.046	419.88
3040.301	426.88
3043.552	451.88
3046.801	451.88
3050.048	487.88
3053.291	496.88
3056.532	505.88
3059.771	527.88
3063.006	539.88
3066.239	551.88
3069.469	579.88
3072.697	603.88
3075.922	615.88
3079.144	634.88
3082.364	664.88
3085.581	671.88
3088.795	695.88
3092.007	712.88
3095.216	729.88
3098.423	750.88
3101.627	779.88
3104.828	780.88
3108.026	809.88
3111.222	844.88
3114.416	840.88
3117.607	875.88
3120.795	894.88
3123.98	925.88
3127.163	941.88
3130.344	974.88
3133.521	992.88
3136.696	1006.88
3139.869	1024.88
3143.039	1042.88
3146.206	1064.88
3149.371	1084.88
3152.533	1096.88
3155.693	1099.88
3158.85	1109.88
3162.005	1118.88
3165.157	1124.88
3168.306	1141.88
3171.453	1140.88
3174.597	1163.88
3177.739	1149.88
3180.878	1155.88
3184.014	1154.88
3187.149	1163.88
3190.28	1169.88
3193.409	1171.88
3196.536	1182.88
3199.659	1175.88
3202.781	1194.88
3205.9	1186.88
3209.016	1188.88
3212.13	1191.88
3215.241	1184.88
3218.35	1173.88
3221.456	1177.88
3224.56	1173.88
3227.661	1165.88
3230.76	1137.88
3233.856	1142.88
3236.95	1117.88
3240.041	1125.88
3243.13	1125.88
3246.216	1127.88
3249.3	1106.88
3252.382	1108.88
3255.46	1103.88
3258.537	1104.88
3261.611	1092.88
3264.682	1095.88
3267.751	1079.88
3270.818	1084.88
3273.882	1078.88
3276.943	1070.88
3280.002	1055.88
3283.059	1055.88
3286.113	1043.88
3289.165	1040.88
3292.214	1011.88
3295.261	1002.88
3298.306	990.88
3301.348	963.88
3304.387	958.88
3307.425	931.88
3310.459	926.88
3313.492	907.88
3316.521	921.88
3319.549	893.88
3322.574	883.88
3325.597	879.88
3328.617	875.88
3331.635	875.88
3334.65	867.88
3337.663	862.88
3340.674	839.88
3343.682	840.88
3346.688	836.88
3349.691	834.88
3352.692	830.88
3355.691	839.88
3358.687	835.88
3361.681	814.88
3364.673	795.88
3367.662	787.88
3370.649	775.88
3373.633	768.88
3376.615	755.88
3379.595	760.88
3382.572	751.88
3385.547	744.88
3388.52	734.88
3391.49	715.88
3394.458	706.88
3397.424	698.88
3400.387	694.88
3403.348	687.88
3406.307	683.88
3409.263	670.88
3412.217	662.88
3415.168	657.88
3418.118	658.88
3421.065	648.88
3424.009	641.88
3426.951	631.88
3429.891	609.88
3432.829	607.88
3435.764	591.88
3438.697	586.88
3441.628	575.88
3444.557	566.88
3447.483	553.88
3450.407	525.88
3453.328	514.88
3456.247	500.88
3459.164	492.88
3462.079	470.88
3464.991	466.88
3467.902	451.88
3470.809	437.88
3473.715	420.88
3476.618	413.88
3479.519	398.88
3482.418	390.88
3485.315	385.88
3488.209	375.88
3491.101	358.88
3493.99	358.88
3496.878	332.88
3499.763	328.88
3502.646	325.88
3505.527	309.88
3508.405	298.88
3511.281	290.88
3514.155	270.88
3517.027	269.88
3519.897	246.88
3522.764	235.88
3525.629	229.88
3528.492	219.88
3531.352	212.88
3534.211	204.88
3537.067	179.88
3539.921	169.88
3542.773	166.88
3545.622	155.88
3548.469	140.88
3551.315	137.88
3554.157	131.88
3556.998	124.88
3559.837	113.88
3562.673	109.88
3565.507	105.88
3568.339	96.88
3571.169	94.88
3573.996	87.88
3576.822	82.88
3579.645	78.88
3582.466	67.88
3585.285	63.88
3588.101	53.88
3590.916	53.88
3593.728	46.88
3596.538	42.88
3599.346	33.88
3602.152	30.88
3604.956	25.88
3607.757	23.88
3610.556	19.88
3613.354	19.88
3616.149	8.88
3618.942	0.88
3621.732	4.88
3624.521	-1.12
3627.307	-3.12
3630.092	-8.12
3632.874	-10.12
3635.654	-10.12
3638.432	-16.12
3641.208	-14.12
3643.982	-22.12
3646.753	-27.12
3649.523	-29.12
3652.29	-32.12
3655.055	-34.12
3657.818	-40.12
3660.579	-40.12
3663.338	-38.12
3666.095	-38.12
3668.849	-44.12
3671.602	-50.12
3674.352	-51.12
3677.101	-52.12
3679.847	-57.12
3682.591	-61.12
3685.333	-64.12
3688.073	-66.12
3690.811	-66.12
3693.547	-63.12
3696.281	-67.12
3699.013	-68.12
3701.742	-65.12
3704.47	-70.12
3707.195	-67.12
3709.919	-67.12
3712.64	-74.12
3715.359	-79.12
3718.076	-76.12
3720.792	-77.12
3723.505	-80.12
3726.216	-81.12
3728.925	-75.12
3731.632	-83.12
3734.336	-81.12
3737.039	-81.12
3739.74	-84.12
3742.439	-85.12
3745.136	-82.12
3747.83	-88.12
3750.523	-91.12
3753.213	-87.12
3755.902	-86.12
3758.589	-87.12
3761.273	-86.12
3763.956	-84.12
3766.636	-87.12
3769.315	-89.12
3771.991	-90.12
3774.665	-91.12
3777.338	-88.12
3780.008	-91.12
3782.677	-89.12
3785.343	-89.12
3788.007	-89.12
3790.67	-96.12
3793.33	-91.12
3795.989	-95.12
3798.645	-95.12
3801.299	-93.12
3803.952	-91.12
3806.602	-89.12
3809.251	-92.12
3811.897	-94.12
3814.542	-92.12
3817.184	-89.12
3819.825	-91.12
3822.463	-94.12
3825.1	-93.12
3827.735	-95.12
3830.367	-96.12
3832.998	-99.12
3835.627	-96.12
3838.253	-95.12
3840.878	-96.12
3843.501	-95.12
3846.122	-96.12
3848.741	-90.12
3851.358	-93.12
3853.973	-93.12
3856.586	-93.12
3859.197	-100.12
3861.806	-98.12
3864.414	-97.12
3867.019	-97.12
3869.622	-100.12
3872.224	-96.12
3874.823	-95.12
3877.421	-92.12
3880.016	-87.12
3882.61	-85.12
3885.202	-80.12
3887.792	-86.12
3890.38	-90.12
3892.966	-95.12
3895.55	-96.12
3898.132	-98.12
3900.713	-97.12
3903.291	-97.12
3905.868	-98.12
3908.442	-98.12
3911.015	-95.12
3913.586	-98.12
3916.155	-99.12
3918.722	-93.12
3921.287	-98.12
3923.85	-98.12
3926.411	-98.12
3928.971	-98.12
3931.528	-103.12
3934.084	-98.12
3936.638	-101.12
3939.19	-99.12
3941.74	-100.12
3944.288	-102.12
3946.834	-100.12
3949.378	-97.12
3951.921	-100.12
3954.462	-97.12
3957	-99.12
3959.537	-97.12
3962.072	-96.12
3964.606	-97.12
3967.137	-96.12
3969.667	-99.12
3972.194	-100.12
3974.72	-96.12
3977.244	-101.12
3979.766	-98.12
3982.286	-100.12
3984.805	-98.12
3987.321	-95.12
3989.836	-98.12
3992.349	-90.12
3994.86	-93.12
3997.369	-91.12
3999.877	-93.12
4002.382	-97.12
4004.886	-95.12
4007.388	-97.12
4009.888	-100.12
4012.386	-97.12
4014.883	-101.12
4017.377	-99.12
4019.87	-95.12
4022.361	-98.12
4024.85	-95.12
4027.338	-94.12
4029.823	-94.12
4032.307	-97.12
4034.789	-98.12
4037.269	-99.12
4039.747	-98.12
4042.224	-99.12
4044.699	-101.12
4047.172	-97.12
4049.643	-98.12
4052.112	-98.12
4054.58	-95.12
4057.046	-98.12
4059.51	-99.12
4061.972	-101.12
4064.432	-96.12
4066.891	-99.12
4069.348	-96.12
4071.803	-102.12
4074.256	-100.12
4076.708	-98.12
4079.158	-100.12
4081.606	-98.12
4084.052	-98.12
4086.497	-98.12
4088.939	-99.12
4091.38	-96.12
4093.819	-98.12
4096.257	-104.12
4098.693	-99.12
4101.127	-98.12
4103.559	-99.12
4105.989	-60.12
4108.418	-58.12
4110.845	-60.12
4113.27	-55.12
4115.694	-50.12
4118.115	-39.12
4120.535	-98.12
4122.954	-95.12
4125.37	-100.12
4127.785	-95.12
4130.198	-101.12
4132.609	-99.12
4135.019	-104.12
4137.427	-106.12
4139.833	-102.12
4142.237	-101.12
