Data from B_sub_water_0CFU1_RamanShift_1.txt Node
Date: Thu Feb 23 11:45:13 IST 2017
User: aro
Spectrometer: QEPB0276
Trigger mode: 0
Integration Time (sec): 5.000000E0
Scans to average: 1
Electric dark correction enabled: true
Nonlinearity correction enabled: false
Boxcar width: 0
XAxis mode: Raman Shifts
Number of Pixels in Spectrum: 1044
>>>>>Begin Spectral Data<<<<<
160.701	-26.5
166.742	3.5
172.777	76.5
178.805	330.5
184.826	926.5
190.841	1911.5
196.849	3059.5
202.85	3768.5
208.845	3933.5
214.833	3813.5
220.815	3643.5
226.789	3549.5
232.758	3436.5
238.719	3317.5
244.674	3168.5
250.623	3054.5
256.565	2888.5
262.5	2760.5
268.429	2604.5
274.351	2503.5
280.267	2368.5
286.176	2310.5
292.079	2223.5
297.975	2142.5
303.865	2081.5
309.748	1995.5
315.625	1959.5
321.495	1935.5
327.359	1882.5
333.217	1855.5
339.068	1857.5
344.912	1842.5
350.751	1847.5
356.583	1833.5
362.408	1837.5
368.227	1856.5
374.04	1856.5
379.847	1837.5
385.647	1850.5
391.44	1874.5
397.228	1877.5
403.009	1878.5
408.784	1907.5
414.553	1897.5
420.315	1879.5
426.071	1906.5
431.821	1905.5
437.565	1889.5
443.302	1915.5
449.033	1894.5
454.758	1887.5
460.477	1875.5
466.189	1860.5
471.896	1847.5
477.596	1826.5
483.29	1830.5
488.978	1824.5
494.66	1815.5
500.335	1753.5
506.005	1732.5
511.668	1684.5
517.325	1656.5
522.977	1641.5
528.622	1617.5
534.261	1577.5
539.894	1563.5
545.521	1563.5
551.141	1541.5
556.756	1531.5
562.365	1514.5
567.968	1515.5
573.565	1487.5
579.155	1482.5
584.74	1457.5
590.319	1445.5
595.892	1421.5
601.459	1429.5
607.02	1420.5
612.575	1401.5
618.124	1414.5
623.667	1383.5
629.204	1368.5
634.735	1356.5
640.261	1343.5
645.781	1330.5
651.294	1322.5
656.802	1308.5
662.304	1313.5
667.8	1303.5
673.29	1284.5
678.775	1293.5
684.254	1274.5
689.726	1285.5
695.193	1267.5
700.655	1245.5
706.11	1234.5
711.56	1230.5
717.004	1237.5
722.442	1204.5
727.874	1195.5
733.301	1180.5
738.722	1182.5
744.137	1179.5
749.547	1174.5
754.951	1167.5
760.349	1155.5
765.741	1164.5
771.128	1171.5
776.509	1172.5
781.885	1154.5
787.254	1142.5
792.618	1151.5
797.977	1137.5
803.33	1142.5
808.677	1121.5
814.019	1121.5
819.355	1097.5
824.686	1076.5
830.011	1078.5
835.33	1057.5
840.644	1048.5
845.952	1045.5
851.255	1040.5
856.552	1033.5
861.844	1012.5
867.13	1006.5
872.41	1023.5
877.686	1014.5
882.955	1002.5
888.219	974.5
893.478	962.5
898.731	930.5
903.979	905.5
909.221	890.5
914.458	885.5
919.69	880.5
924.916	884.5
930.136	869.5
935.351	875.5
940.561	873.5
945.766	860.5
950.965	844.5
956.158	840.5
961.347	821.5
966.529	818.5
971.707	804.5
976.879	785.5
982.046	779.5
987.208	775.5
992.364	780.5
997.515	781.5
1002.66	783.5
1007.801	802.5
1012.936	787.5
1018.066	792.5
1023.19	807.5
1028.309	810.5
1033.423	814.5
1038.532	796.5
1043.636	805.5
1048.734	799.5
1053.827	780.5
1058.915	787.5
1063.998	767.5
1069.075	768.5
1074.147	766.5
1079.214	769.5
1084.276	777.5
1089.333	776.5
1094.385	784.5
1099.431	811.5
1104.472	790.5
1109.509	784.5
1114.54	760.5
1119.565	756.5
1124.586	749.5
1129.602	731.5
1134.613	731.5
1139.618	722.5
1144.619	727.5
1149.614	723.5
1154.604	731.5
1159.589	736.5
1164.57	749.5
1169.545	752.5
1174.515	742.5
1179.48	731.5
1184.44	726.5
1189.395	716.5
1194.345	731.5
1199.29	722.5
1204.23	731.5
1209.165	735.5
1214.095	727.5
1219.021	728.5
1223.941	740.5
1228.856	747.5
1233.766	742.5
1238.672	741.5
1243.572	744.5
1248.467	725.5
1253.358	728.5
1258.244	704.5
1263.124	708.5
1268	700.5
1272.871	700.5
1277.737	690.5
1282.599	679.5
1287.455	676.5
1292.306	678.5
1297.153	691.5
1301.995	690.5
1306.832	690.5
1311.664	691.5
1316.491	697.5
1321.314	698.5
1326.132	685.5
1330.945	672.5
1335.753	668.5
1340.556	648.5
1345.354	638.5
1350.148	627.5
1354.937	632.5
1359.722	621.5
1364.501	631.5
1369.276	631.5
1374.046	645.5
1378.811	654.5
1383.572	659.5
1388.327	645.5
1393.079	643.5
1397.825	627.5
1402.567	615.5
1407.304	605.5
1412.036	599.5
1416.764	590.5
1421.487	591.5
1426.205	600.5
1430.919	602.5
1435.628	620.5
1440.333	620.5
1445.032	617.5
1449.727	621.5
1454.418	622.5
1459.104	633.5
1463.785	619.5
1468.462	613.5
1473.134	607.5
1477.802	606.5
1482.465	598.5
1487.123	608.5
1491.777	608.5
1496.426	607.5
1501.071	616.5
1505.711	621.5
1510.347	636.5
1514.978	647.5
1519.604	658.5
1524.226	656.5
1528.844	678.5
1533.457	674.5
1538.065	674.5
1542.669	670.5
1547.269	677.5
1551.864	667.5
1556.454	680.5
1561.041	687.5
1565.622	695.5
1570.199	711.5
1574.772	713.5
1579.34	736.5
1583.904	754.5
1588.464	768.5
1593.019	775.5
1597.569	786.5
1602.115	788.5
1606.657	808.5
1611.195	821.5
1615.728	834.5
1620.256	857.5
1624.78	873.5
1629.3	878.5
1633.816	909.5
1638.327	924.5
1642.834	933.5
1647.336	955.5
1651.834	930.5
1656.328	939.5
1660.817	929.5
1665.302	924.5
1669.783	886.5
1674.259	858.5
1678.732	812.5
1683.199	790.5
1687.663	759.5
1692.122	726.5
1696.577	687.5
1701.028	672.5
1705.474	651.5
1709.917	634.5
1714.355	622.5
1718.788	588.5
1723.218	570.5
1727.643	541.5
1732.064	530.5
1736.481	506.5
1740.893	490.5
1745.301	471.5
1749.705	451.5
1754.105	432.5
1758.501	424.5
1762.893	403.5
1767.28	395.5
1771.663	383.5
1776.042	393.5
1780.417	377.5
1784.787	381.5
1789.154	376.5
1793.516	383.5
1797.874	388.5
1802.228	388.5
1806.578	393.5
1810.924	385.5
1815.266	385.5
1819.603	367.5
1823.937	363.5
1828.266	355.5
1832.591	344.5
1836.913	346.5
1841.23	336.5
1845.543	335.5
1849.852	331.5
1854.156	340.5
1858.457	337.5
1862.754	338.5
1867.047	336.5
1871.335	334.5
1875.62	339.5
1879.9	336.5
1884.177	339.5
1888.449	335.5
1892.718	336.5
1896.982	341.5
1901.243	339.5
1905.499	342.5
1909.752	340.5
1914	329.5
1918.245	343.5
1922.485	331.5
1926.722	343.5
1930.954	347.5
1935.183	348.5
1939.408	347.5
1943.628	351.5
1947.845	363.5
1952.058	357.5
1956.267	353.5
1960.472	355.5
1964.673	347.5
1968.87	346.5
1973.063	331.5
1977.252	339.5
1981.438	339.5
1985.619	338.5
1989.797	344.5
1993.971	336.5
1998.14	345.5
2002.306	336.5
2006.469	334.5
2010.627	333.5
2014.781	350.5
2018.932	339.5
2023.078	347.5
2027.221	340.5
2031.36	340.5
2035.495	350.5
2039.627	338.5
2043.754	338.5
2047.878	340.5
2051.998	331.5
2056.114	340.5
2060.226	339.5
2064.334	333.5
2068.439	346.5
2072.54	352.5
2076.637	353.5
2080.73	364.5
2084.82	365.5
2088.906	366.5
2092.988	356.5
2097.066	359.5
2101.14	357.5
2105.211	362.5
2109.278	357.5
2113.342	354.5
2117.401	353.5
2121.457	347.5
2125.509	350.5
2129.558	346.5
2133.602	346.5
2137.643	341.5
2141.681	342.5
2145.714	337.5
2149.744	319.5
2153.77	329.5
2157.793	332.5
2161.812	322.5
2165.827	319.5
2169.838	315.5
2173.846	309.5
2177.851	291.5
2181.851	296.5
2185.848	285.5
2189.841	280.5
2193.831	276.5
2197.817	287.5
2201.799	275.5
2205.778	274.5
2209.753	268.5
2213.725	278.5
2217.693	271.5
2221.657	275.5
2225.618	270.5
2229.575	263.5
2233.529	260.5
2237.479	260.5
2241.425	245.5
2245.368	252.5
2249.307	246.5
2253.243	248.5
2257.175	248.5
2261.104	238.5
2265.029	233.5
2268.95	226.5
2272.868	229.5
2276.783	228.5
2280.694	221.5
2284.601	217.5
2288.505	213.5
2292.405	207.5
2296.302	200.5
2300.195	201.5
2304.085	201.5
2307.971	190.5
2311.854	190.5
2315.734	186.5
2319.609	189.5
2323.482	178.5
2327.351	169.5
2331.216	179.5
2335.078	174.5
2338.937	165.5
2342.792	166.5
2346.643	173.5
2350.492	165.5
2354.336	162.5
2358.178	162.5
2362.015	160.5
2365.85	164.5
2369.681	153.5
2373.508	156.5
2377.333	161.5
2381.153	152.5
2384.971	158.5
2388.785	151.5
2392.595	152.5
2396.402	157.5
2400.206	150.5
2404.007	146.5
2407.804	152.5
2411.597	143.5
2415.388	135.5
2419.174	144.5
2422.958	145.5
2426.738	133.5
2430.515	143.5
2434.289	135.5
2438.059	136.5
2441.825	139.5
2445.589	128.5
2449.349	134.5
2453.106	136.5
2456.859	130.5
2460.61	125.5
2464.356	130.5
2468.1	119.5
2471.84	127.5
2475.577	114.5
2479.311	120.5
2483.041	126.5
2486.768	129.5
2490.492	125.5
2494.213	121.5
2497.93	117.5
2501.644	122.5
2505.355	121.5
2509.062	113.5
2512.766	119.5
2516.467	121.5
2520.165	117.5
2523.859	119.5
2527.551	114.5
2531.239	114.5
2534.923	115.5
2538.605	108.5
2542.283	115.5
2545.958	107.5
2549.63	112.5
2553.299	110.5
2556.964	109.5
2560.626	117.5
2564.285	104.5
2567.941	112.5
2571.594	102.5
2575.243	102.5
2578.89	99.5
2582.533	97.5
2586.173	99.5
2589.809	102.5
2593.443	104.5
2597.073	99.5
2600.701	103.5
2604.325	97.5
2607.946	97.5
2611.564	97.5
2615.178	99.5
2618.79	94.5
2622.398	96.5
2626.004	92.5
2629.606	92.5
2633.205	92.5
2636.801	90.5
2640.394	88.5
2643.983	88.5
2647.57	86.5
2651.153	77.5
2654.734	78.5
2658.311	76.5
2661.885	74.5
2665.456	82.5
2669.025	75.5
2672.589	76.5
2676.151	70.5
2679.71	82.5
2683.266	77.5
2686.819	75.5
2690.368	71.5
2693.915	72.5
2697.458	65.5
2700.999	66.5
2704.536	72.5
2708.071	65.5
2711.602	62.5
2715.13	73.5
2718.656	69.5
2722.178	64.5
2725.697	61.5
2729.214	71.5
2732.727	68.5
2736.237	77.5
2739.744	74.5
2743.249	69.5
2746.75	74.5
2750.248	75.5
2753.743	72.5
2757.236	77.5
2760.725	69.5
2764.211	77.5
2767.695	81.5
2771.175	76.5
2774.652	80.5
2778.127	80.5
2781.598	77.5
2785.067	74.5
2788.532	80.5
2791.995	80.5
2795.455	78.5
2798.911	80.5
2802.365	79.5
2805.816	81.5
2809.264	83.5
2812.709	85.5
2816.151	84.5
2819.59	86.5
2823.026	84.5
2826.46	86.5
2829.89	94.5
2833.318	93.5
2836.742	86.5
2840.164	97.5
2843.583	100.5
2846.999	102.5
2850.412	106.5
2853.822	107.5
2857.229	106.5
2860.634	106.5
2864.035	108.5
2867.434	117.5
2870.83	111.5
2874.223	120.5
2877.613	127.5
2881	124.5
2884.385	136.5
2887.766	134.5
2891.145	144.5
2894.521	139.5
2897.894	135.5
2901.264	141.5
2904.631	141.5
2907.996	143.5
2911.358	154.5
2914.717	153.5
2918.073	154.5
2921.426	154.5
2924.777	168.5
2928.124	173.5
2931.469	183.5
2934.811	181.5
2938.15	182.5
2941.487	187.5
2944.821	199.5
2948.152	201.5
2951.48	201.5
2954.805	208.5
2958.128	219.5
2961.447	221.5
2964.765	217.5
2968.079	224.5
2971.39	233.5
2974.699	240.5
2978.005	250.5
2981.308	262.5
2984.609	272.5
2987.907	286.5
2991.202	294.5
2994.494	310.5
2997.784	315.5
3001.07	322.5
3004.355	344.5
3007.636	340.5
3010.915	350.5
3014.191	354.5
3017.464	370.5
3020.734	374.5
3024.002	389.5
3027.267	397.5
3030.53	398.5
3033.789	407.5
3037.046	419.5
3040.301	430.5
3043.552	439.5
3046.801	443.5
3050.048	464.5
3053.291	479.5
3056.532	491.5
3059.771	505.5
3063.006	530.5
3066.239	538.5
3069.469	568.5
3072.697	574.5
3075.922	591.5
3079.144	605.5
3082.364	620.5
3085.581	651.5
3088.795	656.5
3092.007	677.5
3095.216	697.5
3098.423	709.5
3101.627	722.5
3104.828	756.5
3108.026	778.5
3111.222	778.5
3114.416	801.5
3117.607	806.5
3120.795	843.5
3123.98	859.5
3127.163	879.5
3130.344	899.5
3133.521	924.5
3136.696	955.5
3139.869	962.5
3143.039	991.5
3146.206	1006.5
3149.371	1026.5
3152.533	1026.5
3155.693	1032.5
3158.85	1044.5
3162.005	1041.5
3165.157	1046.5
3168.306	1060.5
3171.453	1070.5
3174.597	1070.5
3177.739	1081.5
3180.878	1082.5
3184.014	1081.5
3187.149	1095.5
3190.28	1082.5
3193.409	1104.5
3196.536	1105.5
3199.659	1110.5
3202.781	1115.5
3205.9	1113.5
3209.016	1123.5
3212.13	1114.5
3215.241	1112.5
3218.35	1115.5
3221.456	1094.5
3224.56	1088.5
3227.661	1084.5
3230.76	1063.5
3233.856	1053.5
3236.95	1072.5
3240.041	1060.5
3243.13	1040.5
3246.216	1038.5
3249.3	1039.5
3252.382	1041.5
3255.46	1041.5
3258.537	1027.5
3261.611	1026.5
3264.682	1016.5
3267.751	1022.5
3270.818	1018.5
3273.882	1009.5
3276.943	1001.5
3280.002	989.5
3283.059	978.5
3286.113	964.5
3289.165	949.5
3292.214	951.5
3295.261	932.5
3298.306	917.5
3301.348	890.5
3304.387	882.5
3307.425	866.5
3310.459	859.5
3313.492	849.5
3316.521	844.5
3319.549	830.5
3322.574	828.5
3325.597	802.5
3328.617	803.5
3331.635	806.5
3334.65	804.5
3337.663	785.5
3340.674	779.5
3343.682	792.5
3346.688	778.5
3349.691	769.5
3352.692	773.5
3355.691	760.5
3358.687	765.5
3361.681	771.5
3364.673	753.5
3367.662	731.5
3370.649	722.5
3373.633	712.5
3376.615	713.5
3379.595	702.5
3382.572	697.5
3385.547	681.5
3388.52	680.5
3391.49	664.5
3394.458	665.5
3397.424	655.5
3400.387	630.5
3403.348	622.5
3406.307	630.5
3409.263	615.5
3412.217	621.5
3415.168	610.5
3418.118	604.5
3421.065	595.5
3424.009	589.5
3426.951	579.5
3429.891	571.5
3432.829	564.5
3435.764	561.5
3438.697	539.5
3441.628	541.5
3444.557	521.5
3447.483	504.5
3450.407	493.5
3453.328	474.5
3456.247	467.5
3459.164	454.5
3462.079	431.5
3464.991	427.5
3467.902	411.5
3470.809	402.5
3473.715	393.5
3476.618	386.5
3479.519	363.5
3482.418	359.5
3485.315	363.5
3488.209	336.5
3491.101	328.5
3493.99	326.5
3496.878	314.5
3499.763	304.5
3502.646	298.5
3505.527	282.5
3508.405	277.5
3511.281	265.5
3514.155	259.5
3517.027	243.5
3519.897	235.5
3522.764	229.5
3525.629	213.5
3528.492	201.5
3531.352	186.5
3534.211	182.5
3537.067	174.5
3539.921	154.5
3542.773	153.5
3545.622	141.5
3548.469	132.5
3551.315	126.5
3554.157	120.5
3556.998	111.5
3559.837	109.5
3562.673	108.5
3565.507	104.5
3568.339	96.5
3571.169	88.5
3573.996	83.5
3576.822	84.5
3579.645	69.5
3582.466	57.5
3585.285	60.5
3588.101	52.5
3590.916	47.5
3593.728	49.5
3596.538	38.5
3599.346	31.5
3602.152	31.5
3604.956	26.5
3607.757	19.5
3610.556	15.5
3613.354	13.5
3616.149	5.5
3618.942	4.5
3621.732	5.5
3624.521	-3.5
3627.307	-5.5
3630.092	-3.5
3632.874	-3.5
3635.654	-6.5
3638.432	-16.5
3641.208	-9.5
3643.982	-19.5
3646.753	-27.5
3649.523	-22.5
3652.29	-26.5
3655.055	-29.5
3657.818	-29.5
3660.579	-35.5
3663.338	-37.5
3666.095	-35.5
3668.849	-45.5
3671.602	-44.5
3674.352	-45.5
3677.101	-48.5
3679.847	-53.5
3682.591	-59.5
3685.333	-58.5
3688.073	-57.5
3690.811	-58.5
3693.547	-54.5
3696.281	-59.5
3699.013	-59.5
3701.742	-61.5
3704.47	-63.5
3707.195	-63.5
3709.919	-66.5
3712.64	-64.5
3715.359	-68.5
3718.076	-69.5
3720.792	-69.5
3723.505	-72.5
3726.216	-72.5
3728.925	-67.5
3731.632	-69.5
3734.336	-75.5
3737.039	-75.5
3739.74	-77.5
3742.439	-79.5
3745.136	-78.5
3747.83	-80.5
3750.523	-74.5
3753.213	-76.5
3755.902	-77.5
3758.589	-73.5
3761.273	-80.5
3763.956	-79.5
3766.636	-79.5
3769.315	-83.5
3771.991	-84.5
3774.665	-86.5
3777.338	-82.5
3780.008	-81.5
3782.677	-79.5
3785.343	-79.5
3788.007	-80.5
3790.67	-84.5
3793.33	-83.5
3795.989	-82.5
3798.645	-91.5
3801.299	-88.5
3803.952	-82.5
3806.602	-85.5
3809.251	-85.5
3811.897	-84.5
3814.542	-84.5
3817.184	-84.5
3819.825	-81.5
3822.463	-87.5
3825.1	-86.5
3827.735	-88.5
3830.367	-86.5
3832.998	-88.5
3835.627	-86.5
3838.253	-84.5
3840.878	-83.5
3843.501	-85.5
3846.122	-86.5
3848.741	-86.5
3851.358	-87.5
3853.973	-90.5
3856.586	-89.5
3859.197	-91.5
3861.806	-89.5
3864.414	-90.5
3867.019	-89.5
3869.622	-86.5
3872.224	-86.5
3874.823	-85.5
3877.421	-81.5
3880.016	-78.5
3882.61	-74.5
3885.202	-73.5
3887.792	-82.5
3890.38	-85.5
3892.966	-88.5
3895.55	-89.5
3898.132	-85.5
3900.713	-88.5
3903.291	-86.5
3905.868	-89.5
3908.442	-88.5
3911.015	-89.5
3913.586	-92.5
3916.155	-93.5
3918.722	-89.5
3921.287	-94.5
3923.85	-90.5
3926.411	-89.5
3928.971	-88.5
3931.528	-89.5
3934.084	-89.5
3936.638	-93.5
3939.19	-86.5
3941.74	-94.5
3944.288	-91.5
3946.834	-95.5
3949.378	-91.5
3951.921	-92.5
3954.462	-90.5
3957	-91.5
3959.537	-92.5
3962.072	-88.5
3964.606	-88.5
3967.137	-90.5
3969.667	-96.5
3972.194	-94.5
3974.72	-90.5
3977.244	-91.5
3979.766	-88.5
3982.286	-91.5
3984.805	-90.5
3987.321	-88.5
3989.836	-92.5
3992.349	-85.5
3994.86	-88.5
3997.369	-85.5
3999.877	-90.5
4002.382	-88.5
4004.886	-86.5
4007.388	-90.5
4009.888	-87.5
4012.386	-89.5
4014.883	-93.5
4017.377	-88.5
4019.87	-87.5
4022.361	-88.5
4024.85	-91.5
4027.338	-90.5
4029.823	-89.5
4032.307	-90.5
4034.789	-91.5
4037.269	-89.5
4039.747	-88.5
4042.224	-92.5
4044.699	-90.5
4047.172	-91.5
4049.643	-90.5
4052.112	-88.5
4054.58	-89.5
4057.046	-93.5
4059.51	-91.5
4061.972	-92.5
4064.432	-85.5
4066.891	-89.5
4069.348	-88.5
4071.803	-91.5
4074.256	-91.5
4076.708	-90.5
4079.158	-92.5
4081.606	-92.5
4084.052	-94.5
4086.497	-93.5
4088.939	-91.5
4091.38	-91.5
4093.819	-90.5
4096.257	-94.5
4098.693	-91.5
4101.127	-90.5
4103.559	-90.5
4105.989	-53.5
4108.418	-53.5
4110.845	-50.5
4113.27	-50.5
4115.694	-42.5
4118.115	-35.5
4120.535	-91.5
4122.954	-89.5
4125.37	-91.5
4127.785	-90.5
4130.198	-96.5
4132.609	-90.5
4135.019	-95.5
4137.427	-96.5
4139.833	-94.5
4142.237	-97.5
