Data from B_sub_water_100000CFU2_RamanShift_1.txt Node
Date: Thu Feb 23 12:04:38 IST 2017
User: aro
Spectrometer: QEPB0276
Trigger mode: 0
Integration Time (sec): 5.000000E0
Scans to average: 1
Electric dark correction enabled: true
Nonlinearity correction enabled: false
Boxcar width: 0
XAxis mode: Raman Shifts
Number of Pixels in Spectrum: 1044
>>>>>Begin Spectral Data<<<<<
160.701	-26.62
166.742	0.38
172.777	92.38
178.805	356.38
184.826	1019.38
190.841	2102.38
196.849	3351.38
202.85	4203.38
208.845	4349.38
214.833	4234.38
220.815	4028.38
226.789	3899.38
232.758	3787.38
238.719	3686.38
244.674	3523.38
250.623	3357.38
256.565	3204.38
262.5	3045.38
268.429	2889.38
274.351	2749.38
280.267	2633.38
286.176	2548.38
292.079	2453.38
297.975	2365.38
303.865	2293.38
309.748	2228.38
315.625	2164.38
321.495	2138.38
327.359	2090.38
333.217	2069.38
339.068	2058.38
344.912	2057.38
350.751	2018.38
356.583	2038.38
362.408	2027.38
368.227	2039.38
374.04	2036.38
379.847	2039.38
385.647	2058.38
391.44	2064.38
397.228	2098.38
403.009	2094.38
408.784	2097.38
414.553	2098.38
420.315	2100.38
426.071	2134.38
431.821	2097.38
437.565	2113.38
443.302	2078.38
449.033	2091.38
454.758	2077.38
460.477	2070.38
466.189	2052.38
471.896	2025.38
477.596	2021.38
483.29	2014.38
488.978	1991.38
494.66	1970.38
500.335	1949.38
506.005	1918.38
511.668	1877.38
517.325	1833.38
522.977	1806.38
528.622	1763.38
534.261	1738.38
539.894	1743.38
545.521	1728.38
551.141	1709.38
556.756	1681.38
562.365	1667.38
567.968	1657.38
573.565	1650.38
579.155	1628.38
584.74	1613.38
590.319	1592.38
595.892	1591.38
601.459	1580.38
607.02	1563.38
612.575	1549.38
618.124	1538.38
623.667	1508.38
629.204	1505.38
634.735	1479.38
640.261	1453.38
645.781	1446.38
651.294	1441.38
656.802	1435.38
662.304	1416.38
667.8	1430.38
673.29	1414.38
678.775	1415.38
684.254	1386.38
689.726	1408.38
695.193	1384.38
700.655	1361.38
706.11	1365.38
711.56	1359.38
717.004	1346.38
722.442	1340.38
727.874	1311.38
733.301	1300.38
738.722	1303.38
744.137	1302.38
749.547	1299.38
754.951	1290.38
760.349	1273.38
765.741	1283.38
771.128	1283.38
776.509	1272.38
781.885	1285.38
787.254	1269.38
792.618	1265.38
797.977	1249.38
803.33	1242.38
808.677	1236.38
814.019	1214.38
819.355	1207.38
824.686	1184.38
830.011	1167.38
835.33	1178.38
840.644	1159.38
845.952	1144.38
851.255	1141.38
856.552	1123.38
861.844	1119.38
867.13	1112.38
872.41	1088.38
877.686	1085.38
882.955	1070.38
888.219	1048.38
893.478	1017.38
898.731	1001.38
903.979	994.38
909.221	981.38
914.458	964.38
919.69	966.38
924.916	952.38
930.136	956.38
935.351	961.38
940.561	945.38
945.766	946.38
950.965	938.38
956.158	926.38
961.347	905.38
966.529	901.38
971.707	886.38
976.879	877.38
982.046	860.38
987.208	848.38
992.364	854.38
997.515	856.38
1002.66	854.38
1007.801	869.38
1012.936	865.38
1018.066	877.38
1023.19	888.38
1028.309	876.38
1033.423	881.38
1038.532	881.38
1043.636	887.38
1048.734	855.38
1053.827	858.38
1058.915	844.38
1063.998	852.38
1069.075	839.38
1074.147	837.38
1079.214	853.38
1084.276	875.38
1089.333	852.38
1094.385	865.38
1099.431	869.38
1104.472	871.38
1109.509	866.38
1114.54	837.38
1119.565	835.38
1124.586	836.38
1129.602	814.38
1134.613	814.38
1139.618	808.38
1144.619	818.38
1149.614	811.38
1154.604	823.38
1159.589	826.38
1164.57	830.38
1169.545	835.38
1174.515	825.38
1179.48	833.38
1184.44	820.38
1189.395	812.38
1194.345	822.38
1199.29	805.38
1204.23	806.38
1209.165	824.38
1214.095	833.38
1219.021	828.38
1223.941	844.38
1228.856	848.38
1233.766	844.38
1238.672	852.38
1243.572	845.38
1248.467	842.38
1253.358	824.38
1258.244	819.38
1263.124	805.38
1268	799.38
1272.871	784.38
1277.737	778.38
1282.599	779.38
1287.455	792.38
1292.306	794.38
1297.153	795.38
1301.995	790.38
1306.832	810.38
1311.664	802.38
1316.491	805.38
1321.314	800.38
1326.132	785.38
1330.945	781.38
1335.753	759.38
1340.556	744.38
1345.354	729.38
1350.148	730.38
1354.937	715.38
1359.722	725.38
1364.501	742.38
1369.276	750.38
1374.046	759.38
1378.811	759.38
1383.572	760.38
1388.327	752.38
1393.079	741.38
1397.825	734.38
1402.567	725.38
1407.304	727.38
1412.036	705.38
1416.764	711.38
1421.487	701.38
1426.205	712.38
1430.919	714.38
1435.628	718.38
1440.333	721.38
1445.032	738.38
1449.727	719.38
1454.418	725.38
1459.104	745.38
1463.785	722.38
1468.462	712.38
1473.134	711.38
1477.802	715.38
1482.465	707.38
1487.123	709.38
1491.777	710.38
1496.426	712.38
1501.071	735.38
1505.711	744.38
1510.347	757.38
1514.978	777.38
1519.604	796.38
1524.226	792.38
1528.844	805.38
1533.457	818.38
1538.065	813.38
1542.669	801.38
1547.269	811.38
1551.864	811.38
1556.454	825.38
1561.041	811.38
1565.622	828.38
1570.199	861.38
1574.772	869.38
1579.34	879.38
1583.904	884.38
1588.464	915.38
1593.019	929.38
1597.569	939.38
1602.115	965.38
1606.657	978.38
1611.195	986.38
1615.728	1013.38
1620.256	1021.38
1624.78	1031.38
1629.3	1048.38
1633.816	1076.38
1638.327	1087.38
1642.834	1101.38
1647.336	1095.38
1651.834	1106.38
1656.328	1112.38
1660.817	1088.38
1665.302	1086.38
1669.783	1062.38
1674.259	1035.38
1678.732	988.38
1683.199	942.38
1687.663	894.38
1692.122	859.38
1696.577	839.38
1701.028	828.38
1705.474	779.38
1709.917	781.38
1714.355	753.38
1718.788	737.38
1723.218	713.38
1727.643	683.38
1732.064	665.38
1736.481	657.38
1740.893	621.38
1745.301	602.38
1749.705	579.38
1754.105	572.38
1758.501	548.38
1762.893	539.38
1767.28	523.38
1771.663	514.38
1776.042	508.38
1780.417	503.38
1784.787	514.38
1789.154	514.38
1793.516	515.38
1797.874	527.38
1802.228	532.38
1806.578	531.38
1810.924	508.38
1815.266	516.38
1819.603	510.38
1823.937	491.38
1828.266	488.38
1832.591	479.38
1836.913	471.38
1841.23	469.38
1845.543	478.38
1849.852	472.38
1854.156	464.38
1858.457	475.38
1862.754	467.38
1867.047	472.38
1871.335	473.38
1875.62	464.38
1879.9	476.38
1884.177	476.38
1888.449	472.38
1892.718	488.38
1896.982	476.38
1901.243	477.38
1905.499	468.38
1909.752	465.38
1914	473.38
1918.245	471.38
1922.485	480.38
1926.722	479.38
1930.954	479.38
1935.183	490.38
1939.408	494.38
1943.628	491.38
1947.845	493.38
1952.058	500.38
1956.267	501.38
1960.472	484.38
1964.673	494.38
1968.87	488.38
1973.063	480.38
1977.252	478.38
1981.438	473.38
1985.619	479.38
1989.797	479.38
1993.971	481.38
1998.14	488.38
2002.306	490.38
2006.469	485.38
2010.627	473.38
2014.781	493.38
2018.932	479.38
2023.078	485.38
2027.221	471.38
2031.36	471.38
2035.495	485.38
2039.627	453.38
2043.754	466.38
2047.878	466.38
2051.998	473.38
2056.114	472.38
2060.226	472.38
2064.334	479.38
2068.439	490.38
2072.54	488.38
2076.637	494.38
2080.73	494.38
2084.82	487.38
2088.906	491.38
2092.988	488.38
2097.066	494.38
2101.14	493.38
2105.211	484.38
2109.278	483.38
2113.342	485.38
2117.401	480.38
2121.457	487.38
2125.509	480.38
2129.558	484.38
2133.602	483.38
2137.643	471.38
2141.681	480.38
2145.714	469.38
2149.744	471.38
2153.77	472.38
2157.793	460.38
2161.812	461.38
2165.827	449.38
2169.838	452.38
2173.846	436.38
2177.851	437.38
2181.851	417.38
2185.848	421.38
2189.841	413.38
2193.831	407.38
2197.817	407.38
2201.799	395.38
2205.778	400.38
2209.753	394.38
2213.725	393.38
2217.693	398.38
2221.657	395.38
2225.618	382.38
2229.575	394.38
2233.529	386.38
2237.479	388.38
2241.425	387.38
2245.368	376.38
2249.307	379.38
2253.243	367.38
2257.175	359.38
2261.104	359.38
2265.029	349.38
2268.95	337.38
2272.868	344.38
2276.783	332.38
2280.694	333.38
2284.601	326.38
2288.505	331.38
2292.405	318.38
2296.302	321.38
2300.195	320.38
2304.085	306.38
2307.971	305.38
2311.854	293.38
2315.734	297.38
2319.609	289.38
2323.482	279.38
2327.351	278.38
2331.216	277.38
2335.078	276.38
2338.937	271.38
2342.792	271.38
2346.643	264.38
2350.492	268.38
2354.336	261.38
2358.178	262.38
2362.015	265.38
2365.85	265.38
2369.681	267.38
2373.508	257.38
2377.333	267.38
2381.153	265.38
2384.971	259.38
2388.785	268.38
2392.595	256.38
2396.402	264.38
2400.206	256.38
2404.007	249.38
2407.804	251.38
2411.597	252.38
2415.388	250.38
2419.174	249.38
2422.958	240.38
2426.738	239.38
2430.515	244.38
2434.289	244.38
2438.059	244.38
2441.825	235.38
2445.589	237.38
2449.349	241.38
2453.106	223.38
2456.859	224.38
2460.61	220.38
2464.356	222.38
2468.1	215.38
2471.84	214.38
2475.577	209.38
2479.311	221.38
2483.041	218.38
2486.768	218.38
2490.492	212.38
2494.213	211.38
2497.93	211.38
2501.644	212.38
2505.355	212.38
2509.062	208.38
2512.766	212.38
2516.467	212.38
2520.165	207.38
2523.859	204.38
2527.551	199.38
2531.239	199.38
2534.923	202.38
2538.605	204.38
2542.283	190.38
2545.958	204.38
2549.63	193.38
2553.299	200.38
2556.964	192.38
2560.626	193.38
2564.285	185.38
2567.941	188.38
2571.594	188.38
2575.243	185.38
2578.89	181.38
2582.533	176.38
2586.173	182.38
2589.809	183.38
2593.443	175.38
2597.073	176.38
2600.701	176.38
2604.325	171.38
2607.946	169.38
2611.564	174.38
2615.178	176.38
2618.79	173.38
2622.398	170.38
2626.004	166.38
2629.606	172.38
2633.205	174.38
2636.801	166.38
2640.394	166.38
2643.983	155.38
2647.57	158.38
2651.153	158.38
2654.734	149.38
2658.311	150.38
2661.885	145.38
2665.456	156.38
2669.025	150.38
2672.589	151.38
2676.151	151.38
2679.71	151.38
2683.266	148.38
2686.819	147.38
2690.368	132.38
2693.915	137.38
2697.458	132.38
2700.999	123.38
2704.536	125.38
2708.071	130.38
2711.602	129.38
2715.13	128.38
2718.656	120.38
2722.178	130.38
2725.697	125.38
2729.214	132.38
2732.727	123.38
2736.237	122.38
2739.744	122.38
2743.249	128.38
2746.75	130.38
2750.248	125.38
2753.743	130.38
2757.236	137.38
2760.725	131.38
2764.211	134.38
2767.695	130.38
2771.175	130.38
2774.652	130.38
2778.127	139.38
2781.598	132.38
2785.067	132.38
2788.532	130.38
2791.995	133.38
2795.455	134.38
2798.911	142.38
2802.365	134.38
2805.816	138.38
2809.264	133.38
2812.709	136.38
2816.151	132.38
2819.59	132.38
2823.026	134.38
2826.46	139.38
2829.89	135.38
2833.318	139.38
2836.742	143.38
2840.164	144.38
2843.583	153.38
2846.999	153.38
2850.412	149.38
2853.822	153.38
2857.229	152.38
2860.634	156.38
2864.035	158.38
2867.434	168.38
2870.83	169.38
2874.223	166.38
2877.613	178.38
2881	171.38
2884.385	176.38
2887.766	174.38
2891.145	174.38
2894.521	169.38
2897.894	178.38
2901.264	187.38
2904.631	180.38
2907.996	188.38
2911.358	187.38
2914.717	191.38
2918.073	194.38
2921.426	195.38
2924.777	200.38
2928.124	201.38
2931.469	218.38
2934.811	220.38
2938.15	229.38
2941.487	222.38
2944.821	243.38
2948.152	238.38
2951.48	244.38
2954.805	250.38
2958.128	248.38
2961.447	254.38
2964.765	263.38
2968.079	263.38
2971.39	277.38
2974.699	295.38
2978.005	301.38
2981.308	304.38
2984.609	315.38
2987.907	328.38
2991.202	335.38
2994.494	356.38
2997.784	360.38
3001.07	364.38
3004.355	370.38
3007.636	383.38
3010.915	401.38
3014.191	413.38
3017.464	419.38
3020.734	429.38
3024.002	442.38
3027.267	439.38
3030.53	448.38
3033.789	450.38
3037.046	470.38
3040.301	484.38
3043.552	499.38
3046.801	499.38
3050.048	521.38
3053.291	534.38
3056.532	549.38
3059.771	579.38
3063.006	598.38
3066.239	614.38
3069.469	624.38
3072.697	650.38
3075.922	659.38
3079.144	684.38
3082.364	710.38
3085.581	716.38
3088.795	728.38
3092.007	753.38
3095.216	779.38
3098.423	789.38
3101.627	817.38
3104.828	831.38
3108.026	857.38
3111.222	878.38
3114.416	890.38
3117.607	910.38
3120.795	931.38
3123.98	949.38
3127.163	974.38
3130.344	996.38
3133.521	1029.38
3136.696	1042.38
3139.869	1060.38
3143.039	1074.38
3146.206	1088.38
3149.371	1118.38
3152.533	1133.38
3155.693	1132.38
3158.85	1145.38
3162.005	1156.38
3165.157	1159.38
3168.306	1154.38
3171.453	1173.38
3174.597	1172.38
3177.739	1189.38
3180.878	1177.38
3184.014	1175.38
3187.149	1198.38
3190.28	1188.38
3193.409	1198.38
3196.536	1214.38
3199.659	1217.38
3202.781	1203.38
3205.9	1208.38
3209.016	1197.38
3212.13	1218.38
3215.241	1195.38
3218.35	1214.38
3221.456	1209.38
3224.56	1187.38
3227.661	1180.38
3230.76	1165.38
3233.856	1147.38
3236.95	1141.38
3240.041	1135.38
3243.13	1140.38
3246.216	1127.38
3249.3	1121.38
3252.382	1124.38
3255.46	1117.38
3258.537	1109.38
3261.611	1091.38
3264.682	1102.38
3267.751	1117.38
3270.818	1112.38
3273.882	1091.38
3276.943	1100.38
3280.002	1082.38
3283.059	1065.38
3286.113	1065.38
3289.165	1047.38
3292.214	1035.38
3295.261	1010.38
3298.306	990.38
3301.348	977.38
3304.387	955.38
3307.425	935.38
3310.459	937.38
3313.492	921.38
3316.521	915.38
3319.549	908.38
3322.574	898.38
3325.597	904.38
3328.617	882.38
3331.635	868.38
3334.65	871.38
3337.663	862.38
3340.674	864.38
3343.682	855.38
3346.688	855.38
3349.691	849.38
3352.692	837.38
3355.691	846.38
3358.687	831.38
3361.681	829.38
3364.673	828.38
3367.662	806.38
3370.649	797.38
3373.633	786.38
3376.615	772.38
3379.595	765.38
3382.572	752.38
3385.547	756.38
3388.52	740.38
3391.49	724.38
3394.458	720.38
3397.424	716.38
3400.387	702.38
3403.348	697.38
3406.307	688.38
3409.263	689.38
3412.217	684.38
3415.168	662.38
3418.118	661.38
3421.065	657.38
3424.009	638.38
3426.951	626.38
3429.891	628.38
3432.829	605.38
3435.764	611.38
3438.697	595.38
3441.628	581.38
3444.557	567.38
3447.483	553.38
3450.407	533.38
3453.328	509.38
3456.247	506.38
3459.164	488.38
3462.079	471.38
3464.991	458.38
3467.902	450.38
3470.809	433.38
3473.715	432.38
3476.618	416.38
3479.519	409.38
3482.418	399.38
3485.315	390.38
3488.209	372.38
3491.101	364.38
3493.99	355.38
3496.878	338.38
3499.763	329.38
3502.646	328.38
3505.527	317.38
3508.405	300.38
3511.281	299.38
3514.155	278.38
3517.027	259.38
3519.897	261.38
3522.764	246.38
3525.629	228.38
3528.492	223.38
3531.352	208.38
3534.211	206.38
3537.067	187.38
3539.921	180.38
3542.773	162.38
3545.622	160.38
3548.469	152.38
3551.315	138.38
3554.157	129.38
3556.998	125.38
3559.837	127.38
3562.673	115.38
3565.507	111.38
3568.339	97.38
3571.169	102.38
3573.996	86.38
3576.822	77.38
3579.645	76.38
3582.466	61.38
3585.285	71.38
3588.101	58.38
3590.916	52.38
3593.728	49.38
3596.538	43.38
3599.346	40.38
3602.152	33.38
3604.956	29.38
3607.757	21.38
3610.556	18.38
3613.354	15.38
3616.149	9.38
3618.942	7.38
3621.732	2.38
3624.521	-0.62
3627.307	-3.62
3630.092	-2.62
3632.874	-8.62
3635.654	-11.62
3638.432	-14.62
3641.208	-17.62
3643.982	-12.62
3646.753	-26.62
3649.523	-26.62
3652.29	-28.62
3655.055	-33.62
3657.818	-36.62
3660.579	-43.62
3663.338	-40.62
3666.095	-39.62
3668.849	-41.62
3671.602	-45.62
3674.352	-50.62
3677.101	-50.62
3679.847	-55.62
3682.591	-57.62
3685.333	-62.62
3688.073	-64.62
3690.811	-69.62
3693.547	-63.62
3696.281	-64.62
3699.013	-68.62
3701.742	-68.62
3704.47	-69.62
3707.195	-66.62
3709.919	-70.62
3712.64	-72.62
3715.359	-72.62
3718.076	-73.62
3720.792	-75.62
3723.505	-76.62
3726.216	-84.62
3728.925	-78.62
3731.632	-78.62
3734.336	-82.62
3737.039	-81.62
3739.74	-83.62
3742.439	-89.62
3745.136	-80.62
3747.83	-83.62
3750.523	-82.62
3753.213	-83.62
3755.902	-86.62
3758.589	-82.62
3761.273	-88.62
3763.956	-84.62
3766.636	-90.62
3769.315	-94.62
3771.991	-91.62
3774.665	-90.62
3777.338	-87.62
3780.008	-91.62
3782.677	-86.62
3785.343	-88.62
3788.007	-89.62
3790.67	-93.62
3793.33	-87.62
3795.989	-93.62
3798.645	-96.62
3801.299	-94.62
3803.952	-91.62
3806.602	-89.62
3809.251	-91.62
3811.897	-95.62
3814.542	-89.62
3817.184	-92.62
3819.825	-91.62
3822.463	-94.62
3825.1	-89.62
3827.735	-94.62
3830.367	-92.62
3832.998	-100.62
3835.627	-97.62
3838.253	-94.62
3840.878	-92.62
3843.501	-96.62
3846.122	-94.62
3848.741	-92.62
3851.358	-96.62
3853.973	-92.62
3856.586	-93.62
3859.197	-101.62
3861.806	-99.62
3864.414	-99.62
3867.019	-98.62
3869.622	-99.62
3872.224	-95.62
3874.823	-93.62
3877.421	-91.62
3880.016	-85.62
3882.61	-80.62
3885.202	-84.62
3887.792	-89.62
3890.38	-91.62
3892.966	-97.62
3895.55	-98.62
3898.132	-99.62
3900.713	-100.62
3903.291	-99.62
3905.868	-98.62
3908.442	-97.62
3911.015	-98.62
3913.586	-98.62
3916.155	-100.62
3918.722	-95.62
3921.287	-100.62
3923.85	-99.62
3926.411	-99.62
3928.971	-99.62
3931.528	-104.62
3934.084	-103.62
3936.638	-104.62
3939.19	-97.62
3941.74	-101.62
3944.288	-98.62
3946.834	-100.62
3949.378	-99.62
3951.921	-100.62
3954.462	-96.62
3957	-101.62
3959.537	-101.62
3962.072	-97.62
3964.606	-97.62
3967.137	-99.62
3969.667	-100.62
3972.194	-98.62
3974.72	-94.62
3977.244	-100.62
3979.766	-96.62
3982.286	-99.62
3984.805	-97.62
3987.321	-96.62
3989.836	-99.62
3992.349	-95.62
3994.86	-94.62
3997.369	-95.62
3999.877	-98.62
4002.382	-98.62
4004.886	-93.62
4007.388	-99.62
4009.888	-96.62
4012.386	-97.62
4014.883	-96.62
4017.377	-98.62
4019.87	-95.62
4022.361	-102.62
4024.85	-98.62
4027.338	-103.62
4029.823	-100.62
4032.307	-104.62
4034.789	-99.62
4037.269	-99.62
4039.747	-98.62
4042.224	-96.62
4044.699	-102.62
4047.172	-97.62
4049.643	-95.62
4052.112	-99.62
4054.58	-100.62
4057.046	-98.62
4059.51	-103.62
4061.972	-104.62
4064.432	-96.62
4066.891	-101.62
4069.348	-97.62
4071.803	-98.62
4074.256	-98.62
4076.708	-95.62
4079.158	-99.62
4081.606	-100.62
4084.052	-100.62
4086.497	-99.62
4088.939	-104.62
4091.38	-102.62
4093.819	-101.62
4096.257	-100.62
4098.693	-100.62
4101.127	-103.62
4103.559	-101.62
4105.989	-64.62
4108.418	-63.62
4110.845	-58.62
4113.27	-57.62
4115.694	-48.62
4118.115	-39.62
4120.535	-101.62
4122.954	-95.62
4125.37	-100.62
4127.785	-95.62
4130.198	-98.62
4132.609	-96.62
4135.019	-103.62
4137.427	-106.62
4139.833	-104.62
4142.237	-107.62
