Data from B_sub_water_100000CFU_B2_RamanShift_1.txt Node
Date: Thu Feb 23 12:21:48 IST 2017
User: aro
Spectrometer: QEPB0276
Trigger mode: 0
Integration Time (sec): 5.000000E0
Scans to average: 1
Electric dark correction enabled: true
Nonlinearity correction enabled: false
Boxcar width: 0
XAxis mode: Raman Shifts
Number of Pixels in Spectrum: 1044
>>>>>Begin Spectral Data<<<<<
160.701	-31.25
166.742	1.75
172.777	89.75
178.805	383.75
184.826	1075.75
190.841	2216.75
196.849	3538.75
202.85	4418.75
208.845	4625.75
214.833	4435.75
220.815	4262.75
226.789	4121.75
232.758	4003.75
238.719	3857.75
244.674	3693.75
250.623	3544.75
256.565	3378.75
262.5	3198.75
268.429	3033.75
274.351	2884.75
280.267	2754.75
286.176	2665.75
292.079	2553.75
297.975	2450.75
303.865	2378.75
309.748	2324.75
315.625	2263.75
321.495	2212.75
327.359	2171.75
333.217	2137.75
339.068	2130.75
344.912	2109.75
350.751	2092.75
356.583	2113.75
362.408	2111.75
368.227	2114.75
374.04	2092.75
379.847	2119.75
385.647	2120.75
391.44	2136.75
397.228	2160.75
403.009	2168.75
408.784	2183.75
414.553	2170.75
420.315	2167.75
426.071	2175.75
431.821	2198.75
437.565	2167.75
443.302	2167.75
449.033	2160.75
454.758	2150.75
460.477	2128.75
466.189	2131.75
471.896	2104.75
477.596	2105.75
483.29	2083.75
488.978	2058.75
494.66	2058.75
500.335	2014.75
506.005	1975.75
511.668	1933.75
517.325	1885.75
522.977	1852.75
528.622	1819.75
534.261	1802.75
539.894	1769.75
545.521	1752.75
551.141	1748.75
556.756	1714.75
562.365	1725.75
567.968	1687.75
573.565	1668.75
579.155	1666.75
584.74	1638.75
590.319	1624.75
595.892	1613.75
601.459	1618.75
607.02	1592.75
612.575	1570.75
618.124	1564.75
623.667	1540.75
629.204	1510.75
634.735	1500.75
640.261	1487.75
645.781	1487.75
651.294	1456.75
656.802	1459.75
662.304	1470.75
667.8	1427.75
673.29	1422.75
678.775	1416.75
684.254	1421.75
689.726	1400.75
695.193	1373.75
700.655	1379.75
706.11	1356.75
711.56	1353.75
717.004	1325.75
722.442	1330.75
727.874	1335.75
733.301	1305.75
738.722	1309.75
744.137	1302.75
749.547	1277.75
754.951	1287.75
760.349	1274.75
765.741	1264.75
771.128	1267.75
776.509	1271.75
781.885	1261.75
787.254	1258.75
792.618	1240.75
797.977	1224.75
803.33	1240.75
808.677	1212.75
814.019	1195.75
819.355	1172.75
824.686	1157.75
830.011	1137.75
835.33	1147.75
840.644	1130.75
845.952	1131.75
851.255	1094.75
856.552	1094.75
861.844	1090.75
867.13	1080.75
872.41	1062.75
877.686	1058.75
882.955	1029.75
888.219	1011.75
893.478	986.75
898.731	974.75
903.979	960.75
909.221	947.75
914.458	930.75
919.69	920.75
924.916	921.75
930.136	914.75
935.351	911.75
940.561	900.75
945.766	893.75
950.965	867.75
956.158	860.75
961.347	845.75
966.529	834.75
971.707	833.75
976.879	816.75
982.046	814.75
987.208	815.75
992.364	807.75
997.515	801.75
1002.66	806.75
1007.801	807.75
1012.936	815.75
1018.066	822.75
1023.19	822.75
1028.309	825.75
1033.423	815.75
1038.532	813.75
1043.636	805.75
1048.734	791.75
1053.827	795.75
1058.915	788.75
1063.998	777.75
1069.075	763.75
1074.147	760.75
1079.214	768.75
1084.276	775.75
1089.333	774.75
1094.385	786.75
1099.431	787.75
1104.472	785.75
1109.509	785.75
1114.54	767.75
1119.565	756.75
1124.586	744.75
1129.602	745.75
1134.613	738.75
1139.618	734.75
1144.619	719.75
1149.614	734.75
1154.604	738.75
1159.589	754.75
1164.57	736.75
1169.545	745.75
1174.515	738.75
1179.48	737.75
1184.44	733.75
1189.395	725.75
1194.345	727.75
1199.29	722.75
1204.23	720.75
1209.165	734.75
1214.095	734.75
1219.021	730.75
1223.941	744.75
1228.856	744.75
1233.766	738.75
1238.672	755.75
1243.572	728.75
1248.467	717.75
1253.358	717.75
1258.244	707.75
1263.124	703.75
1268	686.75
1272.871	678.75
1277.737	670.75
1282.599	680.75
1287.455	666.75
1292.306	668.75
1297.153	666.75
1301.995	678.75
1306.832	679.75
1311.664	679.75
1316.491	672.75
1321.314	682.75
1326.132	680.75
1330.945	665.75
1335.753	645.75
1340.556	612.75
1345.354	606.75
1350.148	603.75
1354.937	596.75
1359.722	606.75
1364.501	606.75
1369.276	617.75
1374.046	630.75
1378.811	637.75
1383.572	643.75
1388.327	644.75
1393.079	618.75
1397.825	610.75
1402.567	600.75
1407.304	591.75
1412.036	579.75
1416.764	586.75
1421.487	586.75
1426.205	586.75
1430.919	577.75
1435.628	591.75
1440.333	589.75
1445.032	602.75
1449.727	589.75
1454.418	598.75
1459.104	589.75
1463.785	592.75
1468.462	589.75
1473.134	574.75
1477.802	568.75
1482.465	562.75
1487.123	560.75
1491.777	571.75
1496.426	579.75
1501.071	589.75
1505.711	605.75
1510.347	610.75
1514.978	619.75
1519.604	638.75
1524.226	644.75
1528.844	645.75
1533.457	650.75
1538.065	653.75
1542.669	668.75
1547.269	656.75
1551.864	660.75
1556.454	676.75
1561.041	685.75
1565.622	682.75
1570.199	706.75
1574.772	722.75
1579.34	728.75
1583.904	748.75
1588.464	762.75
1593.019	777.75
1597.569	795.75
1602.115	813.75
1606.657	838.75
1611.195	852.75
1615.728	875.75
1620.256	876.75
1624.78	904.75
1629.3	923.75
1633.816	948.75
1638.327	951.75
1642.834	954.75
1647.336	966.75
1651.834	954.75
1656.328	980.75
1660.817	946.75
1665.302	937.75
1669.783	904.75
1674.259	879.75
1678.732	839.75
1683.199	799.75
1687.663	741.75
1692.122	719.75
1696.577	667.75
1701.028	646.75
1705.474	639.75
1709.917	619.75
1714.355	590.75
1718.788	569.75
1723.218	544.75
1727.643	508.75
1732.064	490.75
1736.481	467.75
1740.893	449.75
1745.301	425.75
1749.705	413.75
1754.105	398.75
1758.501	373.75
1762.893	364.75
1767.28	349.75
1771.663	338.75
1776.042	327.75
1780.417	320.75
1784.787	322.75
1789.154	326.75
1793.516	323.75
1797.874	330.75
1802.228	334.75
1806.578	335.75
1810.924	333.75
1815.266	331.75
1819.603	319.75
1823.937	302.75
1828.266	296.75
1832.591	290.75
1836.913	287.75
1841.23	280.75
1845.543	280.75
1849.852	276.75
1854.156	277.75
1858.457	273.75
1862.754	275.75
1867.047	280.75
1871.335	283.75
1875.62	274.75
1879.9	268.75
1884.177	279.75
1888.449	273.75
1892.718	285.75
1896.982	269.75
1901.243	276.75
1905.499	266.75
1909.752	264.75
1914	272.75
1918.245	269.75
1922.485	271.75
1926.722	288.75
1930.954	282.75
1935.183	291.75
1939.408	296.75
1943.628	302.75
1947.845	304.75
1952.058	295.75
1956.267	297.75
1960.472	303.75
1964.673	295.75
1968.87	295.75
1973.063	284.75
1977.252	283.75
1981.438	290.75
1985.619	287.75
1989.797	287.75
1993.971	287.75
1998.14	282.75
2002.306	292.75
2006.469	288.75
2010.627	284.75
2014.781	289.75
2018.932	291.75
2023.078	290.75
2027.221	292.75
2031.36	288.75
2035.495	285.75
2039.627	284.75
2043.754	280.75
2047.878	282.75
2051.998	283.75
2056.114	286.75
2060.226	287.75
2064.334	293.75
2068.439	295.75
2072.54	299.75
2076.637	294.75
2080.73	299.75
2084.82	308.75
2088.906	308.75
2092.988	304.75
2097.066	312.75
2101.14	302.75
2105.211	312.75
2109.278	298.75
2113.342	302.75
2117.401	309.75
2121.457	307.75
2125.509	299.75
2129.558	297.75
2133.602	283.75
2137.643	287.75
2141.681	291.75
2145.714	278.75
2149.744	281.75
2153.77	283.75
2157.793	277.75
2161.812	278.75
2165.827	270.75
2169.838	262.75
2173.846	250.75
2177.851	252.75
2181.851	240.75
2185.848	239.75
2189.841	241.75
2193.831	231.75
2197.817	233.75
2201.799	227.75
2205.778	230.75
2209.753	229.75
2213.725	227.75
2217.693	224.75
2221.657	214.75
2225.618	210.75
2229.575	213.75
2233.529	211.75
2237.479	214.75
2241.425	205.75
2245.368	202.75
2249.307	199.75
2253.243	192.75
2257.175	188.75
2261.104	185.75
2265.029	177.75
2268.95	179.75
2272.868	172.75
2276.783	165.75
2280.694	169.75
2284.601	156.75
2288.505	159.75
2292.405	160.75
2296.302	153.75
2300.195	151.75
2304.085	141.75
2307.971	142.75
2311.854	137.75
2315.734	135.75
2319.609	133.75
2323.482	131.75
2327.351	127.75
2331.216	128.75
2335.078	118.75
2338.937	123.75
2342.792	119.75
2346.643	113.75
2350.492	112.75
2354.336	116.75
2358.178	104.75
2362.015	109.75
2365.85	108.75
2369.681	111.75
2373.508	111.75
2377.333	112.75
2381.153	107.75
2384.971	99.75
2388.785	114.75
2392.595	104.75
2396.402	104.75
2400.206	98.75
2404.007	92.75
2407.804	96.75
2411.597	101.75
2415.388	99.75
2419.174	89.75
2422.958	89.75
2426.738	92.75
2430.515	89.75
2434.289	89.75
2438.059	85.75
2441.825	87.75
2445.589	83.75
2449.349	81.75
2453.106	76.75
2456.859	73.75
2460.61	75.75
2464.356	73.75
2468.1	70.75
2471.84	77.75
2475.577	69.75
2479.311	74.75
2483.041	71.75
2486.768	74.75
2490.492	69.75
2494.213	68.75
2497.93	72.75
2501.644	65.75
2505.355	72.75
2509.062	68.75
2512.766	65.75
2516.467	68.75
2520.165	67.75
2523.859	65.75
2527.551	62.75
2531.239	61.75
2534.923	62.75
2538.605	57.75
2542.283	58.75
2545.958	58.75
2549.63	57.75
2553.299	61.75
2556.964	61.75
2560.626	65.75
2564.285	55.75
2567.941	61.75
2571.594	49.75
2575.243	53.75
2578.89	52.75
2582.533	49.75
2586.173	46.75
2589.809	48.75
2593.443	49.75
2597.073	49.75
2600.701	50.75
2604.325	52.75
2607.946	48.75
2611.564	46.75
2615.178	51.75
2618.79	48.75
2622.398	51.75
2626.004	46.75
2629.606	42.75
2633.205	44.75
2636.801	45.75
2640.394	43.75
2643.983	46.75
2647.57	40.75
2651.153	36.75
2654.734	35.75
2658.311	41.75
2661.885	35.75
2665.456	36.75
2669.025	39.75
2672.589	35.75
2676.151	34.75
2679.71	36.75
2683.266	27.75
2686.819	25.75
2690.368	33.75
2693.915	28.75
2697.458	19.75
2700.999	26.75
2704.536	28.75
2708.071	23.75
2711.602	22.75
2715.13	30.75
2718.656	29.75
2722.178	23.75
2725.697	26.75
2729.214	23.75
2732.727	24.75
2736.237	26.75
2739.744	20.75
2743.249	28.75
2746.75	28.75
2750.248	31.75
2753.743	39.75
2757.236	38.75
2760.725	43.75
2764.211	40.75
2767.695	46.75
2771.175	43.75
2774.652	44.75
2778.127	49.75
2781.598	39.75
2785.067	43.75
2788.532	45.75
2791.995	45.75
2795.455	43.75
2798.911	55.75
2802.365	52.75
2805.816	50.75
2809.264	51.75
2812.709	52.75
2816.151	58.75
2819.59	44.75
2823.026	56.75
2826.46	53.75
2829.89	59.75
2833.318	62.75
2836.742	58.75
2840.164	67.75
2843.583	71.75
2846.999	71.75
2850.412	70.75
2853.822	73.75
2857.229	76.75
2860.634	78.75
2864.035	90.75
2867.434	93.75
2870.83	95.75
2874.223	99.75
2877.613	102.75
2881	106.75
2884.385	108.75
2887.766	103.75
2891.145	108.75
2894.521	106.75
2897.894	115.75
2901.264	118.75
2904.631	115.75
2907.996	120.75
2911.358	131.75
2914.717	135.75
2918.073	134.75
2921.426	136.75
2924.777	140.75
2928.124	148.75
2931.469	163.75
2934.811	162.75
2938.15	167.75
2941.487	178.75
2944.821	185.75
2948.152	189.75
2951.48	201.75
2954.805	199.75
2958.128	204.75
2961.447	212.75
2964.765	209.75
2968.079	215.75
2971.39	225.75
2974.699	237.75
2978.005	248.75
2981.308	256.75
2984.609	274.75
2987.907	294.75
2991.202	292.75
2994.494	308.75
2997.784	326.75
3001.07	344.75
3004.355	353.75
3007.636	365.75
3010.915	381.75
3014.191	381.75
3017.464	390.75
3020.734	400.75
3024.002	411.75
3027.267	420.75
3030.53	419.75
3033.789	435.75
3037.046	453.75
3040.301	460.75
3043.552	474.75
3046.801	487.75
3050.048	504.75
3053.291	534.75
3056.532	545.75
3059.771	563.75
3063.006	587.75
3066.239	593.75
3069.469	610.75
3072.697	631.75
3075.922	653.75
3079.144	685.75
3082.364	699.75
3085.581	723.75
3088.795	756.75
3092.007	760.75
3095.216	776.75
3098.423	798.75
3101.627	826.75
3104.828	838.75
3108.026	867.75
3111.222	890.75
3114.416	911.75
3117.607	934.75
3120.795	945.75
3123.98	977.75
3127.163	1000.75
3130.344	1017.75
3133.521	1053.75
3136.696	1069.75
3139.869	1080.75
3143.039	1127.75
3146.206	1148.75
3149.371	1142.75
3152.533	1168.75
3155.693	1182.75
3158.85	1212.75
3162.005	1187.75
3165.157	1197.75
3168.306	1209.75
3171.453	1215.75
3174.597	1209.75
3177.739	1220.75
3180.878	1219.75
3184.014	1226.75
3187.149	1231.75
3190.28	1237.75
3193.409	1246.75
3196.536	1255.75
3199.659	1268.75
3202.781	1262.75
3205.9	1251.75
3209.016	1269.75
3212.13	1263.75
3215.241	1267.75
3218.35	1244.75
3221.456	1238.75
3224.56	1233.75
3227.661	1222.75
3230.76	1221.75
3233.856	1202.75
3236.95	1198.75
3240.041	1192.75
3243.13	1200.75
3246.216	1176.75
3249.3	1172.75
3252.382	1163.75
3255.46	1168.75
3258.537	1177.75
3261.611	1159.75
3264.682	1163.75
3267.751	1146.75
3270.818	1163.75
3273.882	1148.75
3276.943	1146.75
3280.002	1132.75
3283.059	1112.75
3286.113	1111.75
3289.165	1095.75
3292.214	1075.75
3295.261	1061.75
3298.306	1049.75
3301.348	1034.75
3304.387	991.75
3307.425	986.75
3310.459	975.75
3313.492	969.75
3316.521	961.75
3319.549	949.75
3322.574	938.75
3325.597	932.75
3328.617	913.75
3331.635	926.75
3334.65	902.75
3337.663	905.75
3340.674	894.75
3343.682	905.75
3346.688	903.75
3349.691	897.75
3352.692	886.75
3355.691	879.75
3358.687	884.75
3361.681	860.75
3364.673	856.75
3367.662	832.75
3370.649	838.75
3373.633	817.75
3376.615	813.75
3379.595	810.75
3382.572	809.75
3385.547	779.75
3388.52	763.75
3391.49	759.75
3394.458	752.75
3397.424	739.75
3400.387	726.75
3403.348	734.75
3406.307	723.75
3409.263	708.75
3412.217	710.75
3415.168	701.75
3418.118	693.75
3421.065	673.75
3424.009	670.75
3426.951	658.75
3429.891	651.75
3432.829	637.75
3435.764	627.75
3438.697	614.75
3441.628	610.75
3444.557	591.75
3447.483	573.75
3450.407	562.75
3453.328	541.75
3456.247	530.75
3459.164	514.75
3462.079	507.75
3464.991	477.75
3467.902	472.75
3470.809	465.75
3473.715	447.75
3476.618	432.75
3479.519	419.75
3482.418	419.75
3485.315	399.75
3488.209	394.75
3491.101	379.75
3493.99	374.75
3496.878	362.75
3499.763	350.75
3502.646	332.75
3505.527	325.75
3508.405	319.75
3511.281	308.75
3514.155	291.75
3517.027	277.75
3519.897	267.75
3522.764	262.75
3525.629	244.75
3528.492	221.75
3531.352	220.75
3534.211	208.75
3537.067	194.75
3539.921	183.75
3542.773	174.75
3545.622	168.75
3548.469	157.75
3551.315	145.75
3554.157	141.75
3556.998	134.75
3559.837	127.75
3562.673	118.75
3565.507	116.75
3568.339	109.75
3571.169	97.75
3573.996	93.75
3576.822	85.75
3579.645	77.75
3582.466	65.75
3585.285	66.75
3588.101	58.75
3590.916	50.75
3593.728	50.75
3596.538	41.75
3599.346	40.75
3602.152	39.75
3604.956	34.75
3607.757	25.75
3610.556	19.75
3613.354	13.75
3616.149	5.75
3618.942	7.75
3621.732	5.75
3624.521	1.75
3627.307	-3.25
3630.092	-7.25
3632.874	-7.25
3635.654	-13.25
3638.432	-15.25
3641.208	-14.25
3643.982	-24.25
3646.753	-26.25
3649.523	-31.25
3652.29	-28.25
3655.055	-41.25
3657.818	-36.25
3660.579	-44.25
3663.338	-42.25
3666.095	-43.25
3668.849	-49.25
3671.602	-49.25
3674.352	-54.25
3677.101	-57.25
3679.847	-60.25
3682.591	-64.25
3685.333	-68.25
3688.073	-66.25
3690.811	-70.25
3693.547	-68.25
3696.281	-70.25
3699.013	-75.25
3701.742	-70.25
3704.47	-73.25
3707.195	-70.25
3709.919	-74.25
3712.64	-78.25
3715.359	-82.25
3718.076	-79.25
3720.792	-83.25
3723.505	-84.25
3726.216	-89.25
3728.925	-79.25
3731.632	-86.25
3734.336	-86.25
3737.039	-85.25
3739.74	-89.25
3742.439	-91.25
3745.136	-90.25
3747.83	-88.25
3750.523	-92.25
3753.213	-94.25
3755.902	-90.25
3758.589	-88.25
3761.273	-96.25
3763.956	-94.25
3766.636	-95.25
3769.315	-97.25
3771.991	-98.25
3774.665	-96.25
3777.338	-93.25
3780.008	-94.25
3782.677	-96.25
3785.343	-92.25
3788.007	-93.25
3790.67	-101.25
3793.33	-94.25
3795.989	-99.25
3798.645	-101.25
3801.299	-102.25
3803.952	-98.25
3806.602	-100.25
3809.251	-98.25
3811.897	-101.25
3814.542	-99.25
3817.184	-98.25
3819.825	-98.25
3822.463	-96.25
3825.1	-98.25
3827.735	-101.25
3830.367	-98.25
3832.998	-107.25
3835.627	-103.25
3838.253	-102.25
3840.878	-103.25
3843.501	-102.25
3846.122	-99.25
3848.741	-97.25
3851.358	-102.25
3853.973	-100.25
3856.586	-99.25
3859.197	-104.25
3861.806	-101.25
3864.414	-106.25
3867.019	-106.25
3869.622	-104.25
3872.224	-101.25
3874.823	-104.25
3877.421	-97.25
3880.016	-97.25
3882.61	-87.25
3885.202	-85.25
3887.792	-95.25
3890.38	-95.25
3892.966	-99.25
3895.55	-104.25
3898.132	-103.25
3900.713	-105.25
3903.291	-108.25
3905.868	-100.25
3908.442	-104.25
3911.015	-104.25
3913.586	-107.25
3916.155	-108.25
3918.722	-100.25
3921.287	-108.25
3923.85	-104.25
3926.411	-106.25
3928.971	-104.25
3931.528	-104.25
3934.084	-107.25
3936.638	-109.25
3939.19	-104.25
3941.74	-108.25
3944.288	-107.25
3946.834	-107.25
3949.378	-104.25
3951.921	-105.25
3954.462	-99.25
3957	-109.25
3959.537	-104.25
3962.072	-104.25
3964.606	-103.25
3967.137	-105.25
3969.667	-105.25
3972.194	-106.25
3974.72	-104.25
3977.244	-108.25
3979.766	-102.25
3982.286	-105.25
3984.805	-105.25
3987.321	-106.25
3989.836	-103.25
3992.349	-96.25
3994.86	-97.25
3997.369	-102.25
3999.877	-100.25
4002.382	-100.25
4004.886	-100.25
4007.388	-106.25
4009.888	-110.25
4012.386	-105.25
4014.883	-108.25
4017.377	-104.25
4019.87	-104.25
4022.361	-107.25
4024.85	-103.25
4027.338	-104.25
4029.823	-102.25
4032.307	-105.25
4034.789	-104.25
4037.269	-103.25
4039.747	-103.25
4042.224	-106.25
4044.699	-111.25
4047.172	-107.25
4049.643	-104.25
4052.112	-106.25
4054.58	-108.25
4057.046	-106.25
4059.51	-107.25
4061.972	-107.25
4064.432	-100.25
4066.891	-106.25
4069.348	-101.25
4071.803	-105.25
4074.256	-103.25
4076.708	-101.25
4079.158	-105.25
4081.606	-108.25
4084.052	-105.25
4086.497	-111.25
4088.939	-108.25
4091.38	-109.25
4093.819	-106.25
4096.257	-111.25
4098.693	-106.25
4101.127	-105.25
4103.559	-104.25
4105.989	-63.25
4108.418	-63.25
4110.845	-61.25
4113.27	-61.25
4115.694	-53.25
4118.115	-45.25
4120.535	-109.25
4122.954	-104.25
4125.37	-104.25
4127.785	-102.25
4130.198	-104.25
4132.609	-104.25
4135.019	-110.25
4137.427	-110.25
4139.833	-111.25
4142.237	-112.25
