Data from B_sub_water_100000CFU1_RamanShift_1.txt Node
Date: Thu Feb 23 12:03:48 IST 2017
User: aro
Spectrometer: QEPB0276
Trigger mode: 0
Integration Time (sec): 5.000000E0
Scans to average: 1
Electric dark correction enabled: true
Nonlinearity correction enabled: false
Boxcar width: 0
XAxis mode: Raman Shifts
Number of Pixels in Spectrum: 1044
>>>>>Begin Spectral Data<<<<<
160.701	-22.25
166.742	0.75
172.777	82.75
178.805	340.75
184.826	941.75
190.841	1964.75
196.849	3126.75
202.85	3867.75
208.845	4040.75
214.833	3906.75
220.815	3812.75
226.789	3673.75
232.758	3567.75
238.719	3454.75
244.674	3329.75
250.623	3195.75
256.565	3038.75
262.5	2895.75
268.429	2768.75
274.351	2642.75
280.267	2550.75
286.176	2463.75
292.079	2402.75
297.975	2320.75
303.865	2236.75
309.748	2194.75
315.625	2154.75
321.495	2108.75
327.359	2081.75
333.217	2043.75
339.068	2031.75
344.912	2034.75
350.751	2019.75
356.583	2014.75
362.408	2006.75
368.227	2019.75
374.04	2022.75
379.847	2019.75
385.647	2045.75
391.44	2044.75
397.228	2059.75
403.009	2067.75
408.784	2062.75
414.553	2067.75
420.315	2078.75
426.071	2091.75
431.821	2074.75
437.565	2067.75
443.302	2091.75
449.033	2069.75
454.758	2049.75
460.477	2063.75
466.189	2053.75
471.896	2025.75
477.596	2011.75
483.29	1998.75
488.978	1995.75
494.66	1976.75
500.335	1972.75
506.005	1933.75
511.668	1894.75
517.325	1851.75
522.977	1839.75
528.622	1811.75
534.261	1770.75
539.894	1743.75
545.521	1759.75
551.141	1725.75
556.756	1726.75
562.365	1710.75
567.968	1719.75
573.565	1695.75
579.155	1674.75
584.74	1662.75
590.319	1642.75
595.892	1647.75
601.459	1638.75
607.02	1640.75
612.575	1609.75
618.124	1616.75
623.667	1571.75
629.204	1543.75
634.735	1547.75
640.261	1534.75
645.781	1527.75
651.294	1516.75
656.802	1522.75
662.304	1503.75
667.8	1522.75
673.29	1487.75
678.775	1499.75
684.254	1473.75
689.726	1468.75
695.193	1467.75
700.655	1436.75
706.11	1436.75
711.56	1426.75
717.004	1405.75
722.442	1411.75
727.874	1414.75
733.301	1374.75
738.722	1381.75
744.137	1398.75
749.547	1379.75
754.951	1371.75
760.349	1349.75
765.741	1374.75
771.128	1358.75
776.509	1352.75
781.885	1363.75
787.254	1353.75
792.618	1340.75
797.977	1352.75
803.33	1332.75
808.677	1319.75
814.019	1300.75
819.355	1278.75
824.686	1276.75
830.011	1263.75
835.33	1273.75
840.644	1245.75
845.952	1242.75
851.255	1250.75
856.552	1237.75
861.844	1218.75
867.13	1225.75
872.41	1209.75
877.686	1195.75
882.955	1175.75
888.219	1165.75
893.478	1134.75
898.731	1122.75
903.979	1115.75
909.221	1102.75
914.458	1087.75
919.69	1084.75
924.916	1082.75
930.136	1078.75
935.351	1082.75
940.561	1084.75
945.766	1080.75
950.965	1065.75
956.158	1045.75
961.347	1040.75
966.529	1030.75
971.707	997.75
976.879	998.75
982.046	992.75
987.208	994.75
992.364	969.75
997.515	982.75
1002.66	981.75
1007.801	1000.75
1012.936	996.75
1018.066	1021.75
1023.19	1007.75
1028.309	998.75
1033.423	1017.75
1038.532	1009.75
1043.636	998.75
1048.734	995.75
1053.827	969.75
1058.915	966.75
1063.998	963.75
1069.075	972.75
1074.147	953.75
1079.214	970.75
1084.276	979.75
1089.333	966.75
1094.385	997.75
1099.431	988.75
1104.472	988.75
1109.509	983.75
1114.54	972.75
1119.565	968.75
1124.586	953.75
1129.602	931.75
1134.613	921.75
1139.618	930.75
1144.619	931.75
1149.614	943.75
1154.604	947.75
1159.589	941.75
1164.57	954.75
1169.545	937.75
1174.515	943.75
1179.48	944.75
1184.44	938.75
1189.395	923.75
1194.345	922.75
1199.29	925.75
1204.23	922.75
1209.165	922.75
1214.095	933.75
1219.021	933.75
1223.941	936.75
1228.856	949.75
1233.766	946.75
1238.672	954.75
1243.572	958.75
1248.467	947.75
1253.358	933.75
1258.244	922.75
1263.124	900.75
1268	903.75
1272.871	889.75
1277.737	873.75
1282.599	873.75
1287.455	880.75
1292.306	882.75
1297.153	883.75
1301.995	897.75
1306.832	898.75
1311.664	896.75
1316.491	895.75
1321.314	883.75
1326.132	890.75
1330.945	878.75
1335.753	851.75
1340.556	823.75
1345.354	824.75
1350.148	811.75
1354.937	790.75
1359.722	816.75
1364.501	811.75
1369.276	824.75
1374.046	848.75
1378.811	859.75
1383.572	851.75
1388.327	846.75
1393.079	832.75
1397.825	814.75
1402.567	798.75
1407.304	794.75
1412.036	783.75
1416.764	793.75
1421.487	783.75
1426.205	794.75
1430.919	795.75
1435.628	807.75
1440.333	805.75
1445.032	800.75
1449.727	790.75
1454.418	812.75
1459.104	800.75
1463.785	792.75
1468.462	775.75
1473.134	784.75
1477.802	772.75
1482.465	772.75
1487.123	767.75
1491.777	766.75
1496.426	778.75
1501.071	802.75
1505.711	812.75
1510.347	823.75
1514.978	833.75
1519.604	849.75
1524.226	852.75
1528.844	855.75
1533.457	858.75
1538.065	841.75
1542.669	858.75
1547.269	855.75
1551.864	865.75
1556.454	864.75
1561.041	870.75
1565.622	875.75
1570.199	903.75
1574.772	907.75
1579.34	925.75
1583.904	943.75
1588.464	942.75
1593.019	964.75
1597.569	978.75
1602.115	976.75
1606.657	975.75
1611.195	998.75
1615.728	989.75
1620.256	1018.75
1624.78	1035.75
1629.3	1054.75
1633.816	1079.75
1638.327	1080.75
1642.834	1099.75
1647.336	1097.75
1651.834	1094.75
1656.328	1095.75
1660.817	1082.75
1665.302	1087.75
1669.783	1050.75
1674.259	1017.75
1678.732	982.75
1683.199	933.75
1687.663	893.75
1692.122	858.75
1696.577	832.75
1701.028	815.75
1705.474	801.75
1709.917	804.75
1714.355	771.75
1718.788	760.75
1723.218	727.75
1727.643	699.75
1732.064	680.75
1736.481	662.75
1740.893	644.75
1745.301	622.75
1749.705	603.75
1754.105	592.75
1758.501	579.75
1762.893	549.75
1767.28	537.75
1771.663	531.75
1776.042	542.75
1780.417	524.75
1784.787	528.75
1789.154	522.75
1793.516	529.75
1797.874	547.75
1802.228	551.75
1806.578	557.75
1810.924	557.75
1815.266	543.75
1819.603	541.75
1823.937	519.75
1828.266	507.75
1832.591	495.75
1836.913	501.75
1841.23	490.75
1845.543	486.75
1849.852	482.75
1854.156	485.75
1858.457	483.75
1862.754	483.75
1867.047	480.75
1871.335	493.75
1875.62	479.75
1879.9	481.75
1884.177	478.75
1888.449	484.75
1892.718	487.75
1896.982	481.75
1901.243	478.75
1905.499	485.75
1909.752	475.75
1914	470.75
1918.245	479.75
1922.485	482.75
1926.722	479.75
1930.954	482.75
1935.183	501.75
1939.408	506.75
1943.628	504.75
1947.845	509.75
1952.058	500.75
1956.267	504.75
1960.472	502.75
1964.673	500.75
1968.87	480.75
1973.063	485.75
1977.252	479.75
1981.438	474.75
1985.619	474.75
1989.797	485.75
1993.971	482.75
1998.14	479.75
2002.306	481.75
2006.469	486.75
2010.627	481.75
2014.781	480.75
2018.932	474.75
2023.078	471.75
2027.221	463.75
2031.36	462.75
2035.495	464.75
2039.627	454.75
2043.754	461.75
2047.878	456.75
2051.998	451.75
2056.114	472.75
2060.226	461.75
2064.334	470.75
2068.439	470.75
2072.54	472.75
2076.637	472.75
2080.73	478.75
2084.82	476.75
2088.906	481.75
2092.988	484.75
2097.066	480.75
2101.14	480.75
2105.211	478.75
2109.278	472.75
2113.342	469.75
2117.401	474.75
2121.457	473.75
2125.509	460.75
2129.558	463.75
2133.602	466.75
2137.643	462.75
2141.681	461.75
2145.714	450.75
2149.744	444.75
2153.77	456.75
2157.793	439.75
2161.812	446.75
2165.827	426.75
2169.838	418.75
2173.846	422.75
2177.851	408.75
2181.851	410.75
2185.848	405.75
2189.841	395.75
2193.831	383.75
2197.817	382.75
2201.799	386.75
2205.778	376.75
2209.753	374.75
2213.725	376.75
2217.693	378.75
2221.657	376.75
2225.618	376.75
2229.575	372.75
2233.529	371.75
2237.479	361.75
2241.425	362.75
2245.368	349.75
2249.307	357.75
2253.243	339.75
2257.175	333.75
2261.104	343.75
2265.029	338.75
2268.95	337.75
2272.868	321.75
2276.783	318.75
2280.694	313.75
2284.601	309.75
2288.505	301.75
2292.405	303.75
2296.302	296.75
2300.195	294.75
2304.085	293.75
2307.971	286.75
2311.854	285.75
2315.734	270.75
2319.609	271.75
2323.482	264.75
2327.351	271.75
2331.216	255.75
2335.078	256.75
2338.937	250.75
2342.792	250.75
2346.643	248.75
2350.492	248.75
2354.336	250.75
2358.178	237.75
2362.015	247.75
2365.85	249.75
2369.681	242.75
2373.508	243.75
2377.333	252.75
2381.153	242.75
2384.971	243.75
2388.785	247.75
2392.595	237.75
2396.402	236.75
2400.206	236.75
2404.007	221.75
2407.804	221.75
2411.597	229.75
2415.388	225.75
2419.174	227.75
2422.958	223.75
2426.738	226.75
2430.515	221.75
2434.289	216.75
2438.059	218.75
2441.825	213.75
2445.589	213.75
2449.349	211.75
2453.106	210.75
2456.859	209.75
2460.61	204.75
2464.356	207.75
2468.1	201.75
2471.84	201.75
2475.577	202.75
2479.311	200.75
2483.041	203.75
2486.768	199.75
2490.492	200.75
2494.213	195.75
2497.93	195.75
2501.644	195.75
2505.355	196.75
2509.062	191.75
2512.766	188.75
2516.467	193.75
2520.165	200.75
2523.859	198.75
2527.551	186.75
2531.239	184.75
2534.923	180.75
2538.605	185.75
2542.283	188.75
2545.958	185.75
2549.63	183.75
2553.299	186.75
2556.964	182.75
2560.626	189.75
2564.285	184.75
2567.941	181.75
2571.594	170.75
2575.243	170.75
2578.89	171.75
2582.533	170.75
2586.173	168.75
2589.809	160.75
2593.443	168.75
2597.073	161.75
2600.701	169.75
2604.325	166.75
2607.946	164.75
2611.564	161.75
2615.178	170.75
2618.79	159.75
2622.398	163.75
2626.004	157.75
2629.606	156.75
2633.205	159.75
2636.801	157.75
2640.394	157.75
2643.983	154.75
2647.57	152.75
2651.153	152.75
2654.734	142.75
2658.311	141.75
2661.885	146.75
2665.456	144.75
2669.025	132.75
2672.589	139.75
2676.151	134.75
2679.71	140.75
2683.266	138.75
2686.819	128.75
2690.368	131.75
2693.915	125.75
2697.458	130.75
2700.999	118.75
2704.536	119.75
2708.071	124.75
2711.602	115.75
2715.13	125.75
2718.656	122.75
2722.178	117.75
2725.697	115.75
2729.214	113.75
2732.727	121.75
2736.237	113.75
2739.744	118.75
2743.249	120.75
2746.75	127.75
2750.248	131.75
2753.743	125.75
2757.236	128.75
2760.725	130.75
2764.211	131.75
2767.695	131.75
2771.175	119.75
2774.652	128.75
2778.127	129.75
2781.598	122.75
2785.067	129.75
2788.532	128.75
2791.995	131.75
2795.455	132.75
2798.911	127.75
2802.365	130.75
2805.816	127.75
2809.264	126.75
2812.709	135.75
2816.151	135.75
2819.59	128.75
2823.026	132.75
2826.46	129.75
2829.89	130.75
2833.318	133.75
2836.742	137.75
2840.164	136.75
2843.583	135.75
2846.999	142.75
2850.412	135.75
2853.822	140.75
2857.229	141.75
2860.634	147.75
2864.035	147.75
2867.434	157.75
2870.83	157.75
2874.223	152.75
2877.613	162.75
2881	168.75
2884.385	164.75
2887.766	163.75
2891.145	160.75
2894.521	156.75
2897.894	166.75
2901.264	169.75
2904.631	166.75
2907.996	175.75
2911.358	171.75
2914.717	173.75
2918.073	185.75
2921.426	190.75
2924.777	190.75
2928.124	188.75
2931.469	196.75
2934.811	198.75
2938.15	202.75
2941.487	210.75
2944.821	214.75
2948.152	217.75
2951.48	224.75
2954.805	224.75
2958.128	235.75
2961.447	239.75
2964.765	234.75
2968.079	241.75
2971.39	241.75
2974.699	259.75
2978.005	259.75
2981.308	275.75
2984.609	285.75
2987.907	292.75
2991.202	299.75
2994.494	316.75
2997.784	328.75
3001.07	334.75
3004.355	342.75
3007.636	347.75
3010.915	366.75
3014.191	371.75
3017.464	379.75
3020.734	381.75
3024.002	391.75
3027.267	398.75
3030.53	405.75
3033.789	416.75
3037.046	415.75
3040.301	433.75
3043.552	447.75
3046.801	445.75
3050.048	475.75
3053.291	473.75
3056.532	492.75
3059.771	512.75
3063.006	528.75
3066.239	530.75
3069.469	553.75
3072.697	571.75
3075.922	585.75
3079.144	595.75
3082.364	630.75
3085.581	644.75
3088.795	647.75
3092.007	660.75
3095.216	683.75
3098.423	698.75
3101.627	699.75
3104.828	734.75
3108.026	743.75
3111.222	768.75
3114.416	785.75
3117.607	810.75
3120.795	804.75
3123.98	851.75
3127.163	861.75
3130.344	877.75
3133.521	907.75
3136.696	912.75
3139.869	929.75
3143.039	950.75
3146.206	976.75
3149.371	986.75
3152.533	1005.75
3155.693	1001.75
3158.85	1013.75
3162.005	1016.75
3165.157	1009.75
3168.306	1031.75
3171.453	1018.75
3174.597	1023.75
3177.739	1046.75
3180.878	1037.75
3184.014	1050.75
3187.149	1058.75
3190.28	1054.75
3193.409	1066.75
3196.536	1070.75
3199.659	1076.75
3202.781	1069.75
3205.9	1074.75
3209.016	1079.75
3212.13	1078.75
3215.241	1067.75
3218.35	1079.75
3221.456	1050.75
3224.56	1042.75
3227.661	1039.75
3230.76	1044.75
3233.856	1024.75
3236.95	1020.75
3240.041	1011.75
3243.13	1009.75
3246.216	993.75
3249.3	991.75
3252.382	988.75
3255.46	973.75
3258.537	961.75
3261.611	983.75
3264.682	975.75
3267.751	983.75
3270.818	985.75
3273.882	974.75
3276.943	958.75
3280.002	933.75
3283.059	944.75
3286.113	933.75
3289.165	912.75
3292.214	909.75
3295.261	897.75
3298.306	882.75
3301.348	861.75
3304.387	852.75
3307.425	827.75
3310.459	834.75
3313.492	810.75
3316.521	806.75
3319.549	795.75
3322.574	791.75
3325.597	791.75
3328.617	782.75
3331.635	770.75
3334.65	763.75
3337.663	758.75
3340.674	764.75
3343.682	753.75
3346.688	767.75
3349.691	749.75
3352.692	745.75
3355.691	739.75
3358.687	730.75
3361.681	728.75
3364.673	727.75
3367.662	715.75
3370.649	703.75
3373.633	681.75
3376.615	677.75
3379.595	667.75
3382.572	660.75
3385.547	661.75
3388.52	644.75
3391.49	635.75
3394.458	633.75
3397.424	631.75
3400.387	618.75
3403.348	611.75
3406.307	603.75
3409.263	600.75
3412.217	587.75
3415.168	587.75
3418.118	586.75
3421.065	572.75
3424.009	567.75
3426.951	545.75
3429.891	552.75
3432.829	545.75
3435.764	531.75
3438.697	519.75
3441.628	497.75
3444.557	488.75
3447.483	487.75
3450.407	465.75
3453.328	449.75
3456.247	439.75
3459.164	430.75
3462.079	418.75
3464.991	405.75
3467.902	399.75
3470.809	381.75
3473.715	378.75
3476.618	358.75
3479.519	357.75
3482.418	340.75
3485.315	334.75
3488.209	319.75
3491.101	314.75
3493.99	306.75
3496.878	300.75
3499.763	292.75
3502.646	286.75
3505.527	271.75
3508.405	263.75
3511.281	266.75
3514.155	241.75
3517.027	237.75
3519.897	230.75
3522.764	210.75
3525.629	201.75
3528.492	196.75
3531.352	183.75
3534.211	171.75
3537.067	162.75
3539.921	148.75
3542.773	148.75
3545.622	144.75
3548.469	133.75
3551.315	120.75
3554.157	118.75
3556.998	114.75
3559.837	103.75
3562.673	103.75
3565.507	94.75
3568.339	90.75
3571.169	78.75
3573.996	77.75
3576.822	65.75
3579.645	63.75
3582.466	57.75
3585.285	59.75
3588.101	44.75
3590.916	44.75
3593.728	42.75
3596.538	39.75
3599.346	34.75
3602.152	28.75
3604.956	19.75
3607.757	15.75
3610.556	15.75
3613.354	7.75
3616.149	6.75
3618.942	-2.25
3621.732	-0.25
3624.521	-3.25
3627.307	-6.25
3630.092	-6.25
3632.874	-14.25
3635.654	-10.25
3638.432	-17.25
3641.208	-19.25
3643.982	-25.25
3646.753	-33.25
3649.523	-27.25
3652.29	-32.25
3655.055	-38.25
3657.818	-36.25
3660.579	-37.25
3663.338	-34.25
3666.095	-39.25
3668.849	-44.25
3671.602	-50.25
3674.352	-51.25
3677.101	-51.25
3679.847	-57.25
3682.591	-61.25
3685.333	-67.25
3688.073	-60.25
3690.811	-64.25
3693.547	-62.25
3696.281	-64.25
3699.013	-63.25
3701.742	-64.25
3704.47	-67.25
3707.195	-66.25
3709.919	-64.25
3712.64	-72.25
3715.359	-75.25
3718.076	-73.25
3720.792	-77.25
3723.505	-74.25
3726.216	-74.25
3728.925	-67.25
3731.632	-76.25
3734.336	-79.25
3737.039	-75.25
3739.74	-79.25
3742.439	-82.25
3745.136	-81.25
3747.83	-84.25
3750.523	-83.25
3753.213	-79.25
3755.902	-83.25
3758.589	-77.25
3761.273	-84.25
3763.956	-79.25
3766.636	-81.25
3769.315	-84.25
3771.991	-84.25
3774.665	-86.25
3777.338	-84.25
3780.008	-86.25
3782.677	-86.25
3785.343	-88.25
3788.007	-84.25
3790.67	-92.25
3793.33	-84.25
3795.989	-90.25
3798.645	-91.25
3801.299	-87.25
3803.952	-84.25
3806.602	-86.25
3809.251	-87.25
3811.897	-90.25
3814.542	-89.25
3817.184	-91.25
3819.825	-88.25
3822.463	-88.25
3825.1	-87.25
3827.735	-90.25
3830.367	-86.25
3832.998	-93.25
3835.627	-88.25
3838.253	-87.25
3840.878	-91.25
3843.501	-90.25
3846.122	-93.25
3848.741	-93.25
3851.358	-91.25
3853.973	-92.25
3856.586	-90.25
3859.197	-96.25
3861.806	-91.25
3864.414	-91.25
3867.019	-94.25
3869.622	-93.25
3872.224	-85.25
3874.823	-89.25
3877.421	-89.25
3880.016	-83.25
3882.61	-79.25
3885.202	-82.25
3887.792	-87.25
3890.38	-89.25
3892.966	-90.25
3895.55	-92.25
3898.132	-91.25
3900.713	-92.25
3903.291	-93.25
3905.868	-91.25
3908.442	-92.25
3911.015	-91.25
3913.586	-97.25
3916.155	-96.25
3918.722	-95.25
3921.287	-95.25
3923.85	-95.25
3926.411	-95.25
3928.971	-95.25
3931.528	-94.25
3934.084	-95.25
3936.638	-95.25
3939.19	-90.25
3941.74	-93.25
3944.288	-97.25
3946.834	-99.25
3949.378	-95.25
3951.921	-100.25
3954.462	-96.25
3957	-94.25
3959.537	-94.25
3962.072	-91.25
3964.606	-91.25
3967.137	-92.25
3969.667	-95.25
3972.194	-94.25
3974.72	-91.25
3977.244	-97.25
3979.766	-94.25
3982.286	-94.25
3984.805	-95.25
3987.321	-93.25
3989.836	-95.25
3992.349	-86.25
3994.86	-90.25
3997.369	-86.25
3999.877	-91.25
4002.382	-92.25
4004.886	-90.25
4007.388	-97.25
4009.888	-94.25
4012.386	-95.25
4014.883	-96.25
4017.377	-94.25
4019.87	-90.25
4022.361	-92.25
4024.85	-89.25
4027.338	-93.25
4029.823	-92.25
4032.307	-92.25
4034.789	-95.25
4037.269	-93.25
4039.747	-96.25
4042.224	-95.25
4044.699	-95.25
4047.172	-95.25
4049.643	-94.25
4052.112	-95.25
4054.58	-94.25
4057.046	-93.25
4059.51	-94.25
4061.972	-97.25
4064.432	-89.25
4066.891	-93.25
4069.348	-92.25
4071.803	-94.25
4074.256	-93.25
4076.708	-93.25
4079.158	-95.25
4081.606	-99.25
4084.052	-96.25
4086.497	-95.25
4088.939	-96.25
4091.38	-95.25
4093.819	-95.25
4096.257	-99.25
4098.693	-96.25
4101.127	-98.25
4103.559	-97.25
4105.989	-61.25
4108.418	-57.25
4110.845	-52.25
4113.27	-51.25
4115.694	-42.25
4118.115	-39.25
4120.535	-93.25
4122.954	-92.25
4125.37	-93.25
4127.785	-94.25
4130.198	-95.25
4132.609	-93.25
4135.019	-100.25
4137.427	-102.25
4139.833	-100.25
4142.237	-99.25
