Data from B_sub_water_1000CFU2_RamanShift_1.txt Node
Date: Thu Feb 23 11:57:43 IST 2017
User: aro
Spectrometer: QEPB0276
Trigger mode: 0
Integration Time (sec): 5.000000E0
Scans to average: 1
Electric dark correction enabled: true
Nonlinearity correction enabled: false
Boxcar width: 0
XAxis mode: Raman Shifts
Number of Pixels in Spectrum: 1044
>>>>>Begin Spectral Data<<<<<
160.701	-28.5
166.742	2.5
172.777	88.5
178.805	358.5
184.826	1021.5
190.841	2126.5
196.849	3361.5
202.85	4145.5
208.845	4345.5
214.833	4190.5
220.815	4010.5
226.789	3882.5
232.758	3774.5
238.719	3633.5
244.674	3486.5
250.623	3331.5
256.565	3162.5
262.5	2991.5
268.429	2835.5
274.351	2705.5
280.267	2603.5
286.176	2467.5
292.079	2382.5
297.975	2299.5
303.865	2213.5
309.748	2147.5
315.625	2109.5
321.495	2053.5
327.359	2020.5
333.217	1987.5
339.068	1984.5
344.912	1981.5
350.751	1956.5
356.583	1949.5
362.408	1963.5
368.227	1950.5
374.04	1958.5
379.847	1968.5
385.647	1990.5
391.44	2010.5
397.228	2000.5
403.009	2007.5
408.784	2000.5
414.553	2008.5
420.315	2036.5
426.071	2027.5
431.821	2030.5
437.565	2013.5
443.302	2008.5
449.033	2006.5
454.758	1997.5
460.477	1991.5
466.189	1970.5
471.896	1970.5
477.596	1943.5
483.29	1923.5
488.978	1908.5
494.66	1912.5
500.335	1854.5
506.005	1837.5
511.668	1769.5
517.325	1746.5
522.977	1725.5
528.622	1690.5
534.261	1676.5
539.894	1646.5
545.521	1648.5
551.141	1610.5
556.756	1605.5
562.365	1605.5
567.968	1576.5
573.565	1565.5
579.155	1541.5
584.74	1522.5
590.319	1494.5
595.892	1520.5
601.459	1508.5
607.02	1476.5
612.575	1470.5
618.124	1446.5
623.667	1432.5
629.204	1428.5
634.735	1410.5
640.261	1389.5
645.781	1367.5
651.294	1342.5
656.802	1356.5
662.304	1345.5
667.8	1338.5
673.29	1336.5
678.775	1330.5
684.254	1328.5
689.726	1331.5
695.193	1309.5
700.655	1299.5
706.11	1274.5
711.56	1244.5
717.004	1252.5
722.442	1244.5
727.874	1221.5
733.301	1210.5
738.722	1211.5
744.137	1197.5
749.547	1192.5
754.951	1189.5
760.349	1173.5
765.741	1171.5
771.128	1181.5
776.509	1177.5
781.885	1172.5
787.254	1163.5
792.618	1156.5
797.977	1154.5
803.33	1148.5
808.677	1119.5
814.019	1111.5
819.355	1097.5
824.686	1086.5
830.011	1062.5
835.33	1067.5
840.644	1051.5
845.952	1032.5
851.255	1018.5
856.552	1003.5
861.844	1015.5
867.13	1007.5
872.41	983.5
877.686	978.5
882.955	970.5
888.219	937.5
893.478	919.5
898.731	884.5
903.979	883.5
909.221	864.5
914.458	863.5
919.69	854.5
924.916	843.5
930.136	847.5
935.351	842.5
940.561	835.5
945.766	832.5
950.965	833.5
956.158	810.5
961.347	797.5
966.529	784.5
971.707	757.5
976.879	759.5
982.046	737.5
987.208	729.5
992.364	730.5
997.515	733.5
1002.66	735.5
1007.801	745.5
1012.936	755.5
1018.066	751.5
1023.19	757.5
1028.309	752.5
1033.423	748.5
1038.532	748.5
1043.636	749.5
1048.734	721.5
1053.827	715.5
1058.915	710.5
1063.998	713.5
1069.075	712.5
1074.147	706.5
1079.214	721.5
1084.276	727.5
1089.333	730.5
1094.385	722.5
1099.431	731.5
1104.472	723.5
1109.509	716.5
1114.54	706.5
1119.565	708.5
1124.586	683.5
1129.602	678.5
1134.613	669.5
1139.618	674.5
1144.619	681.5
1149.614	676.5
1154.604	681.5
1159.589	686.5
1164.57	690.5
1169.545	688.5
1174.515	675.5
1179.48	674.5
1184.44	674.5
1189.395	668.5
1194.345	655.5
1199.29	666.5
1204.23	664.5
1209.165	667.5
1214.095	667.5
1219.021	678.5
1223.941	673.5
1228.856	673.5
1233.766	687.5
1238.672	677.5
1243.572	678.5
1248.467	673.5
1253.358	682.5
1258.244	652.5
1263.124	651.5
1268	641.5
1272.871	629.5
1277.737	617.5
1282.599	615.5
1287.455	614.5
1292.306	619.5
1297.153	624.5
1301.995	620.5
1306.832	633.5
1311.664	628.5
1316.491	634.5
1321.314	624.5
1326.132	613.5
1330.945	602.5
1335.753	582.5
1340.556	578.5
1345.354	569.5
1350.148	564.5
1354.937	544.5
1359.722	556.5
1364.501	564.5
1369.276	568.5
1374.046	580.5
1378.811	579.5
1383.572	587.5
1388.327	583.5
1393.079	570.5
1397.825	561.5
1402.567	556.5
1407.304	533.5
1412.036	548.5
1416.764	523.5
1421.487	527.5
1426.205	535.5
1430.919	534.5
1435.628	540.5
1440.333	538.5
1445.032	557.5
1449.727	557.5
1454.418	553.5
1459.104	546.5
1463.785	544.5
1468.462	546.5
1473.134	532.5
1477.802	527.5
1482.465	528.5
1487.123	524.5
1491.777	535.5
1496.426	530.5
1501.071	550.5
1505.711	560.5
1510.347	559.5
1514.978	586.5
1519.604	588.5
1524.226	584.5
1528.844	614.5
1533.457	600.5
1538.065	610.5
1542.669	596.5
1547.269	611.5
1551.864	609.5
1556.454	609.5
1561.041	629.5
1565.622	636.5
1570.199	649.5
1574.772	660.5
1579.34	681.5
1583.904	702.5
1588.464	706.5
1593.019	727.5
1597.569	747.5
1602.115	743.5
1606.657	757.5
1611.195	779.5
1615.728	800.5
1620.256	813.5
1624.78	837.5
1629.3	855.5
1633.816	874.5
1638.327	882.5
1642.834	899.5
1647.336	899.5
1651.834	888.5
1656.328	913.5
1660.817	882.5
1665.302	859.5
1669.783	835.5
1674.259	821.5
1678.732	782.5
1683.199	737.5
1687.663	694.5
1692.122	664.5
1696.577	636.5
1701.028	604.5
1705.474	578.5
1709.917	573.5
1714.355	553.5
1718.788	519.5
1723.218	490.5
1727.643	466.5
1732.064	460.5
1736.481	434.5
1740.893	419.5
1745.301	390.5
1749.705	373.5
1754.105	361.5
1758.501	351.5
1762.893	345.5
1767.28	322.5
1771.663	306.5
1776.042	308.5
1780.417	301.5
1784.787	307.5
1789.154	292.5
1793.516	307.5
1797.874	306.5
1802.228	307.5
1806.578	308.5
1810.924	306.5
1815.266	297.5
1819.603	290.5
1823.937	279.5
1828.266	274.5
1832.591	267.5
1836.913	254.5
1841.23	254.5
1845.543	250.5
1849.852	257.5
1854.156	251.5
1858.457	254.5
1862.754	252.5
1867.047	258.5
1871.335	249.5
1875.62	250.5
1879.9	248.5
1884.177	250.5
1888.449	255.5
1892.718	243.5
1896.982	251.5
1901.243	249.5
1905.499	249.5
1909.752	248.5
1914	249.5
1918.245	248.5
1922.485	251.5
1926.722	263.5
1930.954	253.5
1935.183	268.5
1939.408	275.5
1943.628	272.5
1947.845	278.5
1952.058	269.5
1956.267	279.5
1960.472	275.5
1964.673	263.5
1968.87	259.5
1973.063	270.5
1977.252	254.5
1981.438	262.5
1985.619	262.5
1989.797	264.5
1993.971	264.5
1998.14	267.5
2002.306	261.5
2006.469	256.5
2010.627	265.5
2014.781	264.5
2018.932	266.5
2023.078	259.5
2027.221	262.5
2031.36	264.5
2035.495	264.5
2039.627	258.5
2043.754	262.5
2047.878	261.5
2051.998	260.5
2056.114	263.5
2060.226	266.5
2064.334	267.5
2068.439	271.5
2072.54	282.5
2076.637	268.5
2080.73	285.5
2084.82	276.5
2088.906	277.5
2092.988	289.5
2097.066	289.5
2101.14	286.5
2105.211	284.5
2109.278	285.5
2113.342	281.5
2117.401	279.5
2121.457	275.5
2125.509	276.5
2129.558	269.5
2133.602	266.5
2137.643	274.5
2141.681	268.5
2145.714	266.5
2149.744	255.5
2153.77	254.5
2157.793	255.5
2161.812	257.5
2165.827	243.5
2169.838	243.5
2173.846	235.5
2177.851	222.5
2181.851	222.5
2185.848	217.5
2189.841	218.5
2193.831	213.5
2197.817	215.5
2201.799	206.5
2205.778	207.5
2209.753	208.5
2213.725	197.5
2217.693	205.5
2221.657	209.5
2225.618	202.5
2229.575	197.5
2233.529	192.5
2237.479	195.5
2241.425	180.5
2245.368	185.5
2249.307	180.5
2253.243	176.5
2257.175	173.5
2261.104	167.5
2265.029	159.5
2268.95	156.5
2272.868	148.5
2276.783	149.5
2280.694	143.5
2284.601	150.5
2288.505	143.5
2292.405	142.5
2296.302	143.5
2300.195	138.5
2304.085	132.5
2307.971	126.5
2311.854	126.5
2315.734	115.5
2319.609	119.5
2323.482	111.5
2327.351	112.5
2331.216	109.5
2335.078	109.5
2338.937	107.5
2342.792	102.5
2346.643	107.5
2350.492	107.5
2354.336	106.5
2358.178	94.5
2362.015	96.5
2365.85	98.5
2369.681	102.5
2373.508	92.5
2377.333	99.5
2381.153	96.5
2384.971	97.5
2388.785	101.5
2392.595	92.5
2396.402	93.5
2400.206	91.5
2404.007	88.5
2407.804	88.5
2411.597	82.5
2415.388	81.5
2419.174	88.5
2422.958	79.5
2426.738	79.5
2430.515	76.5
2434.289	81.5
2438.059	82.5
2441.825	88.5
2445.589	75.5
2449.349	73.5
2453.106	67.5
2456.859	68.5
2460.61	63.5
2464.356	65.5
2468.1	59.5
2471.84	69.5
2475.577	70.5
2479.311	65.5
2483.041	67.5
2486.768	69.5
2490.492	68.5
2494.213	64.5
2497.93	64.5
2501.644	60.5
2505.355	66.5
2509.062	64.5
2512.766	55.5
2516.467	63.5
2520.165	62.5
2523.859	63.5
2527.551	59.5
2531.239	59.5
2534.923	60.5
2538.605	58.5
2542.283	59.5
2545.958	56.5
2549.63	56.5
2553.299	50.5
2556.964	47.5
2560.626	59.5
2564.285	60.5
2567.941	49.5
2571.594	50.5
2575.243	48.5
2578.89	47.5
2582.533	47.5
2586.173	43.5
2589.809	46.5
2593.443	42.5
2597.073	40.5
2600.701	43.5
2604.325	39.5
2607.946	42.5
2611.564	41.5
2615.178	42.5
2618.79	46.5
2622.398	42.5
2626.004	43.5
2629.606	38.5
2633.205	38.5
2636.801	39.5
2640.394	38.5
2643.983	40.5
2647.57	33.5
2651.153	34.5
2654.734	34.5
2658.311	30.5
2661.885	28.5
2665.456	33.5
2669.025	28.5
2672.589	32.5
2676.151	28.5
2679.71	31.5
2683.266	27.5
2686.819	26.5
2690.368	26.5
2693.915	23.5
2697.458	22.5
2700.999	20.5
2704.536	22.5
2708.071	22.5
2711.602	17.5
2715.13	23.5
2718.656	23.5
2722.178	23.5
2725.697	20.5
2729.214	19.5
2732.727	19.5
2736.237	20.5
2739.744	26.5
2743.249	29.5
2746.75	29.5
2750.248	30.5
2753.743	34.5
2757.236	31.5
2760.725	32.5
2764.211	40.5
2767.695	38.5
2771.175	34.5
2774.652	39.5
2778.127	36.5
2781.598	44.5
2785.067	39.5
2788.532	37.5
2791.995	45.5
2795.455	39.5
2798.911	48.5
2802.365	48.5
2805.816	46.5
2809.264	47.5
2812.709	38.5
2816.151	46.5
2819.59	46.5
2823.026	54.5
2826.46	56.5
2829.89	49.5
2833.318	55.5
2836.742	64.5
2840.164	65.5
2843.583	65.5
2846.999	69.5
2850.412	64.5
2853.822	71.5
2857.229	64.5
2860.634	72.5
2864.035	73.5
2867.434	88.5
2870.83	85.5
2874.223	92.5
2877.613	95.5
2881	95.5
2884.385	94.5
2887.766	96.5
2891.145	98.5
2894.521	104.5
2897.894	105.5
2901.264	107.5
2904.631	109.5
2907.996	114.5
2911.358	118.5
2914.717	127.5
2918.073	128.5
2921.426	131.5
2924.777	135.5
2928.124	141.5
2931.469	150.5
2934.811	147.5
2938.15	156.5
2941.487	163.5
2944.821	177.5
2948.152	170.5
2951.48	183.5
2954.805	181.5
2958.128	191.5
2961.447	192.5
2964.765	203.5
2968.079	211.5
2971.39	216.5
2974.699	217.5
2978.005	236.5
2981.308	244.5
2984.609	263.5
2987.907	275.5
2991.202	276.5
2994.494	296.5
2997.784	306.5
3001.07	311.5
3004.355	335.5
3007.636	339.5
3010.915	347.5
3014.191	364.5
3017.464	371.5
3020.734	371.5
3024.002	387.5
3027.267	389.5
3030.53	388.5
3033.789	395.5
3037.046	420.5
3040.301	433.5
3043.552	451.5
3046.801	461.5
3050.048	476.5
3053.291	494.5
3056.532	508.5
3059.771	529.5
3063.006	538.5
3066.239	558.5
3069.469	588.5
3072.697	591.5
3075.922	605.5
3079.144	643.5
3082.364	659.5
3085.581	676.5
3088.795	700.5
3092.007	717.5
3095.216	727.5
3098.423	750.5
3101.627	772.5
3104.828	785.5
3108.026	807.5
3111.222	829.5
3114.416	837.5
3117.607	864.5
3120.795	901.5
3123.98	913.5
3127.163	939.5
3130.344	958.5
3133.521	984.5
3136.696	1014.5
3139.869	1016.5
3143.039	1045.5
3146.206	1072.5
3149.371	1087.5
3152.533	1079.5
3155.693	1103.5
3158.85	1105.5
3162.005	1123.5
3165.157	1130.5
3168.306	1140.5
3171.453	1124.5
3174.597	1134.5
3177.739	1151.5
3180.878	1152.5
3184.014	1158.5
3187.149	1166.5
3190.28	1165.5
3193.409	1173.5
3196.536	1177.5
3199.659	1168.5
3202.781	1185.5
3205.9	1200.5
3209.016	1181.5
3212.13	1160.5
3215.241	1182.5
3218.35	1188.5
3221.456	1166.5
3224.56	1162.5
3227.661	1158.5
3230.76	1149.5
3233.856	1130.5
3236.95	1130.5
3240.041	1107.5
3243.13	1114.5
3246.216	1111.5
3249.3	1100.5
3252.382	1098.5
3255.46	1094.5
3258.537	1109.5
3261.611	1093.5
3264.682	1090.5
3267.751	1091.5
3270.818	1081.5
3273.882	1081.5
3276.943	1067.5
3280.002	1058.5
3283.059	1047.5
3286.113	1033.5
3289.165	1023.5
3292.214	1013.5
3295.261	989.5
3298.306	976.5
3301.348	959.5
3304.387	949.5
3307.425	936.5
3310.459	923.5
3313.492	903.5
3316.521	893.5
3319.549	886.5
3322.574	883.5
3325.597	870.5
3328.617	863.5
3331.635	852.5
3334.65	853.5
3337.663	861.5
3340.674	842.5
3343.682	840.5
3346.688	849.5
3349.691	840.5
3352.692	834.5
3355.691	838.5
3358.687	811.5
3361.681	817.5
3364.673	795.5
3367.662	784.5
3370.649	774.5
3373.633	770.5
3376.615	764.5
3379.595	755.5
3382.572	735.5
3385.547	739.5
3388.52	728.5
3391.49	719.5
3394.458	702.5
3397.424	703.5
3400.387	688.5
3403.348	669.5
3406.307	664.5
3409.263	673.5
3412.217	665.5
3415.168	655.5
3418.118	655.5
3421.065	632.5
3424.009	631.5
3426.951	626.5
3429.891	619.5
3432.829	611.5
3435.764	581.5
3438.697	577.5
3441.628	565.5
3444.557	557.5
3447.483	545.5
3450.407	526.5
3453.328	501.5
3456.247	494.5
3459.164	493.5
3462.079	473.5
3464.991	454.5
3467.902	448.5
3470.809	433.5
3473.715	414.5
3476.618	411.5
3479.519	395.5
3482.418	384.5
3485.315	366.5
3488.209	358.5
3491.101	356.5
3493.99	346.5
3496.878	326.5
3499.763	322.5
3502.646	324.5
3505.527	305.5
3508.405	299.5
3511.281	289.5
3514.155	273.5
3517.027	261.5
3519.897	247.5
3522.764	240.5
3525.629	221.5
3528.492	211.5
3531.352	202.5
3534.211	194.5
3537.067	178.5
3539.921	170.5
3542.773	156.5
3545.622	155.5
3548.469	150.5
3551.315	137.5
3554.157	125.5
3556.998	119.5
3559.837	109.5
3562.673	105.5
3565.507	110.5
3568.339	103.5
3571.169	93.5
3573.996	89.5
3576.822	83.5
3579.645	75.5
3582.466	65.5
3585.285	60.5
3588.101	47.5
3590.916	44.5
3593.728	41.5
3596.538	39.5
3599.346	33.5
3602.152	30.5
3604.956	27.5
3607.757	17.5
3610.556	20.5
3613.354	14.5
3616.149	9.5
3618.942	5.5
3621.732	-4.5
3624.521	-6.5
3627.307	-5.5
3630.092	-11.5
3632.874	-12.5
3635.654	-7.5
3638.432	-17.5
3641.208	-16.5
3643.982	-20.5
3646.753	-25.5
3649.523	-27.5
3652.29	-30.5
3655.055	-36.5
3657.818	-37.5
3660.579	-41.5
3663.338	-43.5
3666.095	-41.5
3668.849	-49.5
3671.602	-49.5
3674.352	-52.5
3677.101	-50.5
3679.847	-55.5
3682.591	-61.5
3685.333	-62.5
3688.073	-64.5
3690.811	-67.5
3693.547	-65.5
3696.281	-68.5
3699.013	-70.5
3701.742	-67.5
3704.47	-72.5
3707.195	-67.5
3709.919	-70.5
3712.64	-70.5
3715.359	-76.5
3718.076	-75.5
3720.792	-78.5
3723.505	-77.5
3726.216	-82.5
3728.925	-76.5
3731.632	-83.5
3734.336	-83.5
3737.039	-84.5
3739.74	-82.5
3742.439	-87.5
3745.136	-79.5
3747.83	-85.5
3750.523	-85.5
3753.213	-82.5
3755.902	-83.5
3758.589	-87.5
3761.273	-89.5
3763.956	-89.5
3766.636	-90.5
3769.315	-91.5
3771.991	-90.5
3774.665	-90.5
3777.338	-89.5
3780.008	-93.5
3782.677	-90.5
3785.343	-87.5
3788.007	-88.5
3790.67	-96.5
3793.33	-88.5
3795.989	-96.5
3798.645	-98.5
3801.299	-94.5
3803.952	-90.5
3806.602	-90.5
3809.251	-91.5
3811.897	-93.5
3814.542	-93.5
3817.184	-94.5
3819.825	-90.5
3822.463	-98.5
3825.1	-97.5
3827.735	-95.5
3830.367	-95.5
3832.998	-100.5
3835.627	-95.5
3838.253	-98.5
3840.878	-94.5
3843.501	-92.5
3846.122	-95.5
3848.741	-92.5
3851.358	-95.5
3853.973	-95.5
3856.586	-97.5
3859.197	-100.5
3861.806	-98.5
3864.414	-100.5
3867.019	-99.5
3869.622	-99.5
3872.224	-94.5
3874.823	-93.5
3877.421	-92.5
3880.016	-87.5
3882.61	-84.5
3885.202	-84.5
3887.792	-94.5
3890.38	-96.5
3892.966	-98.5
3895.55	-97.5
3898.132	-99.5
3900.713	-98.5
3903.291	-98.5
3905.868	-94.5
3908.442	-94.5
3911.015	-94.5
3913.586	-99.5
3916.155	-97.5
3918.722	-97.5
3921.287	-100.5
3923.85	-100.5
3926.411	-99.5
3928.971	-101.5
3931.528	-102.5
3934.084	-100.5
3936.638	-101.5
3939.19	-95.5
3941.74	-98.5
3944.288	-99.5
3946.834	-102.5
3949.378	-98.5
3951.921	-103.5
3954.462	-101.5
3957	-104.5
3959.537	-103.5
3962.072	-100.5
3964.606	-96.5
3967.137	-99.5
3969.667	-101.5
3972.194	-97.5
3974.72	-98.5
3977.244	-100.5
3979.766	-97.5
3982.286	-101.5
3984.805	-98.5
3987.321	-97.5
3989.836	-102.5
3992.349	-94.5
3994.86	-94.5
3997.369	-93.5
3999.877	-95.5
4002.382	-95.5
4004.886	-94.5
4007.388	-98.5
4009.888	-99.5
4012.386	-98.5
4014.883	-101.5
4017.377	-97.5
4019.87	-97.5
4022.361	-102.5
4024.85	-97.5
4027.338	-99.5
4029.823	-94.5
4032.307	-97.5
4034.789	-98.5
4037.269	-98.5
4039.747	-98.5
4042.224	-101.5
4044.699	-102.5
4047.172	-99.5
4049.643	-99.5
4052.112	-101.5
4054.58	-99.5
4057.046	-99.5
4059.51	-102.5
4061.972	-101.5
4064.432	-96.5
4066.891	-98.5
4069.348	-99.5
4071.803	-97.5
4074.256	-99.5
4076.708	-95.5
4079.158	-99.5
4081.606	-105.5
4084.052	-102.5
4086.497	-99.5
4088.939	-104.5
4091.38	-100.5
4093.819	-99.5
4096.257	-106.5
4098.693	-103.5
4101.127	-102.5
4103.559	-100.5
4105.989	-63.5
4108.418	-54.5
4110.845	-52.5
4113.27	-55.5
4115.694	-45.5
4118.115	-37.5
4120.535	-98.5
4122.954	-96.5
4125.37	-96.5
4127.785	-93.5
4130.198	-99.5
4132.609	-97.5
4135.019	-103.5
4137.427	-105.5
4139.833	-104.5
4142.237	-107.5
