Data from B_sub_water_100CFU3_RamanShift_1.txt Node
Date: Thu Feb 23 11:55:18 IST 2017
User: aro
Spectrometer: QEPB0276
Trigger mode: 0
Integration Time (sec): 5.000000E0
Scans to average: 1
Electric dark correction enabled: true
Nonlinearity correction enabled: false
Boxcar width: 0
XAxis mode: Raman Shifts
Number of Pixels in Spectrum: 1044
>>>>>Begin Spectral Data<<<<<
160.701	-32.5
166.742	0.5
172.777	89.5
178.805	388.5
184.826	1100.5
190.841	2265.5
196.849	3605.5
202.85	4441.5
208.845	4643.5
214.833	4482.5
220.815	4309.5
226.789	4162.5
232.758	4021.5
238.719	3893.5
244.674	3747.5
250.623	3559.5
256.565	3382.5
262.5	3237.5
268.429	3062.5
274.351	2916.5
280.267	2815.5
286.176	2699.5
292.079	2616.5
297.975	2515.5
303.865	2423.5
309.748	2377.5
315.625	2299.5
321.495	2252.5
327.359	2217.5
333.217	2201.5
339.068	2182.5
344.912	2164.5
350.751	2151.5
356.583	2154.5
362.408	2148.5
368.227	2145.5
374.04	2168.5
379.847	2157.5
385.647	2188.5
391.44	2181.5
397.228	2189.5
403.009	2219.5
408.784	2203.5
414.553	2221.5
420.315	2220.5
426.071	2225.5
431.821	2245.5
437.565	2221.5
443.302	2212.5
449.033	2194.5
454.758	2185.5
460.477	2181.5
466.189	2184.5
471.896	2149.5
477.596	2150.5
483.29	2122.5
488.978	2117.5
494.66	2090.5
500.335	2064.5
506.005	2044.5
511.668	1983.5
517.325	1924.5
522.977	1914.5
528.622	1867.5
534.261	1861.5
539.894	1805.5
545.521	1814.5
551.141	1795.5
556.756	1782.5
562.365	1769.5
567.968	1760.5
573.565	1749.5
579.155	1723.5
584.74	1706.5
590.319	1703.5
595.892	1691.5
601.459	1665.5
607.02	1656.5
612.575	1642.5
618.124	1634.5
623.667	1610.5
629.204	1581.5
634.735	1567.5
640.261	1557.5
645.781	1544.5
651.294	1552.5
656.802	1530.5
662.304	1515.5
667.8	1527.5
673.29	1519.5
678.775	1499.5
684.254	1493.5
689.726	1479.5
695.193	1459.5
700.655	1446.5
706.11	1438.5
711.56	1439.5
717.004	1409.5
722.442	1405.5
727.874	1397.5
733.301	1366.5
738.722	1376.5
744.137	1346.5
749.547	1363.5
754.951	1363.5
760.349	1348.5
765.741	1342.5
771.128	1338.5
776.509	1347.5
781.885	1332.5
787.254	1325.5
792.618	1341.5
797.977	1305.5
803.33	1310.5
808.677	1291.5
814.019	1262.5
819.355	1248.5
824.686	1226.5
830.011	1228.5
835.33	1228.5
840.644	1204.5
845.952	1198.5
851.255	1196.5
856.552	1183.5
861.844	1160.5
867.13	1165.5
872.41	1139.5
877.686	1134.5
882.955	1109.5
888.219	1092.5
893.478	1066.5
898.731	1061.5
903.979	1028.5
909.221	1020.5
914.458	1004.5
919.69	1012.5
924.916	1006.5
930.136	979.5
935.351	983.5
940.561	976.5
945.766	983.5
950.965	957.5
956.158	940.5
961.347	941.5
966.529	919.5
971.707	910.5
976.879	890.5
982.046	885.5
987.208	880.5
992.364	882.5
997.515	869.5
1002.66	891.5
1007.801	890.5
1012.936	896.5
1018.066	889.5
1023.19	897.5
1028.309	893.5
1033.423	887.5
1038.532	898.5
1043.636	883.5
1048.734	887.5
1053.827	875.5
1058.915	864.5
1063.998	870.5
1069.075	850.5
1074.147	850.5
1079.214	861.5
1084.276	869.5
1089.333	861.5
1094.385	875.5
1099.431	864.5
1104.472	868.5
1109.509	862.5
1114.54	852.5
1119.565	838.5
1124.586	836.5
1129.602	837.5
1134.613	812.5
1139.618	811.5
1144.619	809.5
1149.614	820.5
1154.604	817.5
1159.589	830.5
1164.57	831.5
1169.545	832.5
1174.515	825.5
1179.48	821.5
1184.44	830.5
1189.395	813.5
1194.345	807.5
1199.29	809.5
1204.23	800.5
1209.165	822.5
1214.095	813.5
1219.021	821.5
1223.941	825.5
1228.856	824.5
1233.766	817.5
1238.672	847.5
1243.572	827.5
1248.467	814.5
1253.358	810.5
1258.244	806.5
1263.124	790.5
1268	779.5
1272.871	776.5
1277.737	763.5
1282.599	768.5
1287.455	762.5
1292.306	760.5
1297.153	774.5
1301.995	779.5
1306.832	796.5
1311.664	794.5
1316.491	781.5
1321.314	777.5
1326.132	783.5
1330.945	764.5
1335.753	753.5
1340.556	730.5
1345.354	712.5
1350.148	713.5
1354.937	695.5
1359.722	704.5
1364.501	701.5
1369.276	713.5
1374.046	712.5
1378.811	737.5
1383.572	745.5
1388.327	731.5
1393.079	718.5
1397.825	715.5
1402.567	689.5
1407.304	675.5
1412.036	684.5
1416.764	683.5
1421.487	672.5
1426.205	675.5
1430.919	682.5
1435.628	683.5
1440.333	690.5
1445.032	690.5
1449.727	697.5
1454.418	691.5
1459.104	677.5
1463.785	687.5
1468.462	675.5
1473.134	660.5
1477.802	674.5
1482.465	663.5
1487.123	659.5
1491.777	676.5
1496.426	664.5
1501.071	686.5
1505.711	694.5
1510.347	712.5
1514.978	727.5
1519.604	742.5
1524.226	743.5
1528.844	745.5
1533.457	753.5
1538.065	757.5
1542.669	761.5
1547.269	755.5
1551.864	760.5
1556.454	758.5
1561.041	766.5
1565.622	782.5
1570.199	806.5
1574.772	808.5
1579.34	822.5
1583.904	849.5
1588.464	861.5
1593.019	895.5
1597.569	897.5
1602.115	907.5
1606.657	923.5
1611.195	946.5
1615.728	948.5
1620.256	958.5
1624.78	986.5
1629.3	1010.5
1633.816	1016.5
1638.327	1045.5
1642.834	1052.5
1647.336	1061.5
1651.834	1065.5
1656.328	1062.5
1660.817	1036.5
1665.302	1020.5
1669.783	1003.5
1674.259	964.5
1678.732	930.5
1683.199	894.5
1687.663	837.5
1692.122	780.5
1696.577	765.5
1701.028	741.5
1705.474	720.5
1709.917	711.5
1714.355	692.5
1718.788	666.5
1723.218	625.5
1727.643	589.5
1732.064	572.5
1736.481	553.5
1740.893	518.5
1745.301	509.5
1749.705	495.5
1754.105	472.5
1758.501	458.5
1762.893	445.5
1767.28	432.5
1771.663	419.5
1776.042	410.5
1780.417	397.5
1784.787	411.5
1789.154	405.5
1793.516	406.5
1797.874	407.5
1802.228	413.5
1806.578	414.5
1810.924	407.5
1815.266	412.5
1819.603	396.5
1823.937	384.5
1828.266	382.5
1832.591	365.5
1836.913	373.5
1841.23	353.5
1845.543	357.5
1849.852	358.5
1854.156	349.5
1858.457	354.5
1862.754	350.5
1867.047	359.5
1871.335	363.5
1875.62	359.5
1879.9	352.5
1884.177	348.5
1888.449	348.5
1892.718	356.5
1896.982	347.5
1901.243	345.5
1905.499	346.5
1909.752	347.5
1914	342.5
1918.245	351.5
1922.485	355.5
1926.722	347.5
1930.954	355.5
1935.183	367.5
1939.408	368.5
1943.628	377.5
1947.845	378.5
1952.058	371.5
1956.267	379.5
1960.472	366.5
1964.673	362.5
1968.87	366.5
1973.063	353.5
1977.252	360.5
1981.438	358.5
1985.619	361.5
1989.797	355.5
1993.971	354.5
1998.14	347.5
2002.306	356.5
2006.469	352.5
2010.627	350.5
2014.781	358.5
2018.932	359.5
2023.078	358.5
2027.221	355.5
2031.36	354.5
2035.495	355.5
2039.627	345.5
2043.754	346.5
2047.878	341.5
2051.998	345.5
2056.114	338.5
2060.226	341.5
2064.334	350.5
2068.439	348.5
2072.54	354.5
2076.637	367.5
2080.73	372.5
2084.82	371.5
2088.906	374.5
2092.988	372.5
2097.066	354.5
2101.14	355.5
2105.211	356.5
2109.278	369.5
2113.342	362.5
2117.401	367.5
2121.457	369.5
2125.509	355.5
2129.558	354.5
2133.602	345.5
2137.643	343.5
2141.681	348.5
2145.714	347.5
2149.744	334.5
2153.77	333.5
2157.793	331.5
2161.812	328.5
2165.827	323.5
2169.838	315.5
2173.846	307.5
2177.851	304.5
2181.851	295.5
2185.848	294.5
2189.841	289.5
2193.831	285.5
2197.817	284.5
2201.799	269.5
2205.778	271.5
2209.753	273.5
2213.725	274.5
2217.693	271.5
2221.657	277.5
2225.618	262.5
2229.575	269.5
2233.529	264.5
2237.479	259.5
2241.425	252.5
2245.368	249.5
2249.307	246.5
2253.243	233.5
2257.175	237.5
2261.104	232.5
2265.029	226.5
2268.95	222.5
2272.868	220.5
2276.783	215.5
2280.694	209.5
2284.601	212.5
2288.505	202.5
2292.405	203.5
2296.302	195.5
2300.195	190.5
2304.085	184.5
2307.971	182.5
2311.854	182.5
2315.734	172.5
2319.609	173.5
2323.482	163.5
2327.351	159.5
2331.216	168.5
2335.078	159.5
2338.937	156.5
2342.792	158.5
2346.643	150.5
2350.492	147.5
2354.336	156.5
2358.178	149.5
2362.015	146.5
2365.85	153.5
2369.681	153.5
2373.508	146.5
2377.333	146.5
2381.153	139.5
2384.971	143.5
2388.785	141.5
2392.595	138.5
2396.402	133.5
2400.206	137.5
2404.007	134.5
2407.804	129.5
2411.597	131.5
2415.388	121.5
2419.174	127.5
2422.958	129.5
2426.738	128.5
2430.515	125.5
2434.289	126.5
2438.059	123.5
2441.825	123.5
2445.589	122.5
2449.349	114.5
2453.106	105.5
2456.859	114.5
2460.61	111.5
2464.356	103.5
2468.1	109.5
2471.84	111.5
2475.577	104.5
2479.311	108.5
2483.041	104.5
2486.768	106.5
2490.492	102.5
2494.213	99.5
2497.93	105.5
2501.644	101.5
2505.355	107.5
2509.062	99.5
2512.766	97.5
2516.467	104.5
2520.165	104.5
2523.859	105.5
2527.551	106.5
2531.239	99.5
2534.923	99.5
2538.605	92.5
2542.283	91.5
2545.958	96.5
2549.63	99.5
2553.299	100.5
2556.964	89.5
2560.626	92.5
2564.285	83.5
2567.941	89.5
2571.594	85.5
2575.243	84.5
2578.89	80.5
2582.533	82.5
2586.173	81.5
2589.809	82.5
2593.443	84.5
2597.073	78.5
2600.701	79.5
2604.325	77.5
2607.946	77.5
2611.564	81.5
2615.178	83.5
2618.79	80.5
2622.398	74.5
2626.004	72.5
2629.606	72.5
2633.205	75.5
2636.801	72.5
2640.394	72.5
2643.983	69.5
2647.57	70.5
2651.153	70.5
2654.734	64.5
2658.311	65.5
2661.885	63.5
2665.456	62.5
2669.025	59.5
2672.589	62.5
2676.151	63.5
2679.71	67.5
2683.266	57.5
2686.819	53.5
2690.368	47.5
2693.915	54.5
2697.458	45.5
2700.999	48.5
2704.536	57.5
2708.071	46.5
2711.602	49.5
2715.13	55.5
2718.656	48.5
2722.178	53.5
2725.697	42.5
2729.214	52.5
2732.727	49.5
2736.237	52.5
2739.744	46.5
2743.249	50.5
2746.75	54.5
2750.248	58.5
2753.743	60.5
2757.236	56.5
2760.725	70.5
2764.211	69.5
2767.695	61.5
2771.175	66.5
2774.652	61.5
2778.127	65.5
2781.598	58.5
2785.067	64.5
2788.532	60.5
2791.995	68.5
2795.455	71.5
2798.911	72.5
2802.365	76.5
2805.816	72.5
2809.264	67.5
2812.709	68.5
2816.151	79.5
2819.59	69.5
2823.026	68.5
2826.46	69.5
2829.89	83.5
2833.318	79.5
2836.742	80.5
2840.164	84.5
2843.583	89.5
2846.999	89.5
2850.412	94.5
2853.822	105.5
2857.229	92.5
2860.634	99.5
2864.035	107.5
2867.434	109.5
2870.83	113.5
2874.223	109.5
2877.613	117.5
2881	127.5
2884.385	122.5
2887.766	120.5
2891.145	128.5
2894.521	123.5
2897.894	129.5
2901.264	142.5
2904.631	132.5
2907.996	136.5
2911.358	137.5
2914.717	150.5
2918.073	150.5
2921.426	149.5
2924.777	157.5
2928.124	165.5
2931.469	171.5
2934.811	173.5
2938.15	183.5
2941.487	190.5
2944.821	203.5
2948.152	196.5
2951.48	201.5
2954.805	199.5
2958.128	215.5
2961.447	217.5
2964.765	222.5
2968.079	230.5
2971.39	240.5
2974.699	252.5
2978.005	261.5
2981.308	271.5
2984.609	286.5
2987.907	291.5
2991.202	308.5
2994.494	330.5
2997.784	329.5
3001.07	346.5
3004.355	356.5
3007.636	375.5
3010.915	373.5
3014.191	386.5
3017.464	397.5
3020.734	414.5
3024.002	408.5
3027.267	429.5
3030.53	442.5
3033.789	445.5
3037.046	446.5
3040.301	469.5
3043.552	472.5
3046.801	495.5
3050.048	508.5
3053.291	531.5
3056.532	541.5
3059.771	573.5
3063.006	584.5
3066.239	600.5
3069.469	625.5
3072.697	641.5
3075.922	657.5
3079.144	683.5
3082.364	703.5
3085.581	714.5
3088.795	743.5
3092.007	762.5
3095.216	785.5
3098.423	806.5
3101.627	822.5
3104.828	832.5
3108.026	847.5
3111.222	873.5
3114.416	907.5
3117.607	921.5
3120.795	935.5
3123.98	982.5
3127.163	1011.5
3130.344	1022.5
3133.521	1050.5
3136.696	1077.5
3139.869	1088.5
3143.039	1115.5
3146.206	1126.5
3149.371	1151.5
3152.533	1158.5
3155.693	1163.5
3158.85	1177.5
3162.005	1190.5
3165.157	1197.5
3168.306	1221.5
3171.453	1212.5
3174.597	1212.5
3177.739	1222.5
3180.878	1221.5
3184.014	1225.5
3187.149	1241.5
3190.28	1237.5
3193.409	1236.5
3196.536	1242.5
3199.659	1255.5
3202.781	1264.5
3205.9	1263.5
3209.016	1270.5
3212.13	1270.5
3215.241	1257.5
3218.35	1250.5
3221.456	1228.5
3224.56	1227.5
3227.661	1217.5
3230.76	1223.5
3233.856	1197.5
3236.95	1195.5
3240.041	1195.5
3243.13	1181.5
3246.216	1186.5
3249.3	1189.5
3252.382	1166.5
3255.46	1174.5
3258.537	1174.5
3261.611	1183.5
3264.682	1164.5
3267.751	1146.5
3270.818	1146.5
3273.882	1145.5
3276.943	1141.5
3280.002	1128.5
3283.059	1120.5
3286.113	1110.5
3289.165	1081.5
3292.214	1080.5
3295.261	1053.5
3298.306	1044.5
3301.348	1020.5
3304.387	994.5
3307.425	982.5
3310.459	985.5
3313.492	969.5
3316.521	955.5
3319.549	945.5
3322.574	941.5
3325.597	944.5
3328.617	919.5
3331.635	916.5
3334.65	907.5
3337.663	895.5
3340.674	898.5
3343.682	903.5
3346.688	885.5
3349.691	888.5
3352.692	879.5
3355.691	880.5
3358.687	874.5
3361.681	859.5
3364.673	850.5
3367.662	838.5
3370.649	834.5
3373.633	825.5
3376.615	825.5
3379.595	810.5
3382.572	789.5
3385.547	777.5
3388.52	775.5
3391.49	758.5
3394.458	752.5
3397.424	746.5
3400.387	733.5
3403.348	723.5
3406.307	731.5
3409.263	714.5
3412.217	707.5
3415.168	688.5
3418.118	687.5
3421.065	687.5
3424.009	674.5
3426.951	661.5
3429.891	651.5
3432.829	645.5
3435.764	628.5
3438.697	630.5
3441.628	614.5
3444.557	590.5
3447.483	576.5
3450.407	555.5
3453.328	540.5
3456.247	533.5
3459.164	518.5
3462.079	492.5
3464.991	491.5
3467.902	476.5
3470.809	463.5
3473.715	446.5
3476.618	430.5
3479.519	424.5
3482.418	413.5
3485.315	408.5
3488.209	389.5
3491.101	383.5
3493.99	378.5
3496.878	361.5
3499.763	353.5
3502.646	337.5
3505.527	324.5
3508.405	318.5
3511.281	303.5
3514.155	296.5
3517.027	282.5
3519.897	275.5
3522.764	266.5
3525.629	241.5
3528.492	228.5
3531.352	215.5
3534.211	208.5
3537.067	206.5
3539.921	187.5
3542.773	171.5
3545.622	164.5
3548.469	156.5
3551.315	149.5
3554.157	129.5
3556.998	129.5
3559.837	122.5
3562.673	114.5
3565.507	109.5
3568.339	107.5
3571.169	97.5
3573.996	90.5
3576.822	88.5
3579.645	78.5
3582.466	64.5
3585.285	67.5
3588.101	57.5
3590.916	49.5
3593.728	43.5
3596.538	45.5
3599.346	35.5
3602.152	33.5
3604.956	30.5
3607.757	22.5
3610.556	19.5
3613.354	11.5
3616.149	7.5
3618.942	3.5
3621.732	-0.5
3624.521	-3.5
3627.307	-7.5
3630.092	-15.5
3632.874	-8.5
3635.654	-12.5
3638.432	-19.5
3641.208	-14.5
3643.982	-24.5
3646.753	-29.5
3649.523	-27.5
3652.29	-32.5
3655.055	-42.5
3657.818	-38.5
3660.579	-45.5
3663.338	-44.5
3666.095	-49.5
3668.849	-51.5
3671.602	-48.5
3674.352	-55.5
3677.101	-56.5
3679.847	-59.5
3682.591	-68.5
3685.333	-69.5
3688.073	-66.5
3690.811	-71.5
3693.547	-72.5
3696.281	-73.5
3699.013	-79.5
3701.742	-72.5
3704.47	-73.5
3707.195	-74.5
3709.919	-75.5
3712.64	-79.5
3715.359	-81.5
3718.076	-81.5
3720.792	-83.5
3723.505	-87.5
3726.216	-89.5
3728.925	-80.5
3731.632	-86.5
3734.336	-90.5
3737.039	-87.5
3739.74	-90.5
3742.439	-94.5
3745.136	-89.5
3747.83	-90.5
3750.523	-91.5
3753.213	-91.5
3755.902	-93.5
3758.589	-88.5
3761.273	-94.5
3763.956	-94.5
3766.636	-93.5
3769.315	-99.5
3771.991	-98.5
3774.665	-100.5
3777.338	-98.5
3780.008	-101.5
3782.677	-94.5
3785.343	-96.5
3788.007	-94.5
3790.67	-98.5
3793.33	-97.5
3795.989	-100.5
3798.645	-104.5
3801.299	-101.5
3803.952	-100.5
3806.602	-98.5
3809.251	-98.5
3811.897	-100.5
3814.542	-99.5
3817.184	-100.5
3819.825	-97.5
3822.463	-100.5
3825.1	-101.5
3827.735	-102.5
3830.367	-102.5
3832.998	-108.5
3835.627	-101.5
3838.253	-104.5
3840.878	-103.5
3843.501	-101.5
3846.122	-103.5
3848.741	-99.5
3851.358	-100.5
3853.973	-101.5
3856.586	-101.5
3859.197	-109.5
3861.806	-103.5
3864.414	-107.5
3867.019	-109.5
3869.622	-106.5
3872.224	-102.5
3874.823	-104.5
3877.421	-98.5
3880.016	-95.5
3882.61	-91.5
3885.202	-93.5
3887.792	-101.5
3890.38	-103.5
3892.966	-104.5
3895.55	-109.5
3898.132	-108.5
3900.713	-102.5
3903.291	-106.5
3905.868	-105.5
3908.442	-107.5
3911.015	-105.5
3913.586	-108.5
3916.155	-107.5
3918.722	-99.5
3921.287	-106.5
3923.85	-107.5
3926.411	-109.5
3928.971	-107.5
3931.528	-109.5
3934.084	-107.5
3936.638	-111.5
3939.19	-107.5
3941.74	-108.5
3944.288	-107.5
3946.834	-107.5
3949.378	-105.5
3951.921	-107.5
3954.462	-108.5
3957	-108.5
3959.537	-107.5
3962.072	-105.5
3964.606	-106.5
3967.137	-108.5
3969.667	-108.5
3972.194	-108.5
3974.72	-105.5
3977.244	-110.5
3979.766	-104.5
3982.286	-105.5
3984.805	-108.5
3987.321	-101.5
3989.836	-105.5
3992.349	-102.5
3994.86	-101.5
3997.369	-104.5
3999.877	-104.5
4002.382	-106.5
4004.886	-105.5
4007.388	-105.5
4009.888	-106.5
4012.386	-105.5
4014.883	-106.5
4017.377	-104.5
4019.87	-103.5
4022.361	-106.5
4024.85	-104.5
4027.338	-104.5
4029.823	-105.5
4032.307	-106.5
4034.789	-108.5
4037.269	-105.5
4039.747	-107.5
4042.224	-105.5
4044.699	-107.5
4047.172	-104.5
4049.643	-104.5
4052.112	-106.5
4054.58	-106.5
4057.046	-106.5
4059.51	-108.5
4061.972	-110.5
4064.432	-107.5
4066.891	-108.5
4069.348	-102.5
4071.803	-108.5
4074.256	-107.5
4076.708	-103.5
4079.158	-105.5
4081.606	-106.5
4084.052	-108.5
4086.497	-107.5
4088.939	-108.5
4091.38	-110.5
4093.819	-109.5
4096.257	-114.5
4098.693	-110.5
4101.127	-110.5
4103.559	-109.5
4105.989	-68.5
4108.418	-66.5
4110.845	-62.5
4113.27	-59.5
4115.694	-52.5
4118.115	-43.5
4120.535	-107.5
4122.954	-107.5
4125.37	-108.5
4127.785	-103.5
4130.198	-105.5
4132.609	-106.5
4135.019	-109.5
4137.427	-111.5
4139.833	-111.5
4142.237	-113.5
