Data from B_sub_water_10000CFU2_RamanShift_1.txt Node
Date: Thu Feb 23 12:01:18 IST 2017
User: aro
Spectrometer: QEPB0276
Trigger mode: 0
Integration Time (sec): 5.000000E0
Scans to average: 1
Electric dark correction enabled: true
Nonlinearity correction enabled: false
Boxcar width: 0
XAxis mode: Raman Shifts
Number of Pixels in Spectrum: 1044
>>>>>Begin Spectral Data<<<<<
160.701	-25.25
166.742	4.75
172.777	85.75
178.805	340.75
184.826	982.75
190.841	2044.75
196.849	3267.75
202.85	4044.75
208.845	4252.75
214.833	4077.75
220.815	3909.75
226.789	3818.75
232.758	3700.75
238.719	3604.75
244.674	3489.75
250.623	3324.75
256.565	3188.75
262.5	3046.75
268.429	2914.75
274.351	2779.75
280.267	2678.75
286.176	2579.75
292.079	2492.75
297.975	2412.75
303.865	2349.75
309.748	2287.75
315.625	2236.75
321.495	2187.75
327.359	2140.75
333.217	2132.75
339.068	2126.75
344.912	2112.75
350.751	2106.75
356.583	2115.75
362.408	2100.75
368.227	2094.75
374.04	2118.75
379.847	2121.75
385.647	2114.75
391.44	2134.75
397.228	2139.75
403.009	2149.75
408.784	2175.75
414.553	2169.75
420.315	2178.75
426.071	2182.75
431.821	2202.75
437.565	2187.75
443.302	2167.75
449.033	2173.75
454.758	2145.75
460.477	2141.75
466.189	2135.75
471.896	2120.75
477.596	2102.75
483.29	2101.75
488.978	2102.75
494.66	2071.75
500.335	2061.75
506.005	2022.75
511.668	1989.75
517.325	1939.75
522.977	1916.75
528.622	1884.75
534.261	1860.75
539.894	1825.75
545.521	1831.75
551.141	1827.75
556.756	1807.75
562.365	1798.75
567.968	1797.75
573.565	1770.75
579.155	1750.75
584.74	1750.75
590.319	1739.75
595.892	1719.75
601.459	1710.75
607.02	1698.75
612.575	1707.75
618.124	1658.75
623.667	1657.75
629.204	1632.75
634.735	1625.75
640.261	1596.75
645.781	1593.75
651.294	1602.75
656.802	1597.75
662.304	1597.75
667.8	1593.75
673.29	1563.75
678.775	1560.75
684.254	1555.75
689.726	1555.75
695.193	1546.75
700.655	1534.75
706.11	1524.75
711.56	1511.75
717.004	1503.75
722.442	1481.75
727.874	1481.75
733.301	1477.75
738.722	1461.75
744.137	1458.75
749.547	1459.75
754.951	1463.75
760.349	1452.75
765.741	1445.75
771.128	1440.75
776.509	1456.75
781.885	1444.75
787.254	1437.75
792.618	1436.75
797.977	1422.75
803.33	1415.75
808.677	1410.75
814.019	1378.75
819.355	1351.75
824.686	1363.75
830.011	1356.75
835.33	1350.75
840.644	1330.75
845.952	1338.75
851.255	1319.75
856.552	1327.75
861.844	1303.75
867.13	1286.75
872.41	1285.75
877.686	1256.75
882.955	1252.75
888.219	1235.75
893.478	1230.75
898.731	1211.75
903.979	1196.75
909.221	1171.75
914.458	1161.75
919.69	1152.75
924.916	1161.75
930.136	1160.75
935.351	1149.75
940.561	1154.75
945.766	1142.75
950.965	1148.75
956.158	1119.75
961.347	1119.75
966.529	1089.75
971.707	1097.75
976.879	1088.75
982.046	1077.75
987.208	1057.75
992.364	1060.75
997.515	1058.75
1002.66	1065.75
1007.801	1074.75
1012.936	1090.75
1018.066	1093.75
1023.19	1096.75
1028.309	1085.75
1033.423	1102.75
1038.532	1096.75
1043.636	1084.75
1048.734	1075.75
1053.827	1064.75
1058.915	1048.75
1063.998	1041.75
1069.075	1040.75
1074.147	1038.75
1079.214	1052.75
1084.276	1051.75
1089.333	1053.75
1094.385	1063.75
1099.431	1085.75
1104.472	1072.75
1109.509	1056.75
1114.54	1065.75
1119.565	1048.75
1124.586	1027.75
1129.602	1010.75
1134.613	1006.75
1139.618	1024.75
1144.619	1010.75
1149.614	1008.75
1154.604	1003.75
1159.589	1022.75
1164.57	1022.75
1169.545	1028.75
1174.515	1027.75
1179.48	1036.75
1184.44	1013.75
1189.395	1004.75
1194.345	1015.75
1199.29	1005.75
1204.23	1011.75
1209.165	1019.75
1214.095	1017.75
1219.021	1025.75
1223.941	1025.75
1228.856	1047.75
1233.766	1041.75
1238.672	1034.75
1243.572	1051.75
1248.467	1023.75
1253.358	1003.75
1258.244	1009.75
1263.124	1004.75
1268	992.75
1272.871	961.75
1277.737	963.75
1282.599	956.75
1287.455	945.75
1292.306	956.75
1297.153	971.75
1301.995	977.75
1306.832	982.75
1311.664	988.75
1316.491	989.75
1321.314	995.75
1326.132	959.75
1330.945	962.75
1335.753	932.75
1340.556	919.75
1345.354	901.75
1350.148	882.75
1354.937	880.75
1359.722	887.75
1364.501	906.75
1369.276	907.75
1374.046	927.75
1378.811	930.75
1383.572	941.75
1388.327	924.75
1393.079	933.75
1397.825	909.75
1402.567	886.75
1407.304	883.75
1412.036	870.75
1416.764	867.75
1421.487	856.75
1426.205	867.75
1430.919	880.75
1435.628	884.75
1440.333	884.75
1445.032	873.75
1449.727	885.75
1454.418	890.75
1459.104	879.75
1463.785	869.75
1468.462	877.75
1473.134	870.75
1477.802	855.75
1482.465	862.75
1487.123	858.75
1491.777	858.75
1496.426	869.75
1501.071	878.75
1505.711	884.75
1510.347	907.75
1514.978	931.75
1519.604	940.75
1524.226	954.75
1528.844	949.75
1533.457	961.75
1538.065	943.75
1542.669	945.75
1547.269	945.75
1551.864	941.75
1556.454	960.75
1561.041	950.75
1565.622	956.75
1570.199	986.75
1574.772	977.75
1579.34	1019.75
1583.904	1016.75
1588.464	1051.75
1593.019	1047.75
1597.569	1050.75
1602.115	1064.75
1606.657	1070.75
1611.195	1088.75
1615.728	1098.75
1620.256	1103.75
1624.78	1119.75
1629.3	1140.75
1633.816	1163.75
1638.327	1181.75
1642.834	1183.75
1647.336	1198.75
1651.834	1188.75
1656.328	1189.75
1660.817	1177.75
1665.302	1164.75
1669.783	1146.75
1674.259	1119.75
1678.732	1075.75
1683.199	1043.75
1687.663	984.75
1692.122	958.75
1696.577	919.75
1701.028	900.75
1705.474	891.75
1709.917	883.75
1714.355	856.75
1718.788	836.75
1723.218	796.75
1727.643	785.75
1732.064	771.75
1736.481	754.75
1740.893	722.75
1745.301	701.75
1749.705	689.75
1754.105	666.75
1758.501	648.75
1762.893	634.75
1767.28	611.75
1771.663	606.75
1776.042	593.75
1780.417	579.75
1784.787	599.75
1789.154	594.75
1793.516	615.75
1797.874	626.75
1802.228	627.75
1806.578	618.75
1810.924	620.75
1815.266	620.75
1819.603	612.75
1823.937	583.75
1828.266	574.75
1832.591	564.75
1836.913	569.75
1841.23	560.75
1845.543	552.75
1849.852	552.75
1854.156	546.75
1858.457	546.75
1862.754	565.75
1867.047	551.75
1871.335	554.75
1875.62	549.75
1879.9	564.75
1884.177	561.75
1888.449	553.75
1892.718	554.75
1896.982	552.75
1901.243	542.75
1905.499	545.75
1909.752	549.75
1914	539.75
1918.245	553.75
1922.485	554.75
1926.722	552.75
1930.954	561.75
1935.183	565.75
1939.408	557.75
1943.628	577.75
1947.845	575.75
1952.058	575.75
1956.267	577.75
1960.472	571.75
1964.673	559.75
1968.87	560.75
1973.063	543.75
1977.252	546.75
1981.438	546.75
1985.619	542.75
1989.797	538.75
1993.971	539.75
1998.14	542.75
2002.306	540.75
2006.469	542.75
2010.627	538.75
2014.781	550.75
2018.932	541.75
2023.078	539.75
2027.221	550.75
2031.36	532.75
2035.495	539.75
2039.627	532.75
2043.754	517.75
2047.878	522.75
2051.998	517.75
2056.114	517.75
2060.226	510.75
2064.334	522.75
2068.439	539.75
2072.54	523.75
2076.637	537.75
2080.73	541.75
2084.82	538.75
2088.906	538.75
2092.988	549.75
2097.066	551.75
2101.14	549.75
2105.211	540.75
2109.278	540.75
2113.342	534.75
2117.401	524.75
2121.457	537.75
2125.509	516.75
2129.558	522.75
2133.602	519.75
2137.643	522.75
2141.681	512.75
2145.714	512.75
2149.744	505.75
2153.77	518.75
2157.793	501.75
2161.812	496.75
2165.827	494.75
2169.838	481.75
2173.846	467.75
2177.851	465.75
2181.851	448.75
2185.848	447.75
2189.841	451.75
2193.831	439.75
2197.817	429.75
2201.799	441.75
2205.778	431.75
2209.753	424.75
2213.725	432.75
2217.693	424.75
2221.657	420.75
2225.618	423.75
2229.575	428.75
2233.529	424.75
2237.479	425.75
2241.425	418.75
2245.368	408.75
2249.307	414.75
2253.243	391.75
2257.175	392.75
2261.104	385.75
2265.029	371.75
2268.95	367.75
2272.868	362.75
2276.783	360.75
2280.694	353.75
2284.601	362.75
2288.505	352.75
2292.405	357.75
2296.302	361.75
2300.195	338.75
2304.085	336.75
2307.971	324.75
2311.854	324.75
2315.734	316.75
2319.609	310.75
2323.482	303.75
2327.351	297.75
2331.216	306.75
2335.078	298.75
2338.937	304.75
2342.792	298.75
2346.643	291.75
2350.492	287.75
2354.336	296.75
2358.178	281.75
2362.015	287.75
2365.85	283.75
2369.681	287.75
2373.508	287.75
2377.333	290.75
2381.153	289.75
2384.971	291.75
2388.785	293.75
2392.595	280.75
2396.402	281.75
2400.206	269.75
2404.007	268.75
2407.804	262.75
2411.597	265.75
2415.388	258.75
2419.174	262.75
2422.958	266.75
2426.738	258.75
2430.515	258.75
2434.289	258.75
2438.059	258.75
2441.825	254.75
2445.589	253.75
2449.349	248.75
2453.106	246.75
2456.859	244.75
2460.61	234.75
2464.356	237.75
2468.1	238.75
2471.84	234.75
2475.577	235.75
2479.311	237.75
2483.041	238.75
2486.768	244.75
2490.492	236.75
2494.213	228.75
2497.93	231.75
2501.644	228.75
2505.355	234.75
2509.062	230.75
2512.766	234.75
2516.467	230.75
2520.165	238.75
2523.859	227.75
2527.551	222.75
2531.239	224.75
2534.923	227.75
2538.605	223.75
2542.283	223.75
2545.958	217.75
2549.63	217.75
2553.299	218.75
2556.964	218.75
2560.626	212.75
2564.285	211.75
2567.941	212.75
2571.594	203.75
2575.243	204.75
2578.89	201.75
2582.533	208.75
2586.173	198.75
2589.809	200.75
2593.443	206.75
2597.073	193.75
2600.701	198.75
2604.325	197.75
2607.946	194.75
2611.564	190.75
2615.178	196.75
2618.79	193.75
2622.398	194.75
2626.004	196.75
2629.606	191.75
2633.205	194.75
2636.801	191.75
2640.394	183.75
2643.983	187.75
2647.57	182.75
2651.153	175.75
2654.734	169.75
2658.311	171.75
2661.885	169.75
2665.456	166.75
2669.025	165.75
2672.589	161.75
2676.151	160.75
2679.71	163.75
2683.266	157.75
2686.819	159.75
2690.368	156.75
2693.915	153.75
2697.458	150.75
2700.999	144.75
2704.536	145.75
2708.071	149.75
2711.602	141.75
2715.13	135.75
2718.656	139.75
2722.178	141.75
2725.697	139.75
2729.214	136.75
2732.727	135.75
2736.237	136.75
2739.744	148.75
2743.249	145.75
2746.75	143.75
2750.248	142.75
2753.743	156.75
2757.236	145.75
2760.725	152.75
2764.211	159.75
2767.695	149.75
2771.175	149.75
2774.652	149.75
2778.127	150.75
2781.598	154.75
2785.067	140.75
2788.532	145.75
2791.995	154.75
2795.455	150.75
2798.911	157.75
2802.365	144.75
2805.816	153.75
2809.264	153.75
2812.709	148.75
2816.151	155.75
2819.59	148.75
2823.026	155.75
2826.46	149.75
2829.89	162.75
2833.318	149.75
2836.742	157.75
2840.164	155.75
2843.583	160.75
2846.999	159.75
2850.412	167.75
2853.822	165.75
2857.229	168.75
2860.634	170.75
2864.035	173.75
2867.434	174.75
2870.83	173.75
2874.223	183.75
2877.613	185.75
2881	178.75
2884.385	179.75
2887.766	177.75
2891.145	189.75
2894.521	180.75
2897.894	183.75
2901.264	195.75
2904.631	192.75
2907.996	192.75
2911.358	199.75
2914.717	202.75
2918.073	197.75
2921.426	206.75
2924.777	205.75
2928.124	217.75
2931.469	212.75
2934.811	216.75
2938.15	217.75
2941.487	228.75
2944.821	240.75
2948.152	241.75
2951.48	250.75
2954.805	239.75
2958.128	252.75
2961.447	259.75
2964.765	253.75
2968.079	261.75
2971.39	271.75
2974.699	277.75
2978.005	284.75
2981.308	298.75
2984.609	312.75
2987.907	313.75
2991.202	321.75
2994.494	345.75
2997.784	351.75
3001.07	359.75
3004.355	374.75
3007.636	378.75
3010.915	391.75
3014.191	401.75
3017.464	404.75
3020.734	422.75
3024.002	419.75
3027.267	421.75
3030.53	432.75
3033.789	431.75
3037.046	445.75
3040.301	449.75
3043.552	483.75
3046.801	481.75
3050.048	493.75
3053.291	511.75
3056.532	529.75
3059.771	532.75
3063.006	555.75
3066.239	565.75
3069.469	588.75
3072.697	608.75
3075.922	622.75
3079.144	646.75
3082.364	660.75
3085.581	684.75
3088.795	694.75
3092.007	713.75
3095.216	721.75
3098.423	739.75
3101.627	746.75
3104.828	767.75
3108.026	780.75
3111.222	797.75
3114.416	821.75
3117.607	855.75
3120.795	873.75
3123.98	885.75
3127.163	903.75
3130.344	939.75
3133.521	949.75
3136.696	955.75
3139.869	984.75
3143.039	992.75
3146.206	1033.75
3149.371	1051.75
3152.533	1043.75
3155.693	1052.75
3158.85	1061.75
3162.005	1075.75
3165.157	1071.75
3168.306	1097.75
3171.453	1094.75
3174.597	1089.75
3177.739	1090.75
3180.878	1089.75
3184.014	1107.75
3187.149	1105.75
3190.28	1114.75
3193.409	1114.75
3196.536	1119.75
3199.659	1120.75
3202.781	1128.75
3205.9	1125.75
3209.016	1134.75
3212.13	1118.75
3215.241	1124.75
3218.35	1127.75
3221.456	1116.75
3224.56	1096.75
3227.661	1092.75
3230.76	1066.75
3233.856	1074.75
3236.95	1073.75
3240.041	1059.75
3243.13	1053.75
3246.216	1052.75
3249.3	1043.75
3252.382	1046.75
3255.46	1046.75
3258.537	1049.75
3261.611	1022.75
3264.682	1027.75
3267.751	1010.75
3270.818	1022.75
3273.882	1013.75
3276.943	1008.75
3280.002	987.75
3283.059	988.75
3286.113	972.75
3289.165	974.75
3292.214	952.75
3295.261	938.75
3298.306	922.75
3301.348	904.75
3304.387	891.75
3307.425	881.75
3310.459	878.75
3313.492	858.75
3316.521	837.75
3319.549	833.75
3322.574	823.75
3325.597	820.75
3328.617	815.75
3331.635	804.75
3334.65	797.75
3337.663	800.75
3340.674	800.75
3343.682	800.75
3346.688	789.75
3349.691	795.75
3352.692	780.75
3355.691	771.75
3358.687	760.75
3361.681	762.75
3364.673	745.75
3367.662	743.75
3370.649	729.75
3373.633	728.75
3376.615	712.75
3379.595	704.75
3382.572	706.75
3385.547	688.75
3388.52	681.75
3391.49	662.75
3394.458	666.75
3397.424	649.75
3400.387	637.75
3403.348	642.75
3406.307	643.75
3409.263	627.75
3412.217	623.75
3415.168	607.75
3418.118	611.75
3421.065	608.75
3424.009	584.75
3426.951	582.75
3429.891	571.75
3432.829	562.75
3435.764	548.75
3438.697	542.75
3441.628	538.75
3444.557	520.75
3447.483	512.75
3450.407	496.75
3453.328	480.75
3456.247	469.75
3459.164	456.75
3462.079	436.75
3464.991	429.75
3467.902	418.75
3470.809	409.75
3473.715	385.75
3476.618	383.75
3479.519	376.75
3482.418	367.75
3485.315	359.75
3488.209	348.75
3491.101	330.75
3493.99	325.75
3496.878	316.75
3499.763	301.75
3502.646	300.75
3505.527	294.75
3508.405	290.75
3511.281	276.75
3514.155	254.75
3517.027	240.75
3519.897	237.75
3522.764	224.75
3525.629	207.75
3528.492	197.75
3531.352	195.75
3534.211	181.75
3537.067	170.75
3539.921	157.75
3542.773	156.75
3545.622	147.75
3548.469	139.75
3551.315	126.75
3554.157	118.75
3556.998	120.75
3559.837	107.75
3562.673	101.75
3565.507	98.75
3568.339	91.75
3571.169	85.75
3573.996	76.75
3576.822	77.75
3579.645	69.75
3582.466	57.75
3585.285	60.75
3588.101	51.75
3590.916	44.75
3593.728	42.75
3596.538	33.75
3599.346	34.75
3602.152	27.75
3604.956	23.75
3607.757	11.75
3610.556	10.75
3613.354	8.75
3616.149	7.75
3618.942	6.75
3621.732	2.75
3624.521	-4.25
3627.307	-5.25
3630.092	-6.25
3632.874	-11.25
3635.654	-9.25
3638.432	-19.25
3641.208	-17.25
3643.982	-23.25
3646.753	-26.25
3649.523	-26.25
3652.29	-27.25
3655.055	-36.25
3657.818	-32.25
3660.579	-38.25
3663.338	-37.25
3666.095	-39.25
3668.849	-47.25
3671.602	-49.25
3674.352	-48.25
3677.101	-55.25
3679.847	-56.25
3682.591	-65.25
3685.333	-63.25
3688.073	-63.25
3690.811	-58.25
3693.547	-61.25
3696.281	-61.25
3699.013	-67.25
3701.742	-65.25
3704.47	-69.25
3707.195	-63.25
3709.919	-69.25
3712.64	-70.25
3715.359	-76.25
3718.076	-71.25
3720.792	-75.25
3723.505	-72.25
3726.216	-77.25
3728.925	-72.25
3731.632	-75.25
3734.336	-76.25
3737.039	-76.25
3739.74	-81.25
3742.439	-84.25
3745.136	-85.25
3747.83	-87.25
3750.523	-82.25
3753.213	-82.25
3755.902	-82.25
3758.589	-76.25
3761.273	-84.25
3763.956	-83.25
3766.636	-85.25
3769.315	-89.25
3771.991	-88.25
3774.665	-88.25
3777.338	-92.25
3780.008	-93.25
3782.677	-87.25
3785.343	-85.25
3788.007	-85.25
3790.67	-88.25
3793.33	-87.25
3795.989	-90.25
3798.645	-92.25
3801.299	-92.25
3803.952	-86.25
3806.602	-90.25
3809.251	-88.25
3811.897	-93.25
3814.542	-90.25
3817.184	-93.25
3819.825	-90.25
3822.463	-89.25
3825.1	-85.25
3827.735	-89.25
3830.367	-90.25
3832.998	-93.25
3835.627	-90.25
3838.253	-94.25
3840.878	-94.25
3843.501	-96.25
3846.122	-94.25
3848.741	-90.25
3851.358	-91.25
3853.973	-90.25
3856.586	-92.25
3859.197	-96.25
3861.806	-92.25
3864.414	-94.25
3867.019	-98.25
3869.622	-93.25
3872.224	-92.25
3874.823	-93.25
3877.421	-90.25
3880.016	-89.25
3882.61	-80.25
3885.202	-81.25
3887.792	-88.25
3890.38	-87.25
3892.966	-94.25
3895.55	-94.25
3898.132	-93.25
3900.713	-93.25
3903.291	-94.25
3905.868	-95.25
3908.442	-95.25
3911.015	-96.25
3913.586	-101.25
3916.155	-98.25
3918.722	-94.25
3921.287	-98.25
3923.85	-96.25
3926.411	-98.25
3928.971	-96.25
3931.528	-94.25
3934.084	-95.25
3936.638	-99.25
3939.19	-93.25
3941.74	-96.25
3944.288	-98.25
3946.834	-99.25
3949.378	-96.25
3951.921	-100.25
3954.462	-98.25
3957	-101.25
3959.537	-95.25
3962.072	-94.25
3964.606	-95.25
3967.137	-96.25
3969.667	-94.25
3972.194	-97.25
3974.72	-94.25
3977.244	-99.25
3979.766	-93.25
3982.286	-97.25
3984.805	-99.25
3987.321	-95.25
3989.836	-97.25
3992.349	-91.25
3994.86	-89.25
3997.369	-92.25
3999.877	-90.25
4002.382	-94.25
4004.886	-92.25
4007.388	-95.25
4009.888	-98.25
4012.386	-96.25
4014.883	-96.25
4017.377	-95.25
4019.87	-96.25
4022.361	-96.25
4024.85	-93.25
4027.338	-96.25
4029.823	-94.25
4032.307	-97.25
4034.789	-98.25
4037.269	-96.25
4039.747	-96.25
4042.224	-99.25
4044.699	-96.25
4047.172	-96.25
4049.643	-97.25
4052.112	-95.25
4054.58	-97.25
4057.046	-97.25
4059.51	-99.25
4061.972	-103.25
4064.432	-95.25
4066.891	-96.25
4069.348	-94.25
4071.803	-94.25
4074.256	-95.25
4076.708	-93.25
4079.158	-97.25
4081.606	-96.25
4084.052	-100.25
4086.497	-99.25
4088.939	-98.25
4091.38	-100.25
4093.819	-102.25
4096.257	-100.25
4098.693	-99.25
4101.127	-101.25
4103.559	-100.25
4105.989	-61.25
4108.418	-58.25
4110.845	-55.25
4113.27	-55.25
4115.694	-46.25
4118.115	-39.25
4120.535	-98.25
4122.954	-94.25
4125.37	-96.25
4127.785	-93.25
4130.198	-95.25
4132.609	-96.25
4135.019	-101.25
4137.427	-101.25
4139.833	-101.25
4142.237	-102.25
