Data from B_sub_water_100CFU2_RamanShift_1.txt Node
Date: Thu Feb 23 11:54:18 IST 2017
User: aro
Spectrometer: QEPB0276
Trigger mode: 0
Integration Time (sec): 5.000000E0
Scans to average: 1
Electric dark correction enabled: true
Nonlinearity correction enabled: false
Boxcar width: 0
XAxis mode: Raman Shifts
Number of Pixels in Spectrum: 1044
>>>>>Begin Spectral Data<<<<<
160.701	-24.12
166.742	2.88
172.777	87.88
178.805	362.88
184.826	1021.88
190.841	2134.88
196.849	3366.88
202.85	4184.88
208.845	4374.88
214.833	4237.88
220.815	4070.88
226.789	3939.88
232.758	3848.88
238.719	3734.88
244.674	3600.88
250.623	3473.88
256.565	3289.88
262.5	3142.88
268.429	3001.88
274.351	2909.88
280.267	2792.88
286.176	2696.88
292.079	2606.88
297.975	2525.88
303.865	2464.88
309.748	2414.88
315.625	2356.88
321.495	2304.88
327.359	2272.88
333.217	2248.88
339.068	2234.88
344.912	2202.88
350.751	2211.88
356.583	2221.88
362.408	2210.88
368.227	2214.88
374.04	2214.88
379.847	2232.88
385.647	2240.88
391.44	2252.88
397.228	2224.88
403.009	2265.88
408.784	2250.88
414.553	2259.88
420.315	2296.88
426.071	2277.88
431.821	2295.88
437.565	2278.88
443.302	2283.88
449.033	2271.88
454.758	2272.88
460.477	2264.88
466.189	2248.88
471.896	2211.88
477.596	2216.88
483.29	2216.88
488.978	2180.88
494.66	2180.88
500.335	2160.88
506.005	2138.88
511.668	2076.88
517.325	2058.88
522.977	2007.88
528.622	1974.88
534.261	1969.88
539.894	1936.88
545.521	1934.88
551.141	1922.88
556.756	1911.88
562.365	1892.88
567.968	1881.88
573.565	1859.88
579.155	1862.88
584.74	1853.88
590.319	1836.88
595.892	1824.88
601.459	1805.88
607.02	1813.88
612.575	1786.88
618.124	1763.88
623.667	1766.88
629.204	1734.88
634.735	1723.88
640.261	1715.88
645.781	1712.88
651.294	1687.88
656.802	1679.88
662.304	1658.88
667.8	1687.88
673.29	1667.88
678.775	1646.88
684.254	1636.88
689.726	1658.88
695.193	1640.88
700.655	1638.88
706.11	1617.88
711.56	1591.88
717.004	1576.88
722.442	1567.88
727.874	1574.88
733.301	1556.88
738.722	1556.88
744.137	1540.88
749.547	1555.88
754.951	1534.88
760.349	1526.88
765.741	1525.88
771.128	1536.88
776.509	1521.88
781.885	1526.88
787.254	1503.88
792.618	1507.88
797.977	1511.88
803.33	1508.88
808.677	1473.88
814.019	1451.88
819.355	1459.88
824.686	1434.88
830.011	1425.88
835.33	1419.88
840.644	1404.88
845.952	1407.88
851.255	1395.88
856.552	1391.88
861.844	1373.88
867.13	1379.88
872.41	1369.88
877.686	1341.88
882.955	1337.88
888.219	1315.88
893.478	1309.88
898.731	1275.88
903.979	1257.88
909.221	1236.88
914.458	1228.88
919.69	1232.88
924.916	1237.88
930.136	1231.88
935.351	1233.88
940.561	1229.88
945.766	1218.88
950.965	1201.88
956.158	1206.88
961.347	1192.88
966.529	1180.88
971.707	1147.88
976.879	1137.88
982.046	1137.88
987.208	1127.88
992.364	1116.88
997.515	1124.88
1002.66	1123.88
1007.801	1148.88
1012.936	1157.88
1018.066	1160.88
1023.19	1154.88
1028.309	1173.88
1033.423	1148.88
1038.532	1156.88
1043.636	1150.88
1048.734	1125.88
1053.827	1129.88
1058.915	1104.88
1063.998	1105.88
1069.075	1115.88
1074.147	1107.88
1079.214	1115.88
1084.276	1121.88
1089.333	1126.88
1094.385	1122.88
1099.431	1135.88
1104.472	1146.88
1109.509	1119.88
1114.54	1117.88
1119.565	1099.88
1124.586	1084.88
1129.602	1079.88
1134.613	1069.88
1139.618	1067.88
1144.619	1072.88
1149.614	1073.88
1154.604	1077.88
1159.589	1080.88
1164.57	1091.88
1169.545	1099.88
1174.515	1081.88
1179.48	1083.88
1184.44	1086.88
1189.395	1078.88
1194.345	1066.88
1199.29	1056.88
1204.23	1067.88
1209.165	1072.88
1214.095	1073.88
1219.021	1089.88
1223.941	1092.88
1228.856	1090.88
1233.766	1111.88
1238.672	1089.88
1243.572	1097.88
1248.467	1093.88
1253.358	1069.88
1258.244	1062.88
1263.124	1037.88
1268	1042.88
1272.871	1019.88
1277.737	1016.88
1282.599	1023.88
1287.455	1010.88
1292.306	1007.88
1297.153	1024.88
1301.995	1034.88
1306.832	1032.88
1311.664	1043.88
1316.491	1049.88
1321.314	1027.88
1326.132	1023.88
1330.945	985.88
1335.753	978.88
1340.556	960.88
1345.354	944.88
1350.148	930.88
1354.937	910.88
1359.722	927.88
1364.501	938.88
1369.276	962.88
1374.046	976.88
1378.811	986.88
1383.572	977.88
1388.327	990.88
1393.079	969.88
1397.825	936.88
1402.567	927.88
1407.304	920.88
1412.036	917.88
1416.764	901.88
1421.487	906.88
1426.205	910.88
1430.919	905.88
1435.628	919.88
1440.333	928.88
1445.032	925.88
1449.727	930.88
1454.418	933.88
1459.104	933.88
1463.785	913.88
1468.462	917.88
1473.134	908.88
1477.802	896.88
1482.465	886.88
1487.123	884.88
1491.777	890.88
1496.426	902.88
1501.071	919.88
1505.711	926.88
1510.347	956.88
1514.978	954.88
1519.604	973.88
1524.226	989.88
1528.844	992.88
1533.457	992.88
1538.065	992.88
1542.669	988.88
1547.269	979.88
1551.864	985.88
1556.454	998.88
1561.041	1002.88
1565.622	1006.88
1570.199	1014.88
1574.772	1037.88
1579.34	1037.88
1583.904	1077.88
1588.464	1088.88
1593.019	1084.88
1597.569	1091.88
1602.115	1115.88
1606.657	1119.88
1611.195	1120.88
1615.728	1136.88
1620.256	1136.88
1624.78	1174.88
1629.3	1174.88
1633.816	1201.88
1638.327	1214.88
1642.834	1227.88
1647.336	1234.88
1651.834	1242.88
1656.328	1243.88
1660.817	1223.88
1665.302	1214.88
1669.783	1189.88
1674.259	1143.88
1678.732	1106.88
1683.199	1065.88
1687.663	1016.88
1692.122	967.88
1696.577	950.88
1701.028	935.88
1705.474	938.88
1709.917	926.88
1714.355	896.88
1718.788	862.88
1723.218	839.88
1727.643	820.88
1732.064	793.88
1736.481	775.88
1740.893	749.88
1745.301	732.88
1749.705	714.88
1754.105	689.88
1758.501	673.88
1762.893	665.88
1767.28	635.88
1771.663	650.88
1776.042	626.88
1780.417	622.88
1784.787	615.88
1789.154	637.88
1793.516	646.88
1797.874	653.88
1802.228	662.88
1806.578	644.88
1810.924	646.88
1815.266	649.88
1819.603	637.88
1823.937	618.88
1828.266	607.88
1832.591	598.88
1836.913	585.88
1841.23	569.88
1845.543	590.88
1849.852	591.88
1854.156	585.88
1858.457	576.88
1862.754	573.88
1867.047	581.88
1871.335	582.88
1875.62	584.88
1879.9	579.88
1884.177	569.88
1888.449	574.88
1892.718	576.88
1896.982	561.88
1901.243	578.88
1905.499	580.88
1909.752	562.88
1914	569.88
1918.245	581.88
1922.485	580.88
1926.722	582.88
1930.954	577.88
1935.183	593.88
1939.408	605.88
1943.628	605.88
1947.845	599.88
1952.058	600.88
1956.267	598.88
1960.472	599.88
1964.673	589.88
1968.87	583.88
1973.063	579.88
1977.252	580.88
1981.438	567.88
1985.619	559.88
1989.797	565.88
1993.971	571.88
1998.14	568.88
2002.306	553.88
2006.469	573.88
2010.627	576.88
2014.781	562.88
2018.932	570.88
2023.078	563.88
2027.221	566.88
2031.36	553.88
2035.495	557.88
2039.627	550.88
2043.754	539.88
2047.878	534.88
2051.998	532.88
2056.114	540.88
2060.226	527.88
2064.334	553.88
2068.439	556.88
2072.54	557.88
2076.637	560.88
2080.73	570.88
2084.82	580.88
2088.906	572.88
2092.988	574.88
2097.066	564.88
2101.14	563.88
2105.211	561.88
2109.278	555.88
2113.342	563.88
2117.401	556.88
2121.457	551.88
2125.509	556.88
2129.558	555.88
2133.602	538.88
2137.643	533.88
2141.681	544.88
2145.714	537.88
2149.744	533.88
2153.77	528.88
2157.793	526.88
2161.812	531.88
2165.827	506.88
2169.838	502.88
2173.846	493.88
2177.851	492.88
2181.851	479.88
2185.848	472.88
2189.841	471.88
2193.831	448.88
2197.817	457.88
2201.799	453.88
2205.778	456.88
2209.753	450.88
2213.725	452.88
2217.693	450.88
2221.657	451.88
2225.618	438.88
2229.575	448.88
2233.529	451.88
2237.479	441.88
2241.425	436.88
2245.368	423.88
2249.307	431.88
2253.243	407.88
2257.175	417.88
2261.104	406.88
2265.029	405.88
2268.95	396.88
2272.868	390.88
2276.783	391.88
2280.694	388.88
2284.601	381.88
2288.505	369.88
2292.405	373.88
2296.302	359.88
2300.195	355.88
2304.085	363.88
2307.971	354.88
2311.854	351.88
2315.734	341.88
2319.609	332.88
2323.482	318.88
2327.351	320.88
2331.216	322.88
2335.078	315.88
2338.937	309.88
2342.792	311.88
2346.643	309.88
2350.492	299.88
2354.336	315.88
2358.178	308.88
2362.015	308.88
2365.85	306.88
2369.681	306.88
2373.508	295.88
2377.333	310.88
2381.153	311.88
2384.971	299.88
2388.785	300.88
2392.595	294.88
2396.402	295.88
2400.206	290.88
2404.007	298.88
2407.804	288.88
2411.597	289.88
2415.388	282.88
2419.174	282.88
2422.958	272.88
2426.738	278.88
2430.515	280.88
2434.289	279.88
2438.059	274.88
2441.825	275.88
2445.589	271.88
2449.349	269.88
2453.106	264.88
2456.859	258.88
2460.61	260.88
2464.356	249.88
2468.1	256.88
2471.84	254.88
2475.577	245.88
2479.311	253.88
2483.041	255.88
2486.768	251.88
2490.492	255.88
2494.213	253.88
2497.93	248.88
2501.644	253.88
2505.355	250.88
2509.062	253.88
2512.766	249.88
2516.467	243.88
2520.165	244.88
2523.859	245.88
2527.551	236.88
2531.239	239.88
2534.923	236.88
2538.605	236.88
2542.283	249.88
2545.958	233.88
2549.63	234.88
2553.299	232.88
2556.964	237.88
2560.626	234.88
2564.285	228.88
2567.941	221.88
2571.594	213.88
2575.243	223.88
2578.89	222.88
2582.533	224.88
2586.173	219.88
2589.809	217.88
2593.443	223.88
2597.073	212.88
2600.701	212.88
2604.325	212.88
2607.946	211.88
2611.564	209.88
2615.178	211.88
2618.79	206.88
2622.398	214.88
2626.004	209.88
2629.606	199.88
2633.205	208.88
2636.801	204.88
2640.394	197.88
2643.983	203.88
2647.57	193.88
2651.153	187.88
2654.734	187.88
2658.311	185.88
2661.885	184.88
2665.456	183.88
2669.025	186.88
2672.589	184.88
2676.151	175.88
2679.71	182.88
2683.266	168.88
2686.819	172.88
2690.368	168.88
2693.915	169.88
2697.458	166.88
2700.999	162.88
2704.536	159.88
2708.071	154.88
2711.602	159.88
2715.13	160.88
2718.656	151.88
2722.178	158.88
2725.697	155.88
2729.214	157.88
2732.727	152.88
2736.237	153.88
2739.744	157.88
2743.249	154.88
2746.75	156.88
2750.248	160.88
2753.743	168.88
2757.236	159.88
2760.725	172.88
2764.211	172.88
2767.695	170.88
2771.175	171.88
2774.652	162.88
2778.127	163.88
2781.598	155.88
2785.067	158.88
2788.532	166.88
2791.995	163.88
2795.455	161.88
2798.911	166.88
2802.365	164.88
2805.816	164.88
2809.264	165.88
2812.709	167.88
2816.151	170.88
2819.59	162.88
2823.026	159.88
2826.46	163.88
2829.89	162.88
2833.318	159.88
2836.742	165.88
2840.164	170.88
2843.583	165.88
2846.999	177.88
2850.412	176.88
2853.822	181.88
2857.229	178.88
2860.634	186.88
2864.035	187.88
2867.434	184.88
2870.83	188.88
2874.223	194.88
2877.613	190.88
2881	190.88
2884.385	198.88
2887.766	196.88
2891.145	195.88
2894.521	197.88
2897.894	198.88
2901.264	201.88
2904.631	206.88
2907.996	200.88
2911.358	205.88
2914.717	209.88
2918.073	208.88
2921.426	210.88
2924.777	216.88
2928.124	218.88
2931.469	230.88
2934.811	228.88
2938.15	239.88
2941.487	243.88
2944.821	245.88
2948.152	255.88
2951.48	250.88
2954.805	249.88
2958.128	262.88
2961.447	267.88
2964.765	265.88
2968.079	265.88
2971.39	286.88
2974.699	288.88
2978.005	293.88
2981.308	313.88
2984.609	317.88
2987.907	328.88
2991.202	337.88
2994.494	354.88
2997.784	363.88
3001.07	364.88
3004.355	373.88
3007.636	398.88
3010.915	399.88
3014.191	415.88
3017.464	413.88
3020.734	420.88
3024.002	436.88
3027.267	433.88
3030.53	444.88
3033.789	451.88
3037.046	459.88
3040.301	470.88
3043.552	485.88
3046.801	489.88
3050.048	506.88
3053.291	519.88
3056.532	545.88
3059.771	553.88
3063.006	569.88
3066.239	582.88
3069.469	601.88
3072.697	621.88
3075.922	626.88
3079.144	645.88
3082.364	666.88
3085.581	686.88
3088.795	696.88
3092.007	716.88
3095.216	739.88
3098.423	738.88
3101.627	767.88
3104.828	778.88
3108.026	806.88
3111.222	811.88
3114.416	850.88
3117.607	849.88
3120.795	871.88
3123.98	908.88
3127.163	916.88
3130.344	942.88
3133.521	971.88
3136.696	988.88
3139.869	993.88
3143.039	1014.88
3146.206	1026.88
3149.371	1055.88
3152.533	1053.88
3155.693	1073.88
3158.85	1082.88
3162.005	1077.88
3165.157	1089.88
3168.306	1097.88
3171.453	1106.88
3174.597	1092.88
3177.739	1118.88
3180.878	1100.88
3184.014	1112.88
3187.149	1125.88
3190.28	1123.88
3193.409	1121.88
3196.536	1129.88
3199.659	1121.88
3202.781	1136.88
3205.9	1125.88
3209.016	1132.88
3212.13	1132.88
3215.241	1127.88
3218.35	1124.88
3221.456	1113.88
3224.56	1112.88
3227.661	1108.88
3230.76	1096.88
3233.856	1079.88
3236.95	1061.88
3240.041	1067.88
3243.13	1064.88
3246.216	1052.88
3249.3	1046.88
3252.382	1043.88
3255.46	1052.88
3258.537	1043.88
3261.611	1029.88
3264.682	1032.88
3267.751	1024.88
3270.818	1024.88
3273.882	1034.88
3276.943	1024.88
3280.002	1010.88
3283.059	1007.88
3286.113	981.88
3289.165	978.88
3292.214	944.88
3295.261	949.88
3298.306	932.88
3301.348	914.88
3304.387	904.88
3307.425	892.88
3310.459	878.88
3313.492	875.88
3316.521	848.88
3319.549	841.88
3322.574	838.88
3325.597	836.88
3328.617	828.88
3331.635	816.88
3334.65	817.88
3337.663	806.88
3340.674	810.88
3343.682	810.88
3346.688	800.88
3349.691	803.88
3352.692	792.88
3355.691	785.88
3358.687	782.88
3361.681	768.88
3364.673	761.88
3367.662	751.88
3370.649	727.88
3373.633	730.88
3376.615	726.88
3379.595	714.88
3382.572	699.88
3385.547	699.88
3388.52	690.88
3391.49	681.88
3394.458	668.88
3397.424	670.88
3400.387	650.88
3403.348	643.88
3406.307	630.88
3409.263	633.88
3412.217	627.88
3415.168	631.88
3418.118	616.88
3421.065	604.88
3424.009	603.88
3426.951	589.88
3429.891	576.88
3432.829	587.88
3435.764	564.88
3438.697	558.88
3441.628	538.88
3444.557	526.88
3447.483	516.88
3450.407	499.88
3453.328	477.88
3456.247	466.88
3459.164	451.88
3462.079	447.88
3464.991	430.88
3467.902	428.88
3470.809	410.88
3473.715	393.88
3476.618	392.88
3479.519	377.88
3482.418	364.88
3485.315	350.88
3488.209	341.88
3491.101	334.88
3493.99	330.88
3496.878	318.88
3499.763	305.88
3502.646	302.88
3505.527	289.88
3508.405	279.88
3511.281	268.88
3514.155	265.88
3517.027	250.88
3519.897	232.88
3522.764	221.88
3525.629	216.88
3528.492	203.88
3531.352	191.88
3534.211	182.88
3537.067	181.88
3539.921	159.88
3542.773	152.88
3545.622	144.88
3548.469	132.88
3551.315	125.88
3554.157	123.88
3556.998	111.88
3559.837	106.88
3562.673	103.88
3565.507	94.88
3568.339	89.88
3571.169	88.88
3573.996	83.88
3576.822	74.88
3579.645	69.88
3582.466	54.88
3585.285	52.88
3588.101	47.88
3590.916	41.88
3593.728	42.88
3596.538	34.88
3599.346	28.88
3602.152	32.88
3604.956	25.88
3607.757	17.88
3610.556	9.88
3613.354	7.88
3616.149	6.88
3618.942	-6.12
3621.732	-5.12
3624.521	-7.12
3627.307	-11.12
3630.092	-15.12
3632.874	-9.12
3635.654	-13.12
3638.432	-19.12
3641.208	-17.12
3643.982	-25.12
3646.753	-33.12
3649.523	-33.12
3652.29	-32.12
3655.055	-42.12
3657.818	-39.12
3660.579	-42.12
3663.338	-40.12
3666.095	-41.12
3668.849	-48.12
3671.602	-50.12
3674.352	-53.12
3677.101	-54.12
3679.847	-59.12
3682.591	-64.12
3685.333	-66.12
3688.073	-65.12
3690.811	-66.12
3693.547	-62.12
3696.281	-69.12
3699.013	-70.12
3701.742	-65.12
3704.47	-72.12
3707.195	-69.12
3709.919	-70.12
3712.64	-76.12
3715.359	-79.12
3718.076	-77.12
3720.792	-78.12
3723.505	-80.12
3726.216	-83.12
3728.925	-72.12
3731.632	-81.12
3734.336	-82.12
3737.039	-84.12
3739.74	-83.12
3742.439	-88.12
3745.136	-84.12
3747.83	-88.12
3750.523	-86.12
3753.213	-85.12
3755.902	-85.12
3758.589	-83.12
3761.273	-84.12
3763.956	-83.12
3766.636	-86.12
3769.315	-90.12
3771.991	-88.12
3774.665	-93.12
3777.338	-89.12
3780.008	-96.12
3782.677	-89.12
3785.343	-91.12
3788.007	-89.12
3790.67	-93.12
3793.33	-90.12
3795.989	-97.12
3798.645	-97.12
3801.299	-96.12
3803.952	-89.12
3806.602	-94.12
3809.251	-95.12
3811.897	-99.12
3814.542	-95.12
3817.184	-92.12
3819.825	-90.12
3822.463	-93.12
3825.1	-89.12
3827.735	-94.12
3830.367	-93.12
3832.998	-100.12
3835.627	-99.12
3838.253	-98.12
3840.878	-95.12
3843.501	-99.12
3846.122	-98.12
3848.741	-95.12
3851.358	-94.12
3853.973	-92.12
3856.586	-96.12
3859.197	-103.12
3861.806	-99.12
3864.414	-101.12
3867.019	-100.12
3869.622	-98.12
3872.224	-98.12
3874.823	-97.12
3877.421	-97.12
3880.016	-90.12
3882.61	-84.12
3885.202	-85.12
3887.792	-93.12
3890.38	-97.12
3892.966	-99.12
3895.55	-101.12
3898.132	-99.12
3900.713	-101.12
3903.291	-98.12
3905.868	-102.12
3908.442	-101.12
3911.015	-100.12
3913.586	-102.12
3916.155	-102.12
3918.722	-96.12
3921.287	-101.12
3923.85	-101.12
3926.411	-101.12
3928.971	-102.12
3931.528	-105.12
3934.084	-102.12
3936.638	-102.12
3939.19	-99.12
3941.74	-103.12
3944.288	-101.12
3946.834	-102.12
3949.378	-100.12
3951.921	-102.12
3954.462	-100.12
3957	-103.12
3959.537	-100.12
3962.072	-101.12
3964.606	-102.12
3967.137	-102.12
3969.667	-102.12
3972.194	-103.12
3974.72	-97.12
3977.244	-103.12
3979.766	-98.12
3982.286	-99.12
3984.805	-98.12
3987.321	-101.12
3989.836	-100.12
3992.349	-97.12
3994.86	-99.12
3997.369	-101.12
3999.877	-101.12
4002.382	-101.12
4004.886	-98.12
4007.388	-101.12
4009.888	-101.12
4012.386	-97.12
4014.883	-100.12
4017.377	-99.12
4019.87	-98.12
4022.361	-100.12
4024.85	-99.12
4027.338	-104.12
4029.823	-99.12
4032.307	-104.12
4034.789	-102.12
4037.269	-99.12
4039.747	-100.12
4042.224	-100.12
4044.699	-102.12
4047.172	-99.12
4049.643	-97.12
4052.112	-99.12
4054.58	-101.12
4057.046	-101.12
4059.51	-100.12
4061.972	-106.12
4064.432	-100.12
4066.891	-102.12
4069.348	-98.12
4071.803	-101.12
4074.256	-98.12
4076.708	-97.12
4079.158	-100.12
4081.606	-101.12
4084.052	-102.12
4086.497	-100.12
4088.939	-102.12
4091.38	-101.12
4093.819	-103.12
4096.257	-103.12
4098.693	-101.12
4101.127	-105.12
4103.559	-103.12
4105.989	-67.12
4108.418	-65.12
4110.845	-62.12
4113.27	-60.12
4115.694	-50.12
4118.115	-43.12
4120.535	-102.12
4122.954	-103.12
4125.37	-99.12
4127.785	-101.12
4130.198	-104.12
4132.609	-101.12
4135.019	-107.12
4137.427	-110.12
4139.833	-106.12
4142.237	-106.12
