Data from B_sub_water_10000CFU_B1_RamanShift_1.txt Node
Date: Thu Feb 23 12:18:23 IST 2017
User: aro
Spectrometer: QEPB0276
Trigger mode: 0
Integration Time (sec): 5.000000E0
Scans to average: 1
Electric dark correction enabled: true
Nonlinearity correction enabled: false
Boxcar width: 0
XAxis mode: Raman Shifts
Number of Pixels in Spectrum: 1044
>>>>>Begin Spectral Data<<<<<
160.701	-29.25
166.742	-1.25
172.777	84.75
178.805	348.75
184.826	986.75
190.841	2032.75
196.849	3272.75
202.85	4047.75
208.845	4217.75
214.833	4072.75
220.815	3891.75
226.789	3763.75
232.758	3664.75
238.719	3546.75
244.674	3387.75
250.623	3232.75
256.565	3077.75
262.5	2917.75
268.429	2774.75
274.351	2656.75
280.267	2539.75
286.176	2427.75
292.079	2335.75
297.975	2254.75
303.865	2192.75
309.748	2115.75
315.625	2044.75
321.495	2018.75
327.359	1982.75
333.217	1968.75
339.068	1914.75
344.912	1939.75
350.751	1935.75
356.583	1924.75
362.408	1915.75
368.227	1932.75
374.04	1934.75
379.847	1927.75
385.647	1944.75
391.44	1962.75
397.228	1961.75
403.009	1962.75
408.784	1971.75
414.553	1992.75
420.315	1992.75
426.071	1993.75
431.821	1993.75
437.565	2007.75
443.302	1993.75
449.033	1976.75
454.758	1971.75
460.477	1954.75
466.189	1926.75
471.896	1927.75
477.596	1908.75
483.29	1915.75
488.978	1893.75
494.66	1869.75
500.335	1839.75
506.005	1824.75
511.668	1769.75
517.325	1733.75
522.977	1687.75
528.622	1668.75
534.261	1648.75
539.894	1633.75
545.521	1612.75
551.141	1590.75
556.756	1580.75
562.365	1565.75
567.968	1554.75
573.565	1551.75
579.155	1529.75
584.74	1513.75
590.319	1513.75
595.892	1492.75
601.459	1488.75
607.02	1456.75
612.575	1449.75
618.124	1448.75
623.667	1428.75
629.204	1411.75
634.735	1381.75
640.261	1373.75
645.781	1366.75
651.294	1363.75
656.802	1344.75
662.304	1331.75
667.8	1339.75
673.29	1328.75
678.775	1322.75
684.254	1320.75
689.726	1303.75
695.193	1292.75
700.655	1279.75
706.11	1272.75
711.56	1258.75
717.004	1247.75
722.442	1242.75
727.874	1234.75
733.301	1215.75
738.722	1223.75
744.137	1192.75
749.547	1202.75
754.951	1198.75
760.349	1189.75
765.741	1192.75
771.128	1184.75
776.509	1181.75
781.885	1193.75
787.254	1184.75
792.618	1180.75
797.977	1154.75
803.33	1154.75
808.677	1142.75
814.019	1121.75
819.355	1105.75
824.686	1086.75
830.011	1066.75
835.33	1072.75
840.644	1050.75
845.952	1057.75
851.255	1032.75
856.552	1023.75
861.844	1020.75
867.13	1009.75
872.41	991.75
877.686	984.75
882.955	976.75
888.219	940.75
893.478	928.75
898.731	915.75
903.979	892.75
909.221	903.75
914.458	869.75
919.69	863.75
924.916	857.75
930.136	853.75
935.351	857.75
940.561	846.75
945.766	862.75
950.965	845.75
956.158	819.75
961.347	822.75
966.529	810.75
971.707	788.75
976.879	771.75
982.046	770.75
987.208	769.75
992.364	760.75
997.515	768.75
1002.66	766.75
1007.801	765.75
1012.936	775.75
1018.066	777.75
1023.19	777.75
1028.309	780.75
1033.423	769.75
1038.532	774.75
1043.636	757.75
1048.734	763.75
1053.827	743.75
1058.915	732.75
1063.998	729.75
1069.075	734.75
1074.147	733.75
1079.214	745.75
1084.276	745.75
1089.333	738.75
1094.385	740.75
1099.431	752.75
1104.472	746.75
1109.509	740.75
1114.54	735.75
1119.565	718.75
1124.586	705.75
1129.602	717.75
1134.613	690.75
1139.618	704.75
1144.619	699.75
1149.614	701.75
1154.604	695.75
1159.589	713.75
1164.57	718.75
1169.545	708.75
1174.515	697.75
1179.48	694.75
1184.44	701.75
1189.395	694.75
1194.345	698.75
1199.29	689.75
1204.23	685.75
1209.165	693.75
1214.095	698.75
1219.021	698.75
1223.941	705.75
1228.856	712.75
1233.766	711.75
1238.672	702.75
1243.572	728.75
1248.467	705.75
1253.358	697.75
1258.244	675.75
1263.124	672.75
1268	663.75
1272.871	646.75
1277.737	653.75
1282.599	648.75
1287.455	657.75
1292.306	650.75
1297.153	653.75
1301.995	662.75
1306.832	664.75
1311.664	662.75
1316.491	657.75
1321.314	649.75
1326.132	643.75
1330.945	637.75
1335.753	619.75
1340.556	612.75
1345.354	592.75
1350.148	592.75
1354.937	588.75
1359.722	586.75
1364.501	602.75
1369.276	605.75
1374.046	619.75
1378.811	627.75
1383.572	617.75
1388.327	611.75
1393.079	609.75
1397.825	595.75
1402.567	586.75
1407.304	579.75
1412.036	579.75
1416.764	565.75
1421.487	568.75
1426.205	573.75
1430.919	568.75
1435.628	576.75
1440.333	571.75
1445.032	570.75
1449.727	584.75
1454.418	570.75
1459.104	581.75
1463.785	586.75
1468.462	568.75
1473.134	564.75
1477.802	568.75
1482.465	550.75
1487.123	559.75
1491.777	559.75
1496.426	573.75
1501.071	584.75
1505.711	589.75
1510.347	586.75
1514.978	619.75
1519.604	623.75
1524.226	625.75
1528.844	628.75
1533.457	636.75
1538.065	636.75
1542.669	639.75
1547.269	633.75
1551.864	649.75
1556.454	653.75
1561.041	667.75
1565.622	655.75
1570.199	679.75
1574.772	687.75
1579.34	712.75
1583.904	722.75
1588.464	741.75
1593.019	753.75
1597.569	770.75
1602.115	787.75
1606.657	801.75
1611.195	809.75
1615.728	826.75
1620.256	852.75
1624.78	856.75
1629.3	874.75
1633.816	894.75
1638.327	916.75
1642.834	916.75
1647.336	929.75
1651.834	934.75
1656.328	920.75
1660.817	902.75
1665.302	899.75
1669.783	867.75
1674.259	848.75
1678.732	806.75
1683.199	757.75
1687.663	711.75
1692.122	680.75
1696.577	647.75
1701.028	623.75
1705.474	626.75
1709.917	600.75
1714.355	582.75
1718.788	574.75
1723.218	540.75
1727.643	515.75
1732.064	493.75
1736.481	465.75
1740.893	453.75
1745.301	433.75
1749.705	418.75
1754.105	394.75
1758.501	379.75
1762.893	372.75
1767.28	356.75
1771.663	347.75
1776.042	344.75
1780.417	340.75
1784.787	351.75
1789.154	342.75
1793.516	352.75
1797.874	350.75
1802.228	343.75
1806.578	347.75
1810.924	346.75
1815.266	341.75
1819.603	334.75
1823.937	321.75
1828.266	312.75
1832.591	310.75
1836.913	308.75
1841.23	301.75
1845.543	303.75
1849.852	297.75
1854.156	302.75
1858.457	307.75
1862.754	292.75
1867.047	292.75
1871.335	299.75
1875.62	289.75
1879.9	292.75
1884.177	290.75
1888.449	297.75
1892.718	295.75
1896.982	296.75
1901.243	287.75
1905.499	296.75
1909.752	298.75
1914	295.75
1918.245	291.75
1922.485	294.75
1926.722	301.75
1930.954	306.75
1935.183	303.75
1939.408	316.75
1943.628	315.75
1947.845	310.75
1952.058	312.75
1956.267	311.75
1960.472	311.75
1964.673	299.75
1968.87	312.75
1973.063	306.75
1977.252	303.75
1981.438	300.75
1985.619	302.75
1989.797	306.75
1993.971	302.75
1998.14	298.75
2002.306	305.75
2006.469	296.75
2010.627	305.75
2014.781	310.75
2018.932	305.75
2023.078	307.75
2027.221	305.75
2031.36	307.75
2035.495	305.75
2039.627	298.75
2043.754	297.75
2047.878	283.75
2051.998	308.75
2056.114	305.75
2060.226	299.75
2064.334	309.75
2068.439	306.75
2072.54	310.75
2076.637	319.75
2080.73	332.75
2084.82	321.75
2088.906	319.75
2092.988	321.75
2097.066	326.75
2101.14	318.75
2105.211	321.75
2109.278	323.75
2113.342	321.75
2117.401	317.75
2121.457	323.75
2125.509	315.75
2129.558	308.75
2133.602	311.75
2137.643	302.75
2141.681	313.75
2145.714	305.75
2149.744	297.75
2153.77	301.75
2157.793	295.75
2161.812	295.75
2165.827	287.75
2169.838	280.75
2173.846	267.75
2177.851	260.75
2181.851	254.75
2185.848	262.75
2189.841	255.75
2193.831	253.75
2197.817	254.75
2201.799	253.75
2205.778	245.75
2209.753	237.75
2213.725	243.75
2217.693	249.75
2221.657	247.75
2225.618	224.75
2229.575	231.75
2233.529	235.75
2237.479	231.75
2241.425	220.75
2245.368	214.75
2249.307	220.75
2253.243	209.75
2257.175	212.75
2261.104	203.75
2265.029	199.75
2268.95	192.75
2272.868	192.75
2276.783	189.75
2280.694	185.75
2284.601	180.75
2288.505	180.75
2292.405	181.75
2296.302	172.75
2300.195	166.75
2304.085	164.75
2307.971	163.75
2311.854	165.75
2315.734	147.75
2319.609	157.75
2323.482	146.75
2327.351	149.75
2331.216	143.75
2335.078	140.75
2338.937	139.75
2342.792	136.75
2346.643	134.75
2350.492	133.75
2354.336	136.75
2358.178	133.75
2362.015	133.75
2365.85	132.75
2369.681	134.75
2373.508	124.75
2377.333	132.75
2381.153	125.75
2384.971	133.75
2388.785	134.75
2392.595	127.75
2396.402	127.75
2400.206	115.75
2404.007	120.75
2407.804	110.75
2411.597	117.75
2415.388	113.75
2419.174	117.75
2422.958	112.75
2426.738	110.75
2430.515	116.75
2434.289	117.75
2438.059	111.75
2441.825	109.75
2445.589	111.75
2449.349	100.75
2453.106	105.75
2456.859	103.75
2460.61	99.75
2464.356	95.75
2468.1	97.75
2471.84	96.75
2475.577	93.75
2479.311	102.75
2483.041	93.75
2486.768	96.75
2490.492	92.75
2494.213	90.75
2497.93	92.75
2501.644	91.75
2505.355	86.75
2509.062	89.75
2512.766	86.75
2516.467	88.75
2520.165	93.75
2523.859	96.75
2527.551	92.75
2531.239	86.75
2534.923	82.75
2538.605	79.75
2542.283	88.75
2545.958	90.75
2549.63	77.75
2553.299	75.75
2556.964	79.75
2560.626	82.75
2564.285	80.75
2567.941	80.75
2571.594	81.75
2575.243	75.75
2578.89	74.75
2582.533	78.75
2586.173	77.75
2589.809	72.75
2593.443	72.75
2597.073	69.75
2600.701	79.75
2604.325	75.75
2607.946	72.75
2611.564	63.75
2615.178	72.75
2618.79	69.75
2622.398	73.75
2626.004	72.75
2629.606	68.75
2633.205	69.75
2636.801	71.75
2640.394	69.75
2643.983	66.75
2647.57	63.75
2651.153	61.75
2654.734	58.75
2658.311	55.75
2661.885	56.75
2665.456	56.75
2669.025	50.75
2672.589	56.75
2676.151	54.75
2679.71	56.75
2683.266	54.75
2686.819	49.75
2690.368	46.75
2693.915	44.75
2697.458	47.75
2700.999	39.75
2704.536	45.75
2708.071	38.75
2711.602	40.75
2715.13	44.75
2718.656	40.75
2722.178	47.75
2725.697	42.75
2729.214	47.75
2732.727	42.75
2736.237	49.75
2739.744	47.75
2743.249	41.75
2746.75	46.75
2750.248	50.75
2753.743	49.75
2757.236	50.75
2760.725	51.75
2764.211	56.75
2767.695	60.75
2771.175	54.75
2774.652	56.75
2778.127	53.75
2781.598	62.75
2785.067	56.75
2788.532	59.75
2791.995	62.75
2795.455	58.75
2798.911	67.75
2802.365	61.75
2805.816	61.75
2809.264	63.75
2812.709	63.75
2816.151	64.75
2819.59	64.75
2823.026	69.75
2826.46	67.75
2829.89	74.75
2833.318	76.75
2836.742	76.75
2840.164	76.75
2843.583	80.75
2846.999	77.75
2850.412	77.75
2853.822	86.75
2857.229	80.75
2860.634	91.75
2864.035	93.75
2867.434	98.75
2870.83	104.75
2874.223	100.75
2877.613	106.75
2881	113.75
2884.385	107.75
2887.766	114.75
2891.145	117.75
2894.521	106.75
2897.894	121.75
2901.264	122.75
2904.631	115.75
2907.996	130.75
2911.358	132.75
2914.717	127.75
2918.073	136.75
2921.426	139.75
2924.777	141.75
2928.124	147.75
2931.469	156.75
2934.811	158.75
2938.15	163.75
2941.487	168.75
2944.821	189.75
2948.152	183.75
2951.48	191.75
2954.805	191.75
2958.128	198.75
2961.447	204.75
2964.765	215.75
2968.079	219.75
2971.39	224.75
2974.699	227.75
2978.005	234.75
2981.308	249.75
2984.609	267.75
2987.907	275.75
2991.202	286.75
2994.494	298.75
2997.784	306.75
3001.07	320.75
3004.355	328.75
3007.636	332.75
3010.915	354.75
3014.191	359.75
3017.464	375.75
3020.734	367.75
3024.002	383.75
3027.267	392.75
3030.53	405.75
3033.789	410.75
3037.046	425.75
3040.301	424.75
3043.552	452.75
3046.801	453.75
3050.048	474.75
3053.291	490.75
3056.532	509.75
3059.771	516.75
3063.006	530.75
3066.239	553.75
3069.469	567.75
3072.697	589.75
3075.922	611.75
3079.144	626.75
3082.364	654.75
3085.581	668.75
3088.795	678.75
3092.007	692.75
3095.216	719.75
3098.423	727.75
3101.627	752.75
3104.828	764.75
3108.026	792.75
3111.222	807.75
3114.416	846.75
3117.607	853.75
3120.795	880.75
3123.98	885.75
3127.163	908.75
3130.344	934.75
3133.521	951.75
3136.696	981.75
3139.869	1004.75
3143.039	1035.75
3146.206	1045.75
3149.371	1054.75
3152.533	1074.75
3155.693	1082.75
3158.85	1092.75
3162.005	1091.75
3165.157	1102.75
3168.306	1095.75
3171.453	1097.75
3174.597	1113.75
3177.739	1107.75
3180.878	1116.75
3184.014	1125.75
3187.149	1146.75
3190.28	1137.75
3193.409	1142.75
3196.536	1131.75
3199.659	1129.75
3202.781	1153.75
3205.9	1161.75
3209.016	1158.75
3212.13	1152.75
3215.241	1155.75
3218.35	1153.75
3221.456	1142.75
3224.56	1124.75
3227.661	1109.75
3230.76	1112.75
3233.856	1101.75
3236.95	1099.75
3240.041	1070.75
3243.13	1068.75
3246.216	1074.75
3249.3	1060.75
3252.382	1075.75
3255.46	1066.75
3258.537	1063.75
3261.611	1040.75
3264.682	1053.75
3267.751	1048.75
3270.818	1036.75
3273.882	1029.75
3276.943	1047.75
3280.002	1021.75
3283.059	1023.75
3286.113	1010.75
3289.165	995.75
3292.214	971.75
3295.261	972.75
3298.306	951.75
3301.348	927.75
3304.387	919.75
3307.425	890.75
3310.459	899.75
3313.492	892.75
3316.521	871.75
3319.549	846.75
3322.574	834.75
3325.597	839.75
3328.617	836.75
3331.635	830.75
3334.65	819.75
3337.663	811.75
3340.674	829.75
3343.682	813.75
3346.688	820.75
3349.691	814.75
3352.692	805.75
3355.691	805.75
3358.687	793.75
3361.681	789.75
3364.673	779.75
3367.662	753.75
3370.649	748.75
3373.633	740.75
3376.615	727.75
3379.595	736.75
3382.572	724.75
3385.547	703.75
3388.52	693.75
3391.49	692.75
3394.458	683.75
3397.424	678.75
3400.387	677.75
3403.348	656.75
3406.307	642.75
3409.263	654.75
3412.217	639.75
3415.168	643.75
3418.118	636.75
3421.065	614.75
3424.009	615.75
3426.951	605.75
3429.891	597.75
3432.829	589.75
3435.764	562.75
3438.697	566.75
3441.628	549.75
3444.557	534.75
3447.483	523.75
3450.407	501.75
3453.328	491.75
3456.247	473.75
3459.164	470.75
3462.079	454.75
3464.991	442.75
3467.902	431.75
3470.809	413.75
3473.715	406.75
3476.618	396.75
3479.519	378.75
3482.418	375.75
3485.315	368.75
3488.209	352.75
3491.101	344.75
3493.99	333.75
3496.878	320.75
3499.763	319.75
3502.646	307.75
3505.527	306.75
3508.405	288.75
3511.281	272.75
3514.155	265.75
3517.027	250.75
3519.897	247.75
3522.764	231.75
3525.629	220.75
3528.492	203.75
3531.352	197.75
3534.211	183.75
3537.067	178.75
3539.921	160.75
3542.773	157.75
3545.622	155.75
3548.469	140.75
3551.315	128.75
3554.157	127.75
3556.998	116.75
3559.837	111.75
3562.673	107.75
3565.507	93.75
3568.339	90.75
3571.169	88.75
3573.996	78.75
3576.822	79.75
3579.645	70.75
3582.466	61.75
3585.285	61.75
3588.101	55.75
3590.916	47.75
3593.728	40.75
3596.538	45.75
3599.346	38.75
3602.152	24.75
3604.956	26.75
3607.757	20.75
3610.556	14.75
3613.354	11.75
3616.149	5.75
3618.942	-1.25
3621.732	-2.25
3624.521	0.75
3627.307	-5.25
3630.092	-6.25
3632.874	-7.25
3635.654	-11.25
3638.432	-15.25
3641.208	-17.25
3643.982	-21.25
3646.753	-27.25
3649.523	-24.25
3652.29	-29.25
3655.055	-36.25
3657.818	-40.25
3660.579	-43.25
3663.338	-39.25
3666.095	-37.25
3668.849	-46.25
3671.602	-46.25
3674.352	-49.25
3677.101	-49.25
3679.847	-52.25
3682.591	-59.25
3685.333	-62.25
3688.073	-62.25
3690.811	-64.25
3693.547	-63.25
3696.281	-66.25
3699.013	-68.25
3701.742	-66.25
3704.47	-67.25
3707.195	-64.25
3709.919	-66.25
3712.64	-70.25
3715.359	-73.25
3718.076	-71.25
3720.792	-76.25
3723.505	-74.25
3726.216	-78.25
3728.925	-76.25
3731.632	-78.25
3734.336	-81.25
3737.039	-78.25
3739.74	-77.25
3742.439	-84.25
3745.136	-80.25
3747.83	-82.25
3750.523	-82.25
3753.213	-79.25
3755.902	-80.25
3758.589	-79.25
3761.273	-85.25
3763.956	-82.25
3766.636	-86.25
3769.315	-90.25
3771.991	-88.25
3774.665	-87.25
3777.338	-87.25
3780.008	-87.25
3782.677	-84.25
3785.343	-84.25
3788.007	-83.25
3790.67	-88.25
3793.33	-85.25
3795.989	-92.25
3798.645	-92.25
3801.299	-91.25
3803.952	-88.25
3806.602	-91.25
3809.251	-90.25
3811.897	-92.25
3814.542	-88.25
3817.184	-90.25
3819.825	-86.25
3822.463	-90.25
3825.1	-88.25
3827.735	-90.25
3830.367	-92.25
3832.998	-95.25
3835.627	-91.25
3838.253	-92.25
3840.878	-92.25
3843.501	-93.25
3846.122	-94.25
3848.741	-89.25
3851.358	-90.25
3853.973	-89.25
3856.586	-93.25
3859.197	-96.25
3861.806	-94.25
3864.414	-94.25
3867.019	-97.25
3869.622	-96.25
3872.224	-92.25
3874.823	-92.25
3877.421	-91.25
3880.016	-85.25
3882.61	-81.25
3885.202	-80.25
3887.792	-86.25
3890.38	-90.25
3892.966	-93.25
3895.55	-92.25
3898.132	-94.25
3900.713	-95.25
3903.291	-96.25
3905.868	-92.25
3908.442	-94.25
3911.015	-96.25
3913.586	-98.25
3916.155	-98.25
3918.722	-92.25
3921.287	-94.25
3923.85	-94.25
3926.411	-93.25
3928.971	-94.25
3931.528	-96.25
3934.084	-94.25
3936.638	-99.25
3939.19	-96.25
3941.74	-98.25
3944.288	-97.25
3946.834	-100.25
3949.378	-96.25
3951.921	-96.25
3954.462	-94.25
3957	-97.25
3959.537	-96.25
3962.072	-96.25
3964.606	-93.25
3967.137	-94.25
3969.667	-97.25
3972.194	-96.25
3974.72	-96.25
3977.244	-102.25
3979.766	-96.25
3982.286	-97.25
3984.805	-95.25
3987.321	-92.25
3989.836	-94.25
3992.349	-90.25
3994.86	-88.25
3997.369	-89.25
3999.877	-92.25
4002.382	-92.25
4004.886	-95.25
4007.388	-96.25
4009.888	-96.25
4012.386	-95.25
4014.883	-97.25
4017.377	-94.25
4019.87	-90.25
4022.361	-92.25
4024.85	-92.25
4027.338	-94.25
4029.823	-91.25
4032.307	-93.25
4034.789	-99.25
4037.269	-95.25
4039.747	-97.25
4042.224	-97.25
4044.699	-99.25
4047.172	-93.25
4049.643	-94.25
4052.112	-94.25
4054.58	-95.25
4057.046	-98.25
4059.51	-95.25
4061.972	-98.25
4064.432	-96.25
4066.891	-96.25
4069.348	-94.25
4071.803	-97.25
4074.256	-97.25
4076.708	-95.25
4079.158	-96.25
4081.606	-100.25
4084.052	-96.25
4086.497	-96.25
4088.939	-96.25
4091.38	-96.25
4093.819	-96.25
4096.257	-99.25
4098.693	-95.25
4101.127	-96.25
4103.559	-96.25
4105.989	-59.25
4108.418	-58.25
4110.845	-56.25
4113.27	-55.25
4115.694	-48.25
4118.115	-45.25
4120.535	-95.25
4122.954	-93.25
4125.37	-93.25
4127.785	-95.25
4130.198	-95.25
4132.609	-95.25
4135.019	-101.25
4137.427	-102.25
4139.833	-98.25
4142.237	-101.25
