Data from 0CFU3_RamanShift_1.txt Node
Date: Tue Jan 31 14:14:22 IST 2017
User: aro
Spectrometer: QEPB0276
Trigger mode: 0
Integration Time (sec): 5.000000E0
Scans to average: 1
Electric dark correction enabled: true
Nonlinearity correction enabled: false
Boxcar width: 0
XAxis mode: Raman Shifts
Number of Pixels in Spectrum: 1044
>>>>>Begin Spectral Data<<<<<
160.701	-36.5
166.742	-1.5
172.777	92.5
178.805	395.5
184.826	1087.5
190.841	2229.5
196.849	3456.5
202.85	4259.5
208.845	4415.5
214.833	4278.5
220.815	4119.5
226.789	3976.5
232.758	3900.5
238.719	3758.5
244.674	3625.5
250.623	3470.5
256.565	3304.5
262.5	3165.5
268.429	3034.5
274.351	2912.5
280.267	2784.5
286.176	2684.5
292.079	2571.5
297.975	2488.5
303.865	2412.5
309.748	2347.5
315.625	2303.5
321.495	2274.5
327.359	2231.5
333.217	2211.5
339.068	2182.5
344.912	2167.5
350.751	2152.5
356.583	2163.5
362.408	2157.5
368.227	2160.5
374.04	2159.5
379.847	2189.5
385.647	2212.5
391.44	2192.5
397.228	2222.5
403.009	2220.5
408.784	2228.5
414.553	2239.5
420.315	2234.5
426.071	2244.5
431.821	2253.5
437.565	2220.5
443.302	2223.5
449.033	2232.5
454.758	2223.5
460.477	2212.5
466.189	2199.5
471.896	2179.5
477.596	2183.5
483.29	2171.5
488.978	2160.5
494.66	2138.5
500.335	2119.5
506.005	2079.5
511.668	2041.5
517.325	2026.5
522.977	1992.5
528.622	1957.5
534.261	1934.5
539.894	1907.5
545.521	1890.5
551.141	1872.5
556.756	1863.5
562.365	1861.5
567.968	1853.5
573.565	1847.5
579.155	1820.5
584.74	1814.5
590.319	1792.5
595.892	1810.5
601.459	1780.5
607.02	1757.5
612.575	1751.5
618.124	1724.5
623.667	1729.5
629.204	1723.5
634.735	1697.5
640.261	1674.5
645.781	1666.5
651.294	1665.5
656.802	1627.5
662.304	1634.5
667.8	1626.5
673.29	1637.5
678.775	1618.5
684.254	1623.5
689.726	1607.5
695.193	1584.5
700.655	1594.5
706.11	1592.5
711.56	1576.5
717.004	1569.5
722.442	1553.5
727.874	1542.5
733.301	1534.5
738.722	1527.5
744.137	1516.5
749.547	1503.5
754.951	1496.5
760.349	1514.5
765.741	1507.5
771.128	1521.5
776.509	1517.5
781.885	1494.5
787.254	1499.5
792.618	1520.5
797.977	1494.5
803.33	1488.5
808.677	1484.5
814.019	1461.5
819.355	1445.5
824.686	1431.5
830.011	1419.5
835.33	1415.5
840.644	1407.5
845.952	1391.5
851.255	1382.5
856.552	1375.5
861.844	1371.5
867.13	1363.5
872.41	1360.5
877.686	1359.5
882.955	1332.5
888.219	1330.5
893.478	1311.5
898.731	1277.5
903.979	1253.5
909.221	1240.5
914.458	1228.5
919.69	1215.5
924.916	1209.5
930.136	1208.5
935.351	1226.5
940.561	1224.5
945.766	1212.5
950.965	1214.5
956.158	1196.5
961.347	1187.5
966.529	1167.5
971.707	1158.5
976.879	1163.5
982.046	1129.5
987.208	1125.5
992.364	1114.5
997.515	1146.5
1002.66	1129.5
1007.801	1137.5
1012.936	1152.5
1018.066	1159.5
1023.19	1154.5
1028.309	1180.5
1033.423	1163.5
1038.532	1166.5
1043.636	1170.5
1048.734	1149.5
1053.827	1133.5
1058.915	1120.5
1063.998	1139.5
1069.075	1113.5
1074.147	1113.5
1079.214	1124.5
1084.276	1129.5
1089.333	1136.5
1094.385	1127.5
1099.431	1154.5
1104.472	1159.5
1109.509	1139.5
1114.54	1128.5
1119.565	1123.5
1124.586	1126.5
1129.602	1101.5
1134.613	1079.5
1139.618	1086.5
1144.619	1085.5
1149.614	1077.5
1154.604	1092.5
1159.589	1106.5
1164.57	1097.5
1169.545	1107.5
1174.515	1117.5
1179.48	1124.5
1184.44	1107.5
1189.395	1106.5
1194.345	1094.5
1199.29	1098.5
1204.23	1102.5
1209.165	1092.5
1214.095	1096.5
1219.021	1102.5
1223.941	1113.5
1228.856	1116.5
1233.766	1120.5
1238.672	1117.5
1243.572	1122.5
1248.467	1120.5
1253.358	1115.5
1258.244	1119.5
1263.124	1079.5
1268	1069.5
1272.871	1057.5
1277.737	1024.5
1282.599	1037.5
1287.455	1046.5
1292.306	1039.5
1297.153	1051.5
1301.995	1060.5
1306.832	1052.5
1311.664	1056.5
1316.491	1075.5
1321.314	1078.5
1326.132	1086.5
1330.945	1064.5
1335.753	1048.5
1340.556	1035.5
1345.354	1034.5
1350.148	1016.5
1354.937	1008.5
1359.722	1006.5
1364.501	983.5
1369.276	989.5
1374.046	965.5
1378.811	962.5
1383.572	976.5
1388.327	973.5
1393.079	970.5
1397.825	960.5
1402.567	956.5
1407.304	939.5
1412.036	942.5
1416.764	937.5
1421.487	943.5
1426.205	943.5
1430.919	962.5
1435.628	951.5
1440.333	974.5
1445.032	976.5
1449.727	987.5
1454.418	980.5
1459.104	1005.5
1463.785	977.5
1468.462	992.5
1473.134	979.5
1477.802	982.5
1482.465	966.5
1487.123	959.5
1491.777	969.5
1496.426	960.5
1501.071	960.5
1505.711	976.5
1510.347	1004.5
1514.978	989.5
1519.604	1003.5
1524.226	1012.5
1528.844	1018.5
1533.457	1006.5
1538.065	1036.5
1542.669	1017.5
1547.269	993.5
1551.864	1024.5
1556.454	1015.5
1561.041	1036.5
1565.622	1042.5
1570.199	1028.5
1574.772	1066.5
1579.34	1084.5
1583.904	1113.5
1588.464	1125.5
1593.019	1135.5
1597.569	1154.5
1602.115	1170.5
1606.657	1178.5
1611.195	1188.5
1615.728	1219.5
1620.256	1231.5
1624.78	1245.5
1629.3	1233.5
1633.816	1262.5
1638.327	1293.5
1642.834	1285.5
1647.336	1315.5
1651.834	1306.5
1656.328	1312.5
1660.817	1309.5
1665.302	1299.5
1669.783	1264.5
1674.259	1233.5
1678.732	1211.5
1683.199	1159.5
1687.663	1133.5
1692.122	1076.5
1696.577	1041.5
1701.028	993.5
1705.474	950.5
1709.917	904.5
1714.355	887.5
1718.788	865.5
1723.218	874.5
1727.643	844.5
1732.064	827.5
1736.481	809.5
1740.893	800.5
1745.301	784.5
1749.705	742.5
1754.105	727.5
1758.501	710.5
1762.893	696.5
1767.28	682.5
1771.663	688.5
1776.042	678.5
1780.417	689.5
1784.787	688.5
1789.154	685.5
1793.516	685.5
1797.874	680.5
1802.228	683.5
1806.578	667.5
1810.924	656.5
1815.266	642.5
1819.603	637.5
1823.937	634.5
1828.266	634.5
1832.591	642.5
1836.913	622.5
1841.23	617.5
1845.543	620.5
1849.852	608.5
1854.156	621.5
1858.457	633.5
1862.754	624.5
1867.047	622.5
1871.335	624.5
1875.62	642.5
1879.9	632.5
1884.177	636.5
1888.449	644.5
1892.718	636.5
1896.982	625.5
1901.243	642.5
1905.499	630.5
1909.752	624.5
1914	622.5
1918.245	622.5
1922.485	623.5
1926.722	642.5
1930.954	632.5
1935.183	641.5
1939.408	641.5
1943.628	631.5
1947.845	636.5
1952.058	632.5
1956.267	636.5
1960.472	629.5
1964.673	617.5
1968.87	614.5
1973.063	601.5
1977.252	590.5
1981.438	600.5
1985.619	602.5
1989.797	586.5
1993.971	586.5
1998.14	593.5
2002.306	589.5
2006.469	604.5
2010.627	602.5
2014.781	611.5
2018.932	614.5
2023.078	611.5
2027.221	617.5
2031.36	601.5
2035.495	602.5
2039.627	595.5
2043.754	600.5
2047.878	591.5
2051.998	585.5
2056.114	584.5
2060.226	586.5
2064.334	591.5
2068.439	607.5
2072.54	602.5
2076.637	606.5
2080.73	597.5
2084.82	606.5
2088.906	609.5
2092.988	600.5
2097.066	612.5
2101.14	612.5
2105.211	606.5
2109.278	615.5
2113.342	600.5
2117.401	590.5
2121.457	585.5
2125.509	580.5
2129.558	584.5
2133.602	574.5
2137.643	563.5
2141.681	572.5
2145.714	582.5
2149.744	564.5
2153.77	569.5
2157.793	569.5
2161.812	557.5
2165.827	555.5
2169.838	555.5
2173.846	530.5
2177.851	522.5
2181.851	514.5
2185.848	515.5
2189.841	513.5
2193.831	501.5
2197.817	495.5
2201.799	499.5
2205.778	490.5
2209.753	493.5
2213.725	498.5
2217.693	494.5
2221.657	502.5
2225.618	485.5
2229.575	488.5
2233.529	472.5
2237.479	485.5
2241.425	478.5
2245.368	468.5
2249.307	463.5
2253.243	462.5
2257.175	448.5
2261.104	444.5
2265.029	435.5
2268.95	431.5
2272.868	411.5
2276.783	420.5
2280.694	405.5
2284.601	408.5
2288.505	414.5
2292.405	403.5
2296.302	397.5
2300.195	392.5
2304.085	385.5
2307.971	379.5
2311.854	375.5
2315.734	370.5
2319.609	357.5
2323.482	347.5
2327.351	354.5
2331.216	360.5
2335.078	357.5
2338.937	338.5
2342.792	338.5
2346.643	337.5
2350.492	339.5
2354.336	332.5
2358.178	334.5
2362.015	328.5
2365.85	344.5
2369.681	338.5
2373.508	344.5
2377.333	341.5
2381.153	338.5
2384.971	344.5
2388.785	340.5
2392.595	338.5
2396.402	339.5
2400.206	326.5
2404.007	334.5
2407.804	332.5
2411.597	322.5
2415.388	323.5
2419.174	325.5
2422.958	321.5
2426.738	325.5
2430.515	317.5
2434.289	308.5
2438.059	303.5
2441.825	316.5
2445.589	316.5
2449.349	317.5
2453.106	301.5
2456.859	305.5
2460.61	303.5
2464.356	312.5
2468.1	291.5
2471.84	299.5
2475.577	284.5
2479.311	297.5
2483.041	293.5
2486.768	298.5
2490.492	289.5
2494.213	294.5
2497.93	290.5
2501.644	291.5
2505.355	289.5
2509.062	293.5
2512.766	286.5
2516.467	300.5
2520.165	284.5
2523.859	286.5
2527.551	288.5
2531.239	276.5
2534.923	285.5
2538.605	279.5
2542.283	283.5
2545.958	275.5
2549.63	270.5
2553.299	269.5
2556.964	267.5
2560.626	259.5
2564.285	276.5
2567.941	265.5
2571.594	251.5
2575.243	264.5
2578.89	255.5
2582.533	261.5
2586.173	252.5
2589.809	252.5
2593.443	253.5
2597.073	252.5
2600.701	252.5
2604.325	246.5
2607.946	243.5
2611.564	239.5
2615.178	243.5
2618.79	240.5
2622.398	235.5
2626.004	233.5
2629.606	235.5
2633.205	237.5
2636.801	223.5
2640.394	224.5
2643.983	231.5
2647.57	226.5
2651.153	226.5
2654.734	222.5
2658.311	222.5
2661.885	214.5
2665.456	215.5
2669.025	213.5
2672.589	220.5
2676.151	206.5
2679.71	198.5
2683.266	212.5
2686.819	211.5
2690.368	203.5
2693.915	197.5
2697.458	203.5
2700.999	199.5
2704.536	190.5
2708.071	194.5
2711.602	191.5
2715.13	192.5
2718.656	188.5
2722.178	188.5
2725.697	189.5
2729.214	190.5
2732.727	194.5
2736.237	191.5
2739.744	201.5
2743.249	200.5
2746.75	202.5
2750.248	198.5
2753.743	192.5
2757.236	189.5
2760.725	188.5
2764.211	191.5
2767.695	191.5
2771.175	177.5
2774.652	182.5
2778.127	196.5
2781.598	187.5
2785.067	182.5
2788.532	186.5
2791.995	193.5
2795.455	184.5
2798.911	185.5
2802.365	183.5
2805.816	191.5
2809.264	190.5
2812.709	195.5
2816.151	191.5
2819.59	198.5
2823.026	188.5
2826.46	197.5
2829.89	201.5
2833.318	205.5
2836.742	198.5
2840.164	206.5
2843.583	206.5
2846.999	205.5
2850.412	204.5
2853.822	204.5
2857.229	214.5
2860.634	214.5
2864.035	216.5
2867.434	228.5
2870.83	219.5
2874.223	235.5
2877.613	228.5
2881	238.5
2884.385	237.5
2887.766	233.5
2891.145	238.5
2894.521	234.5
2897.894	233.5
2901.264	236.5
2904.631	236.5
2907.996	243.5
2911.358	241.5
2914.717	244.5
2918.073	242.5
2921.426	257.5
2924.777	262.5
2928.124	254.5
2931.469	258.5
2934.811	269.5
2938.15	276.5
2941.487	282.5
2944.821	290.5
2948.152	291.5
2951.48	306.5
2954.805	304.5
2958.128	310.5
2961.447	315.5
2964.765	320.5
2968.079	312.5
2971.39	337.5
2974.699	346.5
2978.005	344.5
2981.308	359.5
2984.609	367.5
2987.907	375.5
2991.202	382.5
2994.494	404.5
2997.784	405.5
3001.07	414.5
3004.355	433.5
3007.636	434.5
3010.915	457.5
3014.191	475.5
3017.464	473.5
3020.734	486.5
3024.002	489.5
3027.267	502.5
3030.53	495.5
3033.789	514.5
3037.046	528.5
3040.301	537.5
3043.552	542.5
3046.801	555.5
3050.048	573.5
3053.291	593.5
3056.532	612.5
3059.771	634.5
3063.006	648.5
3066.239	671.5
3069.469	687.5
3072.697	709.5
3075.922	723.5
3079.144	749.5
3082.364	756.5
3085.581	789.5
3088.795	801.5
3092.007	828.5
3095.216	849.5
3098.423	866.5
3101.627	891.5
3104.828	903.5
3108.026	931.5
3111.222	950.5
3114.416	965.5
3117.607	999.5
3120.795	997.5
3123.98	1024.5
3127.163	1053.5
3130.344	1084.5
3133.521	1112.5
3136.696	1135.5
3139.869	1159.5
3143.039	1178.5
3146.206	1201.5
3149.371	1200.5
3152.533	1228.5
3155.693	1236.5
3158.85	1250.5
3162.005	1252.5
3165.157	1250.5
3168.306	1277.5
3171.453	1280.5
3174.597	1273.5
3177.739	1284.5
3180.878	1297.5
3184.014	1313.5
3187.149	1286.5
3190.28	1294.5
3193.409	1308.5
3196.536	1300.5
3199.659	1313.5
3202.781	1323.5
3205.9	1323.5
3209.016	1310.5
3212.13	1332.5
3215.241	1301.5
3218.35	1316.5
3221.456	1305.5
3224.56	1299.5
3227.661	1299.5
3230.76	1267.5
3233.856	1271.5
3236.95	1268.5
3240.041	1256.5
3243.13	1217.5
3246.216	1224.5
3249.3	1218.5
3252.382	1192.5
3255.46	1189.5
3258.537	1197.5
3261.611	1178.5
3264.682	1201.5
3267.751	1173.5
3270.818	1168.5
3273.882	1153.5
3276.943	1154.5
3280.002	1153.5
3283.059	1145.5
3286.113	1140.5
3289.165	1113.5
3292.214	1089.5
3295.261	1074.5
3298.306	1069.5
3301.348	1050.5
3304.387	1038.5
3307.425	1009.5
3310.459	994.5
3313.492	1005.5
3316.521	986.5
3319.549	960.5
3322.574	945.5
3325.597	950.5
3328.617	933.5
3331.635	940.5
3334.65	928.5
3337.663	930.5
3340.674	931.5
3343.682	911.5
3346.688	910.5
3349.691	914.5
3352.692	905.5
3355.691	896.5
3358.687	900.5
3361.681	890.5
3364.673	889.5
3367.662	866.5
3370.649	863.5
3373.633	844.5
3376.615	846.5
3379.595	825.5
3382.572	811.5
3385.547	810.5
3388.52	792.5
3391.49	788.5
3394.458	780.5
3397.424	766.5
3400.387	769.5
3403.348	747.5
3406.307	738.5
3409.263	724.5
3412.217	721.5
3415.168	704.5
3418.118	703.5
3421.065	708.5
3424.009	685.5
3426.951	683.5
3429.891	667.5
3432.829	665.5
3435.764	643.5
3438.697	631.5
3441.628	622.5
3444.557	611.5
3447.483	592.5
3450.407	586.5
3453.328	569.5
3456.247	543.5
3459.164	529.5
3462.079	513.5
3464.991	505.5
3467.902	489.5
3470.809	471.5
3473.715	455.5
3476.618	443.5
3479.519	425.5
3482.418	427.5
3485.315	406.5
3488.209	397.5
3491.101	391.5
3493.99	376.5
3496.878	362.5
3499.763	343.5
3502.646	338.5
3505.527	339.5
3508.405	318.5
3511.281	293.5
3514.155	284.5
3517.027	290.5
3519.897	267.5
3522.764	260.5
3525.629	246.5
3528.492	242.5
3531.352	226.5
3534.211	207.5
3537.067	197.5
3539.921	179.5
3542.773	171.5
3545.622	170.5
3548.469	151.5
3551.315	146.5
3554.157	142.5
3556.998	129.5
3559.837	121.5
3562.673	116.5
3565.507	104.5
3568.339	98.5
3571.169	86.5
3573.996	86.5
3576.822	86.5
3579.645	74.5
3582.466	69.5
3585.285	70.5
3588.101	55.5
3590.916	48.5
3593.728	46.5
3596.538	40.5
3599.346	36.5
3602.152	29.5
3604.956	26.5
3607.757	23.5
3610.556	18.5
3613.354	8.5
3616.149	17.5
3618.942	3.5
3621.732	-1.5
3624.521	-1.5
3627.307	-6.5
3630.092	-12.5
3632.874	-16.5
3635.654	-17.5
3638.432	-16.5
3641.208	-15.5
3643.982	-25.5
3646.753	-24.5
3649.523	-28.5
3652.29	-33.5
3655.055	-37.5
3657.818	-36.5
3660.579	-44.5
3663.338	-39.5
3666.095	-46.5
3668.849	-48.5
3671.602	-54.5
3674.352	-51.5
3677.101	-61.5
3679.847	-58.5
3682.591	-66.5
3685.333	-61.5
3688.073	-67.5
3690.811	-70.5
3693.547	-68.5
3696.281	-68.5
3699.013	-69.5
3701.742	-74.5
3704.47	-74.5
3707.195	-74.5
3709.919	-74.5
3712.64	-83.5
3715.359	-79.5
3718.076	-78.5
3720.792	-82.5
3723.505	-78.5
3726.216	-77.5
3728.925	-82.5
3731.632	-84.5
3734.336	-85.5
3737.039	-91.5
3739.74	-91.5
3742.439	-86.5
3745.136	-88.5
3747.83	-93.5
3750.523	-92.5
3753.213	-88.5
3755.902	-91.5
3758.589	-88.5
3761.273	-88.5
3763.956	-89.5
3766.636	-93.5
3769.315	-94.5
3771.991	-94.5
3774.665	-98.5
3777.338	-95.5
3780.008	-97.5
3782.677	-93.5
3785.343	-97.5
3788.007	-93.5
3790.67	-97.5
3793.33	-96.5
3795.989	-101.5
3798.645	-94.5
3801.299	-98.5
3803.952	-104.5
3806.602	-101.5
3809.251	-99.5
3811.897	-100.5
3814.542	-99.5
3817.184	-97.5
3819.825	-97.5
3822.463	-100.5
3825.1	-100.5
3827.735	-103.5
3830.367	-99.5
3832.998	-107.5
3835.627	-104.5
3838.253	-104.5
3840.878	-103.5
3843.501	-100.5
3846.122	-99.5
3848.741	-101.5
3851.358	-103.5
3853.973	-103.5
3856.586	-102.5
3859.197	-101.5
3861.806	-103.5
3864.414	-106.5
3867.019	-104.5
3869.622	-100.5
3872.224	-105.5
3874.823	-103.5
3877.421	-100.5
3880.016	-97.5
3882.61	-91.5
3885.202	-94.5
3887.792	-94.5
3890.38	-102.5
3892.966	-104.5
3895.55	-106.5
3898.132	-110.5
3900.713	-103.5
3903.291	-108.5
3905.868	-104.5
3908.442	-104.5
3911.015	-104.5
3913.586	-107.5
3916.155	-105.5
3918.722	-105.5
3921.287	-109.5
3923.85	-110.5
3926.411	-109.5
3928.971	-106.5
3931.528	-108.5
3934.084	-109.5
3936.638	-106.5
3939.19	-104.5
3941.74	-103.5
3944.288	-112.5
3946.834	-105.5
3949.378	-107.5
3951.921	-111.5
3954.462	-111.5
3957	-112.5
3959.537	-109.5
3962.072	-104.5
3964.606	-107.5
3967.137	-103.5
3969.667	-103.5
3972.194	-110.5
3974.72	-106.5
3977.244	-106.5
3979.766	-110.5
3982.286	-107.5
3984.805	-108.5
3987.321	-106.5
3989.836	-107.5
3992.349	-106.5
3994.86	-107.5
3997.369	-101.5
3999.877	-107.5
4002.382	-102.5
4004.886	-103.5
4007.388	-104.5
4009.888	-106.5
4012.386	-108.5
4014.883	-105.5
4017.377	-112.5
4019.87	-105.5
4022.361	-108.5
4024.85	-103.5
4027.338	-106.5
4029.823	-106.5
4032.307	-102.5
4034.789	-101.5
4037.269	-107.5
4039.747	-106.5
4042.224	-110.5
4044.699	-112.5
4047.172	-107.5
4049.643	-109.5
4052.112	-107.5
4054.58	-111.5
4057.046	-112.5
4059.51	-104.5
4061.972	-108.5
4064.432	-110.5
4066.891	-110.5
4069.348	-107.5
4071.803	-110.5
4074.256	-110.5
4076.708	-109.5
4079.158	-110.5
4081.606	-110.5
4084.052	-102.5
4086.497	-111.5
4088.939	-110.5
4091.38	-107.5
4093.819	-109.5
4096.257	-111.5
4098.693	-110.5
4101.127	-110.5
4103.559	-112.5
4105.989	-70.5
4108.418	-71.5
4110.845	-69.5
4113.27	-61.5
4115.694	-57.5
4118.115	-46.5
4120.535	-104.5
4122.954	-112.5
4125.37	-108.5
4127.785	-106.5
4130.198	-108.5
4132.609	-107.5
4135.019	-111.5
4137.427	-112.5
4139.833	-113.5
4142.237	-112.5
