Data from 10000000CFU1_A_RamanShift_1.txt Node
Date: Tue Jan 31 15:33:44 IST 2017
User: aro
Spectrometer: QEPB0276
Trigger mode: 0
Integration Time (sec): 5.000000E0
Scans to average: 1
Electric dark correction enabled: true
Nonlinearity correction enabled: false
Boxcar width: 0
XAxis mode: Raman Shifts
Number of Pixels in Spectrum: 1044
>>>>>Begin Spectral Data<<<<<
160.701	-32.12
166.742	-2.12
172.777	93.88
178.805	383.88
184.826	1041.88
190.841	2133.88
196.849	3352.88
202.85	4130.88
208.845	4309.88
214.833	4157.88
220.815	4038.88
226.789	3894.88
232.758	3783.88
238.719	3660.88
244.674	3536.88
250.623	3337.88
256.565	3223.88
262.5	3051.88
268.429	2906.88
274.351	2783.88
280.267	2699.88
286.176	2570.88
292.079	2497.88
297.975	2420.88
303.865	2346.88
309.748	2280.88
315.625	2218.88
321.495	2167.88
327.359	2151.88
333.217	2126.88
339.068	2115.88
344.912	2088.88
350.751	2086.88
356.583	2093.88
362.408	2083.88
368.227	2087.88
374.04	2105.88
379.847	2095.88
385.647	2123.88
391.44	2113.88
397.228	2119.88
403.009	2143.88
408.784	2149.88
414.553	2158.88
420.315	2157.88
426.071	2155.88
431.821	2164.88
437.565	2155.88
443.302	2146.88
449.033	2145.88
454.758	2141.88
460.477	2113.88
466.189	2111.88
471.896	2085.88
477.596	2098.88
483.29	2108.88
488.978	2085.88
494.66	2058.88
500.335	2043.88
506.005	1981.88
511.668	1983.88
517.325	1949.88
522.977	1906.88
528.622	1863.88
534.261	1857.88
539.894	1833.88
545.521	1811.88
551.141	1803.88
556.756	1805.88
562.365	1771.88
567.968	1775.88
573.565	1764.88
579.155	1744.88
584.74	1741.88
590.319	1742.88
595.892	1721.88
601.459	1711.88
607.02	1698.88
612.575	1671.88
618.124	1665.88
623.667	1656.88
629.204	1642.88
634.735	1622.88
640.261	1600.88
645.781	1588.88
651.294	1583.88
656.802	1590.88
662.304	1574.88
667.8	1570.88
673.29	1557.88
678.775	1558.88
684.254	1551.88
689.726	1544.88
695.193	1524.88
700.655	1527.88
706.11	1529.88
711.56	1501.88
717.004	1501.88
722.442	1496.88
727.874	1486.88
733.301	1463.88
738.722	1439.88
744.137	1439.88
749.547	1451.88
754.951	1426.88
760.349	1441.88
765.741	1441.88
771.128	1447.88
776.509	1443.88
781.885	1450.88
787.254	1440.88
792.618	1439.88
797.977	1428.88
803.33	1428.88
808.677	1417.88
814.019	1378.88
819.355	1368.88
824.686	1361.88
830.011	1371.88
835.33	1352.88
840.644	1329.88
845.952	1329.88
851.255	1322.88
856.552	1313.88
861.844	1308.88
867.13	1291.88
872.41	1296.88
877.686	1289.88
882.955	1272.88
888.219	1251.88
893.478	1250.88
898.731	1225.88
903.979	1202.88
909.221	1194.88
914.458	1173.88
919.69	1167.88
924.916	1160.88
930.136	1165.88
935.351	1159.88
940.561	1161.88
945.766	1163.88
950.965	1146.88
956.158	1149.88
961.347	1129.88
966.529	1118.88
971.707	1100.88
976.879	1100.88
982.046	1073.88
987.208	1073.88
992.364	1065.88
997.515	1057.88
1002.66	1066.88
1007.801	1062.88
1012.936	1086.88
1018.066	1101.88
1023.19	1107.88
1028.309	1099.88
1033.423	1116.88
1038.532	1110.88
1043.636	1093.88
1048.734	1101.88
1053.827	1084.88
1058.915	1057.88
1063.998	1059.88
1069.075	1058.88
1074.147	1051.88
1079.214	1050.88
1084.276	1054.88
1089.333	1066.88
1094.385	1076.88
1099.431	1097.88
1104.472	1090.88
1109.509	1092.88
1114.54	1083.88
1119.565	1068.88
1124.586	1050.88
1129.602	1054.88
1134.613	1033.88
1139.618	1013.88
1144.619	1028.88
1149.614	1015.88
1154.604	1037.88
1159.589	1045.88
1164.57	1055.88
1169.545	1059.88
1174.515	1055.88
1179.48	1056.88
1184.44	1058.88
1189.395	1044.88
1194.345	1033.88
1199.29	1042.88
1204.23	1049.88
1209.165	1038.88
1214.095	1059.88
1219.021	1045.88
1223.941	1050.88
1228.856	1068.88
1233.766	1057.88
1238.672	1073.88
1243.572	1064.88
1248.467	1070.88
1253.358	1061.88
1258.244	1052.88
1263.124	1040.88
1268	1023.88
1272.871	1014.88
1277.737	1003.88
1282.599	990.88
1287.455	992.88
1292.306	998.88
1297.153	998.88
1301.995	1013.88
1306.832	1013.88
1311.664	1026.88
1316.491	1027.88
1321.314	1024.88
1326.132	1014.88
1330.945	1021.88
1335.753	998.88
1340.556	999.88
1345.354	972.88
1350.148	962.88
1354.937	949.88
1359.722	945.88
1364.501	942.88
1369.276	937.88
1374.046	938.88
1378.811	928.88
1383.572	931.88
1388.327	924.88
1393.079	922.88
1397.825	913.88
1402.567	915.88
1407.304	920.88
1412.036	902.88
1416.764	901.88
1421.487	909.88
1426.205	896.88
1430.919	910.88
1435.628	909.88
1440.333	934.88
1445.032	940.88
1449.727	934.88
1454.418	957.88
1459.104	955.88
1463.785	944.88
1468.462	941.88
1473.134	928.88
1477.802	925.88
1482.465	906.88
1487.123	908.88
1491.777	924.88
1496.426	909.88
1501.071	921.88
1505.711	926.88
1510.347	946.88
1514.978	955.88
1519.604	963.88
1524.226	967.88
1528.844	978.88
1533.457	974.88
1538.065	963.88
1542.669	959.88
1547.269	973.88
1551.864	969.88
1556.454	964.88
1561.041	979.88
1565.622	988.88
1570.199	1006.88
1574.772	1008.88
1579.34	1037.88
1583.904	1056.88
1588.464	1089.88
1593.019	1107.88
1597.569	1111.88
1602.115	1113.88
1606.657	1130.88
1611.195	1149.88
1615.728	1157.88
1620.256	1174.88
1624.78	1196.88
1629.3	1202.88
1633.816	1226.88
1638.327	1242.88
1642.834	1256.88
1647.336	1256.88
1651.834	1265.88
1656.328	1263.88
1660.817	1244.88
1665.302	1254.88
1669.783	1218.88
1674.259	1197.88
1678.732	1141.88
1683.199	1120.88
1687.663	1083.88
1692.122	1036.88
1696.577	992.88
1701.028	957.88
1705.474	906.88
1709.917	871.88
1714.355	849.88
1718.788	841.88
1723.218	829.88
1727.643	809.88
1732.064	798.88
1736.481	774.88
1740.893	759.88
1745.301	728.88
1749.705	711.88
1754.105	697.88
1758.501	677.88
1762.893	674.88
1767.28	665.88
1771.663	646.88
1776.042	660.88
1780.417	652.88
1784.787	650.88
1789.154	646.88
1793.516	653.88
1797.874	647.88
1802.228	650.88
1806.578	623.88
1810.924	634.88
1815.266	607.88
1819.603	614.88
1823.937	601.88
1828.266	589.88
1832.591	590.88
1836.913	595.88
1841.23	586.88
1845.543	580.88
1849.852	589.88
1854.156	584.88
1858.457	585.88
1862.754	587.88
1867.047	591.88
1871.335	597.88
1875.62	600.88
1879.9	604.88
1884.177	596.88
1888.449	603.88
1892.718	606.88
1896.982	600.88
1901.243	598.88
1905.499	588.88
1909.752	597.88
1914	585.88
1918.245	592.88
1922.485	597.88
1926.722	595.88
1930.954	616.88
1935.183	607.88
1939.408	610.88
1943.628	592.88
1947.845	598.88
1952.058	601.88
1956.267	609.88
1960.472	580.88
1964.673	587.88
1968.87	580.88
1973.063	579.88
1977.252	581.88
1981.438	571.88
1985.619	553.88
1989.797	570.88
1993.971	556.88
1998.14	567.88
2002.306	565.88
2006.469	565.88
2010.627	579.88
2014.781	583.88
2018.932	579.88
2023.078	586.88
2027.221	585.88
2031.36	564.88
2035.495	580.88
2039.627	563.88
2043.754	568.88
2047.878	564.88
2051.998	556.88
2056.114	562.88
2060.226	563.88
2064.334	571.88
2068.439	576.88
2072.54	577.88
2076.637	574.88
2080.73	579.88
2084.82	574.88
2088.906	581.88
2092.988	578.88
2097.066	589.88
2101.14	582.88
2105.211	572.88
2109.278	572.88
2113.342	573.88
2117.401	570.88
2121.457	560.88
2125.509	547.88
2129.558	556.88
2133.602	552.88
2137.643	559.88
2141.681	546.88
2145.714	543.88
2149.744	542.88
2153.77	537.88
2157.793	534.88
2161.812	532.88
2165.827	519.88
2169.838	517.88
2173.846	517.88
2177.851	503.88
2181.851	488.88
2185.848	483.88
2189.841	489.88
2193.831	475.88
2197.817	468.88
2201.799	468.88
2205.778	467.88
2209.753	466.88
2213.725	467.88
2217.693	471.88
2221.657	474.88
2225.618	468.88
2229.575	464.88
2233.529	464.88
2237.479	451.88
2241.425	469.88
2245.368	446.88
2249.307	442.88
2253.243	435.88
2257.175	434.88
2261.104	421.88
2265.029	428.88
2268.95	426.88
2272.868	405.88
2276.783	400.88
2280.694	394.88
2284.601	386.88
2288.505	389.88
2292.405	376.88
2296.302	384.88
2300.195	369.88
2304.085	367.88
2307.971	366.88
2311.854	351.88
2315.734	351.88
2319.609	341.88
2323.482	338.88
2327.351	339.88
2331.216	332.88
2335.078	331.88
2338.937	326.88
2342.792	326.88
2346.643	323.88
2350.492	315.88
2354.336	319.88
2358.178	322.88
2362.015	318.88
2365.85	329.88
2369.681	321.88
2373.508	326.88
2377.333	313.88
2381.153	324.88
2384.971	318.88
2388.785	322.88
2392.595	314.88
2396.402	315.88
2400.206	323.88
2404.007	309.88
2407.804	306.88
2411.597	315.88
2415.388	307.88
2419.174	301.88
2422.958	301.88
2426.738	308.88
2430.515	301.88
2434.289	302.88
2438.059	291.88
2441.825	302.88
2445.589	299.88
2449.349	305.88
2453.106	294.88
2456.859	284.88
2460.61	284.88
2464.356	285.88
2468.1	280.88
2471.84	289.88
2475.577	278.88
2479.311	279.88
2483.041	282.88
2486.768	288.88
2490.492	278.88
2494.213	281.88
2497.93	279.88
2501.644	273.88
2505.355	278.88
2509.062	278.88
2512.766	282.88
2516.467	275.88
2520.165	272.88
2523.859	271.88
2527.551	278.88
2531.239	269.88
2534.923	273.88
2538.605	264.88
2542.283	256.88
2545.958	255.88
2549.63	255.88
2553.299	263.88
2556.964	252.88
2560.626	256.88
2564.285	255.88
2567.941	249.88
2571.594	243.88
2575.243	246.88
2578.89	247.88
2582.533	243.88
2586.173	238.88
2589.809	228.88
2593.443	241.88
2597.073	234.88
2600.701	236.88
2604.325	240.88
2607.946	236.88
2611.564	226.88
2615.178	225.88
2618.79	225.88
2622.398	223.88
2626.004	214.88
2629.606	220.88
2633.205	217.88
2636.801	226.88
2640.394	210.88
2643.983	215.88
2647.57	218.88
2651.153	216.88
2654.734	206.88
2658.311	203.88
2661.885	199.88
2665.456	207.88
2669.025	201.88
2672.589	205.88
2676.151	197.88
2679.71	195.88
2683.266	204.88
2686.819	192.88
2690.368	194.88
2693.915	183.88
2697.458	194.88
2700.999	184.88
2704.536	188.88
2708.071	180.88
2711.602	185.88
2715.13	187.88
2718.656	175.88
2722.178	178.88
2725.697	179.88
2729.214	184.88
2732.727	179.88
2736.237	179.88
2739.744	186.88
2743.249	190.88
2746.75	192.88
2750.248	190.88
2753.743	189.88
2757.236	180.88
2760.725	175.88
2764.211	179.88
2767.695	175.88
2771.175	168.88
2774.652	168.88
2778.127	178.88
2781.598	175.88
2785.067	167.88
2788.532	185.88
2791.995	174.88
2795.455	179.88
2798.911	173.88
2802.365	177.88
2805.816	181.88
2809.264	177.88
2812.709	179.88
2816.151	183.88
2819.59	197.88
2823.026	183.88
2826.46	181.88
2829.89	185.88
2833.318	190.88
2836.742	183.88
2840.164	192.88
2843.583	186.88
2846.999	188.88
2850.412	197.88
2853.822	193.88
2857.229	207.88
2860.634	208.88
2864.035	206.88
2867.434	217.88
2870.83	211.88
2874.223	212.88
2877.613	219.88
2881	221.88
2884.385	221.88
2887.766	219.88
2891.145	218.88
2894.521	218.88
2897.894	223.88
2901.264	228.88
2904.631	224.88
2907.996	227.88
2911.358	229.88
2914.717	229.88
2918.073	231.88
2921.426	237.88
2924.777	239.88
2928.124	246.88
2931.469	258.88
2934.811	254.88
2938.15	268.88
2941.487	277.88
2944.821	272.88
2948.152	277.88
2951.48	287.88
2954.805	286.88
2958.128	293.88
2961.447	302.88
2964.765	310.88
2968.079	306.88
2971.39	322.88
2974.699	325.88
2978.005	340.88
2981.308	347.88
2984.609	357.88
2987.907	358.88
2991.202	376.88
2994.494	375.88
2997.784	388.88
3001.07	403.88
3004.355	419.88
3007.636	421.88
3010.915	436.88
3014.191	442.88
3017.464	451.88
3020.734	459.88
3024.002	470.88
3027.267	478.88
3030.53	479.88
3033.789	491.88
3037.046	516.88
3040.301	522.88
3043.552	526.88
3046.801	541.88
3050.048	565.88
3053.291	584.88
3056.532	588.88
3059.771	608.88
3063.006	633.88
3066.239	639.88
3069.469	676.88
3072.697	689.88
3075.922	711.88
3079.144	742.88
3082.364	743.88
3085.581	766.88
3088.795	795.88
3092.007	816.88
3095.216	835.88
3098.423	845.88
3101.627	869.88
3104.828	879.88
3108.026	893.88
3111.222	910.88
3114.416	928.88
3117.607	963.88
3120.795	978.88
3123.98	1019.88
3127.163	1029.88
3130.344	1051.88
3133.521	1081.88
3136.696	1108.88
3139.869	1113.88
3143.039	1147.88
3146.206	1172.88
3149.371	1172.88
3152.533	1198.88
3155.693	1211.88
3158.85	1228.88
3162.005	1233.88
3165.157	1235.88
3168.306	1260.88
3171.453	1257.88
3174.597	1246.88
3177.739	1252.88
3180.878	1252.88
3184.014	1267.88
3187.149	1275.88
3190.28	1271.88
3193.409	1262.88
3196.536	1280.88
3199.659	1288.88
3202.781	1287.88
3205.9	1279.88
3209.016	1294.88
3212.13	1304.88
3215.241	1284.88
3218.35	1297.88
3221.456	1280.88
3224.56	1268.88
3227.661	1258.88
3230.76	1256.88
3233.856	1237.88
3236.95	1230.88
3240.041	1215.88
3243.13	1191.88
3246.216	1193.88
3249.3	1175.88
3252.382	1168.88
3255.46	1165.88
3258.537	1154.88
3261.611	1158.88
3264.682	1148.88
3267.751	1156.88
3270.818	1132.88
3273.882	1132.88
3276.943	1127.88
3280.002	1106.88
3283.059	1088.88
3286.113	1084.88
3289.165	1075.88
3292.214	1063.88
3295.261	1054.88
3298.306	1037.88
3301.348	1017.88
3304.387	991.88
3307.425	986.88
3310.459	978.88
3313.492	960.88
3316.521	944.88
3319.549	943.88
3322.574	928.88
3325.597	908.88
3328.617	921.88
3331.635	905.88
3334.65	904.88
3337.663	910.88
3340.674	900.88
3343.682	907.88
3346.688	879.88
3349.691	897.88
3352.692	872.88
3355.691	888.88
3358.687	872.88
3361.681	863.88
3364.673	852.88
3367.662	843.88
3370.649	831.88
3373.633	825.88
3376.615	819.88
3379.595	803.88
3382.572	808.88
3385.547	786.88
3388.52	764.88
3391.49	767.88
3394.458	748.88
3397.424	746.88
3400.387	731.88
3403.348	735.88
3406.307	704.88
3409.263	711.88
3412.217	702.88
3415.168	700.88
3418.118	678.88
3421.065	681.88
3424.009	658.88
3426.951	659.88
3429.891	651.88
3432.829	642.88
3435.764	636.88
3438.697	625.88
3441.628	606.88
3444.557	590.88
3447.483	567.88
3450.407	555.88
3453.328	528.88
3456.247	530.88
3459.164	522.88
3462.079	495.88
3464.991	489.88
3467.902	474.88
3470.809	460.88
3473.715	436.88
3476.618	427.88
3479.519	425.88
3482.418	401.88
3485.315	393.88
3488.209	379.88
3491.101	366.88
3493.99	364.88
3496.878	352.88
3499.763	343.88
3502.646	327.88
3505.527	324.88
3508.405	302.88
3511.281	289.88
3514.155	284.88
3517.027	274.88
3519.897	250.88
3522.764	249.88
3525.629	235.88
3528.492	228.88
3531.352	212.88
3534.211	190.88
3537.067	187.88
3539.921	177.88
3542.773	165.88
3545.622	158.88
3548.469	140.88
3551.315	134.88
3554.157	125.88
3556.998	122.88
3559.837	120.88
3562.673	111.88
3565.507	104.88
3568.339	90.88
3571.169	85.88
3573.996	78.88
3576.822	77.88
3579.645	66.88
3582.466	63.88
3585.285	60.88
3588.101	53.88
3590.916	50.88
3593.728	38.88
3596.538	34.88
3599.346	34.88
3602.152	21.88
3604.956	23.88
3607.757	15.88
3610.556	12.88
3613.354	-0.12
3616.149	6.88
3618.942	6.88
3621.732	-5.12
3624.521	-7.12
3627.307	-11.12
3630.092	-12.12
3632.874	-12.12
3635.654	-22.12
3638.432	-24.12
3641.208	-25.12
3643.982	-28.12
3646.753	-31.12
3649.523	-28.12
3652.29	-38.12
3655.055	-38.12
3657.818	-40.12
3660.579	-42.12
3663.338	-43.12
3666.095	-51.12
3668.849	-49.12
3671.602	-53.12
3674.352	-60.12
3677.101	-59.12
3679.847	-64.12
3682.591	-64.12
3685.333	-63.12
3688.073	-64.12
3690.811	-69.12
3693.547	-70.12
3696.281	-68.12
3699.013	-70.12
3701.742	-73.12
3704.47	-80.12
3707.195	-79.12
3709.919	-77.12
3712.64	-84.12
3715.359	-82.12
3718.076	-77.12
3720.792	-73.12
3723.505	-80.12
3726.216	-79.12
3728.925	-85.12
3731.632	-87.12
3734.336	-87.12
3737.039	-95.12
3739.74	-91.12
3742.439	-93.12
3745.136	-91.12
3747.83	-86.12
3750.523	-84.12
3753.213	-91.12
3755.902	-90.12
3758.589	-90.12
3761.273	-89.12
3763.956	-88.12
3766.636	-94.12
3769.315	-96.12
3771.991	-93.12
3774.665	-92.12
3777.338	-94.12
3780.008	-94.12
3782.677	-95.12
3785.343	-99.12
3788.007	-94.12
3790.67	-99.12
3793.33	-96.12
3795.989	-99.12
3798.645	-97.12
3801.299	-95.12
3803.952	-102.12
3806.602	-99.12
3809.251	-98.12
3811.897	-101.12
3814.542	-101.12
3817.184	-101.12
3819.825	-100.12
3822.463	-98.12
3825.1	-99.12
3827.735	-101.12
3830.367	-100.12
3832.998	-100.12
3835.627	-100.12
3838.253	-100.12
3840.878	-104.12
3843.501	-102.12
3846.122	-105.12
3848.741	-100.12
3851.358	-106.12
3853.973	-102.12
3856.586	-97.12
3859.197	-104.12
3861.806	-100.12
3864.414	-100.12
3867.019	-104.12
3869.622	-99.12
3872.224	-108.12
3874.823	-103.12
3877.421	-102.12
3880.016	-96.12
3882.61	-98.12
3885.202	-95.12
3887.792	-93.12
3890.38	-99.12
3892.966	-98.12
3895.55	-105.12
3898.132	-105.12
3900.713	-104.12
3903.291	-110.12
3905.868	-105.12
3908.442	-109.12
3911.015	-105.12
3913.586	-106.12
3916.155	-100.12
3918.722	-106.12
3921.287	-106.12
3923.85	-108.12
3926.411	-107.12
3928.971	-106.12
3931.528	-113.12
3934.084	-108.12
3936.638	-106.12
3939.19	-106.12
3941.74	-103.12
3944.288	-108.12
3946.834	-101.12
3949.378	-104.12
3951.921	-106.12
3954.462	-114.12
3957	-106.12
3959.537	-112.12
3962.072	-109.12
3964.606	-109.12
3967.137	-103.12
3969.667	-103.12
3972.194	-107.12
3974.72	-105.12
3977.244	-104.12
3979.766	-105.12
3982.286	-105.12
3984.805	-106.12
3987.321	-107.12
3989.836	-108.12
3992.349	-107.12
3994.86	-103.12
3997.369	-104.12
3999.877	-107.12
4002.382	-103.12
4004.886	-104.12
4007.388	-104.12
4009.888	-106.12
4012.386	-106.12
4014.883	-105.12
4017.377	-106.12
4019.87	-106.12
4022.361	-108.12
4024.85	-109.12
4027.338	-106.12
4029.823	-106.12
4032.307	-105.12
4034.789	-104.12
4037.269	-107.12
4039.747	-108.12
4042.224	-108.12
4044.699	-110.12
4047.172	-107.12
4049.643	-109.12
4052.112	-105.12
4054.58	-110.12
4057.046	-108.12
4059.51	-113.12
4061.972	-109.12
4064.432	-106.12
4066.891	-106.12
4069.348	-107.12
4071.803	-107.12
4074.256	-109.12
4076.708	-106.12
4079.158	-111.12
4081.606	-108.12
4084.052	-104.12
4086.497	-113.12
4088.939	-107.12
4091.38	-105.12
4093.819	-107.12
4096.257	-109.12
4098.693	-109.12
4101.127	-104.12
4103.559	-111.12
4105.989	-72.12
4108.418	-67.12
4110.845	-68.12
4113.27	-63.12
4115.694	-57.12
4118.115	-48.12
4120.535	-102.12
4122.954	-110.12
4125.37	-108.12
4127.785	-109.12
4130.198	-108.12
4132.609	-107.12
4135.019	-111.12
4137.427	-111.12
4139.833	-111.12
4142.237	-110.12
