Data from 100000000CFU1_B_RamanShift_1.txt Node
Date: Tue Jan 31 14:48:02 IST 2017
User: aro
Spectrometer: QEPB0276
Trigger mode: 0
Integration Time (sec): 5.000000E0
Scans to average: 1
Electric dark correction enabled: true
Nonlinearity correction enabled: false
Boxcar width: 0
XAxis mode: Raman Shifts
Number of Pixels in Spectrum: 1044
>>>>>Begin Spectral Data<<<<<
160.701	-26.12
166.742	-0.12
172.777	65.88
178.805	281.88
184.826	760.88
190.841	1554.88
196.849	2422.88
202.85	2980.88
208.845	3103.88
214.833	2996.88
220.815	2898.88
226.789	2793.88
232.758	2739.88
238.719	2658.88
244.674	2544.88
250.623	2440.88
256.565	2335.88
262.5	2220.88
268.429	2101.88
274.351	2037.88
280.267	1932.88
286.176	1896.88
292.079	1828.88
297.975	1776.88
303.865	1733.88
309.748	1661.88
315.625	1644.88
321.495	1605.88
327.359	1576.88
333.217	1575.88
339.068	1553.88
344.912	1552.88
350.751	1544.88
356.583	1534.88
362.408	1548.88
368.227	1555.88
374.04	1560.88
379.847	1564.88
385.647	1580.88
391.44	1585.88
397.228	1586.88
403.009	1587.88
408.784	1610.88
414.553	1580.88
420.315	1598.88
426.071	1621.88
431.821	1616.88
437.565	1604.88
443.302	1606.88
449.033	1583.88
454.758	1593.88
460.477	1570.88
466.189	1563.88
471.896	1562.88
477.596	1564.88
483.29	1558.88
488.978	1557.88
494.66	1541.88
500.335	1526.88
506.005	1485.88
511.668	1459.88
517.325	1411.88
522.977	1390.88
528.622	1359.88
534.261	1356.88
539.894	1332.88
545.521	1326.88
551.141	1311.88
556.756	1306.88
562.365	1299.88
567.968	1288.88
573.565	1262.88
579.155	1269.88
584.74	1267.88
590.319	1245.88
595.892	1252.88
601.459	1237.88
607.02	1230.88
612.575	1221.88
618.124	1217.88
623.667	1198.88
629.204	1174.88
634.735	1174.88
640.261	1158.88
645.781	1152.88
651.294	1143.88
656.802	1134.88
662.304	1134.88
667.8	1134.88
673.29	1124.88
678.775	1139.88
684.254	1112.88
689.726	1112.88
695.193	1115.88
700.655	1095.88
706.11	1094.88
711.56	1085.88
717.004	1103.88
722.442	1067.88
727.874	1075.88
733.301	1061.88
738.722	1044.88
744.137	1046.88
749.547	1056.88
754.951	1033.88
760.349	1034.88
765.741	1033.88
771.128	1048.88
776.509	1031.88
781.885	1054.88
787.254	1052.88
792.618	1033.88
797.977	1034.88
803.33	1035.88
808.677	1031.88
814.019	1011.88
819.355	995.88
824.686	985.88
830.011	990.88
835.33	953.88
840.644	961.88
845.952	947.88
851.255	954.88
856.552	947.88
861.844	944.88
867.13	916.88
872.41	935.88
877.686	910.88
882.955	915.88
888.219	908.88
893.478	896.88
898.731	870.88
903.979	861.88
909.221	854.88
914.458	833.88
919.69	833.88
924.916	828.88
930.136	829.88
935.351	820.88
940.561	826.88
945.766	820.88
950.965	819.88
956.158	810.88
961.347	808.88
966.529	795.88
971.707	787.88
976.879	779.88
982.046	788.88
987.208	766.88
992.364	754.88
997.515	772.88
1002.66	771.88
1007.801	761.88
1012.936	788.88
1018.066	771.88
1023.19	791.88
1028.309	796.88
1033.423	794.88
1038.532	787.88
1043.636	795.88
1048.734	774.88
1053.827	765.88
1058.915	757.88
1063.998	758.88
1069.075	751.88
1074.147	748.88
1079.214	749.88
1084.276	766.88
1089.333	765.88
1094.385	772.88
1099.431	772.88
1104.472	783.88
1109.509	778.88
1114.54	769.88
1119.565	768.88
1124.586	744.88
1129.602	744.88
1134.613	741.88
1139.618	724.88
1144.619	734.88
1149.614	745.88
1154.604	727.88
1159.589	745.88
1164.57	737.88
1169.545	743.88
1174.515	752.88
1179.48	755.88
1184.44	746.88
1189.395	749.88
1194.345	743.88
1199.29	737.88
1204.23	734.88
1209.165	734.88
1214.095	747.88
1219.021	745.88
1223.941	756.88
1228.856	756.88
1233.766	749.88
1238.672	765.88
1243.572	755.88
1248.467	756.88
1253.358	749.88
1258.244	747.88
1263.124	735.88
1268	719.88
1272.871	713.88
1277.737	715.88
1282.599	701.88
1287.455	698.88
1292.306	709.88
1297.153	699.88
1301.995	705.88
1306.832	709.88
1311.664	722.88
1316.491	720.88
1321.314	727.88
1326.132	716.88
1330.945	713.88
1335.753	699.88
1340.556	686.88
1345.354	693.88
1350.148	669.88
1354.937	657.88
1359.722	657.88
1364.501	643.88
1369.276	661.88
1374.046	643.88
1378.811	651.88
1383.572	645.88
1388.327	651.88
1393.079	653.88
1397.825	629.88
1402.567	639.88
1407.304	643.88
1412.036	642.88
1416.764	617.88
1421.487	633.88
1426.205	627.88
1430.919	632.88
1435.628	626.88
1440.333	659.88
1445.032	657.88
1449.727	657.88
1454.418	660.88
1459.104	660.88
1463.785	647.88
1468.462	646.88
1473.134	636.88
1477.802	644.88
1482.465	637.88
1487.123	633.88
1491.777	637.88
1496.426	637.88
1501.071	644.88
1505.711	646.88
1510.347	655.88
1514.978	665.88
1519.604	673.88
1524.226	666.88
1528.844	686.88
1533.457	692.88
1538.065	676.88
1542.669	680.88
1547.269	687.88
1551.864	683.88
1556.454	697.88
1561.041	692.88
1565.622	693.88
1570.199	701.88
1574.772	723.88
1579.34	725.88
1583.904	745.88
1588.464	747.88
1593.019	773.88
1597.569	758.88
1602.115	784.88
1606.657	801.88
1611.195	804.88
1615.728	812.88
1620.256	829.88
1624.78	830.88
1629.3	854.88
1633.816	854.88
1638.327	876.88
1642.834	879.88
1647.336	890.88
1651.834	891.88
1656.328	894.88
1660.817	880.88
1665.302	875.88
1669.783	866.88
1674.259	825.88
1678.732	813.88
1683.199	786.88
1687.663	758.88
1692.122	713.88
1696.577	703.88
1701.028	654.88
1705.474	640.88
1709.917	614.88
1714.355	612.88
1718.788	596.88
1723.218	589.88
1727.643	571.88
1732.064	571.88
1736.481	534.88
1740.893	527.88
1745.301	519.88
1749.705	493.88
1754.105	490.88
1758.501	476.88
1762.893	459.88
1767.28	453.88
1771.663	453.88
1776.042	453.88
1780.417	448.88
1784.787	451.88
1789.154	448.88
1793.516	452.88
1797.874	448.88
1802.228	453.88
1806.578	441.88
1810.924	438.88
1815.266	431.88
1819.603	430.88
1823.937	419.88
1828.266	415.88
1832.591	424.88
1836.913	403.88
1841.23	408.88
1845.543	406.88
1849.852	406.88
1854.156	412.88
1858.457	414.88
1862.754	405.88
1867.047	407.88
1871.335	418.88
1875.62	418.88
1879.9	419.88
1884.177	409.88
1888.449	420.88
1892.718	409.88
1896.982	412.88
1901.243	415.88
1905.499	406.88
1909.752	410.88
1914	405.88
1918.245	414.88
1922.485	412.88
1926.722	415.88
1930.954	425.88
1935.183	417.88
1939.408	419.88
1943.628	426.88
1947.845	411.88
1952.058	422.88
1956.267	414.88
1960.472	422.88
1964.673	416.88
1968.87	405.88
1973.063	410.88
1977.252	401.88
1981.438	392.88
1985.619	397.88
1989.797	389.88
1993.971	381.88
1998.14	384.88
2002.306	394.88
2006.469	391.88
2010.627	404.88
2014.781	408.88
2018.932	394.88
2023.078	396.88
2027.221	399.88
2031.36	400.88
2035.495	399.88
2039.627	400.88
2043.754	379.88
2047.878	391.88
2051.998	391.88
2056.114	395.88
2060.226	384.88
2064.334	396.88
2068.439	398.88
2072.54	395.88
2076.637	388.88
2080.73	401.88
2084.82	401.88
2088.906	415.88
2092.988	402.88
2097.066	413.88
2101.14	407.88
2105.211	406.88
2109.278	403.88
2113.342	403.88
2117.401	393.88
2121.457	394.88
2125.509	388.88
2129.558	390.88
2133.602	379.88
2137.643	386.88
2141.681	378.88
2145.714	374.88
2149.744	375.88
2153.77	374.88
2157.793	372.88
2161.812	366.88
2165.827	363.88
2169.838	353.88
2173.846	356.88
2177.851	352.88
2181.851	352.88
2185.848	334.88
2189.841	341.88
2193.831	338.88
2197.817	328.88
2201.799	331.88
2205.778	324.88
2209.753	318.88
2213.725	314.88
2217.693	323.88
2221.657	321.88
2225.618	324.88
2229.575	334.88
2233.529	319.88
2237.479	319.88
2241.425	318.88
2245.368	303.88
2249.307	304.88
2253.243	303.88
2257.175	297.88
2261.104	292.88
2265.029	289.88
2268.95	285.88
2272.868	274.88
2276.783	270.88
2280.694	273.88
2284.601	267.88
2288.505	265.88
2292.405	262.88
2296.302	266.88
2300.195	261.88
2304.085	257.88
2307.971	246.88
2311.854	251.88
2315.734	239.88
2319.609	237.88
2323.482	233.88
2327.351	223.88
2331.216	228.88
2335.078	224.88
2338.937	226.88
2342.792	225.88
2346.643	223.88
2350.492	214.88
2354.336	219.88
2358.178	221.88
2362.015	219.88
2365.85	227.88
2369.681	226.88
2373.508	222.88
2377.333	224.88
2381.153	219.88
2384.971	226.88
2388.785	220.88
2392.595	210.88
2396.402	218.88
2400.206	219.88
2404.007	219.88
2407.804	206.88
2411.597	209.88
2415.388	210.88
2419.174	207.88
2422.958	204.88
2426.738	208.88
2430.515	212.88
2434.289	210.88
2438.059	207.88
2441.825	212.88
2445.589	198.88
2449.349	203.88
2453.106	200.88
2456.859	189.88
2460.61	189.88
2464.356	192.88
2468.1	189.88
2471.84	189.88
2475.577	193.88
2479.311	197.88
2483.041	196.88
2486.768	194.88
2490.492	193.88
2494.213	182.88
2497.93	185.88
2501.644	184.88
2505.355	195.88
2509.062	190.88
2512.766	188.88
2516.467	190.88
2520.165	192.88
2523.859	184.88
2527.551	183.88
2531.239	185.88
2534.923	183.88
2538.605	174.88
2542.283	178.88
2545.958	168.88
2549.63	172.88
2553.299	173.88
2556.964	170.88
2560.626	180.88
2564.285	173.88
2567.941	172.88
2571.594	167.88
2575.243	165.88
2578.89	167.88
2582.533	164.88
2586.173	161.88
2589.809	158.88
2593.443	158.88
2597.073	160.88
2600.701	155.88
2604.325	161.88
2607.946	164.88
2611.564	161.88
2615.178	158.88
2618.79	154.88
2622.398	150.88
2626.004	145.88
2629.606	144.88
2633.205	151.88
2636.801	153.88
2640.394	145.88
2643.983	149.88
2647.57	140.88
2651.153	149.88
2654.734	141.88
2658.311	133.88
2661.885	134.88
2665.456	128.88
2669.025	137.88
2672.589	139.88
2676.151	131.88
2679.71	132.88
2683.266	134.88
2686.819	128.88
2690.368	131.88
2693.915	124.88
2697.458	132.88
2700.999	121.88
2704.536	120.88
2708.071	122.88
2711.602	119.88
2715.13	118.88
2718.656	123.88
2722.178	119.88
2725.697	119.88
2729.214	116.88
2732.727	129.88
2736.237	123.88
2739.744	122.88
2743.249	127.88
2746.75	124.88
2750.248	122.88
2753.743	124.88
2757.236	117.88
2760.725	122.88
2764.211	129.88
2767.695	126.88
2771.175	118.88
2774.652	125.88
2778.127	118.88
2781.598	119.88
2785.067	119.88
2788.532	120.88
2791.995	123.88
2795.455	119.88
2798.911	123.88
2802.365	123.88
2805.816	126.88
2809.264	120.88
2812.709	129.88
2816.151	129.88
2819.59	133.88
2823.026	122.88
2826.46	126.88
2829.89	130.88
2833.318	130.88
2836.742	128.88
2840.164	130.88
2843.583	126.88
2846.999	136.88
2850.412	135.88
2853.822	139.88
2857.229	143.88
2860.634	140.88
2864.035	147.88
2867.434	151.88
2870.83	149.88
2874.223	149.88
2877.613	152.88
2881	149.88
2884.385	154.88
2887.766	156.88
2891.145	156.88
2894.521	158.88
2897.894	153.88
2901.264	150.88
2904.631	159.88
2907.996	160.88
2911.358	163.88
2914.717	167.88
2918.073	163.88
2921.426	164.88
2924.777	177.88
2928.124	178.88
2931.469	177.88
2934.811	179.88
2938.15	180.88
2941.487	193.88
2944.821	197.88
2948.152	195.88
2951.48	199.88
2954.805	205.88
2958.128	216.88
2961.447	218.88
2964.765	218.88
2968.079	212.88
2971.39	232.88
2974.699	233.88
2978.005	243.88
2981.308	239.88
2984.609	252.88
2987.907	258.88
2991.202	270.88
2994.494	276.88
2997.784	281.88
3001.07	295.88
3004.355	302.88
3007.636	313.88
3010.915	311.88
3014.191	320.88
3017.464	331.88
3020.734	334.88
3024.002	333.88
3027.267	352.88
3030.53	357.88
3033.789	369.88
3037.046	369.88
3040.301	381.88
3043.552	387.88
3046.801	400.88
3050.048	415.88
3053.291	416.88
3056.532	428.88
3059.771	449.88
3063.006	458.88
3066.239	484.88
3069.469	489.88
3072.697	500.88
3075.922	505.88
3079.144	529.88
3082.364	548.88
3085.581	572.88
3088.795	581.88
3092.007	586.88
3095.216	604.88
3098.423	616.88
3101.627	630.88
3104.828	643.88
3108.026	653.88
3111.222	672.88
3114.416	685.88
3117.607	700.88
3120.795	727.88
3123.98	732.88
3127.163	763.88
3130.344	787.88
3133.521	790.88
3136.696	803.88
3139.869	824.88
3143.039	839.88
3146.206	854.88
3149.371	864.88
3152.533	883.88
3155.693	904.88
3158.85	898.88
3162.005	903.88
3165.157	913.88
3168.306	916.88
3171.453	905.88
3174.597	910.88
3177.739	921.88
3180.878	921.88
3184.014	912.88
3187.149	922.88
3190.28	933.88
3193.409	928.88
3196.536	946.88
3199.659	938.88
3202.781	948.88
3205.9	958.88
3209.016	948.88
3212.13	954.88
3215.241	945.88
3218.35	946.88
3221.456	932.88
3224.56	918.88
3227.661	928.88
3230.76	913.88
3233.856	911.88
3236.95	901.88
3240.041	888.88
3243.13	881.88
3246.216	863.88
3249.3	861.88
3252.382	853.88
3255.46	851.88
3258.537	858.88
3261.611	841.88
3264.682	846.88
3267.751	837.88
3270.818	832.88
3273.882	838.88
3276.943	819.88
3280.002	824.88
3283.059	813.88
3286.113	795.88
3289.165	793.88
3292.214	776.88
3295.261	770.88
3298.306	768.88
3301.348	753.88
3304.387	721.88
3307.425	730.88
3310.459	720.88
3313.492	713.88
3316.521	692.88
3319.549	693.88
3322.574	686.88
3325.597	684.88
3328.617	675.88
3331.635	676.88
3334.65	662.88
3337.663	660.88
3340.674	667.88
3343.682	656.88
3346.688	642.88
3349.691	652.88
3352.692	643.88
3355.691	645.88
3358.687	644.88
3361.681	634.88
3364.673	636.88
3367.662	628.88
3370.649	611.88
3373.633	616.88
3376.615	604.88
3379.595	589.88
3382.572	583.88
3385.547	579.88
3388.52	568.88
3391.49	563.88
3394.458	555.88
3397.424	551.88
3400.387	544.88
3403.348	533.88
3406.307	536.88
3409.263	515.88
3412.217	510.88
3415.168	493.88
3418.118	501.88
3421.065	498.88
3424.009	500.88
3426.951	491.88
3429.891	474.88
3432.829	481.88
3435.764	469.88
3438.697	461.88
3441.628	445.88
3444.557	435.88
3447.483	422.88
3450.407	409.88
3453.328	404.88
3456.247	402.88
3459.164	378.88
3462.079	366.88
3464.991	363.88
3467.902	352.88
3470.809	337.88
3473.715	321.88
3476.618	310.88
3479.519	298.88
3482.418	294.88
3485.315	288.88
3488.209	280.88
3491.101	272.88
3493.99	266.88
3496.878	266.88
3499.763	260.88
3502.646	240.88
3505.527	228.88
3508.405	228.88
3511.281	214.88
3514.155	204.88
3517.027	199.88
3519.897	185.88
3522.764	182.88
3525.629	173.88
3528.492	166.88
3531.352	151.88
3534.211	156.88
3537.067	134.88
3539.921	127.88
3542.773	114.88
3545.622	113.88
3548.469	102.88
3551.315	103.88
3554.157	94.88
3556.998	91.88
3559.837	92.88
3562.673	84.88
3565.507	80.88
3568.339	68.88
3571.169	60.88
3573.996	58.88
3576.822	61.88
3579.645	47.88
3582.466	49.88
3585.285	49.88
3588.101	36.88
3590.916	40.88
3593.728	32.88
3596.538	30.88
3599.346	23.88
3602.152	22.88
3604.956	13.88
3607.757	11.88
3610.556	3.88
3613.354	5.88
3616.149	10.88
3618.942	2.88
3621.732	1.88
3624.521	0.88
3627.307	-1.12
3630.092	-7.12
3632.874	-9.12
3635.654	-19.12
3638.432	-14.12
3641.208	-14.12
3643.982	-20.12
3646.753	-21.12
3649.523	-17.12
3652.29	-23.12
3655.055	-27.12
3657.818	-27.12
3660.579	-28.12
3663.338	-31.12
3666.095	-36.12
3668.849	-39.12
3671.602	-40.12
3674.352	-39.12
3677.101	-44.12
3679.847	-41.12
3682.591	-45.12
3685.333	-51.12
3688.073	-51.12
3690.811	-48.12
3693.547	-54.12
3696.281	-54.12
3699.013	-50.12
3701.742	-52.12
3704.47	-54.12
3707.195	-54.12
3709.919	-53.12
3712.64	-56.12
3715.359	-62.12
3718.076	-60.12
3720.792	-63.12
3723.505	-59.12
3726.216	-58.12
3728.925	-62.12
3731.632	-59.12
3734.336	-60.12
3737.039	-64.12
3739.74	-68.12
3742.439	-66.12
3745.136	-66.12
3747.83	-68.12
3750.523	-68.12
3753.213	-71.12
3755.902	-66.12
3758.589	-66.12
3761.273	-60.12
3763.956	-63.12
3766.636	-70.12
3769.315	-69.12
3771.991	-68.12
3774.665	-73.12
3777.338	-68.12
3780.008	-77.12
3782.677	-74.12
3785.343	-72.12
3788.007	-70.12
3790.67	-69.12
3793.33	-70.12
3795.989	-71.12
3798.645	-68.12
3801.299	-74.12
3803.952	-75.12
3806.602	-74.12
3809.251	-72.12
3811.897	-76.12
3814.542	-79.12
3817.184	-72.12
3819.825	-70.12
3822.463	-65.12
3825.1	-68.12
3827.735	-73.12
3830.367	-72.12
3832.998	-78.12
3835.627	-80.12
3838.253	-80.12
3840.878	-75.12
3843.501	-76.12
3846.122	-73.12
3848.741	-72.12
3851.358	-75.12
3853.973	-72.12
3856.586	-72.12
3859.197	-73.12
3861.806	-76.12
3864.414	-77.12
3867.019	-81.12
3869.622	-77.12
3872.224	-81.12
3874.823	-74.12
3877.421	-69.12
3880.016	-62.12
3882.61	-65.12
3885.202	-65.12
3887.792	-63.12
3890.38	-74.12
3892.966	-72.12
3895.55	-75.12
3898.132	-80.12
3900.713	-78.12
3903.291	-78.12
3905.868	-76.12
3908.442	-76.12
3911.015	-73.12
3913.586	-76.12
3916.155	-74.12
3918.722	-82.12
3921.287	-76.12
3923.85	-83.12
3926.411	-83.12
3928.971	-77.12
3931.528	-81.12
3934.084	-75.12
3936.638	-73.12
3939.19	-76.12
3941.74	-76.12
3944.288	-82.12
3946.834	-76.12
3949.378	-76.12
3951.921	-79.12
3954.462	-82.12
3957	-81.12
3959.537	-78.12
3962.072	-77.12
3964.606	-79.12
3967.137	-74.12
3969.667	-75.12
3972.194	-76.12
3974.72	-75.12
3977.244	-78.12
3979.766	-77.12
3982.286	-75.12
3984.805	-78.12
3987.321	-80.12
3989.836	-81.12
3992.349	-78.12
3994.86	-77.12
3997.369	-75.12
3999.877	-80.12
4002.382	-76.12
4004.886	-76.12
4007.388	-76.12
4009.888	-79.12
4012.386	-76.12
4014.883	-77.12
4017.377	-77.12
4019.87	-79.12
4022.361	-79.12
4024.85	-79.12
4027.338	-79.12
4029.823	-75.12
4032.307	-73.12
4034.789	-72.12
4037.269	-76.12
4039.747	-71.12
4042.224	-79.12
4044.699	-84.12
4047.172	-79.12
4049.643	-78.12
4052.112	-83.12
4054.58	-84.12
4057.046	-82.12
4059.51	-86.12
4061.972	-77.12
4064.432	-75.12
4066.891	-76.12
4069.348	-77.12
4071.803	-79.12
4074.256	-81.12
4076.708	-76.12
4079.158	-84.12
4081.606	-84.12
4084.052	-77.12
4086.497	-79.12
4088.939	-78.12
4091.38	-76.12
4093.819	-80.12
4096.257	-83.12
4098.693	-80.12
4101.127	-79.12
4103.559	-83.12
4105.989	-49.12
4108.418	-47.12
4110.845	-46.12
4113.27	-46.12
4115.694	-44.12
4118.115	-36.12
4120.535	-72.12
4122.954	-81.12
4125.37	-79.12
4127.785	-80.12
4130.198	-80.12
4132.609	-80.12
4135.019	-82.12
4137.427	-80.12
4139.833	-78.12
4142.237	-81.12
