Data from 10000CFU2_A_RamanShift_1.txt Node
Date: Tue Jan 31 15:24:39 IST 2017
User: aro
Spectrometer: QEPB0276
Trigger mode: 0
Integration Time (sec): 5.000000E0
Scans to average: 1
Electric dark correction enabled: true
Nonlinearity correction enabled: false
Boxcar width: 0
XAxis mode: Raman Shifts
Number of Pixels in Spectrum: 1044
>>>>>Begin Spectral Data<<<<<
160.701	-35.5
166.742	2.5
172.777	96.5
178.805	391.5
184.826	1086.5
190.841	2196.5
196.849	3462.5
202.85	4223.5
208.845	4426.5
214.833	4258.5
220.815	4133.5
226.789	3996.5
232.758	3895.5
238.719	3762.5
244.674	3616.5
250.623	3475.5
256.565	3307.5
262.5	3163.5
268.429	3006.5
274.351	2890.5
280.267	2789.5
286.176	2681.5
292.079	2590.5
297.975	2483.5
303.865	2429.5
309.748	2365.5
315.625	2298.5
321.495	2268.5
327.359	2220.5
333.217	2209.5
339.068	2183.5
344.912	2158.5
350.751	2152.5
356.583	2133.5
362.408	2140.5
368.227	2151.5
374.04	2150.5
379.847	2162.5
385.647	2190.5
391.44	2169.5
397.228	2200.5
403.009	2203.5
408.784	2227.5
414.553	2221.5
420.315	2235.5
426.071	2225.5
431.821	2224.5
437.565	2246.5
443.302	2209.5
449.033	2218.5
454.758	2219.5
460.477	2204.5
466.189	2192.5
471.896	2162.5
477.596	2162.5
483.29	2164.5
488.978	2139.5
494.66	2136.5
500.335	2109.5
506.005	2088.5
511.668	2043.5
517.325	1994.5
522.977	1964.5
528.622	1951.5
534.261	1925.5
539.894	1891.5
545.521	1899.5
551.141	1884.5
556.756	1864.5
562.365	1846.5
567.968	1835.5
573.565	1828.5
579.155	1816.5
584.74	1809.5
590.319	1773.5
595.892	1792.5
601.459	1768.5
607.02	1769.5
612.575	1761.5
618.124	1735.5
623.667	1728.5
629.204	1713.5
634.735	1698.5
640.261	1675.5
645.781	1664.5
651.294	1659.5
656.802	1662.5
662.304	1632.5
667.8	1635.5
673.29	1624.5
678.775	1625.5
684.254	1633.5
689.726	1597.5
695.193	1599.5
700.655	1607.5
706.11	1596.5
711.56	1576.5
717.004	1564.5
722.442	1568.5
727.874	1537.5
733.301	1541.5
738.722	1525.5
744.137	1509.5
749.547	1512.5
754.951	1512.5
760.349	1508.5
765.741	1502.5
771.128	1512.5
776.509	1521.5
781.885	1516.5
787.254	1514.5
792.618	1507.5
797.977	1493.5
803.33	1491.5
808.677	1462.5
814.019	1460.5
819.355	1435.5
824.686	1415.5
830.011	1415.5
835.33	1402.5
840.644	1400.5
845.952	1392.5
851.255	1381.5
856.552	1382.5
861.844	1371.5
867.13	1364.5
872.41	1362.5
877.686	1338.5
882.955	1327.5
888.219	1308.5
893.478	1309.5
898.731	1284.5
903.979	1270.5
909.221	1242.5
914.458	1225.5
919.69	1228.5
924.916	1209.5
930.136	1219.5
935.351	1231.5
940.561	1216.5
945.766	1216.5
950.965	1214.5
956.158	1215.5
961.347	1194.5
966.529	1171.5
971.707	1178.5
976.879	1142.5
982.046	1137.5
987.208	1131.5
992.364	1129.5
997.515	1131.5
1002.66	1139.5
1007.801	1133.5
1012.936	1148.5
1018.066	1152.5
1023.19	1147.5
1028.309	1167.5
1033.423	1160.5
1038.532	1166.5
1043.636	1173.5
1048.734	1151.5
1053.827	1143.5
1058.915	1134.5
1063.998	1130.5
1069.075	1110.5
1074.147	1123.5
1079.214	1129.5
1084.276	1127.5
1089.333	1129.5
1094.385	1150.5
1099.431	1156.5
1104.472	1153.5
1109.509	1159.5
1114.54	1139.5
1119.565	1130.5
1124.586	1121.5
1129.602	1095.5
1134.613	1091.5
1139.618	1088.5
1144.619	1097.5
1149.614	1091.5
1154.604	1109.5
1159.589	1107.5
1164.57	1097.5
1169.545	1121.5
1174.515	1117.5
1179.48	1125.5
1184.44	1137.5
1189.395	1105.5
1194.345	1093.5
1199.29	1104.5
1204.23	1090.5
1209.165	1090.5
1214.095	1107.5
1219.021	1116.5
1223.941	1108.5
1228.856	1126.5
1233.766	1121.5
1238.672	1110.5
1243.572	1129.5
1248.467	1134.5
1253.358	1116.5
1258.244	1110.5
1263.124	1094.5
1268	1080.5
1272.871	1060.5
1277.737	1053.5
1282.599	1058.5
1287.455	1051.5
1292.306	1055.5
1297.153	1048.5
1301.995	1063.5
1306.832	1067.5
1311.664	1072.5
1316.491	1080.5
1321.314	1077.5
1326.132	1093.5
1330.945	1070.5
1335.753	1056.5
1340.556	1038.5
1345.354	1034.5
1350.148	1024.5
1354.937	1004.5
1359.722	1004.5
1364.501	998.5
1369.276	989.5
1374.046	973.5
1378.811	980.5
1383.572	979.5
1388.327	976.5
1393.079	968.5
1397.825	962.5
1402.567	956.5
1407.304	959.5
1412.036	973.5
1416.764	941.5
1421.487	964.5
1426.205	954.5
1430.919	950.5
1435.628	967.5
1440.333	969.5
1445.032	987.5
1449.727	1003.5
1454.418	990.5
1459.104	999.5
1463.785	1008.5
1468.462	995.5
1473.134	992.5
1477.802	979.5
1482.465	963.5
1487.123	978.5
1491.777	971.5
1496.426	980.5
1501.071	960.5
1505.711	987.5
1510.347	992.5
1514.978	1008.5
1519.604	1016.5
1524.226	1015.5
1528.844	1018.5
1533.457	1025.5
1538.065	1027.5
1542.669	1018.5
1547.269	1013.5
1551.864	1029.5
1556.454	1033.5
1561.041	1036.5
1565.622	1041.5
1570.199	1057.5
1574.772	1083.5
1579.34	1098.5
1583.904	1111.5
1588.464	1129.5
1593.019	1140.5
1597.569	1151.5
1602.115	1195.5
1606.657	1207.5
1611.195	1198.5
1615.728	1208.5
1620.256	1225.5
1624.78	1249.5
1629.3	1261.5
1633.816	1278.5
1638.327	1300.5
1642.834	1304.5
1647.336	1316.5
1651.834	1304.5
1656.328	1320.5
1660.817	1324.5
1665.302	1299.5
1669.783	1271.5
1674.259	1237.5
1678.732	1206.5
1683.199	1172.5
1687.663	1133.5
1692.122	1095.5
1696.577	1055.5
1701.028	1009.5
1705.474	948.5
1709.917	911.5
1714.355	907.5
1718.788	881.5
1723.218	879.5
1727.643	854.5
1732.064	853.5
1736.481	829.5
1740.893	810.5
1745.301	778.5
1749.705	757.5
1754.105	735.5
1758.501	722.5
1762.893	703.5
1767.28	709.5
1771.663	710.5
1776.042	684.5
1780.417	695.5
1784.787	703.5
1789.154	692.5
1793.516	703.5
1797.874	703.5
1802.228	688.5
1806.578	670.5
1810.924	658.5
1815.266	660.5
1819.603	655.5
1823.937	644.5
1828.266	631.5
1832.591	629.5
1836.913	621.5
1841.23	621.5
1845.543	624.5
1849.852	630.5
1854.156	623.5
1858.457	623.5
1862.754	626.5
1867.047	647.5
1871.335	631.5
1875.62	633.5
1879.9	644.5
1884.177	643.5
1888.449	648.5
1892.718	650.5
1896.982	641.5
1901.243	644.5
1905.499	639.5
1909.752	641.5
1914	623.5
1918.245	624.5
1922.485	627.5
1926.722	656.5
1930.954	639.5
1935.183	639.5
1939.408	632.5
1943.628	640.5
1947.845	641.5
1952.058	638.5
1956.267	643.5
1960.472	633.5
1964.673	625.5
1968.87	622.5
1973.063	615.5
1977.252	604.5
1981.438	615.5
1985.619	609.5
1989.797	601.5
1993.971	607.5
1998.14	601.5
2002.306	606.5
2006.469	618.5
2010.627	608.5
2014.781	628.5
2018.932	620.5
2023.078	613.5
2027.221	622.5
2031.36	615.5
2035.495	612.5
2039.627	600.5
2043.754	590.5
2047.878	602.5
2051.998	596.5
2056.114	605.5
2060.226	594.5
2064.334	610.5
2068.439	601.5
2072.54	621.5
2076.637	614.5
2080.73	611.5
2084.82	622.5
2088.906	611.5
2092.988	616.5
2097.066	606.5
2101.14	614.5
2105.211	620.5
2109.278	618.5
2113.342	614.5
2117.401	593.5
2121.457	606.5
2125.509	594.5
2129.558	586.5
2133.602	592.5
2137.643	581.5
2141.681	589.5
2145.714	582.5
2149.744	584.5
2153.77	572.5
2157.793	571.5
2161.812	571.5
2165.827	561.5
2169.838	551.5
2173.846	547.5
2177.851	529.5
2181.851	521.5
2185.848	522.5
2189.841	515.5
2193.831	516.5
2197.817	517.5
2201.799	505.5
2205.778	510.5
2209.753	505.5
2213.725	502.5
2217.693	502.5
2221.657	506.5
2225.618	500.5
2229.575	496.5
2233.529	488.5
2237.479	488.5
2241.425	486.5
2245.368	483.5
2249.307	473.5
2253.243	461.5
2257.175	464.5
2261.104	454.5
2265.029	453.5
2268.95	444.5
2272.868	432.5
2276.783	428.5
2280.694	422.5
2284.601	421.5
2288.505	425.5
2292.405	416.5
2296.302	413.5
2300.195	397.5
2304.085	396.5
2307.971	392.5
2311.854	384.5
2315.734	375.5
2319.609	378.5
2323.482	364.5
2327.351	357.5
2331.216	367.5
2335.078	356.5
2338.937	359.5
2342.792	349.5
2346.643	353.5
2350.492	348.5
2354.336	346.5
2358.178	342.5
2362.015	339.5
2365.85	355.5
2369.681	352.5
2373.508	361.5
2377.333	352.5
2381.153	347.5
2384.971	354.5
2388.785	348.5
2392.595	342.5
2396.402	343.5
2400.206	335.5
2404.007	341.5
2407.804	337.5
2411.597	330.5
2415.388	337.5
2419.174	332.5
2422.958	329.5
2426.738	332.5
2430.515	339.5
2434.289	324.5
2438.059	323.5
2441.825	318.5
2445.589	326.5
2449.349	327.5
2453.106	311.5
2456.859	313.5
2460.61	317.5
2464.356	310.5
2468.1	316.5
2471.84	301.5
2475.577	305.5
2479.311	307.5
2483.041	300.5
2486.768	305.5
2490.492	301.5
2494.213	306.5
2497.93	303.5
2501.644	308.5
2505.355	304.5
2509.062	302.5
2512.766	302.5
2516.467	299.5
2520.165	295.5
2523.859	307.5
2527.551	300.5
2531.239	288.5
2534.923	281.5
2538.605	282.5
2542.283	285.5
2545.958	283.5
2549.63	284.5
2553.299	280.5
2556.964	269.5
2560.626	276.5
2564.285	275.5
2567.941	276.5
2571.594	268.5
2575.243	278.5
2578.89	272.5
2582.533	264.5
2586.173	258.5
2589.809	262.5
2593.443	252.5
2597.073	254.5
2600.701	258.5
2604.325	260.5
2607.946	260.5
2611.564	252.5
2615.178	246.5
2618.79	245.5
2622.398	232.5
2626.004	243.5
2629.606	248.5
2633.205	236.5
2636.801	233.5
2640.394	234.5
2643.983	238.5
2647.57	238.5
2651.153	238.5
2654.734	229.5
2658.311	218.5
2661.885	230.5
2665.456	210.5
2669.025	219.5
2672.589	229.5
2676.151	213.5
2679.71	210.5
2683.266	221.5
2686.819	206.5
2690.368	207.5
2693.915	214.5
2697.458	208.5
2700.999	199.5
2704.536	201.5
2708.071	195.5
2711.602	205.5
2715.13	204.5
2718.656	197.5
2722.178	201.5
2725.697	199.5
2729.214	198.5
2732.727	202.5
2736.237	198.5
2739.744	204.5
2743.249	214.5
2746.75	199.5
2750.248	204.5
2753.743	197.5
2757.236	198.5
2760.725	200.5
2764.211	197.5
2767.695	199.5
2771.175	191.5
2774.652	200.5
2778.127	188.5
2781.598	195.5
2785.067	189.5
2788.532	189.5
2791.995	184.5
2795.455	196.5
2798.911	195.5
2802.365	196.5
2805.816	200.5
2809.264	192.5
2812.709	191.5
2816.151	210.5
2819.59	208.5
2823.026	194.5
2826.46	205.5
2829.89	201.5
2833.318	204.5
2836.742	204.5
2840.164	206.5
2843.583	206.5
2846.999	209.5
2850.412	207.5
2853.822	211.5
2857.229	211.5
2860.634	220.5
2864.035	218.5
2867.434	230.5
2870.83	231.5
2874.223	231.5
2877.613	226.5
2881	226.5
2884.385	236.5
2887.766	238.5
2891.145	237.5
2894.521	240.5
2897.894	233.5
2901.264	241.5
2904.631	243.5
2907.996	246.5
2911.358	248.5
2914.717	250.5
2918.073	254.5
2921.426	250.5
2924.777	261.5
2928.124	269.5
2931.469	269.5
2934.811	277.5
2938.15	283.5
2941.487	285.5
2944.821	287.5
2948.152	294.5
2951.48	299.5
2954.805	306.5
2958.128	312.5
2961.447	325.5
2964.765	325.5
2968.079	326.5
2971.39	325.5
2974.699	344.5
2978.005	348.5
2981.308	354.5
2984.609	367.5
2987.907	372.5
2991.202	378.5
2994.494	404.5
2997.784	413.5
3001.07	422.5
3004.355	432.5
3007.636	440.5
3010.915	451.5
3014.191	460.5
3017.464	474.5
3020.734	471.5
3024.002	480.5
3027.267	502.5
3030.53	506.5
3033.789	516.5
3037.046	523.5
3040.301	537.5
3043.552	550.5
3046.801	559.5
3050.048	578.5
3053.291	604.5
3056.532	614.5
3059.771	635.5
3063.006	661.5
3066.239	682.5
3069.469	698.5
3072.697	718.5
3075.922	731.5
3079.144	757.5
3082.364	781.5
3085.581	797.5
3088.795	811.5
3092.007	828.5
3095.216	854.5
3098.423	876.5
3101.627	901.5
3104.828	919.5
3108.026	936.5
3111.222	947.5
3114.416	974.5
3117.607	997.5
3120.795	1017.5
3123.98	1035.5
3127.163	1055.5
3130.344	1093.5
3133.521	1091.5
3136.696	1126.5
3139.869	1162.5
3143.039	1189.5
3146.206	1210.5
3149.371	1198.5
3152.533	1225.5
3155.693	1248.5
3158.85	1263.5
3162.005	1260.5
3165.157	1276.5
3168.306	1265.5
3171.453	1280.5
3174.597	1276.5
3177.739	1275.5
3180.878	1278.5
3184.014	1296.5
3187.149	1281.5
3190.28	1289.5
3193.409	1286.5
3196.536	1311.5
3199.659	1314.5
3202.781	1315.5
3205.9	1322.5
3209.016	1323.5
3212.13	1315.5
3215.241	1320.5
3218.35	1324.5
3221.456	1319.5
3224.56	1293.5
3227.661	1277.5
3230.76	1285.5
3233.856	1277.5
3236.95	1245.5
3240.041	1225.5
3243.13	1230.5
3246.216	1224.5
3249.3	1210.5
3252.382	1206.5
3255.46	1196.5
3258.537	1184.5
3261.611	1173.5
3264.682	1166.5
3267.751	1162.5
3270.818	1164.5
3273.882	1155.5
3276.943	1137.5
3280.002	1146.5
3283.059	1139.5
3286.113	1115.5
3289.165	1099.5
3292.214	1088.5
3295.261	1083.5
3298.306	1043.5
3301.348	1035.5
3304.387	1022.5
3307.425	1015.5
3310.459	993.5
3313.492	990.5
3316.521	980.5
3319.549	971.5
3322.574	955.5
3325.597	951.5
3328.617	949.5
3331.635	933.5
3334.65	918.5
3337.663	909.5
3340.674	924.5
3343.682	920.5
3346.688	905.5
3349.691	904.5
3352.692	915.5
3355.691	902.5
3358.687	894.5
3361.681	890.5
3364.673	885.5
3367.662	871.5
3370.649	849.5
3373.633	851.5
3376.615	831.5
3379.595	823.5
3382.572	820.5
3385.547	815.5
3388.52	791.5
3391.49	786.5
3394.458	771.5
3397.424	764.5
3400.387	744.5
3403.348	742.5
3406.307	728.5
3409.263	722.5
3412.217	726.5
3415.168	700.5
3418.118	706.5
3421.065	691.5
3424.009	683.5
3426.951	675.5
3429.891	667.5
3432.829	648.5
3435.764	642.5
3438.697	637.5
3441.628	611.5
3444.557	600.5
3447.483	579.5
3450.407	570.5
3453.328	558.5
3456.247	538.5
3459.164	529.5
3462.079	519.5
3464.991	490.5
3467.902	489.5
3470.809	464.5
3473.715	452.5
3476.618	439.5
3479.519	421.5
3482.418	420.5
3485.315	407.5
3488.209	380.5
3491.101	378.5
3493.99	366.5
3496.878	348.5
3499.763	343.5
3502.646	336.5
3505.527	320.5
3508.405	308.5
3511.281	292.5
3514.155	291.5
3517.027	272.5
3519.897	258.5
3522.764	243.5
3525.629	236.5
3528.492	227.5
3531.352	212.5
3534.211	198.5
3537.067	189.5
3539.921	174.5
3542.773	169.5
3545.622	157.5
3548.469	149.5
3551.315	138.5
3554.157	135.5
3556.998	129.5
3559.837	117.5
3562.673	112.5
3565.507	102.5
3568.339	93.5
3571.169	85.5
3573.996	76.5
3576.822	78.5
3579.645	73.5
3582.466	67.5
3585.285	67.5
3588.101	54.5
3590.916	48.5
3593.728	42.5
3596.538	34.5
3599.346	28.5
3602.152	34.5
3604.956	25.5
3607.757	15.5
3610.556	12.5
3613.354	9.5
3616.149	11.5
3618.942	6.5
3621.732	-4.5
3624.521	-7.5
3627.307	-8.5
3630.092	-15.5
3632.874	-12.5
3635.654	-26.5
3638.432	-18.5
3641.208	-22.5
3643.982	-29.5
3646.753	-33.5
3649.523	-37.5
3652.29	-38.5
3655.055	-40.5
3657.818	-40.5
3660.579	-43.5
3663.338	-41.5
3666.095	-48.5
3668.849	-53.5
3671.602	-58.5
3674.352	-57.5
3677.101	-60.5
3679.847	-58.5
3682.591	-69.5
3685.333	-66.5
3688.073	-66.5
3690.811	-68.5
3693.547	-75.5
3696.281	-68.5
3699.013	-71.5
3701.742	-76.5
3704.47	-75.5
3707.195	-80.5
3709.919	-75.5
3712.64	-83.5
3715.359	-81.5
3718.076	-82.5
3720.792	-82.5
3723.505	-80.5
3726.216	-83.5
3728.925	-88.5
3731.632	-84.5
3734.336	-83.5
3737.039	-98.5
3739.74	-95.5
3742.439	-90.5
3745.136	-93.5
3747.83	-97.5
3750.523	-93.5
3753.213	-95.5
3755.902	-93.5
3758.589	-86.5
3761.273	-90.5
3763.956	-91.5
3766.636	-96.5
3769.315	-97.5
3771.991	-97.5
3774.665	-93.5
3777.338	-99.5
3780.008	-101.5
3782.677	-97.5
3785.343	-100.5
3788.007	-94.5
3790.67	-93.5
3793.33	-97.5
3795.989	-103.5
3798.645	-100.5
3801.299	-101.5
3803.952	-105.5
3806.602	-102.5
3809.251	-103.5
3811.897	-107.5
3814.542	-103.5
3817.184	-101.5
3819.825	-97.5
3822.463	-102.5
3825.1	-99.5
3827.735	-104.5
3830.367	-103.5
3832.998	-102.5
3835.627	-103.5
3838.253	-104.5
3840.878	-106.5
3843.501	-102.5
3846.122	-101.5
3848.741	-102.5
3851.358	-106.5
3853.973	-106.5
3856.586	-102.5
3859.197	-100.5
3861.806	-104.5
3864.414	-104.5
3867.019	-105.5
3869.622	-104.5
3872.224	-112.5
3874.823	-106.5
3877.421	-100.5
3880.016	-96.5
3882.61	-94.5
3885.202	-101.5
3887.792	-97.5
3890.38	-105.5
3892.966	-107.5
3895.55	-109.5
3898.132	-107.5
3900.713	-105.5
3903.291	-107.5
3905.868	-105.5
3908.442	-109.5
3911.015	-114.5
3913.586	-110.5
3916.155	-106.5
3918.722	-107.5
3921.287	-106.5
3923.85	-110.5
3926.411	-110.5
3928.971	-107.5
3931.528	-115.5
3934.084	-109.5
3936.638	-106.5
3939.19	-109.5
3941.74	-106.5
3944.288	-110.5
3946.834	-107.5
3949.378	-106.5
3951.921	-108.5
3954.462	-109.5
3957	-110.5
3959.537	-111.5
3962.072	-112.5
3964.606	-109.5
3967.137	-110.5
3969.667	-108.5
3972.194	-108.5
3974.72	-103.5
3977.244	-108.5
3979.766	-110.5
3982.286	-107.5
3984.805	-110.5
3987.321	-109.5
3989.836	-110.5
3992.349	-112.5
3994.86	-108.5
3997.369	-107.5
3999.877	-110.5
4002.382	-104.5
4004.886	-106.5
4007.388	-106.5
4009.888	-109.5
4012.386	-109.5
4014.883	-110.5
4017.377	-113.5
4019.87	-109.5
4022.361	-107.5
4024.85	-107.5
4027.338	-109.5
4029.823	-106.5
4032.307	-107.5
4034.789	-110.5
4037.269	-109.5
4039.747	-111.5
4042.224	-114.5
4044.699	-116.5
4047.172	-113.5
4049.643	-111.5
4052.112	-115.5
4054.58	-111.5
4057.046	-112.5
4059.51	-112.5
4061.972	-112.5
4064.432	-112.5
4066.891	-112.5
4069.348	-106.5
4071.803	-110.5
4074.256	-111.5
4076.708	-108.5
4079.158	-109.5
4081.606	-111.5
4084.052	-107.5
4086.497	-112.5
4088.939	-112.5
4091.38	-109.5
4093.819	-116.5
4096.257	-118.5
4098.693	-112.5
4101.127	-110.5
4103.559	-113.5
4105.989	-74.5
4108.418	-66.5
4110.845	-68.5
4113.27	-65.5
4115.694	-55.5
4118.115	-53.5
4120.535	-108.5
4122.954	-114.5
4125.37	-111.5
4127.785	-112.5
4130.198	-109.5
4132.609	-107.5
4135.019	-112.5
4137.427	-113.5
4139.833	-111.5
4142.237	-117.5
