Data from 1000000CFU2_A_RamanShift_1.txt Node
Date: Tue Jan 31 15:31:29 IST 2017
User: aro
Spectrometer: QEPB0276
Trigger mode: 0
Integration Time (sec): 5.000000E0
Scans to average: 1
Electric dark correction enabled: true
Nonlinearity correction enabled: false
Boxcar width: 0
XAxis mode: Raman Shifts
Number of Pixels in Spectrum: 1044
>>>>>Begin Spectral Data<<<<<
160.701	-36.62
166.742	-2.62
172.777	99.38
178.805	399.38
184.826	1107.38
190.841	2281.38
196.849	3582.38
202.85	4392.38
208.845	4564.38
214.833	4469.38
220.815	4317.38
226.789	4182.38
232.758	4099.38
238.719	3964.38
244.674	3835.38
250.623	3651.38
256.565	3487.38
262.5	3360.38
268.429	3230.38
274.351	3080.38
280.267	2985.38
286.176	2899.38
292.079	2801.38
297.975	2718.38
303.865	2633.38
309.748	2562.38
315.625	2511.38
321.495	2457.38
327.359	2419.38
333.217	2405.38
339.068	2379.38
344.912	2352.38
350.751	2356.38
356.583	2350.38
362.408	2335.38
368.227	2348.38
374.04	2346.38
379.847	2357.38
385.647	2366.38
391.44	2396.38
397.228	2421.38
403.009	2426.38
408.784	2430.38
414.553	2431.38
420.315	2440.38
426.071	2426.38
431.821	2444.38
437.565	2433.38
443.302	2421.38
449.033	2427.38
454.758	2424.38
460.477	2410.38
466.189	2406.38
471.896	2398.38
477.596	2395.38
483.29	2369.38
488.978	2354.38
494.66	2345.38
500.335	2322.38
506.005	2289.38
511.668	2249.38
517.325	2211.38
522.977	2187.38
528.622	2141.38
534.261	2150.38
539.894	2124.38
545.521	2095.38
551.141	2091.38
556.756	2079.38
562.365	2073.38
567.968	2068.38
573.565	2041.38
579.155	2043.38
584.74	2030.38
590.319	2007.38
595.892	1999.38
601.459	1981.38
607.02	1995.38
612.575	1965.38
618.124	1954.38
623.667	1928.38
629.204	1933.38
634.735	1909.38
640.261	1886.38
645.781	1889.38
651.294	1863.38
656.802	1859.38
662.304	1857.38
667.8	1838.38
673.29	1842.38
678.775	1823.38
684.254	1836.38
689.726	1844.38
695.193	1829.38
700.655	1814.38
706.11	1795.38
711.56	1797.38
717.004	1770.38
722.442	1777.38
727.874	1761.38
733.301	1751.38
738.722	1729.38
744.137	1738.38
749.547	1724.38
754.951	1741.38
760.349	1721.38
765.741	1712.38
771.128	1740.38
776.509	1742.38
781.885	1734.38
787.254	1748.38
792.618	1732.38
797.977	1717.38
803.33	1720.38
808.677	1709.38
814.019	1681.38
819.355	1660.38
824.686	1641.38
830.011	1651.38
835.33	1649.38
840.644	1666.38
845.952	1617.38
851.255	1626.38
856.552	1607.38
861.844	1598.38
867.13	1616.38
872.41	1604.38
877.686	1585.38
882.955	1563.38
888.219	1565.38
893.478	1552.38
898.731	1512.38
903.979	1517.38
909.221	1481.38
914.458	1468.38
919.69	1447.38
924.916	1471.38
930.136	1451.38
935.351	1457.38
940.561	1470.38
945.766	1447.38
950.965	1458.38
956.158	1454.38
961.347	1434.38
966.529	1414.38
971.707	1412.38
976.879	1396.38
982.046	1379.38
987.208	1369.38
992.364	1363.38
997.515	1354.38
1002.66	1367.38
1007.801	1379.38
1012.936	1388.38
1018.066	1398.38
1023.19	1425.38
1028.309	1427.38
1033.423	1445.38
1038.532	1433.38
1043.636	1417.38
1048.734	1400.38
1053.827	1392.38
1058.915	1367.38
1063.998	1385.38
1069.075	1350.38
1074.147	1364.38
1079.214	1378.38
1084.276	1366.38
1089.333	1375.38
1094.385	1378.38
1099.431	1407.38
1104.472	1430.38
1109.509	1402.38
1114.54	1408.38
1119.565	1391.38
1124.586	1377.38
1129.602	1355.38
1134.613	1333.38
1139.618	1331.38
1144.619	1326.38
1149.614	1353.38
1154.604	1351.38
1159.589	1344.38
1164.57	1365.38
1169.545	1385.38
1174.515	1374.38
1179.48	1389.38
1184.44	1360.38
1189.395	1361.38
1194.345	1356.38
1199.29	1363.38
1204.23	1355.38
1209.165	1366.38
1214.095	1354.38
1219.021	1356.38
1223.941	1387.38
1228.856	1386.38
1233.766	1384.38
1238.672	1418.38
1243.572	1408.38
1248.467	1392.38
1253.358	1388.38
1258.244	1364.38
1263.124	1348.38
1268	1334.38
1272.871	1318.38
1277.737	1309.38
1282.599	1299.38
1287.455	1300.38
1292.306	1305.38
1297.153	1326.38
1301.995	1336.38
1306.832	1337.38
1311.664	1339.38
1316.491	1348.38
1321.314	1339.38
1326.132	1358.38
1330.945	1327.38
1335.753	1317.38
1340.556	1301.38
1345.354	1296.38
1350.148	1284.38
1354.937	1271.38
1359.722	1264.38
1364.501	1250.38
1369.276	1234.38
1374.046	1222.38
1378.811	1224.38
1383.572	1223.38
1388.327	1215.38
1393.079	1202.38
1397.825	1208.38
1402.567	1197.38
1407.304	1196.38
1412.036	1196.38
1416.764	1187.38
1421.487	1185.38
1426.205	1183.38
1430.919	1200.38
1435.628	1215.38
1440.333	1241.38
1445.032	1240.38
1449.727	1252.38
1454.418	1246.38
1459.104	1246.38
1463.785	1252.38
1468.462	1240.38
1473.134	1229.38
1477.802	1228.38
1482.465	1215.38
1487.123	1215.38
1491.777	1214.38
1496.426	1220.38
1501.071	1241.38
1505.711	1239.38
1510.347	1261.38
1514.978	1263.38
1519.604	1253.38
1524.226	1275.38
1528.844	1292.38
1533.457	1269.38
1538.065	1267.38
1542.669	1249.38
1547.269	1258.38
1551.864	1277.38
1556.454	1261.38
1561.041	1270.38
1565.622	1273.38
1570.199	1281.38
1574.772	1311.38
1579.34	1331.38
1583.904	1350.38
1588.464	1370.38
1593.019	1394.38
1597.569	1410.38
1602.115	1427.38
1606.657	1431.38
1611.195	1443.38
1615.728	1455.38
1620.256	1457.38
1624.78	1478.38
1629.3	1498.38
1633.816	1514.38
1638.327	1531.38
1642.834	1540.38
1647.336	1542.38
1651.834	1549.38
1656.328	1564.38
1660.817	1557.38
1665.302	1527.38
1669.783	1510.38
1674.259	1481.38
1678.732	1456.38
1683.199	1396.38
1687.663	1371.38
1692.122	1320.38
1696.577	1292.38
1701.028	1229.38
1705.474	1176.38
1709.917	1135.38
1714.355	1096.38
1718.788	1089.38
1723.218	1091.38
1727.643	1075.38
1732.064	1075.38
1736.481	1057.38
1740.893	1018.38
1745.301	995.38
1749.705	981.38
1754.105	957.38
1758.501	937.38
1762.893	918.38
1767.28	912.38
1771.663	908.38
1776.042	907.38
1780.417	915.38
1784.787	909.38
1789.154	908.38
1793.516	906.38
1797.874	909.38
1802.228	901.38
1806.578	886.38
1810.924	871.38
1815.266	865.38
1819.603	855.38
1823.937	839.38
1828.266	841.38
1832.591	852.38
1836.913	832.38
1841.23	818.38
1845.543	819.38
1849.852	835.38
1854.156	836.38
1858.457	824.38
1862.754	832.38
1867.047	834.38
1871.335	843.38
1875.62	842.38
1879.9	863.38
1884.177	863.38
1888.449	849.38
1892.718	852.38
1896.982	857.38
1901.243	840.38
1905.499	833.38
1909.752	837.38
1914	837.38
1918.245	843.38
1922.485	836.38
1926.722	853.38
1930.954	842.38
1935.183	847.38
1939.408	841.38
1943.628	852.38
1947.845	850.38
1952.058	847.38
1956.267	847.38
1960.472	842.38
1964.673	827.38
1968.87	823.38
1973.063	814.38
1977.252	807.38
1981.438	799.38
1985.619	804.38
1989.797	784.38
1993.971	787.38
1998.14	788.38
2002.306	790.38
2006.469	799.38
2010.627	795.38
2014.781	809.38
2018.932	809.38
2023.078	808.38
2027.221	817.38
2031.36	804.38
2035.495	797.38
2039.627	789.38
2043.754	776.38
2047.878	787.38
2051.998	785.38
2056.114	788.38
2060.226	784.38
2064.334	791.38
2068.439	787.38
2072.54	796.38
2076.637	798.38
2080.73	787.38
2084.82	808.38
2088.906	799.38
2092.988	801.38
2097.066	805.38
2101.14	802.38
2105.211	802.38
2109.278	781.38
2113.342	789.38
2117.401	762.38
2121.457	773.38
2125.509	764.38
2129.558	761.38
2133.602	767.38
2137.643	751.38
2141.681	760.38
2145.714	748.38
2149.744	737.38
2153.77	760.38
2157.793	740.38
2161.812	731.38
2165.827	719.38
2169.838	728.38
2173.846	713.38
2177.851	691.38
2181.851	693.38
2185.848	681.38
2189.841	689.38
2193.831	681.38
2197.817	667.38
2201.799	666.38
2205.778	658.38
2209.753	657.38
2213.725	647.38
2217.693	659.38
2221.657	651.38
2225.618	655.38
2229.575	667.38
2233.529	641.38
2237.479	645.38
2241.425	645.38
2245.368	648.38
2249.307	630.38
2253.243	623.38
2257.175	609.38
2261.104	600.38
2265.029	594.38
2268.95	576.38
2272.868	596.38
2276.783	561.38
2280.694	560.38
2284.601	554.38
2288.505	565.38
2292.405	546.38
2296.302	552.38
2300.195	536.38
2304.085	525.38
2307.971	528.38
2311.854	510.38
2315.734	497.38
2319.609	507.38
2323.482	495.38
2327.351	482.38
2331.216	486.38
2335.078	476.38
2338.937	486.38
2342.792	469.38
2346.643	470.38
2350.492	480.38
2354.336	467.38
2358.178	478.38
2362.015	473.38
2365.85	479.38
2369.681	474.38
2373.508	485.38
2377.333	480.38
2381.153	476.38
2384.971	478.38
2388.785	476.38
2392.595	477.38
2396.402	474.38
2400.206	468.38
2404.007	477.38
2407.804	457.38
2411.597	451.38
2415.388	467.38
2419.174	457.38
2422.958	458.38
2426.738	464.38
2430.515	458.38
2434.289	456.38
2438.059	453.38
2441.825	458.38
2445.589	444.38
2449.349	446.38
2453.106	443.38
2456.859	436.38
2460.61	439.38
2464.356	428.38
2468.1	427.38
2471.84	427.38
2475.577	428.38
2479.311	424.38
2483.041	422.38
2486.768	418.38
2490.492	426.38
2494.213	419.38
2497.93	425.38
2501.644	418.38
2505.355	432.38
2509.062	432.38
2512.766	433.38
2516.467	416.38
2520.165	435.38
2523.859	420.38
2527.551	423.38
2531.239	411.38
2534.923	408.38
2538.605	408.38
2542.283	391.38
2545.958	398.38
2549.63	389.38
2553.299	395.38
2556.964	387.38
2560.626	391.38
2564.285	393.38
2567.941	393.38
2571.594	391.38
2575.243	379.38
2578.89	381.38
2582.533	372.38
2586.173	380.38
2589.809	367.38
2593.443	364.38
2597.073	362.38
2600.701	371.38
2604.325	370.38
2607.946	359.38
2611.564	353.38
2615.178	367.38
2618.79	350.38
2622.398	351.38
2626.004	348.38
2629.606	344.38
2633.205	346.38
2636.801	337.38
2640.394	341.38
2643.983	336.38
2647.57	332.38
2651.153	332.38
2654.734	328.38
2658.311	329.38
2661.885	327.38
2665.456	321.38
2669.025	318.38
2672.589	319.38
2676.151	310.38
2679.71	304.38
2683.266	312.38
2686.819	302.38
2690.368	298.38
2693.915	297.38
2697.458	297.38
2700.999	294.38
2704.536	295.38
2708.071	288.38
2711.602	286.38
2715.13	291.38
2718.656	287.38
2722.178	287.38
2725.697	284.38
2729.214	285.38
2732.727	280.38
2736.237	294.38
2739.744	284.38
2743.249	300.38
2746.75	295.38
2750.248	294.38
2753.743	290.38
2757.236	275.38
2760.725	289.38
2764.211	273.38
2767.695	277.38
2771.175	271.38
2774.652	264.38
2778.127	272.38
2781.598	270.38
2785.067	269.38
2788.532	274.38
2791.995	274.38
2795.455	280.38
2798.911	264.38
2802.365	272.38
2805.816	270.38
2809.264	282.38
2812.709	277.38
2816.151	282.38
2819.59	271.38
2823.026	275.38
2826.46	281.38
2829.89	279.38
2833.318	282.38
2836.742	285.38
2840.164	281.38
2843.583	282.38
2846.999	282.38
2850.412	286.38
2853.822	280.38
2857.229	285.38
2860.634	299.38
2864.035	297.38
2867.434	295.38
2870.83	303.38
2874.223	304.38
2877.613	305.38
2881	303.38
2884.385	310.38
2887.766	296.38
2891.145	295.38
2894.521	295.38
2897.894	294.38
2901.264	306.38
2904.631	306.38
2907.996	302.38
2911.358	306.38
2914.717	310.38
2918.073	323.38
2921.426	314.38
2924.777	311.38
2928.124	327.38
2931.469	324.38
2934.811	340.38
2938.15	340.38
2941.487	342.38
2944.821	350.38
2948.152	362.38
2951.48	360.38
2954.805	369.38
2958.128	365.38
2961.447	366.38
2964.765	365.38
2968.079	368.38
2971.39	389.38
2974.699	391.38
2978.005	407.38
2981.308	405.38
2984.609	426.38
2987.907	426.38
2991.202	434.38
2994.494	451.38
2997.784	459.38
3001.07	465.38
3004.355	478.38
3007.636	489.38
3010.915	496.38
3014.191	504.38
3017.464	515.38
3020.734	510.38
3024.002	522.38
3027.267	543.38
3030.53	543.38
3033.789	557.38
3037.046	564.38
3040.301	574.38
3043.552	587.38
3046.801	600.38
3050.048	623.38
3053.291	645.38
3056.532	639.38
3059.771	675.38
3063.006	685.38
3066.239	718.38
3069.469	721.38
3072.697	749.38
3075.922	762.38
3079.144	782.38
3082.364	815.38
3085.581	827.38
3088.795	844.38
3092.007	873.38
3095.216	880.38
3098.423	900.38
3101.627	926.38
3104.828	929.38
3108.026	953.38
3111.222	962.38
3114.416	986.38
3117.607	1007.38
3120.795	1041.38
3123.98	1056.38
3127.163	1090.38
3130.344	1113.38
3133.521	1126.38
3136.696	1149.38
3139.869	1186.38
3143.039	1186.38
3146.206	1216.38
3149.371	1227.38
3152.533	1248.38
3155.693	1257.38
3158.85	1276.38
3162.005	1285.38
3165.157	1279.38
3168.306	1286.38
3171.453	1276.38
3174.597	1298.38
3177.739	1298.38
3180.878	1305.38
3184.014	1301.38
3187.149	1321.38
3190.28	1306.38
3193.409	1307.38
3196.536	1315.38
3199.659	1323.38
3202.781	1312.38
3205.9	1342.38
3209.016	1331.38
3212.13	1321.38
3215.241	1313.38
3218.35	1321.38
3221.456	1302.38
3224.56	1309.38
3227.661	1293.38
3230.76	1280.38
3233.856	1275.38
3236.95	1267.38
3240.041	1244.38
3243.13	1226.38
3246.216	1217.38
3249.3	1197.38
3252.382	1210.38
3255.46	1188.38
3258.537	1192.38
3261.611	1168.38
3264.682	1173.38
3267.751	1175.38
3270.818	1151.38
3273.882	1161.38
3276.943	1162.38
3280.002	1154.38
3283.059	1126.38
3286.113	1112.38
3289.165	1112.38
3292.214	1101.38
3295.261	1090.38
3298.306	1050.38
3301.348	1049.38
3304.387	1027.38
3307.425	1012.38
3310.459	1006.38
3313.492	984.38
3316.521	972.38
3319.549	971.38
3322.574	951.38
3325.597	941.38
3328.617	942.38
3331.635	949.38
3334.65	934.38
3337.663	925.38
3340.674	921.38
3343.682	921.38
3346.688	921.38
3349.691	911.38
3352.692	912.38
3355.691	902.38
3358.687	906.38
3361.681	885.38
3364.673	880.38
3367.662	873.38
3370.649	863.38
3373.633	852.38
3376.615	840.38
3379.595	828.38
3382.572	821.38
3385.547	811.38
3388.52	798.38
3391.49	787.38
3394.458	764.38
3397.424	767.38
3400.387	750.38
3403.348	750.38
3406.307	735.38
3409.263	721.38
3412.217	708.38
3415.168	723.38
3418.118	700.38
3421.065	687.38
3424.009	691.38
3426.951	666.38
3429.891	665.38
3432.829	651.38
3435.764	641.38
3438.697	630.38
3441.628	631.38
3444.557	604.38
3447.483	587.38
3450.407	566.38
3453.328	563.38
3456.247	543.38
3459.164	530.38
3462.079	509.38
3464.991	495.38
3467.902	479.38
3470.809	471.38
3473.715	452.38
3476.618	438.38
3479.519	433.38
3482.418	416.38
3485.315	404.38
3488.209	392.38
3491.101	373.38
3493.99	375.38
3496.878	361.38
3499.763	350.38
3502.646	330.38
3505.527	325.38
3508.405	318.38
3511.281	296.38
3514.155	296.38
3517.027	287.38
3519.897	264.38
3522.764	251.38
3525.629	234.38
3528.492	230.38
3531.352	211.38
3534.211	206.38
3537.067	199.38
3539.921	176.38
3542.773	163.38
3545.622	158.38
3548.469	152.38
3551.315	141.38
3554.157	137.38
3556.998	120.38
3559.837	120.38
3562.673	120.38
3565.507	106.38
3568.339	92.38
3571.169	88.38
3573.996	86.38
3576.822	79.38
3579.645	69.38
3582.466	67.38
3585.285	65.38
3588.101	50.38
3590.916	49.38
3593.728	44.38
3596.538	39.38
3599.346	36.38
3602.152	31.38
3604.956	24.38
3607.757	15.38
3610.556	9.38
3613.354	9.38
3616.149	10.38
3618.942	5.38
3621.732	0.38
3624.521	-2.62
3627.307	-4.62
3630.092	-9.62
3632.874	-12.62
3635.654	-20.62
3638.432	-28.62
3641.208	-27.62
3643.982	-25.62
3646.753	-28.62
3649.523	-32.62
3652.29	-33.62
3655.055	-42.62
3657.818	-40.62
3660.579	-42.62
3663.338	-48.62
3666.095	-51.62
3668.849	-48.62
3671.602	-51.62
3674.352	-51.62
3677.101	-57.62
3679.847	-57.62
3682.591	-66.62
3685.333	-62.62
3688.073	-65.62
3690.811	-69.62
3693.547	-72.62
3696.281	-72.62
3699.013	-75.62
3701.742	-74.62
3704.47	-74.62
3707.195	-77.62
3709.919	-75.62
3712.64	-76.62
3715.359	-81.62
3718.076	-79.62
3720.792	-84.62
3723.505	-82.62
3726.216	-85.62
3728.925	-86.62
3731.632	-84.62
3734.336	-87.62
3737.039	-90.62
3739.74	-94.62
3742.439	-89.62
3745.136	-93.62
3747.83	-93.62
3750.523	-92.62
3753.213	-96.62
3755.902	-95.62
3758.589	-91.62
3761.273	-93.62
3763.956	-91.62
3766.636	-93.62
3769.315	-95.62
3771.991	-93.62
3774.665	-96.62
3777.338	-99.62
3780.008	-102.62
3782.677	-99.62
3785.343	-103.62
3788.007	-100.62
3790.67	-100.62
3793.33	-97.62
3795.989	-99.62
3798.645	-98.62
3801.299	-97.62
3803.952	-104.62
3806.602	-99.62
3809.251	-103.62
3811.897	-104.62
3814.542	-104.62
3817.184	-102.62
3819.825	-102.62
3822.463	-98.62
3825.1	-98.62
3827.735	-104.62
3830.367	-100.62
3832.998	-103.62
3835.627	-103.62
3838.253	-105.62
3840.878	-105.62
3843.501	-108.62
3846.122	-108.62
3848.741	-104.62
3851.358	-108.62
3853.973	-104.62
3856.586	-100.62
3859.197	-100.62
3861.806	-104.62
3864.414	-106.62
3867.019	-106.62
3869.622	-106.62
3872.224	-112.62
3874.823	-111.62
3877.421	-104.62
3880.016	-99.62
3882.61	-98.62
3885.202	-99.62
3887.792	-94.62
3890.38	-101.62
3892.966	-104.62
3895.55	-111.62
3898.132	-110.62
3900.713	-108.62
3903.291	-113.62
3905.868	-111.62
3908.442	-108.62
3911.015	-108.62
3913.586	-108.62
3916.155	-106.62
3918.722	-111.62
3921.287	-111.62
3923.85	-112.62
3926.411	-118.62
3928.971	-112.62
3931.528	-115.62
3934.084	-111.62
3936.638	-108.62
3939.19	-110.62
3941.74	-107.62
3944.288	-109.62
3946.834	-110.62
3949.378	-108.62
3951.921	-111.62
3954.462	-113.62
3957	-112.62
3959.537	-115.62
3962.072	-113.62
3964.606	-115.62
3967.137	-109.62
3969.667	-107.62
3972.194	-110.62
3974.72	-105.62
3977.244	-111.62
3979.766	-113.62
3982.286	-110.62
3984.805	-113.62
3987.321	-113.62
3989.836	-112.62
3992.349	-110.62
3994.86	-107.62
3997.369	-108.62
3999.877	-112.62
4002.382	-108.62
4004.886	-108.62
4007.388	-107.62
4009.888	-113.62
4012.386	-111.62
4014.883	-110.62
4017.377	-113.62
4019.87	-112.62
4022.361	-110.62
4024.85	-110.62
4027.338	-110.62
4029.823	-108.62
4032.307	-110.62
4034.789	-107.62
4037.269	-109.62
4039.747	-108.62
4042.224	-110.62
4044.699	-116.62
4047.172	-115.62
4049.643	-113.62
4052.112	-111.62
4054.58	-116.62
4057.046	-114.62
4059.51	-111.62
4061.972	-112.62
4064.432	-107.62
4066.891	-111.62
4069.348	-107.62
4071.803	-113.62
4074.256	-111.62
4076.708	-107.62
4079.158	-118.62
4081.606	-113.62
4084.052	-108.62
4086.497	-109.62
4088.939	-110.62
4091.38	-111.62
4093.819	-114.62
4096.257	-116.62
4098.693	-112.62
4101.127	-112.62
4103.559	-114.62
4105.989	-75.62
4108.418	-74.62
4110.845	-74.62
4113.27	-63.62
4115.694	-59.62
4118.115	-50.62
4120.535	-112.62
4122.954	-114.62
4125.37	-112.62
4127.785	-112.62
4130.198	-112.62
4132.609	-113.62
4135.019	-113.62
4137.427	-113.62
4139.833	-114.62
4142.237	-117.62
