Data from 100000000CFU1_A_RamanShift_1.txt Node
Date: Tue Jan 31 15:37:44 IST 2017
User: aro
Spectrometer: QEPB0276
Trigger mode: 0
Integration Time (sec): 5.000000E0
Scans to average: 1
Electric dark correction enabled: true
Nonlinearity correction enabled: false
Boxcar width: 0
XAxis mode: Raman Shifts
Number of Pixels in Spectrum: 1044
>>>>>Begin Spectral Data<<<<<
160.701	-29.5
166.742	0.5
172.777	72.5
178.805	290.5
184.826	824.5
190.841	1627.5
196.849	2557.5
202.85	3131.5
208.845	3262.5
214.833	3188.5
220.815	3041.5
226.789	2945.5
232.758	2880.5
238.719	2808.5
244.674	2698.5
250.623	2567.5
256.565	2487.5
262.5	2368.5
268.429	2245.5
274.351	2166.5
280.267	2067.5
286.176	2004.5
292.079	1925.5
297.975	1893.5
303.865	1845.5
309.748	1790.5
315.625	1754.5
321.495	1715.5
327.359	1672.5
333.217	1670.5
339.068	1654.5
344.912	1653.5
350.751	1649.5
356.583	1640.5
362.408	1645.5
368.227	1638.5
374.04	1664.5
379.847	1641.5
385.647	1673.5
391.44	1684.5
397.228	1686.5
403.009	1700.5
408.784	1694.5
414.553	1707.5
420.315	1709.5
426.071	1708.5
431.821	1707.5
437.565	1720.5
443.302	1701.5
449.033	1696.5
454.758	1694.5
460.477	1668.5
466.189	1670.5
471.896	1663.5
477.596	1669.5
483.29	1653.5
488.978	1657.5
494.66	1630.5
500.335	1603.5
506.005	1585.5
511.668	1552.5
517.325	1511.5
522.977	1480.5
528.622	1465.5
534.261	1441.5
539.894	1431.5
545.521	1412.5
551.141	1406.5
556.756	1399.5
562.365	1393.5
567.968	1393.5
573.565	1366.5
579.155	1370.5
584.74	1347.5
590.319	1337.5
595.892	1337.5
601.459	1326.5
607.02	1317.5
612.575	1317.5
618.124	1304.5
623.667	1276.5
629.204	1274.5
634.735	1264.5
640.261	1241.5
645.781	1246.5
651.294	1230.5
656.802	1215.5
662.304	1214.5
667.8	1220.5
673.29	1224.5
678.775	1207.5
684.254	1198.5
689.726	1195.5
695.193	1194.5
700.655	1182.5
706.11	1188.5
711.56	1184.5
717.004	1163.5
722.442	1178.5
727.874	1134.5
733.301	1128.5
738.722	1119.5
744.137	1117.5
749.547	1127.5
754.951	1114.5
760.349	1125.5
765.741	1128.5
771.128	1126.5
776.509	1126.5
781.885	1120.5
787.254	1130.5
792.618	1116.5
797.977	1123.5
803.33	1094.5
808.677	1109.5
814.019	1087.5
819.355	1081.5
824.686	1059.5
830.011	1048.5
835.33	1040.5
840.644	1036.5
845.952	1043.5
851.255	1023.5
856.552	1011.5
861.844	1025.5
867.13	1004.5
872.41	1006.5
877.686	1011.5
882.955	1007.5
888.219	992.5
893.478	973.5
898.731	941.5
903.979	933.5
909.221	911.5
914.458	917.5
919.69	900.5
924.916	894.5
930.136	898.5
935.351	901.5
940.561	890.5
945.766	888.5
950.965	875.5
956.158	886.5
961.347	871.5
966.529	868.5
971.707	857.5
976.879	842.5
982.046	840.5
987.208	822.5
992.364	831.5
997.515	838.5
1002.66	831.5
1007.801	823.5
1012.936	857.5
1018.066	848.5
1023.19	861.5
1028.309	850.5
1033.423	864.5
1038.532	856.5
1043.636	852.5
1048.734	850.5
1053.827	845.5
1058.915	820.5
1063.998	840.5
1069.075	820.5
1074.147	824.5
1079.214	824.5
1084.276	825.5
1089.333	841.5
1094.385	835.5
1099.431	848.5
1104.472	854.5
1109.509	840.5
1114.54	828.5
1119.565	838.5
1124.586	809.5
1129.602	803.5
1134.613	791.5
1139.618	797.5
1144.619	788.5
1149.614	801.5
1154.604	804.5
1159.589	811.5
1164.57	812.5
1169.545	815.5
1174.515	817.5
1179.48	820.5
1184.44	813.5
1189.395	809.5
1194.345	797.5
1199.29	811.5
1204.23	805.5
1209.165	803.5
1214.095	799.5
1219.021	815.5
1223.941	812.5
1228.856	817.5
1233.766	820.5
1238.672	826.5
1243.572	815.5
1248.467	823.5
1253.358	820.5
1258.244	810.5
1263.124	786.5
1268	794.5
1272.871	779.5
1277.737	764.5
1282.599	758.5
1287.455	771.5
1292.306	755.5
1297.153	761.5
1301.995	769.5
1306.832	782.5
1311.664	770.5
1316.491	776.5
1321.314	788.5
1326.132	788.5
1330.945	773.5
1335.753	773.5
1340.556	746.5
1345.354	745.5
1350.148	738.5
1354.937	722.5
1359.722	726.5
1364.501	729.5
1369.276	709.5
1374.046	709.5
1378.811	705.5
1383.572	709.5
1388.327	717.5
1393.079	712.5
1397.825	691.5
1402.567	695.5
1407.304	678.5
1412.036	686.5
1416.764	683.5
1421.487	686.5
1426.205	681.5
1430.919	706.5
1435.628	705.5
1440.333	700.5
1445.032	704.5
1449.727	715.5
1454.418	713.5
1459.104	731.5
1463.785	723.5
1468.462	712.5
1473.134	716.5
1477.802	706.5
1482.465	700.5
1487.123	702.5
1491.777	704.5
1496.426	707.5
1501.071	710.5
1505.711	698.5
1510.347	719.5
1514.978	724.5
1519.604	743.5
1524.226	746.5
1528.844	731.5
1533.457	750.5
1538.065	733.5
1542.669	740.5
1547.269	739.5
1551.864	736.5
1556.454	745.5
1561.041	736.5
1565.622	753.5
1570.199	759.5
1574.772	765.5
1579.34	796.5
1583.904	804.5
1588.464	813.5
1593.019	830.5
1597.569	839.5
1602.115	845.5
1606.657	854.5
1611.195	864.5
1615.728	876.5
1620.256	886.5
1624.78	892.5
1629.3	909.5
1633.816	939.5
1638.327	932.5
1642.834	959.5
1647.336	952.5
1651.834	950.5
1656.328	943.5
1660.817	948.5
1665.302	941.5
1669.783	918.5
1674.259	899.5
1678.732	878.5
1683.199	831.5
1687.663	810.5
1692.122	772.5
1696.577	768.5
1701.028	716.5
1705.474	687.5
1709.917	663.5
1714.355	653.5
1718.788	621.5
1723.218	630.5
1727.643	618.5
1732.064	601.5
1736.481	577.5
1740.893	574.5
1745.301	563.5
1749.705	542.5
1754.105	526.5
1758.501	518.5
1762.893	510.5
1767.28	504.5
1771.663	497.5
1776.042	500.5
1780.417	491.5
1784.787	494.5
1789.154	496.5
1793.516	498.5
1797.874	492.5
1802.228	489.5
1806.578	479.5
1810.924	471.5
1815.266	457.5
1819.603	464.5
1823.937	461.5
1828.266	454.5
1832.591	456.5
1836.913	453.5
1841.23	444.5
1845.543	443.5
1849.852	444.5
1854.156	440.5
1858.457	447.5
1862.754	436.5
1867.047	451.5
1871.335	447.5
1875.62	451.5
1879.9	454.5
1884.177	453.5
1888.449	454.5
1892.718	466.5
1896.982	457.5
1901.243	455.5
1905.499	448.5
1909.752	439.5
1914	442.5
1918.245	446.5
1922.485	447.5
1926.722	448.5
1930.954	455.5
1935.183	447.5
1939.408	459.5
1943.628	446.5
1947.845	461.5
1952.058	458.5
1956.267	462.5
1960.472	446.5
1964.673	440.5
1968.87	439.5
1973.063	437.5
1977.252	436.5
1981.438	433.5
1985.619	423.5
1989.797	430.5
1993.971	424.5
1998.14	420.5
2002.306	421.5
2006.469	427.5
2010.627	440.5
2014.781	443.5
2018.932	429.5
2023.078	428.5
2027.221	442.5
2031.36	435.5
2035.495	434.5
2039.627	423.5
2043.754	429.5
2047.878	425.5
2051.998	428.5
2056.114	422.5
2060.226	429.5
2064.334	430.5
2068.439	433.5
2072.54	435.5
2076.637	432.5
2080.73	437.5
2084.82	440.5
2088.906	444.5
2092.988	436.5
2097.066	435.5
2101.14	443.5
2105.211	439.5
2109.278	438.5
2113.342	440.5
2117.401	431.5
2121.457	435.5
2125.509	411.5
2129.558	408.5
2133.602	416.5
2137.643	410.5
2141.681	415.5
2145.714	409.5
2149.744	404.5
2153.77	426.5
2157.793	405.5
2161.812	410.5
2165.827	392.5
2169.838	397.5
2173.846	378.5
2177.851	376.5
2181.851	369.5
2185.848	374.5
2189.841	370.5
2193.831	367.5
2197.817	365.5
2201.799	357.5
2205.778	351.5
2209.753	349.5
2213.725	351.5
2217.693	356.5
2221.657	355.5
2225.618	356.5
2229.575	359.5
2233.529	349.5
2237.479	354.5
2241.425	355.5
2245.368	336.5
2249.307	346.5
2253.243	332.5
2257.175	322.5
2261.104	321.5
2265.029	320.5
2268.95	307.5
2272.868	311.5
2276.783	295.5
2280.694	299.5
2284.601	292.5
2288.505	298.5
2292.405	287.5
2296.302	292.5
2300.195	280.5
2304.085	277.5
2307.971	281.5
2311.854	274.5
2315.734	265.5
2319.609	259.5
2323.482	261.5
2327.351	253.5
2331.216	250.5
2335.078	250.5
2338.937	250.5
2342.792	244.5
2346.643	242.5
2350.492	239.5
2354.336	243.5
2358.178	232.5
2362.015	236.5
2365.85	255.5
2369.681	245.5
2373.508	247.5
2377.333	243.5
2381.153	247.5
2384.971	252.5
2388.785	242.5
2392.595	230.5
2396.402	241.5
2400.206	238.5
2404.007	240.5
2407.804	235.5
2411.597	243.5
2415.388	234.5
2419.174	232.5
2422.958	222.5
2426.738	234.5
2430.515	226.5
2434.289	221.5
2438.059	220.5
2441.825	230.5
2445.589	220.5
2449.349	225.5
2453.106	220.5
2456.859	220.5
2460.61	218.5
2464.356	212.5
2468.1	212.5
2471.84	208.5
2475.577	204.5
2479.311	213.5
2483.041	208.5
2486.768	205.5
2490.492	215.5
2494.213	218.5
2497.93	210.5
2501.644	211.5
2505.355	211.5
2509.062	215.5
2512.766	203.5
2516.467	210.5
2520.165	204.5
2523.859	206.5
2527.551	205.5
2531.239	201.5
2534.923	196.5
2538.605	206.5
2542.283	198.5
2545.958	195.5
2549.63	189.5
2553.299	198.5
2556.964	188.5
2560.626	186.5
2564.285	185.5
2567.941	192.5
2571.594	190.5
2575.243	186.5
2578.89	183.5
2582.533	184.5
2586.173	188.5
2589.809	172.5
2593.443	173.5
2597.073	177.5
2600.701	176.5
2604.325	178.5
2607.946	179.5
2611.564	175.5
2615.178	170.5
2618.79	170.5
2622.398	174.5
2626.004	170.5
2629.606	167.5
2633.205	159.5
2636.801	159.5
2640.394	163.5
2643.983	162.5
2647.57	165.5
2651.153	164.5
2654.734	157.5
2658.311	155.5
2661.885	157.5
2665.456	149.5
2669.025	147.5
2672.589	156.5
2676.151	146.5
2679.71	143.5
2683.266	151.5
2686.819	144.5
2690.368	144.5
2693.915	146.5
2697.458	149.5
2700.999	139.5
2704.536	144.5
2708.071	138.5
2711.602	133.5
2715.13	131.5
2718.656	136.5
2722.178	134.5
2725.697	134.5
2729.214	141.5
2732.727	142.5
2736.237	135.5
2739.744	133.5
2743.249	146.5
2746.75	141.5
2750.248	137.5
2753.743	138.5
2757.236	133.5
2760.725	128.5
2764.211	134.5
2767.695	144.5
2771.175	134.5
2774.652	134.5
2778.127	135.5
2781.598	135.5
2785.067	134.5
2788.532	136.5
2791.995	129.5
2795.455	131.5
2798.911	132.5
2802.365	132.5
2805.816	135.5
2809.264	135.5
2812.709	137.5
2816.151	145.5
2819.59	146.5
2823.026	132.5
2826.46	143.5
2829.89	147.5
2833.318	147.5
2836.742	143.5
2840.164	140.5
2843.583	139.5
2846.999	149.5
2850.412	145.5
2853.822	161.5
2857.229	149.5
2860.634	151.5
2864.035	152.5
2867.434	162.5
2870.83	170.5
2874.223	165.5
2877.613	164.5
2881	170.5
2884.385	169.5
2887.766	171.5
2891.145	172.5
2894.521	172.5
2897.894	175.5
2901.264	175.5
2904.631	170.5
2907.996	176.5
2911.358	178.5
2914.717	177.5
2918.073	190.5
2921.426	185.5
2924.777	189.5
2928.124	190.5
2931.469	199.5
2934.811	201.5
2938.15	205.5
2941.487	211.5
2944.821	212.5
2948.152	211.5
2951.48	221.5
2954.805	225.5
2958.128	221.5
2961.447	226.5
2964.765	230.5
2968.079	245.5
2971.39	245.5
2974.699	253.5
2978.005	249.5
2981.308	260.5
2984.609	267.5
2987.907	267.5
2991.202	289.5
2994.494	289.5
2997.784	302.5
3001.07	312.5
3004.355	309.5
3007.636	326.5
3010.915	329.5
3014.191	333.5
3017.464	338.5
3020.734	349.5
3024.002	362.5
3027.267	364.5
3030.53	373.5
3033.789	373.5
3037.046	401.5
3040.301	394.5
3043.552	400.5
3046.801	411.5
3050.048	422.5
3053.291	437.5
3056.532	456.5
3059.771	465.5
3063.006	482.5
3066.239	494.5
3069.469	521.5
3072.697	521.5
3075.922	535.5
3079.144	549.5
3082.364	576.5
3085.581	579.5
3088.795	598.5
3092.007	608.5
3095.216	637.5
3098.423	647.5
3101.627	658.5
3104.828	679.5
3108.026	686.5
3111.222	699.5
3114.416	729.5
3117.607	736.5
3120.795	756.5
3123.98	770.5
3127.163	775.5
3130.344	807.5
3133.521	819.5
3136.696	842.5
3139.869	854.5
3143.039	874.5
3146.206	875.5
3149.371	903.5
3152.533	909.5
3155.693	926.5
3158.85	930.5
3162.005	934.5
3165.157	948.5
3168.306	947.5
3171.453	943.5
3174.597	941.5
3177.739	946.5
3180.878	956.5
3184.014	959.5
3187.149	962.5
3190.28	955.5
3193.409	981.5
3196.536	961.5
3199.659	982.5
3202.781	980.5
3205.9	988.5
3209.016	969.5
3212.13	998.5
3215.241	977.5
3218.35	968.5
3221.456	978.5
3224.56	962.5
3227.661	955.5
3230.76	937.5
3233.856	940.5
3236.95	941.5
3240.041	913.5
3243.13	913.5
3246.216	893.5
3249.3	896.5
3252.382	881.5
3255.46	877.5
3258.537	868.5
3261.611	886.5
3264.682	880.5
3267.751	866.5
3270.818	861.5
3273.882	861.5
3276.943	850.5
3280.002	847.5
3283.059	832.5
3286.113	843.5
3289.165	811.5
3292.214	811.5
3295.261	799.5
3298.306	782.5
3301.348	779.5
3304.387	770.5
3307.425	750.5
3310.459	745.5
3313.492	737.5
3316.521	716.5
3319.549	723.5
3322.574	713.5
3325.597	699.5
3328.617	704.5
3331.635	698.5
3334.65	693.5
3337.663	688.5
3340.674	690.5
3343.682	685.5
3346.688	688.5
3349.691	684.5
3352.692	671.5
3355.691	671.5
3358.687	668.5
3361.681	659.5
3364.673	659.5
3367.662	651.5
3370.649	637.5
3373.633	640.5
3376.615	619.5
3379.595	622.5
3382.572	611.5
3385.547	606.5
3388.52	591.5
3391.49	587.5
3394.458	574.5
3397.424	571.5
3400.387	553.5
3403.348	554.5
3406.307	556.5
3409.263	536.5
3412.217	540.5
3415.168	523.5
3418.118	525.5
3421.065	520.5
3424.009	505.5
3426.951	504.5
3429.891	510.5
3432.829	486.5
3435.764	478.5
3438.697	470.5
3441.628	458.5
3444.557	451.5
3447.483	443.5
3450.407	417.5
3453.328	408.5
3456.247	412.5
3459.164	390.5
3462.079	377.5
3464.991	370.5
3467.902	357.5
3470.809	343.5
3473.715	345.5
3476.618	325.5
3479.519	313.5
3482.418	305.5
3485.315	303.5
3488.209	295.5
3491.101	274.5
3493.99	274.5
3496.878	265.5
3499.763	261.5
3502.646	254.5
3505.527	250.5
3508.405	237.5
3511.281	215.5
3514.155	204.5
3517.027	203.5
3519.897	186.5
3522.764	183.5
3525.629	179.5
3528.492	167.5
3531.352	158.5
3534.211	152.5
3537.067	144.5
3539.921	135.5
3542.773	125.5
3545.622	116.5
3548.469	108.5
3551.315	102.5
3554.157	105.5
3556.998	90.5
3559.837	93.5
3562.673	77.5
3565.507	74.5
3568.339	75.5
3571.169	64.5
3573.996	59.5
3576.822	59.5
3579.645	51.5
3582.466	46.5
3585.285	40.5
3588.101	32.5
3590.916	35.5
3593.728	36.5
3596.538	28.5
3599.346	30.5
3602.152	23.5
3604.956	17.5
3607.757	8.5
3610.556	6.5
3613.354	1.5
3616.149	4.5
3618.942	1.5
3621.732	-7.5
3624.521	-5.5
3627.307	-5.5
3630.092	-9.5
3632.874	-7.5
3635.654	-19.5
3638.432	-20.5
3641.208	-18.5
3643.982	-23.5
3646.753	-26.5
3649.523	-23.5
3652.29	-26.5
3655.055	-27.5
3657.818	-28.5
3660.579	-30.5
3663.338	-34.5
3666.095	-39.5
3668.849	-45.5
3671.602	-45.5
3674.352	-46.5
3677.101	-45.5
3679.847	-45.5
3682.591	-48.5
3685.333	-51.5
3688.073	-50.5
3690.811	-51.5
3693.547	-55.5
3696.281	-53.5
3699.013	-58.5
3701.742	-61.5
3704.47	-64.5
3707.195	-60.5
3709.919	-56.5
3712.64	-62.5
3715.359	-59.5
3718.076	-61.5
3720.792	-58.5
3723.505	-63.5
3726.216	-60.5
3728.925	-71.5
3731.632	-69.5
3734.336	-65.5
3737.039	-73.5
3739.74	-72.5
3742.439	-68.5
3745.136	-65.5
3747.83	-70.5
3750.523	-66.5
3753.213	-79.5
3755.902	-69.5
3758.589	-68.5
3761.273	-71.5
3763.956	-65.5
3766.636	-74.5
3769.315	-71.5
3771.991	-70.5
3774.665	-67.5
3777.338	-73.5
3780.008	-75.5
3782.677	-72.5
3785.343	-74.5
3788.007	-74.5
3790.67	-77.5
3793.33	-70.5
3795.989	-76.5
3798.645	-77.5
3801.299	-76.5
3803.952	-80.5
3806.602	-74.5
3809.251	-75.5
3811.897	-79.5
3814.542	-78.5
3817.184	-76.5
3819.825	-77.5
3822.463	-74.5
3825.1	-76.5
3827.735	-76.5
3830.367	-76.5
3832.998	-80.5
3835.627	-79.5
3838.253	-77.5
3840.878	-77.5
3843.501	-75.5
3846.122	-76.5
3848.741	-73.5
3851.358	-82.5
3853.973	-78.5
3856.586	-77.5
3859.197	-78.5
3861.806	-81.5
3864.414	-80.5
3867.019	-79.5
3869.622	-78.5
3872.224	-84.5
3874.823	-78.5
3877.421	-75.5
3880.016	-69.5
3882.61	-70.5
3885.202	-70.5
3887.792	-73.5
3890.38	-75.5
3892.966	-75.5
3895.55	-80.5
3898.132	-85.5
3900.713	-77.5
3903.291	-81.5
3905.868	-81.5
3908.442	-79.5
3911.015	-82.5
3913.586	-81.5
3916.155	-80.5
3918.722	-80.5
3921.287	-78.5
3923.85	-83.5
3926.411	-83.5
3928.971	-82.5
3931.528	-82.5
3934.084	-81.5
3936.638	-79.5
3939.19	-80.5
3941.74	-81.5
3944.288	-83.5
3946.834	-76.5
3949.378	-81.5
3951.921	-84.5
3954.462	-84.5
3957	-82.5
3959.537	-83.5
3962.072	-83.5
3964.606	-86.5
3967.137	-82.5
3969.667	-78.5
3972.194	-83.5
3974.72	-78.5
3977.244	-78.5
3979.766	-83.5
3982.286	-78.5
3984.805	-81.5
3987.321	-83.5
3989.836	-85.5
3992.349	-86.5
3994.86	-83.5
3997.369	-83.5
3999.877	-86.5
4002.382	-79.5
4004.886	-80.5
4007.388	-78.5
4009.888	-80.5
4012.386	-83.5
4014.883	-80.5
4017.377	-83.5
4019.87	-85.5
4022.361	-87.5
4024.85	-85.5
4027.338	-84.5
4029.823	-79.5
4032.307	-75.5
4034.789	-80.5
4037.269	-80.5
4039.747	-80.5
4042.224	-82.5
4044.699	-86.5
4047.172	-84.5
4049.643	-88.5
4052.112	-86.5
4054.58	-85.5
4057.046	-84.5
4059.51	-84.5
4061.972	-83.5
4064.432	-79.5
4066.891	-86.5
4069.348	-79.5
4071.803	-81.5
4074.256	-87.5
4076.708	-83.5
4079.158	-88.5
4081.606	-86.5
4084.052	-78.5
4086.497	-81.5
4088.939	-81.5
4091.38	-82.5
4093.819	-84.5
4096.257	-86.5
4098.693	-83.5
4101.127	-86.5
4103.559	-86.5
4105.989	-59.5
4108.418	-53.5
4110.845	-51.5
4113.27	-49.5
4115.694	-41.5
4118.115	-37.5
4120.535	-81.5
4122.954	-83.5
4125.37	-84.5
4127.785	-86.5
4130.198	-88.5
4132.609	-82.5
4135.019	-84.5
4137.427	-82.5
4139.833	-83.5
4142.237	-83.5
