Data from 100000CFU1_B_RamanShift_1.txt Node
Date: Tue Jan 31 14:37:07 IST 2017
User: aro
Spectrometer: QEPB0276
Trigger mode: 0
Integration Time (sec): 5.000000E0
Scans to average: 1
Electric dark correction enabled: true
Nonlinearity correction enabled: false
Boxcar width: 0
XAxis mode: Raman Shifts
Number of Pixels in Spectrum: 1044
>>>>>Begin Spectral Data<<<<<
160.701	-37.38
166.742	0.62
172.777	92.62
178.805	403.62
184.826	1106.62
190.841	2243.62
196.849	3515.62
202.85	4373.62
208.845	4523.62
214.833	4396.62
220.815	4240.62
226.789	4110.62
232.758	4017.62
238.719	3917.62
244.674	3769.62
250.623	3615.62
256.565	3466.62
262.5	3319.62
268.429	3179.62
274.351	3060.62
280.267	2958.62
286.176	2865.62
292.079	2782.62
297.975	2696.62
303.865	2632.62
309.748	2579.62
315.625	2510.62
321.495	2459.62
327.359	2438.62
333.217	2402.62
339.068	2389.62
344.912	2387.62
350.751	2353.62
356.583	2361.62
362.408	2348.62
368.227	2362.62
374.04	2371.62
379.847	2401.62
385.647	2402.62
391.44	2420.62
397.228	2432.62
403.009	2433.62
408.784	2435.62
414.553	2464.62
420.315	2436.62
426.071	2470.62
431.821	2460.62
437.565	2462.62
443.302	2432.62
449.033	2444.62
454.758	2436.62
460.477	2431.62
466.189	2419.62
471.896	2395.62
477.596	2370.62
483.29	2364.62
488.978	2386.62
494.66	2359.62
500.335	2349.62
506.005	2303.62
511.668	2283.62
517.325	2243.62
522.977	2226.62
528.622	2175.62
534.261	2170.62
539.894	2144.62
545.521	2122.62
551.141	2129.62
556.756	2103.62
562.365	2083.62
567.968	2082.62
573.565	2063.62
579.155	2059.62
584.74	2039.62
590.319	2033.62
595.892	2032.62
601.459	2011.62
607.02	2011.62
612.575	1983.62
618.124	1966.62
623.667	1962.62
629.204	1942.62
634.735	1923.62
640.261	1926.62
645.781	1916.62
651.294	1902.62
656.802	1880.62
662.304	1878.62
667.8	1873.62
673.29	1865.62
678.775	1871.62
684.254	1857.62
689.726	1853.62
695.193	1833.62
700.655	1823.62
706.11	1824.62
711.56	1811.62
717.004	1815.62
722.442	1810.62
727.874	1796.62
733.301	1772.62
738.722	1766.62
744.137	1760.62
749.547	1768.62
754.951	1761.62
760.349	1737.62
765.741	1759.62
771.128	1755.62
776.509	1749.62
781.885	1773.62
787.254	1758.62
792.618	1756.62
797.977	1733.62
803.33	1730.62
808.677	1722.62
814.019	1706.62
819.355	1688.62
824.686	1686.62
830.011	1673.62
835.33	1660.62
840.644	1644.62
845.952	1650.62
851.255	1634.62
856.552	1621.62
861.844	1638.62
867.13	1615.62
872.41	1624.62
877.686	1603.62
882.955	1592.62
888.219	1571.62
893.478	1547.62
898.731	1535.62
903.979	1519.62
909.221	1505.62
914.458	1482.62
919.69	1464.62
924.916	1452.62
930.136	1470.62
935.351	1462.62
940.561	1474.62
945.766	1456.62
950.965	1468.62
956.158	1476.62
961.347	1458.62
966.529	1444.62
971.707	1420.62
976.879	1415.62
982.046	1391.62
987.208	1371.62
992.364	1367.62
997.515	1367.62
1002.66	1383.62
1007.801	1396.62
1012.936	1391.62
1018.066	1419.62
1023.19	1433.62
1028.309	1443.62
1033.423	1433.62
1038.532	1435.62
1043.636	1428.62
1048.734	1412.62
1053.827	1398.62
1058.915	1385.62
1063.998	1376.62
1069.075	1358.62
1074.147	1357.62
1079.214	1361.62
1084.276	1385.62
1089.333	1387.62
1094.385	1395.62
1099.431	1417.62
1104.472	1421.62
1109.509	1424.62
1114.54	1400.62
1119.565	1398.62
1124.586	1366.62
1129.602	1343.62
1134.613	1348.62
1139.618	1341.62
1144.619	1338.62
1149.614	1348.62
1154.604	1349.62
1159.589	1353.62
1164.57	1363.62
1169.545	1363.62
1174.515	1374.62
1179.48	1382.62
1184.44	1362.62
1189.395	1339.62
1194.345	1354.62
1199.29	1361.62
1204.23	1347.62
1209.165	1353.62
1214.095	1345.62
1219.021	1347.62
1223.941	1367.62
1228.856	1373.62
1233.766	1390.62
1238.672	1375.62
1243.572	1393.62
1248.467	1388.62
1253.358	1373.62
1258.244	1372.62
1263.124	1342.62
1268	1336.62
1272.871	1309.62
1277.737	1301.62
1282.599	1300.62
1287.455	1292.62
1292.306	1287.62
1297.153	1314.62
1301.995	1306.62
1306.832	1331.62
1311.664	1337.62
1316.491	1327.62
1321.314	1352.62
1326.132	1343.62
1330.945	1333.62
1335.753	1300.62
1340.556	1284.62
1345.354	1271.62
1350.148	1234.62
1354.937	1246.62
1359.722	1225.62
1364.501	1197.62
1369.276	1185.62
1374.046	1177.62
1378.811	1184.62
1383.572	1190.62
1388.327	1187.62
1393.079	1186.62
1397.825	1192.62
1402.567	1195.62
1407.304	1180.62
1412.036	1187.62
1416.764	1185.62
1421.487	1178.62
1426.205	1166.62
1430.919	1196.62
1435.628	1195.62
1440.333	1211.62
1445.032	1218.62
1449.727	1233.62
1454.418	1237.62
1459.104	1233.62
1463.785	1233.62
1468.462	1239.62
1473.134	1224.62
1477.802	1206.62
1482.465	1197.62
1487.123	1178.62
1491.777	1151.62
1496.426	1158.62
1501.071	1144.62
1505.711	1140.62
1510.347	1174.62
1514.978	1188.62
1519.604	1207.62
1524.226	1190.62
1528.844	1204.62
1533.457	1205.62
1538.065	1214.62
1542.669	1219.62
1547.269	1192.62
1551.864	1218.62
1556.454	1214.62
1561.041	1227.62
1565.622	1253.62
1570.199	1258.62
1574.772	1268.62
1579.34	1291.62
1583.904	1300.62
1588.464	1333.62
1593.019	1345.62
1597.569	1377.62
1602.115	1391.62
1606.657	1400.62
1611.195	1385.62
1615.728	1415.62
1620.256	1410.62
1624.78	1429.62
1629.3	1451.62
1633.816	1480.62
1638.327	1492.62
1642.834	1484.62
1647.336	1511.62
1651.834	1505.62
1656.328	1493.62
1660.817	1504.62
1665.302	1485.62
1669.783	1465.62
1674.259	1428.62
1678.732	1398.62
1683.199	1357.62
1687.663	1303.62
1692.122	1243.62
1696.577	1194.62
1701.028	1128.62
1705.474	1090.62
1709.917	1047.62
1714.355	1041.62
1718.788	1032.62
1723.218	1014.62
1727.643	1004.62
1732.064	993.62
1736.481	972.62
1740.893	954.62
1745.301	941.62
1749.705	907.62
1754.105	901.62
1758.501	869.62
1762.893	854.62
1767.28	854.62
1771.663	836.62
1776.042	846.62
1780.417	829.62
1784.787	836.62
1789.154	817.62
1793.516	824.62
1797.874	812.62
1802.228	820.62
1806.578	795.62
1810.924	789.62
1815.266	771.62
1819.603	790.62
1823.937	776.62
1828.266	790.62
1832.591	778.62
1836.913	774.62
1841.23	758.62
1845.543	774.62
1849.852	762.62
1854.156	756.62
1858.457	754.62
1862.754	757.62
1867.047	763.62
1871.335	786.62
1875.62	771.62
1879.9	784.62
1884.177	791.62
1888.449	767.62
1892.718	772.62
1896.982	769.62
1901.243	763.62
1905.499	753.62
1909.752	752.62
1914	752.62
1918.245	739.62
1922.485	735.62
1926.722	740.62
1930.954	743.62
1935.183	740.62
1939.408	742.62
1943.628	736.62
1947.845	740.62
1952.058	730.62
1956.267	738.62
1960.472	729.62
1964.673	731.62
1968.87	725.62
1973.063	722.62
1977.252	717.62
1981.438	714.62
1985.619	716.62
1989.797	720.62
1993.971	713.62
1998.14	705.62
2002.306	708.62
2006.469	719.62
2010.627	714.62
2014.781	732.62
2018.932	740.62
2023.078	728.62
2027.221	738.62
2031.36	733.62
2035.495	729.62
2039.627	715.62
2043.754	717.62
2047.878	703.62
2051.998	685.62
2056.114	715.62
2060.226	708.62
2064.334	714.62
2068.439	719.62
2072.54	701.62
2076.637	712.62
2080.73	711.62
2084.82	719.62
2088.906	713.62
2092.988	708.62
2097.066	705.62
2101.14	701.62
2105.211	695.62
2109.278	700.62
2113.342	706.62
2117.401	692.62
2121.457	687.62
2125.509	685.62
2129.558	676.62
2133.602	675.62
2137.643	660.62
2141.681	672.62
2145.714	664.62
2149.744	664.62
2153.77	673.62
2157.793	665.62
2161.812	665.62
2165.827	657.62
2169.838	649.62
2173.846	631.62
2177.851	631.62
2181.851	617.62
2185.848	626.62
2189.841	604.62
2193.831	603.62
2197.817	595.62
2201.799	592.62
2205.778	593.62
2209.753	594.62
2213.725	594.62
2217.693	593.62
2221.657	603.62
2225.618	595.62
2229.575	596.62
2233.529	587.62
2237.479	586.62
2241.425	585.62
2245.368	569.62
2249.307	557.62
2253.243	560.62
2257.175	550.62
2261.104	540.62
2265.029	534.62
2268.95	527.62
2272.868	526.62
2276.783	502.62
2280.694	512.62
2284.601	498.62
2288.505	502.62
2292.405	488.62
2296.302	490.62
2300.195	480.62
2304.085	477.62
2307.971	464.62
2311.854	473.62
2315.734	456.62
2319.609	448.62
2323.482	439.62
2327.351	431.62
2331.216	434.62
2335.078	431.62
2338.937	428.62
2342.792	422.62
2346.643	426.62
2350.492	419.62
2354.336	416.62
2358.178	419.62
2362.015	428.62
2365.85	437.62
2369.681	433.62
2373.508	438.62
2377.333	434.62
2381.153	425.62
2384.971	432.62
2388.785	428.62
2392.595	429.62
2396.402	429.62
2400.206	423.62
2404.007	425.62
2407.804	411.62
2411.597	415.62
2415.388	408.62
2419.174	402.62
2422.958	405.62
2426.738	413.62
2430.515	404.62
2434.289	408.62
2438.059	408.62
2441.825	404.62
2445.589	405.62
2449.349	398.62
2453.106	387.62
2456.859	396.62
2460.61	393.62
2464.356	389.62
2468.1	372.62
2471.84	384.62
2475.577	374.62
2479.311	384.62
2483.041	375.62
2486.768	376.62
2490.492	367.62
2494.213	376.62
2497.93	368.62
2501.644	382.62
2505.355	369.62
2509.062	370.62
2512.766	375.62
2516.467	366.62
2520.165	360.62
2523.859	358.62
2527.551	366.62
2531.239	350.62
2534.923	345.62
2538.605	346.62
2542.283	346.62
2545.958	340.62
2549.63	348.62
2553.299	335.62
2556.964	330.62
2560.626	336.62
2564.285	323.62
2567.941	323.62
2571.594	321.62
2575.243	328.62
2578.89	324.62
2582.533	325.62
2586.173	326.62
2589.809	320.62
2593.443	313.62
2597.073	307.62
2600.701	308.62
2604.325	316.62
2607.946	307.62
2611.564	306.62
2615.178	304.62
2618.79	305.62
2622.398	304.62
2626.004	303.62
2629.606	300.62
2633.205	298.62
2636.801	291.62
2640.394	292.62
2643.983	288.62
2647.57	289.62
2651.153	280.62
2654.734	283.62
2658.311	277.62
2661.885	283.62
2665.456	267.62
2669.025	280.62
2672.589	279.62
2676.151	267.62
2679.71	272.62
2683.266	273.62
2686.819	268.62
2690.368	259.62
2693.915	254.62
2697.458	262.62
2700.999	258.62
2704.536	243.62
2708.071	250.62
2711.602	249.62
2715.13	250.62
2718.656	247.62
2722.178	255.62
2725.697	245.62
2729.214	236.62
2732.727	254.62
2736.237	235.62
2739.744	244.62
2743.249	254.62
2746.75	246.62
2750.248	243.62
2753.743	233.62
2757.236	243.62
2760.725	233.62
2764.211	236.62
2767.695	232.62
2771.175	221.62
2774.652	230.62
2778.127	230.62
2781.598	218.62
2785.067	229.62
2788.532	223.62
2791.995	238.62
2795.455	233.62
2798.911	226.62
2802.365	229.62
2805.816	234.62
2809.264	235.62
2812.709	237.62
2816.151	239.62
2819.59	240.62
2823.026	233.62
2826.46	232.62
2829.89	227.62
2833.318	239.62
2836.742	234.62
2840.164	245.62
2843.583	247.62
2846.999	243.62
2850.412	235.62
2853.822	244.62
2857.229	250.62
2860.634	250.62
2864.035	249.62
2867.434	256.62
2870.83	261.62
2874.223	259.62
2877.613	261.62
2881	262.62
2884.385	267.62
2887.766	272.62
2891.145	265.62
2894.521	264.62
2897.894	262.62
2901.264	266.62
2904.631	277.62
2907.996	280.62
2911.358	275.62
2914.717	277.62
2918.073	281.62
2921.426	278.62
2924.777	289.62
2928.124	290.62
2931.469	299.62
2934.811	306.62
2938.15	306.62
2941.487	310.62
2944.821	316.62
2948.152	314.62
2951.48	326.62
2954.805	333.62
2958.128	331.62
2961.447	340.62
2964.765	346.62
2968.079	350.62
2971.39	359.62
2974.699	363.62
2978.005	365.62
2981.308	381.62
2984.609	399.62
2987.907	392.62
2991.202	410.62
2994.494	424.62
2997.784	433.62
3001.07	439.62
3004.355	450.62
3007.636	464.62
3010.915	474.62
3014.191	484.62
3017.464	492.62
3020.734	495.62
3024.002	503.62
3027.267	515.62
3030.53	522.62
3033.789	536.62
3037.046	554.62
3040.301	554.62
3043.552	561.62
3046.801	583.62
3050.048	590.62
3053.291	623.62
3056.532	628.62
3059.771	648.62
3063.006	661.62
3066.239	691.62
3069.469	706.62
3072.697	718.62
3075.922	744.62
3079.144	766.62
3082.364	791.62
3085.581	797.62
3088.795	819.62
3092.007	834.62
3095.216	853.62
3098.423	886.62
3101.627	894.62
3104.828	919.62
3108.026	932.62
3111.222	947.62
3114.416	988.62
3117.607	1002.62
3120.795	1028.62
3123.98	1042.62
3127.163	1069.62
3130.344	1097.62
3133.521	1115.62
3136.696	1135.62
3139.869	1173.62
3143.039	1201.62
3146.206	1206.62
3149.371	1224.62
3152.533	1242.62
3155.693	1237.62
3158.85	1257.62
3162.005	1264.62
3165.157	1277.62
3168.306	1288.62
3171.453	1283.62
3174.597	1295.62
3177.739	1284.62
3180.878	1289.62
3184.014	1276.62
3187.149	1299.62
3190.28	1294.62
3193.409	1297.62
3196.536	1302.62
3199.659	1323.62
3202.781	1325.62
3205.9	1324.62
3209.016	1342.62
3212.13	1342.62
3215.241	1332.62
3218.35	1319.62
3221.456	1319.62
3224.56	1295.62
3227.661	1286.62
3230.76	1273.62
3233.856	1275.62
3236.95	1254.62
3240.041	1248.62
3243.13	1230.62
3246.216	1213.62
3249.3	1207.62
3252.382	1194.62
3255.46	1179.62
3258.537	1200.62
3261.611	1181.62
3264.682	1169.62
3267.751	1176.62
3270.818	1169.62
3273.882	1164.62
3276.943	1161.62
3280.002	1143.62
3283.059	1122.62
3286.113	1111.62
3289.165	1105.62
3292.214	1074.62
3295.261	1074.62
3298.306	1059.62
3301.348	1045.62
3304.387	1042.62
3307.425	1006.62
3310.459	1008.62
3313.492	995.62
3316.521	973.62
3319.549	957.62
3322.574	960.62
3325.597	945.62
3328.617	933.62
3331.635	932.62
3334.65	930.62
3337.663	922.62
3340.674	917.62
3343.682	920.62
3346.688	907.62
3349.691	909.62
3352.692	896.62
3355.691	888.62
3358.687	889.62
3361.681	873.62
3364.673	876.62
3367.662	875.62
3370.649	852.62
3373.633	843.62
3376.615	822.62
3379.595	822.62
3382.572	820.62
3385.547	802.62
3388.52	793.62
3391.49	779.62
3394.458	768.62
3397.424	757.62
3400.387	747.62
3403.348	749.62
3406.307	742.62
3409.263	725.62
3412.217	707.62
3415.168	710.62
3418.118	702.62
3421.065	693.62
3424.009	687.62
3426.951	678.62
3429.891	662.62
3432.829	651.62
3435.764	645.62
3438.697	614.62
3441.628	621.62
3444.557	603.62
3447.483	585.62
3450.407	563.62
3453.328	550.62
3456.247	538.62
3459.164	519.62
3462.079	511.62
3464.991	500.62
3467.902	479.62
3470.809	471.62
3473.715	451.62
3476.618	437.62
3479.519	424.62
3482.418	409.62
3485.315	399.62
3488.209	389.62
3491.101	375.62
3493.99	366.62
3496.878	362.62
3499.763	352.62
3502.646	335.62
3505.527	338.62
3508.405	310.62
3511.281	299.62
3514.155	288.62
3517.027	275.62
3519.897	257.62
3522.764	251.62
3525.629	229.62
3528.492	227.62
3531.352	221.62
3534.211	201.62
3537.067	188.62
3539.921	180.62
3542.773	167.62
3545.622	156.62
3548.469	147.62
3551.315	143.62
3554.157	126.62
3556.998	123.62
3559.837	121.62
3562.673	112.62
3565.507	110.62
3568.339	98.62
3571.169	83.62
3573.996	75.62
3576.822	80.62
3579.645	77.62
3582.466	68.62
3585.285	67.62
3588.101	48.62
3590.916	47.62
3593.728	38.62
3596.538	35.62
3599.346	30.62
3602.152	30.62
3604.956	23.62
3607.757	17.62
3610.556	11.62
3613.354	9.62
3616.149	9.62
3618.942	2.62
3621.732	-4.38
3624.521	-8.38
3627.307	-7.38
3630.092	-14.38
3632.874	-12.38
3635.654	-22.38
3638.432	-21.38
3641.208	-26.38
3643.982	-29.38
3646.753	-30.38
3649.523	-34.38
3652.29	-37.38
3655.055	-36.38
3657.818	-41.38
3660.579	-41.38
3663.338	-45.38
3666.095	-48.38
3668.849	-49.38
3671.602	-60.38
3674.352	-57.38
3677.101	-57.38
3679.847	-60.38
3682.591	-63.38
3685.333	-61.38
3688.073	-66.38
3690.811	-71.38
3693.547	-73.38
3696.281	-70.38
3699.013	-75.38
3701.742	-78.38
3704.47	-76.38
3707.195	-78.38
3709.919	-76.38
3712.64	-80.38
3715.359	-81.38
3718.076	-81.38
3720.792	-81.38
3723.505	-84.38
3726.216	-82.38
3728.925	-88.38
3731.632	-87.38
3734.336	-91.38
3737.039	-91.38
3739.74	-92.38
3742.439	-94.38
3745.136	-93.38
3747.83	-90.38
3750.523	-86.38
3753.213	-89.38
3755.902	-91.38
3758.589	-88.38
3761.273	-93.38
3763.956	-92.38
3766.636	-99.38
3769.315	-95.38
3771.991	-97.38
3774.665	-92.38
3777.338	-96.38
3780.008	-100.38
3782.677	-94.38
3785.343	-100.38
3788.007	-98.38
3790.67	-100.38
3793.33	-102.38
3795.989	-100.38
3798.645	-102.38
3801.299	-101.38
3803.952	-102.38
3806.602	-101.38
3809.251	-98.38
3811.897	-102.38
3814.542	-106.38
3817.184	-102.38
3819.825	-101.38
3822.463	-102.38
3825.1	-103.38
3827.735	-102.38
3830.367	-102.38
3832.998	-102.38
3835.627	-103.38
3838.253	-104.38
3840.878	-102.38
3843.501	-100.38
3846.122	-105.38
3848.741	-103.38
3851.358	-107.38
3853.973	-100.38
3856.586	-103.38
3859.197	-107.38
3861.806	-107.38
3864.414	-106.38
3867.019	-108.38
3869.622	-99.38
3872.224	-109.38
3874.823	-106.38
3877.421	-97.38
3880.016	-98.38
3882.61	-95.38
3885.202	-94.38
3887.792	-99.38
3890.38	-100.38
3892.966	-105.38
3895.55	-109.38
3898.132	-111.38
3900.713	-101.38
3903.291	-106.38
3905.868	-105.38
3908.442	-106.38
3911.015	-112.38
3913.586	-112.38
3916.155	-109.38
3918.722	-111.38
3921.287	-109.38
3923.85	-114.38
3926.411	-111.38
3928.971	-106.38
3931.528	-110.38
3934.084	-107.38
3936.638	-106.38
3939.19	-109.38
3941.74	-108.38
3944.288	-111.38
3946.834	-106.38
3949.378	-109.38
3951.921	-110.38
3954.462	-112.38
3957	-113.38
3959.537	-110.38
3962.072	-105.38
3964.606	-111.38
3967.137	-105.38
3969.667	-107.38
3972.194	-109.38
3974.72	-105.38
3977.244	-111.38
3979.766	-111.38
3982.286	-105.38
3984.805	-109.38
3987.321	-109.38
3989.836	-109.38
3992.349	-108.38
3994.86	-105.38
3997.369	-106.38
3999.877	-109.38
4002.382	-108.38
4004.886	-108.38
4007.388	-104.38
4009.888	-112.38
4012.386	-110.38
4014.883	-108.38
4017.377	-108.38
4019.87	-111.38
4022.361	-111.38
4024.85	-108.38
4027.338	-107.38
4029.823	-111.38
4032.307	-107.38
4034.789	-107.38
4037.269	-111.38
4039.747	-109.38
4042.224	-109.38
4044.699	-117.38
4047.172	-110.38
4049.643	-110.38
4052.112	-109.38
4054.58	-112.38
4057.046	-109.38
4059.51	-111.38
4061.972	-110.38
4064.432	-111.38
4066.891	-113.38
4069.348	-109.38
4071.803	-111.38
4074.256	-111.38
4076.708	-107.38
4079.158	-111.38
4081.606	-108.38
4084.052	-108.38
4086.497	-113.38
4088.939	-110.38
4091.38	-111.38
4093.819	-111.38
4096.257	-113.38
4098.693	-113.38
4101.127	-109.38
4103.559	-117.38
4105.989	-73.38
4108.418	-71.38
4110.845	-72.38
4113.27	-63.38
4115.694	-58.38
4118.115	-50.38
4120.535	-109.38
4122.954	-114.38
4125.37	-112.38
4127.785	-110.38
4130.198	-106.38
4132.609	-107.38
4135.019	-116.38
4137.427	-114.38
4139.833	-113.38
4142.237	-115.38
