Data from 100CFU1_A_RamanShift_1.txt Node
Date: Tue Jan 31 15:15:59 IST 2017
User: aro
Spectrometer: QEPB0276
Trigger mode: 0
Integration Time (sec): 5.000000E0
Scans to average: 1
Electric dark correction enabled: true
Nonlinearity correction enabled: false
Boxcar width: 0
XAxis mode: Raman Shifts
Number of Pixels in Spectrum: 1044
>>>>>Begin Spectral Data<<<<<
160.701	-41.12
166.742	-5.12
172.777	101.88
178.805	430.88
184.826	1160.88
190.841	2378.88
196.849	3703.88
202.85	4520.88
208.845	4738.88
214.833	4576.88
220.815	4414.88
226.789	4274.88
232.758	4186.88
238.719	4043.88
244.674	3907.88
250.623	3715.88
256.565	3557.88
262.5	3417.88
268.429	3242.88
274.351	3120.88
280.267	3010.88
286.176	2897.88
292.079	2783.88
297.975	2696.88
303.865	2614.88
309.748	2548.88
315.625	2494.88
321.495	2441.88
327.359	2390.88
333.217	2368.88
339.068	2352.88
344.912	2336.88
350.751	2316.88
356.583	2323.88
362.408	2300.88
368.227	2324.88
374.04	2311.88
379.847	2351.88
385.647	2371.88
391.44	2356.88
397.228	2392.88
403.009	2385.88
408.784	2405.88
414.553	2401.88
420.315	2411.88
426.071	2413.88
431.821	2422.88
437.565	2406.88
443.302	2402.88
449.033	2404.88
454.758	2372.88
460.477	2380.88
466.189	2366.88
471.896	2351.88
477.596	2355.88
483.29	2360.88
488.978	2318.88
494.66	2347.88
500.335	2300.88
506.005	2260.88
511.668	2217.88
517.325	2200.88
522.977	2147.88
528.622	2131.88
534.261	2104.88
539.894	2088.88
545.521	2052.88
551.141	2048.88
556.756	2037.88
562.365	2032.88
567.968	2004.88
573.565	1987.88
579.155	1991.88
584.74	1962.88
590.319	1966.88
595.892	1967.88
601.459	1951.88
607.02	1922.88
612.575	1933.88
618.124	1917.88
623.667	1881.88
629.204	1872.88
634.735	1859.88
640.261	1830.88
645.781	1821.88
651.294	1824.88
656.802	1808.88
662.304	1795.88
667.8	1799.88
673.29	1799.88
678.775	1789.88
684.254	1769.88
689.726	1788.88
695.193	1772.88
700.655	1747.88
706.11	1749.88
711.56	1743.88
717.004	1735.88
722.442	1728.88
727.874	1699.88
733.301	1688.88
738.722	1695.88
744.137	1681.88
749.547	1694.88
754.951	1661.88
760.349	1667.88
765.741	1664.88
771.128	1658.88
776.509	1672.88
781.885	1678.88
787.254	1679.88
792.618	1668.88
797.977	1649.88
803.33	1646.88
808.677	1631.88
814.019	1617.88
819.355	1592.88
824.686	1590.88
830.011	1580.88
835.33	1568.88
840.644	1574.88
845.952	1560.88
851.255	1554.88
856.552	1546.88
861.844	1530.88
867.13	1506.88
872.41	1513.88
877.686	1512.88
882.955	1481.88
888.219	1479.88
893.478	1458.88
898.731	1426.88
903.979	1409.88
909.221	1401.88
914.458	1393.88
919.69	1375.88
924.916	1368.88
930.136	1375.88
935.351	1361.88
940.561	1368.88
945.766	1380.88
950.965	1375.88
956.158	1360.88
961.347	1357.88
966.529	1337.88
971.707	1323.88
976.879	1304.88
982.046	1291.88
987.208	1264.88
992.364	1261.88
997.515	1273.88
1002.66	1279.88
1007.801	1291.88
1012.936	1318.88
1018.066	1318.88
1023.19	1318.88
1028.309	1330.88
1033.423	1328.88
1038.532	1322.88
1043.636	1304.88
1048.734	1299.88
1053.827	1298.88
1058.915	1305.88
1063.998	1274.88
1069.075	1264.88
1074.147	1268.88
1079.214	1260.88
1084.276	1299.88
1089.333	1278.88
1094.385	1295.88
1099.431	1306.88
1104.472	1308.88
1109.509	1313.88
1114.54	1292.88
1119.565	1277.88
1124.586	1268.88
1129.602	1257.88
1134.613	1260.88
1139.618	1245.88
1144.619	1234.88
1149.614	1245.88
1154.604	1245.88
1159.589	1246.88
1164.57	1246.88
1169.545	1271.88
1174.515	1267.88
1179.48	1280.88
1184.44	1277.88
1189.395	1251.88
1194.345	1258.88
1199.29	1246.88
1204.23	1246.88
1209.165	1258.88
1214.095	1259.88
1219.021	1272.88
1223.941	1286.88
1228.856	1282.88
1233.766	1282.88
1238.672	1288.88
1243.572	1296.88
1248.467	1278.88
1253.358	1269.88
1258.244	1253.88
1263.124	1250.88
1268	1249.88
1272.871	1206.88
1277.737	1199.88
1282.599	1208.88
1287.455	1197.88
1292.306	1195.88
1297.153	1209.88
1301.995	1211.88
1306.832	1226.88
1311.664	1238.88
1316.491	1231.88
1321.314	1246.88
1326.132	1232.88
1330.945	1225.88
1335.753	1216.88
1340.556	1200.88
1345.354	1178.88
1350.148	1175.88
1354.937	1161.88
1359.722	1143.88
1364.501	1139.88
1369.276	1130.88
1374.046	1115.88
1378.811	1126.88
1383.572	1106.88
1388.327	1115.88
1393.079	1106.88
1397.825	1108.88
1402.567	1106.88
1407.304	1099.88
1412.036	1088.88
1416.764	1088.88
1421.487	1100.88
1426.205	1080.88
1430.919	1087.88
1435.628	1114.88
1440.333	1120.88
1445.032	1140.88
1449.727	1137.88
1454.418	1143.88
1459.104	1143.88
1463.785	1146.88
1468.462	1138.88
1473.134	1136.88
1477.802	1114.88
1482.465	1117.88
1487.123	1121.88
1491.777	1116.88
1496.426	1111.88
1501.071	1128.88
1505.711	1106.88
1510.347	1152.88
1514.978	1145.88
1519.604	1168.88
1524.226	1168.88
1528.844	1165.88
1533.457	1163.88
1538.065	1167.88
1542.669	1155.88
1547.269	1160.88
1551.864	1169.88
1556.454	1167.88
1561.041	1172.88
1565.622	1175.88
1570.199	1197.88
1574.772	1208.88
1579.34	1236.88
1583.904	1262.88
1588.464	1271.88
1593.019	1309.88
1597.569	1300.88
1602.115	1332.88
1606.657	1342.88
1611.195	1354.88
1615.728	1368.88
1620.256	1366.88
1624.78	1389.88
1629.3	1407.88
1633.816	1423.88
1638.327	1452.88
1642.834	1446.88
1647.336	1466.88
1651.834	1469.88
1656.328	1481.88
1660.817	1449.88
1665.302	1442.88
1669.783	1430.88
1674.259	1382.88
1678.732	1372.88
1683.199	1318.88
1687.663	1283.88
1692.122	1236.88
1696.577	1169.88
1701.028	1124.88
1705.474	1083.88
1709.917	1040.88
1714.355	1033.88
1718.788	1016.88
1723.218	991.88
1727.643	996.88
1732.064	967.88
1736.481	957.88
1740.893	922.88
1745.301	898.88
1749.705	877.88
1754.105	860.88
1758.501	838.88
1762.893	828.88
1767.28	820.88
1771.663	810.88
1776.042	827.88
1780.417	815.88
1784.787	806.88
1789.154	806.88
1793.516	809.88
1797.874	793.88
1802.228	808.88
1806.578	785.88
1810.924	770.88
1815.266	772.88
1819.603	759.88
1823.937	750.88
1828.266	731.88
1832.591	736.88
1836.913	734.88
1841.23	724.88
1845.543	737.88
1849.852	731.88
1854.156	730.88
1858.457	722.88
1862.754	735.88
1867.047	738.88
1871.335	744.88
1875.62	747.88
1879.9	744.88
1884.177	754.88
1888.449	758.88
1892.718	757.88
1896.982	750.88
1901.243	743.88
1905.499	738.88
1909.752	747.88
1914	742.88
1918.245	737.88
1922.485	741.88
1926.722	752.88
1930.954	760.88
1935.183	734.88
1939.408	749.88
1943.628	755.88
1947.845	747.88
1952.058	745.88
1956.267	750.88
1960.472	728.88
1964.673	741.88
1968.87	726.88
1973.063	706.88
1977.252	698.88
1981.438	702.88
1985.619	708.88
1989.797	694.88
1993.971	693.88
1998.14	704.88
2002.306	700.88
2006.469	715.88
2010.627	699.88
2014.781	710.88
2018.932	723.88
2023.078	711.88
2027.221	714.88
2031.36	706.88
2035.495	708.88
2039.627	703.88
2043.754	699.88
2047.878	691.88
2051.998	696.88
2056.114	687.88
2060.226	696.88
2064.334	705.88
2068.439	704.88
2072.54	708.88
2076.637	706.88
2080.73	719.88
2084.82	716.88
2088.906	716.88
2092.988	722.88
2097.066	714.88
2101.14	712.88
2105.211	703.88
2109.278	710.88
2113.342	708.88
2117.401	691.88
2121.457	684.88
2125.509	684.88
2129.558	680.88
2133.602	688.88
2137.643	668.88
2141.681	672.88
2145.714	672.88
2149.744	660.88
2153.77	662.88
2157.793	659.88
2161.812	652.88
2165.827	650.88
2169.838	643.88
2173.846	623.88
2177.851	616.88
2181.851	604.88
2185.848	599.88
2189.841	595.88
2193.831	594.88
2197.817	592.88
2201.799	579.88
2205.778	585.88
2209.753	581.88
2213.725	579.88
2217.693	577.88
2221.657	581.88
2225.618	580.88
2229.575	589.88
2233.529	568.88
2237.479	574.88
2241.425	574.88
2245.368	549.88
2249.307	555.88
2253.243	554.88
2257.175	534.88
2261.104	525.88
2265.029	515.88
2268.95	519.88
2272.868	511.88
2276.783	496.88
2280.694	493.88
2284.601	489.88
2288.505	498.88
2292.405	474.88
2296.302	478.88
2300.195	468.88
2304.085	470.88
2307.971	459.88
2311.854	449.88
2315.734	446.88
2319.609	427.88
2323.482	424.88
2327.351	417.88
2331.216	422.88
2335.078	413.88
2338.937	422.88
2342.792	410.88
2346.643	416.88
2350.492	410.88
2354.336	404.88
2358.178	406.88
2362.015	399.88
2365.85	411.88
2369.681	407.88
2373.508	414.88
2377.333	416.88
2381.153	413.88
2384.971	418.88
2388.785	415.88
2392.595	401.88
2396.402	403.88
2400.206	396.88
2404.007	402.88
2407.804	387.88
2411.597	394.88
2415.388	392.88
2419.174	390.88
2422.958	385.88
2426.738	396.88
2430.515	393.88
2434.289	390.88
2438.059	380.88
2441.825	390.88
2445.589	378.88
2449.349	373.88
2453.106	374.88
2456.859	357.88
2460.61	362.88
2464.356	365.88
2468.1	363.88
2471.84	352.88
2475.577	355.88
2479.311	368.88
2483.041	358.88
2486.768	358.88
2490.492	357.88
2494.213	356.88
2497.93	351.88
2501.644	350.88
2505.355	357.88
2509.062	360.88
2512.766	357.88
2516.467	352.88
2520.165	351.88
2523.859	351.88
2527.551	347.88
2531.239	338.88
2534.923	348.88
2538.605	326.88
2542.283	324.88
2545.958	329.88
2549.63	327.88
2553.299	321.88
2556.964	328.88
2560.626	328.88
2564.285	324.88
2567.941	312.88
2571.594	322.88
2575.243	319.88
2578.89	317.88
2582.533	309.88
2586.173	314.88
2589.809	309.88
2593.443	310.88
2597.073	295.88
2600.701	302.88
2604.325	307.88
2607.946	303.88
2611.564	293.88
2615.178	300.88
2618.79	283.88
2622.398	296.88
2626.004	286.88
2629.606	284.88
2633.205	286.88
2636.801	273.88
2640.394	283.88
2643.983	275.88
2647.57	276.88
2651.153	275.88
2654.734	267.88
2658.311	266.88
2661.885	273.88
2665.456	261.88
2669.025	258.88
2672.589	263.88
2676.151	256.88
2679.71	250.88
2683.266	257.88
2686.819	246.88
2690.368	253.88
2693.915	246.88
2697.458	246.88
2700.999	245.88
2704.536	242.88
2708.071	235.88
2711.602	237.88
2715.13	236.88
2718.656	229.88
2722.178	231.88
2725.697	231.88
2729.214	225.88
2732.727	239.88
2736.237	242.88
2739.744	236.88
2743.249	256.88
2746.75	244.88
2750.248	237.88
2753.743	238.88
2757.236	233.88
2760.725	235.88
2764.211	233.88
2767.695	232.88
2771.175	223.88
2774.652	221.88
2778.127	232.88
2781.598	227.88
2785.067	235.88
2788.532	229.88
2791.995	227.88
2795.455	235.88
2798.911	227.88
2802.365	233.88
2805.816	241.88
2809.264	235.88
2812.709	233.88
2816.151	233.88
2819.59	243.88
2823.026	231.88
2826.46	231.88
2829.89	234.88
2833.318	238.88
2836.742	234.88
2840.164	236.88
2843.583	239.88
2846.999	248.88
2850.412	239.88
2853.822	254.88
2857.229	240.88
2860.634	247.88
2864.035	254.88
2867.434	267.88
2870.83	266.88
2874.223	262.88
2877.613	268.88
2881	261.88
2884.385	275.88
2887.766	266.88
2891.145	266.88
2894.521	260.88
2897.894	271.88
2901.264	269.88
2904.631	270.88
2907.996	275.88
2911.358	280.88
2914.717	283.88
2918.073	286.88
2921.426	284.88
2924.777	285.88
2928.124	290.88
2931.469	301.88
2934.811	300.88
2938.15	311.88
2941.487	313.88
2944.821	315.88
2948.152	332.88
2951.48	340.88
2954.805	334.88
2958.128	343.88
2961.447	352.88
2964.765	357.88
2968.079	364.88
2971.39	365.88
2974.699	382.88
2978.005	382.88
2981.308	398.88
2984.609	398.88
2987.907	411.88
2991.202	425.88
2994.494	434.88
2997.784	444.88
3001.07	456.88
3004.355	478.88
3007.636	483.88
3010.915	496.88
3014.191	508.88
3017.464	517.88
3020.734	523.88
3024.002	536.88
3027.267	535.88
3030.53	557.88
3033.789	554.88
3037.046	579.88
3040.301	590.88
3043.552	599.88
3046.801	605.88
3050.048	641.88
3053.291	653.88
3056.532	659.88
3059.771	692.88
3063.006	715.88
3066.239	734.88
3069.469	749.88
3072.697	766.88
3075.922	783.88
3079.144	829.88
3082.364	836.88
3085.581	847.88
3088.795	880.88
3092.007	897.88
3095.216	923.88
3098.423	940.88
3101.627	964.88
3104.828	977.88
3108.026	1005.88
3111.222	1006.88
3114.416	1045.88
3117.607	1067.88
3120.795	1089.88
3123.98	1108.88
3127.163	1142.88
3130.344	1164.88
3133.521	1208.88
3136.696	1239.88
3139.869	1246.88
3143.039	1266.88
3146.206	1279.88
3149.371	1306.88
3152.533	1317.88
3155.693	1348.88
3158.85	1342.88
3162.005	1346.88
3165.157	1354.88
3168.306	1361.88
3171.453	1380.88
3174.597	1360.88
3177.739	1379.88
3180.878	1362.88
3184.014	1387.88
3187.149	1396.88
3190.28	1385.88
3193.409	1388.88
3196.536	1395.88
3199.659	1411.88
3202.781	1405.88
3205.9	1429.88
3209.016	1433.88
3212.13	1420.88
3215.241	1408.88
3218.35	1410.88
3221.456	1394.88
3224.56	1386.88
3227.661	1372.88
3230.76	1353.88
3233.856	1356.88
3236.95	1329.88
3240.041	1329.88
3243.13	1307.88
3246.216	1306.88
3249.3	1287.88
3252.382	1282.88
3255.46	1253.88
3258.537	1256.88
3261.611	1254.88
3264.682	1252.88
3267.751	1232.88
3270.818	1234.88
3273.882	1223.88
3276.943	1223.88
3280.002	1207.88
3283.059	1191.88
3286.113	1185.88
3289.165	1175.88
3292.214	1137.88
3295.261	1143.88
3298.306	1122.88
3301.348	1093.88
3304.387	1083.88
3307.425	1078.88
3310.459	1061.88
3313.492	1059.88
3316.521	1033.88
3319.549	1022.88
3322.574	1001.88
3325.597	1012.88
3328.617	985.88
3331.635	981.88
3334.65	989.88
3337.663	987.88
3340.674	979.88
3343.682	969.88
3346.688	959.88
3349.691	965.88
3352.692	967.88
3355.691	948.88
3358.687	956.88
3361.681	923.88
3364.673	932.88
3367.662	904.88
3370.649	904.88
3373.633	884.88
3376.615	879.88
3379.595	864.88
3382.572	854.88
3385.547	845.88
3388.52	837.88
3391.49	817.88
3394.458	812.88
3397.424	807.88
3400.387	791.88
3403.348	800.88
3406.307	765.88
3409.263	760.88
3412.217	751.88
3415.168	742.88
3418.118	736.88
3421.065	731.88
3424.009	726.88
3426.951	717.88
3429.891	699.88
3432.829	698.88
3435.764	686.88
3438.697	662.88
3441.628	657.88
3444.557	639.88
3447.483	620.88
3450.407	601.88
3453.328	596.88
3456.247	575.88
3459.164	556.88
3462.079	538.88
3464.991	515.88
3467.902	503.88
3470.809	489.88
3473.715	473.88
3476.618	467.88
3479.519	441.88
3482.418	433.88
3485.315	425.88
3488.209	409.88
3491.101	401.88
3493.99	388.88
3496.878	367.88
3499.763	366.88
3502.646	344.88
3505.527	342.88
3508.405	328.88
3511.281	309.88
3514.155	303.88
3517.027	292.88
3519.897	271.88
3522.764	263.88
3525.629	245.88
3528.492	242.88
3531.352	224.88
3534.211	213.88
3537.067	195.88
3539.921	185.88
3542.773	173.88
3545.622	170.88
3548.469	155.88
3551.315	146.88
3554.157	131.88
3556.998	131.88
3559.837	125.88
3562.673	117.88
3565.507	104.88
3568.339	93.88
3571.169	93.88
3573.996	78.88
3576.822	85.88
3579.645	71.88
3582.466	66.88
3585.285	64.88
3588.101	50.88
3590.916	48.88
3593.728	38.88
3596.538	37.88
3599.346	34.88
3602.152	26.88
3604.956	25.88
3607.757	22.88
3610.556	9.88
3613.354	6.88
3616.149	11.88
3618.942	-6.12
3621.732	-7.12
3624.521	-8.12
3627.307	-11.12
3630.092	-18.12
3632.874	-15.12
3635.654	-28.12
3638.432	-27.12
3641.208	-26.12
3643.982	-30.12
3646.753	-35.12
3649.523	-32.12
3652.29	-41.12
3655.055	-46.12
3657.818	-46.12
3660.579	-42.12
3663.338	-50.12
3666.095	-57.12
3668.849	-55.12
3671.602	-59.12
3674.352	-63.12
3677.101	-66.12
3679.847	-65.12
3682.591	-70.12
3685.333	-73.12
3688.073	-74.12
3690.811	-80.12
3693.547	-77.12
3696.281	-74.12
3699.013	-76.12
3701.742	-84.12
3704.47	-84.12
3707.195	-83.12
3709.919	-82.12
3712.64	-90.12
3715.359	-90.12
3718.076	-90.12
3720.792	-89.12
3723.505	-88.12
3726.216	-86.12
3728.925	-89.12
3731.632	-94.12
3734.336	-94.12
3737.039	-100.12
3739.74	-99.12
3742.439	-101.12
3745.136	-101.12
3747.83	-102.12
3750.523	-99.12
3753.213	-99.12
3755.902	-101.12
3758.589	-93.12
3761.273	-94.12
3763.956	-99.12
3766.636	-104.12
3769.315	-103.12
3771.991	-104.12
3774.665	-104.12
3777.338	-106.12
3780.008	-106.12
3782.677	-101.12
3785.343	-104.12
3788.007	-100.12
3790.67	-106.12
3793.33	-107.12
3795.989	-110.12
3798.645	-108.12
3801.299	-108.12
3803.952	-114.12
3806.602	-108.12
3809.251	-107.12
3811.897	-110.12
3814.542	-110.12
3817.184	-106.12
3819.825	-103.12
3822.463	-106.12
3825.1	-107.12
3827.735	-112.12
3830.367	-111.12
3832.998	-112.12
3835.627	-113.12
3838.253	-109.12
3840.878	-110.12
3843.501	-110.12
3846.122	-111.12
3848.741	-108.12
3851.358	-116.12
3853.973	-114.12
3856.586	-111.12
3859.197	-112.12
3861.806	-113.12
3864.414	-113.12
3867.019	-114.12
3869.622	-111.12
3872.224	-114.12
3874.823	-114.12
3877.421	-107.12
3880.016	-106.12
3882.61	-104.12
3885.202	-107.12
3887.792	-104.12
3890.38	-108.12
3892.966	-108.12
3895.55	-116.12
3898.132	-117.12
3900.713	-116.12
3903.291	-118.12
3905.868	-116.12
3908.442	-117.12
3911.015	-118.12
3913.586	-116.12
3916.155	-115.12
3918.722	-115.12
3921.287	-111.12
3923.85	-117.12
3926.411	-120.12
3928.971	-115.12
3931.528	-123.12
3934.084	-118.12
3936.638	-116.12
3939.19	-115.12
3941.74	-113.12
3944.288	-122.12
3946.834	-116.12
3949.378	-117.12
3951.921	-116.12
3954.462	-119.12
3957	-117.12
3959.537	-119.12
3962.072	-121.12
3964.606	-120.12
3967.137	-117.12
3969.667	-114.12
3972.194	-116.12
3974.72	-110.12
3977.244	-115.12
3979.766	-116.12
3982.286	-114.12
3984.805	-115.12
3987.321	-117.12
3989.836	-121.12
3992.349	-118.12
3994.86	-116.12
3997.369	-115.12
3999.877	-117.12
4002.382	-111.12
4004.886	-113.12
4007.388	-112.12
4009.888	-119.12
4012.386	-117.12
4014.883	-119.12
4017.377	-120.12
4019.87	-116.12
4022.361	-120.12
4024.85	-118.12
4027.338	-117.12
4029.823	-113.12
4032.307	-117.12
4034.789	-112.12
4037.269	-116.12
4039.747	-117.12
4042.224	-117.12
4044.699	-122.12
4047.172	-120.12
4049.643	-119.12
4052.112	-119.12
4054.58	-118.12
4057.046	-120.12
4059.51	-120.12
4061.972	-118.12
4064.432	-118.12
4066.891	-123.12
4069.348	-115.12
4071.803	-118.12
4074.256	-123.12
4076.708	-114.12
4079.158	-120.12
4081.606	-117.12
4084.052	-117.12
4086.497	-117.12
4088.939	-118.12
4091.38	-120.12
4093.819	-122.12
4096.257	-123.12
4098.693	-118.12
4101.127	-122.12
4103.559	-119.12
4105.989	-78.12
4108.418	-74.12
4110.845	-72.12
4113.27	-69.12
4115.694	-64.12
4118.115	-54.12
4120.535	-116.12
4122.954	-121.12
4125.37	-117.12
4127.785	-117.12
4130.198	-114.12
4132.609	-120.12
4135.019	-120.12
4137.427	-119.12
4139.833	-124.12
4142.237	-123.12
