Data from 10CFU2_B_RamanShift_1.txt Node
Date: Tue Jan 31 14:21:12 IST 2017
User: aro
Spectrometer: QEPB0276
Trigger mode: 0
Integration Time (sec): 5.000000E0
Scans to average: 1
Electric dark correction enabled: true
Nonlinearity correction enabled: false
Boxcar width: 0
XAxis mode: Raman Shifts
Number of Pixels in Spectrum: 1044
>>>>>Begin Spectral Data<<<<<
160.701	-36.38
166.742	-1.38
172.777	97.62
178.805	415.62
184.826	1164.62
190.841	2368.62
196.849	3694.62
202.85	4517.62
208.845	4705.62
214.833	4559.62
220.815	4394.62
226.789	4203.62
232.758	4126.62
238.719	4005.62
244.674	3871.62
250.623	3679.62
256.565	3515.62
262.5	3353.62
268.429	3198.62
274.351	3073.62
280.267	2935.62
286.176	2846.62
292.079	2744.62
297.975	2662.62
303.865	2572.62
309.748	2504.62
315.625	2442.62
321.495	2363.62
327.359	2342.62
333.217	2332.62
339.068	2316.62
344.912	2293.62
350.751	2267.62
356.583	2268.62
362.408	2281.62
368.227	2298.62
374.04	2297.62
379.847	2325.62
385.647	2324.62
391.44	2326.62
397.228	2350.62
403.009	2348.62
408.784	2359.62
414.553	2371.62
420.315	2352.62
426.071	2379.62
431.821	2386.62
437.565	2368.62
443.302	2374.62
449.033	2352.62
454.758	2342.62
460.477	2329.62
466.189	2311.62
471.896	2323.62
477.596	2302.62
483.29	2268.62
488.978	2262.62
494.66	2268.62
500.335	2235.62
506.005	2203.62
511.668	2163.62
517.325	2126.62
522.977	2083.62
528.622	2065.62
534.261	2040.62
539.894	2016.62
545.521	1987.62
551.141	1979.62
556.756	1979.62
562.365	1963.62
567.968	1938.62
573.565	1926.62
579.155	1927.62
584.74	1915.62
590.319	1909.62
595.892	1887.62
601.459	1881.62
607.02	1853.62
612.575	1835.62
618.124	1834.62
623.667	1813.62
629.204	1806.62
634.735	1779.62
640.261	1780.62
645.781	1749.62
651.294	1736.62
656.802	1727.62
662.304	1741.62
667.8	1709.62
673.29	1709.62
678.775	1709.62
684.254	1692.62
689.726	1679.62
695.193	1685.62
700.655	1689.62
706.11	1682.62
711.56	1670.62
717.004	1643.62
722.442	1642.62
727.874	1632.62
733.301	1618.62
738.722	1577.62
744.137	1595.62
749.547	1610.62
754.951	1580.62
760.349	1585.62
765.741	1575.62
771.128	1592.62
776.509	1586.62
781.885	1590.62
787.254	1588.62
792.618	1589.62
797.977	1579.62
803.33	1561.62
808.677	1535.62
814.019	1538.62
819.355	1518.62
824.686	1504.62
830.011	1511.62
835.33	1477.62
840.644	1464.62
845.952	1457.62
851.255	1447.62
856.552	1448.62
861.844	1436.62
867.13	1448.62
872.41	1425.62
877.686	1412.62
882.955	1404.62
888.219	1383.62
893.478	1361.62
898.731	1351.62
903.979	1336.62
909.221	1300.62
914.458	1288.62
919.69	1284.62
924.916	1266.62
930.136	1258.62
935.351	1270.62
940.561	1257.62
945.766	1284.62
950.965	1263.62
956.158	1255.62
961.347	1251.62
966.529	1227.62
971.707	1228.62
976.879	1212.62
982.046	1190.62
987.208	1173.62
992.364	1167.62
997.515	1190.62
1002.66	1192.62
1007.801	1187.62
1012.936	1204.62
1018.066	1204.62
1023.19	1227.62
1028.309	1239.62
1033.423	1225.62
1038.532	1215.62
1043.636	1215.62
1048.734	1197.62
1053.827	1178.62
1058.915	1183.62
1063.998	1178.62
1069.075	1160.62
1074.147	1160.62
1079.214	1179.62
1084.276	1178.62
1089.333	1181.62
1094.385	1195.62
1099.431	1198.62
1104.472	1206.62
1109.509	1203.62
1114.54	1185.62
1119.565	1184.62
1124.586	1175.62
1129.602	1157.62
1134.613	1148.62
1139.618	1144.62
1144.619	1137.62
1149.614	1130.62
1154.604	1150.62
1159.589	1150.62
1164.57	1143.62
1169.545	1158.62
1174.515	1150.62
1179.48	1167.62
1184.44	1156.62
1189.395	1149.62
1194.345	1153.62
1199.29	1145.62
1204.23	1151.62
1209.165	1141.62
1214.095	1158.62
1219.021	1160.62
1223.941	1168.62
1228.856	1175.62
1233.766	1168.62
1238.672	1177.62
1243.572	1170.62
1248.467	1180.62
1253.358	1169.62
1258.244	1164.62
1263.124	1139.62
1268	1121.62
1272.871	1103.62
1277.737	1093.62
1282.599	1101.62
1287.455	1098.62
1292.306	1086.62
1297.153	1102.62
1301.995	1108.62
1306.832	1118.62
1311.664	1122.62
1316.491	1134.62
1321.314	1138.62
1326.132	1129.62
1330.945	1120.62
1335.753	1118.62
1340.556	1097.62
1345.354	1069.62
1350.148	1061.62
1354.937	1058.62
1359.722	1047.62
1364.501	1026.62
1369.276	1029.62
1374.046	1007.62
1378.811	1009.62
1383.572	1000.62
1388.327	999.62
1393.079	1001.62
1397.825	1002.62
1402.567	993.62
1407.304	989.62
1412.036	998.62
1416.764	976.62
1421.487	976.62
1426.205	972.62
1430.919	1001.62
1435.628	998.62
1440.333	1009.62
1445.032	1023.62
1449.727	1031.62
1454.418	1026.62
1459.104	1047.62
1463.785	1030.62
1468.462	1028.62
1473.134	1021.62
1477.802	1016.62
1482.465	1002.62
1487.123	997.62
1491.777	1006.62
1496.426	1004.62
1501.071	1012.62
1505.711	1020.62
1510.347	1030.62
1514.978	1047.62
1519.604	1038.62
1524.226	1056.62
1528.844	1054.62
1533.457	1070.62
1538.065	1057.62
1542.669	1059.62
1547.269	1051.62
1551.864	1053.62
1556.454	1062.62
1561.041	1077.62
1565.622	1083.62
1570.199	1095.62
1574.772	1108.62
1579.34	1138.62
1583.904	1155.62
1588.464	1172.62
1593.019	1194.62
1597.569	1194.62
1602.115	1233.62
1606.657	1244.62
1611.195	1270.62
1615.728	1264.62
1620.256	1298.62
1624.78	1299.62
1629.3	1329.62
1633.816	1333.62
1638.327	1352.62
1642.834	1358.62
1647.336	1378.62
1651.834	1372.62
1656.328	1385.62
1660.817	1357.62
1665.302	1335.62
1669.783	1321.62
1674.259	1291.62
1678.732	1260.62
1683.199	1226.62
1687.663	1174.62
1692.122	1139.62
1696.577	1094.62
1701.028	1035.62
1705.474	1006.62
1709.917	958.62
1714.355	944.62
1718.788	916.62
1723.218	894.62
1727.643	901.62
1732.064	871.62
1736.481	852.62
1740.893	834.62
1745.301	806.62
1749.705	781.62
1754.105	769.62
1758.501	749.62
1762.893	719.62
1767.28	722.62
1771.663	710.62
1776.042	718.62
1780.417	710.62
1784.787	715.62
1789.154	697.62
1793.516	709.62
1797.874	711.62
1802.228	713.62
1806.578	698.62
1810.924	675.62
1815.266	668.62
1819.603	675.62
1823.937	662.62
1828.266	650.62
1832.591	648.62
1836.913	647.62
1841.23	651.62
1845.543	623.62
1849.852	637.62
1854.156	633.62
1858.457	650.62
1862.754	635.62
1867.047	646.62
1871.335	667.62
1875.62	661.62
1879.9	657.62
1884.177	667.62
1888.449	670.62
1892.718	655.62
1896.982	654.62
1901.243	661.62
1905.499	645.62
1909.752	647.62
1914	637.62
1918.245	647.62
1922.485	648.62
1926.722	663.62
1930.954	664.62
1935.183	662.62
1939.408	660.62
1943.628	657.62
1947.845	648.62
1952.058	657.62
1956.267	655.62
1960.472	652.62
1964.673	658.62
1968.87	633.62
1973.063	632.62
1977.252	630.62
1981.438	633.62
1985.619	629.62
1989.797	623.62
1993.971	624.62
1998.14	620.62
2002.306	624.62
2006.469	626.62
2010.627	640.62
2014.781	636.62
2018.932	636.62
2023.078	634.62
2027.221	627.62
2031.36	629.62
2035.495	623.62
2039.627	616.62
2043.754	621.62
2047.878	612.62
2051.998	616.62
2056.114	610.62
2060.226	630.62
2064.334	622.62
2068.439	627.62
2072.54	623.62
2076.637	638.62
2080.73	636.62
2084.82	640.62
2088.906	637.62
2092.988	639.62
2097.066	643.62
2101.14	624.62
2105.211	642.62
2109.278	623.62
2113.342	624.62
2117.401	626.62
2121.457	620.62
2125.509	615.62
2129.558	616.62
2133.602	604.62
2137.643	593.62
2141.681	603.62
2145.714	589.62
2149.744	593.62
2153.77	584.62
2157.793	591.62
2161.812	580.62
2165.827	584.62
2169.838	580.62
2173.846	553.62
2177.851	545.62
2181.851	547.62
2185.848	528.62
2189.841	531.62
2193.831	536.62
2197.817	521.62
2201.799	527.62
2205.778	522.62
2209.753	524.62
2213.725	514.62
2217.693	518.62
2221.657	515.62
2225.618	498.62
2229.575	512.62
2233.529	496.62
2237.479	508.62
2241.425	505.62
2245.368	489.62
2249.307	482.62
2253.243	487.62
2257.175	473.62
2261.104	463.62
2265.029	459.62
2268.95	451.62
2272.868	441.62
2276.783	442.62
2280.694	415.62
2284.601	414.62
2288.505	426.62
2292.405	424.62
2296.302	411.62
2300.195	401.62
2304.085	403.62
2307.971	391.62
2311.854	396.62
2315.734	388.62
2319.609	378.62
2323.482	363.62
2327.351	361.62
2331.216	365.62
2335.078	365.62
2338.937	365.62
2342.792	351.62
2346.643	346.62
2350.492	359.62
2354.336	343.62
2358.178	347.62
2362.015	346.62
2365.85	356.62
2369.681	354.62
2373.508	358.62
2377.333	352.62
2381.153	352.62
2384.971	360.62
2388.785	358.62
2392.595	331.62
2396.402	341.62
2400.206	335.62
2404.007	338.62
2407.804	345.62
2411.597	336.62
2415.388	336.62
2419.174	333.62
2422.958	335.62
2426.738	336.62
2430.515	335.62
2434.289	333.62
2438.059	324.62
2441.825	333.62
2445.589	326.62
2449.349	332.62
2453.106	323.62
2456.859	314.62
2460.61	311.62
2464.356	315.62
2468.1	311.62
2471.84	314.62
2475.577	296.62
2479.311	305.62
2483.041	312.62
2486.768	297.62
2490.492	297.62
2494.213	305.62
2497.93	302.62
2501.644	304.62
2505.355	303.62
2509.062	293.62
2512.766	303.62
2516.467	303.62
2520.165	298.62
2523.859	303.62
2527.551	301.62
2531.239	292.62
2534.923	297.62
2538.605	291.62
2542.283	280.62
2545.958	284.62
2549.63	285.62
2553.299	286.62
2556.964	267.62
2560.626	279.62
2564.285	282.62
2567.941	278.62
2571.594	266.62
2575.243	271.62
2578.89	280.62
2582.533	262.62
2586.173	263.62
2589.809	262.62
2593.443	261.62
2597.073	257.62
2600.701	259.62
2604.325	267.62
2607.946	250.62
2611.564	251.62
2615.178	250.62
2618.79	254.62
2622.398	251.62
2626.004	242.62
2629.606	243.62
2633.205	240.62
2636.801	240.62
2640.394	242.62
2643.983	244.62
2647.57	230.62
2651.153	236.62
2654.734	228.62
2658.311	230.62
2661.885	223.62
2665.456	216.62
2669.025	231.62
2672.589	222.62
2676.151	206.62
2679.71	215.62
2683.266	222.62
2686.819	212.62
2690.368	211.62
2693.915	211.62
2697.458	206.62
2700.999	198.62
2704.536	193.62
2708.071	201.62
2711.602	200.62
2715.13	204.62
2718.656	201.62
2722.178	191.62
2725.697	203.62
2729.214	206.62
2732.727	208.62
2736.237	208.62
2739.744	203.62
2743.249	216.62
2746.75	208.62
2750.248	210.62
2753.743	203.62
2757.236	201.62
2760.725	199.62
2764.211	209.62
2767.695	202.62
2771.175	201.62
2774.652	197.62
2778.127	199.62
2781.598	195.62
2785.067	193.62
2788.532	195.62
2791.995	196.62
2795.455	198.62
2798.911	198.62
2802.365	199.62
2805.816	208.62
2809.264	200.62
2812.709	204.62
2816.151	201.62
2819.59	209.62
2823.026	199.62
2826.46	213.62
2829.89	204.62
2833.318	215.62
2836.742	209.62
2840.164	206.62
2843.583	209.62
2846.999	212.62
2850.412	212.62
2853.822	212.62
2857.229	216.62
2860.634	224.62
2864.035	220.62
2867.434	232.62
2870.83	232.62
2874.223	236.62
2877.613	248.62
2881	246.62
2884.385	245.62
2887.766	241.62
2891.145	247.62
2894.521	242.62
2897.894	240.62
2901.264	247.62
2904.631	247.62
2907.996	250.62
2911.358	260.62
2914.717	266.62
2918.073	264.62
2921.426	267.62
2924.777	274.62
2928.124	274.62
2931.469	286.62
2934.811	282.62
2938.15	289.62
2941.487	299.62
2944.821	295.62
2948.152	309.62
2951.48	317.62
2954.805	323.62
2958.128	323.62
2961.447	327.62
2964.765	331.62
2968.079	341.62
2971.39	354.62
2974.699	360.62
2978.005	366.62
2981.308	379.62
2984.609	388.62
2987.907	396.62
2991.202	407.62
2994.494	430.62
2997.784	433.62
3001.07	445.62
3004.355	450.62
3007.636	471.62
3010.915	480.62
3014.191	490.62
3017.464	512.62
3020.734	508.62
3024.002	512.62
3027.267	517.62
3030.53	537.62
3033.789	541.62
3037.046	562.62
3040.301	565.62
3043.552	588.62
3046.801	595.62
3050.048	617.62
3053.291	632.62
3056.532	648.62
3059.771	669.62
3063.006	688.62
3066.239	709.62
3069.469	738.62
3072.697	750.62
3075.922	774.62
3079.144	795.62
3082.364	821.62
3085.581	845.62
3088.795	869.62
3092.007	885.62
3095.216	905.62
3098.423	920.62
3101.627	942.62
3104.828	961.62
3108.026	985.62
3111.222	1003.62
3114.416	1020.62
3117.607	1055.62
3120.795	1083.62
3123.98	1107.62
3127.163	1137.62
3130.344	1162.62
3133.521	1181.62
3136.696	1192.62
3139.869	1233.62
3143.039	1242.62
3146.206	1253.62
3149.371	1297.62
3152.533	1310.62
3155.693	1329.62
3158.85	1327.62
3162.005	1347.62
3165.157	1351.62
3168.306	1346.62
3171.453	1347.62
3174.597	1358.62
3177.739	1349.62
3180.878	1390.62
3184.014	1384.62
3187.149	1383.62
3190.28	1384.62
3193.409	1386.62
3196.536	1419.62
3199.659	1402.62
3202.781	1404.62
3205.9	1404.62
3209.016	1410.62
3212.13	1424.62
3215.241	1415.62
3218.35	1412.62
3221.456	1400.62
3224.56	1379.62
3227.661	1394.62
3230.76	1365.62
3233.856	1354.62
3236.95	1341.62
3240.041	1326.62
3243.13	1324.62
3246.216	1299.62
3249.3	1306.62
3252.382	1275.62
3255.46	1283.62
3258.537	1276.62
3261.611	1279.62
3264.682	1259.62
3267.751	1247.62
3270.818	1239.62
3273.882	1245.62
3276.943	1231.62
3280.002	1220.62
3283.059	1199.62
3286.113	1198.62
3289.165	1177.62
3292.214	1165.62
3295.261	1162.62
3298.306	1142.62
3301.348	1121.62
3304.387	1103.62
3307.425	1088.62
3310.459	1074.62
3313.492	1049.62
3316.521	1039.62
3319.549	1043.62
3322.574	1034.62
3325.597	1017.62
3328.617	1000.62
3331.635	1006.62
3334.65	999.62
3337.663	976.62
3340.674	974.62
3343.682	970.62
3346.688	970.62
3349.691	977.62
3352.692	978.62
3355.691	951.62
3358.687	962.62
3361.681	948.62
3364.673	939.62
3367.662	924.62
3370.649	915.62
3373.633	906.62
3376.615	896.62
3379.595	876.62
3382.572	872.62
3385.547	856.62
3388.52	859.62
3391.49	840.62
3394.458	821.62
3397.424	816.62
3400.387	814.62
3403.348	792.62
3406.307	783.62
3409.263	783.62
3412.217	766.62
3415.168	773.62
3418.118	750.62
3421.065	750.62
3424.009	735.62
3426.951	717.62
3429.891	724.62
3432.829	712.62
3435.764	701.62
3438.697	674.62
3441.628	663.62
3444.557	653.62
3447.483	625.62
3450.407	614.62
3453.328	598.62
3456.247	588.62
3459.164	556.62
3462.079	548.62
3464.991	543.62
3467.902	523.62
3470.809	497.62
3473.715	487.62
3476.618	471.62
3479.519	455.62
3482.418	449.62
3485.315	437.62
3488.209	421.62
3491.101	411.62
3493.99	394.62
3496.878	394.62
3499.763	373.62
3502.646	363.62
3505.527	351.62
3508.405	334.62
3511.281	317.62
3514.155	311.62
3517.027	297.62
3519.897	279.62
3522.764	272.62
3525.629	263.62
3528.492	248.62
3531.352	225.62
3534.211	219.62
3537.067	204.62
3539.921	192.62
3542.773	183.62
3545.622	169.62
3548.469	167.62
3551.315	159.62
3554.157	145.62
3556.998	135.62
3559.837	132.62
3562.673	119.62
3565.507	116.62
3568.339	101.62
3571.169	103.62
3573.996	95.62
3576.822	96.62
3579.645	82.62
3582.466	76.62
3585.285	68.62
3588.101	63.62
3590.916	60.62
3593.728	53.62
3596.538	46.62
3599.346	44.62
3602.152	35.62
3604.956	29.62
3607.757	24.62
3610.556	16.62
3613.354	16.62
3616.149	13.62
3618.942	6.62
3621.732	2.62
3624.521	1.62
3627.307	-9.38
3630.092	-11.38
3632.874	-10.38
3635.654	-22.38
3638.432	-24.38
3641.208	-20.38
3643.982	-30.38
3646.753	-29.38
3649.523	-27.38
3652.29	-29.38
3655.055	-41.38
3657.818	-38.38
3660.579	-45.38
3663.338	-46.38
3666.095	-50.38
3668.849	-51.38
3671.602	-55.38
3674.352	-55.38
3677.101	-57.38
3679.847	-62.38
3682.591	-65.38
3685.333	-68.38
3688.073	-65.38
3690.811	-69.38
3693.547	-72.38
3696.281	-69.38
3699.013	-77.38
3701.742	-75.38
3704.47	-76.38
3707.195	-77.38
3709.919	-76.38
3712.64	-83.38
3715.359	-87.38
3718.076	-79.38
3720.792	-88.38
3723.505	-81.38
3726.216	-81.38
3728.925	-92.38
3731.632	-88.38
3734.336	-88.38
3737.039	-90.38
3739.74	-95.38
3742.439	-91.38
3745.136	-96.38
3747.83	-100.38
3750.523	-100.38
3753.213	-99.38
3755.902	-95.38
3758.589	-91.38
3761.273	-94.38
3763.956	-95.38
3766.636	-99.38
3769.315	-98.38
3771.991	-96.38
3774.665	-97.38
3777.338	-101.38
3780.008	-104.38
3782.677	-102.38
3785.343	-103.38
3788.007	-100.38
3790.67	-103.38
3793.33	-100.38
3795.989	-100.38
3798.645	-98.38
3801.299	-102.38
3803.952	-107.38
3806.602	-104.38
3809.251	-104.38
3811.897	-107.38
3814.542	-108.38
3817.184	-108.38
3819.825	-104.38
3822.463	-99.38
3825.1	-100.38
3827.735	-106.38
3830.367	-103.38
3832.998	-106.38
3835.627	-107.38
3838.253	-109.38
3840.878	-111.38
3843.501	-109.38
3846.122	-111.38
3848.741	-106.38
3851.358	-108.38
3853.973	-105.38
3856.586	-103.38
3859.197	-107.38
3861.806	-105.38
3864.414	-103.38
3867.019	-110.38
3869.622	-108.38
3872.224	-117.38
3874.823	-109.38
3877.421	-105.38
3880.016	-99.38
3882.61	-99.38
3885.202	-96.38
3887.792	-96.38
3890.38	-106.38
3892.966	-107.38
3895.55	-113.38
3898.132	-113.38
3900.713	-109.38
3903.291	-111.38
3905.868	-112.38
3908.442	-107.38
3911.015	-112.38
3913.586	-114.38
3916.155	-106.38
3918.722	-112.38
3921.287	-108.38
3923.85	-114.38
3926.411	-114.38
3928.971	-110.38
3931.528	-115.38
3934.084	-113.38
3936.638	-110.38
3939.19	-112.38
3941.74	-114.38
3944.288	-113.38
3946.834	-107.38
3949.378	-107.38
3951.921	-111.38
3954.462	-111.38
3957	-113.38
3959.537	-114.38
3962.072	-113.38
3964.606	-113.38
3967.137	-111.38
3969.667	-111.38
3972.194	-112.38
3974.72	-107.38
3977.244	-111.38
3979.766	-109.38
3982.286	-105.38
3984.805	-112.38
3987.321	-112.38
3989.836	-115.38
3992.349	-115.38
3994.86	-110.38
3997.369	-109.38
3999.877	-114.38
4002.382	-109.38
4004.886	-106.38
4007.388	-109.38
4009.888	-110.38
4012.386	-109.38
4014.883	-111.38
4017.377	-111.38
4019.87	-114.38
4022.361	-113.38
4024.85	-112.38
4027.338	-112.38
4029.823	-110.38
4032.307	-106.38
4034.789	-108.38
4037.269	-109.38
4039.747	-109.38
4042.224	-110.38
4044.699	-116.38
4047.172	-112.38
4049.643	-115.38
4052.112	-116.38
4054.58	-117.38
4057.046	-117.38
4059.51	-116.38
4061.972	-116.38
4064.432	-112.38
4066.891	-112.38
4069.348	-110.38
4071.803	-112.38
4074.256	-112.38
4076.708	-112.38
4079.158	-118.38
4081.606	-116.38
4084.052	-110.38
4086.497	-113.38
4088.939	-111.38
4091.38	-117.38
4093.819	-114.38
4096.257	-117.38
4098.693	-120.38
4101.127	-115.38
4103.559	-119.38
4105.989	-77.38
4108.418	-72.38
4110.845	-69.38
4113.27	-63.38
4115.694	-56.38
4118.115	-49.38
4120.535	-109.38
4122.954	-115.38
4125.37	-110.38
4127.785	-113.38
4130.198	-113.38
4132.609	-112.38
4135.019	-119.38
4137.427	-118.38
4139.833	-118.38
4142.237	-119.38
