Data from 1CFU2_B_RamanShift_1.txt Node
Date: Tue Jan 31 14:17:02 IST 2017
User: aro
Spectrometer: QEPB0276
Trigger mode: 0
Integration Time (sec): 5.000000E0
Scans to average: 1
Electric dark correction enabled: true
Nonlinearity correction enabled: false
Boxcar width: 0
XAxis mode: Raman Shifts
Number of Pixels in Spectrum: 1044
>>>>>Begin Spectral Data<<<<<
160.701	-41.5
166.742	-3.5
172.777	96.5
178.805	415.5
184.826	1147.5
190.841	2357.5
196.849	3647.5
202.85	4483.5
208.845	4683.5
214.833	4560.5
220.815	4359.5
226.789	4210.5
232.758	4112.5
238.719	3985.5
244.674	3837.5
250.623	3664.5
256.565	3507.5
262.5	3329.5
268.429	3200.5
274.351	3056.5
280.267	2956.5
286.176	2842.5
292.079	2727.5
297.975	2654.5
303.865	2565.5
309.748	2499.5
315.625	2425.5
321.495	2372.5
327.359	2329.5
333.217	2322.5
339.068	2295.5
344.912	2284.5
350.751	2280.5
356.583	2266.5
362.408	2281.5
368.227	2268.5
374.04	2293.5
379.847	2304.5
385.647	2299.5
391.44	2312.5
397.228	2326.5
403.009	2319.5
408.784	2363.5
414.553	2351.5
420.315	2370.5
426.071	2357.5
431.821	2376.5
437.565	2367.5
443.302	2358.5
449.033	2339.5
454.758	2325.5
460.477	2329.5
466.189	2324.5
471.896	2296.5
477.596	2301.5
483.29	2277.5
488.978	2260.5
494.66	2256.5
500.335	2235.5
506.005	2203.5
511.668	2158.5
517.325	2093.5
522.977	2091.5
528.622	2068.5
534.261	2036.5
539.894	1996.5
545.521	2002.5
551.141	1983.5
556.756	1991.5
562.365	1967.5
567.968	1934.5
573.565	1943.5
579.155	1935.5
584.74	1914.5
590.319	1899.5
595.892	1883.5
601.459	1866.5
607.02	1856.5
612.575	1849.5
618.124	1844.5
623.667	1816.5
629.204	1806.5
634.735	1801.5
640.261	1779.5
645.781	1760.5
651.294	1745.5
656.802	1742.5
662.304	1732.5
667.8	1726.5
673.29	1725.5
678.775	1724.5
684.254	1712.5
689.726	1690.5
695.193	1697.5
700.655	1668.5
706.11	1685.5
711.56	1668.5
717.004	1654.5
722.442	1638.5
727.874	1631.5
733.301	1615.5
738.722	1604.5
744.137	1594.5
749.547	1620.5
754.951	1581.5
760.349	1591.5
765.741	1565.5
771.128	1595.5
776.509	1599.5
781.885	1606.5
787.254	1575.5
792.618	1591.5
797.977	1584.5
803.33	1559.5
808.677	1562.5
814.019	1542.5
819.355	1525.5
824.686	1513.5
830.011	1506.5
835.33	1468.5
840.644	1465.5
845.952	1471.5
851.255	1459.5
856.552	1458.5
861.844	1450.5
867.13	1439.5
872.41	1430.5
877.686	1430.5
882.955	1407.5
888.219	1402.5
893.478	1375.5
898.731	1344.5
903.979	1343.5
909.221	1313.5
914.458	1282.5
919.69	1304.5
924.916	1293.5
930.136	1286.5
935.351	1274.5
940.561	1272.5
945.766	1268.5
950.965	1273.5
956.158	1260.5
961.347	1268.5
966.529	1241.5
971.707	1228.5
976.879	1203.5
982.046	1199.5
987.208	1179.5
992.364	1187.5
997.515	1182.5
1002.66	1194.5
1007.801	1202.5
1012.936	1197.5
1018.066	1221.5
1023.19	1229.5
1028.309	1237.5
1033.423	1241.5
1038.532	1220.5
1043.636	1229.5
1048.734	1194.5
1053.827	1197.5
1058.915	1188.5
1063.998	1174.5
1069.075	1182.5
1074.147	1168.5
1079.214	1182.5
1084.276	1169.5
1089.333	1193.5
1094.385	1201.5
1099.431	1199.5
1104.472	1218.5
1109.509	1203.5
1114.54	1203.5
1119.565	1204.5
1124.586	1172.5
1129.602	1154.5
1134.613	1146.5
1139.618	1136.5
1144.619	1138.5
1149.614	1148.5
1154.604	1170.5
1159.589	1156.5
1164.57	1160.5
1169.545	1169.5
1174.515	1173.5
1179.48	1172.5
1184.44	1165.5
1189.395	1172.5
1194.345	1156.5
1199.29	1148.5
1204.23	1140.5
1209.165	1147.5
1214.095	1145.5
1219.021	1160.5
1223.941	1171.5
1228.856	1173.5
1233.766	1195.5
1238.672	1185.5
1243.572	1191.5
1248.467	1190.5
1253.358	1193.5
1258.244	1159.5
1263.124	1139.5
1268	1130.5
1272.871	1121.5
1277.737	1100.5
1282.599	1105.5
1287.455	1094.5
1292.306	1105.5
1297.153	1099.5
1301.995	1111.5
1306.832	1108.5
1311.664	1137.5
1316.491	1132.5
1321.314	1132.5
1326.132	1138.5
1330.945	1125.5
1335.753	1119.5
1340.556	1091.5
1345.354	1100.5
1350.148	1075.5
1354.937	1061.5
1359.722	1046.5
1364.501	1034.5
1369.276	1024.5
1374.046	1010.5
1378.811	1012.5
1383.572	1006.5
1388.327	1021.5
1393.079	1018.5
1397.825	1008.5
1402.567	1017.5
1407.304	1010.5
1412.036	1006.5
1416.764	996.5
1421.487	994.5
1426.205	995.5
1430.919	1004.5
1435.628	1006.5
1440.333	1022.5
1445.032	1052.5
1449.727	1045.5
1454.418	1050.5
1459.104	1048.5
1463.785	1045.5
1468.462	1037.5
1473.134	1026.5
1477.802	1015.5
1482.465	1013.5
1487.123	1008.5
1491.777	1009.5
1496.426	1009.5
1501.071	1027.5
1505.711	1030.5
1510.347	1048.5
1514.978	1051.5
1519.604	1057.5
1524.226	1051.5
1528.844	1058.5
1533.457	1073.5
1538.065	1057.5
1542.669	1060.5
1547.269	1069.5
1551.864	1065.5
1556.454	1070.5
1561.041	1081.5
1565.622	1090.5
1570.199	1099.5
1574.772	1144.5
1579.34	1148.5
1583.904	1166.5
1588.464	1168.5
1593.019	1201.5
1597.569	1225.5
1602.115	1234.5
1606.657	1238.5
1611.195	1273.5
1615.728	1278.5
1620.256	1301.5
1624.78	1304.5
1629.3	1323.5
1633.816	1339.5
1638.327	1351.5
1642.834	1367.5
1647.336	1366.5
1651.834	1371.5
1656.328	1399.5
1660.817	1364.5
1665.302	1356.5
1669.783	1328.5
1674.259	1297.5
1678.732	1261.5
1683.199	1214.5
1687.663	1185.5
1692.122	1129.5
1696.577	1075.5
1701.028	1020.5
1705.474	983.5
1709.917	948.5
1714.355	938.5
1718.788	916.5
1723.218	925.5
1727.643	887.5
1732.064	885.5
1736.481	847.5
1740.893	830.5
1745.301	815.5
1749.705	780.5
1754.105	767.5
1758.501	768.5
1762.893	726.5
1767.28	728.5
1771.663	717.5
1776.042	719.5
1780.417	722.5
1784.787	729.5
1789.154	718.5
1793.516	720.5
1797.874	713.5
1802.228	708.5
1806.578	704.5
1810.924	691.5
1815.266	675.5
1819.603	667.5
1823.937	659.5
1828.266	657.5
1832.591	665.5
1836.913	648.5
1841.23	654.5
1845.543	651.5
1849.852	641.5
1854.156	655.5
1858.457	638.5
1862.754	651.5
1867.047	656.5
1871.335	658.5
1875.62	660.5
1879.9	661.5
1884.177	668.5
1888.449	663.5
1892.718	661.5
1896.982	658.5
1901.243	659.5
1905.499	655.5
1909.752	640.5
1914	653.5
1918.245	651.5
1922.485	651.5
1926.722	662.5
1930.954	652.5
1935.183	653.5
1939.408	660.5
1943.628	664.5
1947.845	648.5
1952.058	661.5
1956.267	645.5
1960.472	657.5
1964.673	649.5
1968.87	628.5
1973.063	633.5
1977.252	629.5
1981.438	623.5
1985.619	624.5
1989.797	627.5
1993.971	620.5
1998.14	620.5
2002.306	622.5
2006.469	629.5
2010.627	627.5
2014.781	641.5
2018.932	644.5
2023.078	634.5
2027.221	632.5
2031.36	633.5
2035.495	625.5
2039.627	623.5
2043.754	613.5
2047.878	618.5
2051.998	612.5
2056.114	612.5
2060.226	610.5
2064.334	623.5
2068.439	632.5
2072.54	628.5
2076.637	624.5
2080.73	627.5
2084.82	637.5
2088.906	638.5
2092.988	651.5
2097.066	639.5
2101.14	636.5
2105.211	633.5
2109.278	626.5
2113.342	634.5
2117.401	622.5
2121.457	618.5
2125.509	608.5
2129.558	611.5
2133.602	609.5
2137.643	596.5
2141.681	606.5
2145.714	582.5
2149.744	590.5
2153.77	602.5
2157.793	585.5
2161.812	570.5
2165.827	585.5
2169.838	568.5
2173.846	565.5
2177.851	552.5
2181.851	538.5
2185.848	541.5
2189.841	537.5
2193.831	536.5
2197.817	522.5
2201.799	524.5
2205.778	527.5
2209.753	522.5
2213.725	509.5
2217.693	510.5
2221.657	511.5
2225.618	510.5
2229.575	513.5
2233.529	504.5
2237.479	512.5
2241.425	504.5
2245.368	498.5
2249.307	494.5
2253.243	483.5
2257.175	466.5
2261.104	467.5
2265.029	455.5
2268.95	461.5
2272.868	454.5
2276.783	440.5
2280.694	428.5
2284.601	429.5
2288.505	432.5
2292.405	412.5
2296.302	416.5
2300.195	406.5
2304.085	407.5
2307.971	390.5
2311.854	397.5
2315.734	384.5
2319.609	372.5
2323.482	377.5
2327.351	369.5
2331.216	366.5
2335.078	366.5
2338.937	362.5
2342.792	353.5
2346.643	353.5
2350.492	351.5
2354.336	358.5
2358.178	355.5
2362.015	344.5
2365.85	355.5
2369.681	360.5
2373.508	354.5
2377.333	366.5
2381.153	364.5
2384.971	362.5
2388.785	364.5
2392.595	358.5
2396.402	350.5
2400.206	343.5
2404.007	360.5
2407.804	337.5
2411.597	337.5
2415.388	340.5
2419.174	347.5
2422.958	342.5
2426.738	348.5
2430.515	337.5
2434.289	335.5
2438.059	338.5
2441.825	335.5
2445.589	330.5
2449.349	327.5
2453.106	315.5
2456.859	317.5
2460.61	313.5
2464.356	323.5
2468.1	311.5
2471.84	319.5
2475.577	318.5
2479.311	316.5
2483.041	314.5
2486.768	318.5
2490.492	307.5
2494.213	318.5
2497.93	310.5
2501.644	307.5
2505.355	307.5
2509.062	325.5
2512.766	311.5
2516.467	310.5
2520.165	304.5
2523.859	302.5
2527.551	301.5
2531.239	296.5
2534.923	300.5
2538.605	289.5
2542.283	282.5
2545.958	275.5
2549.63	282.5
2553.299	289.5
2556.964	288.5
2560.626	285.5
2564.285	287.5
2567.941	282.5
2571.594	271.5
2575.243	274.5
2578.89	266.5
2582.533	265.5
2586.173	261.5
2589.809	266.5
2593.443	261.5
2597.073	261.5
2600.701	261.5
2604.325	265.5
2607.946	261.5
2611.564	250.5
2615.178	257.5
2618.79	250.5
2622.398	251.5
2626.004	241.5
2629.606	247.5
2633.205	247.5
2636.801	246.5
2640.394	233.5
2643.983	237.5
2647.57	238.5
2651.153	227.5
2654.734	236.5
2658.311	231.5
2661.885	236.5
2665.456	231.5
2669.025	229.5
2672.589	231.5
2676.151	222.5
2679.71	225.5
2683.266	228.5
2686.819	222.5
2690.368	210.5
2693.915	215.5
2697.458	218.5
2700.999	203.5
2704.536	213.5
2708.071	211.5
2711.602	198.5
2715.13	206.5
2718.656	208.5
2722.178	206.5
2725.697	202.5
2729.214	199.5
2732.727	210.5
2736.237	199.5
2739.744	210.5
2743.249	220.5
2746.75	213.5
2750.248	206.5
2753.743	201.5
2757.236	199.5
2760.725	196.5
2764.211	204.5
2767.695	193.5
2771.175	193.5
2774.652	197.5
2778.127	194.5
2781.598	194.5
2785.067	200.5
2788.532	193.5
2791.995	193.5
2795.455	198.5
2798.911	203.5
2802.365	192.5
2805.816	202.5
2809.264	199.5
2812.709	201.5
2816.151	209.5
2819.59	213.5
2823.026	204.5
2826.46	209.5
2829.89	203.5
2833.318	209.5
2836.742	208.5
2840.164	206.5
2843.583	208.5
2846.999	214.5
2850.412	218.5
2853.822	221.5
2857.229	219.5
2860.634	231.5
2864.035	233.5
2867.434	232.5
2870.83	230.5
2874.223	234.5
2877.613	240.5
2881	242.5
2884.385	236.5
2887.766	234.5
2891.145	242.5
2894.521	249.5
2897.894	248.5
2901.264	251.5
2904.631	255.5
2907.996	253.5
2911.358	247.5
2914.717	249.5
2918.073	268.5
2921.426	251.5
2924.777	266.5
2928.124	268.5
2931.469	275.5
2934.811	281.5
2938.15	295.5
2941.487	305.5
2944.821	310.5
2948.152	302.5
2951.48	306.5
2954.805	311.5
2958.128	315.5
2961.447	325.5
2964.765	333.5
2968.079	333.5
2971.39	344.5
2974.699	363.5
2978.005	367.5
2981.308	370.5
2984.609	379.5
2987.907	386.5
2991.202	400.5
2994.494	408.5
2997.784	420.5
3001.07	440.5
3004.355	437.5
3007.636	459.5
3010.915	468.5
3014.191	477.5
3017.464	487.5
3020.734	495.5
3024.002	515.5
3027.267	520.5
3030.53	517.5
3033.789	532.5
3037.046	545.5
3040.301	552.5
3043.552	570.5
3046.801	592.5
3050.048	608.5
3053.291	628.5
3056.532	647.5
3059.771	657.5
3063.006	679.5
3066.239	703.5
3069.469	735.5
3072.697	752.5
3075.922	771.5
3079.144	783.5
3082.364	814.5
3085.581	835.5
3088.795	848.5
3092.007	879.5
3095.216	894.5
3098.423	912.5
3101.627	930.5
3104.828	961.5
3108.026	963.5
3111.222	990.5
3114.416	1017.5
3117.607	1038.5
3120.795	1067.5
3123.98	1099.5
3127.163	1118.5
3130.344	1140.5
3133.521	1158.5
3136.696	1193.5
3139.869	1217.5
3143.039	1232.5
3146.206	1257.5
3149.371	1272.5
3152.533	1267.5
3155.693	1307.5
3158.85	1305.5
3162.005	1312.5
3165.157	1332.5
3168.306	1323.5
3171.453	1326.5
3174.597	1337.5
3177.739	1330.5
3180.878	1351.5
3184.014	1349.5
3187.149	1353.5
3190.28	1354.5
3193.409	1366.5
3196.536	1371.5
3199.659	1393.5
3202.781	1385.5
3205.9	1391.5
3209.016	1387.5
3212.13	1397.5
3215.241	1368.5
3218.35	1378.5
3221.456	1360.5
3224.56	1347.5
3227.661	1347.5
3230.76	1341.5
3233.856	1322.5
3236.95	1315.5
3240.041	1306.5
3243.13	1277.5
3246.216	1272.5
3249.3	1241.5
3252.382	1263.5
3255.46	1261.5
3258.537	1220.5
3261.611	1216.5
3264.682	1223.5
3267.751	1211.5
3270.818	1204.5
3273.882	1209.5
3276.943	1190.5
3280.002	1197.5
3283.059	1169.5
3286.113	1166.5
3289.165	1160.5
3292.214	1140.5
3295.261	1132.5
3298.306	1108.5
3301.348	1094.5
3304.387	1074.5
3307.425	1068.5
3310.459	1052.5
3313.492	1028.5
3316.521	1009.5
3319.549	1001.5
3322.574	1001.5
3325.597	989.5
3328.617	980.5
3331.635	980.5
3334.65	969.5
3337.663	971.5
3340.674	960.5
3343.682	953.5
3346.688	964.5
3349.691	931.5
3352.692	955.5
3355.691	947.5
3358.687	947.5
3361.681	944.5
3364.673	925.5
3367.662	912.5
3370.649	909.5
3373.633	884.5
3376.615	880.5
3379.595	875.5
3382.572	855.5
3385.547	842.5
3388.52	832.5
3391.49	832.5
3394.458	807.5
3397.424	793.5
3400.387	770.5
3403.348	783.5
3406.307	773.5
3409.263	764.5
3412.217	745.5
3415.168	741.5
3418.118	739.5
3421.065	727.5
3424.009	717.5
3426.951	708.5
3429.891	700.5
3432.829	694.5
3435.764	665.5
3438.697	655.5
3441.628	638.5
3444.557	634.5
3447.483	620.5
3450.407	593.5
3453.328	583.5
3456.247	562.5
3459.164	556.5
3462.079	540.5
3464.991	524.5
3467.902	499.5
3470.809	500.5
3473.715	475.5
3476.618	445.5
3479.519	440.5
3482.418	432.5
3485.315	423.5
3488.209	397.5
3491.101	386.5
3493.99	381.5
3496.878	378.5
3499.763	359.5
3502.646	347.5
3505.527	338.5
3508.405	326.5
3511.281	311.5
3514.155	297.5
3517.027	291.5
3519.897	272.5
3522.764	265.5
3525.629	252.5
3528.492	239.5
3531.352	223.5
3534.211	212.5
3537.067	193.5
3539.921	183.5
3542.773	177.5
3545.622	167.5
3548.469	154.5
3551.315	153.5
3554.157	139.5
3556.998	129.5
3559.837	122.5
3562.673	120.5
3565.507	108.5
3568.339	100.5
3571.169	87.5
3573.996	78.5
3576.822	84.5
3579.645	81.5
3582.466	65.5
3585.285	68.5
3588.101	61.5
3590.916	50.5
3593.728	47.5
3596.538	39.5
3599.346	37.5
3602.152	31.5
3604.956	26.5
3607.757	18.5
3610.556	12.5
3613.354	7.5
3616.149	15.5
3618.942	5.5
3621.732	1.5
3624.521	-4.5
3627.307	-5.5
3630.092	-10.5
3632.874	-11.5
3635.654	-25.5
3638.432	-23.5
3641.208	-20.5
3643.982	-32.5
3646.753	-33.5
3649.523	-31.5
3652.29	-37.5
3655.055	-38.5
3657.818	-36.5
3660.579	-43.5
3663.338	-40.5
3666.095	-52.5
3668.849	-50.5
3671.602	-51.5
3674.352	-55.5
3677.101	-62.5
3679.847	-60.5
3682.591	-70.5
3685.333	-63.5
3688.073	-63.5
3690.811	-69.5
3693.547	-77.5
3696.281	-68.5
3699.013	-73.5
3701.742	-72.5
3704.47	-79.5
3707.195	-79.5
3709.919	-79.5
3712.64	-82.5
3715.359	-86.5
3718.076	-82.5
3720.792	-83.5
3723.505	-82.5
3726.216	-82.5
3728.925	-85.5
3731.632	-86.5
3734.336	-85.5
3737.039	-93.5
3739.74	-95.5
3742.439	-91.5
3745.136	-93.5
3747.83	-93.5
3750.523	-95.5
3753.213	-97.5
3755.902	-96.5
3758.589	-93.5
3761.273	-89.5
3763.956	-92.5
3766.636	-97.5
3769.315	-96.5
3771.991	-96.5
3774.665	-98.5
3777.338	-98.5
3780.008	-98.5
3782.677	-102.5
3785.343	-101.5
3788.007	-97.5
3790.67	-104.5
3793.33	-101.5
3795.989	-102.5
3798.645	-99.5
3801.299	-99.5
3803.952	-103.5
3806.602	-102.5
3809.251	-104.5
3811.897	-108.5
3814.542	-108.5
3817.184	-100.5
3819.825	-102.5
3822.463	-102.5
3825.1	-100.5
3827.735	-103.5
3830.367	-100.5
3832.998	-106.5
3835.627	-106.5
3838.253	-108.5
3840.878	-105.5
3843.501	-104.5
3846.122	-103.5
3848.741	-104.5
3851.358	-107.5
3853.973	-104.5
3856.586	-102.5
3859.197	-103.5
3861.806	-110.5
3864.414	-107.5
3867.019	-111.5
3869.622	-111.5
3872.224	-115.5
3874.823	-107.5
3877.421	-104.5
3880.016	-99.5
3882.61	-95.5
3885.202	-96.5
3887.792	-99.5
3890.38	-104.5
3892.966	-102.5
3895.55	-109.5
3898.132	-112.5
3900.713	-110.5
3903.291	-111.5
3905.868	-111.5
3908.442	-110.5
3911.015	-107.5
3913.586	-111.5
3916.155	-104.5
3918.722	-109.5
3921.287	-108.5
3923.85	-111.5
3926.411	-117.5
3928.971	-109.5
3931.528	-115.5
3934.084	-112.5
3936.638	-111.5
3939.19	-112.5
3941.74	-110.5
3944.288	-115.5
3946.834	-108.5
3949.378	-109.5
3951.921	-108.5
3954.462	-113.5
3957	-111.5
3959.537	-113.5
3962.072	-112.5
3964.606	-114.5
3967.137	-110.5
3969.667	-109.5
3972.194	-110.5
3974.72	-109.5
3977.244	-107.5
3979.766	-109.5
3982.286	-106.5
3984.805	-108.5
3987.321	-116.5
3989.836	-114.5
3992.349	-111.5
3994.86	-112.5
3997.369	-109.5
3999.877	-114.5
4002.382	-110.5
4004.886	-106.5
4007.388	-109.5
4009.888	-108.5
4012.386	-111.5
4014.883	-107.5
4017.377	-111.5
4019.87	-111.5
4022.361	-116.5
4024.85	-111.5
4027.338	-113.5
4029.823	-109.5
4032.307	-106.5
4034.789	-108.5
4037.269	-108.5
4039.747	-109.5
4042.224	-109.5
4044.699	-114.5
4047.172	-112.5
4049.643	-116.5
4052.112	-115.5
4054.58	-114.5
4057.046	-114.5
4059.51	-112.5
4061.972	-113.5
4064.432	-106.5
4066.891	-113.5
4069.348	-108.5
4071.803	-114.5
4074.256	-113.5
4076.708	-109.5
4079.158	-120.5
4081.606	-116.5
4084.052	-110.5
4086.497	-113.5
4088.939	-113.5
4091.38	-110.5
4093.819	-112.5
4096.257	-119.5
4098.693	-116.5
4101.127	-114.5
4103.559	-116.5
4105.989	-76.5
4108.418	-74.5
4110.845	-65.5
4113.27	-59.5
4115.694	-56.5
4118.115	-49.5
4120.535	-109.5
4122.954	-116.5
4125.37	-111.5
4127.785	-111.5
4130.198	-112.5
4132.609	-115.5
4135.019	-120.5
4137.427	-116.5
4139.833	-114.5
4142.237	-115.5
