Data from 1CFU2_A_RamanShift_1.txt Node
Date: Tue Jan 31 15:10:14 IST 2017
User: aro
Spectrometer: QEPB0276
Trigger mode: 0
Integration Time (sec): 5.000000E0
Scans to average: 1
Electric dark correction enabled: true
Nonlinearity correction enabled: false
Boxcar width: 0
XAxis mode: Raman Shifts
Number of Pixels in Spectrum: 1044
>>>>>Begin Spectral Data<<<<<
160.701	-41.12
166.742	2.88
172.777	99.88
178.805	417.88
184.826	1137.88
190.841	2333.88
196.849	3657.88
202.85	4466.88
208.845	4674.88
214.833	4523.88
220.815	4367.88
226.789	4216.88
232.758	4109.88
238.719	3992.88
244.674	3825.88
250.623	3651.88
256.565	3495.88
262.5	3301.88
268.429	3162.88
274.351	3051.88
280.267	2911.88
286.176	2819.88
292.079	2711.88
297.975	2627.88
303.865	2558.88
309.748	2469.88
315.625	2410.88
321.495	2343.88
327.359	2315.88
333.217	2308.88
339.068	2282.88
344.912	2251.88
350.751	2254.88
356.583	2236.88
362.408	2248.88
368.227	2240.88
374.04	2265.88
379.847	2272.88
385.647	2268.88
391.44	2291.88
397.228	2314.88
403.009	2335.88
408.784	2311.88
414.553	2323.88
420.315	2333.88
426.071	2326.88
431.821	2341.88
437.565	2325.88
443.302	2336.88
449.033	2316.88
454.758	2321.88
460.477	2314.88
466.189	2282.88
471.896	2276.88
477.596	2252.88
483.29	2240.88
488.978	2254.88
494.66	2224.88
500.335	2208.88
506.005	2190.88
511.668	2145.88
517.325	2075.88
522.977	2068.88
528.622	2035.88
534.261	2022.88
539.894	2008.88
545.521	1982.88
551.141	1967.88
556.756	1948.88
562.365	1929.88
567.968	1934.88
573.565	1916.88
579.155	1901.88
584.74	1909.88
590.319	1889.88
595.892	1885.88
601.459	1875.88
607.02	1848.88
612.575	1832.88
618.124	1819.88
623.667	1795.88
629.204	1800.88
634.735	1764.88
640.261	1757.88
645.781	1764.88
651.294	1721.88
656.802	1717.88
662.304	1736.88
667.8	1712.88
673.29	1707.88
678.775	1710.88
684.254	1719.88
689.726	1678.88
695.193	1667.88
700.655	1679.88
706.11	1651.88
711.56	1651.88
717.004	1651.88
722.442	1646.88
727.874	1634.88
733.301	1614.88
738.722	1610.88
744.137	1595.88
749.547	1584.88
754.951	1586.88
760.349	1565.88
765.741	1590.88
771.128	1591.88
776.509	1595.88
781.885	1578.88
787.254	1571.88
792.618	1576.88
797.977	1574.88
803.33	1562.88
808.677	1531.88
814.019	1536.88
819.355	1514.88
824.686	1488.88
830.011	1483.88
835.33	1461.88
840.644	1468.88
845.952	1455.88
851.255	1451.88
856.552	1440.88
861.844	1444.88
867.13	1435.88
872.41	1412.88
877.686	1414.88
882.955	1403.88
888.219	1382.88
893.478	1357.88
898.731	1342.88
903.979	1320.88
909.221	1297.88
914.458	1302.88
919.69	1277.88
924.916	1274.88
930.136	1264.88
935.351	1266.88
940.561	1272.88
945.766	1286.88
950.965	1252.88
956.158	1266.88
961.347	1244.88
966.529	1224.88
971.707	1219.88
976.879	1213.88
982.046	1201.88
987.208	1186.88
992.364	1183.88
997.515	1175.88
1002.66	1182.88
1007.801	1181.88
1012.936	1204.88
1018.066	1205.88
1023.19	1221.88
1028.309	1228.88
1033.423	1226.88
1038.532	1219.88
1043.636	1232.88
1048.734	1200.88
1053.827	1208.88
1058.915	1170.88
1063.998	1181.88
1069.075	1154.88
1074.147	1158.88
1079.214	1161.88
1084.276	1176.88
1089.333	1187.88
1094.385	1184.88
1099.431	1187.88
1104.472	1191.88
1109.509	1197.88
1114.54	1202.88
1119.565	1189.88
1124.586	1166.88
1129.602	1163.88
1134.613	1142.88
1139.618	1143.88
1144.619	1126.88
1149.614	1146.88
1154.604	1147.88
1159.589	1141.88
1164.57	1164.88
1169.545	1167.88
1174.515	1154.88
1179.48	1173.88
1184.44	1167.88
1189.395	1152.88
1194.345	1159.88
1199.29	1146.88
1204.23	1156.88
1209.165	1156.88
1214.095	1152.88
1219.021	1160.88
1223.941	1177.88
1228.856	1190.88
1233.766	1173.88
1238.672	1174.88
1243.572	1186.88
1248.467	1182.88
1253.358	1166.88
1258.244	1145.88
1263.124	1132.88
1268	1132.88
1272.871	1123.88
1277.737	1105.88
1282.599	1098.88
1287.455	1084.88
1292.306	1098.88
1297.153	1102.88
1301.995	1112.88
1306.832	1121.88
1311.664	1129.88
1316.491	1133.88
1321.314	1130.88
1326.132	1120.88
1330.945	1123.88
1335.753	1098.88
1340.556	1098.88
1345.354	1076.88
1350.148	1092.88
1354.937	1063.88
1359.722	1053.88
1364.501	1036.88
1369.276	1020.88
1374.046	1011.88
1378.811	1013.88
1383.572	1004.88
1388.327	1005.88
1393.079	1018.88
1397.825	1006.88
1402.567	1012.88
1407.304	995.88
1412.036	992.88
1416.764	983.88
1421.487	992.88
1426.205	995.88
1430.919	996.88
1435.628	1007.88
1440.333	1021.88
1445.032	1026.88
1449.727	1033.88
1454.418	1031.88
1459.104	1041.88
1463.785	1031.88
1468.462	1040.88
1473.134	1023.88
1477.802	1015.88
1482.465	1016.88
1487.123	1016.88
1491.777	999.88
1496.426	1011.88
1501.071	1024.88
1505.711	1024.88
1510.347	1039.88
1514.978	1057.88
1519.604	1058.88
1524.226	1060.88
1528.844	1080.88
1533.457	1065.88
1538.065	1057.88
1542.669	1061.88
1547.269	1060.88
1551.864	1064.88
1556.454	1072.88
1561.041	1073.88
1565.622	1073.88
1570.199	1084.88
1574.772	1110.88
1579.34	1125.88
1583.904	1155.88
1588.464	1176.88
1593.019	1193.88
1597.569	1196.88
1602.115	1230.88
1606.657	1241.88
1611.195	1242.88
1615.728	1264.88
1620.256	1276.88
1624.78	1286.88
1629.3	1317.88
1633.816	1344.88
1638.327	1348.88
1642.834	1365.88
1647.336	1373.88
1651.834	1369.88
1656.328	1376.88
1660.817	1372.88
1665.302	1357.88
1669.783	1310.88
1674.259	1296.88
1678.732	1259.88
1683.199	1229.88
1687.663	1191.88
1692.122	1120.88
1696.577	1087.88
1701.028	1042.88
1705.474	1013.88
1709.917	956.88
1714.355	940.88
1718.788	920.88
1723.218	903.88
1727.643	894.88
1732.064	877.88
1736.481	857.88
1740.893	842.88
1745.301	803.88
1749.705	778.88
1754.105	769.88
1758.501	752.88
1762.893	733.88
1767.28	719.88
1771.663	722.88
1776.042	729.88
1780.417	731.88
1784.787	729.88
1789.154	730.88
1793.516	726.88
1797.874	724.88
1802.228	714.88
1806.578	691.88
1810.924	704.88
1815.266	676.88
1819.603	676.88
1823.937	665.88
1828.266	662.88
1832.591	646.88
1836.913	651.88
1841.23	645.88
1845.543	642.88
1849.852	646.88
1854.156	645.88
1858.457	642.88
1862.754	660.88
1867.047	657.88
1871.335	663.88
1875.62	659.88
1879.9	672.88
1884.177	679.88
1888.449	669.88
1892.718	679.88
1896.982	662.88
1901.243	659.88
1905.499	652.88
1909.752	658.88
1914	652.88
1918.245	654.88
1922.485	662.88
1926.722	659.88
1930.954	670.88
1935.183	660.88
1939.408	668.88
1943.628	658.88
1947.845	673.88
1952.058	658.88
1956.267	663.88
1960.472	658.88
1964.673	655.88
1968.87	651.88
1973.063	639.88
1977.252	634.88
1981.438	617.88
1985.619	628.88
1989.797	627.88
1993.971	617.88
1998.14	624.88
2002.306	631.88
2006.469	635.88
2010.627	629.88
2014.781	641.88
2018.932	641.88
2023.078	641.88
2027.221	631.88
2031.36	641.88
2035.495	638.88
2039.627	621.88
2043.754	621.88
2047.878	626.88
2051.998	611.88
2056.114	617.88
2060.226	622.88
2064.334	627.88
2068.439	620.88
2072.54	638.88
2076.637	641.88
2080.73	632.88
2084.82	650.88
2088.906	649.88
2092.988	645.88
2097.066	646.88
2101.14	639.88
2105.211	629.88
2109.278	627.88
2113.342	621.88
2117.401	611.88
2121.457	617.88
2125.509	611.88
2129.558	607.88
2133.602	614.88
2137.643	592.88
2141.681	599.88
2145.714	590.88
2149.744	590.88
2153.77	591.88
2157.793	584.88
2161.812	582.88
2165.827	572.88
2169.838	575.88
2173.846	565.88
2177.851	551.88
2181.851	550.88
2185.848	537.88
2189.841	539.88
2193.831	527.88
2197.817	526.88
2201.799	513.88
2205.778	524.88
2209.753	516.88
2213.725	509.88
2217.693	517.88
2221.657	524.88
2225.618	511.88
2229.575	512.88
2233.529	507.88
2237.479	512.88
2241.425	507.88
2245.368	493.88
2249.307	482.88
2253.243	470.88
2257.175	463.88
2261.104	461.88
2265.029	460.88
2268.95	454.88
2272.868	451.88
2276.783	435.88
2280.694	434.88
2284.601	425.88
2288.505	431.88
2292.405	419.88
2296.302	418.88
2300.195	405.88
2304.085	405.88
2307.971	400.88
2311.854	385.88
2315.734	379.88
2319.609	370.88
2323.482	362.88
2327.351	364.88
2331.216	361.88
2335.078	357.88
2338.937	354.88
2342.792	348.88
2346.643	348.88
2350.492	369.88
2354.336	342.88
2358.178	353.88
2362.015	351.88
2365.85	368.88
2369.681	352.88
2373.508	356.88
2377.333	348.88
2381.153	351.88
2384.971	358.88
2388.785	357.88
2392.595	360.88
2396.402	352.88
2400.206	343.88
2404.007	343.88
2407.804	338.88
2411.597	336.88
2415.388	334.88
2419.174	336.88
2422.958	337.88
2426.738	338.88
2430.515	335.88
2434.289	326.88
2438.059	330.88
2441.825	339.88
2445.589	325.88
2449.349	324.88
2453.106	316.88
2456.859	309.88
2460.61	313.88
2464.356	310.88
2468.1	309.88
2471.84	307.88
2475.577	306.88
2479.311	308.88
2483.041	299.88
2486.768	310.88
2490.492	302.88
2494.213	308.88
2497.93	304.88
2501.644	298.88
2505.355	304.88
2509.062	299.88
2512.766	299.88
2516.467	295.88
2520.165	297.88
2523.859	299.88
2527.551	302.88
2531.239	298.88
2534.923	293.88
2538.605	288.88
2542.283	279.88
2545.958	279.88
2549.63	278.88
2553.299	279.88
2556.964	280.88
2560.626	282.88
2564.285	279.88
2567.941	275.88
2571.594	268.88
2575.243	268.88
2578.89	270.88
2582.533	268.88
2586.173	264.88
2589.809	249.88
2593.443	262.88
2597.073	262.88
2600.701	262.88
2604.325	255.88
2607.946	247.88
2611.564	256.88
2615.178	247.88
2618.79	250.88
2622.398	239.88
2626.004	247.88
2629.606	238.88
2633.205	235.88
2636.801	233.88
2640.394	229.88
2643.983	231.88
2647.57	227.88
2651.153	231.88
2654.734	227.88
2658.311	227.88
2661.885	222.88
2665.456	219.88
2669.025	221.88
2672.589	219.88
2676.151	213.88
2679.71	207.88
2683.266	215.88
2686.819	206.88
2690.368	210.88
2693.915	210.88
2697.458	214.88
2700.999	204.88
2704.536	200.88
2708.071	195.88
2711.602	198.88
2715.13	200.88
2718.656	192.88
2722.178	196.88
2725.697	193.88
2729.214	195.88
2732.727	200.88
2736.237	200.88
2739.744	209.88
2743.249	211.88
2746.75	193.88
2750.248	202.88
2753.743	197.88
2757.236	196.88
2760.725	205.88
2764.211	203.88
2767.695	194.88
2771.175	194.88
2774.652	192.88
2778.127	199.88
2781.598	190.88
2785.067	187.88
2788.532	191.88
2791.995	190.88
2795.455	187.88
2798.911	192.88
2802.365	196.88
2805.816	196.88
2809.264	199.88
2812.709	198.88
2816.151	196.88
2819.59	206.88
2823.026	193.88
2826.46	206.88
2829.89	201.88
2833.318	208.88
2836.742	214.88
2840.164	208.88
2843.583	212.88
2846.999	215.88
2850.412	203.88
2853.822	216.88
2857.229	218.88
2860.634	220.88
2864.035	225.88
2867.434	232.88
2870.83	238.88
2874.223	227.88
2877.613	233.88
2881	231.88
2884.385	239.88
2887.766	230.88
2891.145	235.88
2894.521	242.88
2897.894	238.88
2901.264	240.88
2904.631	249.88
2907.996	245.88
2911.358	243.88
2914.717	251.88
2918.073	255.88
2921.426	259.88
2924.777	257.88
2928.124	269.88
2931.469	277.88
2934.811	282.88
2938.15	293.88
2941.487	291.88
2944.821	299.88
2948.152	307.88
2951.48	314.88
2954.805	311.88
2958.128	314.88
2961.447	324.88
2964.765	330.88
2968.079	339.88
2971.39	347.88
2974.699	348.88
2978.005	360.88
2981.308	364.88
2984.609	379.88
2987.907	391.88
2991.202	405.88
2994.494	418.88
2997.784	429.88
3001.07	431.88
3004.355	454.88
3007.636	458.88
3010.915	476.88
3014.191	481.88
3017.464	500.88
3020.734	485.88
3024.002	507.88
3027.267	515.88
3030.53	527.88
3033.789	529.88
3037.046	553.88
3040.301	568.88
3043.552	580.88
3046.801	580.88
3050.048	611.88
3053.291	628.88
3056.532	636.88
3059.771	668.88
3063.006	689.88
3066.239	709.88
3069.469	719.88
3072.697	747.88
3075.922	777.88
3079.144	793.88
3082.364	832.88
3085.581	851.88
3088.795	858.88
3092.007	885.88
3095.216	905.88
3098.423	915.88
3101.627	933.88
3104.828	965.88
3108.026	974.88
3111.222	993.88
3114.416	1018.88
3117.607	1038.88
3120.795	1074.88
3123.98	1091.88
3127.163	1118.88
3130.344	1152.88
3133.521	1172.88
3136.696	1176.88
3139.869	1216.88
3143.039	1253.88
3146.206	1261.88
3149.371	1278.88
3152.533	1295.88
3155.693	1322.88
3158.85	1326.88
3162.005	1325.88
3165.157	1332.88
3168.306	1342.88
3171.453	1351.88
3174.597	1349.88
3177.739	1352.88
3180.878	1344.88
3184.014	1368.88
3187.149	1374.88
3190.28	1367.88
3193.409	1383.88
3196.536	1387.88
3199.659	1385.88
3202.781	1402.88
3205.9	1409.88
3209.016	1397.88
3212.13	1403.88
3215.241	1383.88
3218.35	1388.88
3221.456	1379.88
3224.56	1365.88
3227.661	1360.88
3230.76	1349.88
3233.856	1342.88
3236.95	1316.88
3240.041	1302.88
3243.13	1289.88
3246.216	1276.88
3249.3	1278.88
3252.382	1258.88
3255.46	1259.88
3258.537	1246.88
3261.611	1237.88
3264.682	1229.88
3267.751	1232.88
3270.818	1206.88
3273.882	1222.88
3276.943	1210.88
3280.002	1200.88
3283.059	1194.88
3286.113	1181.88
3289.165	1157.88
3292.214	1142.88
3295.261	1134.88
3298.306	1100.88
3301.348	1102.88
3304.387	1070.88
3307.425	1075.88
3310.459	1043.88
3313.492	1054.88
3316.521	1022.88
3319.549	1015.88
3322.574	1003.88
3325.597	1003.88
3328.617	979.88
3331.635	992.88
3334.65	982.88
3337.663	970.88
3340.674	955.88
3343.682	966.88
3346.688	963.88
3349.691	964.88
3352.692	958.88
3355.691	948.88
3358.687	940.88
3361.681	931.88
3364.673	925.88
3367.662	918.88
3370.649	903.88
3373.633	895.88
3376.615	887.88
3379.595	868.88
3382.572	852.88
3385.547	843.88
3388.52	830.88
3391.49	817.88
3394.458	800.88
3397.424	794.88
3400.387	787.88
3403.348	774.88
3406.307	764.88
3409.263	762.88
3412.217	747.88
3415.168	746.88
3418.118	737.88
3421.065	740.88
3424.009	721.88
3426.951	711.88
3429.891	701.88
3432.829	674.88
3435.764	666.88
3438.697	667.88
3441.628	652.88
3444.557	636.88
3447.483	617.88
3450.407	599.88
3453.328	575.88
3456.247	572.88
3459.164	555.88
3462.079	539.88
3464.991	509.88
3467.902	511.88
3470.809	495.88
3473.715	471.88
3476.618	453.88
3479.519	445.88
3482.418	436.88
3485.315	426.88
3488.209	405.88
3491.101	395.88
3493.99	382.88
3496.878	371.88
3499.763	365.88
3502.646	360.88
3505.527	336.88
3508.405	335.88
3511.281	311.88
3514.155	300.88
3517.027	286.88
3519.897	275.88
3522.764	265.88
3525.629	246.88
3528.492	247.88
3531.352	222.88
3534.211	212.88
3537.067	199.88
3539.921	190.88
3542.773	178.88
3545.622	166.88
3548.469	156.88
3551.315	141.88
3554.157	141.88
3556.998	126.88
3559.837	123.88
3562.673	125.88
3565.507	102.88
3568.339	100.88
3571.169	89.88
3573.996	86.88
3576.822	85.88
3579.645	72.88
3582.466	63.88
3585.285	62.88
3588.101	54.88
3590.916	45.88
3593.728	45.88
3596.538	39.88
3599.346	38.88
3602.152	30.88
3604.956	16.88
3607.757	14.88
3610.556	11.88
3613.354	0.88
3616.149	11.88
3618.942	-1.12
3621.732	-0.12
3624.521	-5.12
3627.307	-7.12
3630.092	-13.12
3632.874	-17.12
3635.654	-27.12
3638.432	-29.12
3641.208	-28.12
3643.982	-32.12
3646.753	-33.12
3649.523	-37.12
3652.29	-37.12
3655.055	-40.12
3657.818	-43.12
3660.579	-46.12
3663.338	-50.12
3666.095	-56.12
3668.849	-54.12
3671.602	-60.12
3674.352	-67.12
3677.101	-71.12
3679.847	-67.12
3682.591	-70.12
3685.333	-69.12
3688.073	-69.12
3690.811	-68.12
3693.547	-75.12
3696.281	-76.12
3699.013	-77.12
3701.742	-82.12
3704.47	-86.12
3707.195	-81.12
3709.919	-85.12
3712.64	-87.12
3715.359	-86.12
3718.076	-83.12
3720.792	-83.12
3723.505	-90.12
3726.216	-89.12
3728.925	-93.12
3731.632	-97.12
3734.336	-96.12
3737.039	-99.12
3739.74	-102.12
3742.439	-98.12
3745.136	-100.12
3747.83	-98.12
3750.523	-96.12
3753.213	-98.12
3755.902	-99.12
3758.589	-99.12
3761.273	-96.12
3763.956	-99.12
3766.636	-98.12
3769.315	-101.12
3771.991	-100.12
3774.665	-103.12
3777.338	-105.12
3780.008	-106.12
3782.677	-104.12
3785.343	-109.12
3788.007	-104.12
3790.67	-105.12
3793.33	-105.12
3795.989	-108.12
3798.645	-109.12
3801.299	-107.12
3803.952	-112.12
3806.602	-111.12
3809.251	-106.12
3811.897	-107.12
3814.542	-107.12
3817.184	-105.12
3819.825	-109.12
3822.463	-108.12
3825.1	-107.12
3827.735	-111.12
3830.367	-110.12
3832.998	-111.12
3835.627	-113.12
3838.253	-111.12
3840.878	-110.12
3843.501	-106.12
3846.122	-111.12
3848.741	-106.12
3851.358	-114.12
3853.973	-110.12
3856.586	-107.12
3859.197	-113.12
3861.806	-115.12
3864.414	-114.12
3867.019	-114.12
3869.622	-111.12
3872.224	-113.12
3874.823	-114.12
3877.421	-107.12
3880.016	-102.12
3882.61	-102.12
3885.202	-101.12
3887.792	-103.12
3890.38	-113.12
3892.966	-109.12
3895.55	-113.12
3898.132	-111.12
3900.713	-113.12
3903.291	-111.12
3905.868	-113.12
3908.442	-115.12
3911.015	-112.12
3913.586	-114.12
3916.155	-113.12
3918.722	-117.12
3921.287	-114.12
3923.85	-118.12
3926.411	-117.12
3928.971	-115.12
3931.528	-117.12
3934.084	-114.12
3936.638	-117.12
3939.19	-117.12
3941.74	-117.12
3944.288	-120.12
3946.834	-115.12
3949.378	-115.12
3951.921	-116.12
3954.462	-119.12
3957	-116.12
3959.537	-117.12
3962.072	-115.12
3964.606	-118.12
3967.137	-114.12
3969.667	-116.12
3972.194	-115.12
3974.72	-115.12
3977.244	-114.12
3979.766	-117.12
3982.286	-113.12
3984.805	-116.12
3987.321	-115.12
3989.836	-115.12
3992.349	-114.12
3994.86	-114.12
3997.369	-112.12
3999.877	-116.12
4002.382	-113.12
4004.886	-116.12
4007.388	-114.12
4009.888	-116.12
4012.386	-115.12
4014.883	-114.12
4017.377	-115.12
4019.87	-112.12
4022.361	-117.12
4024.85	-114.12
4027.338	-117.12
4029.823	-114.12
4032.307	-115.12
4034.789	-113.12
4037.269	-114.12
4039.747	-117.12
4042.224	-114.12
4044.699	-119.12
4047.172	-119.12
4049.643	-115.12
4052.112	-117.12
4054.58	-119.12
4057.046	-118.12
4059.51	-121.12
4061.972	-120.12
4064.432	-118.12
4066.891	-119.12
4069.348	-113.12
4071.803	-114.12
4074.256	-119.12
4076.708	-116.12
4079.158	-121.12
4081.606	-120.12
4084.052	-113.12
4086.497	-116.12
4088.939	-116.12
4091.38	-120.12
4093.819	-119.12
4096.257	-120.12
4098.693	-120.12
4101.127	-116.12
4103.559	-118.12
4105.989	-78.12
4108.418	-76.12
4110.845	-77.12
4113.27	-64.12
4115.694	-64.12
4118.115	-57.12
4120.535	-115.12
4122.954	-119.12
4125.37	-114.12
4127.785	-112.12
4130.198	-115.12
4132.609	-116.12
4135.019	-119.12
4137.427	-120.12
4139.833	-119.12
4142.237	-121.12
