Data from Ethanol_100000CFU_RamanShift_10-59-18-984.txt Node
Date: Sun Dec 18 10:59:18 IST 2016
User: aro
Spectrometer: QEPB0276
Trigger mode: 0
Integration Time (sec): 5.000000E0
Scans to average: 1
Electric dark correction enabled: true
Nonlinearity correction enabled: false
Boxcar width: 0
XAxis mode: Raman Shifts
Number of Pixels in Spectrum: 1044
>>>>>Begin Spectral Data<<<<<
160.701	11.5
166.742	15.5
172.777	29.5
178.805	81.5
184.826	230.5
190.841	558.5
196.849	1021.5
202.85	1464.5
208.845	1700.5
214.833	1704.5
220.815	1667.5
226.789	1609.5
232.758	1609.5
238.719	1591.5
244.674	1579.5
250.623	1553.5
256.565	1564.5
262.5	1555.5
268.429	1538.5
274.351	1528.5
280.267	1532.5
286.176	1510.5
292.079	1468.5
297.975	1401.5
303.865	1364.5
309.748	1314.5
315.625	1253.5
321.495	1208.5
327.359	1189.5
333.217	1144.5
339.068	1141.5
344.912	1128.5
350.751	1124.5
356.583	1122.5
362.408	1121.5
368.227	1125.5
374.04	1150.5
379.847	1178.5
385.647	1198.5
391.44	1242.5
397.228	1303.5
403.009	1377.5
408.784	1501.5
414.553	1668.5
420.315	1964.5
426.071	2435.5
431.821	3086.5
437.565	3725.5
443.302	3984.5
449.033	3798.5
454.758	3261.5
460.477	2675.5
466.189	2252.5
471.896	1891.5
477.596	1650.5
483.29	1466.5
488.978	1361.5
494.66	1295.5
500.335	1217.5
506.005	1182.5
511.668	1107.5
517.325	1074.5
522.977	1021.5
528.622	1000.5
534.261	978.5
539.894	960.5
545.521	955.5
551.141	936.5
556.756	939.5
562.365	941.5
567.968	930.5
573.565	944.5
579.155	936.5
584.74	936.5
590.319	931.5
595.892	938.5
601.459	939.5
607.02	945.5
612.575	941.5
618.124	937.5
623.667	941.5
629.204	934.5
634.735	937.5
640.261	922.5
645.781	938.5
651.294	933.5
656.802	931.5
662.304	939.5
667.8	930.5
673.29	943.5
678.775	942.5
684.254	936.5
689.726	939.5
695.193	927.5
700.655	929.5
706.11	940.5
711.56	934.5
717.004	941.5
722.442	947.5
727.874	933.5
733.301	944.5
738.722	942.5
744.137	952.5
749.547	945.5
754.951	961.5
760.349	980.5
765.741	987.5
771.128	1016.5
776.509	1017.5
781.885	1062.5
787.254	1090.5
792.618	1138.5
797.977	1156.5
803.33	1208.5
808.677	1270.5
814.019	1341.5
819.355	1381.5
824.686	1404.5
830.011	1428.5
835.33	1492.5
840.644	1556.5
845.952	1688.5
851.255	1881.5
856.552	2131.5
861.844	2600.5
867.13	3358.5
872.41	5015.5
877.686	8529.5
882.955	14718.5
888.219	21799.5
893.478	23998.5
898.731	18586.5
903.979	10799.5
909.221	5803.5
914.458	3665.5
919.69	2686.5
924.916	2201.5
930.136	1904.5
935.351	1693.5
940.561	1582.5
945.766	1495.5
950.965	1428.5
956.158	1372.5
961.347	1329.5
966.529	1303.5
971.707	1282.5
976.879	1284.5
982.046	1271.5
987.208	1303.5
992.364	1371.5
997.515	1432.5
1002.66	1534.5
1007.801	1655.5
1012.936	1839.5
1018.066	2128.5
1023.19	2480.5
1028.309	3002.5
1033.423	3713.5
1038.532	4590.5
1043.636	5688.5
1048.734	7000.5
1053.827	8347.5
1058.915	9228.5
1063.998	8875.5
1069.075	7538.5
1074.147	6214.5
1079.214	5605.5
1084.276	5804.5
1089.333	6603.5
1094.385	7826.5
1099.431	9072.5
1104.472	9607.5
1109.509	8702.5
1114.54	6919.5
1119.565	5438.5
1124.586	4576.5
1129.602	4066.5
1134.613	3560.5
1139.618	3056.5
1144.619	2601.5
1149.614	2275.5
1154.604	2045.5
1159.589	1904.5
1164.57	1780.5
1169.545	1679.5
1174.515	1576.5
1179.48	1460.5
1184.44	1385.5
1189.395	1353.5
1194.345	1312.5
1199.29	1291.5
1204.23	1273.5
1209.165	1271.5
1214.095	1264.5
1219.021	1295.5
1223.941	1349.5
1228.856	1395.5
1233.766	1487.5
1238.672	1552.5
1243.572	1658.5
1248.467	1749.5
1253.358	1865.5
1258.244	2031.5
1263.124	2248.5
1268	2620.5
1272.871	3175.5
1277.737	3952.5
1282.599	4596.5
1287.455	4615.5
1292.306	4028.5
1297.153	3271.5
1301.995	2725.5
1306.832	2375.5
1311.664	2173.5
1316.491	2080.5
1321.314	1979.5
1326.132	1935.5
1330.945	1870.5
1335.753	1855.5
1340.556	1829.5
1345.354	1814.5
1350.148	1828.5
1354.937	1849.5
1359.722	1876.5
1364.501	1920.5
1369.276	1969.5
1374.046	2079.5
1378.811	2187.5
1383.572	2368.5
1388.327	2553.5
1393.079	2678.5
1397.825	2718.5
1402.567	2790.5
1407.304	2924.5
1412.036	3067.5
1416.764	3289.5
1421.487	3562.5
1426.205	3849.5
1430.919	4210.5
1435.628	4702.5
1440.333	5330.5
1445.032	6342.5
1449.727	7765.5
1454.418	9589.5
1459.104	11188.5
1463.785	11646.5
1468.462	10526.5
1473.134	8542.5
1477.802	6986.5
1482.465	6159.5
1487.123	5807.5
1491.777	5570.5
1496.426	5097.5
1501.071	4385.5
1505.711	3724.5
1510.347	3255.5
1514.978	2917.5
1519.604	2661.5
1524.226	2428.5
1528.844	2270.5
1533.457	2097.5
1538.065	1959.5
1542.669	1824.5
1547.269	1709.5
1551.864	1619.5
1556.454	1542.5
1561.041	1468.5
1565.622	1373.5
1570.199	1338.5
1574.772	1285.5
1579.34	1243.5
1583.904	1206.5
1588.464	1185.5
1593.019	1150.5
1597.569	1111.5
1602.115	1078.5
1606.657	1057.5
1611.195	1054.5
1615.728	1045.5
1620.256	1048.5
1624.78	1031.5
1629.3	1023.5
1633.816	986.5
1638.327	967.5
1642.834	935.5
1647.336	930.5
1651.834	904.5
1656.328	912.5
1660.817	899.5
1665.302	907.5
1669.783	906.5
1674.259	884.5
1678.732	894.5
1683.199	898.5
1687.663	882.5
1692.122	891.5
1696.577	881.5
1701.028	851.5
1705.474	828.5
1709.917	821.5
1714.355	805.5
1718.788	804.5
1723.218	802.5
1727.643	809.5
1732.064	792.5
1736.481	783.5
1740.893	762.5
1745.301	747.5
1749.705	736.5
1754.105	701.5
1758.501	705.5
1762.893	682.5
1767.28	675.5
1771.663	678.5
1776.042	665.5
1780.417	656.5
1784.787	659.5
1789.154	657.5
1793.516	660.5
1797.874	662.5
1802.228	655.5
1806.578	649.5
1810.924	629.5
1815.266	612.5
1819.603	611.5
1823.937	596.5
1828.266	597.5
1832.591	591.5
1836.913	584.5
1841.23	587.5
1845.543	578.5
1849.852	584.5
1854.156	585.5
1858.457	600.5
1862.754	605.5
1867.047	598.5
1871.335	602.5
1875.62	626.5
1879.9	630.5
1884.177	625.5
1888.449	631.5
1892.718	628.5
1896.982	631.5
1901.243	622.5
1905.499	623.5
1909.752	618.5
1914	618.5
1918.245	619.5
1922.485	614.5
1926.722	630.5
1930.954	622.5
1935.183	635.5
1939.408	617.5
1943.628	636.5
1947.845	622.5
1952.058	611.5
1956.267	608.5
1960.472	601.5
1964.673	588.5
1968.87	591.5
1973.063	578.5
1977.252	574.5
1981.438	572.5
1985.619	560.5
1989.797	562.5
1993.971	565.5
1998.14	560.5
2002.306	550.5
2006.469	553.5
2010.627	553.5
2014.781	554.5
2018.932	553.5
2023.078	549.5
2027.221	553.5
2031.36	546.5
2035.495	550.5
2039.627	540.5
2043.754	524.5
2047.878	526.5
2051.998	532.5
2056.114	532.5
2060.226	542.5
2064.334	544.5
2068.439	549.5
2072.54	562.5
2076.637	569.5
2080.73	573.5
2084.82	578.5
2088.906	595.5
2092.988	595.5
2097.066	592.5
2101.14	593.5
2105.211	582.5
2109.278	581.5
2113.342	561.5
2117.401	561.5
2121.457	552.5
2125.509	548.5
2129.558	559.5
2133.602	550.5
2137.643	554.5
2141.681	540.5
2145.714	551.5
2149.744	535.5
2153.77	534.5
2157.793	524.5
2161.812	536.5
2165.827	535.5
2169.838	531.5
2173.846	520.5
2177.851	520.5
2181.851	529.5
2185.848	520.5
2189.841	520.5
2193.831	526.5
2197.817	513.5
2201.799	515.5
2205.778	515.5
2209.753	518.5
2213.725	513.5
2217.693	519.5
2221.657	526.5
2225.618	522.5
2229.575	527.5
2233.529	548.5
2237.479	549.5
2241.425	544.5
2245.368	551.5
2249.307	555.5
2253.243	565.5
2257.175	564.5
2261.104	562.5
2265.029	556.5
2268.95	551.5
2272.868	550.5
2276.783	540.5
2280.694	545.5
2284.601	557.5
2288.505	556.5
2292.405	557.5
2296.302	547.5
2300.195	532.5
2304.085	531.5
2307.971	509.5
2311.854	487.5
2315.734	493.5
2319.609	476.5
2323.482	479.5
2327.351	475.5
2331.216	475.5
2335.078	471.5
2338.937	476.5
2342.792	454.5
2346.643	450.5
2350.492	444.5
2354.336	455.5
2358.178	453.5
2362.015	449.5
2365.85	455.5
2369.681	452.5
2373.508	462.5
2377.333	455.5
2381.153	456.5
2384.971	453.5
2388.785	450.5
2392.595	445.5
2396.402	450.5
2400.206	446.5
2404.007	454.5
2407.804	458.5
2411.597	457.5
2415.388	460.5
2419.174	461.5
2422.958	461.5
2426.738	458.5
2430.515	463.5
2434.289	473.5
2438.059	468.5
2441.825	475.5
2445.589	468.5
2449.349	481.5
2453.106	491.5
2456.859	482.5
2460.61	481.5
2464.356	484.5
2468.1	484.5
2471.84	494.5
2475.577	486.5
2479.311	493.5
2483.041	499.5
2486.768	488.5
2490.492	498.5
2494.213	497.5
2497.93	509.5
2501.644	495.5
2505.355	511.5
2509.062	516.5
2512.766	506.5
2516.467	521.5
2520.165	520.5
2523.859	534.5
2527.551	541.5
2531.239	546.5
2534.923	560.5
2538.605	574.5
2542.283	589.5
2545.958	617.5
2549.63	627.5
2553.299	634.5
2556.964	633.5
2560.626	632.5
2564.285	624.5
2567.941	613.5
2571.594	601.5
2575.243	597.5
2578.89	594.5
2582.533	597.5
2586.173	598.5
2589.809	589.5
2593.443	596.5
2597.073	607.5
2600.701	599.5
2604.325	600.5
2607.946	594.5
2611.564	594.5
2615.178	601.5
2618.79	596.5
2622.398	573.5
2626.004	599.5
2629.606	594.5
2633.205	590.5
2636.801	588.5
2640.394	602.5
2643.983	597.5
2647.57	607.5
2651.153	596.5
2654.734	616.5
2658.311	613.5
2661.885	624.5
2665.456	647.5
2669.025	655.5
2672.589	669.5
2676.151	679.5
2679.71	701.5
2683.266	736.5
2686.819	776.5
2690.368	814.5
2693.915	862.5
2697.458	925.5
2700.999	1008.5
2704.536	1115.5
2708.071	1222.5
2711.602	1302.5
2715.13	1426.5
2718.656	1481.5
2722.178	1527.5
2725.697	1556.5
2729.214	1553.5
2732.727	1494.5
2736.237	1461.5
2739.744	1430.5
2743.249	1416.5
2746.75	1429.5
2750.248	1444.5
2753.743	1467.5
2757.236	1481.5
2760.725	1462.5
2764.211	1401.5
2767.695	1343.5
2771.175	1301.5
2774.652	1250.5
2778.127	1241.5
2781.598	1236.5
2785.067	1240.5
2788.532	1260.5
2791.995	1304.5
2795.455	1348.5
2798.911	1406.5
2802.365	1487.5
2805.816	1567.5
2809.264	1669.5
2812.709	1790.5
2816.151	1916.5
2819.59	2063.5
2823.026	2273.5
2826.46	2452.5
2829.89	2700.5
2833.318	2950.5
2836.742	3227.5
2840.164	3448.5
2843.583	3632.5
2846.999	3782.5
2850.412	3955.5
2853.822	4180.5
2857.229	4440.5
2860.634	4806.5
2864.035	5243.5
2867.434	5780.5
2870.83	6501.5
2874.223	7364.5
2877.613	8227.5
2881	8895.5
2884.385	9321.5
2887.766	9379.5
2891.145	9201.5
2894.521	8939.5
2897.894	8626.5
2901.264	8286.5
2904.631	7988.5
2907.996	7751.5
2911.358	7587.5
2914.717	7608.5
2918.073	7835.5
2921.426	8273.5
2924.777	9045.5
2928.124	10048.5
2931.469	11070.5
2934.811	11628.5
2938.15	11411.5
2941.487	10508.5
2944.821	9355.5
2948.152	8278.5
2951.48	7308.5
2954.805	6477.5
2958.128	5896.5
2961.447	5518.5
2964.765	5285.5
2968.079	5252.5
2971.39	5351.5
2974.699	5487.5
2978.005	5523.5
2981.308	5414.5
2984.609	5099.5
2987.907	4597.5
2991.202	4094.5
2994.494	3582.5
2997.784	3130.5
3001.07	2755.5
3004.355	2439.5
3007.636	2179.5
3010.915	1971.5
3014.191	1769.5
3017.464	1608.5
3020.734	1482.5
3024.002	1357.5
3027.267	1260.5
3030.53	1168.5
3033.789	1080.5
3037.046	1019.5
3040.301	949.5
3043.552	904.5
3046.801	844.5
3050.048	804.5
3053.291	769.5
3056.532	736.5
3059.771	701.5
3063.006	662.5
3066.239	638.5
3069.469	621.5
3072.697	592.5
3075.922	567.5
3079.144	559.5
3082.364	524.5
3085.581	505.5
3088.795	502.5
3092.007	477.5
3095.216	455.5
3098.423	445.5
3101.627	428.5
3104.828	431.5
3108.026	405.5
3111.222	402.5
3114.416	391.5
3117.607	380.5
3120.795	370.5
3123.98	366.5
3127.163	371.5
3130.344	356.5
3133.521	347.5
3136.696	352.5
3139.869	346.5
3143.039	334.5
3146.206	341.5
3149.371	331.5
3152.533	335.5
3155.693	333.5
3158.85	327.5
3162.005	325.5
3165.157	320.5
3168.306	326.5
3171.453	317.5
3174.597	303.5
3177.739	307.5
3180.878	313.5
3184.014	305.5
3187.149	308.5
3190.28	310.5
3193.409	306.5
3196.536	307.5
3199.659	315.5
3202.781	311.5
3205.9	319.5
3209.016	320.5
3212.13	316.5
3215.241	307.5
3218.35	313.5
3221.456	308.5
3224.56	312.5
3227.661	309.5
3230.76	305.5
3233.856	310.5
3236.95	304.5
3240.041	302.5
3243.13	307.5
3246.216	301.5
3249.3	304.5
3252.382	307.5
3255.46	309.5
3258.537	297.5
3261.611	296.5
3264.682	294.5
3267.751	289.5
3270.818	286.5
3273.882	283.5
3276.943	285.5
3280.002	289.5
3283.059	290.5
3286.113	282.5
3289.165	276.5
3292.214	272.5
3295.261	273.5
3298.306	264.5
3301.348	257.5
3304.387	255.5
3307.425	249.5
3310.459	249.5
3313.492	247.5
3316.521	237.5
3319.549	240.5
3322.574	233.5
3325.597	236.5
3328.617	235.5
3331.635	225.5
3334.65	222.5
3337.663	227.5
3340.674	223.5
3343.682	226.5
3346.688	226.5
3349.691	224.5
3352.692	217.5
3355.691	218.5
3358.687	211.5
3361.681	209.5
3364.673	202.5
3367.662	200.5
3370.649	199.5
3373.633	196.5
3376.615	195.5
3379.595	195.5
3382.572	194.5
3385.547	183.5
3388.52	182.5
3391.49	174.5
3394.458	175.5
3397.424	169.5
3400.387	164.5
3403.348	162.5
3406.307	160.5
3409.263	162.5
3412.217	152.5
3415.168	151.5
3418.118	147.5
3421.065	146.5
3424.009	152.5
3426.951	143.5
3429.891	138.5
3432.829	135.5
3435.764	134.5
3438.697	125.5
3441.628	122.5
3444.557	122.5
3447.483	117.5
3450.407	110.5
3453.328	110.5
3456.247	101.5
3459.164	93.5
3462.079	95.5
3464.991	92.5
3467.902	86.5
3470.809	84.5
3473.715	86.5
3476.618	79.5
3479.519	71.5
3482.418	78.5
3485.315	71.5
3488.209	68.5
3491.101	63.5
3493.99	57.5
3496.878	59.5
3499.763	51.5
3502.646	56.5
3505.527	47.5
3508.405	50.5
3511.281	51.5
3514.155	51.5
3517.027	43.5
3519.897	46.5
3522.764	38.5
3525.629	37.5
3528.492	29.5
3531.352	33.5
3534.211	25.5
3537.067	24.5
3539.921	20.5
3542.773	19.5
3545.622	19.5
3548.469	18.5
3551.315	17.5
3554.157	14.5
3556.998	14.5
3559.837	15.5
3562.673	18.5
3565.507	12.5
3568.339	9.5
3571.169	4.5
3573.996	8.5
3576.822	7.5
3579.645	1.5
3582.466	0.5
3585.285	-1.5
3588.101	0.5
3590.916	2.5
3593.728	0.5
3596.538	-1.5
3599.346	-1.5
3602.152	-5.5
3604.956	1.5
3607.757	-6.5
3610.556	-8.5
3613.354	-7.5
3616.149	-8.5
3618.942	-3.5
3621.732	-8.5
3624.521	-12.5
3627.307	-8.5
3630.092	-7.5
3632.874	-9.5
3635.654	-9.5
3638.432	-9.5
3641.208	-11.5
3643.982	-10.5
3646.753	-13.5
3649.523	-15.5
3652.29	-14.5
3655.055	-13.5
3657.818	-12.5
3660.579	-16.5
3663.338	-17.5
3666.095	-14.5
3668.849	-18.5
3671.602	-17.5
3674.352	-12.5
3677.101	-12.5
3679.847	-17.5
3682.591	-17.5
3685.333	-16.5
3688.073	-19.5
3690.811	-21.5
3693.547	-18.5
3696.281	-18.5
3699.013	-19.5
3701.742	-21.5
3704.47	-17.5
3707.195	-16.5
3709.919	-18.5
3712.64	-19.5
3715.359	-18.5
3718.076	-16.5
3720.792	-21.5
3723.505	-20.5
3726.216	-24.5
3728.925	-25.5
3731.632	-20.5
3734.336	-21.5
3737.039	-22.5
3739.74	-21.5
3742.439	-23.5
3745.136	-19.5
3747.83	-18.5
3750.523	-19.5
3753.213	-18.5
3755.902	-17.5
3758.589	-17.5
3761.273	-19.5
3763.956	-22.5
3766.636	-23.5
3769.315	-23.5
3771.991	-23.5
3774.665	-28.5
3777.338	-25.5
3780.008	-23.5
3782.677	-19.5
3785.343	-21.5
3788.007	-20.5
3790.67	-21.5
3793.33	-21.5
3795.989	-20.5
3798.645	-19.5
3801.299	-22.5
3803.952	-26.5
3806.602	-23.5
3809.251	-23.5
3811.897	-28.5
3814.542	-28.5
3817.184	-26.5
3819.825	-23.5
3822.463	-23.5
3825.1	-22.5
3827.735	-25.5
3830.367	-21.5
3832.998	-24.5
3835.627	-22.5
3838.253	-23.5
3840.878	-26.5
3843.501	-25.5
3846.122	-23.5
3848.741	-28.5
3851.358	-25.5
3853.973	-24.5
3856.586	-28.5
3859.197	-27.5
3861.806	-23.5
3864.414	-28.5
3867.019	-25.5
3869.622	-24.5
3872.224	-28.5
3874.823	-26.5
3877.421	-25.5
3880.016	-21.5
3882.61	-23.5
3885.202	-20.5
3887.792	-21.5
3890.38	-20.5
3892.966	-25.5
3895.55	-24.5
3898.132	-25.5
3900.713	-27.5
3903.291	-27.5
3905.868	-28.5
3908.442	-26.5
3911.015	-31.5
3913.586	-27.5
3916.155	-31.5
3918.722	-27.5
3921.287	-26.5
3923.85	-26.5
3926.411	-25.5
3928.971	-30.5
3931.528	-30.5
3934.084	-28.5
3936.638	-26.5
3939.19	-29.5
3941.74	-28.5
3944.288	-31.5
3946.834	-31.5
3949.378	-33.5
3951.921	-27.5
3954.462	-31.5
3957	-32.5
3959.537	-28.5
3962.072	-27.5
3964.606	-23.5
3967.137	-24.5
3969.667	-29.5
3972.194	-26.5
3974.72	-32.5
3977.244	-28.5
3979.766	-28.5
3982.286	-31.5
3984.805	-28.5
3987.321	-32.5
3989.836	-29.5
3992.349	-37.5
3994.86	-31.5
3997.369	-30.5
3999.877	-28.5
4002.382	-30.5
4004.886	-23.5
4007.388	-22.5
4009.888	-22.5
4012.386	-26.5
4014.883	-25.5
4017.377	-29.5
4019.87	-29.5
4022.361	-31.5
4024.85	-30.5
4027.338	-29.5
4029.823	-30.5
4032.307	-33.5
4034.789	-30.5
4037.269	-29.5
4039.747	-30.5
4042.224	-25.5
4044.699	-28.5
4047.172	-22.5
4049.643	-25.5
4052.112	-26.5
4054.58	-29.5
4057.046	-27.5
4059.51	-31.5
4061.972	-29.5
4064.432	-31.5
4066.891	-30.5
4069.348	-29.5
4071.803	-27.5
4074.256	-28.5
4076.708	-28.5
4079.158	-29.5
4081.606	-30.5
4084.052	-26.5
4086.497	-24.5
4088.939	-26.5
4091.38	-25.5
4093.819	-26.5
4096.257	-34.5
4098.693	-30.5
4101.127	-30.5
4103.559	-29.5
4105.989	12.5
4108.418	11.5
4110.845	13.5
4113.27	8.5
4115.694	8.5
4118.115	7.5
4120.535	-30.5
4122.954	-28.5
4125.37	-26.5
4127.785	-28.5
4130.198	-26.5
4132.609	-26.5
4135.019	-35.5
4137.427	-33.5
4139.833	-35.5
4142.237	-33.5
