Data from Ethanol_100000000CFU_RamanShift_11-03-08-963.txt Node
Date: Sun Dec 18 11:03:08 IST 2016
User: aro
Spectrometer: QEPB0276
Trigger mode: 0
Integration Time (sec): 5.000000E0
Scans to average: 1
Electric dark correction enabled: true
Nonlinearity correction enabled: false
Boxcar width: 0
XAxis mode: Raman Shifts
Number of Pixels in Spectrum: 1044
>>>>>Begin Spectral Data<<<<<
160.701	11.5
166.742	18.5
172.777	31.5
178.805	87.5
184.826	234.5
190.841	554.5
196.849	1004.5
202.85	1431.5
208.845	1632.5
214.833	1636.5
220.815	1590.5
226.789	1523.5
232.758	1522.5
238.719	1494.5
244.674	1466.5
250.623	1463.5
256.565	1451.5
262.5	1437.5
268.429	1438.5
274.351	1410.5
280.267	1420.5
286.176	1355.5
292.079	1321.5
297.975	1272.5
303.865	1221.5
309.748	1164.5
315.625	1128.5
321.495	1073.5
327.359	1063.5
333.217	1019.5
339.068	1012.5
344.912	993.5
350.751	991.5
356.583	989.5
362.408	985.5
368.227	1001.5
374.04	1014.5
379.847	1049.5
385.647	1087.5
391.44	1142.5
397.228	1190.5
403.009	1284.5
408.784	1411.5
414.553	1608.5
420.315	1947.5
426.071	2436.5
431.821	3165.5
437.565	3841.5
443.302	4132.5
449.033	3894.5
454.758	3333.5
460.477	2715.5
466.189	2209.5
471.896	1828.5
477.596	1543.5
483.29	1368.5
488.978	1250.5
494.66	1170.5
500.335	1106.5
506.005	1042.5
511.668	971.5
517.325	931.5
522.977	873.5
528.622	853.5
534.261	835.5
539.894	815.5
545.521	795.5
551.141	779.5
556.756	768.5
562.365	785.5
567.968	781.5
573.565	772.5
579.155	767.5
584.74	775.5
590.319	772.5
595.892	768.5
601.459	779.5
607.02	769.5
612.575	776.5
618.124	783.5
623.667	767.5
629.204	758.5
634.735	768.5
640.261	744.5
645.781	762.5
651.294	765.5
656.802	766.5
662.304	766.5
667.8	771.5
673.29	757.5
678.775	760.5
684.254	769.5
689.726	766.5
695.193	762.5
700.655	759.5
706.11	752.5
711.56	761.5
717.004	760.5
722.442	745.5
727.874	752.5
733.301	759.5
738.722	758.5
744.137	760.5
749.547	772.5
754.951	779.5
760.349	791.5
765.741	800.5
771.128	829.5
776.509	848.5
781.885	865.5
787.254	897.5
792.618	937.5
797.977	985.5
803.33	1031.5
808.677	1104.5
814.019	1178.5
819.355	1219.5
824.686	1234.5
830.011	1262.5
835.33	1306.5
840.644	1402.5
845.952	1531.5
851.255	1732.5
856.552	2054.5
861.844	2525.5
867.13	3385.5
872.41	5222.5
877.686	9084.5
882.955	15920.5
888.219	23607.5
893.478	25919.5
898.731	19985.5
903.979	11439.5
909.221	6027.5
914.458	3647.5
919.69	2610.5
924.916	2079.5
930.136	1757.5
935.351	1537.5
940.561	1388.5
945.766	1291.5
950.965	1210.5
956.158	1165.5
961.347	1124.5
966.529	1077.5
971.707	1056.5
976.879	1056.5
982.046	1072.5
987.208	1084.5
992.364	1158.5
997.515	1229.5
1002.66	1343.5
1007.801	1467.5
1012.936	1684.5
1018.066	1977.5
1023.19	2359.5
1028.309	2917.5
1033.423	3697.5
1038.532	4659.5
1043.636	5869.5
1048.734	7288.5
1053.827	8825.5
1058.915	9802.5
1063.998	9364.5
1069.075	7861.5
1074.147	6424.5
1079.214	5761.5
1084.276	5989.5
1089.333	6821.5
1094.385	8173.5
1099.431	9613.5
1104.472	10124.5
1109.509	9098.5
1114.54	7176.5
1119.565	5553.5
1124.586	4613.5
1129.602	4058.5
1134.613	3503.5
1139.618	2953.5
1144.619	2491.5
1149.614	2120.5
1154.604	1882.5
1159.589	1702.5
1164.57	1560.5
1169.545	1445.5
1174.515	1332.5
1179.48	1221.5
1184.44	1134.5
1189.395	1079.5
1194.345	1034.5
1199.29	1026.5
1204.23	987.5
1209.165	998.5
1214.095	1009.5
1219.021	1037.5
1223.941	1063.5
1228.856	1123.5
1233.766	1214.5
1238.672	1292.5
1243.572	1406.5
1248.467	1519.5
1253.358	1648.5
1258.244	1804.5
1263.124	2063.5
1268	2465.5
1272.871	3118.5
1277.737	3953.5
1282.599	4628.5
1287.455	4664.5
1292.306	4003.5
1297.153	3176.5
1301.995	2559.5
1306.832	2194.5
1311.664	1960.5
1316.491	1831.5
1321.314	1749.5
1326.132	1677.5
1330.945	1623.5
1335.753	1573.5
1340.556	1559.5
1345.354	1536.5
1350.148	1529.5
1354.937	1551.5
1359.722	1578.5
1364.501	1661.5
1369.276	1760.5
1374.046	1876.5
1378.811	2051.5
1383.572	2279.5
1388.327	2466.5
1393.079	2601.5
1397.825	2649.5
1402.567	2732.5
1407.304	2819.5
1412.036	2965.5
1416.764	3230.5
1421.487	3532.5
1426.205	3824.5
1430.919	4226.5
1435.628	4741.5
1440.333	5487.5
1445.032	6514.5
1449.727	8116.5
1454.418	10068.5
1459.104	11789.5
1463.785	12291.5
1468.462	10994.5
1473.134	8884.5
1477.802	7177.5
1482.465	6286.5
1487.123	5914.5
1491.777	5627.5
1496.426	5094.5
1501.071	4353.5
1505.711	3656.5
1510.347	3147.5
1514.978	2788.5
1519.604	2496.5
1524.226	2274.5
1528.844	2077.5
1533.457	1912.5
1538.065	1768.5
1542.669	1630.5
1547.269	1486.5
1551.864	1373.5
1556.454	1288.5
1561.041	1206.5
1565.622	1131.5
1570.199	1068.5
1574.772	1022.5
1579.34	952.5
1583.904	903.5
1588.464	863.5
1593.019	841.5
1597.569	794.5
1602.115	760.5
1606.657	741.5
1611.195	740.5
1615.728	740.5
1620.256	736.5
1624.78	721.5
1629.3	694.5
1633.816	665.5
1638.327	630.5
1642.834	609.5
1647.336	601.5
1651.834	577.5
1656.328	569.5
1660.817	564.5
1665.302	556.5
1669.783	554.5
1674.259	546.5
1678.732	545.5
1683.199	548.5
1687.663	543.5
1692.122	528.5
1696.577	529.5
1701.028	525.5
1705.474	515.5
1709.917	530.5
1714.355	523.5
1718.788	511.5
1723.218	499.5
1727.643	481.5
1732.064	475.5
1736.481	460.5
1740.893	442.5
1745.301	428.5
1749.705	415.5
1754.105	395.5
1758.501	380.5
1762.893	367.5
1767.28	354.5
1771.663	349.5
1776.042	338.5
1780.417	324.5
1784.787	325.5
1789.154	334.5
1793.516	324.5
1797.874	328.5
1802.228	320.5
1806.578	316.5
1810.924	314.5
1815.266	302.5
1819.603	305.5
1823.937	295.5
1828.266	297.5
1832.591	290.5
1836.913	275.5
1841.23	273.5
1845.543	268.5
1849.852	270.5
1854.156	269.5
1858.457	273.5
1862.754	274.5
1867.047	283.5
1871.335	279.5
1875.62	284.5
1879.9	285.5
1884.177	289.5
1888.449	291.5
1892.718	294.5
1896.982	289.5
1901.243	296.5
1905.499	291.5
1909.752	286.5
1914	278.5
1918.245	285.5
1922.485	289.5
1926.722	289.5
1930.954	288.5
1935.183	286.5
1939.408	289.5
1943.628	296.5
1947.845	289.5
1952.058	286.5
1956.267	279.5
1960.472	284.5
1964.673	274.5
1968.87	279.5
1973.063	267.5
1977.252	269.5
1981.438	266.5
1985.619	253.5
1989.797	258.5
1993.971	250.5
1998.14	243.5
2002.306	251.5
2006.469	239.5
2010.627	237.5
2014.781	242.5
2018.932	245.5
2023.078	236.5
2027.221	236.5
2031.36	236.5
2035.495	232.5
2039.627	226.5
2043.754	229.5
2047.878	229.5
2051.998	227.5
2056.114	235.5
2060.226	232.5
2064.334	234.5
2068.439	239.5
2072.54	247.5
2076.637	249.5
2080.73	254.5
2084.82	260.5
2088.906	281.5
2092.988	286.5
2097.066	291.5
2101.14	300.5
2105.211	285.5
2109.278	282.5
2113.342	266.5
2117.401	267.5
2121.457	264.5
2125.509	253.5
2129.558	251.5
2133.602	248.5
2137.643	257.5
2141.681	245.5
2145.714	248.5
2149.744	244.5
2153.77	246.5
2157.793	236.5
2161.812	246.5
2165.827	243.5
2169.838	249.5
2173.846	243.5
2177.851	239.5
2181.851	246.5
2185.848	240.5
2189.841	238.5
2193.831	236.5
2197.817	237.5
2201.799	236.5
2205.778	234.5
2209.753	233.5
2213.725	228.5
2217.693	235.5
2221.657	244.5
2225.618	240.5
2229.575	245.5
2233.529	257.5
2237.479	254.5
2241.425	265.5
2245.368	271.5
2249.307	279.5
2253.243	285.5
2257.175	288.5
2261.104	296.5
2265.029	285.5
2268.95	280.5
2272.868	285.5
2276.783	287.5
2280.694	284.5
2284.601	295.5
2288.505	299.5
2292.405	293.5
2296.302	286.5
2300.195	284.5
2304.085	265.5
2307.971	255.5
2311.854	246.5
2315.734	238.5
2319.609	230.5
2323.482	224.5
2327.351	225.5
2331.216	232.5
2335.078	232.5
2338.937	226.5
2342.792	214.5
2346.643	208.5
2350.492	207.5
2354.336	212.5
2358.178	208.5
2362.015	209.5
2365.85	204.5
2369.681	208.5
2373.508	195.5
2377.333	200.5
2381.153	203.5
2384.971	194.5
2388.785	194.5
2392.595	198.5
2396.402	192.5
2400.206	193.5
2404.007	197.5
2407.804	204.5
2411.597	201.5
2415.388	201.5
2419.174	203.5
2422.958	206.5
2426.738	210.5
2430.515	217.5
2434.289	216.5
2438.059	227.5
2441.825	218.5
2445.589	217.5
2449.349	231.5
2453.106	236.5
2456.859	225.5
2460.61	247.5
2464.356	239.5
2468.1	249.5
2471.84	246.5
2475.577	252.5
2479.311	254.5
2483.041	253.5
2486.768	250.5
2490.492	253.5
2494.213	261.5
2497.93	260.5
2501.644	263.5
2505.355	266.5
2509.062	271.5
2512.766	278.5
2516.467	281.5
2520.165	286.5
2523.859	296.5
2527.551	305.5
2531.239	317.5
2534.923	334.5
2538.605	355.5
2542.283	375.5
2545.958	402.5
2549.63	410.5
2553.299	434.5
2556.964	429.5
2560.626	420.5
2564.285	417.5
2567.941	406.5
2571.594	395.5
2575.243	395.5
2578.89	380.5
2582.533	388.5
2586.173	381.5
2589.809	387.5
2593.443	388.5
2597.073	404.5
2600.701	400.5
2604.325	399.5
2607.946	409.5
2611.564	396.5
2615.178	397.5
2618.79	390.5
2622.398	393.5
2626.004	394.5
2629.606	387.5
2633.205	397.5
2636.801	398.5
2640.394	412.5
2643.983	412.5
2647.57	417.5
2651.153	425.5
2654.734	436.5
2658.311	449.5
2661.885	462.5
2665.456	469.5
2669.025	474.5
2672.589	501.5
2676.151	521.5
2679.71	554.5
2683.266	582.5
2686.819	621.5
2690.368	664.5
2693.915	728.5
2697.458	814.5
2700.999	888.5
2704.536	994.5
2708.071	1118.5
2711.602	1235.5
2715.13	1337.5
2718.656	1416.5
2722.178	1461.5
2725.697	1472.5
2729.214	1467.5
2732.727	1438.5
2736.237	1397.5
2739.744	1358.5
2743.249	1349.5
2746.75	1340.5
2750.248	1377.5
2753.743	1412.5
2757.236	1409.5
2760.725	1404.5
2764.211	1354.5
2767.695	1298.5
2771.175	1261.5
2774.652	1225.5
2778.127	1208.5
2781.598	1188.5
2785.067	1206.5
2788.532	1231.5
2791.995	1275.5
2795.455	1319.5
2798.911	1389.5
2802.365	1458.5
2805.816	1563.5
2809.264	1663.5
2812.709	1784.5
2816.151	1946.5
2819.59	2120.5
2823.026	2298.5
2826.46	2544.5
2829.89	2810.5
2833.318	3095.5
2836.742	3398.5
2840.164	3651.5
2843.583	3840.5
2846.999	4036.5
2850.412	4214.5
2853.822	4453.5
2857.229	4767.5
2860.634	5126.5
2864.035	5659.5
2867.434	6310.5
2870.83	7103.5
2874.223	8035.5
2877.613	8960.5
2881	9729.5
2884.385	10190.5
2887.766	10269.5
2891.145	10119.5
2894.521	9779.5
2897.894	9411.5
2901.264	9017.5
2904.631	8721.5
2907.996	8451.5
2911.358	8312.5
2914.717	8312.5
2918.073	8576.5
2921.426	9060.5
2924.777	9938.5
2928.124	10980.5
2931.469	12111.5
2934.811	12721.5
2938.15	12492.5
2941.487	11498.5
2944.821	10227.5
2948.152	8994.5
2951.48	7941.5
2954.805	7066.5
2958.128	6383.5
2961.447	5940.5
2964.765	5706.5
2968.079	5640.5
2971.39	5757.5
2974.699	5914.5
2978.005	5957.5
2981.308	5828.5
2984.609	5489.5
2987.907	5022.5
2991.202	4392.5
2994.494	3811.5
2997.784	3333.5
3001.07	2910.5
3004.355	2584.5
3007.636	2299.5
3010.915	2071.5
3014.191	1873.5
3017.464	1683.5
3020.734	1541.5
3024.002	1417.5
3027.267	1283.5
3030.53	1191.5
3033.789	1103.5
3037.046	1020.5
3040.301	945.5
3043.552	883.5
3046.801	831.5
3050.048	773.5
3053.291	744.5
3056.532	697.5
3059.771	666.5
3063.006	646.5
3066.239	610.5
3069.469	584.5
3072.697	558.5
3075.922	533.5
3079.144	514.5
3082.364	484.5
3085.581	469.5
3088.795	439.5
3092.007	432.5
3095.216	406.5
3098.423	396.5
3101.627	384.5
3104.828	374.5
3108.026	355.5
3111.222	349.5
3114.416	343.5
3117.607	338.5
3120.795	324.5
3123.98	325.5
3127.163	309.5
3130.344	313.5
3133.521	304.5
3136.696	302.5
3139.869	297.5
3143.039	303.5
3146.206	289.5
3149.371	299.5
3152.533	295.5
3155.693	288.5
3158.85	281.5
3162.005	278.5
3165.157	282.5
3168.306	276.5
3171.453	284.5
3174.597	274.5
3177.739	278.5
3180.878	277.5
3184.014	278.5
3187.149	280.5
3190.28	280.5
3193.409	279.5
3196.536	276.5
3199.659	281.5
3202.781	283.5
3205.9	283.5
3209.016	290.5
3212.13	284.5
3215.241	284.5
3218.35	291.5
3221.456	283.5
3224.56	288.5
3227.661	283.5
3230.76	287.5
3233.856	277.5
3236.95	281.5
3240.041	279.5
3243.13	286.5
3246.216	276.5
3249.3	289.5
3252.382	278.5
3255.46	281.5
3258.537	286.5
3261.611	281.5
3264.682	272.5
3267.751	271.5
3270.818	276.5
3273.882	269.5
3276.943	271.5
3280.002	271.5
3283.059	265.5
3286.113	265.5
3289.165	268.5
3292.214	264.5
3295.261	261.5
3298.306	252.5
3301.348	252.5
3304.387	247.5
3307.425	245.5
3310.459	240.5
3313.492	235.5
3316.521	232.5
3319.549	233.5
3322.574	225.5
3325.597	221.5
3328.617	220.5
3331.635	210.5
3334.65	211.5
3337.663	211.5
3340.674	208.5
3343.682	218.5
3346.688	211.5
3349.691	209.5
3352.692	211.5
3355.691	206.5
3358.687	206.5
3361.681	197.5
3364.673	196.5
3367.662	190.5
3370.649	190.5
3373.633	186.5
3376.615	182.5
3379.595	176.5
3382.572	177.5
3385.547	170.5
3388.52	173.5
3391.49	164.5
3394.458	163.5
3397.424	155.5
3400.387	159.5
3403.348	158.5
3406.307	152.5
3409.263	153.5
3412.217	145.5
3415.168	142.5
3418.118	139.5
3421.065	138.5
3424.009	131.5
3426.951	130.5
3429.891	123.5
3432.829	130.5
3435.764	115.5
3438.697	112.5
3441.628	113.5
3444.557	103.5
3447.483	103.5
3450.407	101.5
3453.328	95.5
3456.247	88.5
3459.164	91.5
3462.079	87.5
3464.991	81.5
3467.902	78.5
3470.809	70.5
3473.715	70.5
3476.618	69.5
3479.519	62.5
3482.418	65.5
3485.315	58.5
3488.209	60.5
3491.101	51.5
3493.99	50.5
3496.878	53.5
3499.763	54.5
3502.646	45.5
3505.527	40.5
3508.405	42.5
3511.281	36.5
3514.155	35.5
3517.027	30.5
3519.897	36.5
3522.764	28.5
3525.629	24.5
3528.492	18.5
3531.352	17.5
3534.211	16.5
3537.067	13.5
3539.921	12.5
3542.773	11.5
3545.622	12.5
3548.469	7.5
3551.315	8.5
3554.157	7.5
3556.998	7.5
3559.837	4.5
3562.673	7.5
3565.507	2.5
3568.339	-3.5
3571.169	-6.5
3573.996	-5.5
3576.822	-0.5
3579.645	-6.5
3582.466	-7.5
3585.285	-9.5
3588.101	-7.5
3590.916	-12.5
3593.728	-10.5
3596.538	-7.5
3599.346	-10.5
3602.152	-10.5
3604.956	-9.5
3607.757	-14.5
3610.556	-18.5
3613.354	-19.5
3616.149	-16.5
3618.942	-18.5
3621.732	-20.5
3624.521	-21.5
3627.307	-16.5
3630.092	-16.5
3632.874	-18.5
3635.654	-19.5
3638.432	-18.5
3641.208	-19.5
3643.982	-14.5
3646.753	-20.5
3649.523	-21.5
3652.29	-21.5
3655.055	-22.5
3657.818	-22.5
3660.579	-25.5
3663.338	-25.5
3666.095	-25.5
3668.849	-22.5
3671.602	-25.5
3674.352	-23.5
3677.101	-20.5
3679.847	-24.5
3682.591	-20.5
3685.333	-25.5
3688.073	-25.5
3690.811	-27.5
3693.547	-27.5
3696.281	-27.5
3699.013	-27.5
3701.742	-28.5
3704.47	-25.5
3707.195	-24.5
3709.919	-25.5
3712.64	-29.5
3715.359	-27.5
3718.076	-27.5
3720.792	-27.5
3723.505	-24.5
3726.216	-31.5
3728.925	-30.5
3731.632	-27.5
3734.336	-26.5
3737.039	-29.5
3739.74	-29.5
3742.439	-29.5
3745.136	-28.5
3747.83	-27.5
3750.523	-25.5
3753.213	-29.5
3755.902	-28.5
3758.589	-27.5
3761.273	-28.5
3763.956	-31.5
3766.636	-28.5
3769.315	-28.5
3771.991	-30.5
3774.665	-33.5
3777.338	-27.5
3780.008	-29.5
3782.677	-27.5
3785.343	-26.5
3788.007	-26.5
3790.67	-28.5
3793.33	-31.5
3795.989	-30.5
3798.645	-27.5
3801.299	-32.5
3803.952	-38.5
3806.602	-33.5
3809.251	-28.5
3811.897	-31.5
3814.542	-33.5
3817.184	-26.5
3819.825	-23.5
3822.463	-27.5
3825.1	-29.5
3827.735	-30.5
3830.367	-28.5
3832.998	-32.5
3835.627	-30.5
3838.253	-33.5
3840.878	-31.5
3843.501	-33.5
3846.122	-31.5
3848.741	-34.5
3851.358	-28.5
3853.973	-29.5
3856.586	-28.5
3859.197	-29.5
3861.806	-29.5
3864.414	-32.5
3867.019	-27.5
3869.622	-30.5
3872.224	-29.5
3874.823	-33.5
3877.421	-32.5
3880.016	-27.5
3882.61	-29.5
3885.202	-26.5
3887.792	-20.5
3890.38	-22.5
3892.966	-30.5
3895.55	-28.5
3898.132	-27.5
3900.713	-28.5
3903.291	-29.5
3905.868	-29.5
3908.442	-28.5
3911.015	-33.5
3913.586	-33.5
3916.155	-36.5
3918.722	-31.5
3921.287	-34.5
3923.85	-37.5
3926.411	-33.5
3928.971	-32.5
3931.528	-33.5
3934.084	-30.5
3936.638	-33.5
3939.19	-29.5
3941.74	-31.5
3944.288	-32.5
3946.834	-36.5
3949.378	-34.5
3951.921	-31.5
3954.462	-35.5
3957	-36.5
3959.537	-32.5
3962.072	-33.5
3964.606	-30.5
3967.137	-29.5
3969.667	-31.5
3972.194	-31.5
3974.72	-33.5
3977.244	-29.5
3979.766	-29.5
3982.286	-30.5
3984.805	-34.5
3987.321	-34.5
3989.836	-31.5
3992.349	-36.5
3994.86	-34.5
3997.369	-34.5
3999.877	-34.5
4002.382	-34.5
4004.886	-31.5
4007.388	-30.5
4009.888	-29.5
4012.386	-29.5
4014.883	-27.5
4017.377	-30.5
4019.87	-29.5
4022.361	-33.5
4024.85	-30.5
4027.338	-32.5
4029.823	-36.5
4032.307	-34.5
4034.789	-33.5
4037.269	-34.5
4039.747	-32.5
4042.224	-30.5
4044.699	-32.5
4047.172	-28.5
4049.643	-31.5
4052.112	-32.5
4054.58	-33.5
4057.046	-31.5
4059.51	-30.5
4061.972	-33.5
4064.432	-31.5
4066.891	-36.5
4069.348	-31.5
4071.803	-34.5
4074.256	-30.5
4076.708	-30.5
4079.158	-31.5
4081.606	-32.5
4084.052	-29.5
4086.497	-29.5
4088.939	-28.5
4091.38	-31.5
4093.819	-29.5
4096.257	-38.5
4098.693	-33.5
4101.127	-37.5
4103.559	-35.5
4105.989	9.5
4108.418	10.5
4110.845	12.5
4113.27	9.5
4115.694	9.5
4118.115	6.5
4120.535	-33.5
4122.954	-33.5
4125.37	-26.5
4127.785	-32.5
4130.198	-30.5
4132.609	-31.5
4135.019	-38.5
4137.427	-36.5
4139.833	-37.5
4142.237	-36.5
