Data from Ethanol_1000CFU_RamanShift_10-55-04-005.txt Node
Date: Sun Dec 18 10:55:04 IST 2016
User: aro
Spectrometer: QEPB0276
Trigger mode: 0
Integration Time (sec): 5.000000E0
Scans to average: 1
Electric dark correction enabled: true
Nonlinearity correction enabled: false
Boxcar width: 0
XAxis mode: Raman Shifts
Number of Pixels in Spectrum: 1044
>>>>>Begin Spectral Data<<<<<
160.701	11.25
166.742	13.25
172.777	28.25
178.805	71.25
184.826	199.25
190.841	463.25
196.849	837.25
202.85	1173.25
208.845	1358.25
214.833	1375.25
220.815	1311.25
226.789	1279.25
232.758	1249.25
238.719	1241.25
244.674	1225.25
250.623	1197.25
256.565	1216.25
262.5	1187.25
268.429	1179.25
274.351	1184.25
280.267	1157.25
286.176	1135.25
292.079	1090.25
297.975	1048.25
303.865	1005.25
309.748	940.25
315.625	910.25
321.495	878.25
327.359	849.25
333.217	835.25
339.068	819.25
344.912	820.25
350.751	810.25
356.583	790.25
362.408	815.25
368.227	824.25
374.04	840.25
379.847	851.25
385.647	892.25
391.44	926.25
397.228	986.25
403.009	1052.25
408.784	1158.25
414.553	1320.25
420.315	1594.25
426.071	2027.25
431.821	2609.25
437.565	3172.25
443.302	3419.25
449.033	3233.25
454.758	2738.25
460.477	2261.25
466.189	1801.25
471.896	1494.25
477.596	1274.25
483.29	1121.25
488.978	1020.25
494.66	941.25
500.335	890.25
506.005	833.25
511.668	776.25
517.325	738.25
522.977	695.25
528.622	660.25
534.261	639.25
539.894	617.25
545.521	612.25
551.141	604.25
556.756	596.25
562.365	586.25
567.968	591.25
573.565	576.25
579.155	581.25
584.74	579.25
590.319	588.25
595.892	580.25
601.459	583.25
607.02	589.25
612.575	586.25
618.124	584.25
623.667	580.25
629.204	576.25
634.735	578.25
640.261	573.25
645.781	567.25
651.294	582.25
656.802	561.25
662.304	574.25
667.8	571.25
673.29	569.25
678.775	567.25
684.254	565.25
689.726	572.25
695.193	565.25
700.655	565.25
706.11	568.25
711.56	557.25
717.004	567.25
722.442	557.25
727.874	565.25
733.301	568.25
738.722	575.25
744.137	582.25
749.547	573.25
754.951	587.25
760.349	599.25
765.741	611.25
771.128	627.25
776.509	637.25
781.885	670.25
787.254	694.25
792.618	725.25
797.977	749.25
803.33	810.25
808.677	867.25
814.019	920.25
819.355	957.25
824.686	974.25
830.011	988.25
835.33	1026.25
840.644	1104.25
845.952	1230.25
851.255	1385.25
856.552	1632.25
861.844	2048.25
867.13	2772.25
872.41	4289.25
877.686	7558.25
882.955	13185.25
888.219	19579.25
893.478	21540.25
898.731	16541.25
903.979	9469.25
909.221	4955.25
914.458	2991.25
919.69	2115.25
924.916	1676.25
930.136	1405.25
935.351	1241.25
940.561	1101.25
945.766	1026.25
950.965	969.25
956.158	915.25
961.347	891.25
966.529	853.25
971.707	848.25
976.879	841.25
982.046	851.25
987.208	875.25
992.364	920.25
997.515	978.25
1002.66	1073.25
1007.801	1195.25
1012.936	1356.25
1018.066	1585.25
1023.19	1933.25
1028.309	2402.25
1033.423	3047.25
1038.532	3839.25
1043.636	4826.25
1048.734	6042.25
1053.827	7288.25
1058.915	8084.25
1063.998	7754.25
1069.075	6525.25
1074.147	5336.25
1079.214	4782.25
1084.276	4957.25
1089.333	5673.25
1094.385	6801.25
1099.431	7914.25
1104.472	8397.25
1109.509	7541.25
1114.54	5952.25
1119.565	4627.25
1124.586	3806.25
1129.602	3350.25
1134.613	2906.25
1139.618	2424.25
1144.619	2019.25
1149.614	1734.25
1154.604	1534.25
1159.589	1384.25
1164.57	1268.25
1169.545	1156.25
1174.515	1080.25
1179.48	990.25
1184.44	916.25
1189.395	881.25
1194.345	847.25
1199.29	826.25
1204.23	794.25
1209.165	807.25
1214.095	825.25
1219.021	845.25
1223.941	877.25
1228.856	923.25
1233.766	994.25
1238.672	1060.25
1243.572	1154.25
1248.467	1254.25
1253.358	1350.25
1258.244	1487.25
1263.124	1712.25
1268	2052.25
1272.871	2584.25
1277.737	3278.25
1282.599	3841.25
1287.455	3850.25
1292.306	3309.25
1297.153	2636.25
1301.995	2116.25
1306.832	1816.25
1311.664	1634.25
1316.491	1526.25
1321.314	1455.25
1326.132	1406.25
1330.945	1355.25
1335.753	1314.25
1340.556	1299.25
1345.354	1276.25
1350.148	1261.25
1354.937	1275.25
1359.722	1300.25
1364.501	1365.25
1369.276	1419.25
1374.046	1537.25
1378.811	1677.25
1383.572	1855.25
1388.327	2024.25
1393.079	2139.25
1397.825	2181.25
1402.567	2251.25
1407.304	2343.25
1412.036	2497.25
1416.764	2684.25
1421.487	2922.25
1426.205	3184.25
1430.919	3531.25
1435.628	3942.25
1440.333	4543.25
1445.032	5420.25
1449.727	6711.25
1454.418	8297.25
1459.104	9749.25
1463.785	10036.25
1468.462	9039.25
1473.134	7297.25
1477.802	5899.25
1482.465	5118.25
1487.123	4822.25
1491.777	4568.25
1496.426	4114.25
1501.071	3505.25
1505.711	2925.25
1510.347	2538.25
1514.978	2239.25
1519.604	2017.25
1524.226	1834.25
1528.844	1682.25
1533.457	1545.25
1538.065	1443.25
1542.669	1346.25
1547.269	1248.25
1551.864	1140.25
1556.454	1076.25
1561.041	1010.25
1565.622	961.25
1570.199	901.25
1574.772	851.25
1579.34	815.25
1583.904	763.25
1588.464	745.25
1593.019	714.25
1597.569	694.25
1602.115	657.25
1606.657	658.25
1611.195	624.25
1615.728	652.25
1620.256	642.25
1624.78	629.25
1629.3	610.25
1633.816	573.25
1638.327	556.25
1642.834	537.25
1647.336	523.25
1651.834	507.25
1656.328	502.25
1660.817	489.25
1665.302	475.25
1669.783	476.25
1674.259	471.25
1678.732	473.25
1683.199	473.25
1687.663	461.25
1692.122	462.25
1696.577	459.25
1701.028	456.25
1705.474	447.25
1709.917	447.25
1714.355	446.25
1718.788	450.25
1723.218	449.25
1727.643	421.25
1732.064	412.25
1736.481	406.25
1740.893	393.25
1745.301	377.25
1749.705	371.25
1754.105	357.25
1758.501	347.25
1762.893	330.25
1767.28	330.25
1771.663	319.25
1776.042	316.25
1780.417	304.25
1784.787	303.25
1789.154	298.25
1793.516	307.25
1797.874	302.25
1802.228	297.25
1806.578	305.25
1810.924	298.25
1815.266	284.25
1819.603	290.25
1823.937	287.25
1828.266	284.25
1832.591	273.25
1836.913	275.25
1841.23	272.25
1845.543	267.25
1849.852	267.25
1854.156	271.25
1858.457	273.25
1862.754	270.25
1867.047	282.25
1871.335	278.25
1875.62	275.25
1879.9	286.25
1884.177	285.25
1888.449	277.25
1892.718	280.25
1896.982	280.25
1901.243	280.25
1905.499	277.25
1909.752	274.25
1914	276.25
1918.245	274.25
1922.485	279.25
1926.722	280.25
1930.954	276.25
1935.183	276.25
1939.408	283.25
1943.628	284.25
1947.845	281.25
1952.058	277.25
1956.267	278.25
1960.472	277.25
1964.673	274.25
1968.87	273.25
1973.063	261.25
1977.252	262.25
1981.438	266.25
1985.619	268.25
1989.797	268.25
1993.971	253.25
1998.14	260.25
2002.306	251.25
2006.469	254.25
2010.627	253.25
2014.781	248.25
2018.932	255.25
2023.078	251.25
2027.221	249.25
2031.36	249.25
2035.495	237.25
2039.627	234.25
2043.754	234.25
2047.878	233.25
2051.998	231.25
2056.114	243.25
2060.226	242.25
2064.334	246.25
2068.439	256.25
2072.54	251.25
2076.637	252.25
2080.73	261.25
2084.82	270.25
2088.906	272.25
2092.988	278.25
2097.066	279.25
2101.14	281.25
2105.211	280.25
2109.278	266.25
2113.342	263.25
2117.401	266.25
2121.457	261.25
2125.509	256.25
2129.558	262.25
2133.602	258.25
2137.643	263.25
2141.681	262.25
2145.714	266.25
2149.744	259.25
2153.77	263.25
2157.793	262.25
2161.812	255.25
2165.827	253.25
2169.838	259.25
2173.846	255.25
2177.851	257.25
2181.851	257.25
2185.848	247.25
2189.841	249.25
2193.831	246.25
2197.817	245.25
2201.799	246.25
2205.778	250.25
2209.753	249.25
2213.725	250.25
2217.693	248.25
2221.657	254.25
2225.618	256.25
2229.575	263.25
2233.529	274.25
2237.479	273.25
2241.425	272.25
2245.368	275.25
2249.307	286.25
2253.243	279.25
2257.175	290.25
2261.104	293.25
2265.029	293.25
2268.95	289.25
2272.868	298.25
2276.783	285.25
2280.694	298.25
2284.601	305.25
2288.505	305.25
2292.405	297.25
2296.302	284.25
2300.195	287.25
2304.085	277.25
2307.971	269.25
2311.854	260.25
2315.734	253.25
2319.609	237.25
2323.482	242.25
2327.351	247.25
2331.216	247.25
2335.078	253.25
2338.937	247.25
2342.792	237.25
2346.643	241.25
2350.492	233.25
2354.336	232.25
2358.178	231.25
2362.015	235.25
2365.85	228.25
2369.681	226.25
2373.508	229.25
2377.333	222.25
2381.153	221.25
2384.971	217.25
2388.785	218.25
2392.595	217.25
2396.402	224.25
2400.206	223.25
2404.007	228.25
2407.804	231.25
2411.597	232.25
2415.388	232.25
2419.174	231.25
2422.958	232.25
2426.738	236.25
2430.515	237.25
2434.289	230.25
2438.059	246.25
2441.825	248.25
2445.589	242.25
2449.349	251.25
2453.106	242.25
2456.859	256.25
2460.61	259.25
2464.356	256.25
2468.1	257.25
2471.84	264.25
2475.577	260.25
2479.311	258.25
2483.041	262.25
2486.768	264.25
2490.492	265.25
2494.213	264.25
2497.93	268.25
2501.644	271.25
2505.355	268.25
2509.062	278.25
2512.766	278.25
2516.467	285.25
2520.165	293.25
2523.859	298.25
2527.551	299.25
2531.239	311.25
2534.923	333.25
2538.605	343.25
2542.283	353.25
2545.958	374.25
2549.63	387.25
2553.299	400.25
2556.964	403.25
2560.626	385.25
2564.285	376.25
2567.941	370.25
2571.594	369.25
2575.243	362.25
2578.89	358.25
2582.533	360.25
2586.173	365.25
2589.809	360.25
2593.443	358.25
2597.073	374.25
2600.701	362.25
2604.325	378.25
2607.946	370.25
2611.564	379.25
2615.178	379.25
2618.79	375.25
2622.398	361.25
2626.004	368.25
2629.606	366.25
2633.205	370.25
2636.801	371.25
2640.394	385.25
2643.983	385.25
2647.57	398.25
2651.153	406.25
2654.734	404.25
2658.311	406.25
2661.885	418.25
2665.456	440.25
2669.025	440.25
2672.589	455.25
2676.151	475.25
2679.71	498.25
2683.266	524.25
2686.819	553.25
2690.368	595.25
2693.915	641.25
2697.458	696.25
2700.999	771.25
2704.536	856.25
2708.071	943.25
2711.602	1053.25
2715.13	1129.25
2718.656	1200.25
2722.178	1229.25
2725.697	1238.25
2729.214	1225.25
2732.727	1192.25
2736.237	1167.25
2739.744	1123.25
2743.249	1110.25
2746.75	1120.25
2750.248	1121.25
2753.743	1144.25
2757.236	1148.25
2760.725	1134.25
2764.211	1104.25
2767.695	1052.25
2771.175	1022.25
2774.652	997.25
2778.127	987.25
2781.598	981.25
2785.067	985.25
2788.532	995.25
2791.995	1030.25
2795.455	1089.25
2798.911	1131.25
2802.365	1192.25
2805.816	1273.25
2809.264	1356.25
2812.709	1447.25
2816.151	1585.25
2819.59	1706.25
2823.026	1847.25
2826.46	2053.25
2829.89	2236.25
2833.318	2495.25
2836.742	2712.25
2840.164	2890.25
2843.583	3058.25
2846.999	3220.25
2850.412	3357.25
2853.822	3550.25
2857.229	3809.25
2860.634	4095.25
2864.035	4523.25
2867.434	5032.25
2870.83	5636.25
2874.223	6334.25
2877.613	7132.25
2881	7776.25
2884.385	8153.25
2887.766	8232.25
2891.145	8096.25
2894.521	7893.25
2897.894	7552.25
2901.264	7280.25
2904.631	7016.25
2907.996	6769.25
2911.358	6669.25
2914.717	6692.25
2918.073	6906.25
2921.426	7311.25
2924.777	7960.25
2928.124	8886.25
2931.469	9782.25
2934.811	10296.25
2938.15	10107.25
2941.487	9312.25
2944.821	8320.25
2948.152	7333.25
2951.48	6442.25
2954.805	5726.25
2958.128	5153.25
2961.447	4770.25
2964.765	4576.25
2968.079	4529.25
2971.39	4622.25
2974.699	4728.25
2978.005	4761.25
2981.308	4624.25
2984.609	4367.25
2987.907	3968.25
2991.202	3467.25
2994.494	3051.25
2997.784	2649.25
3001.07	2345.25
3004.355	2060.25
3007.636	1833.25
3010.915	1661.25
3014.191	1502.25
3017.464	1368.25
3020.734	1240.25
3024.002	1140.25
3027.267	1041.25
3030.53	961.25
3033.789	893.25
3037.046	820.25
3040.301	775.25
3043.552	723.25
3046.801	687.25
3050.048	633.25
3053.291	613.25
3056.532	589.25
3059.771	558.25
3063.006	524.25
3066.239	502.25
3069.469	483.25
3072.697	457.25
3075.922	443.25
3079.144	424.25
3082.364	403.25
3085.581	399.25
3088.795	370.25
3092.007	362.25
3095.216	341.25
3098.423	326.25
3101.627	318.25
3104.828	311.25
3108.026	302.25
3111.222	293.25
3114.416	273.25
3117.607	276.25
3120.795	276.25
3123.98	265.25
3127.163	254.25
3130.344	261.25
3133.521	255.25
3136.696	251.25
3139.869	244.25
3143.039	248.25
3146.206	243.25
3149.371	230.25
3152.533	240.25
3155.693	228.25
3158.85	235.25
3162.005	228.25
3165.157	233.25
3168.306	236.25
3171.453	231.25
3174.597	228.25
3177.739	225.25
3180.878	225.25
3184.014	234.25
3187.149	224.25
3190.28	223.25
3193.409	229.25
3196.536	217.25
3199.659	228.25
3202.781	227.25
3205.9	231.25
3209.016	224.25
3212.13	239.25
3215.241	229.25
3218.35	238.25
3221.456	238.25
3224.56	231.25
3227.661	233.25
3230.76	226.25
3233.856	228.25
3236.95	228.25
3240.041	229.25
3243.13	228.25
3246.216	216.25
3249.3	221.25
3252.382	222.25
3255.46	222.25
3258.537	217.25
3261.611	216.25
3264.682	227.25
3267.751	223.25
3270.818	217.25
3273.882	214.25
3276.943	215.25
3280.002	219.25
3283.059	215.25
3286.113	208.25
3289.165	207.25
3292.214	205.25
3295.261	206.25
3298.306	202.25
3301.348	197.25
3304.387	195.25
3307.425	195.25
3310.459	187.25
3313.492	195.25
3316.521	184.25
3319.549	182.25
3322.574	179.25
3325.597	181.25
3328.617	176.25
3331.635	171.25
3334.65	174.25
3337.663	174.25
3340.674	179.25
3343.682	173.25
3346.688	178.25
3349.691	172.25
3352.692	166.25
3355.691	160.25
3358.687	165.25
3361.681	168.25
3364.673	151.25
3367.662	155.25
3370.649	147.25
3373.633	154.25
3376.615	151.25
3379.595	142.25
3382.572	145.25
3385.547	146.25
3388.52	139.25
3391.49	137.25
3394.458	133.25
3397.424	132.25
3400.387	126.25
3403.348	120.25
3406.307	119.25
3409.263	120.25
3412.217	113.25
3415.168	111.25
3418.118	104.25
3421.065	107.25
3424.009	109.25
3426.951	110.25
3429.891	101.25
3432.829	101.25
3435.764	96.25
3438.697	90.25
3441.628	89.25
3444.557	85.25
3447.483	84.25
3450.407	79.25
3453.328	72.25
3456.247	72.25
3459.164	63.25
3462.079	66.25
3464.991	61.25
3467.902	64.25
3470.809	57.25
3473.715	58.25
3476.618	54.25
3479.519	56.25
3482.418	46.25
3485.315	45.25
3488.209	45.25
3491.101	41.25
3493.99	37.25
3496.878	39.25
3499.763	35.25
3502.646	33.25
3505.527	25.25
3508.405	28.25
3511.281	27.25
3514.155	26.25
3517.027	18.25
3519.897	25.25
3522.764	20.25
3525.629	18.25
3528.492	16.25
3531.352	15.25
3534.211	12.25
3537.067	10.25
3539.921	3.25
3542.773	9.25
3545.622	4.25
3548.469	6.25
3551.315	4.25
3554.157	2.25
3556.998	0.25
3559.837	2.25
3562.673	-0.75
3565.507	-2.75
3568.339	-2.75
3571.169	-5.75
3573.996	-7.75
3576.822	-1.75
3579.645	-4.75
3582.466	-9.75
3585.285	-6.75
3588.101	-7.75
3590.916	-10.75
3593.728	-7.75
3596.538	-10.75
3599.346	-13.75
3602.152	-12.75
3604.956	-14.75
3607.757	-15.75
3610.556	-18.75
3613.354	-17.75
3616.149	-16.75
3618.942	-14.75
3621.732	-16.75
3624.521	-18.75
3627.307	-14.75
3630.092	-16.75
3632.874	-13.75
3635.654	-14.75
3638.432	-17.75
3641.208	-17.75
3643.982	-19.75
3646.753	-18.75
3649.523	-22.75
3652.29	-21.75
3655.055	-21.75
3657.818	-19.75
3660.579	-21.75
3663.338	-23.75
3666.095	-21.75
3668.849	-19.75
3671.602	-21.75
3674.352	-17.75
3677.101	-18.75
3679.847	-21.75
3682.591	-21.75
3685.333	-22.75
3688.073	-24.75
3690.811	-26.75
3693.547	-26.75
3696.281	-24.75
3699.013	-25.75
3701.742	-27.75
3704.47	-23.75
3707.195	-23.75
3709.919	-24.75
3712.64	-22.75
3715.359	-19.75
3718.076	-18.75
3720.792	-21.75
3723.505	-22.75
3726.216	-25.75
3728.925	-26.75
3731.632	-22.75
3734.336	-27.75
3737.039	-28.75
3739.74	-27.75
3742.439	-30.75
3745.136	-28.75
3747.83	-22.75
3750.523	-24.75
3753.213	-23.75
3755.902	-22.75
3758.589	-20.75
3761.273	-24.75
3763.956	-26.75
3766.636	-25.75
3769.315	-26.75
3771.991	-26.75
3774.665	-32.75
3777.338	-27.75
3780.008	-25.75
3782.677	-26.75
3785.343	-27.75
3788.007	-26.75
3790.67	-25.75
3793.33	-27.75
3795.989	-22.75
3798.645	-22.75
3801.299	-27.75
3803.952	-30.75
3806.602	-27.75
3809.251	-25.75
3811.897	-27.75
3814.542	-28.75
3817.184	-24.75
3819.825	-26.75
3822.463	-21.75
3825.1	-30.75
3827.735	-27.75
3830.367	-27.75
3832.998	-31.75
3835.627	-27.75
3838.253	-26.75
3840.878	-26.75
3843.501	-26.75
3846.122	-27.75
3848.741	-25.75
3851.358	-26.75
3853.973	-28.75
3856.586	-25.75
3859.197	-27.75
3861.806	-22.75
3864.414	-28.75
3867.019	-28.75
3869.622	-28.75
3872.224	-27.75
3874.823	-27.75
3877.421	-25.75
3880.016	-20.75
3882.61	-21.75
3885.202	-17.75
3887.792	-13.75
3890.38	-19.75
3892.966	-24.75
3895.55	-26.75
3898.132	-24.75
3900.713	-27.75
3903.291	-26.75
3905.868	-30.75
3908.442	-30.75
3911.015	-32.75
3913.586	-28.75
3916.155	-32.75
3918.722	-29.75
3921.287	-29.75
3923.85	-27.75
3926.411	-27.75
3928.971	-29.75
3931.528	-26.75
3934.084	-28.75
3936.638	-29.75
3939.19	-26.75
3941.74	-30.75
3944.288	-32.75
3946.834	-29.75
3949.378	-32.75
3951.921	-28.75
3954.462	-28.75
3957	-31.75
3959.537	-26.75
3962.072	-26.75
3964.606	-24.75
3967.137	-25.75
3969.667	-27.75
3972.194	-28.75
3974.72	-29.75
3977.244	-29.75
3979.766	-29.75
3982.286	-33.75
3984.805	-30.75
3987.321	-30.75
3989.836	-27.75
3992.349	-35.75
3994.86	-33.75
3997.369	-28.75
3999.877	-26.75
4002.382	-28.75
4004.886	-26.75
4007.388	-23.75
4009.888	-23.75
4012.386	-26.75
4014.883	-27.75
4017.377	-31.75
4019.87	-28.75
4022.361	-28.75
4024.85	-31.75
4027.338	-31.75
4029.823	-33.75
4032.307	-28.75
4034.789	-30.75
4037.269	-26.75
4039.747	-27.75
4042.224	-22.75
4044.699	-30.75
4047.172	-24.75
4049.643	-27.75
4052.112	-28.75
4054.58	-31.75
4057.046	-30.75
4059.51	-31.75
4061.972	-29.75
4064.432	-32.75
4066.891	-32.75
4069.348	-28.75
4071.803	-24.75
4074.256	-26.75
4076.708	-28.75
4079.158	-28.75
4081.606	-26.75
4084.052	-24.75
4086.497	-25.75
4088.939	-30.75
4091.38	-27.75
4093.819	-28.75
4096.257	-32.75
4098.693	-31.75
4101.127	-31.75
4103.559	-32.75
4105.989	14.25
4108.418	10.25
4110.845	18.25
4113.27	9.25
4115.694	7.25
4118.115	7.25
4120.535	-32.75
4122.954	-31.75
4125.37	-30.75
4127.785	-29.75
4130.198	-27.75
4132.609	-27.75
4135.019	-31.75
4137.427	-32.75
4139.833	-27.75
4142.237	-31.75
