Data from Silver_empthy_RamanShift_11-39-53-998.txt Node
Date: Sun Dec 18 11:39:53 IST 2016
User: aro
Spectrometer: QEPB0276
Trigger mode: 0
Integration Time (sec): 5.000000E0
Scans to average: 1
Electric dark correction enabled: true
Nonlinearity correction enabled: false
Boxcar width: 0
XAxis mode: Raman Shifts
Number of Pixels in Spectrum: 1044
>>>>>Begin Spectral Data<<<<<
160.701	11.25
166.742	13.25
172.777	12.25
178.805	23.25
184.826	60.25
190.841	124.25
196.849	232.25
202.85	337.25
208.845	405.25
214.833	431.25
220.815	444.25
226.789	460.25
232.758	474.25
238.719	506.25
244.674	521.25
250.623	535.25
256.565	532.25
262.5	522.25
268.429	513.25
274.351	511.25
280.267	500.25
286.176	489.25
292.079	475.25
297.975	472.25
303.865	468.25
309.748	460.25
315.625	450.25
321.495	460.25
327.359	453.25
333.217	461.25
339.068	448.25
344.912	450.25
350.751	455.25
356.583	452.25
362.408	458.25
368.227	449.25
374.04	471.25
379.847	458.25
385.647	463.25
391.44	467.25
397.228	487.25
403.009	482.25
408.784	481.25
414.553	488.25
420.315	494.25
426.071	475.25
431.821	486.25
437.565	486.25
443.302	483.25
449.033	488.25
454.758	474.25
460.477	478.25
466.189	477.25
471.896	469.25
477.596	474.25
483.29	465.25
488.978	459.25
494.66	469.25
500.335	456.25
506.005	450.25
511.668	429.25
517.325	413.25
522.977	389.25
528.622	371.25
534.261	359.25
539.894	349.25
545.521	335.25
551.141	334.25
556.756	321.25
562.365	317.25
567.968	306.25
573.565	311.25
579.155	307.25
584.74	302.25
590.319	303.25
595.892	302.25
601.459	304.25
607.02	305.25
612.575	304.25
618.124	305.25
623.667	303.25
629.204	290.25
634.735	287.25
640.261	285.25
645.781	291.25
651.294	291.25
656.802	284.25
662.304	283.25
667.8	283.25
673.29	277.25
678.775	283.25
684.254	284.25
689.726	280.25
695.193	282.25
700.655	284.25
706.11	279.25
711.56	268.25
717.004	275.25
722.442	276.25
727.874	266.25
733.301	275.25
738.722	273.25
744.137	279.25
749.547	267.25
754.951	273.25
760.349	266.25
765.741	279.25
771.128	281.25
776.509	272.25
781.885	285.25
787.254	292.25
792.618	294.25
797.977	295.25
803.33	305.25
808.677	297.25
814.019	290.25
819.355	286.25
824.686	288.25
830.011	282.25
835.33	279.25
840.644	279.25
845.952	280.25
851.255	277.25
856.552	276.25
861.844	277.25
867.13	263.25
872.41	271.25
877.686	264.25
882.955	271.25
888.219	265.25
893.478	268.25
898.731	257.25
903.979	256.25
909.221	255.25
914.458	257.25
919.69	257.25
924.916	258.25
930.136	259.25
935.351	264.25
940.561	257.25
945.766	267.25
950.965	269.25
956.158	265.25
961.347	270.25
966.529	272.25
971.707	271.25
976.879	260.25
982.046	249.25
987.208	249.25
992.364	249.25
997.515	251.25
1002.66	256.25
1007.801	248.25
1012.936	255.25
1018.066	262.25
1023.19	256.25
1028.309	263.25
1033.423	262.25
1038.532	265.25
1043.636	260.25
1048.734	260.25
1053.827	259.25
1058.915	256.25
1063.998	247.25
1069.075	254.25
1074.147	256.25
1079.214	253.25
1084.276	253.25
1089.333	255.25
1094.385	258.25
1099.431	258.25
1104.472	261.25
1109.509	255.25
1114.54	246.25
1119.565	250.25
1124.586	242.25
1129.602	236.25
1134.613	240.25
1139.618	232.25
1144.619	236.25
1149.614	236.25
1154.604	239.25
1159.589	241.25
1164.57	243.25
1169.545	244.25
1174.515	252.25
1179.48	247.25
1184.44	248.25
1189.395	239.25
1194.345	240.25
1199.29	240.25
1204.23	240.25
1209.165	240.25
1214.095	244.25
1219.021	238.25
1223.941	236.25
1228.856	242.25
1233.766	239.25
1238.672	243.25
1243.572	246.25
1248.467	246.25
1253.358	244.25
1258.244	245.25
1263.124	235.25
1268	225.25
1272.871	230.25
1277.737	234.25
1282.599	224.25
1287.455	220.25
1292.306	233.25
1297.153	227.25
1301.995	228.25
1306.832	238.25
1311.664	234.25
1316.491	237.25
1321.314	236.25
1326.132	237.25
1330.945	233.25
1335.753	229.25
1340.556	231.25
1345.354	227.25
1350.148	230.25
1354.937	226.25
1359.722	222.25
1364.501	223.25
1369.276	219.25
1374.046	218.25
1378.811	216.25
1383.572	214.25
1388.327	209.25
1393.079	211.25
1397.825	207.25
1402.567	215.25
1407.304	207.25
1412.036	207.25
1416.764	207.25
1421.487	206.25
1426.205	202.25
1430.919	212.25
1435.628	211.25
1440.333	205.25
1445.032	210.25
1449.727	212.25
1454.418	217.25
1459.104	221.25
1463.785	222.25
1468.462	220.25
1473.134	219.25
1477.802	211.25
1482.465	212.25
1487.123	202.25
1491.777	209.25
1496.426	208.25
1501.071	217.25
1505.711	207.25
1510.347	215.25
1514.978	213.25
1519.604	213.25
1524.226	209.25
1528.844	215.25
1533.457	214.25
1538.065	214.25
1542.669	210.25
1547.269	201.25
1551.864	199.25
1556.454	206.25
1561.041	207.25
1565.622	211.25
1570.199	207.25
1574.772	200.25
1579.34	192.25
1583.904	197.25
1588.464	192.25
1593.019	190.25
1597.569	196.25
1602.115	195.25
1606.657	196.25
1611.195	182.25
1615.728	183.25
1620.256	184.25
1624.78	189.25
1629.3	187.25
1633.816	184.25
1638.327	178.25
1642.834	183.25
1647.336	187.25
1651.834	181.25
1656.328	195.25
1660.817	188.25
1665.302	187.25
1669.783	188.25
1674.259	192.25
1678.732	191.25
1683.199	189.25
1687.663	180.25
1692.122	185.25
1696.577	183.25
1701.028	183.25
1705.474	178.25
1709.917	177.25
1714.355	178.25
1718.788	168.25
1723.218	171.25
1727.643	171.25
1732.064	171.25
1736.481	173.25
1740.893	178.25
1745.301	171.25
1749.705	164.25
1754.105	172.25
1758.501	160.25
1762.893	156.25
1767.28	159.25
1771.663	154.25
1776.042	157.25
1780.417	155.25
1784.787	157.25
1789.154	161.25
1793.516	162.25
1797.874	165.25
1802.228	163.25
1806.578	160.25
1810.924	157.25
1815.266	149.25
1819.603	163.25
1823.937	156.25
1828.266	153.25
1832.591	151.25
1836.913	148.25
1841.23	144.25
1845.543	146.25
1849.852	141.25
1854.156	146.25
1858.457	146.25
1862.754	149.25
1867.047	152.25
1871.335	144.25
1875.62	151.25
1879.9	154.25
1884.177	152.25
1888.449	152.25
1892.718	150.25
1896.982	158.25
1901.243	151.25
1905.499	158.25
1909.752	148.25
1914	149.25
1918.245	149.25
1922.485	153.25
1926.722	154.25
1930.954	150.25
1935.183	155.25
1939.408	157.25
1943.628	155.25
1947.845	149.25
1952.058	148.25
1956.267	157.25
1960.472	146.25
1964.673	147.25
1968.87	138.25
1973.063	133.25
1977.252	134.25
1981.438	138.25
1985.619	135.25
1989.797	129.25
1993.971	129.25
1998.14	133.25
2002.306	134.25
2006.469	139.25
2010.627	132.25
2014.781	130.25
2018.932	131.25
2023.078	133.25
2027.221	122.25
2031.36	132.25
2035.495	123.25
2039.627	121.25
2043.754	122.25
2047.878	119.25
2051.998	123.25
2056.114	126.25
2060.226	126.25
2064.334	123.25
2068.439	121.25
2072.54	129.25
2076.637	126.25
2080.73	119.25
2084.82	128.25
2088.906	126.25
2092.988	129.25
2097.066	121.25
2101.14	124.25
2105.211	121.25
2109.278	120.25
2113.342	122.25
2117.401	125.25
2121.457	128.25
2125.509	123.25
2129.558	122.25
2133.602	117.25
2137.643	123.25
2141.681	111.25
2145.714	115.25
2149.744	108.25
2153.77	111.25
2157.793	107.25
2161.812	111.25
2165.827	108.25
2169.838	108.25
2173.846	107.25
2177.851	98.25
2181.851	105.25
2185.848	105.25
2189.841	101.25
2193.831	103.25
2197.817	93.25
2201.799	99.25
2205.778	99.25
2209.753	96.25
2213.725	95.25
2217.693	96.25
2221.657	101.25
2225.618	92.25
2229.575	100.25
2233.529	96.25
2237.479	97.25
2241.425	96.25
2245.368	97.25
2249.307	98.25
2253.243	98.25
2257.175	95.25
2261.104	86.25
2265.029	92.25
2268.95	90.25
2272.868	94.25
2276.783	86.25
2280.694	90.25
2284.601	89.25
2288.505	85.25
2292.405	86.25
2296.302	89.25
2300.195	85.25
2304.085	80.25
2307.971	85.25
2311.854	75.25
2315.734	75.25
2319.609	78.25
2323.482	77.25
2327.351	77.25
2331.216	87.25
2335.078	99.25
2338.937	99.25
2342.792	84.25
2346.643	76.25
2350.492	81.25
2354.336	76.25
2358.178	79.25
2362.015	76.25
2365.85	73.25
2369.681	73.25
2373.508	76.25
2377.333	74.25
2381.153	76.25
2384.971	72.25
2388.785	75.25
2392.595	74.25
2396.402	70.25
2400.206	71.25
2404.007	71.25
2407.804	69.25
2411.597	70.25
2415.388	73.25
2419.174	70.25
2422.958	70.25
2426.738	62.25
2430.515	74.25
2434.289	69.25
2438.059	71.25
2441.825	68.25
2445.589	69.25
2449.349	68.25
2453.106	69.25
2456.859	70.25
2460.61	69.25
2464.356	64.25
2468.1	66.25
2471.84	65.25
2475.577	61.25
2479.311	65.25
2483.041	58.25
2486.768	60.25
2490.492	64.25
2494.213	64.25
2497.93	68.25
2501.644	68.25
2505.355	70.25
2509.062	65.25
2512.766	68.25
2516.467	68.25
2520.165	64.25
2523.859	65.25
2527.551	62.25
2531.239	64.25
2534.923	62.25
2538.605	63.25
2542.283	57.25
2545.958	59.25
2549.63	58.25
2553.299	63.25
2556.964	56.25
2560.626	65.25
2564.285	59.25
2567.941	51.25
2571.594	56.25
2575.243	53.25
2578.89	55.25
2582.533	59.25
2586.173	53.25
2589.809	59.25
2593.443	57.25
2597.073	60.25
2600.701	58.25
2604.325	57.25
2607.946	59.25
2611.564	55.25
2615.178	58.25
2618.79	52.25
2622.398	52.25
2626.004	46.25
2629.606	47.25
2633.205	50.25
2636.801	46.25
2640.394	50.25
2643.983	48.25
2647.57	48.25
2651.153	48.25
2654.734	47.25
2658.311	49.25
2661.885	50.25
2665.456	47.25
2669.025	46.25
2672.589	47.25
2676.151	44.25
2679.71	40.25
2683.266	42.25
2686.819	42.25
2690.368	41.25
2693.915	42.25
2697.458	40.25
2700.999	40.25
2704.536	42.25
2708.071	39.25
2711.602	38.25
2715.13	40.25
2718.656	39.25
2722.178	39.25
2725.697	36.25
2729.214	34.25
2732.727	41.25
2736.237	38.25
2739.744	44.25
2743.249	45.25
2746.75	41.25
2750.248	41.25
2753.743	41.25
2757.236	38.25
2760.725	41.25
2764.211	37.25
2767.695	39.25
2771.175	35.25
2774.652	34.25
2778.127	32.25
2781.598	33.25
2785.067	31.25
2788.532	35.25
2791.995	28.25
2795.455	31.25
2798.911	28.25
2802.365	31.25
2805.816	32.25
2809.264	37.25
2812.709	30.25
2816.151	32.25
2819.59	32.25
2823.026	34.25
2826.46	33.25
2829.89	29.25
2833.318	25.25
2836.742	31.25
2840.164	30.25
2843.583	27.25
2846.999	26.25
2850.412	26.25
2853.822	31.25
2857.229	33.25
2860.634	27.25
2864.035	26.25
2867.434	26.25
2870.83	30.25
2874.223	27.25
2877.613	28.25
2881	23.25
2884.385	29.25
2887.766	29.25
2891.145	23.25
2894.521	25.25
2897.894	24.25
2901.264	24.25
2904.631	25.25
2907.996	24.25
2911.358	25.25
2914.717	22.25
2918.073	20.25
2921.426	22.25
2924.777	22.25
2928.124	19.25
2931.469	19.25
2934.811	22.25
2938.15	21.25
2941.487	20.25
2944.821	23.25
2948.152	24.25
2951.48	20.25
2954.805	22.25
2958.128	22.25
2961.447	20.25
2964.765	19.25
2968.079	16.25
2971.39	17.25
2974.699	11.25
2978.005	14.25
2981.308	16.25
2984.609	13.25
2987.907	15.25
2991.202	12.25
2994.494	14.25
2997.784	15.25
3001.07	16.25
3004.355	16.25
3007.636	15.25
3010.915	14.25
3014.191	15.25
3017.464	18.25
3020.734	14.25
3024.002	12.25
3027.267	11.25
3030.53	12.25
3033.789	7.25
3037.046	11.25
3040.301	3.25
3043.552	8.25
3046.801	6.25
3050.048	8.25
3053.291	6.25
3056.532	11.25
3059.771	8.25
3063.006	11.25
3066.239	12.25
3069.469	8.25
3072.697	9.25
3075.922	7.25
3079.144	12.25
3082.364	9.25
3085.581	7.25
3088.795	6.25
3092.007	2.25
3095.216	4.25
3098.423	7.25
3101.627	3.25
3104.828	5.25
3108.026	7.25
3111.222	5.25
3114.416	6.25
3117.607	5.25
3120.795	10.25
3123.98	7.25
3127.163	7.25
3130.344	6.25
3133.521	5.25
3136.696	1.25
3139.869	8.25
3143.039	0.25
3146.206	6.25
3149.371	0.25
3152.533	3.25
3155.693	1.25
3158.85	2.25
3162.005	5.25
3165.157	2.25
3168.306	2.25
3171.453	1.25
3174.597	-3.75
3177.739	0.25
3180.878	-0.75
3184.014	4.25
3187.149	0.25
3190.28	0.25
3193.409	2.25
3196.536	-1.75
3199.659	-0.75
3202.781	0.25
3205.9	-0.75
3209.016	0.25
3212.13	-3.75
3215.241	-4.75
3218.35	-2.75
3221.456	-3.75
3224.56	-5.75
3227.661	-5.75
3230.76	-3.75
3233.856	-3.75
3236.95	-5.75
3240.041	-5.75
3243.13	-3.75
3246.216	-1.75
3249.3	-3.75
3252.382	-1.75
3255.46	-0.75
3258.537	0.25
3261.611	-3.75
3264.682	-5.75
3267.751	-3.75
3270.818	-6.75
3273.882	-8.75
3276.943	-7.75
3280.002	-5.75
3283.059	-4.75
3286.113	-8.75
3289.165	-4.75
3292.214	-4.75
3295.261	-4.75
3298.306	-3.75
3301.348	-3.75
3304.387	-3.75
3307.425	-3.75
3310.459	-1.75
3313.492	-1.75
3316.521	-5.75
3319.549	-7.75
3322.574	-6.75
3325.597	-4.75
3328.617	-8.75
3331.635	-10.75
3334.65	-11.75
3337.663	-8.75
3340.674	-10.75
3343.682	-4.75
3346.688	-10.75
3349.691	-3.75
3352.692	-9.75
3355.691	-5.75
3358.687	-8.75
3361.681	-10.75
3364.673	-10.75
3367.662	-8.75
3370.649	-7.75
3373.633	-9.75
3376.615	-8.75
3379.595	-5.75
3382.572	-8.75
3385.547	-5.75
3388.52	-8.75
3391.49	-6.75
3394.458	-6.75
3397.424	-7.75
3400.387	-7.75
3403.348	-10.75
3406.307	-8.75
3409.263	-8.75
3412.217	-8.75
3415.168	-11.75
3418.118	-13.75
3421.065	-10.75
3424.009	-9.75
3426.951	-9.75
3429.891	-8.75
3432.829	-8.75
3435.764	-11.75
3438.697	-11.75
3441.628	-9.75
3444.557	-9.75
3447.483	-10.75
3450.407	-7.75
3453.328	-8.75
3456.247	-12.75
3459.164	-9.75
3462.079	-10.75
3464.991	-11.75
3467.902	-12.75
3470.809	-10.75
3473.715	-12.75
3476.618	-11.75
3479.519	-13.75
3482.418	-12.75
3485.315	-11.75
3488.209	-12.75
3491.101	-15.75
3493.99	-13.75
3496.878	-11.75
3499.763	-12.75
3502.646	-9.75
3505.527	-8.75
3508.405	-10.75
3511.281	-6.75
3514.155	-9.75
3517.027	-10.75
3519.897	-8.75
3522.764	-10.75
3525.629	-11.75
3528.492	-15.75
3531.352	-12.75
3534.211	-14.75
3537.067	-15.75
3539.921	-17.75
3542.773	-15.75
3545.622	-14.75
3548.469	-11.75
3551.315	-12.75
3554.157	-10.75
3556.998	-10.75
3559.837	-11.75
3562.673	-10.75
3565.507	-11.75
3568.339	-13.75
3571.169	-12.75
3573.996	-15.75
3576.822	-9.75
3579.645	-13.75
3582.466	-14.75
3585.285	-16.75
3588.101	-15.75
3590.916	-12.75
3593.728	-12.75
3596.538	-14.75
3599.346	-16.75
3602.152	-14.75
3604.956	-11.75
3607.757	-17.75
3610.556	-17.75
3613.354	-15.75
3616.149	-13.75
3618.942	-14.75
3621.732	-15.75
3624.521	-14.75
3627.307	-9.75
3630.092	-10.75
3632.874	-8.75
3635.654	-9.75
3638.432	-10.75
3641.208	-14.75
3643.982	-11.75
3646.753	-17.75
3649.523	-17.75
3652.29	-15.75
3655.055	-15.75
3657.818	-17.75
3660.579	-18.75
3663.338	-18.75
3666.095	-13.75
3668.849	-16.75
3671.602	-13.75
3674.352	-12.75
3677.101	-12.75
3679.847	-11.75
3682.591	-12.75
3685.333	-15.75
3688.073	-14.75
3690.811	-15.75
3693.547	-13.75
3696.281	-12.75
3699.013	-16.75
3701.742	-16.75
3704.47	-14.75
3707.195	-14.75
3709.919	-14.75
3712.64	-10.75
3715.359	-12.75
3718.076	-9.75
3720.792	-15.75
3723.505	-14.75
3726.216	-18.75
3728.925	-16.75
3731.632	-15.75
3734.336	-14.75
3737.039	-17.75
3739.74	-13.75
3742.439	-18.75
3745.136	-15.75
3747.83	-10.75
3750.523	-11.75
3753.213	-14.75
3755.902	-9.75
3758.589	-13.75
3761.273	-13.75
3763.956	-16.75
3766.636	-15.75
3769.315	-13.75
3771.991	-15.75
3774.665	-21.75
3777.338	-20.75
3780.008	-16.75
3782.677	-17.75
3785.343	-15.75
3788.007	-14.75
3790.67	-16.75
3793.33	-16.75
3795.989	-11.75
3798.645	-9.75
3801.299	-12.75
3803.952	-17.75
3806.602	-16.75
3809.251	-13.75
3811.897	-17.75
3814.542	-18.75
3817.184	-14.75
3819.825	-14.75
3822.463	-11.75
3825.1	-15.75
3827.735	-14.75
3830.367	-16.75
3832.998	-18.75
3835.627	-13.75
3838.253	-17.75
3840.878	-15.75
3843.501	-17.75
3846.122	-16.75
3848.741	-16.75
3851.358	-15.75
3853.973	-13.75
3856.586	-15.75
3859.197	-14.75
3861.806	-11.75
3864.414	-13.75
3867.019	-14.75
3869.622	-14.75
3872.224	-14.75
3874.823	-16.75
3877.421	-14.75
3880.016	-11.75
3882.61	-8.75
3885.202	-4.75
3887.792	-4.75
3890.38	-6.75
3892.966	-15.75
3895.55	-13.75
3898.132	-10.75
3900.713	-12.75
3903.291	-10.75
3905.868	-13.75
3908.442	-15.75
3911.015	-16.75
3913.586	-17.75
3916.155	-18.75
3918.722	-15.75
3921.287	-16.75
3923.85	-15.75
3926.411	-14.75
3928.971	-16.75
3931.528	-17.75
3934.084	-18.75
3936.638	-16.75
3939.19	-15.75
3941.74	-16.75
3944.288	-17.75
3946.834	-16.75
3949.378	-18.75
3951.921	-14.75
3954.462	-17.75
3957	-17.75
3959.537	-16.75
3962.072	-12.75
3964.606	-11.75
3967.137	-11.75
3969.667	-12.75
3972.194	-13.75
3974.72	-18.75
3977.244	-16.75
3979.766	-19.75
3982.286	-18.75
3984.805	-19.75
3987.321	-17.75
3989.836	-17.75
3992.349	-21.75
3994.86	-20.75
3997.369	-16.75
3999.877	-15.75
4002.382	-14.75
4004.886	-11.75
4007.388	-12.75
4009.888	-11.75
4012.386	-12.75
4014.883	-14.75
4017.377	-16.75
4019.87	-17.75
4022.361	-16.75
4024.85	-16.75
4027.338	-19.75
4029.823	-17.75
4032.307	-18.75
4034.789	-20.75
4037.269	-16.75
4039.747	-17.75
4042.224	-18.75
4044.699	-14.75
4047.172	-12.75
4049.643	-16.75
4052.112	-13.75
4054.58	-16.75
4057.046	-14.75
4059.51	-17.75
4061.972	-16.75
4064.432	-15.75
4066.891	-15.75
4069.348	-12.75
4071.803	-13.75
4074.256	-13.75
4076.708	-15.75
4079.158	-17.75
4081.606	-15.75
4084.052	-13.75
4086.497	-14.75
4088.939	-16.75
4091.38	-16.75
4093.819	-17.75
4096.257	-17.75
4098.693	-15.75
4101.127	-12.75
4103.559	-16.75
4105.989	24.25
4108.418	19.25
4110.845	17.25
4113.27	12.25
4115.694	11.25
4118.115	9.25
4120.535	-20.75
4122.954	-16.75
4125.37	-14.75
4127.785	-16.75
4130.198	-13.75
4132.609	-14.75
4135.019	-12.75
4137.427	-14.75
4139.833	-15.75
4142.237	-16.75
