Data from Silver_Water_RamanShift_11-56-03-907.txt Node
Date: Sun Dec 18 11:56:03 IST 2016
User: aro
Spectrometer: QEPB0276
Trigger mode: 0
Integration Time (sec): 5.000000E0
Scans to average: 1
Electric dark correction enabled: true
Nonlinearity correction enabled: false
Boxcar width: 0
XAxis mode: Raman Shifts
Number of Pixels in Spectrum: 1044
>>>>>Begin Spectral Data<<<<<
160.701	3.5
166.742	27.5
172.777	66.5
178.805	206.5
184.826	629.5
190.841	1479.5
196.849	2728.5
202.85	3949.5
208.845	4580.5
214.833	4651.5
220.815	4603.5
226.789	4525.5
232.758	4512.5
238.719	4522.5
244.674	4480.5
250.623	4395.5
256.565	4189.5
262.5	3887.5
268.429	3606.5
274.351	3323.5
280.267	3076.5
286.176	2865.5
292.079	2726.5
297.975	2558.5
303.865	2457.5
309.748	2369.5
315.625	2289.5
321.495	2225.5
327.359	2188.5
333.217	2150.5
339.068	2135.5
344.912	2091.5
350.751	2094.5
356.583	2070.5
362.408	2064.5
368.227	2071.5
374.04	2072.5
379.847	2072.5
385.647	2081.5
391.44	2083.5
397.228	2110.5
403.009	2109.5
408.784	2093.5
414.553	2113.5
420.315	2118.5
426.071	2115.5
431.821	2130.5
437.565	2114.5
443.302	2099.5
449.033	2083.5
454.758	2093.5
460.477	2065.5
466.189	2065.5
471.896	2050.5
477.596	2039.5
483.29	2042.5
488.978	2023.5
494.66	1995.5
500.335	1991.5
506.005	2000.5
511.668	1970.5
517.325	1933.5
522.977	1905.5
528.622	1879.5
534.261	1832.5
539.894	1825.5
545.521	1791.5
551.141	1741.5
556.756	1721.5
562.365	1731.5
567.968	1699.5
573.565	1675.5
579.155	1658.5
584.74	1667.5
590.319	1642.5
595.892	1621.5
601.459	1615.5
607.02	1598.5
612.575	1595.5
618.124	1583.5
623.667	1573.5
629.204	1550.5
634.735	1545.5
640.261	1517.5
645.781	1517.5
651.294	1500.5
656.802	1498.5
662.304	1491.5
667.8	1469.5
673.29	1475.5
678.775	1463.5
684.254	1452.5
689.726	1454.5
695.193	1447.5
700.655	1419.5
706.11	1410.5
711.56	1398.5
717.004	1402.5
722.442	1372.5
727.874	1359.5
733.301	1355.5
738.722	1358.5
744.137	1331.5
749.547	1326.5
754.951	1330.5
760.349	1300.5
765.741	1301.5
771.128	1312.5
776.509	1317.5
781.885	1292.5
787.254	1309.5
792.618	1294.5
797.977	1286.5
803.33	1269.5
808.677	1262.5
814.019	1257.5
819.355	1245.5
824.686	1222.5
830.011	1204.5
835.33	1187.5
840.644	1196.5
845.952	1166.5
851.255	1183.5
856.552	1166.5
861.844	1162.5
867.13	1130.5
872.41	1135.5
877.686	1136.5
882.955	1138.5
888.219	1100.5
893.478	1092.5
898.731	1078.5
903.979	1047.5
909.221	1033.5
914.458	1031.5
919.69	1023.5
924.916	1023.5
930.136	1025.5
935.351	1032.5
940.561	1015.5
945.766	1023.5
950.965	1009.5
956.158	1005.5
961.347	1014.5
966.529	1001.5
971.707	969.5
976.879	956.5
982.046	940.5
987.208	910.5
992.364	907.5
997.515	901.5
1002.66	909.5
1007.801	918.5
1012.936	923.5
1018.066	928.5
1023.19	938.5
1028.309	932.5
1033.423	939.5
1038.532	933.5
1043.636	912.5
1048.734	930.5
1053.827	904.5
1058.915	881.5
1063.998	877.5
1069.075	878.5
1074.147	884.5
1079.214	879.5
1084.276	885.5
1089.333	898.5
1094.385	888.5
1099.431	896.5
1104.472	892.5
1109.509	876.5
1114.54	871.5
1119.565	860.5
1124.586	851.5
1129.602	844.5
1134.613	835.5
1139.618	843.5
1144.619	838.5
1149.614	849.5
1154.604	844.5
1159.589	859.5
1164.57	854.5
1169.545	838.5
1174.515	845.5
1179.48	843.5
1184.44	828.5
1189.395	827.5
1194.345	831.5
1199.29	820.5
1204.23	802.5
1209.165	817.5
1214.095	824.5
1219.021	828.5
1223.941	843.5
1228.856	849.5
1233.766	861.5
1238.672	860.5
1243.572	861.5
1248.467	846.5
1253.358	850.5
1258.244	838.5
1263.124	823.5
1268	826.5
1272.871	814.5
1277.737	837.5
1282.599	826.5
1287.455	822.5
1292.306	814.5
1297.153	803.5
1301.995	802.5
1306.832	815.5
1311.664	822.5
1316.491	814.5
1321.314	808.5
1326.132	817.5
1330.945	806.5
1335.753	778.5
1340.556	778.5
1345.354	766.5
1350.148	743.5
1354.937	747.5
1359.722	726.5
1364.501	742.5
1369.276	733.5
1374.046	736.5
1378.811	747.5
1383.572	755.5
1388.327	765.5
1393.079	774.5
1397.825	740.5
1402.567	742.5
1407.304	714.5
1412.036	717.5
1416.764	703.5
1421.487	699.5
1426.205	701.5
1430.919	715.5
1435.628	708.5
1440.333	709.5
1445.032	723.5
1449.727	725.5
1454.418	727.5
1459.104	733.5
1463.785	718.5
1468.462	707.5
1473.134	689.5
1477.802	686.5
1482.465	670.5
1487.123	670.5
1491.777	671.5
1496.426	692.5
1501.071	688.5
1505.711	711.5
1510.347	739.5
1514.978	753.5
1519.604	779.5
1524.226	757.5
1528.844	748.5
1533.457	758.5
1538.065	754.5
1542.669	743.5
1547.269	747.5
1551.864	756.5
1556.454	738.5
1561.041	753.5
1565.622	755.5
1570.199	750.5
1574.772	762.5
1579.34	771.5
1583.904	784.5
1588.464	810.5
1593.019	830.5
1597.569	825.5
1602.115	835.5
1606.657	856.5
1611.195	849.5
1615.728	871.5
1620.256	879.5
1624.78	884.5
1629.3	903.5
1633.816	906.5
1638.327	930.5
1642.834	925.5
1647.336	936.5
1651.834	947.5
1656.328	931.5
1660.817	940.5
1665.302	936.5
1669.783	898.5
1674.259	887.5
1678.732	834.5
1683.199	819.5
1687.663	772.5
1692.122	742.5
1696.577	702.5
1701.028	672.5
1705.474	654.5
1709.917	640.5
1714.355	623.5
1718.788	612.5
1723.218	567.5
1727.643	555.5
1732.064	538.5
1736.481	515.5
1740.893	489.5
1745.301	475.5
1749.705	462.5
1754.105	443.5
1758.501	431.5
1762.893	406.5
1767.28	400.5
1771.663	390.5
1776.042	382.5
1780.417	379.5
1784.787	372.5
1789.154	377.5
1793.516	375.5
1797.874	378.5
1802.228	381.5
1806.578	377.5
1810.924	374.5
1815.266	373.5
1819.603	376.5
1823.937	361.5
1828.266	346.5
1832.591	343.5
1836.913	336.5
1841.23	333.5
1845.543	328.5
1849.852	321.5
1854.156	324.5
1858.457	323.5
1862.754	321.5
1867.047	320.5
1871.335	326.5
1875.62	327.5
1879.9	332.5
1884.177	326.5
1888.449	327.5
1892.718	316.5
1896.982	317.5
1901.243	324.5
1905.499	311.5
1909.752	316.5
1914	311.5
1918.245	313.5
1922.485	315.5
1926.722	311.5
1930.954	315.5
1935.183	312.5
1939.408	330.5
1943.628	332.5
1947.845	334.5
1952.058	327.5
1956.267	339.5
1960.472	328.5
1964.673	328.5
1968.87	321.5
1973.063	320.5
1977.252	312.5
1981.438	322.5
1985.619	316.5
1989.797	314.5
1993.971	310.5
1998.14	317.5
2002.306	310.5
2006.469	319.5
2010.627	314.5
2014.781	313.5
2018.932	324.5
2023.078	320.5
2027.221	318.5
2031.36	311.5
2035.495	314.5
2039.627	307.5
2043.754	304.5
2047.878	310.5
2051.998	313.5
2056.114	319.5
2060.226	306.5
2064.334	314.5
2068.439	318.5
2072.54	327.5
2076.637	323.5
2080.73	328.5
2084.82	319.5
2088.906	326.5
2092.988	328.5
2097.066	324.5
2101.14	322.5
2105.211	327.5
2109.278	323.5
2113.342	324.5
2117.401	317.5
2121.457	328.5
2125.509	326.5
2129.558	322.5
2133.602	317.5
2137.643	318.5
2141.681	307.5
2145.714	315.5
2149.744	313.5
2153.77	298.5
2157.793	302.5
2161.812	299.5
2165.827	299.5
2169.838	281.5
2173.846	276.5
2177.851	276.5
2181.851	268.5
2185.848	263.5
2189.841	265.5
2193.831	252.5
2197.817	242.5
2201.799	242.5
2205.778	239.5
2209.753	238.5
2213.725	243.5
2217.693	238.5
2221.657	239.5
2225.618	239.5
2229.575	226.5
2233.529	236.5
2237.479	226.5
2241.425	227.5
2245.368	216.5
2249.307	223.5
2253.243	221.5
2257.175	209.5
2261.104	206.5
2265.029	205.5
2268.95	199.5
2272.868	190.5
2276.783	194.5
2280.694	191.5
2284.601	177.5
2288.505	178.5
2292.405	176.5
2296.302	180.5
2300.195	173.5
2304.085	178.5
2307.971	165.5
2311.854	159.5
2315.734	162.5
2319.609	154.5
2323.482	151.5
2327.351	142.5
2331.216	147.5
2335.078	147.5
2338.937	149.5
2342.792	145.5
2346.643	140.5
2350.492	135.5
2354.336	138.5
2358.178	144.5
2362.015	134.5
2365.85	131.5
2369.681	134.5
2373.508	126.5
2377.333	127.5
2381.153	135.5
2384.971	130.5
2388.785	133.5
2392.595	136.5
2396.402	130.5
2400.206	133.5
2404.007	132.5
2407.804	125.5
2411.597	119.5
2415.388	125.5
2419.174	120.5
2422.958	118.5
2426.738	117.5
2430.515	114.5
2434.289	111.5
2438.059	116.5
2441.825	115.5
2445.589	103.5
2449.349	109.5
2453.106	103.5
2456.859	109.5
2460.61	108.5
2464.356	107.5
2468.1	103.5
2471.84	108.5
2475.577	99.5
2479.311	94.5
2483.041	99.5
2486.768	97.5
2490.492	97.5
2494.213	97.5
2497.93	97.5
2501.644	95.5
2505.355	95.5
2509.062	94.5
2512.766	99.5
2516.467	98.5
2520.165	93.5
2523.859	90.5
2527.551	90.5
2531.239	85.5
2534.923	89.5
2538.605	91.5
2542.283	85.5
2545.958	89.5
2549.63	82.5
2553.299	89.5
2556.964	87.5
2560.626	88.5
2564.285	79.5
2567.941	80.5
2571.594	82.5
2575.243	79.5
2578.89	77.5
2582.533	75.5
2586.173	73.5
2589.809	82.5
2593.443	74.5
2597.073	74.5
2600.701	67.5
2604.325	74.5
2607.946	71.5
2611.564	75.5
2615.178	73.5
2618.79	65.5
2622.398	68.5
2626.004	64.5
2629.606	72.5
2633.205	70.5
2636.801	67.5
2640.394	65.5
2643.983	58.5
2647.57	67.5
2651.153	63.5
2654.734	60.5
2658.311	63.5
2661.885	69.5
2665.456	60.5
2669.025	59.5
2672.589	57.5
2676.151	53.5
2679.71	49.5
2683.266	54.5
2686.819	48.5
2690.368	48.5
2693.915	53.5
2697.458	51.5
2700.999	50.5
2704.536	48.5
2708.071	48.5
2711.602	53.5
2715.13	46.5
2718.656	52.5
2722.178	42.5
2725.697	48.5
2729.214	45.5
2732.727	53.5
2736.237	46.5
2739.744	55.5
2743.249	49.5
2746.75	54.5
2750.248	51.5
2753.743	48.5
2757.236	53.5
2760.725	61.5
2764.211	54.5
2767.695	61.5
2771.175	56.5
2774.652	55.5
2778.127	61.5
2781.598	56.5
2785.067	61.5
2788.532	57.5
2791.995	56.5
2795.455	64.5
2798.911	65.5
2802.365	60.5
2805.816	67.5
2809.264	74.5
2812.709	67.5
2816.151	62.5
2819.59	64.5
2823.026	64.5
2826.46	64.5
2829.89	70.5
2833.318	65.5
2836.742	71.5
2840.164	77.5
2843.583	74.5
2846.999	76.5
2850.412	84.5
2853.822	82.5
2857.229	87.5
2860.634	95.5
2864.035	95.5
2867.434	93.5
2870.83	98.5
2874.223	98.5
2877.613	100.5
2881	110.5
2884.385	107.5
2887.766	108.5
2891.145	111.5
2894.521	113.5
2897.894	116.5
2901.264	119.5
2904.631	121.5
2907.996	121.5
2911.358	132.5
2914.717	124.5
2918.073	136.5
2921.426	137.5
2924.777	150.5
2928.124	146.5
2931.469	150.5
2934.811	149.5
2938.15	151.5
2941.487	157.5
2944.821	167.5
2948.152	167.5
2951.48	172.5
2954.805	176.5
2958.128	174.5
2961.447	181.5
2964.765	190.5
2968.079	188.5
2971.39	194.5
2974.699	199.5
2978.005	207.5
2981.308	220.5
2984.609	230.5
2987.907	231.5
2991.202	239.5
2994.494	250.5
2997.784	256.5
3001.07	270.5
3004.355	280.5
3007.636	289.5
3010.915	294.5
3014.191	293.5
3017.464	315.5
3020.734	319.5
3024.002	331.5
3027.267	331.5
3030.53	339.5
3033.789	348.5
3037.046	347.5
3040.301	360.5
3043.552	380.5
3046.801	380.5
3050.048	401.5
3053.291	410.5
3056.532	421.5
3059.771	438.5
3063.006	451.5
3066.239	467.5
3069.469	479.5
3072.697	495.5
3075.922	498.5
3079.144	528.5
3082.364	543.5
3085.581	553.5
3088.795	560.5
3092.007	586.5
3095.216	591.5
3098.423	615.5
3101.627	641.5
3104.828	650.5
3108.026	666.5
3111.222	674.5
3114.416	687.5
3117.607	714.5
3120.795	731.5
3123.98	745.5
3127.163	771.5
3130.344	783.5
3133.521	802.5
3136.696	819.5
3139.869	835.5
3143.039	853.5
3146.206	873.5
3149.371	890.5
3152.533	903.5
3155.693	913.5
3158.85	912.5
3162.005	925.5
3165.157	924.5
3168.306	924.5
3171.453	939.5
3174.597	935.5
3177.739	943.5
3180.878	957.5
3184.014	947.5
3187.149	956.5
3190.28	964.5
3193.409	959.5
3196.536	975.5
3199.659	974.5
3202.781	979.5
3205.9	981.5
3209.016	983.5
3212.13	977.5
3215.241	966.5
3218.35	982.5
3221.456	962.5
3224.56	949.5
3227.661	946.5
3230.76	938.5
3233.856	927.5
3236.95	916.5
3240.041	890.5
3243.13	910.5
3246.216	912.5
3249.3	908.5
3252.382	896.5
3255.46	902.5
3258.537	888.5
3261.611	891.5
3264.682	879.5
3267.751	876.5
3270.818	880.5
3273.882	869.5
3276.943	876.5
3280.002	864.5
3283.059	862.5
3286.113	839.5
3289.165	840.5
3292.214	831.5
3295.261	809.5
3298.306	799.5
3301.348	809.5
3304.387	787.5
3307.425	770.5
3310.459	762.5
3313.492	764.5
3316.521	751.5
3319.549	734.5
3322.574	726.5
3325.597	717.5
3328.617	714.5
3331.635	706.5
3334.65	709.5
3337.663	694.5
3340.674	693.5
3343.682	697.5
3346.688	689.5
3349.691	714.5
3352.692	696.5
3355.691	694.5
3358.687	674.5
3361.681	671.5
3364.673	668.5
3367.662	662.5
3370.649	633.5
3373.633	638.5
3376.615	639.5
3379.595	623.5
3382.572	613.5
3385.547	614.5
3388.52	607.5
3391.49	592.5
3394.458	601.5
3397.424	568.5
3400.387	575.5
3403.348	569.5
3406.307	557.5
3409.263	554.5
3412.217	548.5
3415.168	543.5
3418.118	531.5
3421.065	531.5
3424.009	523.5
3426.951	513.5
3429.891	505.5
3432.829	503.5
3435.764	498.5
3438.697	476.5
3441.628	476.5
3444.557	454.5
3447.483	442.5
3450.407	437.5
3453.328	421.5
3456.247	409.5
3459.164	406.5
3462.079	385.5
3464.991	385.5
3467.902	374.5
3470.809	369.5
3473.715	350.5
3476.618	335.5
3479.519	334.5
3482.418	315.5
3485.315	316.5
3488.209	303.5
3491.101	294.5
3493.99	288.5
3496.878	279.5
3499.763	274.5
3502.646	262.5
3505.527	247.5
3508.405	247.5
3511.281	234.5
3514.155	233.5
3517.027	214.5
3519.897	212.5
3522.764	199.5
3525.629	183.5
3528.492	177.5
3531.352	176.5
3534.211	161.5
3537.067	155.5
3539.921	151.5
3542.773	139.5
3545.622	129.5
3548.469	129.5
3551.315	115.5
3554.157	112.5
3556.998	109.5
3559.837	100.5
3562.673	90.5
3565.507	85.5
3568.339	78.5
3571.169	77.5
3573.996	70.5
3576.822	69.5
3579.645	64.5
3582.466	59.5
3585.285	55.5
3588.101	51.5
3590.916	41.5
3593.728	39.5
3596.538	37.5
3599.346	30.5
3602.152	26.5
3604.956	27.5
3607.757	18.5
3610.556	11.5
3613.354	9.5
3616.149	9.5
3618.942	8.5
3621.732	3.5
3624.521	0.5
3627.307	2.5
3630.092	0.5
3632.874	-3.5
3635.654	-4.5
3638.432	-8.5
3641.208	-11.5
3643.982	-14.5
3646.753	-14.5
3649.523	-19.5
3652.29	-18.5
3655.055	-22.5
3657.818	-23.5
3660.579	-27.5
3663.338	-26.5
3666.095	-27.5
3668.849	-27.5
3671.602	-33.5
3674.352	-30.5
3677.101	-33.5
3679.847	-36.5
3682.591	-38.5
3685.333	-38.5
3688.073	-44.5
3690.811	-46.5
3693.547	-41.5
3696.281	-47.5
3699.013	-50.5
3701.742	-50.5
3704.47	-51.5
3707.195	-47.5
3709.919	-46.5
3712.64	-49.5
3715.359	-49.5
3718.076	-48.5
3720.792	-54.5
3723.505	-53.5
3726.216	-60.5
3728.925	-58.5
3731.632	-57.5
3734.336	-58.5
3737.039	-61.5
3739.74	-59.5
3742.439	-65.5
3745.136	-62.5
3747.83	-59.5
3750.523	-61.5
3753.213	-65.5
3755.902	-63.5
3758.589	-63.5
3761.273	-63.5
3763.956	-61.5
3766.636	-61.5
3769.315	-60.5
3771.991	-65.5
3774.665	-66.5
3777.338	-65.5
3780.008	-63.5
3782.677	-64.5
3785.343	-60.5
3788.007	-65.5
3790.67	-67.5
3793.33	-68.5
3795.989	-64.5
3798.645	-66.5
3801.299	-65.5
3803.952	-73.5
3806.602	-73.5
3809.251	-68.5
3811.897	-68.5
3814.542	-72.5
3817.184	-69.5
3819.825	-66.5
3822.463	-66.5
3825.1	-68.5
3827.735	-68.5
3830.367	-66.5
3832.998	-68.5
3835.627	-67.5
3838.253	-69.5
3840.878	-67.5
3843.501	-71.5
3846.122	-68.5
3848.741	-69.5
3851.358	-67.5
3853.973	-72.5
3856.586	-69.5
3859.197	-70.5
3861.806	-67.5
3864.414	-73.5
3867.019	-72.5
3869.622	-68.5
3872.224	-72.5
3874.823	-71.5
3877.421	-68.5
3880.016	-66.5
3882.61	-63.5
3885.202	-62.5
3887.792	-59.5
3890.38	-64.5
3892.966	-66.5
3895.55	-67.5
3898.132	-65.5
3900.713	-68.5
3903.291	-71.5
3905.868	-70.5
3908.442	-72.5
3911.015	-73.5
3913.586	-74.5
3916.155	-75.5
3918.722	-71.5
3921.287	-78.5
3923.85	-75.5
3926.411	-71.5
3928.971	-73.5
3931.528	-73.5
3934.084	-70.5
3936.638	-71.5
3939.19	-69.5
3941.74	-71.5
3944.288	-72.5
3946.834	-72.5
3949.378	-75.5
3951.921	-70.5
3954.462	-73.5
3957	-74.5
3959.537	-72.5
3962.072	-70.5
3964.606	-74.5
3967.137	-72.5
3969.667	-70.5
3972.194	-75.5
3974.72	-75.5
3977.244	-72.5
3979.766	-70.5
3982.286	-71.5
3984.805	-73.5
3987.321	-69.5
3989.836	-67.5
3992.349	-72.5
3994.86	-72.5
3997.369	-70.5
3999.877	-66.5
4002.382	-70.5
4004.886	-67.5
4007.388	-66.5
4009.888	-66.5
4012.386	-68.5
4014.883	-71.5
4017.377	-77.5
4019.87	-74.5
4022.361	-72.5
4024.85	-73.5
4027.338	-70.5
4029.823	-71.5
4032.307	-74.5
4034.789	-72.5
4037.269	-70.5
4039.747	-69.5
4042.224	-69.5
4044.699	-71.5
4047.172	-67.5
4049.643	-69.5
4052.112	-70.5
4054.58	-74.5
4057.046	-74.5
4059.51	-72.5
4061.972	-73.5
4064.432	-75.5
4066.891	-74.5
4069.348	-73.5
4071.803	-71.5
4074.256	-72.5
4076.708	-72.5
4079.158	-72.5
4081.606	-68.5
4084.052	-68.5
4086.497	-71.5
4088.939	-69.5
4091.38	-71.5
4093.819	-68.5
4096.257	-76.5
4098.693	-69.5
4101.127	-72.5
4103.559	-71.5
4105.989	-15.5
4108.418	-9.5
4110.845	-13.5
4113.27	-9.5
4115.694	-9.5
4118.115	-2.5
4120.535	-76.5
4122.954	-75.5
4125.37	-69.5
4127.785	-72.5
4130.198	-71.5
4132.609	-72.5
4135.019	-76.5
4137.427	-75.5
4139.833	-76.5
4142.237	-75.5
