Data from Water_1000000CFU_RamanShift_11-20-23-868.txt Node
Date: Sun Dec 18 11:20:23 IST 2016
User: aro
Spectrometer: QEPB0276
Trigger mode: 0
Integration Time (sec): 5.000000E0
Scans to average: 1
Electric dark correction enabled: true
Nonlinearity correction enabled: false
Boxcar width: 0
XAxis mode: Raman Shifts
Number of Pixels in Spectrum: 1044
>>>>>Begin Spectral Data<<<<<
160.701	4.38
166.742	20.38
172.777	59.38
178.805	198.38
184.826	592.38
190.841	1397.38
196.849	2540.38
202.85	3592.38
208.845	4128.38
214.833	4123.38
220.815	3942.38
226.789	3818.38
232.758	3690.38
238.719	3555.38
244.674	3432.38
250.623	3261.38
256.565	3128.38
262.5	2954.38
268.429	2807.38
274.351	2669.38
280.267	2548.38
286.176	2430.38
292.079	2356.38
297.975	2250.38
303.865	2154.38
309.748	2107.38
315.625	2037.38
321.495	1992.38
327.359	1952.38
333.217	1916.38
339.068	1905.38
344.912	1885.38
350.751	1880.38
356.583	1873.38
362.408	1884.38
368.227	1863.38
374.04	1864.38
379.847	1864.38
385.647	1899.38
391.44	1887.38
397.228	1909.38
403.009	1913.38
408.784	1940.38
414.553	1933.38
420.315	1931.38
426.071	1943.38
431.821	1943.38
437.565	1939.38
443.302	1943.38
449.033	1934.38
454.758	1931.38
460.477	1900.38
466.189	1903.38
471.896	1894.38
477.596	1866.38
483.29	1864.38
488.978	1851.38
494.66	1851.38
500.335	1813.38
506.005	1791.38
511.668	1773.38
517.325	1719.38
522.977	1699.38
528.622	1674.38
534.261	1637.38
539.894	1608.38
545.521	1599.38
551.141	1580.38
556.756	1553.38
562.365	1573.38
567.968	1547.38
573.565	1535.38
579.155	1519.38
584.74	1507.38
590.319	1493.38
595.892	1472.38
601.459	1468.38
607.02	1447.38
612.575	1427.38
618.124	1426.38
623.667	1397.38
629.204	1392.38
634.735	1391.38
640.261	1360.38
645.781	1353.38
651.294	1334.38
656.802	1348.38
662.304	1324.38
667.8	1310.38
673.29	1313.38
678.775	1294.38
684.254	1309.38
689.726	1290.38
695.193	1272.38
700.655	1278.38
706.11	1272.38
711.56	1253.38
717.004	1237.38
722.442	1244.38
727.874	1217.38
733.301	1221.38
738.722	1202.38
744.137	1193.38
749.547	1188.38
754.951	1188.38
760.349	1182.38
765.741	1173.38
771.128	1169.38
776.509	1163.38
781.885	1163.38
787.254	1152.38
792.618	1169.38
797.977	1136.38
803.33	1138.38
808.677	1121.38
814.019	1110.38
819.355	1093.38
824.686	1093.38
830.011	1053.38
835.33	1049.38
840.644	1056.38
845.952	1035.38
851.255	1039.38
856.552	1017.38
861.844	1008.38
867.13	1009.38
872.41	981.38
877.686	992.38
882.955	970.38
888.219	950.38
893.478	939.38
898.731	918.38
903.979	897.38
909.221	894.38
914.458	896.38
919.69	870.38
924.916	853.38
930.136	856.38
935.351	849.38
940.561	841.38
945.766	841.38
950.965	826.38
956.158	835.38
961.347	818.38
966.529	803.38
971.707	788.38
976.879	775.38
982.046	765.38
987.208	754.38
992.364	763.38
997.515	750.38
1002.66	746.38
1007.801	764.38
1012.936	755.38
1018.066	768.38
1023.19	772.38
1028.309	782.38
1033.423	771.38
1038.532	774.38
1043.636	760.38
1048.734	753.38
1053.827	731.38
1058.915	735.38
1063.998	735.38
1069.075	730.38
1074.147	718.38
1079.214	734.38
1084.276	737.38
1089.333	730.38
1094.385	733.38
1099.431	745.38
1104.472	751.38
1109.509	739.38
1114.54	729.38
1119.565	727.38
1124.586	713.38
1129.602	707.38
1134.613	699.38
1139.618	695.38
1144.619	691.38
1149.614	695.38
1154.604	693.38
1159.589	700.38
1164.57	711.38
1169.545	700.38
1174.515	689.38
1179.48	700.38
1184.44	705.38
1189.395	685.38
1194.345	671.38
1199.29	675.38
1204.23	666.38
1209.165	685.38
1214.095	681.38
1219.021	691.38
1223.941	696.38
1228.856	703.38
1233.766	701.38
1238.672	708.38
1243.572	707.38
1248.467	709.38
1253.358	697.38
1258.244	697.38
1263.124	678.38
1268	670.38
1272.871	650.38
1277.737	647.38
1282.599	638.38
1287.455	645.38
1292.306	646.38
1297.153	640.38
1301.995	658.38
1306.832	643.38
1311.664	643.38
1316.491	648.38
1321.314	656.38
1326.132	647.38
1330.945	645.38
1335.753	629.38
1340.556	615.38
1345.354	598.38
1350.148	579.38
1354.937	578.38
1359.722	579.38
1364.501	582.38
1369.276	589.38
1374.046	595.38
1378.811	610.38
1383.572	619.38
1388.327	600.38
1393.079	610.38
1397.825	599.38
1402.567	600.38
1407.304	580.38
1412.036	571.38
1416.764	566.38
1421.487	568.38
1426.205	564.38
1430.919	557.38
1435.628	565.38
1440.333	569.38
1445.032	574.38
1449.727	578.38
1454.418	574.38
1459.104	581.38
1463.785	579.38
1468.462	571.38
1473.134	566.38
1477.802	554.38
1482.465	555.38
1487.123	547.38
1491.777	561.38
1496.426	559.38
1501.071	575.38
1505.711	578.38
1510.347	596.38
1514.978	610.38
1519.604	609.38
1524.226	620.38
1528.844	630.38
1533.457	634.38
1538.065	639.38
1542.669	642.38
1547.269	627.38
1551.864	632.38
1556.454	628.38
1561.041	635.38
1565.622	648.38
1570.199	660.38
1574.772	677.38
1579.34	683.38
1583.904	695.38
1588.464	715.38
1593.019	737.38
1597.569	755.38
1602.115	761.38
1606.657	783.38
1611.195	789.38
1615.728	795.38
1620.256	807.38
1624.78	830.38
1629.3	853.38
1633.816	857.38
1638.327	866.38
1642.834	886.38
1647.336	893.38
1651.834	903.38
1656.328	907.38
1660.817	907.38
1665.302	893.38
1669.783	869.38
1674.259	835.38
1678.732	820.38
1683.199	784.38
1687.663	733.38
1692.122	714.38
1696.577	678.38
1701.028	652.38
1705.474	620.38
1709.917	601.38
1714.355	588.38
1718.788	582.38
1723.218	553.38
1727.643	520.38
1732.064	514.38
1736.481	491.38
1740.893	467.38
1745.301	445.38
1749.705	427.38
1754.105	414.38
1758.501	396.38
1762.893	377.38
1767.28	365.38
1771.663	359.38
1776.042	349.38
1780.417	341.38
1784.787	342.38
1789.154	341.38
1793.516	339.38
1797.874	343.38
1802.228	354.38
1806.578	353.38
1810.924	349.38
1815.266	340.38
1819.603	348.38
1823.937	326.38
1828.266	328.38
1832.591	317.38
1836.913	307.38
1841.23	314.38
1845.543	305.38
1849.852	299.38
1854.156	300.38
1858.457	294.38
1862.754	297.38
1867.047	307.38
1871.335	295.38
1875.62	297.38
1879.9	301.38
1884.177	304.38
1888.449	302.38
1892.718	297.38
1896.982	296.38
1901.243	302.38
1905.499	295.38
1909.752	307.38
1914	289.38
1918.245	298.38
1922.485	301.38
1926.722	310.38
1930.954	303.38
1935.183	320.38
1939.408	318.38
1943.628	324.38
1947.845	322.38
1952.058	324.38
1956.267	321.38
1960.472	319.38
1964.673	312.38
1968.87	309.38
1973.063	306.38
1977.252	304.38
1981.438	307.38
1985.619	302.38
1989.797	306.38
1993.971	303.38
1998.14	300.38
2002.306	306.38
2006.469	296.38
2010.627	307.38
2014.781	305.38
2018.932	314.38
2023.078	308.38
2027.221	300.38
2031.36	311.38
2035.495	303.38
2039.627	304.38
2043.754	304.38
2047.878	299.38
2051.998	302.38
2056.114	310.38
2060.226	301.38
2064.334	310.38
2068.439	313.38
2072.54	317.38
2076.637	320.38
2080.73	318.38
2084.82	321.38
2088.906	326.38
2092.988	325.38
2097.066	320.38
2101.14	320.38
2105.211	331.38
2109.278	316.38
2113.342	320.38
2117.401	318.38
2121.457	329.38
2125.509	325.38
2129.558	317.38
2133.602	305.38
2137.643	317.38
2141.681	309.38
2145.714	313.38
2149.744	304.38
2153.77	303.38
2157.793	298.38
2161.812	285.38
2165.827	287.38
2169.838	281.38
2173.846	281.38
2177.851	271.38
2181.851	273.38
2185.848	271.38
2189.841	261.38
2193.831	254.38
2197.817	259.38
2201.799	254.38
2205.778	253.38
2209.753	248.38
2213.725	246.38
2217.693	241.38
2221.657	239.38
2225.618	234.38
2229.575	238.38
2233.529	236.38
2237.479	241.38
2241.425	223.38
2245.368	233.38
2249.307	227.38
2253.243	223.38
2257.175	215.38
2261.104	215.38
2265.029	209.38
2268.95	203.38
2272.868	203.38
2276.783	197.38
2280.694	186.38
2284.601	187.38
2288.505	183.38
2292.405	182.38
2296.302	180.38
2300.195	173.38
2304.085	183.38
2307.971	175.38
2311.854	161.38
2315.734	164.38
2319.609	158.38
2323.482	157.38
2327.351	158.38
2331.216	157.38
2335.078	154.38
2338.937	159.38
2342.792	148.38
2346.643	144.38
2350.492	146.38
2354.336	145.38
2358.178	139.38
2362.015	137.38
2365.85	136.38
2369.681	137.38
2373.508	139.38
2377.333	139.38
2381.153	140.38
2384.971	134.38
2388.785	133.38
2392.595	131.38
2396.402	134.38
2400.206	132.38
2404.007	135.38
2407.804	134.38
2411.597	128.38
2415.388	124.38
2419.174	122.38
2422.958	121.38
2426.738	117.38
2430.515	124.38
2434.289	115.38
2438.059	123.38
2441.825	117.38
2445.589	115.38
2449.349	123.38
2453.106	121.38
2456.859	112.38
2460.61	115.38
2464.356	105.38
2468.1	114.38
2471.84	106.38
2475.577	108.38
2479.311	105.38
2483.041	100.38
2486.768	103.38
2490.492	101.38
2494.213	100.38
2497.93	108.38
2501.644	100.38
2505.355	103.38
2509.062	106.38
2512.766	105.38
2516.467	102.38
2520.165	100.38
2523.859	102.38
2527.551	102.38
2531.239	94.38
2534.923	97.38
2538.605	99.38
2542.283	102.38
2545.958	97.38
2549.63	100.38
2553.299	95.38
2556.964	92.38
2560.626	95.38
2564.285	91.38
2567.941	90.38
2571.594	96.38
2575.243	83.38
2578.89	86.38
2582.533	84.38
2586.173	87.38
2589.809	86.38
2593.443	89.38
2597.073	85.38
2600.701	87.38
2604.325	87.38
2607.946	86.38
2611.564	89.38
2615.178	87.38
2618.79	83.38
2622.398	82.38
2626.004	79.38
2629.606	79.38
2633.205	84.38
2636.801	75.38
2640.394	76.38
2643.983	73.38
2647.57	74.38
2651.153	73.38
2654.734	70.38
2658.311	73.38
2661.885	74.38
2665.456	66.38
2669.025	69.38
2672.589	69.38
2676.151	72.38
2679.71	70.38
2683.266	66.38
2686.819	65.38
2690.368	59.38
2693.915	69.38
2697.458	63.38
2700.999	60.38
2704.536	60.38
2708.071	64.38
2711.602	64.38
2715.13	55.38
2718.656	57.38
2722.178	54.38
2725.697	59.38
2729.214	59.38
2732.727	62.38
2736.237	63.38
2739.744	67.38
2743.249	67.38
2746.75	65.38
2750.248	66.38
2753.743	64.38
2757.236	67.38
2760.725	68.38
2764.211	73.38
2767.695	77.38
2771.175	71.38
2774.652	68.38
2778.127	72.38
2781.598	75.38
2785.067	70.38
2788.532	79.38
2791.995	70.38
2795.455	78.38
2798.911	76.38
2802.365	75.38
2805.816	79.38
2809.264	83.38
2812.709	86.38
2816.151	79.38
2819.59	79.38
2823.026	82.38
2826.46	88.38
2829.89	90.38
2833.318	86.38
2836.742	86.38
2840.164	93.38
2843.583	85.38
2846.999	98.38
2850.412	88.38
2853.822	105.38
2857.229	105.38
2860.634	108.38
2864.035	113.38
2867.434	112.38
2870.83	119.38
2874.223	118.38
2877.613	117.38
2881	127.38
2884.385	128.38
2887.766	122.38
2891.145	126.38
2894.521	129.38
2897.894	134.38
2901.264	134.38
2904.631	139.38
2907.996	144.38
2911.358	147.38
2914.717	140.38
2918.073	152.38
2921.426	152.38
2924.777	162.38
2928.124	164.38
2931.469	169.38
2934.811	168.38
2938.15	172.38
2941.487	186.38
2944.821	194.38
2948.152	197.38
2951.48	198.38
2954.805	208.38
2958.128	207.38
2961.447	210.38
2964.765	216.38
2968.079	216.38
2971.39	231.38
2974.699	229.38
2978.005	238.38
2981.308	254.38
2984.609	259.38
2987.907	274.38
2991.202	271.38
2994.494	293.38
2997.784	309.38
3001.07	317.38
3004.355	333.38
3007.636	334.38
3010.915	353.38
3014.191	358.38
3017.464	377.38
3020.734	367.38
3024.002	378.38
3027.267	385.38
3030.53	398.38
3033.789	406.38
3037.046	414.38
3040.301	421.38
3043.552	432.38
3046.801	458.38
3050.048	472.38
3053.291	482.38
3056.532	497.38
3059.771	519.38
3063.006	527.38
3066.239	550.38
3069.469	576.38
3072.697	578.38
3075.922	597.38
3079.144	627.38
3082.364	627.38
3085.581	655.38
3088.795	675.38
3092.007	676.38
3095.216	699.38
3098.423	731.38
3101.627	740.38
3104.828	755.38
3108.026	774.38
3111.222	800.38
3114.416	814.38
3117.607	835.38
3120.795	869.38
3123.98	882.38
3127.163	899.38
3130.344	912.38
3133.521	953.38
3136.696	956.38
3139.869	991.38
3143.039	1009.38
3146.206	1021.38
3149.371	1036.38
3152.533	1065.38
3155.693	1054.38
3158.85	1061.38
3162.005	1074.38
3165.157	1080.38
3168.306	1090.38
3171.453	1083.38
3174.597	1103.38
3177.739	1098.38
3180.878	1108.38
3184.014	1099.38
3187.149	1106.38
3190.28	1119.38
3193.409	1122.38
3196.536	1131.38
3199.659	1133.38
3202.781	1132.38
3205.9	1130.38
3209.016	1128.38
3212.13	1121.38
3215.241	1125.38
3218.35	1128.38
3221.456	1121.38
3224.56	1103.38
3227.661	1101.38
3230.76	1091.38
3233.856	1080.38
3236.95	1060.38
3240.041	1059.38
3243.13	1062.38
3246.216	1033.38
3249.3	1035.38
3252.382	1038.38
3255.46	1029.38
3258.537	1017.38
3261.611	1013.38
3264.682	1016.38
3267.751	1012.38
3270.818	1003.38
3273.882	1015.38
3276.943	1001.38
3280.002	997.38
3283.059	987.38
3286.113	983.38
3289.165	946.38
3292.214	956.38
3295.261	936.38
3298.306	917.38
3301.348	912.38
3304.387	916.38
3307.425	884.38
3310.459	866.38
3313.492	856.38
3316.521	850.38
3319.549	839.38
3322.574	829.38
3325.597	822.38
3328.617	822.38
3331.635	818.38
3334.65	798.38
3337.663	788.38
3340.674	800.38
3343.682	804.38
3346.688	799.38
3349.691	796.38
3352.692	789.38
3355.691	787.38
3358.687	784.38
3361.681	764.38
3364.673	752.38
3367.662	746.38
3370.649	747.38
3373.633	737.38
3376.615	725.38
3379.595	723.38
3382.572	712.38
3385.547	709.38
3388.52	693.38
3391.49	675.38
3394.458	676.38
3397.424	663.38
3400.387	660.38
3403.348	649.38
3406.307	636.38
3409.263	640.38
3412.217	623.38
3415.168	617.38
3418.118	610.38
3421.065	602.38
3424.009	608.38
3426.951	584.38
3429.891	586.38
3432.829	585.38
3435.764	575.38
3438.697	561.38
3441.628	546.38
3444.557	529.38
3447.483	517.38
3450.407	504.38
3453.328	490.38
3456.247	480.38
3459.164	466.38
3462.079	446.38
3464.991	425.38
3467.902	430.38
3470.809	415.38
3473.715	399.38
3476.618	383.38
3479.519	373.38
3482.418	367.38
3485.315	358.38
3488.209	358.38
3491.101	343.38
3493.99	326.38
3496.878	316.38
3499.763	307.38
3502.646	311.38
3505.527	297.38
3508.405	284.38
3511.281	283.38
3514.155	259.38
3517.027	255.38
3519.897	240.38
3522.764	235.38
3525.629	223.38
3528.492	210.38
3531.352	203.38
3534.211	192.38
3537.067	184.38
3539.921	172.38
3542.773	160.38
3545.622	156.38
3548.469	155.38
3551.315	134.38
3554.157	134.38
3556.998	131.38
3559.837	121.38
3562.673	122.38
3565.507	105.38
3568.339	96.38
3571.169	93.38
3573.996	85.38
3576.822	92.38
3579.645	82.38
3582.466	74.38
3585.285	70.38
3588.101	64.38
3590.916	64.38
3593.728	57.38
3596.538	53.38
3599.346	49.38
3602.152	39.38
3604.956	40.38
3607.757	33.38
3610.556	32.38
3613.354	26.38
3616.149	22.38
3618.942	22.38
3621.732	16.38
3624.521	16.38
3627.307	14.38
3630.092	16.38
3632.874	13.38
3635.654	9.38
3638.432	4.38
3641.208	1.38
3643.982	-1.62
3646.753	-3.62
3649.523	-6.62
3652.29	-13.62
3655.055	-14.62
3657.818	-17.62
3660.579	-21.62
3663.338	-19.62
3666.095	-20.62
3668.849	-25.62
3671.602	-25.62
3674.352	-22.62
3677.101	-22.62
3679.847	-32.62
3682.591	-29.62
3685.333	-36.62
3688.073	-31.62
3690.811	-39.62
3693.547	-37.62
3696.281	-41.62
3699.013	-39.62
3701.742	-43.62
3704.47	-45.62
3707.195	-44.62
3709.919	-45.62
3712.64	-43.62
3715.359	-47.62
3718.076	-41.62
3720.792	-49.62
3723.505	-48.62
3726.216	-52.62
3728.925	-49.62
3731.632	-50.62
3734.336	-51.62
3737.039	-54.62
3739.74	-53.62
3742.439	-56.62
3745.136	-54.62
3747.83	-51.62
3750.523	-53.62
3753.213	-54.62
3755.902	-55.62
3758.589	-57.62
3761.273	-56.62
3763.956	-58.62
3766.636	-57.62
3769.315	-59.62
3771.991	-60.62
3774.665	-62.62
3777.338	-58.62
3780.008	-56.62
3782.677	-57.62
3785.343	-57.62
3788.007	-59.62
3790.67	-61.62
3793.33	-62.62
3795.989	-58.62
3798.645	-60.62
3801.299	-64.62
3803.952	-67.62
3806.602	-66.62
3809.251	-64.62
3811.897	-67.62
3814.542	-66.62
3817.184	-62.62
3819.825	-60.62
3822.463	-62.62
3825.1	-64.62
3827.735	-60.62
3830.367	-61.62
3832.998	-65.62
3835.627	-61.62
3838.253	-67.62
3840.878	-64.62
3843.501	-65.62
3846.122	-64.62
3848.741	-63.62
3851.358	-63.62
3853.973	-67.62
3856.586	-65.62
3859.197	-66.62
3861.806	-64.62
3864.414	-70.62
3867.019	-68.62
3869.622	-65.62
3872.224	-66.62
3874.823	-64.62
3877.421	-67.62
3880.016	-61.62
3882.61	-63.62
3885.202	-57.62
3887.792	-54.62
3890.38	-57.62
3892.966	-63.62
3895.55	-62.62
3898.132	-64.62
3900.713	-65.62
3903.291	-63.62
3905.868	-66.62
3908.442	-64.62
3911.015	-67.62
3913.586	-69.62
3916.155	-73.62
3918.722	-69.62
3921.287	-73.62
3923.85	-70.62
3926.411	-67.62
3928.971	-67.62
3931.528	-71.62
3934.084	-66.62
3936.638	-67.62
3939.19	-67.62
3941.74	-66.62
3944.288	-70.62
3946.834	-67.62
3949.378	-68.62
3951.921	-64.62
3954.462	-69.62
3957	-71.62
3959.537	-66.62
3962.072	-66.62
3964.606	-67.62
3967.137	-65.62
3969.667	-69.62
3972.194	-70.62
3974.72	-70.62
3977.244	-67.62
3979.766	-66.62
3982.286	-68.62
3984.805	-66.62
3987.321	-66.62
3989.836	-65.62
3992.349	-69.62
3994.86	-68.62
3997.369	-70.62
3999.877	-66.62
4002.382	-68.62
4004.886	-63.62
4007.388	-62.62
4009.888	-67.62
4012.386	-65.62
4014.883	-64.62
4017.377	-70.62
4019.87	-65.62
4022.361	-67.62
4024.85	-67.62
4027.338	-66.62
4029.823	-67.62
4032.307	-67.62
4034.789	-64.62
4037.269	-66.62
4039.747	-68.62
4042.224	-69.62
4044.699	-70.62
4047.172	-64.62
4049.643	-71.62
4052.112	-68.62
4054.58	-72.62
4057.046	-71.62
4059.51	-72.62
4061.972	-68.62
4064.432	-69.62
4066.891	-67.62
4069.348	-66.62
4071.803	-63.62
4074.256	-63.62
4076.708	-65.62
4079.158	-66.62
4081.606	-67.62
4084.052	-66.62
4086.497	-68.62
4088.939	-69.62
4091.38	-69.62
4093.819	-68.62
4096.257	-72.62
4098.693	-71.62
4101.127	-71.62
4103.559	-72.62
4105.989	-20.62
4108.418	-16.62
4110.845	-11.62
4113.27	-11.62
4115.694	-8.62
4118.115	-6.62
4120.535	-71.62
4122.954	-70.62
4125.37	-69.62
4127.785	-71.62
4130.198	-68.62
4132.609	-69.62
4135.019	-72.62
4137.427	-71.62
4139.833	-68.62
4142.237	-69.62
