Data from Water3_1000000CFU_RamanShift_11-11-18-915_RamanShift_14-25-40-750.txt Node
Date: Sun Dec 18 14:25:40 IST 2016
User: aro
Spectrometer: QEPB0276
Trigger mode: 0
Integration Time (sec): 5.000000E0
Scans to average: 1
Electric dark correction enabled: true
Nonlinearity correction enabled: false
Boxcar width: 0
XAxis mode: Raman Shifts
Number of Pixels in Spectrum: 1044
>>>>>Begin Spectral Data<<<<<
160.701	4.38
166.742	20.38
172.777	67.38
178.805	211.38
184.826	631.38
190.841	1533.38
196.849	2786.38
202.85	4054.38
208.845	4669.38
214.833	4650.38
220.815	4492.38
226.789	4315.38
232.758	4201.38
238.719	4086.38
244.674	3963.38
250.623	3797.38
256.565	3638.38
262.5	3480.38
268.429	3276.38
274.351	3148.38
280.267	3017.38
286.176	2919.38
292.079	2805.38
297.975	2712.38
303.865	2611.38
309.748	2544.38
315.625	2465.38
321.495	2420.38
327.359	2384.38
333.217	2331.38
339.068	2312.38
344.912	2295.38
350.751	2282.38
356.583	2269.38
362.408	2259.38
368.227	2273.38
374.04	2251.38
379.847	2274.38
385.647	2286.38
391.44	2292.38
397.228	2297.38
403.009	2304.38
408.784	2318.38
414.553	2314.38
420.315	2343.38
426.071	2328.38
431.821	2317.38
437.565	2325.38
443.302	2328.38
449.033	2319.38
454.758	2294.38
460.477	2322.38
466.189	2307.38
471.896	2307.38
477.596	2266.38
483.29	2269.38
488.978	2243.38
494.66	2233.38
500.335	2221.38
506.005	2219.38
511.668	2156.38
517.325	2117.38
522.977	2083.38
528.622	2056.38
534.261	2034.38
539.894	2008.38
545.521	1978.38
551.141	1973.38
556.756	1949.38
562.365	1947.38
567.968	1940.38
573.565	1915.38
579.155	1909.38
584.74	1908.38
590.319	1888.38
595.892	1877.38
601.459	1857.38
607.02	1840.38
612.575	1841.38
618.124	1832.38
623.667	1803.38
629.204	1780.38
634.735	1776.38
640.261	1745.38
645.781	1736.38
651.294	1737.38
656.802	1714.38
662.304	1704.38
667.8	1696.38
673.29	1690.38
678.775	1690.38
684.254	1692.38
689.726	1674.38
695.193	1668.38
700.655	1642.38
706.11	1667.38
711.56	1632.38
717.004	1628.38
722.442	1622.38
727.874	1605.38
733.301	1597.38
738.722	1582.38
744.137	1576.38
749.547	1569.38
754.951	1562.38
760.349	1576.38
765.741	1562.38
771.128	1564.38
776.509	1547.38
781.885	1572.38
787.254	1574.38
792.618	1559.38
797.977	1546.38
803.33	1543.38
808.677	1511.38
814.019	1509.38
819.355	1481.38
824.686	1456.38
830.011	1471.38
835.33	1452.38
840.644	1437.38
845.952	1426.38
851.255	1427.38
856.552	1412.38
861.844	1421.38
867.13	1411.38
872.41	1405.38
877.686	1398.38
882.955	1386.38
888.219	1356.38
893.478	1362.38
898.731	1317.38
903.979	1298.38
909.221	1280.38
914.458	1272.38
919.69	1266.38
924.916	1264.38
930.136	1252.38
935.351	1258.38
940.561	1252.38
945.766	1236.38
950.965	1233.38
956.158	1261.38
961.347	1230.38
966.529	1197.38
971.707	1196.38
976.879	1182.38
982.046	1150.38
987.208	1142.38
992.364	1148.38
997.515	1153.38
1002.66	1164.38
1007.801	1150.38
1012.936	1166.38
1018.066	1168.38
1023.19	1183.38
1028.309	1190.38
1033.423	1198.38
1038.532	1180.38
1043.636	1193.38
1048.734	1170.38
1053.827	1155.38
1058.915	1143.38
1063.998	1144.38
1069.075	1145.38
1074.147	1135.38
1079.214	1135.38
1084.276	1152.38
1089.333	1153.38
1094.385	1160.38
1099.431	1154.38
1104.472	1166.38
1109.509	1170.38
1114.54	1156.38
1119.565	1161.38
1124.586	1132.38
1129.602	1124.38
1134.613	1124.38
1139.618	1120.38
1144.619	1111.38
1149.614	1091.38
1154.604	1114.38
1159.589	1121.38
1164.57	1112.38
1169.545	1121.38
1174.515	1131.38
1179.48	1141.38
1184.44	1122.38
1189.395	1112.38
1194.345	1118.38
1199.29	1117.38
1204.23	1093.38
1209.165	1120.38
1214.095	1123.38
1219.021	1111.38
1223.941	1130.38
1228.856	1128.38
1233.766	1134.38
1238.672	1147.38
1243.572	1139.38
1248.467	1139.38
1253.358	1121.38
1258.244	1110.38
1263.124	1098.38
1268	1078.38
1272.871	1072.38
1277.737	1068.38
1282.599	1058.38
1287.455	1063.38
1292.306	1060.38
1297.153	1072.38
1301.995	1066.38
1306.832	1090.38
1311.664	1095.38
1316.491	1102.38
1321.314	1098.38
1326.132	1080.38
1330.945	1072.38
1335.753	1058.38
1340.556	1044.38
1345.354	1033.38
1350.148	1036.38
1354.937	1016.38
1359.722	1001.38
1364.501	991.38
1369.276	991.38
1374.046	980.38
1378.811	972.38
1383.572	1000.38
1388.327	976.38
1393.079	998.38
1397.825	974.38
1402.567	966.38
1407.304	966.38
1412.036	955.38
1416.764	956.38
1421.487	955.38
1426.205	962.38
1430.919	954.38
1435.628	973.38
1440.333	976.38
1445.032	983.38
1449.727	986.38
1454.418	999.38
1459.104	991.38
1463.785	989.38
1468.462	981.38
1473.134	979.38
1477.802	968.38
1482.465	967.38
1487.123	954.38
1491.777	959.38
1496.426	954.38
1501.071	971.38
1505.711	973.38
1510.347	977.38
1514.978	985.38
1519.604	987.38
1524.226	1005.38
1528.844	1006.38
1533.457	1011.38
1538.065	1008.38
1542.669	1019.38
1547.269	1010.38
1551.864	986.38
1556.454	1024.38
1561.041	1017.38
1565.622	1032.38
1570.199	1046.38
1574.772	1054.38
1579.34	1080.38
1583.904	1097.38
1588.464	1125.38
1593.019	1147.38
1597.569	1157.38
1602.115	1159.38
1606.657	1193.38
1611.195	1203.38
1615.728	1204.38
1620.256	1207.38
1624.78	1228.38
1629.3	1251.38
1633.816	1277.38
1638.327	1288.38
1642.834	1303.38
1647.336	1299.38
1651.834	1329.38
1656.328	1322.38
1660.817	1324.38
1665.302	1322.38
1669.783	1275.38
1674.259	1239.38
1678.732	1214.38
1683.199	1173.38
1687.663	1140.38
1692.122	1092.38
1696.577	1053.38
1701.028	1014.38
1705.474	965.38
1709.917	934.38
1714.355	897.38
1718.788	887.38
1723.218	881.38
1727.643	860.38
1732.064	837.38
1736.481	825.38
1740.893	806.38
1745.301	787.38
1749.705	757.38
1754.105	729.38
1758.501	723.38
1762.893	710.38
1767.28	694.38
1771.663	694.38
1776.042	691.38
1780.417	683.38
1784.787	682.38
1789.154	675.38
1793.516	685.38
1797.874	678.38
1802.228	673.38
1806.578	666.38
1810.924	662.38
1815.266	646.38
1819.603	628.38
1823.937	631.38
1828.266	626.38
1832.591	622.38
1836.913	615.38
1841.23	605.38
1845.543	616.38
1849.852	606.38
1854.156	617.38
1858.457	606.38
1862.754	623.38
1867.047	621.38
1871.335	633.38
1875.62	612.38
1879.9	631.38
1884.177	624.38
1888.449	630.38
1892.718	626.38
1896.982	621.38
1901.243	624.38
1905.499	604.38
1909.752	610.38
1914	603.38
1918.245	611.38
1922.485	612.38
1926.722	610.38
1930.954	622.38
1935.183	615.38
1939.408	614.38
1943.628	627.38
1947.845	619.38
1952.058	620.38
1956.267	616.38
1960.472	611.38
1964.673	610.38
1968.87	596.38
1973.063	593.38
1977.252	589.38
1981.438	590.38
1985.619	594.38
1989.797	588.38
1993.971	586.38
1998.14	589.38
2002.306	592.38
2006.469	606.38
2010.627	608.38
2014.781	609.38
2018.932	604.38
2023.078	602.38
2027.221	603.38
2031.36	602.38
2035.495	597.38
2039.627	593.38
2043.754	590.38
2047.878	586.38
2051.998	598.38
2056.114	589.38
2060.226	588.38
2064.334	593.38
2068.439	595.38
2072.54	593.38
2076.637	605.38
2080.73	595.38
2084.82	598.38
2088.906	599.38
2092.988	601.38
2097.066	613.38
2101.14	593.38
2105.211	592.38
2109.278	587.38
2113.342	589.38
2117.401	587.38
2121.457	573.38
2125.509	579.38
2129.558	575.38
2133.602	567.38
2137.643	578.38
2141.681	575.38
2145.714	574.38
2149.744	559.38
2153.77	566.38
2157.793	567.38
2161.812	553.38
2165.827	550.38
2169.838	551.38
2173.846	534.38
2177.851	533.38
2181.851	526.38
2185.848	522.38
2189.841	511.38
2193.831	505.38
2197.817	512.38
2201.799	502.38
2205.778	497.38
2209.753	500.38
2213.725	501.38
2217.693	494.38
2221.657	490.38
2225.618	496.38
2229.575	494.38
2233.529	488.38
2237.479	500.38
2241.425	482.38
2245.368	482.38
2249.307	479.38
2253.243	468.38
2257.175	465.38
2261.104	455.38
2265.029	449.38
2268.95	449.38
2272.868	431.38
2276.783	429.38
2280.694	435.38
2284.601	420.38
2288.505	415.38
2292.405	411.38
2296.302	406.38
2300.195	399.38
2304.085	396.38
2307.971	393.38
2311.854	387.38
2315.734	381.38
2319.609	378.38
2323.482	363.38
2327.351	361.38
2331.216	363.38
2335.078	363.38
2338.937	368.38
2342.792	353.38
2346.643	359.38
2350.492	357.38
2354.336	352.38
2358.178	363.38
2362.015	356.38
2365.85	354.38
2369.681	363.38
2373.508	356.38
2377.333	359.38
2381.153	365.38
2384.971	364.38
2388.785	352.38
2392.595	357.38
2396.402	352.38
2400.206	345.38
2404.007	349.38
2407.804	344.38
2411.597	345.38
2415.388	345.38
2419.174	348.38
2422.958	350.38
2426.738	333.38
2430.515	335.38
2434.289	341.38
2438.059	341.38
2441.825	332.38
2445.589	331.38
2449.349	342.38
2453.106	324.38
2456.859	332.38
2460.61	332.38
2464.356	316.38
2468.1	315.38
2471.84	313.38
2475.577	311.38
2479.311	306.38
2483.041	311.38
2486.768	319.38
2490.492	310.38
2494.213	315.38
2497.93	316.38
2501.644	311.38
2505.355	314.38
2509.062	316.38
2512.766	310.38
2516.467	303.38
2520.165	315.38
2523.859	305.38
2527.551	303.38
2531.239	294.38
2534.923	285.38
2538.605	288.38
2542.283	287.38
2545.958	288.38
2549.63	294.38
2553.299	285.38
2556.964	291.38
2560.626	280.38
2564.285	280.38
2567.941	288.38
2571.594	280.38
2575.243	272.38
2578.89	274.38
2582.533	271.38
2586.173	273.38
2589.809	267.38
2593.443	280.38
2597.073	267.38
2600.701	267.38
2604.325	258.38
2607.946	262.38
2611.564	264.38
2615.178	270.38
2618.79	263.38
2622.398	266.38
2626.004	254.38
2629.606	259.38
2633.205	262.38
2636.801	257.38
2640.394	248.38
2643.983	257.38
2647.57	249.38
2651.153	250.38
2654.734	246.38
2658.311	239.38
2661.885	234.38
2665.456	237.38
2669.025	238.38
2672.589	230.38
2676.151	231.38
2679.71	234.38
2683.266	232.38
2686.819	227.38
2690.368	216.38
2693.915	221.38
2697.458	218.38
2700.999	224.38
2704.536	217.38
2708.071	211.38
2711.602	219.38
2715.13	219.38
2718.656	208.38
2722.178	216.38
2725.697	214.38
2729.214	210.38
2732.727	214.38
2736.237	207.38
2739.744	212.38
2743.249	223.38
2746.75	207.38
2750.248	208.38
2753.743	209.38
2757.236	218.38
2760.725	209.38
2764.211	213.38
2767.695	204.38
2771.175	200.38
2774.652	204.38
2778.127	198.38
2781.598	203.38
2785.067	206.38
2788.532	202.38
2791.995	209.38
2795.455	207.38
2798.911	215.38
2802.365	204.38
2805.816	213.38
2809.264	207.38
2812.709	211.38
2816.151	216.38
2819.59	210.38
2823.026	214.38
2826.46	210.38
2829.89	208.38
2833.318	216.38
2836.742	208.38
2840.164	211.38
2843.583	221.38
2846.999	213.38
2850.412	214.38
2853.822	223.38
2857.229	224.38
2860.634	223.38
2864.035	228.38
2867.434	233.38
2870.83	245.38
2874.223	244.38
2877.613	246.38
2881	253.38
2884.385	253.38
2887.766	255.38
2891.145	255.38
2894.521	250.38
2897.894	258.38
2901.264	258.38
2904.631	249.38
2907.996	248.38
2911.358	256.38
2914.717	258.38
2918.073	256.38
2921.426	266.38
2924.777	270.38
2928.124	279.38
2931.469	279.38
2934.811	279.38
2938.15	294.38
2941.487	301.38
2944.821	302.38
2948.152	301.38
2951.48	318.38
2954.805	310.38
2958.128	317.38
2961.447	327.38
2964.765	322.38
2968.079	324.38
2971.39	341.38
2974.699	336.38
2978.005	344.38
2981.308	347.38
2984.609	361.38
2987.907	363.38
2991.202	385.38
2994.494	387.38
2997.784	391.38
3001.07	401.38
3004.355	419.38
3007.636	423.38
3010.915	435.38
3014.191	449.38
3017.464	455.38
3020.734	464.38
3024.002	465.38
3027.267	488.38
3030.53	494.38
3033.789	499.38
3037.046	506.38
3040.301	515.38
3043.552	541.38
3046.801	536.38
3050.048	555.38
3053.291	572.38
3056.532	579.38
3059.771	606.38
3063.006	618.38
3066.239	630.38
3069.469	657.38
3072.697	672.38
3075.922	688.38
3079.144	712.38
3082.364	729.38
3085.581	754.38
3088.795	756.38
3092.007	777.38
3095.216	793.38
3098.423	817.38
3101.627	825.38
3104.828	837.38
3108.026	860.38
3111.222	885.38
3114.416	911.38
3117.607	923.38
3120.795	940.38
3123.98	959.38
3127.163	990.38
3130.344	1009.38
3133.521	1029.38
3136.696	1034.38
3139.869	1069.38
3143.039	1087.38
3146.206	1100.38
3149.371	1112.38
3152.533	1130.38
3155.693	1149.38
3158.85	1153.38
3162.005	1163.38
3165.157	1169.38
3168.306	1160.38
3171.453	1171.38
3174.597	1179.38
3177.739	1191.38
3180.878	1188.38
3184.014	1188.38
3187.149	1209.38
3190.28	1212.38
3193.409	1198.38
3196.536	1212.38
3199.659	1207.38
3202.781	1226.38
3205.9	1215.38
3209.016	1231.38
3212.13	1221.38
3215.241	1216.38
3218.35	1206.38
3221.456	1198.38
3224.56	1190.38
3227.661	1179.38
3230.76	1166.38
3233.856	1143.38
3236.95	1160.38
3240.041	1130.38
3243.13	1119.38
3246.216	1124.38
3249.3	1116.38
3252.382	1102.38
3255.46	1096.38
3258.537	1094.38
3261.611	1100.38
3264.682	1090.38
3267.751	1087.38
3270.818	1073.38
3273.882	1059.38
3276.943	1062.38
3280.002	1058.38
3283.059	1044.38
3286.113	1043.38
3289.165	1029.38
3292.214	1009.38
3295.261	1015.38
3298.306	990.38
3301.348	968.38
3304.387	962.38
3307.425	948.38
3310.459	933.38
3313.492	925.38
3316.521	910.38
3319.549	905.38
3322.574	896.38
3325.597	902.38
3328.617	880.38
3331.635	878.38
3334.65	871.38
3337.663	878.38
3340.674	865.38
3343.682	856.38
3346.688	866.38
3349.691	860.38
3352.692	861.38
3355.691	845.38
3358.687	841.38
3361.681	824.38
3364.673	817.38
3367.662	822.38
3370.649	807.38
3373.633	802.38
3376.615	792.38
3379.595	779.38
3382.572	766.38
3385.547	757.38
3388.52	752.38
3391.49	730.38
3394.458	731.38
3397.424	728.38
3400.387	706.38
3403.348	697.38
3406.307	692.38
3409.263	695.38
3412.217	672.38
3415.168	673.38
3418.118	674.38
3421.065	662.38
3424.009	645.38
3426.951	645.38
3429.891	641.38
3432.829	627.38
3435.764	608.38
3438.697	604.38
3441.628	587.38
3444.557	574.38
3447.483	570.38
3450.407	546.38
3453.328	533.38
3456.247	520.38
3459.164	506.38
3462.079	486.38
3464.991	470.38
3467.902	461.38
3470.809	451.38
3473.715	435.38
3476.618	417.38
3479.519	417.38
3482.418	399.38
3485.315	392.38
3488.209	378.38
3491.101	372.38
3493.99	366.38
3496.878	361.38
3499.763	342.38
3502.646	328.38
3505.527	315.38
3508.405	309.38
3511.281	297.38
3514.155	281.38
3517.027	281.38
3519.897	268.38
3522.764	245.38
3525.629	242.38
3528.492	232.38
3531.352	217.38
3534.211	206.38
3537.067	202.38
3539.921	185.38
3542.773	180.38
3545.622	181.38
3548.469	164.38
3551.315	156.38
3554.157	148.38
3556.998	140.38
3559.837	139.38
3562.673	129.38
3565.507	124.38
3568.339	114.38
3571.169	107.38
3573.996	102.38
3576.822	96.38
3579.645	90.38
3582.466	88.38
3585.285	78.38
3588.101	77.38
3590.916	70.38
3593.728	67.38
3596.538	60.38
3599.346	57.38
3602.152	55.38
3604.956	53.38
3607.757	45.38
3610.556	42.38
3613.354	39.38
3616.149	31.38
3618.942	24.38
3621.732	22.38
3624.521	22.38
3627.307	19.38
3630.092	15.38
3632.874	6.38
3635.654	8.38
3638.432	8.38
3641.208	3.38
3643.982	4.38
3646.753	-1.62
3649.523	-5.62
3652.29	-7.62
3655.055	-7.62
3657.818	-7.62
3660.579	-15.62
3663.338	-17.62
3666.095	-22.62
3668.849	-17.62
3671.602	-28.62
3674.352	-25.62
3677.101	-22.62
3679.847	-27.62
3682.591	-30.62
3685.333	-33.62
3688.073	-33.62
3690.811	-37.62
3693.547	-35.62
3696.281	-37.62
3699.013	-41.62
3701.742	-42.62
3704.47	-41.62
3707.195	-46.62
3709.919	-46.62
3712.64	-43.62
3715.359	-46.62
3718.076	-52.62
3720.792	-48.62
3723.505	-48.62
3726.216	-49.62
3728.925	-44.62
3731.632	-49.62
3734.336	-50.62
3737.039	-50.62
3739.74	-55.62
3742.439	-54.62
3745.136	-59.62
3747.83	-52.62
3750.523	-53.62
3753.213	-53.62
3755.902	-57.62
3758.589	-57.62
3761.273	-55.62
3763.956	-56.62
3766.636	-55.62
3769.315	-59.62
3771.991	-55.62
3774.665	-57.62
3777.338	-61.62
3780.008	-58.62
3782.677	-59.62
3785.343	-65.62
3788.007	-61.62
3790.67	-64.62
3793.33	-62.62
3795.989	-62.62
3798.645	-65.62
3801.299	-63.62
3803.952	-64.62
3806.602	-68.62
3809.251	-68.62
3811.897	-65.62
3814.542	-66.62
3817.184	-65.62
3819.825	-64.62
3822.463	-64.62
3825.1	-66.62
3827.735	-69.62
3830.367	-66.62
3832.998	-65.62
3835.627	-66.62
3838.253	-70.62
3840.878	-64.62
3843.501	-65.62
3846.122	-65.62
3848.741	-69.62
3851.358	-70.62
3853.973	-68.62
3856.586	-71.62
3859.197	-69.62
3861.806	-71.62
3864.414	-71.62
3867.019	-71.62
3869.622	-72.62
3872.224	-67.62
3874.823	-69.62
3877.421	-68.62
3880.016	-66.62
3882.61	-63.62
3885.202	-63.62
3887.792	-69.62
3890.38	-66.62
3892.966	-66.62
3895.55	-71.62
3898.132	-71.62
3900.713	-70.62
3903.291	-68.62
3905.868	-74.62
3908.442	-72.62
3911.015	-72.62
3913.586	-72.62
3916.155	-70.62
3918.722	-72.62
3921.287	-69.62
3923.85	-69.62
3926.411	-78.62
3928.971	-74.62
3931.528	-72.62
3934.084	-76.62
3936.638	-70.62
3939.19	-73.62
3941.74	-70.62
3944.288	-74.62
3946.834	-74.62
3949.378	-73.62
3951.921	-72.62
3954.462	-76.62
3957	-70.62
3959.537	-73.62
3962.072	-71.62
3964.606	-70.62
3967.137	-71.62
3969.667	-71.62
3972.194	-76.62
3974.72	-75.62
3977.244	-70.62
3979.766	-75.62
3982.286	-71.62
3984.805	-73.62
3987.321	-73.62
3989.836	-72.62
3992.349	-72.62
3994.86	-70.62
3997.369	-73.62
3999.877	-69.62
4002.382	-69.62
4004.886	-72.62
4007.388	-70.62
4009.888	-69.62
4012.386	-67.62
4014.883	-72.62
4017.377	-72.62
4019.87	-69.62
4022.361	-73.62
4024.85	-73.62
4027.338	-71.62
4029.823	-73.62
4032.307	-77.62
4034.789	-73.62
4037.269	-72.62
4039.747	-75.62
4042.224	-76.62
4044.699	-76.62
4047.172	-75.62
4049.643	-73.62
4052.112	-75.62
4054.58	-71.62
4057.046	-70.62
4059.51	-71.62
4061.972	-69.62
4064.432	-67.62
4066.891	-67.62
4069.348	-71.62
4071.803	-66.62
4074.256	-69.62
4076.708	-72.62
4079.158	-72.62
4081.606	-74.62
4084.052	-74.62
4086.497	-75.62
4088.939	-75.62
4091.38	-79.62
4093.819	-74.62
4096.257	-77.62
4098.693	-81.62
4101.127	-75.62
4103.559	-78.62
4105.989	-17.62
4108.418	-16.62
4110.845	-11.62
4113.27	-17.62
4115.694	-6.62
4118.115	-6.62
4120.535	-76.62
4122.954	-75.62
4125.37	-75.62
4127.785	-74.62
4130.198	-73.62
4132.609	-71.62
4135.019	-76.62
4137.427	-75.62
4139.833	-75.62
4142.237	-75.62
