Data from Water3_100CFU_RamanShift_11-11-18-915_RamanShift_14-20-29-244.txt Node
Date: Sun Dec 18 14:20:29 IST 2016
User: aro
Spectrometer: QEPB0276
Trigger mode: 0
Integration Time (sec): 5.000000E0
Scans to average: 1
Electric dark correction enabled: true
Nonlinearity correction enabled: false
Boxcar width: 0
XAxis mode: Raman Shifts
Number of Pixels in Spectrum: 1044
>>>>>Begin Spectral Data<<<<<
160.701	3.88
166.742	19.88
172.777	66.88
178.805	217.88
184.826	640.88
190.841	1537.88
196.849	2860.88
202.85	4090.88
208.845	4724.88
214.833	4732.88
220.815	4543.88
226.789	4390.88
232.758	4263.88
238.719	4140.88
244.674	4008.88
250.623	3847.88
256.565	3690.88
262.5	3508.88
268.429	3335.88
274.351	3193.88
280.267	3086.88
286.176	2946.88
292.079	2866.88
297.975	2760.88
303.865	2697.88
309.748	2592.88
315.625	2539.88
321.495	2452.88
327.359	2425.88
333.217	2379.88
339.068	2356.88
344.912	2346.88
350.751	2335.88
356.583	2321.88
362.408	2316.88
368.227	2318.88
374.04	2315.88
379.847	2334.88
385.647	2317.88
391.44	2347.88
397.228	2351.88
403.009	2379.88
408.784	2404.88
414.553	2382.88
420.315	2382.88
426.071	2397.88
431.821	2411.88
437.565	2400.88
443.302	2396.88
449.033	2385.88
454.758	2379.88
460.477	2378.88
466.189	2346.88
471.896	2353.88
477.596	2315.88
483.29	2326.88
488.978	2285.88
494.66	2298.88
500.335	2288.88
506.005	2248.88
511.668	2215.88
517.325	2171.88
522.977	2151.88
528.622	2104.88
534.261	2062.88
539.894	2063.88
545.521	2027.88
551.141	2019.88
556.756	2004.88
562.365	1992.88
567.968	1995.88
573.565	1962.88
579.155	1961.88
584.74	1944.88
590.319	1930.88
595.892	1930.88
601.459	1918.88
607.02	1900.88
612.575	1891.88
618.124	1883.88
623.667	1855.88
629.204	1831.88
634.735	1835.88
640.261	1810.88
645.781	1793.88
651.294	1782.88
656.802	1777.88
662.304	1769.88
667.8	1753.88
673.29	1750.88
678.775	1741.88
684.254	1739.88
689.726	1729.88
695.193	1715.88
700.655	1720.88
706.11	1685.88
711.56	1701.88
717.004	1687.88
722.442	1678.88
727.874	1663.88
733.301	1662.88
738.722	1647.88
744.137	1638.88
749.547	1637.88
754.951	1618.88
760.349	1627.88
765.741	1611.88
771.128	1605.88
776.509	1604.88
781.885	1622.88
787.254	1619.88
792.618	1598.88
797.977	1611.88
803.33	1586.88
808.677	1583.88
814.019	1568.88
819.355	1554.88
824.686	1534.88
830.011	1513.88
835.33	1509.88
840.644	1509.88
845.952	1498.88
851.255	1481.88
856.552	1486.88
861.844	1483.88
867.13	1472.88
872.41	1456.88
877.686	1437.88
882.955	1439.88
888.219	1423.88
893.478	1386.88
898.731	1393.88
903.979	1357.88
909.221	1327.88
914.458	1329.88
919.69	1323.88
924.916	1317.88
930.136	1307.88
935.351	1317.88
940.561	1313.88
945.766	1313.88
950.965	1303.88
956.158	1297.88
961.347	1287.88
966.529	1264.88
971.707	1249.88
976.879	1234.88
982.046	1224.88
987.208	1209.88
992.364	1217.88
997.515	1203.88
1002.66	1215.88
1007.801	1222.88
1012.936	1225.88
1018.066	1239.88
1023.19	1241.88
1028.309	1249.88
1033.423	1263.88
1038.532	1265.88
1043.636	1240.88
1048.734	1241.88
1053.827	1233.88
1058.915	1221.88
1063.998	1211.88
1069.075	1198.88
1074.147	1206.88
1079.214	1205.88
1084.276	1210.88
1089.333	1224.88
1094.385	1226.88
1099.431	1239.88
1104.472	1240.88
1109.509	1220.88
1114.54	1232.88
1119.565	1209.88
1124.586	1212.88
1129.602	1184.88
1134.613	1180.88
1139.618	1174.88
1144.619	1188.88
1149.614	1153.88
1154.604	1167.88
1159.589	1186.88
1164.57	1186.88
1169.545	1196.88
1174.515	1196.88
1179.48	1215.88
1184.44	1182.88
1189.395	1172.88
1194.345	1185.88
1199.29	1169.88
1204.23	1178.88
1209.165	1157.88
1214.095	1168.88
1219.021	1189.88
1223.941	1197.88
1228.856	1197.88
1233.766	1207.88
1238.672	1205.88
1243.572	1203.88
1248.467	1206.88
1253.358	1196.88
1258.244	1187.88
1263.124	1176.88
1268	1157.88
1272.871	1145.88
1277.737	1134.88
1282.599	1118.88
1287.455	1133.88
1292.306	1140.88
1297.153	1129.88
1301.995	1151.88
1306.832	1146.88
1311.664	1155.88
1316.491	1160.88
1321.314	1161.88
1326.132	1144.88
1330.945	1143.88
1335.753	1134.88
1340.556	1123.88
1345.354	1106.88
1350.148	1083.88
1354.937	1076.88
1359.722	1080.88
1364.501	1052.88
1369.276	1056.88
1374.046	1034.88
1378.811	1046.88
1383.572	1042.88
1388.327	1051.88
1393.079	1036.88
1397.825	1051.88
1402.567	1018.88
1407.304	1022.88
1412.036	1021.88
1416.764	1017.88
1421.487	1019.88
1426.205	1001.88
1430.919	1026.88
1435.628	1026.88
1440.333	1043.88
1445.032	1047.88
1449.727	1045.88
1454.418	1059.88
1459.104	1058.88
1463.785	1061.88
1468.462	1057.88
1473.134	1044.88
1477.802	1027.88
1482.465	1021.88
1487.123	999.88
1491.777	1009.88
1496.426	1027.88
1501.071	1034.88
1505.711	1033.88
1510.347	1040.88
1514.978	1043.88
1519.604	1049.88
1524.226	1065.88
1528.844	1060.88
1533.457	1069.88
1538.065	1063.88
1542.669	1059.88
1547.269	1067.88
1551.864	1051.88
1556.454	1062.88
1561.041	1084.88
1565.622	1097.88
1570.199	1096.88
1574.772	1122.88
1579.34	1134.88
1583.904	1154.88
1588.464	1195.88
1593.019	1198.88
1597.569	1208.88
1602.115	1220.88
1606.657	1234.88
1611.195	1254.88
1615.728	1259.88
1620.256	1281.88
1624.78	1302.88
1629.3	1294.88
1633.816	1328.88
1638.327	1328.88
1642.834	1353.88
1647.336	1370.88
1651.834	1382.88
1656.328	1388.88
1660.817	1384.88
1665.302	1361.88
1669.783	1344.88
1674.259	1316.88
1678.732	1271.88
1683.199	1249.88
1687.663	1208.88
1692.122	1154.88
1696.577	1117.88
1701.028	1061.88
1705.474	1007.88
1709.917	986.88
1714.355	944.88
1718.788	936.88
1723.218	921.88
1727.643	917.88
1732.064	892.88
1736.481	870.88
1740.893	853.88
1745.301	830.88
1749.705	809.88
1754.105	803.88
1758.501	774.88
1762.893	749.88
1767.28	753.88
1771.663	752.88
1776.042	735.88
1780.417	721.88
1784.787	728.88
1789.154	738.88
1793.516	740.88
1797.874	721.88
1802.228	718.88
1806.578	713.88
1810.924	700.88
1815.266	697.88
1819.603	682.88
1823.937	679.88
1828.266	670.88
1832.591	676.88
1836.913	653.88
1841.23	655.88
1845.543	658.88
1849.852	669.88
1854.156	668.88
1858.457	670.88
1862.754	674.88
1867.047	675.88
1871.335	680.88
1875.62	675.88
1879.9	679.88
1884.177	687.88
1888.449	667.88
1892.718	675.88
1896.982	674.88
1901.243	673.88
1905.499	663.88
1909.752	658.88
1914	651.88
1918.245	652.88
1922.485	659.88
1926.722	650.88
1930.954	670.88
1935.183	661.88
1939.408	675.88
1943.628	666.88
1947.845	673.88
1952.058	663.88
1956.267	672.88
1960.472	672.88
1964.673	663.88
1968.87	647.88
1973.063	646.88
1977.252	647.88
1981.438	637.88
1985.619	635.88
1989.797	629.88
1993.971	634.88
1998.14	638.88
2002.306	644.88
2006.469	646.88
2010.627	657.88
2014.781	653.88
2018.932	660.88
2023.078	656.88
2027.221	646.88
2031.36	635.88
2035.495	643.88
2039.627	629.88
2043.754	634.88
2047.878	637.88
2051.998	627.88
2056.114	636.88
2060.226	625.88
2064.334	632.88
2068.439	643.88
2072.54	642.88
2076.637	646.88
2080.73	634.88
2084.82	656.88
2088.906	647.88
2092.988	652.88
2097.066	654.88
2101.14	637.88
2105.211	641.88
2109.278	640.88
2113.342	633.88
2117.401	634.88
2121.457	627.88
2125.509	619.88
2129.558	627.88
2133.602	613.88
2137.643	615.88
2141.681	619.88
2145.714	618.88
2149.744	617.88
2153.77	609.88
2157.793	606.88
2161.812	607.88
2165.827	586.88
2169.838	585.88
2173.846	579.88
2177.851	572.88
2181.851	561.88
2185.848	562.88
2189.841	555.88
2193.831	548.88
2197.817	544.88
2201.799	542.88
2205.778	539.88
2209.753	535.88
2213.725	538.88
2217.693	532.88
2221.657	541.88
2225.618	525.88
2229.575	540.88
2233.529	537.88
2237.479	530.88
2241.425	528.88
2245.368	528.88
2249.307	505.88
2253.243	504.88
2257.175	508.88
2261.104	500.88
2265.029	484.88
2268.95	483.88
2272.868	482.88
2276.783	475.88
2280.694	474.88
2284.601	458.88
2288.505	447.88
2292.405	445.88
2296.302	441.88
2300.195	440.88
2304.085	436.88
2307.971	424.88
2311.854	421.88
2315.734	418.88
2319.609	415.88
2323.482	410.88
2327.351	403.88
2331.216	399.88
2335.078	404.88
2338.937	403.88
2342.792	389.88
2346.643	396.88
2350.492	391.88
2354.336	399.88
2358.178	390.88
2362.015	397.88
2365.85	394.88
2369.681	398.88
2373.508	403.88
2377.333	392.88
2381.153	392.88
2384.971	393.88
2388.785	391.88
2392.595	391.88
2396.402	396.88
2400.206	382.88
2404.007	384.88
2407.804	392.88
2411.597	380.88
2415.388	386.88
2419.174	382.88
2422.958	370.88
2426.738	374.88
2430.515	379.88
2434.289	379.88
2438.059	376.88
2441.825	376.88
2445.589	364.88
2449.349	364.88
2453.106	361.88
2456.859	359.88
2460.61	363.88
2464.356	361.88
2468.1	356.88
2471.84	351.88
2475.577	342.88
2479.311	345.88
2483.041	349.88
2486.768	350.88
2490.492	347.88
2494.213	353.88
2497.93	349.88
2501.644	345.88
2505.355	357.88
2509.062	355.88
2512.766	355.88
2516.467	345.88
2520.165	354.88
2523.859	349.88
2527.551	330.88
2531.239	338.88
2534.923	326.88
2538.605	318.88
2542.283	331.88
2545.958	324.88
2549.63	326.88
2553.299	319.88
2556.964	309.88
2560.626	325.88
2564.285	314.88
2567.941	303.88
2571.594	311.88
2575.243	309.88
2578.89	305.88
2582.533	311.88
2586.173	304.88
2589.809	299.88
2593.443	295.88
2597.073	294.88
2600.701	296.88
2604.325	301.88
2607.946	293.88
2611.564	296.88
2615.178	292.88
2618.79	290.88
2622.398	292.88
2626.004	289.88
2629.606	288.88
2633.205	298.88
2636.801	286.88
2640.394	275.88
2643.983	276.88
2647.57	272.88
2651.153	277.88
2654.734	277.88
2658.311	278.88
2661.885	266.88
2665.456	261.88
2669.025	264.88
2672.589	259.88
2676.151	253.88
2679.71	256.88
2683.266	251.88
2686.819	256.88
2690.368	257.88
2693.915	252.88
2697.458	244.88
2700.999	254.88
2704.536	246.88
2708.071	236.88
2711.602	237.88
2715.13	239.88
2718.656	236.88
2722.178	231.88
2725.697	243.88
2729.214	229.88
2732.727	240.88
2736.237	243.88
2739.744	236.88
2743.249	242.88
2746.75	240.88
2750.248	235.88
2753.743	238.88
2757.236	243.88
2760.725	238.88
2764.211	227.88
2767.695	231.88
2771.175	219.88
2774.652	221.88
2778.127	229.88
2781.598	212.88
2785.067	226.88
2788.532	224.88
2791.995	226.88
2795.455	220.88
2798.911	232.88
2802.365	229.88
2805.816	226.88
2809.264	232.88
2812.709	230.88
2816.151	226.88
2819.59	232.88
2823.026	230.88
2826.46	243.88
2829.89	236.88
2833.318	233.88
2836.742	236.88
2840.164	234.88
2843.583	242.88
2846.999	240.88
2850.412	248.88
2853.822	248.88
2857.229	247.88
2860.634	243.88
2864.035	258.88
2867.434	254.88
2870.83	259.88
2874.223	268.88
2877.613	273.88
2881	269.88
2884.385	266.88
2887.766	260.88
2891.145	267.88
2894.521	269.88
2897.894	269.88
2901.264	276.88
2904.631	268.88
2907.996	271.88
2911.358	279.88
2914.717	278.88
2918.073	287.88
2921.426	288.88
2924.777	294.88
2928.124	297.88
2931.469	303.88
2934.811	294.88
2938.15	309.88
2941.487	307.88
2944.821	313.88
2948.152	316.88
2951.48	326.88
2954.805	331.88
2958.128	334.88
2961.447	337.88
2964.765	339.88
2968.079	346.88
2971.39	352.88
2974.699	353.88
2978.005	357.88
2981.308	374.88
2984.609	373.88
2987.907	391.88
2991.202	399.88
2994.494	407.88
2997.784	422.88
3001.07	432.88
3004.355	435.88
3007.636	441.88
3010.915	448.88
3014.191	459.88
3017.464	462.88
3020.734	481.88
3024.002	476.88
3027.267	490.88
3030.53	506.88
3033.789	509.88
3037.046	525.88
3040.301	526.88
3043.552	537.88
3046.801	554.88
3050.048	571.88
3053.291	590.88
3056.532	596.88
3059.771	610.88
3063.006	637.88
3066.239	645.88
3069.469	679.88
3072.697	681.88
3075.922	707.88
3079.144	717.88
3082.364	730.88
3085.581	762.88
3088.795	778.88
3092.007	782.88
3095.216	807.88
3098.423	823.88
3101.627	830.88
3104.828	858.88
3108.026	888.88
3111.222	892.88
3114.416	920.88
3117.607	944.88
3120.795	949.88
3123.98	968.88
3127.163	1000.88
3130.344	1017.88
3133.521	1030.88
3136.696	1068.88
3139.869	1085.88
3143.039	1093.88
3146.206	1113.88
3149.371	1143.88
3152.533	1145.88
3155.693	1141.88
3158.85	1176.88
3162.005	1168.88
3165.157	1185.88
3168.306	1177.88
3171.453	1190.88
3174.597	1173.88
3177.739	1196.88
3180.878	1204.88
3184.014	1203.88
3187.149	1193.88
3190.28	1210.88
3193.409	1203.88
3196.536	1204.88
3199.659	1209.88
3202.781	1227.88
3205.9	1229.88
3209.016	1232.88
3212.13	1229.88
3215.241	1228.88
3218.35	1201.88
3221.456	1202.88
3224.56	1197.88
3227.661	1191.88
3230.76	1181.88
3233.856	1169.88
3236.95	1140.88
3240.041	1144.88
3243.13	1140.88
3246.216	1133.88
3249.3	1117.88
3252.382	1106.88
3255.46	1098.88
3258.537	1104.88
3261.611	1097.88
3264.682	1084.88
3267.751	1093.88
3270.818	1069.88
3273.882	1084.88
3276.943	1069.88
3280.002	1057.88
3283.059	1062.88
3286.113	1028.88
3289.165	1034.88
3292.214	1007.88
3295.261	999.88
3298.306	981.88
3301.348	962.88
3304.387	954.88
3307.425	955.88
3310.459	951.88
3313.492	925.88
3316.521	904.88
3319.549	912.88
3322.574	904.88
3325.597	883.88
3328.617	881.88
3331.635	873.88
3334.65	878.88
3337.663	883.88
3340.674	866.88
3343.682	861.88
3346.688	863.88
3349.691	864.88
3352.692	865.88
3355.691	852.88
3358.687	847.88
3361.681	845.88
3364.673	832.88
3367.662	806.88
3370.649	813.88
3373.633	802.88
3376.615	799.88
3379.595	786.88
3382.572	772.88
3385.547	743.88
3388.52	739.88
3391.49	737.88
3394.458	729.88
3397.424	713.88
3400.387	708.88
3403.348	700.88
3406.307	701.88
3409.263	692.88
3412.217	686.88
3415.168	672.88
3418.118	675.88
3421.065	664.88
3424.009	648.88
3426.951	644.88
3429.891	635.88
3432.829	634.88
3435.764	617.88
3438.697	604.88
3441.628	593.88
3444.557	575.88
3447.483	560.88
3450.407	550.88
3453.328	533.88
3456.247	520.88
3459.164	501.88
3462.079	484.88
3464.991	476.88
3467.902	469.88
3470.809	446.88
3473.715	434.88
3476.618	421.88
3479.519	415.88
3482.418	401.88
3485.315	386.88
3488.209	378.88
3491.101	377.88
3493.99	361.88
3496.878	345.88
3499.763	333.88
3502.646	328.88
3505.527	320.88
3508.405	301.88
3511.281	304.88
3514.155	285.88
3517.027	275.88
3519.897	266.88
3522.764	252.88
3525.629	242.88
3528.492	234.88
3531.352	225.88
3534.211	209.88
3537.067	197.88
3539.921	183.88
3542.773	187.88
3545.622	173.88
3548.469	163.88
3551.315	151.88
3554.157	142.88
3556.998	133.88
3559.837	139.88
3562.673	124.88
3565.507	120.88
3568.339	113.88
3571.169	107.88
3573.996	100.88
3576.822	103.88
3579.645	91.88
3582.466	82.88
3585.285	76.88
3588.101	72.88
3590.916	73.88
3593.728	64.88
3596.538	66.88
3599.346	57.88
3602.152	51.88
3604.956	50.88
3607.757	44.88
3610.556	43.88
3613.354	33.88
3616.149	36.88
3618.942	24.88
3621.732	25.88
3624.521	18.88
3627.307	17.88
3630.092	10.88
3632.874	6.88
3635.654	4.88
3638.432	4.88
3641.208	4.88
3643.982	4.88
3646.753	-4.12
3649.523	-1.12
3652.29	-5.12
3655.055	-8.12
3657.818	-10.12
3660.579	-9.12
3663.338	-17.12
3666.095	-21.12
3668.849	-11.12
3671.602	-20.12
3674.352	-23.12
3677.101	-19.12
3679.847	-27.12
3682.591	-28.12
3685.333	-30.12
3688.073	-32.12
3690.811	-38.12
3693.547	-34.12
3696.281	-37.12
3699.013	-42.12
3701.742	-43.12
3704.47	-42.12
3707.195	-47.12
3709.919	-46.12
3712.64	-49.12
3715.359	-51.12
3718.076	-46.12
3720.792	-45.12
3723.505	-48.12
3726.216	-48.12
3728.925	-45.12
3731.632	-48.12
3734.336	-48.12
3737.039	-51.12
3739.74	-53.12
3742.439	-53.12
3745.136	-57.12
3747.83	-59.12
3750.523	-56.12
3753.213	-56.12
3755.902	-61.12
3758.589	-59.12
3761.273	-60.12
3763.956	-62.12
3766.636	-62.12
3769.315	-62.12
3771.991	-58.12
3774.665	-58.12
3777.338	-62.12
3780.008	-61.12
3782.677	-57.12
3785.343	-59.12
3788.007	-62.12
3790.67	-60.12
3793.33	-62.12
3795.989	-63.12
3798.645	-60.12
3801.299	-64.12
3803.952	-63.12
3806.602	-64.12
3809.251	-67.12
3811.897	-68.12
3814.542	-68.12
3817.184	-69.12
3819.825	-65.12
3822.463	-68.12
3825.1	-71.12
3827.735	-72.12
3830.367	-70.12
3832.998	-69.12
3835.627	-70.12
3838.253	-68.12
3840.878	-67.12
3843.501	-67.12
3846.122	-65.12
3848.741	-68.12
3851.358	-68.12
3853.973	-64.12
3856.586	-67.12
3859.197	-68.12
3861.806	-66.12
3864.414	-69.12
3867.019	-69.12
3869.622	-70.12
3872.224	-72.12
3874.823	-70.12
3877.421	-69.12
3880.016	-69.12
3882.61	-68.12
3885.202	-68.12
3887.792	-67.12
3890.38	-72.12
3892.966	-70.12
3895.55	-72.12
3898.132	-71.12
3900.713	-69.12
3903.291	-70.12
3905.868	-70.12
3908.442	-70.12
3911.015	-65.12
3913.586	-72.12
3916.155	-68.12
3918.722	-70.12
3921.287	-70.12
3923.85	-71.12
3926.411	-72.12
3928.971	-73.12
3931.528	-75.12
3934.084	-76.12
3936.638	-73.12
3939.19	-75.12
3941.74	-71.12
3944.288	-76.12
3946.834	-78.12
3949.378	-75.12
3951.921	-75.12
3954.462	-75.12
3957	-71.12
3959.537	-73.12
3962.072	-68.12
3964.606	-69.12
3967.137	-68.12
3969.667	-68.12
3972.194	-73.12
3974.72	-73.12
3977.244	-71.12
3979.766	-73.12
3982.286	-72.12
3984.805	-74.12
3987.321	-76.12
3989.836	-79.12
3992.349	-73.12
3994.86	-72.12
3997.369	-73.12
3999.877	-72.12
4002.382	-71.12
4004.886	-73.12
4007.388	-71.12
4009.888	-73.12
4012.386	-70.12
4014.883	-67.12
4017.377	-68.12
4019.87	-73.12
4022.361	-72.12
4024.85	-70.12
4027.338	-69.12
4029.823	-74.12
4032.307	-74.12
4034.789	-74.12
4037.269	-74.12
4039.747	-73.12
4042.224	-76.12
4044.699	-77.12
4047.172	-77.12
4049.643	-74.12
4052.112	-76.12
4054.58	-75.12
4057.046	-71.12
4059.51	-73.12
4061.972	-72.12
4064.432	-71.12
4066.891	-70.12
4069.348	-71.12
4071.803	-68.12
4074.256	-71.12
4076.708	-70.12
4079.158	-70.12
4081.606	-73.12
4084.052	-78.12
4086.497	-76.12
4088.939	-73.12
4091.38	-74.12
4093.819	-75.12
4096.257	-75.12
4098.693	-79.12
4101.127	-76.12
4103.559	-77.12
4105.989	-22.12
4108.418	-19.12
4110.845	-17.12
4113.27	-16.12
4115.694	-9.12
4118.115	-10.12
4120.535	-77.12
4122.954	-72.12
4125.37	-78.12
4127.785	-75.12
4130.198	-71.12
4132.609	-73.12
4135.019	-77.12
4137.427	-78.12
4139.833	-77.12
4142.237	-76.12
