Data from Water3_1CFU_RamanShift_11-11-18-915_RamanShift_14-17-44-682.txt Node
Date: Sun Dec 18 14:17:44 IST 2016
User: aro
Spectrometer: QEPB0276
Trigger mode: 0
Integration Time (sec): 5.000000E0
Scans to average: 1
Electric dark correction enabled: true
Nonlinearity correction enabled: false
Boxcar width: 0
XAxis mode: Raman Shifts
Number of Pixels in Spectrum: 1044
>>>>>Begin Spectral Data<<<<<
160.701	1.5
166.742	19.5
172.777	62.5
178.805	194.5
184.826	587.5
190.841	1419.5
196.849	2611.5
202.85	3730.5
208.845	4280.5
214.833	4309.5
220.815	4129.5
226.789	3979.5
232.758	3871.5
238.719	3785.5
244.674	3651.5
250.623	3520.5
256.565	3362.5
262.5	3224.5
268.429	3074.5
274.351	2953.5
280.267	2850.5
286.176	2725.5
292.079	2652.5
297.975	2561.5
303.865	2466.5
309.748	2414.5
315.625	2332.5
321.495	2279.5
327.359	2260.5
333.217	2231.5
339.068	2200.5
344.912	2179.5
350.751	2146.5
356.583	2147.5
362.408	2145.5
368.227	2152.5
374.04	2159.5
379.847	2174.5
385.647	2162.5
391.44	2157.5
397.228	2183.5
403.009	2192.5
408.784	2225.5
414.553	2216.5
420.315	2218.5
426.071	2235.5
431.821	2209.5
437.565	2233.5
443.302	2215.5
449.033	2219.5
454.758	2206.5
460.477	2184.5
466.189	2186.5
471.896	2188.5
477.596	2172.5
483.29	2154.5
488.978	2128.5
494.66	2146.5
500.335	2130.5
506.005	2100.5
511.668	2083.5
517.325	2039.5
522.977	1984.5
528.622	1979.5
534.261	1942.5
539.894	1929.5
545.521	1910.5
551.141	1893.5
556.756	1894.5
562.365	1883.5
567.968	1867.5
573.565	1848.5
579.155	1856.5
584.74	1859.5
590.319	1841.5
595.892	1838.5
601.459	1794.5
607.02	1810.5
612.575	1778.5
618.124	1768.5
623.667	1740.5
629.204	1732.5
634.735	1724.5
640.261	1713.5
645.781	1715.5
651.294	1686.5
656.802	1681.5
662.304	1695.5
667.8	1663.5
673.29	1684.5
678.775	1662.5
684.254	1679.5
689.726	1655.5
695.193	1641.5
700.655	1647.5
706.11	1641.5
711.56	1612.5
717.004	1617.5
722.442	1589.5
727.874	1581.5
733.301	1583.5
738.722	1572.5
744.137	1566.5
749.547	1575.5
754.951	1551.5
760.349	1537.5
765.741	1547.5
771.128	1555.5
776.509	1559.5
781.885	1538.5
787.254	1543.5
792.618	1545.5
797.977	1538.5
803.33	1536.5
808.677	1526.5
814.019	1511.5
819.355	1494.5
824.686	1479.5
830.011	1478.5
835.33	1482.5
840.644	1454.5
845.952	1460.5
851.255	1458.5
856.552	1453.5
861.844	1438.5
867.13	1430.5
872.41	1443.5
877.686	1422.5
882.955	1413.5
888.219	1383.5
893.478	1369.5
898.731	1346.5
903.979	1328.5
909.221	1313.5
914.458	1314.5
919.69	1314.5
924.916	1309.5
930.136	1307.5
935.351	1290.5
940.561	1297.5
945.766	1289.5
950.965	1289.5
956.158	1299.5
961.347	1277.5
966.529	1248.5
971.707	1248.5
976.879	1234.5
982.046	1220.5
987.208	1201.5
992.364	1199.5
997.515	1212.5
1002.66	1219.5
1007.801	1224.5
1012.936	1223.5
1018.066	1228.5
1023.19	1252.5
1028.309	1264.5
1033.423	1244.5
1038.532	1261.5
1043.636	1244.5
1048.734	1267.5
1053.827	1237.5
1058.915	1208.5
1063.998	1209.5
1069.075	1210.5
1074.147	1210.5
1079.214	1204.5
1084.276	1225.5
1089.333	1221.5
1094.385	1231.5
1099.431	1240.5
1104.472	1244.5
1109.509	1240.5
1114.54	1241.5
1119.565	1206.5
1124.586	1199.5
1129.602	1199.5
1134.613	1192.5
1139.618	1177.5
1144.619	1188.5
1149.614	1162.5
1154.604	1180.5
1159.589	1196.5
1164.57	1188.5
1169.545	1193.5
1174.515	1201.5
1179.48	1217.5
1184.44	1211.5
1189.395	1185.5
1194.345	1179.5
1199.29	1187.5
1204.23	1184.5
1209.165	1181.5
1214.095	1196.5
1219.021	1195.5
1223.941	1198.5
1228.856	1220.5
1233.766	1214.5
1238.672	1226.5
1243.572	1210.5
1248.467	1205.5
1253.358	1209.5
1258.244	1194.5
1263.124	1180.5
1268	1167.5
1272.871	1159.5
1277.737	1152.5
1282.599	1134.5
1287.455	1131.5
1292.306	1138.5
1297.153	1154.5
1301.995	1161.5
1306.832	1182.5
1311.664	1178.5
1316.491	1186.5
1321.314	1188.5
1326.132	1176.5
1330.945	1162.5
1335.753	1136.5
1340.556	1133.5
1345.354	1119.5
1350.148	1107.5
1354.937	1110.5
1359.722	1081.5
1364.501	1083.5
1369.276	1081.5
1374.046	1074.5
1378.811	1066.5
1383.572	1058.5
1388.327	1067.5
1393.079	1057.5
1397.825	1045.5
1402.567	1059.5
1407.304	1043.5
1412.036	1048.5
1416.764	1032.5
1421.487	1036.5
1426.205	1043.5
1430.919	1043.5
1435.628	1052.5
1440.333	1051.5
1445.032	1088.5
1449.727	1075.5
1454.418	1067.5
1459.104	1082.5
1463.785	1089.5
1468.462	1084.5
1473.134	1059.5
1477.802	1055.5
1482.465	1042.5
1487.123	1041.5
1491.777	1049.5
1496.426	1040.5
1501.071	1047.5
1505.711	1048.5
1510.347	1056.5
1514.978	1059.5
1519.604	1089.5
1524.226	1089.5
1528.844	1087.5
1533.457	1094.5
1538.065	1094.5
1542.669	1102.5
1547.269	1090.5
1551.864	1070.5
1556.454	1095.5
1561.041	1101.5
1565.622	1105.5
1570.199	1117.5
1574.772	1144.5
1579.34	1154.5
1583.904	1184.5
1588.464	1203.5
1593.019	1215.5
1597.569	1244.5
1602.115	1233.5
1606.657	1239.5
1611.195	1243.5
1615.728	1260.5
1620.256	1284.5
1624.78	1285.5
1629.3	1309.5
1633.816	1321.5
1638.327	1335.5
1642.834	1339.5
1647.336	1351.5
1651.834	1347.5
1656.328	1369.5
1660.817	1363.5
1665.302	1352.5
1669.783	1336.5
1674.259	1309.5
1678.732	1271.5
1683.199	1225.5
1687.663	1193.5
1692.122	1164.5
1696.577	1128.5
1701.028	1089.5
1705.474	1043.5
1709.917	1018.5
1714.355	982.5
1718.788	959.5
1723.218	957.5
1727.643	951.5
1732.064	919.5
1736.481	906.5
1740.893	880.5
1745.301	881.5
1749.705	852.5
1754.105	835.5
1758.501	815.5
1762.893	798.5
1767.28	802.5
1771.663	792.5
1776.042	781.5
1780.417	778.5
1784.787	781.5
1789.154	778.5
1793.516	778.5
1797.874	773.5
1802.228	774.5
1806.578	768.5
1810.924	755.5
1815.266	753.5
1819.603	748.5
1823.937	728.5
1828.266	730.5
1832.591	720.5
1836.913	705.5
1841.23	708.5
1845.543	717.5
1849.852	717.5
1854.156	713.5
1858.457	709.5
1862.754	714.5
1867.047	718.5
1871.335	731.5
1875.62	735.5
1879.9	727.5
1884.177	727.5
1888.449	734.5
1892.718	731.5
1896.982	721.5
1901.243	727.5
1905.499	707.5
1909.752	717.5
1914	711.5
1918.245	715.5
1922.485	708.5
1926.722	702.5
1930.954	704.5
1935.183	708.5
1939.408	715.5
1943.628	714.5
1947.845	719.5
1952.058	733.5
1956.267	718.5
1960.472	722.5
1964.673	708.5
1968.87	702.5
1973.063	694.5
1977.252	685.5
1981.438	690.5
1985.619	689.5
1989.797	691.5
1993.971	682.5
1998.14	697.5
2002.306	681.5
2006.469	693.5
2010.627	696.5
2014.781	698.5
2018.932	703.5
2023.078	694.5
2027.221	697.5
2031.36	692.5
2035.495	682.5
2039.627	681.5
2043.754	680.5
2047.878	676.5
2051.998	673.5
2056.114	679.5
2060.226	681.5
2064.334	675.5
2068.439	693.5
2072.54	683.5
2076.637	686.5
2080.73	682.5
2084.82	680.5
2088.906	692.5
2092.988	682.5
2097.066	685.5
2101.14	683.5
2105.211	669.5
2109.278	673.5
2113.342	677.5
2117.401	668.5
2121.457	668.5
2125.509	666.5
2129.558	664.5
2133.602	661.5
2137.643	669.5
2141.681	665.5
2145.714	656.5
2149.744	651.5
2153.77	659.5
2157.793	662.5
2161.812	653.5
2165.827	633.5
2169.838	631.5
2173.846	627.5
2177.851	604.5
2181.851	605.5
2185.848	606.5
2189.841	591.5
2193.831	592.5
2197.817	583.5
2201.799	577.5
2205.778	586.5
2209.753	580.5
2213.725	569.5
2217.693	565.5
2221.657	584.5
2225.618	582.5
2229.575	577.5
2233.529	573.5
2237.479	568.5
2241.425	578.5
2245.368	562.5
2249.307	558.5
2253.243	557.5
2257.175	547.5
2261.104	541.5
2265.029	532.5
2268.95	521.5
2272.868	517.5
2276.783	512.5
2280.694	512.5
2284.601	497.5
2288.505	501.5
2292.405	498.5
2296.302	487.5
2300.195	487.5
2304.085	479.5
2307.971	477.5
2311.854	461.5
2315.734	452.5
2319.609	456.5
2323.482	462.5
2327.351	447.5
2331.216	448.5
2335.078	441.5
2338.937	449.5
2342.792	429.5
2346.643	433.5
2350.492	426.5
2354.336	437.5
2358.178	429.5
2362.015	436.5
2365.85	439.5
2369.681	432.5
2373.508	436.5
2377.333	440.5
2381.153	443.5
2384.971	436.5
2388.785	432.5
2392.595	433.5
2396.402	429.5
2400.206	435.5
2404.007	424.5
2407.804	429.5
2411.597	427.5
2415.388	424.5
2419.174	421.5
2422.958	418.5
2426.738	421.5
2430.515	420.5
2434.289	416.5
2438.059	409.5
2441.825	413.5
2445.589	414.5
2449.349	404.5
2453.106	407.5
2456.859	409.5
2460.61	396.5
2464.356	390.5
2468.1	395.5
2471.84	399.5
2475.577	390.5
2479.311	382.5
2483.041	400.5
2486.768	389.5
2490.492	391.5
2494.213	394.5
2497.93	398.5
2501.644	395.5
2505.355	385.5
2509.062	383.5
2512.766	393.5
2516.467	384.5
2520.165	385.5
2523.859	383.5
2527.551	378.5
2531.239	374.5
2534.923	370.5
2538.605	365.5
2542.283	361.5
2545.958	357.5
2549.63	364.5
2553.299	354.5
2556.964	358.5
2560.626	359.5
2564.285	356.5
2567.941	356.5
2571.594	348.5
2575.243	342.5
2578.89	349.5
2582.533	341.5
2586.173	347.5
2589.809	344.5
2593.443	339.5
2597.073	342.5
2600.701	342.5
2604.325	334.5
2607.946	330.5
2611.564	338.5
2615.178	339.5
2618.79	328.5
2622.398	325.5
2626.004	326.5
2629.606	333.5
2633.205	324.5
2636.801	327.5
2640.394	318.5
2643.983	318.5
2647.57	312.5
2651.153	317.5
2654.734	306.5
2658.311	309.5
2661.885	308.5
2665.456	303.5
2669.025	305.5
2672.589	301.5
2676.151	300.5
2679.71	300.5
2683.266	300.5
2686.819	297.5
2690.368	282.5
2693.915	287.5
2697.458	279.5
2700.999	277.5
2704.536	273.5
2708.071	269.5
2711.602	267.5
2715.13	270.5
2718.656	277.5
2722.178	271.5
2725.697	267.5
2729.214	264.5
2732.727	265.5
2736.237	274.5
2739.744	273.5
2743.249	276.5
2746.75	282.5
2750.248	279.5
2753.743	271.5
2757.236	272.5
2760.725	268.5
2764.211	266.5
2767.695	261.5
2771.175	264.5
2774.652	256.5
2778.127	246.5
2781.598	251.5
2785.067	252.5
2788.532	257.5
2791.995	254.5
2795.455	248.5
2798.911	258.5
2802.365	259.5
2805.816	263.5
2809.264	260.5
2812.709	265.5
2816.151	268.5
2819.59	266.5
2823.026	257.5
2826.46	264.5
2829.89	263.5
2833.318	259.5
2836.742	262.5
2840.164	265.5
2843.583	271.5
2846.999	264.5
2850.412	257.5
2853.822	260.5
2857.229	272.5
2860.634	263.5
2864.035	269.5
2867.434	276.5
2870.83	268.5
2874.223	278.5
2877.613	285.5
2881	286.5
2884.385	285.5
2887.766	292.5
2891.145	288.5
2894.521	286.5
2897.894	292.5
2901.264	293.5
2904.631	300.5
2907.996	287.5
2911.358	293.5
2914.717	285.5
2918.073	292.5
2921.426	303.5
2924.777	298.5
2928.124	312.5
2931.469	310.5
2934.811	306.5
2938.15	314.5
2941.487	319.5
2944.821	320.5
2948.152	323.5
2951.48	330.5
2954.805	336.5
2958.128	341.5
2961.447	340.5
2964.765	338.5
2968.079	348.5
2971.39	354.5
2974.699	351.5
2978.005	363.5
2981.308	368.5
2984.609	373.5
2987.907	380.5
2991.202	389.5
2994.494	396.5
2997.784	406.5
3001.07	414.5
3004.355	433.5
3007.636	426.5
3010.915	439.5
3014.191	442.5
3017.464	443.5
3020.734	468.5
3024.002	471.5
3027.267	474.5
3030.53	493.5
3033.789	489.5
3037.046	482.5
3040.301	508.5
3043.552	524.5
3046.801	528.5
3050.048	529.5
3053.291	546.5
3056.532	577.5
3059.771	574.5
3063.006	589.5
3066.239	610.5
3069.469	621.5
3072.697	638.5
3075.922	662.5
3079.144	675.5
3082.364	682.5
3085.581	703.5
3088.795	710.5
3092.007	731.5
3095.216	746.5
3098.423	760.5
3101.627	768.5
3104.828	783.5
3108.026	802.5
3111.222	815.5
3114.416	828.5
3117.607	847.5
3120.795	868.5
3123.98	888.5
3127.163	911.5
3130.344	928.5
3133.521	941.5
3136.696	957.5
3139.869	972.5
3143.039	984.5
3146.206	1004.5
3149.371	1025.5
3152.533	1038.5
3155.693	1060.5
3158.85	1051.5
3162.005	1062.5
3165.157	1072.5
3168.306	1080.5
3171.453	1091.5
3174.597	1076.5
3177.739	1096.5
3180.878	1074.5
3184.014	1064.5
3187.149	1097.5
3190.28	1097.5
3193.409	1102.5
3196.536	1107.5
3199.659	1109.5
3202.781	1109.5
3205.9	1113.5
3209.016	1107.5
3212.13	1105.5
3215.241	1101.5
3218.35	1098.5
3221.456	1095.5
3224.56	1078.5
3227.661	1075.5
3230.76	1065.5
3233.856	1027.5
3236.95	1030.5
3240.041	1025.5
3243.13	1015.5
3246.216	1003.5
3249.3	1000.5
3252.382	998.5
3255.46	1006.5
3258.537	995.5
3261.611	992.5
3264.682	986.5
3267.751	996.5
3270.818	989.5
3273.882	981.5
3276.943	970.5
3280.002	963.5
3283.059	964.5
3286.113	961.5
3289.165	947.5
3292.214	926.5
3295.261	914.5
3298.306	907.5
3301.348	879.5
3304.387	864.5
3307.425	864.5
3310.459	846.5
3313.492	849.5
3316.521	838.5
3319.549	824.5
3322.574	822.5
3325.597	820.5
3328.617	804.5
3331.635	808.5
3334.65	800.5
3337.663	790.5
3340.674	783.5
3343.682	797.5
3346.688	774.5
3349.691	766.5
3352.692	766.5
3355.691	775.5
3358.687	753.5
3361.681	761.5
3364.673	749.5
3367.662	736.5
3370.649	730.5
3373.633	722.5
3376.615	715.5
3379.595	708.5
3382.572	699.5
3385.547	689.5
3388.52	685.5
3391.49	665.5
3394.458	666.5
3397.424	654.5
3400.387	649.5
3403.348	641.5
3406.307	625.5
3409.263	625.5
3412.217	618.5
3415.168	607.5
3418.118	608.5
3421.065	595.5
3424.009	588.5
3426.951	581.5
3429.891	578.5
3432.829	572.5
3435.764	563.5
3438.697	549.5
3441.628	523.5
3444.557	517.5
3447.483	504.5
3450.407	504.5
3453.328	480.5
3456.247	476.5
3459.164	459.5
3462.079	454.5
3464.991	430.5
3467.902	407.5
3470.809	418.5
3473.715	394.5
3476.618	392.5
3479.519	375.5
3482.418	360.5
3485.315	354.5
3488.209	343.5
3491.101	338.5
3493.99	323.5
3496.878	320.5
3499.763	309.5
3502.646	309.5
3505.527	292.5
3508.405	287.5
3511.281	285.5
3514.155	265.5
3517.027	254.5
3519.897	245.5
3522.764	226.5
3525.629	223.5
3528.492	212.5
3531.352	210.5
3534.211	196.5
3537.067	183.5
3539.921	181.5
3542.773	167.5
3545.622	161.5
3548.469	149.5
3551.315	139.5
3554.157	128.5
3556.998	129.5
3559.837	124.5
3562.673	121.5
3565.507	111.5
3568.339	102.5
3571.169	100.5
3573.996	99.5
3576.822	96.5
3579.645	87.5
3582.466	85.5
3585.285	71.5
3588.101	74.5
3590.916	69.5
3593.728	65.5
3596.538	64.5
3599.346	51.5
3602.152	51.5
3604.956	45.5
3607.757	40.5
3610.556	36.5
3613.354	30.5
3616.149	30.5
3618.942	27.5
3621.732	25.5
3624.521	27.5
3627.307	18.5
3630.092	20.5
3632.874	10.5
3635.654	11.5
3638.432	6.5
3641.208	10.5
3643.982	0.5
3646.753	3.5
3649.523	-3.5
3652.29	-4.5
3655.055	-2.5
3657.818	-7.5
3660.579	-10.5
3663.338	-14.5
3666.095	-11.5
3668.849	-11.5
3671.602	-20.5
3674.352	-16.5
3677.101	-17.5
3679.847	-23.5
3682.591	-23.5
3685.333	-25.5
3688.073	-26.5
3690.811	-27.5
3693.547	-31.5
3696.281	-30.5
3699.013	-37.5
3701.742	-35.5
3704.47	-36.5
3707.195	-39.5
3709.919	-41.5
3712.64	-37.5
3715.359	-41.5
3718.076	-42.5
3720.792	-39.5
3723.505	-43.5
3726.216	-42.5
3728.925	-40.5
3731.632	-42.5
3734.336	-44.5
3737.039	-41.5
3739.74	-45.5
3742.439	-48.5
3745.136	-48.5
3747.83	-51.5
3750.523	-48.5
3753.213	-44.5
3755.902	-50.5
3758.589	-47.5
3761.273	-53.5
3763.956	-52.5
3766.636	-51.5
3769.315	-53.5
3771.991	-51.5
3774.665	-51.5
3777.338	-53.5
3780.008	-52.5
3782.677	-52.5
3785.343	-50.5
3788.007	-53.5
3790.67	-56.5
3793.33	-55.5
3795.989	-53.5
3798.645	-56.5
3801.299	-56.5
3803.952	-57.5
3806.602	-58.5
3809.251	-56.5
3811.897	-57.5
3814.542	-56.5
3817.184	-61.5
3819.825	-57.5
3822.463	-60.5
3825.1	-60.5
3827.735	-63.5
3830.367	-61.5
3832.998	-58.5
3835.627	-59.5
3838.253	-60.5
3840.878	-59.5
3843.501	-59.5
3846.122	-59.5
3848.741	-62.5
3851.358	-59.5
3853.973	-59.5
3856.586	-62.5
3859.197	-56.5
3861.806	-60.5
3864.414	-59.5
3867.019	-61.5
3869.622	-62.5
3872.224	-61.5
3874.823	-60.5
3877.421	-59.5
3880.016	-57.5
3882.61	-60.5
3885.202	-58.5
3887.792	-57.5
3890.38	-62.5
3892.966	-61.5
3895.55	-62.5
3898.132	-64.5
3900.713	-63.5
3903.291	-68.5
3905.868	-66.5
3908.442	-65.5
3911.015	-62.5
3913.586	-68.5
3916.155	-63.5
3918.722	-63.5
3921.287	-59.5
3923.85	-62.5
3926.411	-64.5
3928.971	-63.5
3931.528	-65.5
3934.084	-67.5
3936.638	-64.5
3939.19	-67.5
3941.74	-65.5
3944.288	-67.5
3946.834	-67.5
3949.378	-68.5
3951.921	-65.5
3954.462	-67.5
3957	-64.5
3959.537	-66.5
3962.072	-64.5
3964.606	-62.5
3967.137	-63.5
3969.667	-63.5
3972.194	-67.5
3974.72	-66.5
3977.244	-62.5
3979.766	-64.5
3982.286	-61.5
3984.805	-67.5
3987.321	-66.5
3989.836	-69.5
3992.349	-63.5
3994.86	-64.5
3997.369	-65.5
3999.877	-63.5
4002.382	-65.5
4004.886	-66.5
4007.388	-65.5
4009.888	-66.5
4012.386	-65.5
4014.883	-64.5
4017.377	-67.5
4019.87	-64.5
4022.361	-67.5
4024.85	-67.5
4027.338	-63.5
4029.823	-67.5
4032.307	-66.5
4034.789	-62.5
4037.269	-66.5
4039.747	-65.5
4042.224	-68.5
4044.699	-66.5
4047.172	-66.5
4049.643	-64.5
4052.112	-63.5
4054.58	-66.5
4057.046	-64.5
4059.51	-64.5
4061.972	-63.5
4064.432	-62.5
4066.891	-65.5
4069.348	-64.5
4071.803	-62.5
4074.256	-65.5
4076.708	-67.5
4079.158	-62.5
4081.606	-68.5
4084.052	-67.5
4086.497	-69.5
4088.939	-68.5
4091.38	-64.5
4093.819	-64.5
4096.257	-65.5
4098.693	-72.5
4101.127	-65.5
4103.559	-68.5
4105.989	-15.5
4108.418	-8.5
4110.845	-13.5
4113.27	-12.5
4115.694	-8.5
4118.115	-7.5
4120.535	-67.5
4122.954	-63.5
4125.37	-66.5
4127.785	-63.5
4130.198	-63.5
4132.609	-64.5
4135.019	-67.5
4137.427	-69.5
4139.833	-70.5
4142.237	-70.5
