Data from Water3_10000CFU_RamanShift_11-11-18-915_RamanShift_14-23-10-599.txt Node
Date: Sun Dec 18 14:23:10 IST 2016
User: aro
Spectrometer: QEPB0276
Trigger mode: 0
Integration Time (sec): 5.000000E0
Scans to average: 1
Electric dark correction enabled: true
Nonlinearity correction enabled: false
Boxcar width: 0
XAxis mode: Raman Shifts
Number of Pixels in Spectrum: 1044
>>>>>Begin Spectral Data<<<<<
160.701	2.12
166.742	21.12
172.777	67.12
178.805	210.12
184.826	636.12
190.841	1522.12
196.849	2811.12
202.85	4022.12
208.845	4622.12
214.833	4624.12
220.815	4458.12
226.789	4303.12
232.758	4163.12
238.719	4057.12
244.674	3919.12
250.623	3765.12
256.565	3605.12
262.5	3456.12
268.429	3277.12
274.351	3149.12
280.267	3007.12
286.176	2898.12
292.079	2812.12
297.975	2717.12
303.865	2604.12
309.748	2541.12
315.625	2465.12
321.495	2442.12
327.359	2397.12
333.217	2369.12
339.068	2319.12
344.912	2269.12
350.751	2293.12
356.583	2271.12
362.408	2270.12
368.227	2275.12
374.04	2277.12
379.847	2285.12
385.647	2283.12
391.44	2294.12
397.228	2296.12
403.009	2316.12
408.784	2325.12
414.553	2335.12
420.315	2336.12
426.071	2341.12
431.821	2352.12
437.565	2346.12
443.302	2351.12
449.033	2327.12
454.758	2344.12
460.477	2304.12
466.189	2303.12
471.896	2299.12
477.596	2289.12
483.29	2267.12
488.978	2258.12
494.66	2249.12
500.335	2249.12
506.005	2211.12
511.668	2169.12
517.325	2137.12
522.977	2083.12
528.622	2058.12
534.261	2038.12
539.894	2014.12
545.521	2029.12
551.141	2008.12
556.756	1969.12
562.365	1972.12
567.968	1953.12
573.565	1950.12
579.155	1934.12
584.74	1912.12
590.319	1900.12
595.892	1888.12
601.459	1910.12
607.02	1887.12
612.575	1862.12
618.124	1849.12
623.667	1806.12
629.204	1815.12
634.735	1785.12
640.261	1785.12
645.781	1762.12
651.294	1777.12
656.802	1739.12
662.304	1746.12
667.8	1744.12
673.29	1731.12
678.775	1710.12
684.254	1722.12
689.726	1717.12
695.193	1714.12
700.655	1700.12
706.11	1691.12
711.56	1660.12
717.004	1659.12
722.442	1638.12
727.874	1654.12
733.301	1630.12
738.722	1630.12
744.137	1617.12
749.547	1603.12
754.951	1601.12
760.349	1611.12
765.741	1587.12
771.128	1602.12
776.509	1591.12
781.885	1603.12
787.254	1576.12
792.618	1598.12
797.977	1565.12
803.33	1591.12
808.677	1550.12
814.019	1546.12
819.355	1516.12
824.686	1505.12
830.011	1492.12
835.33	1496.12
840.644	1480.12
845.952	1468.12
851.255	1484.12
856.552	1480.12
861.844	1470.12
867.13	1452.12
872.41	1454.12
877.686	1434.12
882.955	1421.12
888.219	1407.12
893.478	1386.12
898.731	1361.12
903.979	1344.12
909.221	1334.12
914.458	1318.12
919.69	1320.12
924.916	1301.12
930.136	1294.12
935.351	1301.12
940.561	1318.12
945.766	1293.12
950.965	1293.12
956.158	1294.12
961.347	1271.12
966.529	1252.12
971.707	1238.12
976.879	1239.12
982.046	1205.12
987.208	1193.12
992.364	1189.12
997.515	1199.12
1002.66	1201.12
1007.801	1220.12
1012.936	1226.12
1018.066	1229.12
1023.19	1238.12
1028.309	1236.12
1033.423	1244.12
1038.532	1243.12
1043.636	1230.12
1048.734	1234.12
1053.827	1223.12
1058.915	1212.12
1063.998	1208.12
1069.075	1176.12
1074.147	1202.12
1079.214	1202.12
1084.276	1195.12
1089.333	1211.12
1094.385	1211.12
1099.431	1207.12
1104.472	1239.12
1109.509	1235.12
1114.54	1213.12
1119.565	1204.12
1124.586	1195.12
1129.602	1185.12
1134.613	1167.12
1139.618	1163.12
1144.619	1165.12
1149.614	1160.12
1154.604	1179.12
1159.589	1171.12
1164.57	1191.12
1169.545	1180.12
1174.515	1192.12
1179.48	1183.12
1184.44	1190.12
1189.395	1186.12
1194.345	1177.12
1199.29	1160.12
1204.23	1163.12
1209.165	1171.12
1214.095	1186.12
1219.021	1172.12
1223.941	1199.12
1228.856	1196.12
1233.766	1217.12
1238.672	1204.12
1243.572	1205.12
1248.467	1206.12
1253.358	1186.12
1258.244	1187.12
1263.124	1145.12
1268	1145.12
1272.871	1133.12
1277.737	1125.12
1282.599	1121.12
1287.455	1130.12
1292.306	1118.12
1297.153	1119.12
1301.995	1133.12
1306.832	1144.12
1311.664	1143.12
1316.491	1162.12
1321.314	1148.12
1326.132	1143.12
1330.945	1128.12
1335.753	1126.12
1340.556	1104.12
1345.354	1088.12
1350.148	1079.12
1354.937	1071.12
1359.722	1066.12
1364.501	1046.12
1369.276	1042.12
1374.046	1039.12
1378.811	1028.12
1383.572	1027.12
1388.327	1030.12
1393.079	1031.12
1397.825	1038.12
1402.567	1026.12
1407.304	1015.12
1412.036	1011.12
1416.764	1008.12
1421.487	1002.12
1426.205	1014.12
1430.919	1005.12
1435.628	1014.12
1440.333	1037.12
1445.032	1051.12
1449.727	1048.12
1454.418	1054.12
1459.104	1050.12
1463.785	1047.12
1468.462	1036.12
1473.134	1038.12
1477.802	1015.12
1482.465	1028.12
1487.123	1011.12
1491.777	1016.12
1496.426	1010.12
1501.071	1019.12
1505.711	1015.12
1510.347	1029.12
1514.978	1049.12
1519.604	1047.12
1524.226	1061.12
1528.844	1067.12
1533.457	1077.12
1538.065	1056.12
1542.669	1065.12
1547.269	1071.12
1551.864	1057.12
1556.454	1064.12
1561.041	1076.12
1565.622	1098.12
1570.199	1086.12
1574.772	1107.12
1579.34	1128.12
1583.904	1161.12
1588.464	1172.12
1593.019	1202.12
1597.569	1200.12
1602.115	1217.12
1606.657	1241.12
1611.195	1240.12
1615.728	1233.12
1620.256	1258.12
1624.78	1272.12
1629.3	1289.12
1633.816	1302.12
1638.327	1317.12
1642.834	1355.12
1647.336	1352.12
1651.834	1350.12
1656.328	1375.12
1660.817	1363.12
1665.302	1339.12
1669.783	1319.12
1674.259	1283.12
1678.732	1271.12
1683.199	1216.12
1687.663	1178.12
1692.122	1130.12
1696.577	1083.12
1701.028	1060.12
1705.474	1020.12
1709.917	986.12
1714.355	949.12
1718.788	950.12
1723.218	937.12
1727.643	908.12
1732.064	887.12
1736.481	865.12
1740.893	847.12
1745.301	836.12
1749.705	802.12
1754.105	789.12
1758.501	767.12
1762.893	761.12
1767.28	751.12
1771.663	754.12
1776.042	733.12
1780.417	739.12
1784.787	727.12
1789.154	721.12
1793.516	723.12
1797.874	736.12
1802.228	743.12
1806.578	720.12
1810.924	710.12
1815.266	704.12
1819.603	688.12
1823.937	692.12
1828.266	682.12
1832.591	668.12
1836.913	667.12
1841.23	675.12
1845.543	672.12
1849.852	661.12
1854.156	664.12
1858.457	676.12
1862.754	673.12
1867.047	676.12
1871.335	689.12
1875.62	684.12
1879.9	675.12
1884.177	682.12
1888.449	679.12
1892.718	684.12
1896.982	676.12
1901.243	669.12
1905.499	666.12
1909.752	656.12
1914	662.12
1918.245	657.12
1922.485	655.12
1926.722	657.12
1930.954	665.12
1935.183	665.12
1939.408	668.12
1943.628	667.12
1947.845	671.12
1952.058	676.12
1956.267	667.12
1960.472	670.12
1964.673	661.12
1968.87	656.12
1973.063	659.12
1977.252	645.12
1981.438	647.12
1985.619	642.12
1989.797	633.12
1993.971	641.12
1998.14	635.12
2002.306	648.12
2006.469	647.12
2010.627	656.12
2014.781	658.12
2018.932	656.12
2023.078	653.12
2027.221	656.12
2031.36	641.12
2035.495	644.12
2039.627	642.12
2043.754	638.12
2047.878	640.12
2051.998	631.12
2056.114	641.12
2060.226	626.12
2064.334	635.12
2068.439	646.12
2072.54	639.12
2076.637	648.12
2080.73	649.12
2084.82	649.12
2088.906	644.12
2092.988	636.12
2097.066	644.12
2101.14	650.12
2105.211	636.12
2109.278	625.12
2113.342	629.12
2117.401	634.12
2121.457	627.12
2125.509	627.12
2129.558	624.12
2133.602	629.12
2137.643	620.12
2141.681	621.12
2145.714	626.12
2149.744	612.12
2153.77	610.12
2157.793	606.12
2161.812	601.12
2165.827	604.12
2169.838	584.12
2173.846	585.12
2177.851	570.12
2181.851	568.12
2185.848	552.12
2189.841	558.12
2193.831	562.12
2197.817	549.12
2201.799	544.12
2205.778	549.12
2209.753	549.12
2213.725	540.12
2217.693	537.12
2221.657	536.12
2225.618	536.12
2229.575	543.12
2233.529	534.12
2237.479	535.12
2241.425	533.12
2245.368	532.12
2249.307	511.12
2253.243	508.12
2257.175	503.12
2261.104	489.12
2265.029	486.12
2268.95	490.12
2272.868	478.12
2276.783	476.12
2280.694	469.12
2284.601	465.12
2288.505	468.12
2292.405	464.12
2296.302	449.12
2300.195	452.12
2304.085	439.12
2307.971	435.12
2311.854	427.12
2315.734	416.12
2319.609	427.12
2323.482	414.12
2327.351	406.12
2331.216	410.12
2335.078	403.12
2338.937	404.12
2342.792	395.12
2346.643	401.12
2350.492	390.12
2354.336	391.12
2358.178	387.12
2362.015	390.12
2365.85	395.12
2369.681	395.12
2373.508	393.12
2377.333	406.12
2381.153	390.12
2384.971	392.12
2388.785	400.12
2392.595	401.12
2396.402	394.12
2400.206	386.12
2404.007	398.12
2407.804	381.12
2411.597	390.12
2415.388	382.12
2419.174	384.12
2422.958	373.12
2426.738	375.12
2430.515	377.12
2434.289	375.12
2438.059	380.12
2441.825	364.12
2445.589	369.12
2449.349	372.12
2453.106	368.12
2456.859	360.12
2460.61	363.12
2464.356	354.12
2468.1	366.12
2471.84	357.12
2475.577	348.12
2479.311	347.12
2483.041	351.12
2486.768	354.12
2490.492	348.12
2494.213	356.12
2497.93	353.12
2501.644	349.12
2505.355	339.12
2509.062	352.12
2512.766	339.12
2516.467	347.12
2520.165	336.12
2523.859	342.12
2527.551	331.12
2531.239	333.12
2534.923	332.12
2538.605	326.12
2542.283	324.12
2545.958	329.12
2549.63	322.12
2553.299	311.12
2556.964	314.12
2560.626	321.12
2564.285	323.12
2567.941	310.12
2571.594	306.12
2575.243	309.12
2578.89	305.12
2582.533	315.12
2586.173	299.12
2589.809	296.12
2593.443	303.12
2597.073	299.12
2600.701	301.12
2604.325	288.12
2607.946	292.12
2611.564	292.12
2615.178	303.12
2618.79	296.12
2622.398	298.12
2626.004	293.12
2629.606	300.12
2633.205	300.12
2636.801	288.12
2640.394	285.12
2643.983	289.12
2647.57	274.12
2651.153	286.12
2654.734	271.12
2658.311	273.12
2661.885	269.12
2665.456	274.12
2669.025	260.12
2672.589	260.12
2676.151	265.12
2679.71	263.12
2683.266	258.12
2686.819	264.12
2690.368	258.12
2693.915	257.12
2697.458	252.12
2700.999	248.12
2704.536	244.12
2708.071	246.12
2711.602	239.12
2715.13	233.12
2718.656	240.12
2722.178	239.12
2725.697	237.12
2729.214	238.12
2732.727	245.12
2736.237	238.12
2739.744	240.12
2743.249	235.12
2746.75	240.12
2750.248	245.12
2753.743	240.12
2757.236	232.12
2760.725	229.12
2764.211	233.12
2767.695	235.12
2771.175	227.12
2774.652	224.12
2778.127	221.12
2781.598	219.12
2785.067	236.12
2788.532	227.12
2791.995	229.12
2795.455	232.12
2798.911	230.12
2802.365	236.12
2805.816	232.12
2809.264	232.12
2812.709	230.12
2816.151	231.12
2819.59	243.12
2823.026	231.12
2826.46	238.12
2829.89	230.12
2833.318	237.12
2836.742	240.12
2840.164	237.12
2843.583	241.12
2846.999	231.12
2850.412	248.12
2853.822	248.12
2857.229	246.12
2860.634	248.12
2864.035	249.12
2867.434	258.12
2870.83	265.12
2874.223	262.12
2877.613	269.12
2881	270.12
2884.385	263.12
2887.766	271.12
2891.145	266.12
2894.521	270.12
2897.894	265.12
2901.264	259.12
2904.631	271.12
2907.996	272.12
2911.358	269.12
2914.717	272.12
2918.073	272.12
2921.426	285.12
2924.777	289.12
2928.124	295.12
2931.469	301.12
2934.811	290.12
2938.15	302.12
2941.487	302.12
2944.821	307.12
2948.152	309.12
2951.48	318.12
2954.805	320.12
2958.128	328.12
2961.447	328.12
2964.765	333.12
2968.079	334.12
2971.39	341.12
2974.699	355.12
2978.005	353.12
2981.308	361.12
2984.609	368.12
2987.907	380.12
2991.202	390.12
2994.494	399.12
2997.784	408.12
3001.07	413.12
3004.355	428.12
3007.636	435.12
3010.915	441.12
3014.191	458.12
3017.464	458.12
3020.734	473.12
3024.002	472.12
3027.267	483.12
3030.53	484.12
3033.789	498.12
3037.046	503.12
3040.301	520.12
3043.552	543.12
3046.801	539.12
3050.048	555.12
3053.291	571.12
3056.532	585.12
3059.771	600.12
3063.006	628.12
3066.239	631.12
3069.469	651.12
3072.697	670.12
3075.922	700.12
3079.144	700.12
3082.364	719.12
3085.581	734.12
3088.795	757.12
3092.007	774.12
3095.216	795.12
3098.423	807.12
3101.627	812.12
3104.828	824.12
3108.026	838.12
3111.222	865.12
3114.416	876.12
3117.607	907.12
3120.795	915.12
3123.98	943.12
3127.163	961.12
3130.344	985.12
3133.521	1014.12
3136.696	1030.12
3139.869	1046.12
3143.039	1073.12
3146.206	1080.12
3149.371	1107.12
3152.533	1109.12
3155.693	1121.12
3158.85	1121.12
3162.005	1126.12
3165.157	1130.12
3168.306	1138.12
3171.453	1140.12
3174.597	1151.12
3177.739	1164.12
3180.878	1158.12
3184.014	1162.12
3187.149	1155.12
3190.28	1175.12
3193.409	1179.12
3196.536	1175.12
3199.659	1179.12
3202.781	1191.12
3205.9	1184.12
3209.016	1189.12
3212.13	1197.12
3215.241	1179.12
3218.35	1175.12
3221.456	1174.12
3224.56	1165.12
3227.661	1150.12
3230.76	1131.12
3233.856	1120.12
3236.95	1121.12
3240.041	1101.12
3243.13	1089.12
3246.216	1093.12
3249.3	1075.12
3252.382	1060.12
3255.46	1066.12
3258.537	1054.12
3261.611	1043.12
3264.682	1051.12
3267.751	1054.12
3270.818	1043.12
3273.882	1054.12
3276.943	1028.12
3280.002	1028.12
3283.059	1017.12
3286.113	1009.12
3289.165	1000.12
3292.214	989.12
3295.261	988.12
3298.306	965.12
3301.348	955.12
3304.387	943.12
3307.425	918.12
3310.459	902.12
3313.492	894.12
3316.521	898.12
3319.549	875.12
3322.574	877.12
3325.597	861.12
3328.617	858.12
3331.635	857.12
3334.65	852.12
3337.663	841.12
3340.674	854.12
3343.682	843.12
3346.688	835.12
3349.691	833.12
3352.692	828.12
3355.691	832.12
3358.687	810.12
3361.681	812.12
3364.673	798.12
3367.662	796.12
3370.649	769.12
3373.633	786.12
3376.615	760.12
3379.595	759.12
3382.572	743.12
3385.547	737.12
3388.52	728.12
3391.49	713.12
3394.458	705.12
3397.424	704.12
3400.387	692.12
3403.348	703.12
3406.307	675.12
3409.263	671.12
3412.217	661.12
3415.168	653.12
3418.118	662.12
3421.065	650.12
3424.009	644.12
3426.951	634.12
3429.891	622.12
3432.829	611.12
3435.764	598.12
3438.697	588.12
3441.628	575.12
3444.557	555.12
3447.483	550.12
3450.407	532.12
3453.328	509.12
3456.247	505.12
3459.164	486.12
3462.079	477.12
3464.991	466.12
3467.902	456.12
3470.809	442.12
3473.715	421.12
3476.618	405.12
3479.519	401.12
3482.418	396.12
3485.315	382.12
3488.209	368.12
3491.101	355.12
3493.99	355.12
3496.878	344.12
3499.763	332.12
3502.646	322.12
3505.527	310.12
3508.405	308.12
3511.281	288.12
3514.155	277.12
3517.027	272.12
3519.897	263.12
3522.764	248.12
3525.629	240.12
3528.492	226.12
3531.352	218.12
3534.211	208.12
3537.067	185.12
3539.921	188.12
3542.773	177.12
3545.622	169.12
3548.469	154.12
3551.315	150.12
3554.157	137.12
3556.998	138.12
3559.837	134.12
3562.673	129.12
3565.507	112.12
3568.339	113.12
3571.169	106.12
3573.996	100.12
3576.822	99.12
3579.645	92.12
3582.466	87.12
3585.285	81.12
3588.101	79.12
3590.916	71.12
3593.728	69.12
3596.538	67.12
3599.346	55.12
3602.152	46.12
3604.956	42.12
3607.757	47.12
3610.556	42.12
3613.354	32.12
3616.149	26.12
3618.942	25.12
3621.732	23.12
3624.521	23.12
3627.307	20.12
3630.092	12.12
3632.874	9.12
3635.654	12.12
3638.432	8.12
3641.208	8.12
3643.982	1.12
3646.753	-2.88
3649.523	0.12
3652.29	-7.88
3655.055	-3.88
3657.818	-5.88
3660.579	-9.88
3663.338	-12.88
3666.095	-14.88
3668.849	-16.88
3671.602	-23.88
3674.352	-20.88
3677.101	-26.88
3679.847	-28.88
3682.591	-28.88
3685.333	-28.88
3688.073	-30.88
3690.811	-31.88
3693.547	-36.88
3696.281	-36.88
3699.013	-38.88
3701.742	-36.88
3704.47	-36.88
3707.195	-39.88
3709.919	-43.88
3712.64	-41.88
3715.359	-48.88
3718.076	-46.88
3720.792	-46.88
3723.505	-47.88
3726.216	-49.88
3728.925	-47.88
3731.632	-50.88
3734.336	-51.88
3737.039	-53.88
3739.74	-54.88
3742.439	-53.88
3745.136	-59.88
3747.83	-55.88
3750.523	-54.88
3753.213	-56.88
3755.902	-56.88
3758.589	-53.88
3761.273	-54.88
3763.956	-53.88
3766.636	-54.88
3769.315	-55.88
3771.991	-55.88
3774.665	-55.88
3777.338	-59.88
3780.008	-59.88
3782.677	-56.88
3785.343	-61.88
3788.007	-61.88
3790.67	-59.88
3793.33	-60.88
3795.989	-62.88
3798.645	-62.88
3801.299	-64.88
3803.952	-61.88
3806.602	-65.88
3809.251	-64.88
3811.897	-66.88
3814.542	-60.88
3817.184	-65.88
3819.825	-63.88
3822.463	-66.88
3825.1	-62.88
3827.735	-67.88
3830.367	-64.88
3832.998	-67.88
3835.627	-64.88
3838.253	-65.88
3840.878	-64.88
3843.501	-62.88
3846.122	-64.88
3848.741	-66.88
3851.358	-70.88
3853.973	-66.88
3856.586	-68.88
3859.197	-65.88
3861.806	-66.88
3864.414	-68.88
3867.019	-69.88
3869.622	-70.88
3872.224	-65.88
3874.823	-66.88
3877.421	-63.88
3880.016	-60.88
3882.61	-61.88
3885.202	-63.88
3887.792	-64.88
3890.38	-66.88
3892.966	-65.88
3895.55	-69.88
3898.132	-67.88
3900.713	-68.88
3903.291	-67.88
3905.868	-67.88
3908.442	-70.88
3911.015	-67.88
3913.586	-68.88
3916.155	-72.88
3918.722	-70.88
3921.287	-69.88
3923.85	-70.88
3926.411	-71.88
3928.971	-73.88
3931.528	-74.88
3934.084	-73.88
3936.638	-70.88
3939.19	-72.88
3941.74	-71.88
3944.288	-71.88
3946.834	-72.88
3949.378	-71.88
3951.921	-70.88
3954.462	-72.88
3957	-68.88
3959.537	-70.88
3962.072	-72.88
3964.606	-68.88
3967.137	-72.88
3969.667	-68.88
3972.194	-73.88
3974.72	-71.88
3977.244	-68.88
3979.766	-71.88
3982.286	-67.88
3984.805	-70.88
3987.321	-67.88
3989.836	-74.88
3992.349	-68.88
3994.86	-69.88
3997.369	-66.88
3999.877	-68.88
4002.382	-68.88
4004.886	-65.88
4007.388	-71.88
4009.888	-67.88
4012.386	-68.88
4014.883	-70.88
4017.377	-66.88
4019.87	-70.88
4022.361	-74.88
4024.85	-69.88
4027.338	-72.88
4029.823	-73.88
4032.307	-73.88
4034.789	-70.88
4037.269	-71.88
4039.747	-70.88
4042.224	-71.88
4044.699	-71.88
4047.172	-72.88
4049.643	-70.88
4052.112	-72.88
4054.58	-70.88
4057.046	-68.88
4059.51	-68.88
4061.972	-66.88
4064.432	-66.88
4066.891	-69.88
4069.348	-72.88
4071.803	-70.88
4074.256	-69.88
4076.708	-71.88
4079.158	-67.88
4081.606	-70.88
4084.052	-69.88
4086.497	-73.88
4088.939	-71.88
4091.38	-69.88
4093.819	-67.88
4096.257	-71.88
4098.693	-75.88
4101.127	-74.88
4103.559	-76.88
4105.989	-24.88
4108.418	-18.88
4110.845	-17.88
4113.27	-16.88
4115.694	-11.88
4118.115	-6.88
4120.535	-72.88
4122.954	-67.88
4125.37	-72.88
4127.785	-67.88
4130.198	-69.88
4132.609	-68.88
4135.019	-72.88
4137.427	-73.88
4139.833	-75.88
4142.237	-77.88
