Data from Water2_1000000CFU_RamanShift_11-11-18-915_RamanShift_14-10-44-897.txt Node
Date: Sun Dec 18 14:10:44 IST 2016
User: aro
Spectrometer: QEPB0276
Trigger mode: 0
Integration Time (sec): 5.000000E0
Scans to average: 1
Electric dark correction enabled: true
Nonlinearity correction enabled: false
Boxcar width: 0
XAxis mode: Raman Shifts
Number of Pixels in Spectrum: 1044
>>>>>Begin Spectral Data<<<<<
160.701	0.38
166.742	22.38
172.777	63.38
178.805	200.38
184.826	603.38
190.841	1442.38
196.849	2682.38
202.85	3841.38
208.845	4423.38
214.833	4412.38
220.815	4270.38
226.789	4113.38
232.758	3990.38
238.719	3856.38
244.674	3728.38
250.623	3595.38
256.565	3442.38
262.5	3290.38
268.429	3128.38
274.351	3002.38
280.267	2876.38
286.176	2759.38
292.079	2676.38
297.975	2555.38
303.865	2493.38
309.748	2427.38
315.625	2345.38
321.495	2284.38
327.359	2240.38
333.217	2210.38
339.068	2180.38
344.912	2177.38
350.751	2138.38
356.583	2153.38
362.408	2154.38
368.227	2133.38
374.04	2130.38
379.847	2170.38
385.647	2145.38
391.44	2171.38
397.228	2175.38
403.009	2178.38
408.784	2211.38
414.553	2203.38
420.315	2204.38
426.071	2208.38
431.821	2218.38
437.565	2192.38
443.302	2226.38
449.033	2200.38
454.758	2201.38
460.477	2180.38
466.189	2167.38
471.896	2182.38
477.596	2160.38
483.29	2131.38
488.978	2138.38
494.66	2126.38
500.335	2098.38
506.005	2060.38
511.668	2047.38
517.325	1995.38
522.977	1954.38
528.622	1946.38
534.261	1922.38
539.894	1881.38
545.521	1863.38
551.141	1863.38
556.756	1836.38
562.365	1831.38
567.968	1817.38
573.565	1812.38
579.155	1799.38
584.74	1782.38
590.319	1776.38
595.892	1752.38
601.459	1748.38
607.02	1742.38
612.575	1735.38
618.124	1706.38
623.667	1696.38
629.204	1686.38
634.735	1645.38
640.261	1648.38
645.781	1623.38
651.294	1618.38
656.802	1616.38
662.304	1618.38
667.8	1595.38
673.29	1599.38
678.775	1576.38
684.254	1588.38
689.726	1580.38
695.193	1567.38
700.655	1557.38
706.11	1562.38
711.56	1541.38
717.004	1528.38
722.442	1532.38
727.874	1498.38
733.301	1506.38
738.722	1493.38
744.137	1469.38
749.547	1482.38
754.951	1468.38
760.349	1469.38
765.741	1458.38
771.128	1457.38
776.509	1458.38
781.885	1461.38
787.254	1468.38
792.618	1463.38
797.977	1450.38
803.33	1434.38
808.677	1421.38
814.019	1404.38
819.355	1398.38
824.686	1386.38
830.011	1366.38
835.33	1371.38
840.644	1350.38
845.952	1353.38
851.255	1343.38
856.552	1328.38
861.844	1328.38
867.13	1331.38
872.41	1309.38
877.686	1307.38
882.955	1292.38
888.219	1268.38
893.478	1246.38
898.731	1230.38
903.979	1220.38
909.221	1195.38
914.458	1200.38
919.69	1174.38
924.916	1183.38
930.136	1167.38
935.351	1166.38
940.561	1181.38
945.766	1168.38
950.965	1164.38
956.158	1163.38
961.347	1147.38
966.529	1130.38
971.707	1110.38
976.879	1115.38
982.046	1090.38
987.208	1068.38
992.364	1068.38
997.515	1061.38
1002.66	1071.38
1007.801	1081.38
1012.936	1095.38
1018.066	1104.38
1023.19	1114.38
1028.309	1106.38
1033.423	1123.38
1038.532	1113.38
1043.636	1110.38
1048.734	1095.38
1053.827	1082.38
1058.915	1069.38
1063.998	1061.38
1069.075	1067.38
1074.147	1062.38
1079.214	1056.38
1084.276	1072.38
1089.333	1067.38
1094.385	1070.38
1099.431	1101.38
1104.472	1099.38
1109.509	1082.38
1114.54	1079.38
1119.565	1061.38
1124.586	1065.38
1129.602	1039.38
1134.613	1050.38
1139.618	1040.38
1144.619	1019.38
1149.614	1034.38
1154.604	1033.38
1159.589	1053.38
1164.57	1066.38
1169.545	1049.38
1174.515	1075.38
1179.48	1057.38
1184.44	1057.38
1189.395	1046.38
1194.345	1039.38
1199.29	1035.38
1204.23	1031.38
1209.165	1045.38
1214.095	1048.38
1219.021	1047.38
1223.941	1061.38
1228.856	1057.38
1233.766	1066.38
1238.672	1069.38
1243.572	1078.38
1248.467	1059.38
1253.358	1059.38
1258.244	1052.38
1263.124	1041.38
1268	1010.38
1272.871	1010.38
1277.737	987.38
1282.599	980.38
1287.455	985.38
1292.306	994.38
1297.153	1006.38
1301.995	997.38
1306.832	1019.38
1311.664	1023.38
1316.491	1023.38
1321.314	1020.38
1326.132	1005.38
1330.945	1000.38
1335.753	989.38
1340.556	970.38
1345.354	970.38
1350.148	951.38
1354.937	937.38
1359.722	939.38
1364.501	923.38
1369.276	912.38
1374.046	914.38
1378.811	919.38
1383.572	913.38
1388.327	912.38
1393.079	903.38
1397.825	911.38
1402.567	898.38
1407.304	919.38
1412.036	888.38
1416.764	894.38
1421.487	884.38
1426.205	888.38
1430.919	893.38
1435.628	901.38
1440.333	914.38
1445.032	914.38
1449.727	922.38
1454.418	927.38
1459.104	927.38
1463.785	916.38
1468.462	923.38
1473.134	909.38
1477.802	895.38
1482.465	899.38
1487.123	890.38
1491.777	900.38
1496.426	902.38
1501.071	889.38
1505.711	899.38
1510.347	906.38
1514.978	920.38
1519.604	934.38
1524.226	928.38
1528.844	930.38
1533.457	924.38
1538.065	940.38
1542.669	930.38
1547.269	941.38
1551.864	930.38
1556.454	947.38
1561.041	954.38
1565.622	962.38
1570.199	975.38
1574.772	993.38
1579.34	1005.38
1583.904	1038.38
1588.464	1042.38
1593.019	1065.38
1597.569	1083.38
1602.115	1102.38
1606.657	1104.38
1611.195	1113.38
1615.728	1134.38
1620.256	1136.38
1624.78	1163.38
1629.3	1175.38
1633.816	1184.38
1638.327	1210.38
1642.834	1222.38
1647.336	1239.38
1651.834	1220.38
1656.328	1246.38
1660.817	1238.38
1665.302	1237.38
1669.783	1210.38
1674.259	1163.38
1678.732	1133.38
1683.199	1101.38
1687.663	1060.38
1692.122	1029.38
1696.577	984.38
1701.028	945.38
1705.474	912.38
1709.917	866.38
1714.355	843.38
1718.788	826.38
1723.218	831.38
1727.643	807.38
1732.064	778.38
1736.481	761.38
1740.893	748.38
1745.301	730.38
1749.705	701.38
1754.105	685.38
1758.501	679.38
1762.893	661.38
1767.28	639.38
1771.663	645.38
1776.042	639.38
1780.417	644.38
1784.787	636.38
1789.154	635.38
1793.516	630.38
1797.874	624.38
1802.228	617.38
1806.578	622.38
1810.924	616.38
1815.266	597.38
1819.603	584.38
1823.937	586.38
1828.266	577.38
1832.591	569.38
1836.913	568.38
1841.23	566.38
1845.543	560.38
1849.852	570.38
1854.156	571.38
1858.457	571.38
1862.754	584.38
1867.047	578.38
1871.335	587.38
1875.62	572.38
1879.9	575.38
1884.177	592.38
1888.449	584.38
1892.718	583.38
1896.982	586.38
1901.243	578.38
1905.499	561.38
1909.752	564.38
1914	551.38
1918.245	560.38
1922.485	570.38
1926.722	555.38
1930.954	565.38
1935.183	571.38
1939.408	570.38
1943.628	574.38
1947.845	573.38
1952.058	574.38
1956.267	577.38
1960.472	573.38
1964.673	564.38
1968.87	560.38
1973.063	569.38
1977.252	554.38
1981.438	548.38
1985.619	553.38
1989.797	559.38
1993.971	546.38
1998.14	554.38
2002.306	561.38
2006.469	569.38
2010.627	572.38
2014.781	562.38
2018.932	566.38
2023.078	563.38
2027.221	559.38
2031.36	561.38
2035.495	550.38
2039.627	549.38
2043.754	554.38
2047.878	552.38
2051.998	544.38
2056.114	551.38
2060.226	549.38
2064.334	547.38
2068.439	557.38
2072.54	553.38
2076.637	568.38
2080.73	546.38
2084.82	563.38
2088.906	568.38
2092.988	559.38
2097.066	557.38
2101.14	555.38
2105.211	554.38
2109.278	541.38
2113.342	544.38
2117.401	553.38
2121.457	541.38
2125.509	547.38
2129.558	532.38
2133.602	547.38
2137.643	545.38
2141.681	539.38
2145.714	543.38
2149.744	532.38
2153.77	538.38
2157.793	528.38
2161.812	532.38
2165.827	520.38
2169.838	509.38
2173.846	506.38
2177.851	493.38
2181.851	493.38
2185.848	480.38
2189.841	483.38
2193.831	475.38
2197.817	476.38
2201.799	470.38
2205.778	476.38
2209.753	471.38
2213.725	480.38
2217.693	462.38
2221.657	471.38
2225.618	467.38
2229.575	467.38
2233.529	466.38
2237.479	463.38
2241.425	456.38
2245.368	451.38
2249.307	459.38
2253.243	447.38
2257.175	440.38
2261.104	434.38
2265.029	427.38
2268.95	429.38
2272.868	415.38
2276.783	413.38
2280.694	403.38
2284.601	399.38
2288.505	398.38
2292.405	388.38
2296.302	381.38
2300.195	384.38
2304.085	383.38
2307.971	379.38
2311.854	374.38
2315.734	364.38
2319.609	361.38
2323.482	361.38
2327.351	348.38
2331.216	354.38
2335.078	350.38
2338.937	350.38
2342.792	344.38
2346.643	339.38
2350.492	335.38
2354.336	335.38
2358.178	339.38
2362.015	338.38
2365.85	334.38
2369.681	333.38
2373.508	340.38
2377.333	345.38
2381.153	334.38
2384.971	334.38
2388.785	343.38
2392.595	341.38
2396.402	340.38
2400.206	332.38
2404.007	330.38
2407.804	334.38
2411.597	334.38
2415.388	332.38
2419.174	332.38
2422.958	324.38
2426.738	327.38
2430.515	331.38
2434.289	317.38
2438.059	314.38
2441.825	315.38
2445.589	313.38
2449.349	308.38
2453.106	301.38
2456.859	307.38
2460.61	294.38
2464.356	303.38
2468.1	306.38
2471.84	292.38
2475.577	298.38
2479.311	300.38
2483.041	299.38
2486.768	297.38
2490.492	298.38
2494.213	305.38
2497.93	300.38
2501.644	295.38
2505.355	298.38
2509.062	300.38
2512.766	297.38
2516.467	291.38
2520.165	297.38
2523.859	288.38
2527.551	290.38
2531.239	290.38
2534.923	271.38
2538.605	273.38
2542.283	280.38
2545.958	270.38
2549.63	264.38
2553.299	273.38
2556.964	267.38
2560.626	266.38
2564.285	273.38
2567.941	265.38
2571.594	266.38
2575.243	257.38
2578.89	260.38
2582.533	266.38
2586.173	266.38
2589.809	256.38
2593.443	258.38
2597.073	249.38
2600.701	254.38
2604.325	254.38
2607.946	243.38
2611.564	249.38
2615.178	250.38
2618.79	245.38
2622.398	249.38
2626.004	246.38
2629.606	246.38
2633.205	241.38
2636.801	240.38
2640.394	233.38
2643.983	231.38
2647.57	230.38
2651.153	231.38
2654.734	232.38
2658.311	228.38
2661.885	223.38
2665.456	229.38
2669.025	221.38
2672.589	219.38
2676.151	221.38
2679.71	219.38
2683.266	217.38
2686.819	212.38
2690.368	213.38
2693.915	205.38
2697.458	214.38
2700.999	209.38
2704.536	202.38
2708.071	199.38
2711.602	201.38
2715.13	193.38
2718.656	203.38
2722.178	197.38
2725.697	200.38
2729.214	197.38
2732.727	203.38
2736.237	204.38
2739.744	214.38
2743.249	212.38
2746.75	207.38
2750.248	203.38
2753.743	201.38
2757.236	205.38
2760.725	199.38
2764.211	202.38
2767.695	201.38
2771.175	192.38
2774.652	192.38
2778.127	192.38
2781.598	187.38
2785.067	189.38
2788.532	187.38
2791.995	188.38
2795.455	186.38
2798.911	200.38
2802.365	199.38
2805.816	198.38
2809.264	199.38
2812.709	203.38
2816.151	201.38
2819.59	205.38
2823.026	207.38
2826.46	208.38
2829.89	196.38
2833.318	208.38
2836.742	209.38
2840.164	204.38
2843.583	208.38
2846.999	205.38
2850.412	212.38
2853.822	211.38
2857.229	212.38
2860.634	215.38
2864.035	228.38
2867.434	219.38
2870.83	221.38
2874.223	226.38
2877.613	233.38
2881	235.38
2884.385	234.38
2887.766	237.38
2891.145	241.38
2894.521	245.38
2897.894	242.38
2901.264	241.38
2904.631	246.38
2907.996	255.38
2911.358	247.38
2914.717	250.38
2918.073	248.38
2921.426	257.38
2924.777	254.38
2928.124	269.38
2931.469	269.38
2934.811	269.38
2938.15	273.38
2941.487	285.38
2944.821	287.38
2948.152	288.38
2951.48	290.38
2954.805	297.38
2958.128	305.38
2961.447	303.38
2964.765	309.38
2968.079	316.38
2971.39	329.38
2974.699	319.38
2978.005	334.38
2981.308	347.38
2984.609	352.38
2987.907	350.38
2991.202	364.38
2994.494	372.38
2997.784	381.38
3001.07	390.38
3004.355	405.38
3007.636	405.38
3010.915	428.38
3014.191	429.38
3017.464	438.38
3020.734	445.38
3024.002	458.38
3027.267	456.38
3030.53	474.38
3033.789	472.38
3037.046	489.38
3040.301	492.38
3043.552	508.38
3046.801	522.38
3050.048	532.38
3053.291	553.38
3056.532	563.38
3059.771	585.38
3063.006	606.38
3066.239	616.38
3069.469	644.38
3072.697	646.38
3075.922	677.38
3079.144	682.38
3082.364	701.38
3085.581	711.38
3088.795	734.38
3092.007	755.38
3095.216	759.38
3098.423	774.38
3101.627	789.38
3104.828	814.38
3108.026	839.38
3111.222	844.38
3114.416	871.38
3117.607	885.38
3120.795	893.38
3123.98	925.38
3127.163	945.38
3130.344	972.38
3133.521	992.38
3136.696	998.38
3139.869	1032.38
3143.039	1036.38
3146.206	1048.38
3149.371	1078.38
3152.533	1082.38
3155.693	1095.38
3158.85	1109.38
3162.005	1114.38
3165.157	1120.38
3168.306	1124.38
3171.453	1118.38
3174.597	1126.38
3177.739	1139.38
3180.878	1146.38
3184.014	1141.38
3187.149	1153.38
3190.28	1170.38
3193.409	1168.38
3196.536	1169.38
3199.659	1152.38
3202.781	1172.38
3205.9	1183.38
3209.016	1177.38
3212.13	1171.38
3215.241	1160.38
3218.35	1172.38
3221.456	1150.38
3224.56	1142.38
3227.661	1137.38
3230.76	1113.38
3233.856	1110.38
3236.95	1095.38
3240.041	1081.38
3243.13	1083.38
3246.216	1069.38
3249.3	1058.38
3252.382	1044.38
3255.46	1037.38
3258.537	1038.38
3261.611	1053.38
3264.682	1026.38
3267.751	1034.38
3270.818	1022.38
3273.882	1017.38
3276.943	1024.38
3280.002	1008.38
3283.059	1003.38
3286.113	1001.38
3289.165	997.38
3292.214	969.38
3295.261	957.38
3298.306	943.38
3301.348	918.38
3304.387	925.38
3307.425	912.38
3310.459	901.38
3313.492	891.38
3316.521	868.38
3319.549	867.38
3322.574	856.38
3325.597	856.38
3328.617	852.38
3331.635	856.38
3334.65	837.38
3337.663	835.38
3340.674	834.38
3343.682	827.38
3346.688	829.38
3349.691	824.38
3352.692	818.38
3355.691	804.38
3358.687	809.38
3361.681	815.38
3364.673	789.38
3367.662	780.38
3370.649	768.38
3373.633	774.38
3376.615	758.38
3379.595	744.38
3382.572	747.38
3385.547	723.38
3388.52	721.38
3391.49	713.38
3394.458	695.38
3397.424	682.38
3400.387	684.38
3403.348	676.38
3406.307	672.38
3409.263	650.38
3412.217	662.38
3415.168	642.38
3418.118	651.38
3421.065	627.38
3424.009	629.38
3426.951	618.38
3429.891	599.38
3432.829	598.38
3435.764	593.38
3438.697	582.38
3441.628	556.38
3444.557	553.38
3447.483	540.38
3450.407	527.38
3453.328	516.38
3456.247	484.38
3459.164	487.38
3462.079	483.38
3464.991	457.38
3467.902	456.38
3470.809	439.38
3473.715	415.38
3476.618	399.38
3479.519	394.38
3482.418	384.38
3485.315	372.38
3488.209	363.38
3491.101	352.38
3493.99	339.38
3496.878	339.38
3499.763	329.38
3502.646	316.38
3505.527	313.38
3508.405	300.38
3511.281	291.38
3514.155	273.38
3517.027	269.38
3519.897	251.38
3522.764	246.38
3525.629	233.38
3528.492	224.38
3531.352	219.38
3534.211	200.38
3537.067	190.38
3539.921	190.38
3542.773	174.38
3545.622	165.38
3548.469	155.38
3551.315	150.38
3554.157	136.38
3556.998	130.38
3559.837	133.38
3562.673	120.38
3565.507	114.38
3568.339	114.38
3571.169	108.38
3573.996	99.38
3576.822	88.38
3579.645	90.38
3582.466	86.38
3585.285	78.38
3588.101	72.38
3590.916	70.38
3593.728	59.38
3596.538	59.38
3599.346	54.38
3602.152	52.38
3604.956	44.38
3607.757	44.38
3610.556	37.38
3613.354	34.38
3616.149	26.38
3618.942	30.38
3621.732	25.38
3624.521	24.38
3627.307	22.38
3630.092	14.38
3632.874	13.38
3635.654	12.38
3638.432	8.38
3641.208	11.38
3643.982	2.38
3646.753	0.38
3649.523	-2.62
3652.29	-4.62
3655.055	-8.62
3657.818	-11.62
3660.579	-10.62
3663.338	-15.62
3666.095	-17.62
3668.849	-11.62
3671.602	-20.62
3674.352	-20.62
3677.101	-21.62
3679.847	-22.62
3682.591	-26.62
3685.333	-31.62
3688.073	-31.62
3690.811	-32.62
3693.547	-33.62
3696.281	-34.62
3699.013	-38.62
3701.742	-37.62
3704.47	-40.62
3707.195	-47.62
3709.919	-43.62
3712.64	-44.62
3715.359	-48.62
3718.076	-44.62
3720.792	-44.62
3723.505	-48.62
3726.216	-48.62
3728.925	-47.62
3731.632	-49.62
3734.336	-52.62
3737.039	-49.62
3739.74	-51.62
3742.439	-51.62
3745.136	-53.62
3747.83	-52.62
3750.523	-51.62
3753.213	-52.62
3755.902	-53.62
3758.589	-49.62
3761.273	-59.62
3763.956	-56.62
3766.636	-54.62
3769.315	-60.62
3771.991	-54.62
3774.665	-56.62
3777.338	-59.62
3780.008	-61.62
3782.677	-58.62
3785.343	-59.62
3788.007	-59.62
3790.67	-57.62
3793.33	-61.62
3795.989	-59.62
3798.645	-60.62
3801.299	-62.62
3803.952	-60.62
3806.602	-63.62
3809.251	-64.62
3811.897	-62.62
3814.542	-62.62
3817.184	-63.62
3819.825	-63.62
3822.463	-63.62
3825.1	-63.62
3827.735	-66.62
3830.367	-65.62
3832.998	-66.62
3835.627	-64.62
3838.253	-65.62
3840.878	-64.62
3843.501	-62.62
3846.122	-63.62
3848.741	-66.62
3851.358	-65.62
3853.973	-66.62
3856.586	-66.62
3859.197	-63.62
3861.806	-65.62
3864.414	-65.62
3867.019	-66.62
3869.622	-66.62
3872.224	-65.62
3874.823	-65.62
3877.421	-62.62
3880.016	-59.62
3882.61	-60.62
3885.202	-59.62
3887.792	-60.62
3890.38	-64.62
3892.966	-61.62
3895.55	-66.62
3898.132	-67.62
3900.713	-65.62
3903.291	-64.62
3905.868	-70.62
3908.442	-67.62
3911.015	-67.62
3913.586	-69.62
3916.155	-70.62
3918.722	-72.62
3921.287	-67.62
3923.85	-69.62
3926.411	-71.62
3928.971	-71.62
3931.528	-71.62
3934.084	-72.62
3936.638	-68.62
3939.19	-68.62
3941.74	-66.62
3944.288	-69.62
3946.834	-67.62
3949.378	-69.62
3951.921	-69.62
3954.462	-68.62
3957	-67.62
3959.537	-69.62
3962.072	-72.62
3964.606	-65.62
3967.137	-70.62
3969.667	-69.62
3972.194	-73.62
3974.72	-71.62
3977.244	-68.62
3979.766	-71.62
3982.286	-68.62
3984.805	-67.62
3987.321	-68.62
3989.836	-67.62
3992.349	-66.62
3994.86	-66.62
3997.369	-64.62
3999.877	-66.62
4002.382	-65.62
4004.886	-66.62
4007.388	-71.62
4009.888	-69.62
4012.386	-68.62
4014.883	-65.62
4017.377	-70.62
4019.87	-69.62
4022.361	-70.62
4024.85	-70.62
4027.338	-67.62
4029.823	-67.62
4032.307	-71.62
4034.789	-70.62
4037.269	-70.62
4039.747	-72.62
4042.224	-70.62
4044.699	-69.62
4047.172	-71.62
4049.643	-68.62
4052.112	-70.62
4054.58	-69.62
4057.046	-67.62
4059.51	-68.62
4061.972	-65.62
4064.432	-64.62
4066.891	-69.62
4069.348	-68.62
4071.803	-64.62
4074.256	-69.62
4076.708	-72.62
4079.158	-68.62
4081.606	-69.62
4084.052	-72.62
4086.497	-74.62
4088.939	-70.62
4091.38	-72.62
4093.819	-71.62
4096.257	-70.62
4098.693	-75.62
4101.127	-72.62
4103.559	-71.62
4105.989	-20.62
4108.418	-15.62
4110.845	-15.62
4113.27	-12.62
4115.694	-6.62
4118.115	-5.62
4120.535	-71.62
4122.954	-67.62
4125.37	-70.62
4127.785	-66.62
4130.198	-69.62
4132.609	-66.62
4135.019	-71.62
4137.427	-69.62
4139.833	-73.62
4142.237	-71.62
