Data from Water3_100000000CFU_RamanShift_11-11-18-915_RamanShift_14-28-41-324.txt Node
Date: Sun Dec 18 14:28:41 IST 2016
User: aro
Spectrometer: QEPB0276
Trigger mode: 0
Integration Time (sec): 5.000000E0
Scans to average: 1
Electric dark correction enabled: true
Nonlinearity correction enabled: false
Boxcar width: 0
XAxis mode: Raman Shifts
Number of Pixels in Spectrum: 1044
>>>>>Begin Spectral Data<<<<<
160.701	6.12
166.742	16.12
172.777	48.12
178.805	143.12
184.826	432.12
190.841	1020.12
196.849	1878.12
202.85	2703.12
208.845	3078.12
214.833	3107.12
220.815	2981.12
226.789	2855.12
232.758	2812.12
238.719	2718.12
244.674	2636.12
250.623	2525.12
256.565	2414.12
262.5	2300.12
268.429	2205.12
274.351	2106.12
280.267	2011.12
286.176	1949.12
292.079	1870.12
297.975	1809.12
303.865	1750.12
309.748	1701.12
315.625	1662.12
321.495	1628.12
327.359	1581.12
333.217	1553.12
339.068	1565.12
344.912	1546.12
350.751	1542.12
356.583	1524.12
362.408	1524.12
368.227	1533.12
374.04	1543.12
379.847	1561.12
385.647	1549.12
391.44	1553.12
397.228	1560.12
403.009	1585.12
408.784	1577.12
414.553	1582.12
420.315	1574.12
426.071	1582.12
431.821	1575.12
437.565	1592.12
443.302	1583.12
449.033	1586.12
454.758	1565.12
460.477	1559.12
466.189	1574.12
471.896	1553.12
477.596	1532.12
483.29	1530.12
488.978	1522.12
494.66	1527.12
500.335	1511.12
506.005	1490.12
511.668	1446.12
517.325	1413.12
522.977	1399.12
528.622	1357.12
534.261	1333.12
539.894	1319.12
545.521	1305.12
551.141	1294.12
556.756	1279.12
562.365	1278.12
567.968	1267.12
573.565	1253.12
579.155	1244.12
584.74	1237.12
590.319	1231.12
595.892	1232.12
601.459	1226.12
607.02	1217.12
612.575	1201.12
618.124	1191.12
623.667	1176.12
629.204	1162.12
634.735	1148.12
640.261	1135.12
645.781	1123.12
651.294	1117.12
656.802	1103.12
662.304	1120.12
667.8	1112.12
673.29	1096.12
678.775	1099.12
684.254	1084.12
689.726	1080.12
695.193	1071.12
700.655	1070.12
706.11	1058.12
711.56	1051.12
717.004	1058.12
722.442	1043.12
727.874	1031.12
733.301	1026.12
738.722	1032.12
744.137	1024.12
749.547	1005.12
754.951	996.12
760.349	1010.12
765.741	1010.12
771.128	1010.12
776.509	999.12
781.885	1005.12
787.254	1002.12
792.618	993.12
797.977	995.12
803.33	993.12
808.677	971.12
814.019	978.12
819.355	971.12
824.686	946.12
830.011	936.12
835.33	939.12
840.644	926.12
845.952	913.12
851.255	913.12
856.552	923.12
861.844	892.12
867.13	893.12
872.41	902.12
877.686	891.12
882.955	885.12
888.219	879.12
893.478	869.12
898.731	839.12
903.979	815.12
909.221	807.12
914.458	798.12
919.69	790.12
924.916	799.12
930.136	786.12
935.351	768.12
940.561	782.12
945.766	783.12
950.965	769.12
956.158	768.12
961.347	769.12
966.529	750.12
971.707	749.12
976.879	726.12
982.046	728.12
987.208	712.12
992.364	714.12
997.515	715.12
1002.66	717.12
1007.801	718.12
1012.936	722.12
1018.066	728.12
1023.19	727.12
1028.309	735.12
1033.423	730.12
1038.532	734.12
1043.636	740.12
1048.734	728.12
1053.827	723.12
1058.915	716.12
1063.998	723.12
1069.075	705.12
1074.147	706.12
1079.214	720.12
1084.276	709.12
1089.333	721.12
1094.385	721.12
1099.431	724.12
1104.472	742.12
1109.509	724.12
1114.54	709.12
1119.565	702.12
1124.586	687.12
1129.602	701.12
1134.613	678.12
1139.618	687.12
1144.619	677.12
1149.614	670.12
1154.604	683.12
1159.589	687.12
1164.57	686.12
1169.545	693.12
1174.515	698.12
1179.48	699.12
1184.44	678.12
1189.395	671.12
1194.345	689.12
1199.29	673.12
1204.23	677.12
1209.165	683.12
1214.095	682.12
1219.021	688.12
1223.941	696.12
1228.856	696.12
1233.766	695.12
1238.672	709.12
1243.572	700.12
1248.467	678.12
1253.358	686.12
1258.244	688.12
1263.124	672.12
1268	667.12
1272.871	665.12
1277.737	651.12
1282.599	635.12
1287.455	647.12
1292.306	648.12
1297.153	653.12
1301.995	649.12
1306.832	654.12
1311.664	657.12
1316.491	661.12
1321.314	671.12
1326.132	650.12
1330.945	644.12
1335.753	643.12
1340.556	621.12
1345.354	615.12
1350.148	611.12
1354.937	608.12
1359.722	595.12
1364.501	586.12
1369.276	593.12
1374.046	592.12
1378.811	585.12
1383.572	590.12
1388.327	606.12
1393.079	586.12
1397.825	586.12
1402.567	587.12
1407.304	589.12
1412.036	570.12
1416.764	568.12
1421.487	568.12
1426.205	579.12
1430.919	571.12
1435.628	578.12
1440.333	588.12
1445.032	597.12
1449.727	603.12
1454.418	594.12
1459.104	601.12
1463.785	593.12
1468.462	589.12
1473.134	584.12
1477.802	582.12
1482.465	577.12
1487.123	568.12
1491.777	569.12
1496.426	573.12
1501.071	571.12
1505.711	578.12
1510.347	577.12
1514.978	588.12
1519.604	595.12
1524.226	593.12
1528.844	599.12
1533.457	604.12
1538.065	598.12
1542.669	600.12
1547.269	604.12
1551.864	610.12
1556.454	607.12
1561.041	620.12
1565.622	624.12
1570.199	628.12
1574.772	647.12
1579.34	645.12
1583.904	673.12
1588.464	679.12
1593.019	698.12
1597.569	705.12
1602.115	707.12
1606.657	725.12
1611.195	733.12
1615.728	737.12
1620.256	745.12
1624.78	750.12
1629.3	768.12
1633.816	784.12
1638.327	787.12
1642.834	805.12
1647.336	814.12
1651.834	820.12
1656.328	816.12
1660.817	808.12
1665.302	799.12
1669.783	778.12
1674.259	777.12
1678.732	745.12
1683.199	709.12
1687.663	685.12
1692.122	657.12
1696.577	623.12
1701.028	596.12
1705.474	586.12
1709.917	559.12
1714.355	541.12
1718.788	530.12
1723.218	522.12
1727.643	523.12
1732.064	496.12
1736.481	480.12
1740.893	462.12
1745.301	458.12
1749.705	442.12
1754.105	427.12
1758.501	421.12
1762.893	412.12
1767.28	395.12
1771.663	395.12
1776.042	392.12
1780.417	379.12
1784.787	395.12
1789.154	387.12
1793.516	382.12
1797.874	380.12
1802.228	386.12
1806.578	388.12
1810.924	384.12
1815.266	370.12
1819.603	374.12
1823.937	357.12
1828.266	362.12
1832.591	353.12
1836.913	359.12
1841.23	347.12
1845.543	350.12
1849.852	351.12
1854.156	355.12
1858.457	362.12
1862.754	359.12
1867.047	352.12
1871.335	362.12
1875.62	351.12
1879.9	355.12
1884.177	353.12
1888.449	353.12
1892.718	351.12
1896.982	348.12
1901.243	342.12
1905.499	331.12
1909.752	341.12
1914	349.12
1918.245	346.12
1922.485	339.12
1926.722	343.12
1930.954	347.12
1935.183	347.12
1939.408	363.12
1943.628	356.12
1947.845	354.12
1952.058	361.12
1956.267	357.12
1960.472	343.12
1964.673	348.12
1968.87	342.12
1973.063	341.12
1977.252	329.12
1981.438	350.12
1985.619	337.12
1989.797	336.12
1993.971	335.12
1998.14	337.12
2002.306	336.12
2006.469	338.12
2010.627	350.12
2014.781	336.12
2018.932	341.12
2023.078	334.12
2027.221	345.12
2031.36	343.12
2035.495	342.12
2039.627	339.12
2043.754	343.12
2047.878	329.12
2051.998	340.12
2056.114	339.12
2060.226	333.12
2064.334	335.12
2068.439	349.12
2072.54	347.12
2076.637	345.12
2080.73	343.12
2084.82	346.12
2088.906	344.12
2092.988	345.12
2097.066	348.12
2101.14	344.12
2105.211	347.12
2109.278	342.12
2113.342	336.12
2117.401	337.12
2121.457	332.12
2125.509	336.12
2129.558	341.12
2133.602	329.12
2137.643	337.12
2141.681	328.12
2145.714	339.12
2149.744	330.12
2153.77	321.12
2157.793	338.12
2161.812	319.12
2165.827	313.12
2169.838	307.12
2173.846	309.12
2177.851	294.12
2181.851	296.12
2185.848	291.12
2189.841	292.12
2193.831	286.12
2197.817	293.12
2201.799	280.12
2205.778	276.12
2209.753	289.12
2213.725	295.12
2217.693	286.12
2221.657	284.12
2225.618	287.12
2229.575	279.12
2233.529	282.12
2237.479	278.12
2241.425	274.12
2245.368	267.12
2249.307	268.12
2253.243	264.12
2257.175	256.12
2261.104	249.12
2265.029	242.12
2268.95	243.12
2272.868	249.12
2276.783	244.12
2280.694	249.12
2284.601	232.12
2288.505	229.12
2292.405	235.12
2296.302	222.12
2300.195	227.12
2304.085	220.12
2307.971	220.12
2311.854	215.12
2315.734	216.12
2319.609	212.12
2323.482	214.12
2327.351	208.12
2331.216	205.12
2335.078	210.12
2338.937	204.12
2342.792	197.12
2346.643	203.12
2350.492	194.12
2354.336	201.12
2358.178	192.12
2362.015	190.12
2365.85	198.12
2369.681	192.12
2373.508	199.12
2377.333	196.12
2381.153	190.12
2384.971	199.12
2388.785	199.12
2392.595	201.12
2396.402	197.12
2400.206	199.12
2404.007	191.12
2407.804	186.12
2411.597	198.12
2415.388	190.12
2419.174	185.12
2422.958	186.12
2426.738	187.12
2430.515	186.12
2434.289	183.12
2438.059	182.12
2441.825	187.12
2445.589	179.12
2449.349	181.12
2453.106	176.12
2456.859	169.12
2460.61	175.12
2464.356	174.12
2468.1	173.12
2471.84	169.12
2475.577	164.12
2479.311	166.12
2483.041	171.12
2486.768	163.12
2490.492	165.12
2494.213	177.12
2497.93	174.12
2501.644	173.12
2505.355	167.12
2509.062	168.12
2512.766	166.12
2516.467	164.12
2520.165	159.12
2523.859	159.12
2527.551	159.12
2531.239	156.12
2534.923	161.12
2538.605	151.12
2542.283	151.12
2545.958	156.12
2549.63	157.12
2553.299	156.12
2556.964	158.12
2560.626	151.12
2564.285	155.12
2567.941	152.12
2571.594	149.12
2575.243	150.12
2578.89	150.12
2582.533	157.12
2586.173	150.12
2589.809	141.12
2593.443	147.12
2597.073	139.12
2600.701	148.12
2604.325	147.12
2607.946	137.12
2611.564	139.12
2615.178	140.12
2618.79	139.12
2622.398	138.12
2626.004	140.12
2629.606	136.12
2633.205	136.12
2636.801	140.12
2640.394	132.12
2643.983	136.12
2647.57	127.12
2651.153	132.12
2654.734	130.12
2658.311	134.12
2661.885	133.12
2665.456	126.12
2669.025	131.12
2672.589	124.12
2676.151	119.12
2679.71	125.12
2683.266	115.12
2686.819	121.12
2690.368	122.12
2693.915	117.12
2697.458	116.12
2700.999	120.12
2704.536	118.12
2708.071	112.12
2711.602	115.12
2715.13	110.12
2718.656	117.12
2722.178	113.12
2725.697	110.12
2729.214	114.12
2732.727	120.12
2736.237	116.12
2739.744	112.12
2743.249	111.12
2746.75	117.12
2750.248	117.12
2753.743	118.12
2757.236	119.12
2760.725	108.12
2764.211	111.12
2767.695	114.12
2771.175	114.12
2774.652	111.12
2778.127	108.12
2781.598	107.12
2785.067	111.12
2788.532	114.12
2791.995	112.12
2795.455	114.12
2798.911	120.12
2802.365	116.12
2805.816	124.12
2809.264	118.12
2812.709	121.12
2816.151	117.12
2819.59	123.12
2823.026	122.12
2826.46	120.12
2829.89	123.12
2833.318	121.12
2836.742	123.12
2840.164	126.12
2843.583	127.12
2846.999	120.12
2850.412	129.12
2853.822	132.12
2857.229	135.12
2860.634	136.12
2864.035	138.12
2867.434	151.12
2870.83	145.12
2874.223	142.12
2877.613	153.12
2881	152.12
2884.385	158.12
2887.766	155.12
2891.145	148.12
2894.521	154.12
2897.894	151.12
2901.264	158.12
2904.631	159.12
2907.996	160.12
2911.358	159.12
2914.717	153.12
2918.073	155.12
2921.426	163.12
2924.777	167.12
2928.124	178.12
2931.469	178.12
2934.811	177.12
2938.15	188.12
2941.487	186.12
2944.821	194.12
2948.152	194.12
2951.48	200.12
2954.805	198.12
2958.128	204.12
2961.447	201.12
2964.765	209.12
2968.079	206.12
2971.39	213.12
2974.699	221.12
2978.005	221.12
2981.308	219.12
2984.609	237.12
2987.907	238.12
2991.202	235.12
2994.494	241.12
2997.784	262.12
3001.07	265.12
3004.355	274.12
3007.636	278.12
3010.915	285.12
3014.191	294.12
3017.464	301.12
3020.734	298.12
3024.002	308.12
3027.267	315.12
3030.53	327.12
3033.789	319.12
3037.046	327.12
3040.301	339.12
3043.552	352.12
3046.801	359.12
3050.048	354.12
3053.291	381.12
3056.532	393.12
3059.771	398.12
3063.006	413.12
3066.239	421.12
3069.469	432.12
3072.697	445.12
3075.922	459.12
3079.144	467.12
3082.364	492.12
3085.581	507.12
3088.795	507.12
3092.007	516.12
3095.216	534.12
3098.423	546.12
3101.627	552.12
3104.828	568.12
3108.026	573.12
3111.222	587.12
3114.416	599.12
3117.607	607.12
3120.795	630.12
3123.98	650.12
3127.163	668.12
3130.344	687.12
3133.521	686.12
3136.696	712.12
3139.869	718.12
3143.039	734.12
3146.206	746.12
3149.371	761.12
3152.533	764.12
3155.693	776.12
3158.85	772.12
3162.005	783.12
3165.157	785.12
3168.306	787.12
3171.453	793.12
3174.597	795.12
3177.739	787.12
3180.878	803.12
3184.014	793.12
3187.149	820.12
3190.28	822.12
3193.409	813.12
3196.536	810.12
3199.659	827.12
3202.781	827.12
3205.9	828.12
3209.016	832.12
3212.13	819.12
3215.241	817.12
3218.35	824.12
3221.456	808.12
3224.56	804.12
3227.661	794.12
3230.76	783.12
3233.856	771.12
3236.95	785.12
3240.041	762.12
3243.13	765.12
3246.216	742.12
3249.3	747.12
3252.382	742.12
3255.46	738.12
3258.537	741.12
3261.611	731.12
3264.682	732.12
3267.751	734.12
3270.818	725.12
3273.882	715.12
3276.943	719.12
3280.002	708.12
3283.059	712.12
3286.113	706.12
3289.165	696.12
3292.214	690.12
3295.261	688.12
3298.306	667.12
3301.348	659.12
3304.387	639.12
3307.425	635.12
3310.459	627.12
3313.492	631.12
3316.521	621.12
3319.549	612.12
3322.574	614.12
3325.597	604.12
3328.617	599.12
3331.635	593.12
3334.65	601.12
3337.663	591.12
3340.674	587.12
3343.682	581.12
3346.688	588.12
3349.691	581.12
3352.692	583.12
3355.691	582.12
3358.687	573.12
3361.681	571.12
3364.673	563.12
3367.662	561.12
3370.649	552.12
3373.633	548.12
3376.615	535.12
3379.595	520.12
3382.572	529.12
3385.547	521.12
3388.52	508.12
3391.49	495.12
3394.458	498.12
3397.424	495.12
3400.387	487.12
3403.348	482.12
3406.307	472.12
3409.263	480.12
3412.217	472.12
3415.168	455.12
3418.118	462.12
3421.065	455.12
3424.009	451.12
3426.951	439.12
3429.891	438.12
3432.829	420.12
3435.764	413.12
3438.697	408.12
3441.628	399.12
3444.557	394.12
3447.483	385.12
3450.407	382.12
3453.328	359.12
3456.247	356.12
3459.164	346.12
3462.079	337.12
3464.991	324.12
3467.902	309.12
3470.809	313.12
3473.715	296.12
3476.618	284.12
3479.519	291.12
3482.418	276.12
3485.315	265.12
3488.209	260.12
3491.101	256.12
3493.99	247.12
3496.878	232.12
3499.763	234.12
3502.646	222.12
3505.527	220.12
3508.405	213.12
3511.281	211.12
3514.155	198.12
3517.027	195.12
3519.897	182.12
3522.764	171.12
3525.629	169.12
3528.492	163.12
3531.352	156.12
3534.211	141.12
3537.067	144.12
3539.921	137.12
3542.773	127.12
3545.622	125.12
3548.469	111.12
3551.315	109.12
3554.157	99.12
3556.998	99.12
3559.837	92.12
3562.673	79.12
3565.507	80.12
3568.339	77.12
3571.169	70.12
3573.996	64.12
3576.822	66.12
3579.645	65.12
3582.466	61.12
3585.285	49.12
3588.101	53.12
3590.916	53.12
3593.728	46.12
3596.538	45.12
3599.346	41.12
3602.152	41.12
3604.956	39.12
3607.757	35.12
3610.556	30.12
3613.354	21.12
3616.149	17.12
3618.942	20.12
3621.732	19.12
3624.521	12.12
3627.307	9.12
3630.092	3.12
3632.874	2.12
3635.654	1.12
3638.432	1.12
3641.208	3.12
3643.982	0.12
3646.753	-0.88
3649.523	-4.88
3652.29	-2.88
3655.055	-4.88
3657.818	-8.88
3660.579	-8.88
3663.338	-10.88
3666.095	-11.88
3668.849	-6.88
3671.602	-13.88
3674.352	-15.88
3677.101	-13.88
3679.847	-18.88
3682.591	-18.88
3685.333	-22.88
3688.073	-22.88
3690.811	-24.88
3693.547	-27.88
3696.281	-28.88
3699.013	-31.88
3701.742	-27.88
3704.47	-30.88
3707.195	-26.88
3709.919	-33.88
3712.64	-29.88
3715.359	-34.88
3718.076	-33.88
3720.792	-29.88
3723.505	-33.88
3726.216	-30.88
3728.925	-33.88
3731.632	-30.88
3734.336	-35.88
3737.039	-34.88
3739.74	-36.88
3742.439	-37.88
3745.136	-44.88
3747.83	-40.88
3750.523	-37.88
3753.213	-37.88
3755.902	-43.88
3758.589	-39.88
3761.273	-44.88
3763.956	-41.88
3766.636	-41.88
3769.315	-43.88
3771.991	-37.88
3774.665	-36.88
3777.338	-42.88
3780.008	-41.88
3782.677	-34.88
3785.343	-42.88
3788.007	-38.88
3790.67	-40.88
3793.33	-44.88
3795.989	-44.88
3798.645	-44.88
3801.299	-44.88
3803.952	-47.88
3806.602	-46.88
3809.251	-48.88
3811.897	-46.88
3814.542	-47.88
3817.184	-50.88
3819.825	-46.88
3822.463	-46.88
3825.1	-47.88
3827.735	-47.88
3830.367	-46.88
3832.998	-46.88
3835.627	-46.88
3838.253	-46.88
3840.878	-41.88
3843.501	-44.88
3846.122	-43.88
3848.741	-44.88
3851.358	-46.88
3853.973	-44.88
3856.586	-46.88
3859.197	-47.88
3861.806	-50.88
3864.414	-49.88
3867.019	-48.88
3869.622	-50.88
3872.224	-48.88
3874.823	-49.88
3877.421	-44.88
3880.016	-42.88
3882.61	-41.88
3885.202	-40.88
3887.792	-42.88
3890.38	-43.88
3892.966	-44.88
3895.55	-48.88
3898.132	-51.88
3900.713	-46.88
3903.291	-46.88
3905.868	-47.88
3908.442	-49.88
3911.015	-46.88
3913.586	-48.88
3916.155	-50.88
3918.722	-47.88
3921.287	-45.88
3923.85	-50.88
3926.411	-55.88
3928.971	-54.88
3931.528	-50.88
3934.084	-50.88
3936.638	-50.88
3939.19	-50.88
3941.74	-47.88
3944.288	-51.88
3946.834	-51.88
3949.378	-48.88
3951.921	-49.88
3954.462	-48.88
3957	-46.88
3959.537	-48.88
3962.072	-46.88
3964.606	-45.88
3967.137	-50.88
3969.667	-47.88
3972.194	-53.88
3974.72	-51.88
3977.244	-45.88
3979.766	-50.88
3982.286	-48.88
3984.805	-50.88
3987.321	-50.88
3989.836	-52.88
3992.349	-47.88
3994.86	-46.88
3997.369	-49.88
3999.877	-46.88
4002.382	-45.88
4004.886	-48.88
4007.388	-47.88
4009.888	-46.88
4012.386	-46.88
4014.883	-48.88
4017.377	-47.88
4019.87	-50.88
4022.361	-53.88
4024.85	-52.88
4027.338	-51.88
4029.823	-48.88
4032.307	-50.88
4034.789	-50.88
4037.269	-48.88
4039.747	-48.88
4042.224	-49.88
4044.699	-49.88
4047.172	-47.88
4049.643	-48.88
4052.112	-48.88
4054.58	-47.88
4057.046	-46.88
4059.51	-49.88
4061.972	-47.88
4064.432	-48.88
4066.891	-49.88
4069.348	-49.88
4071.803	-48.88
4074.256	-51.88
4076.708	-51.88
4079.158	-46.88
4081.606	-50.88
4084.052	-50.88
4086.497	-53.88
4088.939	-49.88
4091.38	-47.88
4093.819	-50.88
4096.257	-51.88
4098.693	-55.88
4101.127	-49.88
4103.559	-51.88
4105.989	-3.88
4108.418	-2.88
4110.845	-3.88
4113.27	-5.88
4115.694	0.12
4118.115	-0.88
4120.535	-51.88
4122.954	-49.88
4125.37	-51.88
4127.785	-47.88
4130.198	-50.88
4132.609	-49.88
4135.019	-52.88
4137.427	-52.88
4139.833	-53.88
4142.237	-53.88
