Data from 100000000CFU3_B_ramanshift_RamanShift_15-12-12-625.txt Node
Date: Sun Dec 25 15:12:12 IST 2016
User: aro
Spectrometer: QEPB0276
Trigger mode: 0
Integration Time (sec): 5.000000E0
Scans to average: 1
Electric dark correction enabled: true
Nonlinearity correction enabled: false
Boxcar width: 0
XAxis mode: Raman Shifts
Number of Pixels in Spectrum: 1044
>>>>>Begin Spectral Data<<<<<
160.701	4.62
166.742	15.62
172.777	54.62
178.805	148.62
184.826	444.62
190.841	1051.62
196.849	1946.62
202.85	2775.62
208.845	3176.62
214.833	3198.62
220.815	3081.62
226.789	3000.62
232.758	2899.62
238.719	2828.62
244.674	2727.62
250.623	2620.62
256.565	2521.62
262.5	2390.62
268.429	2284.62
274.351	2190.62
280.267	2107.62
286.176	2027.62
292.079	1969.62
297.975	1904.62
303.865	1843.62
309.748	1790.62
315.625	1749.62
321.495	1702.62
327.359	1673.62
333.217	1655.62
339.068	1644.62
344.912	1604.62
350.751	1625.62
356.583	1616.62
362.408	1614.62
368.227	1613.62
374.04	1613.62
379.847	1630.62
385.647	1623.62
391.44	1662.62
397.228	1625.62
403.009	1667.62
408.784	1664.62
414.553	1679.62
420.315	1683.62
426.071	1677.62
431.821	1681.62
437.565	1677.62
443.302	1683.62
449.033	1682.62
454.758	1671.62
460.477	1673.62
466.189	1663.62
471.896	1630.62
477.596	1638.62
483.29	1638.62
488.978	1631.62
494.66	1626.62
500.335	1607.62
506.005	1594.62
511.668	1582.62
517.325	1527.62
522.977	1499.62
528.622	1487.62
534.261	1442.62
539.894	1431.62
545.521	1413.62
551.141	1424.62
556.756	1409.62
562.365	1390.62
567.968	1384.62
573.565	1379.62
579.155	1387.62
584.74	1371.62
590.319	1370.62
595.892	1369.62
601.459	1345.62
607.02	1346.62
612.575	1324.62
618.124	1321.62
623.667	1310.62
629.204	1287.62
634.735	1276.62
640.261	1277.62
645.781	1267.62
651.294	1257.62
656.802	1256.62
662.304	1248.62
667.8	1248.62
673.29	1236.62
678.775	1221.62
684.254	1230.62
689.726	1223.62
695.193	1219.62
700.655	1212.62
706.11	1201.62
711.56	1202.62
717.004	1189.62
722.442	1194.62
727.874	1181.62
733.301	1166.62
738.722	1182.62
744.137	1169.62
749.547	1168.62
754.951	1157.62
760.349	1141.62
765.741	1165.62
771.128	1150.62
776.509	1154.62
781.885	1144.62
787.254	1150.62
792.618	1150.62
797.977	1155.62
803.33	1138.62
808.677	1133.62
814.019	1127.62
819.355	1113.62
824.686	1087.62
830.011	1088.62
835.33	1085.62
840.644	1082.62
845.952	1075.62
851.255	1065.62
856.552	1069.62
861.844	1064.62
867.13	1060.62
872.41	1036.62
877.686	1045.62
882.955	1030.62
888.219	1021.62
893.478	995.62
898.731	983.62
903.979	992.62
909.221	962.62
914.458	953.62
919.69	946.62
924.916	945.62
930.136	945.62
935.351	936.62
940.561	935.62
945.766	942.62
950.965	936.62
956.158	930.62
961.347	936.62
966.529	906.62
971.707	890.62
976.879	880.62
982.046	873.62
987.208	864.62
992.364	856.62
997.515	873.62
1002.66	870.62
1007.801	878.62
1012.936	875.62
1018.066	896.62
1023.19	902.62
1028.309	901.62
1033.423	899.62
1038.532	897.62
1043.636	903.62
1048.734	893.62
1053.827	877.62
1058.915	882.62
1063.998	872.62
1069.075	862.62
1074.147	858.62
1079.214	854.62
1084.276	870.62
1089.333	876.62
1094.385	878.62
1099.431	884.62
1104.472	896.62
1109.509	880.62
1114.54	871.62
1119.565	871.62
1124.586	869.62
1129.602	854.62
1134.613	850.62
1139.618	828.62
1144.619	819.62
1149.614	830.62
1154.604	848.62
1159.589	839.62
1164.57	855.62
1169.545	841.62
1174.515	856.62
1179.48	840.62
1184.44	855.62
1189.395	843.62
1194.345	826.62
1199.29	827.62
1204.23	835.62
1209.165	842.62
1214.095	832.62
1219.021	844.62
1223.941	847.62
1228.856	865.62
1233.766	863.62
1238.672	863.62
1243.572	859.62
1248.467	864.62
1253.358	849.62
1258.244	843.62
1263.124	825.62
1268	822.62
1272.871	801.62
1277.737	804.62
1282.599	794.62
1287.455	799.62
1292.306	804.62
1297.153	801.62
1301.995	806.62
1306.832	815.62
1311.664	822.62
1316.491	805.62
1321.314	814.62
1326.132	806.62
1330.945	812.62
1335.753	800.62
1340.556	787.62
1345.354	790.62
1350.148	774.62
1354.937	768.62
1359.722	761.62
1364.501	756.62
1369.276	748.62
1374.046	742.62
1378.811	743.62
1383.572	736.62
1388.327	731.62
1393.079	750.62
1397.825	738.62
1402.567	735.62
1407.304	727.62
1412.036	723.62
1416.764	717.62
1421.487	711.62
1426.205	722.62
1430.919	723.62
1435.628	724.62
1440.333	735.62
1445.032	735.62
1449.727	749.62
1454.418	750.62
1459.104	756.62
1463.785	756.62
1468.462	745.62
1473.134	737.62
1477.802	733.62
1482.465	717.62
1487.123	721.62
1491.777	723.62
1496.426	713.62
1501.071	727.62
1505.711	729.62
1510.347	734.62
1514.978	744.62
1519.604	746.62
1524.226	760.62
1528.844	753.62
1533.457	757.62
1538.065	762.62
1542.669	751.62
1547.269	765.62
1551.864	763.62
1556.454	765.62
1561.041	755.62
1565.622	760.62
1570.199	782.62
1574.772	783.62
1579.34	800.62
1583.904	815.62
1588.464	829.62
1593.019	846.62
1597.569	854.62
1602.115	863.62
1606.657	859.62
1611.195	859.62
1615.728	859.62
1620.256	880.62
1624.78	888.62
1629.3	901.62
1633.816	910.62
1638.327	914.62
1642.834	934.62
1647.336	959.62
1651.834	969.62
1656.328	949.62
1660.817	946.62
1665.302	947.62
1669.783	940.62
1674.259	909.62
1678.732	886.62
1683.199	852.62
1687.663	829.62
1692.122	815.62
1696.577	779.62
1701.028	752.62
1705.474	725.62
1709.917	699.62
1714.355	670.62
1718.788	671.62
1723.218	657.62
1727.643	648.62
1732.064	648.62
1736.481	620.62
1740.893	597.62
1745.301	585.62
1749.705	572.62
1754.105	566.62
1758.501	545.62
1762.893	537.62
1767.28	531.62
1771.663	527.62
1776.042	523.62
1780.417	515.62
1784.787	514.62
1789.154	506.62
1793.516	509.62
1797.874	516.62
1802.228	511.62
1806.578	505.62
1810.924	509.62
1815.266	501.62
1819.603	483.62
1823.937	480.62
1828.266	477.62
1832.591	466.62
1836.913	480.62
1841.23	481.62
1845.543	470.62
1849.852	467.62
1854.156	472.62
1858.457	473.62
1862.754	465.62
1867.047	463.62
1871.335	459.62
1875.62	457.62
1879.9	473.62
1884.177	474.62
1888.449	480.62
1892.718	475.62
1896.982	464.62
1901.243	462.62
1905.499	464.62
1909.752	460.62
1914	465.62
1918.245	465.62
1922.485	465.62
1926.722	463.62
1930.954	478.62
1935.183	468.62
1939.408	472.62
1943.628	468.62
1947.845	475.62
1952.058	478.62
1956.267	467.62
1960.472	467.62
1964.673	467.62
1968.87	464.62
1973.063	459.62
1977.252	444.62
1981.438	444.62
1985.619	435.62
1989.797	448.62
1993.971	444.62
1998.14	442.62
2002.306	442.62
2006.469	453.62
2010.627	457.62
2014.781	452.62
2018.932	455.62
2023.078	452.62
2027.221	453.62
2031.36	450.62
2035.495	457.62
2039.627	444.62
2043.754	444.62
2047.878	434.62
2051.998	436.62
2056.114	430.62
2060.226	437.62
2064.334	444.62
2068.439	447.62
2072.54	459.62
2076.637	446.62
2080.73	444.62
2084.82	449.62
2088.906	453.62
2092.988	456.62
2097.066	458.62
2101.14	453.62
2105.211	455.62
2109.278	447.62
2113.342	440.62
2117.401	439.62
2121.457	439.62
2125.509	442.62
2129.558	432.62
2133.602	431.62
2137.643	428.62
2141.681	428.62
2145.714	427.62
2149.744	428.62
2153.77	427.62
2157.793	423.62
2161.812	424.62
2165.827	414.62
2169.838	410.62
2173.846	401.62
2177.851	396.62
2181.851	395.62
2185.848	381.62
2189.841	379.62
2193.831	378.62
2197.817	381.62
2201.799	374.62
2205.778	379.62
2209.753	377.62
2213.725	372.62
2217.693	380.62
2221.657	368.62
2225.618	362.62
2229.575	361.62
2233.529	368.62
2237.479	362.62
2241.425	371.62
2245.368	359.62
2249.307	353.62
2253.243	343.62
2257.175	341.62
2261.104	341.62
2265.029	331.62
2268.95	332.62
2272.868	335.62
2276.783	325.62
2280.694	325.62
2284.601	321.62
2288.505	313.62
2292.405	315.62
2296.302	304.62
2300.195	306.62
2304.085	294.62
2307.971	295.62
2311.854	293.62
2315.734	295.62
2319.609	289.62
2323.482	274.62
2327.351	273.62
2331.216	275.62
2335.078	267.62
2338.937	272.62
2342.792	269.62
2346.643	259.62
2350.492	264.62
2354.336	273.62
2358.178	266.62
2362.015	264.62
2365.85	262.62
2369.681	262.62
2373.508	259.62
2377.333	259.62
2381.153	265.62
2384.971	262.62
2388.785	269.62
2392.595	259.62
2396.402	260.62
2400.206	255.62
2404.007	253.62
2407.804	255.62
2411.597	263.62
2415.388	263.62
2419.174	254.62
2422.958	256.62
2426.738	252.62
2430.515	252.62
2434.289	250.62
2438.059	245.62
2441.825	243.62
2445.589	248.62
2449.349	238.62
2453.106	240.62
2456.859	234.62
2460.61	240.62
2464.356	238.62
2468.1	227.62
2471.84	237.62
2475.577	230.62
2479.311	229.62
2483.041	231.62
2486.768	233.62
2490.492	233.62
2494.213	222.62
2497.93	226.62
2501.644	228.62
2505.355	224.62
2509.062	234.62
2512.766	226.62
2516.467	230.62
2520.165	229.62
2523.859	220.62
2527.551	220.62
2531.239	220.62
2534.923	217.62
2538.605	218.62
2542.283	222.62
2545.958	214.62
2549.63	216.62
2553.299	212.62
2556.964	209.62
2560.626	213.62
2564.285	206.62
2567.941	213.62
2571.594	199.62
2575.243	199.62
2578.89	198.62
2582.533	202.62
2586.173	205.62
2589.809	198.62
2593.443	201.62
2597.073	200.62
2600.701	199.62
2604.325	196.62
2607.946	191.62
2611.564	195.62
2615.178	186.62
2618.79	195.62
2622.398	192.62
2626.004	188.62
2629.606	182.62
2633.205	184.62
2636.801	184.62
2640.394	186.62
2643.983	181.62
2647.57	178.62
2651.153	173.62
2654.734	170.62
2658.311	170.62
2661.885	171.62
2665.456	173.62
2669.025	173.62
2672.589	172.62
2676.151	166.62
2679.71	166.62
2683.266	170.62
2686.819	157.62
2690.368	173.62
2693.915	162.62
2697.458	164.62
2700.999	163.62
2704.536	158.62
2708.071	158.62
2711.602	159.62
2715.13	157.62
2718.656	151.62
2722.178	156.62
2725.697	154.62
2729.214	158.62
2732.727	154.62
2736.237	154.62
2739.744	161.62
2743.249	153.62
2746.75	152.62
2750.248	150.62
2753.743	158.62
2757.236	153.62
2760.725	162.62
2764.211	157.62
2767.695	145.62
2771.175	146.62
2774.652	144.62
2778.127	144.62
2781.598	149.62
2785.067	148.62
2788.532	152.62
2791.995	149.62
2795.455	157.62
2798.911	148.62
2802.365	146.62
2805.816	151.62
2809.264	154.62
2812.709	151.62
2816.151	157.62
2819.59	155.62
2823.026	151.62
2826.46	158.62
2829.89	152.62
2833.318	145.62
2836.742	152.62
2840.164	154.62
2843.583	156.62
2846.999	162.62
2850.412	154.62
2853.822	168.62
2857.229	164.62
2860.634	167.62
2864.035	159.62
2867.434	172.62
2870.83	169.62
2874.223	177.62
2877.613	177.62
2881	183.62
2884.385	184.62
2887.766	175.62
2891.145	176.62
2894.521	185.62
2897.894	176.62
2901.264	181.62
2904.631	185.62
2907.996	193.62
2911.358	185.62
2914.717	183.62
2918.073	189.62
2921.426	189.62
2924.777	189.62
2928.124	201.62
2931.469	204.62
2934.811	203.62
2938.15	208.62
2941.487	212.62
2944.821	207.62
2948.152	223.62
2951.48	220.62
2954.805	228.62
2958.128	229.62
2961.447	222.62
2964.765	241.62
2968.079	238.62
2971.39	244.62
2974.699	241.62
2978.005	248.62
2981.308	257.62
2984.609	258.62
2987.907	272.62
2991.202	283.62
2994.494	294.62
2997.784	289.62
3001.07	301.62
3004.355	305.62
3007.636	313.62
3010.915	327.62
3014.191	321.62
3017.464	342.62
3020.734	342.62
3024.002	351.62
3027.267	348.62
3030.53	359.62
3033.789	363.62
3037.046	362.62
3040.301	379.62
3043.552	388.62
3046.801	392.62
3050.048	415.62
3053.291	413.62
3056.532	433.62
3059.771	438.62
3063.006	455.62
3066.239	457.62
3069.469	494.62
3072.697	495.62
3075.922	509.62
3079.144	527.62
3082.364	534.62
3085.581	547.62
3088.795	559.62
3092.007	566.62
3095.216	593.62
3098.423	593.62
3101.627	606.62
3104.828	619.62
3108.026	637.62
3111.222	650.62
3114.416	665.62
3117.607	689.62
3120.795	672.62
3123.98	707.62
3127.163	726.62
3130.344	736.62
3133.521	756.62
3136.696	774.62
3139.869	785.62
3143.039	806.62
3146.206	806.62
3149.371	805.62
3152.533	840.62
3155.693	845.62
3158.85	847.62
3162.005	844.62
3165.157	856.62
3168.306	868.62
3171.453	853.62
3174.597	854.62
3177.739	860.62
3180.878	871.62
3184.014	864.62
3187.149	868.62
3190.28	883.62
3193.409	877.62
3196.536	882.62
3199.659	878.62
3202.781	878.62
3205.9	875.62
3209.016	889.62
3212.13	881.62
3215.241	871.62
3218.35	876.62
3221.456	863.62
3224.56	862.62
3227.661	848.62
3230.76	837.62
3233.856	831.62
3236.95	828.62
3240.041	816.62
3243.13	806.62
3246.216	801.62
3249.3	803.62
3252.382	794.62
3255.46	784.62
3258.537	770.62
3261.611	776.62
3264.682	762.62
3267.751	762.62
3270.818	770.62
3273.882	768.62
3276.943	756.62
3280.002	750.62
3283.059	741.62
3286.113	747.62
3289.165	720.62
3292.214	714.62
3295.261	710.62
3298.306	708.62
3301.348	691.62
3304.387	678.62
3307.425	672.62
3310.459	655.62
3313.492	663.62
3316.521	644.62
3319.549	641.62
3322.574	639.62
3325.597	622.62
3328.617	619.62
3331.635	615.62
3334.65	624.62
3337.663	613.62
3340.674	614.62
3343.682	605.62
3346.688	607.62
3349.691	597.62
3352.692	593.62
3355.691	598.62
3358.687	601.62
3361.681	580.62
3364.673	573.62
3367.662	572.62
3370.649	566.62
3373.633	556.62
3376.615	551.62
3379.595	543.62
3382.572	529.62
3385.547	531.62
3388.52	521.62
3391.49	510.62
3394.458	503.62
3397.424	494.62
3400.387	493.62
3403.348	495.62
3406.307	481.62
3409.263	467.62
3412.217	470.62
3415.168	470.62
3418.118	469.62
3421.065	465.62
3424.009	453.62
3426.951	450.62
3429.891	438.62
3432.829	432.62
3435.764	423.62
3438.697	419.62
3441.628	413.62
3444.557	400.62
3447.483	387.62
3450.407	379.62
3453.328	371.62
3456.247	362.62
3459.164	352.62
3462.079	334.62
3464.991	328.62
3467.902	325.62
3470.809	312.62
3473.715	298.62
3476.618	287.62
3479.519	287.62
3482.418	278.62
3485.315	266.62
3488.209	259.62
3491.101	256.62
3493.99	247.62
3496.878	240.62
3499.763	241.62
3502.646	227.62
3505.527	217.62
3508.405	213.62
3511.281	209.62
3514.155	193.62
3517.027	181.62
3519.897	178.62
3522.764	177.62
3525.629	169.62
3528.492	159.62
3531.352	154.62
3534.211	145.62
3537.067	129.62
3539.921	130.62
3542.773	126.62
3545.622	121.62
3548.469	107.62
3551.315	103.62
3554.157	99.62
3556.998	93.62
3559.837	81.62
3562.673	83.62
3565.507	75.62
3568.339	74.62
3571.169	81.62
3573.996	59.62
3576.822	62.62
3579.645	59.62
3582.466	59.62
3585.285	56.62
3588.101	50.62
3590.916	43.62
3593.728	34.62
3596.538	36.62
3599.346	34.62
3602.152	30.62
3604.956	28.62
3607.757	29.62
3610.556	23.62
3613.354	19.62
3616.149	11.62
3618.942	12.62
3621.732	15.62
3624.521	9.62
3627.307	7.62
3630.092	7.62
3632.874	10.62
3635.654	-0.38
3638.432	-0.38
3641.208	-3.38
3643.982	-2.38
3646.753	-1.38
3649.523	-1.38
3652.29	-10.38
3655.055	-6.38
3657.818	-14.38
3660.579	-13.38
3663.338	-20.38
3666.095	-13.38
3668.849	-20.38
3671.602	-20.38
3674.352	-21.38
3677.101	-25.38
3679.847	-28.38
3682.591	-26.38
3685.333	-30.38
3688.073	-27.38
3690.811	-29.38
3693.547	-27.38
3696.281	-29.38
3699.013	-29.38
3701.742	-30.38
3704.47	-28.38
3707.195	-33.38
3709.919	-37.38
3712.64	-38.38
3715.359	-35.38
3718.076	-36.38
3720.792	-38.38
3723.505	-36.38
3726.216	-40.38
3728.925	-41.38
3731.632	-43.38
3734.336	-42.38
3737.039	-42.38
3739.74	-41.38
3742.439	-35.38
3745.136	-40.38
3747.83	-41.38
3750.523	-43.38
3753.213	-43.38
3755.902	-46.38
3758.589	-45.38
3761.273	-43.38
3763.956	-42.38
3766.636	-41.38
3769.315	-45.38
3771.991	-48.38
3774.665	-48.38
3777.338	-48.38
3780.008	-46.38
3782.677	-45.38
3785.343	-45.38
3788.007	-45.38
3790.67	-44.38
3793.33	-48.38
3795.989	-49.38
3798.645	-49.38
3801.299	-48.38
3803.952	-49.38
3806.602	-45.38
3809.251	-47.38
3811.897	-51.38
3814.542	-52.38
3817.184	-42.38
3819.825	-48.38
3822.463	-48.38
3825.1	-52.38
3827.735	-49.38
3830.367	-51.38
3832.998	-50.38
3835.627	-49.38
3838.253	-46.38
3840.878	-50.38
3843.501	-50.38
3846.122	-53.38
3848.741	-55.38
3851.358	-53.38
3853.973	-48.38
3856.586	-45.38
3859.197	-50.38
3861.806	-50.38
3864.414	-52.38
3867.019	-53.38
3869.622	-48.38
3872.224	-53.38
3874.823	-51.38
3877.421	-50.38
3880.016	-50.38
3882.61	-47.38
3885.202	-44.38
3887.792	-49.38
3890.38	-49.38
3892.966	-53.38
3895.55	-51.38
3898.132	-54.38
3900.713	-53.38
3903.291	-56.38
3905.868	-51.38
3908.442	-52.38
3911.015	-58.38
3913.586	-54.38
3916.155	-52.38
3918.722	-51.38
3921.287	-49.38
3923.85	-53.38
3926.411	-53.38
3928.971	-53.38
3931.528	-58.38
3934.084	-56.38
3936.638	-55.38
3939.19	-53.38
3941.74	-53.38
3944.288	-55.38
3946.834	-54.38
3949.378	-56.38
3951.921	-54.38
3954.462	-54.38
3957	-53.38
3959.537	-53.38
3962.072	-52.38
3964.606	-52.38
3967.137	-52.38
3969.667	-57.38
3972.194	-54.38
3974.72	-60.38
3977.244	-52.38
3979.766	-52.38
3982.286	-52.38
3984.805	-55.38
3987.321	-54.38
3989.836	-56.38
3992.349	-53.38
3994.86	-51.38
3997.369	-50.38
3999.877	-54.38
4002.382	-54.38
4004.886	-55.38
4007.388	-52.38
4009.888	-49.38
4012.386	-50.38
4014.883	-53.38
4017.377	-53.38
4019.87	-55.38
4022.361	-57.38
4024.85	-55.38
4027.338	-49.38
4029.823	-48.38
4032.307	-48.38
4034.789	-52.38
4037.269	-54.38
4039.747	-58.38
4042.224	-57.38
4044.699	-57.38
4047.172	-53.38
4049.643	-50.38
4052.112	-52.38
4054.58	-54.38
4057.046	-52.38
4059.51	-54.38
4061.972	-51.38
4064.432	-53.38
4066.891	-53.38
4069.348	-55.38
4071.803	-54.38
4074.256	-54.38
4076.708	-54.38
4079.158	-54.38
4081.606	-50.38
4084.052	-54.38
4086.497	-57.38
4088.939	-57.38
4091.38	-54.38
4093.819	-52.38
4096.257	-56.38
4098.693	-55.38
4101.127	-56.38
4103.559	-54.38
4105.989	-11.38
4108.418	-13.38
4110.845	-10.38
4113.27	-13.38
4115.694	-7.38
4118.115	-3.38
4120.535	-56.38
4122.954	-51.38
4125.37	-54.38
4127.785	-53.38
4130.198	-53.38
4132.609	-58.38
4135.019	-60.38
4137.427	-53.38
4139.833	-53.38
4142.237	-56.38
