Data from 1000000CFU1_FROM15TH_ramanshift_RamanShift_13-42-05-683.txt Node
Date: Sun Dec 25 13:42:05 IST 2016
User: aro
Spectrometer: QEPB0276
Trigger mode: 0
Integration Time (sec): 5.000000E0
Scans to average: 1
Electric dark correction enabled: true
Nonlinearity correction enabled: false
Boxcar width: 0
XAxis mode: Raman Shifts
Number of Pixels in Spectrum: 1044
>>>>>Begin Spectral Data<<<<<
160.701	2.88
166.742	20.88
172.777	67.88
178.805	210.88
184.826	628.88
190.841	1488.88
196.849	2749.88
202.85	3967.88
208.845	4513.88
214.833	4532.88
220.815	4381.88
226.789	4251.88
232.758	4121.88
238.719	4019.88
244.674	3906.88
250.623	3754.88
256.565	3576.88
262.5	3406.88
268.429	3282.88
274.351	3166.88
280.267	3018.88
286.176	2933.88
292.079	2821.88
297.975	2721.88
303.865	2630.88
309.748	2571.88
315.625	2491.88
321.495	2459.88
327.359	2407.88
333.217	2389.88
339.068	2353.88
344.912	2328.88
350.751	2335.88
356.583	2299.88
362.408	2292.88
368.227	2321.88
374.04	2326.88
379.847	2346.88
385.647	2336.88
391.44	2324.88
397.228	2339.88
403.009	2382.88
408.784	2386.88
414.553	2388.88
420.315	2392.88
426.071	2397.88
431.821	2386.88
437.565	2403.88
443.302	2402.88
449.033	2405.88
454.758	2382.88
460.477	2399.88
466.189	2388.88
471.896	2371.88
477.596	2361.88
483.29	2355.88
488.978	2333.88
494.66	2337.88
500.335	2319.88
506.005	2289.88
511.668	2253.88
517.325	2231.88
522.977	2177.88
528.622	2179.88
534.261	2149.88
539.894	2136.88
545.521	2104.88
551.141	2076.88
556.756	2093.88
562.365	2078.88
567.968	2082.88
573.565	2065.88
579.155	2044.88
584.74	2026.88
590.319	2018.88
595.892	2015.88
601.459	2036.88
607.02	2003.88
612.575	1976.88
618.124	1985.88
623.667	1950.88
629.204	1938.88
634.735	1924.88
640.261	1897.88
645.781	1897.88
651.294	1878.88
656.802	1877.88
662.304	1867.88
667.8	1862.88
673.29	1873.88
678.775	1856.88
684.254	1851.88
689.726	1846.88
695.193	1816.88
700.655	1819.88
706.11	1812.88
711.56	1817.88
717.004	1811.88
722.442	1785.88
727.874	1772.88
733.301	1775.88
738.722	1763.88
744.137	1751.88
749.547	1748.88
754.951	1758.88
760.349	1752.88
765.741	1764.88
771.128	1743.88
776.509	1750.88
781.885	1727.88
787.254	1746.88
792.618	1742.88
797.977	1748.88
803.33	1732.88
808.677	1714.88
814.019	1710.88
819.355	1686.88
824.686	1670.88
830.011	1671.88
835.33	1662.88
840.644	1660.88
845.952	1664.88
851.255	1643.88
856.552	1655.88
861.844	1630.88
867.13	1620.88
872.41	1630.88
877.686	1621.88
882.955	1630.88
888.219	1638.88
893.478	1590.88
898.731	1547.88
903.979	1534.88
909.221	1494.88
914.458	1478.88
919.69	1485.88
924.916	1467.88
930.136	1482.88
935.351	1459.88
940.561	1474.88
945.766	1477.88
950.965	1464.88
956.158	1454.88
961.347	1441.88
966.529	1423.88
971.707	1404.88
976.879	1383.88
982.046	1392.88
987.208	1367.88
992.364	1363.88
997.515	1374.88
1002.66	1361.88
1007.801	1390.88
1012.936	1403.88
1018.066	1408.88
1023.19	1423.88
1028.309	1420.88
1033.423	1448.88
1038.532	1424.88
1043.636	1418.88
1048.734	1417.88
1053.827	1401.88
1058.915	1389.88
1063.998	1376.88
1069.075	1370.88
1074.147	1352.88
1079.214	1357.88
1084.276	1384.88
1089.333	1398.88
1094.385	1412.88
1099.431	1417.88
1104.472	1417.88
1109.509	1397.88
1114.54	1384.88
1119.565	1375.88
1124.586	1365.88
1129.602	1343.88
1134.613	1328.88
1139.618	1317.88
1144.619	1337.88
1149.614	1315.88
1154.604	1323.88
1159.589	1336.88
1164.57	1341.88
1169.545	1353.88
1174.515	1343.88
1179.48	1349.88
1184.44	1341.88
1189.395	1326.88
1194.345	1332.88
1199.29	1327.88
1204.23	1324.88
1209.165	1330.88
1214.095	1328.88
1219.021	1346.88
1223.941	1349.88
1228.856	1363.88
1233.766	1374.88
1238.672	1367.88
1243.572	1363.88
1248.467	1360.88
1253.358	1356.88
1258.244	1352.88
1263.124	1330.88
1268	1299.88
1272.871	1294.88
1277.737	1283.88
1282.599	1275.88
1287.455	1271.88
1292.306	1274.88
1297.153	1297.88
1301.995	1291.88
1306.832	1306.88
1311.664	1288.88
1316.491	1313.88
1321.314	1301.88
1326.132	1289.88
1330.945	1270.88
1335.753	1266.88
1340.556	1258.88
1345.354	1230.88
1350.148	1229.88
1354.937	1197.88
1359.722	1199.88
1364.501	1216.88
1369.276	1201.88
1374.046	1206.88
1378.811	1184.88
1383.572	1192.88
1388.327	1176.88
1393.079	1194.88
1397.825	1186.88
1402.567	1182.88
1407.304	1164.88
1412.036	1150.88
1416.764	1150.88
1421.487	1137.88
1426.205	1146.88
1430.919	1158.88
1435.628	1154.88
1440.333	1164.88
1445.032	1178.88
1449.727	1210.88
1454.418	1213.88
1459.104	1219.88
1463.785	1214.88
1468.462	1192.88
1473.134	1179.88
1477.802	1152.88
1482.465	1158.88
1487.123	1139.88
1491.777	1145.88
1496.426	1152.88
1501.071	1159.88
1505.711	1161.88
1510.347	1176.88
1514.978	1189.88
1519.604	1188.88
1524.226	1195.88
1528.844	1210.88
1533.457	1203.88
1538.065	1207.88
1542.669	1190.88
1547.269	1194.88
1551.864	1195.88
1556.454	1182.88
1561.041	1208.88
1565.622	1213.88
1570.199	1223.88
1574.772	1243.88
1579.34	1248.88
1583.904	1288.88
1588.464	1293.88
1593.019	1294.88
1597.569	1315.88
1602.115	1337.88
1606.657	1317.88
1611.195	1348.88
1615.728	1352.88
1620.256	1349.88
1624.78	1385.88
1629.3	1385.88
1633.816	1400.88
1638.327	1402.88
1642.834	1437.88
1647.336	1454.88
1651.834	1473.88
1656.328	1465.88
1660.817	1450.88
1665.302	1455.88
1669.783	1447.88
1674.259	1401.88
1678.732	1349.88
1683.199	1324.88
1687.663	1268.88
1692.122	1232.88
1696.577	1199.88
1701.028	1166.88
1705.474	1115.88
1709.917	1080.88
1714.355	1058.88
1718.788	1056.88
1723.218	1028.88
1727.643	1015.88
1732.064	1004.88
1736.481	973.88
1740.893	956.88
1745.301	935.88
1749.705	916.88
1754.105	892.88
1758.501	871.88
1762.893	863.88
1767.28	846.88
1771.663	838.88
1776.042	848.88
1780.417	836.88
1784.787	824.88
1789.154	831.88
1793.516	822.88
1797.874	831.88
1802.228	833.88
1806.578	825.88
1810.924	811.88
1815.266	805.88
1819.603	799.88
1823.937	787.88
1828.266	795.88
1832.591	761.88
1836.913	755.88
1841.23	759.88
1845.543	762.88
1849.852	766.88
1854.156	768.88
1858.457	760.88
1862.754	765.88
1867.047	767.88
1871.335	772.88
1875.62	765.88
1879.9	770.88
1884.177	778.88
1888.449	770.88
1892.718	767.88
1896.982	756.88
1901.243	756.88
1905.499	759.88
1909.752	753.88
1914	752.88
1918.245	741.88
1922.485	745.88
1926.722	740.88
1930.954	758.88
1935.183	763.88
1939.408	771.88
1943.628	769.88
1947.845	763.88
1952.058	769.88
1956.267	778.88
1960.472	754.88
1964.673	750.88
1968.87	742.88
1973.063	735.88
1977.252	728.88
1981.438	732.88
1985.619	726.88
1989.797	711.88
1993.971	730.88
1998.14	726.88
2002.306	725.88
2006.469	734.88
2010.627	730.88
2014.781	730.88
2018.932	743.88
2023.078	728.88
2027.221	733.88
2031.36	721.88
2035.495	730.88
2039.627	726.88
2043.754	715.88
2047.878	712.88
2051.998	719.88
2056.114	710.88
2060.226	704.88
2064.334	701.88
2068.439	727.88
2072.54	726.88
2076.637	723.88
2080.73	715.88
2084.82	727.88
2088.906	725.88
2092.988	727.88
2097.066	729.88
2101.14	720.88
2105.211	709.88
2109.278	715.88
2113.342	713.88
2117.401	703.88
2121.457	709.88
2125.509	701.88
2129.558	693.88
2133.602	695.88
2137.643	692.88
2141.681	687.88
2145.714	688.88
2149.744	689.88
2153.77	689.88
2157.793	693.88
2161.812	675.88
2165.827	675.88
2169.838	656.88
2173.846	654.88
2177.851	636.88
2181.851	638.88
2185.848	628.88
2189.841	618.88
2193.831	609.88
2197.817	616.88
2201.799	606.88
2205.778	610.88
2209.753	608.88
2213.725	606.88
2217.693	612.88
2221.657	605.88
2225.618	606.88
2229.575	601.88
2233.529	605.88
2237.479	589.88
2241.425	597.88
2245.368	581.88
2249.307	581.88
2253.243	571.88
2257.175	573.88
2261.104	555.88
2265.029	551.88
2268.95	550.88
2272.868	542.88
2276.783	525.88
2280.694	516.88
2284.601	522.88
2288.505	511.88
2292.405	511.88
2296.302	511.88
2300.195	508.88
2304.085	505.88
2307.971	484.88
2311.854	491.88
2315.734	468.88
2319.609	462.88
2323.482	463.88
2327.351	452.88
2331.216	450.88
2335.078	453.88
2338.937	452.88
2342.792	443.88
2346.643	438.88
2350.492	437.88
2354.336	441.88
2358.178	443.88
2362.015	441.88
2365.85	436.88
2369.681	441.88
2373.508	451.88
2377.333	442.88
2381.153	442.88
2384.971	445.88
2388.785	438.88
2392.595	428.88
2396.402	446.88
2400.206	431.88
2404.007	439.88
2407.804	433.88
2411.597	427.88
2415.388	428.88
2419.174	423.88
2422.958	417.88
2426.738	418.88
2430.515	424.88
2434.289	418.88
2438.059	415.88
2441.825	422.88
2445.589	412.88
2449.349	396.88
2453.106	403.88
2456.859	399.88
2460.61	405.88
2464.356	400.88
2468.1	402.88
2471.84	395.88
2475.577	387.88
2479.311	393.88
2483.041	381.88
2486.768	395.88
2490.492	389.88
2494.213	382.88
2497.93	378.88
2501.644	391.88
2505.355	386.88
2509.062	398.88
2512.766	377.88
2516.467	384.88
2520.165	383.88
2523.859	369.88
2527.551	377.88
2531.239	369.88
2534.923	372.88
2538.605	370.88
2542.283	371.88
2545.958	358.88
2549.63	357.88
2553.299	352.88
2556.964	354.88
2560.626	354.88
2564.285	355.88
2567.941	356.88
2571.594	342.88
2575.243	354.88
2578.89	339.88
2582.533	347.88
2586.173	346.88
2589.809	335.88
2593.443	349.88
2597.073	336.88
2600.701	329.88
2604.325	328.88
2607.946	324.88
2611.564	327.88
2615.178	323.88
2618.79	326.88
2622.398	328.88
2626.004	327.88
2629.606	326.88
2633.205	319.88
2636.801	318.88
2640.394	312.88
2643.983	304.88
2647.57	312.88
2651.153	301.88
2654.734	305.88
2658.311	295.88
2661.885	299.88
2665.456	292.88
2669.025	285.88
2672.589	289.88
2676.151	286.88
2679.71	294.88
2683.266	291.88
2686.819	286.88
2690.368	283.88
2693.915	276.88
2697.458	275.88
2700.999	262.88
2704.536	267.88
2708.071	263.88
2711.602	263.88
2715.13	268.88
2718.656	255.88
2722.178	272.88
2725.697	260.88
2729.214	252.88
2732.727	262.88
2736.237	255.88
2739.744	261.88
2743.249	259.88
2746.75	264.88
2750.248	262.88
2753.743	260.88
2757.236	260.88
2760.725	263.88
2764.211	253.88
2767.695	245.88
2771.175	249.88
2774.652	248.88
2778.127	246.88
2781.598	250.88
2785.067	241.88
2788.532	247.88
2791.995	246.88
2795.455	256.88
2798.911	249.88
2802.365	253.88
2805.816	253.88
2809.264	257.88
2812.709	259.88
2816.151	255.88
2819.59	249.88
2823.026	251.88
2826.46	249.88
2829.89	258.88
2833.318	259.88
2836.742	252.88
2840.164	258.88
2843.583	255.88
2846.999	258.88
2850.412	264.88
2853.822	266.88
2857.229	272.88
2860.634	272.88
2864.035	267.88
2867.434	278.88
2870.83	272.88
2874.223	283.88
2877.613	286.88
2881	293.88
2884.385	289.88
2887.766	288.88
2891.145	298.88
2894.521	291.88
2897.894	293.88
2901.264	295.88
2904.631	293.88
2907.996	295.88
2911.358	300.88
2914.717	288.88
2918.073	298.88
2921.426	300.88
2924.777	308.88
2928.124	314.88
2931.469	322.88
2934.811	327.88
2938.15	319.88
2941.487	326.88
2944.821	338.88
2948.152	339.88
2951.48	335.88
2954.805	343.88
2958.128	348.88
2961.447	357.88
2964.765	352.88
2968.079	357.88
2971.39	362.88
2974.699	361.88
2978.005	380.88
2981.308	376.88
2984.609	395.88
2987.907	390.88
2991.202	409.88
2994.494	415.88
2997.784	437.88
3001.07	436.88
3004.355	450.88
3007.636	462.88
3010.915	467.88
3014.191	474.88
3017.464	486.88
3020.734	489.88
3024.002	492.88
3027.267	490.88
3030.53	500.88
3033.789	500.88
3037.046	523.88
3040.301	543.88
3043.552	541.88
3046.801	566.88
3050.048	558.88
3053.291	585.88
3056.532	594.88
3059.771	613.88
3063.006	631.88
3066.239	647.88
3069.469	683.88
3072.697	692.88
3075.922	705.88
3079.144	714.88
3082.364	737.88
3085.581	746.88
3088.795	775.88
3092.007	775.88
3095.216	787.88
3098.423	828.88
3101.627	832.88
3104.828	853.88
3108.026	878.88
3111.222	887.88
3114.416	908.88
3117.607	933.88
3120.795	945.88
3123.98	963.88
3127.163	981.88
3130.344	1011.88
3133.521	1038.88
3136.696	1052.88
3139.869	1068.88
3143.039	1094.88
3146.206	1099.88
3149.371	1118.88
3152.533	1138.88
3155.693	1139.88
3158.85	1150.88
3162.005	1153.88
3165.157	1175.88
3168.306	1158.88
3171.453	1157.88
3174.597	1194.88
3177.739	1177.88
3180.878	1178.88
3184.014	1172.88
3187.149	1180.88
3190.28	1182.88
3193.409	1193.88
3196.536	1185.88
3199.659	1193.88
3202.781	1189.88
3205.9	1207.88
3209.016	1196.88
3212.13	1206.88
3215.241	1197.88
3218.35	1190.88
3221.456	1189.88
3224.56	1163.88
3227.661	1157.88
3230.76	1162.88
3233.856	1145.88
3236.95	1137.88
3240.041	1116.88
3243.13	1099.88
3246.216	1097.88
3249.3	1082.88
3252.382	1071.88
3255.46	1082.88
3258.537	1065.88
3261.611	1060.88
3264.682	1048.88
3267.751	1051.88
3270.818	1051.88
3273.882	1026.88
3276.943	1037.88
3280.002	1030.88
3283.059	1020.88
3286.113	1011.88
3289.165	1006.88
3292.214	982.88
3295.261	964.88
3298.306	960.88
3301.348	949.88
3304.387	932.88
3307.425	926.88
3310.459	908.88
3313.492	888.88
3316.521	889.88
3319.549	872.88
3322.574	867.88
3325.597	855.88
3328.617	847.88
3331.635	839.88
3334.65	845.88
3337.663	840.88
3340.674	824.88
3343.682	838.88
3346.688	816.88
3349.691	824.88
3352.692	818.88
3355.691	810.88
3358.687	807.88
3361.681	790.88
3364.673	786.88
3367.662	786.88
3370.649	765.88
3373.633	758.88
3376.615	760.88
3379.595	748.88
3382.572	725.88
3385.547	724.88
3388.52	699.88
3391.49	705.88
3394.458	690.88
3397.424	676.88
3400.387	676.88
3403.348	670.88
3406.307	657.88
3409.263	668.88
3412.217	638.88
3415.168	643.88
3418.118	643.88
3421.065	632.88
3424.009	605.88
3426.951	602.88
3429.891	601.88
3432.829	586.88
3435.764	577.88
3438.697	579.88
3441.628	560.88
3444.557	535.88
3447.483	537.88
3450.407	514.88
3453.328	504.88
3456.247	490.88
3459.164	478.88
3462.079	460.88
3464.991	450.88
3467.902	432.88
3470.809	421.88
3473.715	406.88
3476.618	396.88
3479.519	386.88
3482.418	380.88
3485.315	371.88
3488.209	361.88
3491.101	350.88
3493.99	336.88
3496.878	338.88
3499.763	328.88
3502.646	317.88
3505.527	298.88
3508.405	287.88
3511.281	279.88
3514.155	263.88
3517.027	258.88
3519.897	251.88
3522.764	243.88
3525.629	230.88
3528.492	223.88
3531.352	203.88
3534.211	197.88
3537.067	178.88
3539.921	169.88
3542.773	169.88
3545.622	163.88
3548.469	147.88
3551.315	142.88
3554.157	132.88
3556.998	128.88
3559.837	121.88
3562.673	114.88
3565.507	110.88
3568.339	103.88
3571.169	100.88
3573.996	97.88
3576.822	86.88
3579.645	89.88
3582.466	83.88
3585.285	75.88
3588.101	62.88
3590.916	57.88
3593.728	55.88
3596.538	58.88
3599.346	51.88
3602.152	47.88
3604.956	42.88
3607.757	36.88
3610.556	31.88
3613.354	31.88
3616.149	22.88
3618.942	26.88
3621.732	19.88
3624.521	22.88
3627.307	17.88
3630.092	12.88
3632.874	8.88
3635.654	4.88
3638.432	7.88
3641.208	1.88
3643.982	-2.12
3646.753	-2.12
3649.523	-3.12
3652.29	-4.12
3655.055	-14.12
3657.818	-18.12
3660.579	-16.12
3663.338	-19.12
3666.095	-18.12
3668.849	-21.12
3671.602	-21.12
3674.352	-28.12
3677.101	-29.12
3679.847	-31.12
3682.591	-32.12
3685.333	-34.12
3688.073	-35.12
3690.811	-32.12
3693.547	-37.12
3696.281	-36.12
3699.013	-43.12
3701.742	-44.12
3704.47	-44.12
3707.195	-44.12
3709.919	-49.12
3712.64	-46.12
3715.359	-45.12
3718.076	-48.12
3720.792	-49.12
3723.505	-53.12
3726.216	-52.12
3728.925	-54.12
3731.632	-58.12
3734.336	-53.12
3737.039	-54.12
3739.74	-53.12
3742.439	-49.12
3745.136	-54.12
3747.83	-57.12
3750.523	-60.12
3753.213	-62.12
3755.902	-59.12
3758.589	-57.12
3761.273	-57.12
3763.956	-55.12
3766.636	-55.12
3769.315	-59.12
3771.991	-65.12
3774.665	-65.12
3777.338	-63.12
3780.008	-61.12
3782.677	-58.12
3785.343	-58.12
3788.007	-63.12
3790.67	-61.12
3793.33	-62.12
3795.989	-65.12
3798.645	-63.12
3801.299	-63.12
3803.952	-66.12
3806.602	-62.12
3809.251	-62.12
3811.897	-68.12
3814.542	-67.12
3817.184	-64.12
3819.825	-67.12
3822.463	-66.12
3825.1	-66.12
3827.735	-67.12
3830.367	-68.12
3832.998	-64.12
3835.627	-67.12
3838.253	-65.12
3840.878	-71.12
3843.501	-68.12
3846.122	-70.12
3848.741	-72.12
3851.358	-69.12
3853.973	-67.12
3856.586	-66.12
3859.197	-67.12
3861.806	-71.12
3864.414	-72.12
3867.019	-69.12
3869.622	-68.12
3872.224	-69.12
3874.823	-70.12
3877.421	-67.12
3880.016	-72.12
3882.61	-69.12
3885.202	-65.12
3887.792	-69.12
3890.38	-65.12
3892.966	-65.12
3895.55	-68.12
3898.132	-70.12
3900.713	-71.12
3903.291	-74.12
3905.868	-70.12
3908.442	-72.12
3911.015	-77.12
3913.586	-73.12
3916.155	-72.12
3918.722	-71.12
3921.287	-69.12
3923.85	-74.12
3926.411	-72.12
3928.971	-74.12
3931.528	-76.12
3934.084	-77.12
3936.638	-76.12
3939.19	-72.12
3941.74	-74.12
3944.288	-74.12
3946.834	-74.12
3949.378	-73.12
3951.921	-72.12
3954.462	-74.12
3957	-73.12
3959.537	-73.12
3962.072	-68.12
3964.606	-72.12
3967.137	-75.12
3969.667	-71.12
3972.194	-77.12
3974.72	-76.12
3977.244	-72.12
3979.766	-73.12
3982.286	-71.12
3984.805	-73.12
3987.321	-70.12
3989.836	-74.12
3992.349	-71.12
3994.86	-69.12
3997.369	-71.12
3999.877	-71.12
4002.382	-70.12
4004.886	-73.12
4007.388	-73.12
4009.888	-69.12
4012.386	-70.12
4014.883	-73.12
4017.377	-76.12
4019.87	-74.12
4022.361	-72.12
4024.85	-71.12
4027.338	-70.12
4029.823	-66.12
4032.307	-69.12
4034.789	-74.12
4037.269	-77.12
4039.747	-77.12
4042.224	-76.12
4044.699	-73.12
4047.172	-70.12
4049.643	-72.12
4052.112	-70.12
4054.58	-76.12
4057.046	-74.12
4059.51	-78.12
4061.972	-70.12
4064.432	-68.12
4066.891	-71.12
4069.348	-72.12
4071.803	-73.12
4074.256	-74.12
4076.708	-76.12
4079.158	-75.12
4081.606	-71.12
4084.052	-75.12
4086.497	-73.12
4088.939	-72.12
4091.38	-75.12
4093.819	-74.12
4096.257	-76.12
4098.693	-79.12
4101.127	-77.12
4103.559	-75.12
4105.989	-19.12
4108.418	-15.12
4110.845	-15.12
4113.27	-18.12
4115.694	-14.12
4118.115	-4.12
4120.535	-77.12
4122.954	-72.12
4125.37	-73.12
4127.785	-75.12
4130.198	-73.12
4132.609	-73.12
4135.019	-76.12
4137.427	-74.12
4139.833	-76.12
4142.237	-76.12
