Data from 100000000CFU2_C_ramanshift_RamanShift_15-37-37-479.txt Node
Date: Sun Dec 25 15:37:37 IST 2016
User: aro
Spectrometer: QEPB0276
Trigger mode: 0
Integration Time (sec): 5.000000E0
Scans to average: 1
Electric dark correction enabled: true
Nonlinearity correction enabled: false
Boxcar width: 0
XAxis mode: Raman Shifts
Number of Pixels in Spectrum: 1044
>>>>>Begin Spectral Data<<<<<
160.701	7.62
166.742	18.62
172.777	47.62
178.805	151.62
184.826	441.62
190.841	1071.62
196.849	1968.62
202.85	2827.62
208.845	3259.62
214.833	3229.62
220.815	3121.62
226.789	2998.62
232.758	2926.62
238.719	2850.62
244.674	2753.62
250.623	2644.62
256.565	2535.62
262.5	2414.62
268.429	2302.62
274.351	2215.62
280.267	2123.62
286.176	2043.62
292.079	1965.62
297.975	1895.62
303.865	1836.62
309.748	1786.62
315.625	1739.62
321.495	1699.62
327.359	1661.62
333.217	1634.62
339.068	1611.62
344.912	1635.62
350.751	1623.62
356.583	1588.62
362.408	1614.62
368.227	1600.62
374.04	1601.62
379.847	1588.62
385.647	1626.62
391.44	1622.62
397.228	1631.62
403.009	1651.62
408.784	1643.62
414.553	1659.62
420.315	1659.62
426.071	1670.62
431.821	1670.62
437.565	1660.62
443.302	1663.62
449.033	1663.62
454.758	1656.62
460.477	1659.62
466.189	1645.62
471.896	1634.62
477.596	1632.62
483.29	1605.62
488.978	1607.62
494.66	1598.62
500.335	1618.62
506.005	1575.62
511.668	1531.62
517.325	1506.62
522.977	1490.62
528.622	1469.62
534.261	1447.62
539.894	1438.62
545.521	1416.62
551.141	1403.62
556.756	1388.62
562.365	1384.62
567.968	1375.62
573.565	1379.62
579.155	1359.62
584.74	1345.62
590.319	1352.62
595.892	1350.62
601.459	1313.62
607.02	1319.62
612.575	1315.62
618.124	1307.62
623.667	1291.62
629.204	1274.62
634.735	1265.62
640.261	1253.62
645.781	1241.62
651.294	1242.62
656.802	1237.62
662.304	1233.62
667.8	1209.62
673.29	1229.62
678.775	1201.62
684.254	1214.62
689.726	1221.62
695.193	1198.62
700.655	1205.62
706.11	1209.62
711.56	1174.62
717.004	1166.62
722.442	1159.62
727.874	1175.62
733.301	1160.62
738.722	1171.62
744.137	1144.62
749.547	1145.62
754.951	1134.62
760.349	1119.62
765.741	1131.62
771.128	1129.62
776.509	1130.62
781.885	1130.62
787.254	1139.62
792.618	1127.62
797.977	1128.62
803.33	1129.62
808.677	1114.62
814.019	1099.62
819.355	1096.62
824.686	1075.62
830.011	1079.62
835.33	1076.62
840.644	1072.62
845.952	1057.62
851.255	1052.62
856.552	1039.62
861.844	1045.62
867.13	1038.62
872.41	1047.62
877.686	1035.62
882.955	1020.62
888.219	1007.62
893.478	989.62
898.731	983.62
903.979	958.62
909.221	946.62
914.458	952.62
919.69	925.62
924.916	928.62
930.136	913.62
935.351	917.62
940.561	909.62
945.766	924.62
950.965	926.62
956.158	911.62
961.347	888.62
966.529	892.62
971.707	864.62
976.879	866.62
982.046	842.62
987.208	842.62
992.364	835.62
997.515	835.62
1002.66	850.62
1007.801	856.62
1012.936	865.62
1018.066	875.62
1023.19	869.62
1028.309	869.62
1033.423	870.62
1038.532	875.62
1043.636	888.62
1048.734	866.62
1053.827	862.62
1058.915	841.62
1063.998	844.62
1069.075	840.62
1074.147	833.62
1079.214	842.62
1084.276	864.62
1089.333	848.62
1094.385	845.62
1099.431	864.62
1104.472	868.62
1109.509	857.62
1114.54	863.62
1119.565	840.62
1124.586	841.62
1129.602	828.62
1134.613	811.62
1139.618	802.62
1144.619	816.62
1149.614	818.62
1154.604	810.62
1159.589	816.62
1164.57	826.62
1169.545	821.62
1174.515	829.62
1179.48	827.62
1184.44	825.62
1189.395	818.62
1194.345	827.62
1199.29	815.62
1204.23	803.62
1209.165	799.62
1214.095	802.62
1219.021	822.62
1223.941	822.62
1228.856	816.62
1233.766	832.62
1238.672	839.62
1243.572	833.62
1248.467	835.62
1253.358	839.62
1258.244	820.62
1263.124	799.62
1268	796.62
1272.871	786.62
1277.737	771.62
1282.599	781.62
1287.455	785.62
1292.306	769.62
1297.153	781.62
1301.995	781.62
1306.832	782.62
1311.664	788.62
1316.491	803.62
1321.314	798.62
1326.132	777.62
1330.945	790.62
1335.753	780.62
1340.556	769.62
1345.354	738.62
1350.148	748.62
1354.937	741.62
1359.722	730.62
1364.501	740.62
1369.276	722.62
1374.046	714.62
1378.811	721.62
1383.572	707.62
1388.327	706.62
1393.079	721.62
1397.825	706.62
1402.567	715.62
1407.304	718.62
1412.036	690.62
1416.764	689.62
1421.487	703.62
1426.205	702.62
1430.919	708.62
1435.628	706.62
1440.333	713.62
1445.032	715.62
1449.727	727.62
1454.418	731.62
1459.104	734.62
1463.785	731.62
1468.462	732.62
1473.134	708.62
1477.802	700.62
1482.465	697.62
1487.123	695.62
1491.777	691.62
1496.426	695.62
1501.071	700.62
1505.711	702.62
1510.347	720.62
1514.978	727.62
1519.604	733.62
1524.226	736.62
1528.844	741.62
1533.457	722.62
1538.065	725.62
1542.669	726.62
1547.269	730.62
1551.864	746.62
1556.454	734.62
1561.041	742.62
1565.622	743.62
1570.199	745.62
1574.772	760.62
1579.34	775.62
1583.904	772.62
1588.464	802.62
1593.019	818.62
1597.569	832.62
1602.115	826.62
1606.657	845.62
1611.195	851.62
1615.728	852.62
1620.256	853.62
1624.78	881.62
1629.3	885.62
1633.816	899.62
1638.327	903.62
1642.834	918.62
1647.336	936.62
1651.834	935.62
1656.328	944.62
1660.817	931.62
1665.302	923.62
1669.783	896.62
1674.259	888.62
1678.732	863.62
1683.199	845.62
1687.663	804.62
1692.122	780.62
1696.577	759.62
1701.028	728.62
1705.474	678.62
1709.917	670.62
1714.355	658.62
1718.788	652.62
1723.218	635.62
1727.643	619.62
1732.064	608.62
1736.481	594.62
1740.893	562.62
1745.301	572.62
1749.705	538.62
1754.105	532.62
1758.501	524.62
1762.893	520.62
1767.28	512.62
1771.663	496.62
1776.042	484.62
1780.417	478.62
1784.787	477.62
1789.154	497.62
1793.516	491.62
1797.874	491.62
1802.228	490.62
1806.578	484.62
1810.924	469.62
1815.266	471.62
1819.603	453.62
1823.937	456.62
1828.266	455.62
1832.591	443.62
1836.913	442.62
1841.23	434.62
1845.543	435.62
1849.852	431.62
1854.156	447.62
1858.457	439.62
1862.754	450.62
1867.047	447.62
1871.335	440.62
1875.62	447.62
1879.9	452.62
1884.177	452.62
1888.449	446.62
1892.718	447.62
1896.982	427.62
1901.243	431.62
1905.499	438.62
1909.752	438.62
1914	437.62
1918.245	435.62
1922.485	429.62
1926.722	438.62
1930.954	443.62
1935.183	443.62
1939.408	447.62
1943.628	445.62
1947.845	441.62
1952.058	445.62
1956.267	443.62
1960.472	442.62
1964.673	436.62
1968.87	431.62
1973.063	426.62
1977.252	421.62
1981.438	413.62
1985.619	424.62
1989.797	422.62
1993.971	418.62
1998.14	419.62
2002.306	428.62
2006.469	427.62
2010.627	427.62
2014.781	432.62
2018.932	429.62
2023.078	427.62
2027.221	420.62
2031.36	426.62
2035.495	419.62
2039.627	411.62
2043.754	422.62
2047.878	418.62
2051.998	410.62
2056.114	411.62
2060.226	413.62
2064.334	412.62
2068.439	421.62
2072.54	426.62
2076.637	433.62
2080.73	432.62
2084.82	424.62
2088.906	433.62
2092.988	429.62
2097.066	439.62
2101.14	434.62
2105.211	429.62
2109.278	418.62
2113.342	422.62
2117.401	420.62
2121.457	414.62
2125.509	418.62
2129.558	416.62
2133.602	418.62
2137.643	411.62
2141.681	408.62
2145.714	410.62
2149.744	410.62
2153.77	411.62
2157.793	403.62
2161.812	397.62
2165.827	396.62
2169.838	389.62
2173.846	384.62
2177.851	372.62
2181.851	379.62
2185.848	371.62
2189.841	362.62
2193.831	368.62
2197.817	363.62
2201.799	359.62
2205.778	354.62
2209.753	353.62
2213.725	354.62
2217.693	358.62
2221.657	358.62
2225.618	356.62
2229.575	347.62
2233.529	350.62
2237.479	347.62
2241.425	342.62
2245.368	344.62
2249.307	336.62
2253.243	330.62
2257.175	334.62
2261.104	329.62
2265.029	324.62
2268.95	324.62
2272.868	308.62
2276.783	306.62
2280.694	303.62
2284.601	301.62
2288.505	299.62
2292.405	300.62
2296.302	298.62
2300.195	287.62
2304.085	284.62
2307.971	275.62
2311.854	273.62
2315.734	266.62
2319.609	262.62
2323.482	265.62
2327.351	261.62
2331.216	255.62
2335.078	252.62
2338.937	252.62
2342.792	251.62
2346.643	248.62
2350.492	253.62
2354.336	257.62
2358.178	254.62
2362.015	254.62
2365.85	255.62
2369.681	250.62
2373.508	251.62
2377.333	251.62
2381.153	250.62
2384.971	256.62
2388.785	247.62
2392.595	247.62
2396.402	248.62
2400.206	244.62
2404.007	238.62
2407.804	242.62
2411.597	241.62
2415.388	240.62
2419.174	243.62
2422.958	236.62
2426.738	235.62
2430.515	236.62
2434.289	235.62
2438.059	235.62
2441.825	239.62
2445.589	231.62
2449.349	228.62
2453.106	228.62
2456.859	229.62
2460.61	231.62
2464.356	221.62
2468.1	221.62
2471.84	214.62
2475.577	218.62
2479.311	217.62
2483.041	216.62
2486.768	222.62
2490.492	228.62
2494.213	218.62
2497.93	221.62
2501.644	221.62
2505.355	210.62
2509.062	210.62
2512.766	214.62
2516.467	216.62
2520.165	216.62
2523.859	218.62
2527.551	205.62
2531.239	206.62
2534.923	209.62
2538.605	201.62
2542.283	206.62
2545.958	198.62
2549.63	203.62
2553.299	206.62
2556.964	198.62
2560.626	195.62
2564.285	192.62
2567.941	197.62
2571.594	195.62
2575.243	201.62
2578.89	187.62
2582.533	191.62
2586.173	188.62
2589.809	194.62
2593.443	191.62
2597.073	184.62
2600.701	184.62
2604.325	182.62
2607.946	186.62
2611.564	183.62
2615.178	180.62
2618.79	185.62
2622.398	185.62
2626.004	183.62
2629.606	172.62
2633.205	172.62
2636.801	176.62
2640.394	173.62
2643.983	171.62
2647.57	176.62
2651.153	171.62
2654.734	164.62
2658.311	171.62
2661.885	165.62
2665.456	163.62
2669.025	166.62
2672.589	159.62
2676.151	151.62
2679.71	157.62
2683.266	162.62
2686.819	157.62
2690.368	159.62
2693.915	150.62
2697.458	153.62
2700.999	145.62
2704.536	152.62
2708.071	142.62
2711.602	147.62
2715.13	153.62
2718.656	143.62
2722.178	138.62
2725.697	149.62
2729.214	145.62
2732.727	152.62
2736.237	153.62
2739.744	154.62
2743.249	148.62
2746.75	139.62
2750.248	149.62
2753.743	143.62
2757.236	148.62
2760.725	145.62
2764.211	149.62
2767.695	141.62
2771.175	143.62
2774.652	140.62
2778.127	137.62
2781.598	144.62
2785.067	142.62
2788.532	136.62
2791.995	141.62
2795.455	147.62
2798.911	145.62
2802.365	146.62
2805.816	145.62
2809.264	151.62
2812.709	145.62
2816.151	142.62
2819.59	149.62
2823.026	150.62
2826.46	151.62
2829.89	145.62
2833.318	149.62
2836.742	148.62
2840.164	148.62
2843.583	151.62
2846.999	149.62
2850.412	154.62
2853.822	164.62
2857.229	163.62
2860.634	163.62
2864.035	160.62
2867.434	167.62
2870.83	168.62
2874.223	176.62
2877.613	176.62
2881	180.62
2884.385	180.62
2887.766	182.62
2891.145	180.62
2894.521	178.62
2897.894	179.62
2901.264	182.62
2904.631	185.62
2907.996	197.62
2911.358	186.62
2914.717	184.62
2918.073	193.62
2921.426	192.62
2924.777	200.62
2928.124	202.62
2931.469	207.62
2934.811	207.62
2938.15	213.62
2941.487	213.62
2944.821	222.62
2948.152	217.62
2951.48	231.62
2954.805	224.62
2958.128	223.62
2961.447	223.62
2964.765	237.62
2968.079	235.62
2971.39	249.62
2974.699	248.62
2978.005	256.62
2981.308	258.62
2984.609	266.62
2987.907	273.62
2991.202	276.62
2994.494	282.62
2997.784	299.62
3001.07	302.62
3004.355	305.62
3007.636	313.62
3010.915	322.62
3014.191	328.62
3017.464	342.62
3020.734	341.62
3024.002	348.62
3027.267	343.62
3030.53	361.62
3033.789	372.62
3037.046	371.62
3040.301	375.62
3043.552	398.62
3046.801	396.62
3050.048	404.62
3053.291	420.62
3056.532	437.62
3059.771	445.62
3063.006	455.62
3066.239	467.62
3069.469	495.62
3072.697	505.62
3075.922	505.62
3079.144	522.62
3082.364	541.62
3085.581	552.62
3088.795	564.62
3092.007	564.62
3095.216	589.62
3098.423	603.62
3101.627	625.62
3104.828	625.62
3108.026	653.62
3111.222	659.62
3114.416	671.62
3117.607	695.62
3120.795	704.62
3123.98	704.62
3127.163	743.62
3130.344	756.62
3133.521	767.62
3136.696	784.62
3139.869	801.62
3143.039	817.62
3146.206	829.62
3149.371	837.62
3152.533	838.62
3155.693	860.62
3158.85	851.62
3162.005	853.62
3165.157	874.62
3168.306	859.62
3171.453	864.62
3174.597	867.62
3177.739	884.62
3180.878	886.62
3184.014	885.62
3187.149	880.62
3190.28	891.62
3193.409	904.62
3196.536	882.62
3199.659	898.62
3202.781	902.62
3205.9	903.62
3209.016	903.62
3212.13	891.62
3215.241	890.62
3218.35	885.62
3221.456	876.62
3224.56	878.62
3227.661	866.62
3230.76	861.62
3233.856	856.62
3236.95	833.62
3240.041	827.62
3243.13	812.62
3246.216	810.62
3249.3	813.62
3252.382	799.62
3255.46	811.62
3258.537	809.62
3261.611	793.62
3264.682	784.62
3267.751	777.62
3270.818	788.62
3273.882	789.62
3276.943	777.62
3280.002	768.62
3283.059	755.62
3286.113	756.62
3289.165	736.62
3292.214	739.62
3295.261	726.62
3298.306	711.62
3301.348	697.62
3304.387	698.62
3307.425	676.62
3310.459	671.62
3313.492	663.62
3316.521	660.62
3319.549	648.62
3322.574	653.62
3325.597	635.62
3328.617	634.62
3331.635	627.62
3334.65	625.62
3337.663	626.62
3340.674	605.62
3343.682	613.62
3346.688	602.62
3349.691	608.62
3352.692	604.62
3355.691	603.62
3358.687	596.62
3361.681	596.62
3364.673	590.62
3367.662	588.62
3370.649	578.62
3373.633	570.62
3376.615	560.62
3379.595	547.62
3382.572	550.62
3385.547	529.62
3388.52	531.62
3391.49	521.62
3394.458	511.62
3397.424	503.62
3400.387	502.62
3403.348	497.62
3406.307	488.62
3409.263	495.62
3412.217	477.62
3415.168	478.62
3418.118	470.62
3421.065	467.62
3424.009	452.62
3426.951	457.62
3429.891	458.62
3432.829	429.62
3435.764	439.62
3438.697	435.62
3441.628	419.62
3444.557	402.62
3447.483	394.62
3450.407	379.62
3453.328	380.62
3456.247	367.62
3459.164	353.62
3462.079	345.62
3464.991	323.62
3467.902	327.62
3470.809	310.62
3473.715	311.62
3476.618	295.62
3479.519	286.62
3482.418	281.62
3485.315	269.62
3488.209	263.62
3491.101	259.62
3493.99	251.62
3496.878	244.62
3499.763	243.62
3502.646	232.62
3505.527	225.62
3508.405	218.62
3511.281	210.62
3514.155	197.62
3517.027	192.62
3519.897	177.62
3522.764	178.62
3525.629	167.62
3528.492	171.62
3531.352	152.62
3534.211	146.62
3537.067	134.62
3539.921	128.62
3542.773	125.62
3545.622	128.62
3548.469	114.62
3551.315	110.62
3554.157	100.62
3556.998	95.62
3559.837	88.62
3562.673	90.62
3565.507	80.62
3568.339	75.62
3571.169	76.62
3573.996	71.62
3576.822	67.62
3579.645	56.62
3582.466	60.62
3585.285	62.62
3588.101	51.62
3590.916	43.62
3593.728	42.62
3596.538	39.62
3599.346	30.62
3602.152	33.62
3604.956	31.62
3607.757	31.62
3610.556	29.62
3613.354	22.62
3616.149	17.62
3618.942	14.62
3621.732	12.62
3624.521	14.62
3627.307	14.62
3630.092	10.62
3632.874	7.62
3635.654	5.62
3638.432	4.62
3641.208	2.62
3643.982	0.62
3646.753	-1.38
3649.523	-1.38
3652.29	-2.38
3655.055	-7.38
3657.818	-11.38
3660.579	-14.38
3663.338	-15.38
3666.095	-12.38
3668.849	-16.38
3671.602	-16.38
3674.352	-24.38
3677.101	-22.38
3679.847	-20.38
3682.591	-23.38
3685.333	-26.38
3688.073	-25.38
3690.811	-26.38
3693.547	-26.38
3696.281	-31.38
3699.013	-31.38
3701.742	-26.38
3704.47	-31.38
3707.195	-27.38
3709.919	-32.38
3712.64	-37.38
3715.359	-34.38
3718.076	-35.38
3720.792	-37.38
3723.505	-32.38
3726.216	-36.38
3728.925	-38.38
3731.632	-40.38
3734.336	-37.38
3737.039	-42.38
3739.74	-40.38
3742.439	-37.38
3745.136	-37.38
3747.83	-37.38
3750.523	-45.38
3753.213	-40.38
3755.902	-45.38
3758.589	-43.38
3761.273	-41.38
3763.956	-39.38
3766.636	-38.38
3769.315	-38.38
3771.991	-42.38
3774.665	-45.38
3777.338	-44.38
3780.008	-45.38
3782.677	-45.38
3785.343	-44.38
3788.007	-42.38
3790.67	-46.38
3793.33	-45.38
3795.989	-48.38
3798.645	-45.38
3801.299	-47.38
3803.952	-46.38
3806.602	-44.38
3809.251	-46.38
3811.897	-48.38
3814.542	-48.38
3817.184	-43.38
3819.825	-46.38
3822.463	-47.38
3825.1	-55.38
3827.735	-48.38
3830.367	-49.38
3832.998	-49.38
3835.627	-46.38
3838.253	-46.38
3840.878	-50.38
3843.501	-49.38
3846.122	-53.38
3848.741	-54.38
3851.358	-53.38
3853.973	-47.38
3856.586	-43.38
3859.197	-51.38
3861.806	-46.38
3864.414	-50.38
3867.019	-50.38
3869.622	-49.38
3872.224	-48.38
3874.823	-49.38
3877.421	-47.38
3880.016	-47.38
3882.61	-46.38
3885.202	-44.38
3887.792	-46.38
3890.38	-47.38
3892.966	-51.38
3895.55	-48.38
3898.132	-52.38
3900.713	-51.38
3903.291	-52.38
3905.868	-47.38
3908.442	-52.38
3911.015	-55.38
3913.586	-55.38
3916.155	-50.38
3918.722	-52.38
3921.287	-52.38
3923.85	-53.38
3926.411	-50.38
3928.971	-53.38
3931.528	-54.38
3934.084	-52.38
3936.638	-56.38
3939.19	-56.38
3941.74	-51.38
3944.288	-53.38
3946.834	-51.38
3949.378	-51.38
3951.921	-53.38
3954.462	-51.38
3957	-54.38
3959.537	-53.38
3962.072	-51.38
3964.606	-53.38
3967.137	-53.38
3969.667	-50.38
3972.194	-54.38
3974.72	-56.38
3977.244	-51.38
3979.766	-55.38
3982.286	-47.38
3984.805	-52.38
3987.321	-55.38
3989.836	-52.38
3992.349	-50.38
3994.86	-47.38
3997.369	-47.38
3999.877	-55.38
4002.382	-52.38
4004.886	-54.38
4007.388	-54.38
4009.888	-47.38
4012.386	-51.38
4014.883	-50.38
4017.377	-55.38
4019.87	-51.38
4022.361	-52.38
4024.85	-54.38
4027.338	-54.38
4029.823	-47.38
4032.307	-47.38
4034.789	-49.38
4037.269	-55.38
4039.747	-54.38
4042.224	-56.38
4044.699	-52.38
4047.172	-51.38
4049.643	-50.38
4052.112	-49.38
4054.58	-52.38
4057.046	-51.38
4059.51	-51.38
4061.972	-50.38
4064.432	-49.38
4066.891	-53.38
4069.348	-51.38
4071.803	-52.38
4074.256	-54.38
4076.708	-53.38
4079.158	-50.38
4081.606	-49.38
4084.052	-51.38
4086.497	-54.38
4088.939	-51.38
4091.38	-57.38
4093.819	-54.38
4096.257	-54.38
4098.693	-54.38
4101.127	-53.38
4103.559	-54.38
4105.989	-12.38
4108.418	-7.38
4110.845	-9.38
4113.27	-7.38
4115.694	-3.38
4118.115	-5.38
4120.535	-52.38
4122.954	-50.38
4125.37	-51.38
4127.785	-49.38
4130.198	-53.38
4132.609	-56.38
4135.019	-56.38
4137.427	-56.38
4139.833	-57.38
4142.237	-55.38
