Data from 1000CFU1_FROM15TH_ramanshift_RamanShift_13-31-45-730.txt Node
Date: Sun Dec 25 13:31:45 IST 2016
User: aro
Spectrometer: QEPB0276
Trigger mode: 0
Integration Time (sec): 5.000000E0
Scans to average: 1
Electric dark correction enabled: true
Nonlinearity correction enabled: false
Boxcar width: 0
XAxis mode: Raman Shifts
Number of Pixels in Spectrum: 1044
>>>>>Begin Spectral Data<<<<<
160.701	6.75
166.742	17.75
172.777	69.75
178.805	208.75
184.826	619.75
190.841	1441.75
196.849	2686.75
202.85	3785.75
208.845	4398.75
214.833	4398.75
220.815	4239.75
226.789	4095.75
232.758	4011.75
238.719	3927.75
244.674	3794.75
250.623	3672.75
256.565	3521.75
262.5	3366.75
268.429	3224.75
274.351	3106.75
280.267	3001.75
286.176	2896.75
292.079	2808.75
297.975	2728.75
303.865	2639.75
309.748	2586.75
315.625	2504.75
321.495	2464.75
327.359	2426.75
333.217	2390.75
339.068	2373.75
344.912	2361.75
350.751	2330.75
356.583	2321.75
362.408	2303.75
368.227	2336.75
374.04	2310.75
379.847	2326.75
385.647	2339.75
391.44	2335.75
397.228	2352.75
403.009	2366.75
408.784	2385.75
414.553	2381.75
420.315	2416.75
426.071	2405.75
431.821	2405.75
437.565	2414.75
443.302	2400.75
449.033	2389.75
454.758	2403.75
460.477	2379.75
466.189	2386.75
471.896	2388.75
477.596	2372.75
483.29	2374.75
488.978	2377.75
494.66	2360.75
500.335	2325.75
506.005	2307.75
511.668	2270.75
517.325	2255.75
522.977	2244.75
528.622	2183.75
534.261	2181.75
539.894	2147.75
545.521	2153.75
551.141	2140.75
556.756	2109.75
562.365	2105.75
567.968	2107.75
573.565	2110.75
579.155	2118.75
584.74	2084.75
590.319	2054.75
595.892	2050.75
601.459	2045.75
607.02	2051.75
612.575	2038.75
618.124	2015.75
623.667	2012.75
629.204	1994.75
634.735	1979.75
640.261	1958.75
645.781	1931.75
651.294	1946.75
656.802	1935.75
662.304	1922.75
667.8	1919.75
673.29	1917.75
678.775	1927.75
684.254	1923.75
689.726	1920.75
695.193	1909.75
700.655	1879.75
706.11	1887.75
711.56	1874.75
717.004	1875.75
722.442	1865.75
727.874	1842.75
733.301	1833.75
738.722	1837.75
744.137	1833.75
749.547	1810.75
754.951	1819.75
760.349	1812.75
765.741	1820.75
771.128	1820.75
776.509	1808.75
781.885	1836.75
787.254	1821.75
792.618	1808.75
797.977	1837.75
803.33	1810.75
808.677	1780.75
814.019	1782.75
819.355	1774.75
824.686	1766.75
830.011	1745.75
835.33	1752.75
840.644	1757.75
845.952	1737.75
851.255	1734.75
856.552	1742.75
861.844	1739.75
867.13	1711.75
872.41	1721.75
877.686	1707.75
882.955	1706.75
888.219	1696.75
893.478	1655.75
898.731	1631.75
903.979	1628.75
909.221	1609.75
914.458	1605.75
919.69	1588.75
924.916	1590.75
930.136	1596.75
935.351	1606.75
940.561	1597.75
945.766	1587.75
950.965	1570.75
956.158	1581.75
961.347	1592.75
966.529	1545.75
971.707	1539.75
976.879	1525.75
982.046	1504.75
987.208	1493.75
992.364	1509.75
997.515	1488.75
1002.66	1508.75
1007.801	1523.75
1012.936	1524.75
1018.066	1552.75
1023.19	1549.75
1028.309	1564.75
1033.423	1575.75
1038.532	1558.75
1043.636	1568.75
1048.734	1556.75
1053.827	1527.75
1058.915	1504.75
1063.998	1489.75
1069.075	1493.75
1074.147	1493.75
1079.214	1500.75
1084.276	1514.75
1089.333	1515.75
1094.385	1532.75
1099.431	1546.75
1104.472	1562.75
1109.509	1539.75
1114.54	1531.75
1119.565	1535.75
1124.586	1516.75
1129.602	1503.75
1134.613	1493.75
1139.618	1473.75
1144.619	1475.75
1149.614	1491.75
1154.604	1502.75
1159.589	1495.75
1164.57	1496.75
1169.545	1508.75
1174.515	1513.75
1179.48	1509.75
1184.44	1494.75
1189.395	1496.75
1194.345	1487.75
1199.29	1476.75
1204.23	1470.75
1209.165	1475.75
1214.095	1481.75
1219.021	1501.75
1223.941	1512.75
1228.856	1521.75
1233.766	1533.75
1238.672	1550.75
1243.572	1528.75
1248.467	1521.75
1253.358	1526.75
1258.244	1511.75
1263.124	1493.75
1268	1476.75
1272.871	1455.75
1277.737	1430.75
1282.599	1436.75
1287.455	1436.75
1292.306	1433.75
1297.153	1460.75
1301.995	1460.75
1306.832	1462.75
1311.664	1459.75
1316.491	1484.75
1321.314	1473.75
1326.132	1456.75
1330.945	1449.75
1335.753	1441.75
1340.556	1419.75
1345.354	1406.75
1350.148	1398.75
1354.937	1394.75
1359.722	1387.75
1364.501	1374.75
1369.276	1364.75
1374.046	1359.75
1378.811	1350.75
1383.572	1363.75
1388.327	1354.75
1393.079	1351.75
1397.825	1338.75
1402.567	1325.75
1407.304	1327.75
1412.036	1319.75
1416.764	1311.75
1421.487	1321.75
1426.205	1320.75
1430.919	1327.75
1435.628	1333.75
1440.333	1355.75
1445.032	1364.75
1449.727	1380.75
1454.418	1363.75
1459.104	1381.75
1463.785	1377.75
1468.462	1361.75
1473.134	1352.75
1477.802	1355.75
1482.465	1326.75
1487.123	1311.75
1491.777	1326.75
1496.426	1311.75
1501.071	1326.75
1505.711	1330.75
1510.347	1345.75
1514.978	1351.75
1519.604	1366.75
1524.226	1381.75
1528.844	1376.75
1533.457	1394.75
1538.065	1378.75
1542.669	1381.75
1547.269	1349.75
1551.864	1371.75
1556.454	1376.75
1561.041	1388.75
1565.622	1375.75
1570.199	1397.75
1574.772	1421.75
1579.34	1424.75
1583.904	1443.75
1588.464	1475.75
1593.019	1470.75
1597.569	1497.75
1602.115	1506.75
1606.657	1502.75
1611.195	1509.75
1615.728	1505.75
1620.256	1516.75
1624.78	1534.75
1629.3	1540.75
1633.816	1567.75
1638.327	1580.75
1642.834	1591.75
1647.336	1626.75
1651.834	1618.75
1656.328	1609.75
1660.817	1630.75
1665.302	1610.75
1669.783	1588.75
1674.259	1555.75
1678.732	1520.75
1683.199	1473.75
1687.663	1447.75
1692.122	1412.75
1696.577	1358.75
1701.028	1324.75
1705.474	1273.75
1709.917	1236.75
1714.355	1218.75
1718.788	1203.75
1723.218	1207.75
1727.643	1192.75
1732.064	1172.75
1736.481	1143.75
1740.893	1128.75
1745.301	1112.75
1749.705	1088.75
1754.105	1076.75
1758.501	1045.75
1762.893	1025.75
1767.28	1016.75
1771.663	1006.75
1776.042	993.75
1780.417	1003.75
1784.787	1001.75
1789.154	999.75
1793.516	1001.75
1797.874	999.75
1802.228	1010.75
1806.578	1008.75
1810.924	978.75
1815.266	971.75
1819.603	971.75
1823.937	954.75
1828.266	942.75
1832.591	948.75
1836.913	940.75
1841.23	931.75
1845.543	938.75
1849.852	929.75
1854.156	944.75
1858.457	929.75
1862.754	950.75
1867.047	943.75
1871.335	932.75
1875.62	939.75
1879.9	944.75
1884.177	947.75
1888.449	941.75
1892.718	936.75
1896.982	938.75
1901.243	938.75
1905.499	933.75
1909.752	925.75
1914	915.75
1918.245	908.75
1922.485	917.75
1926.722	923.75
1930.954	940.75
1935.183	919.75
1939.408	925.75
1943.628	945.75
1947.845	928.75
1952.058	939.75
1956.267	931.75
1960.472	914.75
1964.673	926.75
1968.87	902.75
1973.063	898.75
1977.252	892.75
1981.438	881.75
1985.619	884.75
1989.797	880.75
1993.971	898.75
1998.14	883.75
2002.306	884.75
2006.469	883.75
2010.627	900.75
2014.781	887.75
2018.932	887.75
2023.078	906.75
2027.221	902.75
2031.36	889.75
2035.495	879.75
2039.627	879.75
2043.754	872.75
2047.878	873.75
2051.998	861.75
2056.114	856.75
2060.226	869.75
2064.334	870.75
2068.439	859.75
2072.54	874.75
2076.637	878.75
2080.73	867.75
2084.82	866.75
2088.906	866.75
2092.988	880.75
2097.066	876.75
2101.14	857.75
2105.211	864.75
2109.278	857.75
2113.342	853.75
2117.401	839.75
2121.457	843.75
2125.509	830.75
2129.558	831.75
2133.602	830.75
2137.643	832.75
2141.681	838.75
2145.714	847.75
2149.744	843.75
2153.77	820.75
2157.793	816.75
2161.812	822.75
2165.827	807.75
2169.838	801.75
2173.846	786.75
2177.851	772.75
2181.851	778.75
2185.848	762.75
2189.841	757.75
2193.831	751.75
2197.817	738.75
2201.799	745.75
2205.778	737.75
2209.753	740.75
2213.725	741.75
2217.693	739.75
2221.657	749.75
2225.618	732.75
2229.575	731.75
2233.529	735.75
2237.479	734.75
2241.425	728.75
2245.368	725.75
2249.307	706.75
2253.243	700.75
2257.175	701.75
2261.104	687.75
2265.029	665.75
2268.95	675.75
2272.868	654.75
2276.783	671.75
2280.694	662.75
2284.601	637.75
2288.505	634.75
2292.405	639.75
2296.302	630.75
2300.195	615.75
2304.085	616.75
2307.971	605.75
2311.854	596.75
2315.734	589.75
2319.609	584.75
2323.482	580.75
2327.351	571.75
2331.216	580.75
2335.078	565.75
2338.937	554.75
2342.792	554.75
2346.643	562.75
2350.492	564.75
2354.336	570.75
2358.178	554.75
2362.015	561.75
2365.85	550.75
2369.681	555.75
2373.508	556.75
2377.333	565.75
2381.153	573.75
2384.971	558.75
2388.785	561.75
2392.595	557.75
2396.402	553.75
2400.206	547.75
2404.007	543.75
2407.804	547.75
2411.597	546.75
2415.388	547.75
2419.174	543.75
2422.958	536.75
2426.738	542.75
2430.515	535.75
2434.289	528.75
2438.059	538.75
2441.825	535.75
2445.589	532.75
2449.349	528.75
2453.106	523.75
2456.859	520.75
2460.61	516.75
2464.356	508.75
2468.1	511.75
2471.84	512.75
2475.577	488.75
2479.311	502.75
2483.041	501.75
2486.768	505.75
2490.492	495.75
2494.213	495.75
2497.93	500.75
2501.644	503.75
2505.355	504.75
2509.062	501.75
2512.766	500.75
2516.467	510.75
2520.165	498.75
2523.859	487.75
2527.551	479.75
2531.239	473.75
2534.923	476.75
2538.605	472.75
2542.283	475.75
2545.958	467.75
2549.63	466.75
2553.299	461.75
2556.964	456.75
2560.626	455.75
2564.285	449.75
2567.941	457.75
2571.594	447.75
2575.243	445.75
2578.89	447.75
2582.533	444.75
2586.173	442.75
2589.809	435.75
2593.443	437.75
2597.073	428.75
2600.701	422.75
2604.325	425.75
2607.946	431.75
2611.564	431.75
2615.178	424.75
2618.79	431.75
2622.398	418.75
2626.004	424.75
2629.606	419.75
2633.205	418.75
2636.801	414.75
2640.394	411.75
2643.983	406.75
2647.57	404.75
2651.153	398.75
2654.734	388.75
2658.311	388.75
2661.885	379.75
2665.456	392.75
2669.025	383.75
2672.589	389.75
2676.151	383.75
2679.71	381.75
2683.266	374.75
2686.819	362.75
2690.368	363.75
2693.915	361.75
2697.458	357.75
2700.999	360.75
2704.536	349.75
2708.071	349.75
2711.602	344.75
2715.13	347.75
2718.656	333.75
2722.178	343.75
2725.697	345.75
2729.214	339.75
2732.727	341.75
2736.237	348.75
2739.744	344.75
2743.249	340.75
2746.75	337.75
2750.248	335.75
2753.743	338.75
2757.236	328.75
2760.725	332.75
2764.211	333.75
2767.695	336.75
2771.175	323.75
2774.652	322.75
2778.127	317.75
2781.598	318.75
2785.067	319.75
2788.532	317.75
2791.995	325.75
2795.455	319.75
2798.911	324.75
2802.365	322.75
2805.816	316.75
2809.264	333.75
2812.709	323.75
2816.151	322.75
2819.59	319.75
2823.026	317.75
2826.46	321.75
2829.89	316.75
2833.318	317.75
2836.742	322.75
2840.164	324.75
2843.583	313.75
2846.999	316.75
2850.412	329.75
2853.822	327.75
2857.229	329.75
2860.634	325.75
2864.035	334.75
2867.434	337.75
2870.83	328.75
2874.223	339.75
2877.613	342.75
2881	348.75
2884.385	344.75
2887.766	339.75
2891.145	341.75
2894.521	336.75
2897.894	336.75
2901.264	344.75
2904.631	330.75
2907.996	350.75
2911.358	346.75
2914.717	333.75
2918.073	346.75
2921.426	348.75
2924.777	348.75
2928.124	355.75
2931.469	353.75
2934.811	360.75
2938.15	357.75
2941.487	371.75
2944.821	366.75
2948.152	372.75
2951.48	373.75
2954.805	380.75
2958.128	375.75
2961.447	378.75
2964.765	383.75
2968.079	400.75
2971.39	396.75
2974.699	403.75
2978.005	415.75
2981.308	411.75
2984.609	416.75
2987.907	418.75
2991.202	426.75
2994.494	443.75
2997.784	453.75
3001.07	456.75
3004.355	467.75
3007.636	483.75
3010.915	492.75
3014.191	495.75
3017.464	500.75
3020.734	504.75
3024.002	517.75
3027.267	506.75
3030.53	517.75
3033.789	529.75
3037.046	542.75
3040.301	549.75
3043.552	559.75
3046.801	563.75
3050.048	578.75
3053.291	585.75
3056.532	608.75
3059.771	617.75
3063.006	626.75
3066.239	649.75
3069.469	668.75
3072.697	671.75
3075.922	702.75
3079.144	714.75
3082.364	727.75
3085.581	752.75
3088.795	763.75
3092.007	772.75
3095.216	775.75
3098.423	805.75
3101.627	819.75
3104.828	840.75
3108.026	849.75
3111.222	870.75
3114.416	885.75
3117.607	900.75
3120.795	915.75
3123.98	928.75
3127.163	946.75
3130.344	991.75
3133.521	997.75
3136.696	1009.75
3139.869	1036.75
3143.039	1055.75
3146.206	1075.75
3149.371	1084.75
3152.533	1084.75
3155.693	1116.75
3158.85	1108.75
3162.005	1106.75
3165.157	1119.75
3168.306	1119.75
3171.453	1096.75
3174.597	1120.75
3177.739	1124.75
3180.878	1119.75
3184.014	1137.75
3187.149	1146.75
3190.28	1136.75
3193.409	1139.75
3196.536	1135.75
3199.659	1136.75
3202.781	1147.75
3205.9	1153.75
3209.016	1147.75
3212.13	1156.75
3215.241	1165.75
3218.35	1134.75
3221.456	1133.75
3224.56	1124.75
3227.661	1096.75
3230.76	1092.75
3233.856	1079.75
3236.95	1063.75
3240.041	1065.75
3243.13	1062.75
3246.216	1051.75
3249.3	1040.75
3252.382	1024.75
3255.46	1024.75
3258.537	1016.75
3261.611	1021.75
3264.682	1007.75
3267.751	1002.75
3270.818	1005.75
3273.882	1001.75
3276.943	1004.75
3280.002	979.75
3283.059	982.75
3286.113	968.75
3289.165	945.75
3292.214	939.75
3295.261	928.75
3298.306	919.75
3301.348	898.75
3304.387	884.75
3307.425	877.75
3310.459	866.75
3313.492	864.75
3316.521	827.75
3319.549	834.75
3322.574	833.75
3325.597	818.75
3328.617	810.75
3331.635	813.75
3334.65	815.75
3337.663	799.75
3340.674	796.75
3343.682	791.75
3346.688	777.75
3349.691	788.75
3352.692	773.75
3355.691	767.75
3358.687	775.75
3361.681	761.75
3364.673	757.75
3367.662	752.75
3370.649	737.75
3373.633	735.75
3376.615	721.75
3379.595	699.75
3382.572	708.75
3385.547	690.75
3388.52	676.75
3391.49	663.75
3394.458	662.75
3397.424	649.75
3400.387	640.75
3403.348	641.75
3406.307	630.75
3409.263	632.75
3412.217	623.75
3415.168	604.75
3418.118	604.75
3421.065	597.75
3424.009	596.75
3426.951	582.75
3429.891	590.75
3432.829	574.75
3435.764	561.75
3438.697	549.75
3441.628	533.75
3444.557	525.75
3447.483	512.75
3450.407	490.75
3453.328	482.75
3456.247	471.75
3459.164	462.75
3462.079	453.75
3464.991	436.75
3467.902	420.75
3470.809	404.75
3473.715	393.75
3476.618	391.75
3479.519	370.75
3482.418	369.75
3485.315	359.75
3488.209	339.75
3491.101	337.75
3493.99	322.75
3496.878	312.75
3499.763	305.75
3502.646	301.75
3505.527	293.75
3508.405	276.75
3511.281	276.75
3514.155	255.75
3517.027	250.75
3519.897	237.75
3522.764	227.75
3525.629	228.75
3528.492	214.75
3531.352	202.75
3534.211	190.75
3537.067	172.75
3539.921	173.75
3542.773	162.75
3545.622	153.75
3548.469	149.75
3551.315	138.75
3554.157	134.75
3556.998	125.75
3559.837	118.75
3562.673	111.75
3565.507	107.75
3568.339	100.75
3571.169	102.75
3573.996	92.75
3576.822	91.75
3579.645	85.75
3582.466	80.75
3585.285	73.75
3588.101	67.75
3590.916	61.75
3593.728	56.75
3596.538	48.75
3599.346	46.75
3602.152	44.75
3604.956	40.75
3607.757	37.75
3610.556	35.75
3613.354	35.75
3616.149	16.75
3618.942	22.75
3621.732	23.75
3624.521	16.75
3627.307	14.75
3630.092	11.75
3632.874	10.75
3635.654	9.75
3638.432	2.75
3641.208	-1.25
3643.982	0.75
3646.753	-0.25
3649.523	-3.25
3652.29	-2.25
3655.055	-6.25
3657.818	-11.25
3660.579	-15.25
3663.338	-16.25
3666.095	-18.25
3668.849	-19.25
3671.602	-21.25
3674.352	-27.25
3677.101	-25.25
3679.847	-27.25
3682.591	-34.25
3685.333	-28.25
3688.073	-33.25
3690.811	-34.25
3693.547	-34.25
3696.281	-34.25
3699.013	-38.25
3701.742	-37.25
3704.47	-41.25
3707.195	-37.25
3709.919	-43.25
3712.64	-50.25
3715.359	-43.25
3718.076	-45.25
3720.792	-47.25
3723.505	-41.25
3726.216	-50.25
3728.925	-51.25
3731.632	-51.25
3734.336	-48.25
3737.039	-55.25
3739.74	-51.25
3742.439	-47.25
3745.136	-51.25
3747.83	-50.25
3750.523	-60.25
3753.213	-57.25
3755.902	-53.25
3758.589	-55.25
3761.273	-54.25
3763.956	-54.25
3766.636	-52.25
3769.315	-55.25
3771.991	-58.25
3774.665	-58.25
3777.338	-58.25
3780.008	-56.25
3782.677	-58.25
3785.343	-59.25
3788.007	-61.25
3790.67	-60.25
3793.33	-58.25
3795.989	-60.25
3798.645	-63.25
3801.299	-61.25
3803.952	-60.25
3806.602	-60.25
3809.251	-61.25
3811.897	-62.25
3814.542	-65.25
3817.184	-61.25
3819.825	-60.25
3822.463	-63.25
3825.1	-69.25
3827.735	-64.25
3830.367	-68.25
3832.998	-66.25
3835.627	-63.25
3838.253	-61.25
3840.878	-64.25
3843.501	-66.25
3846.122	-66.25
3848.741	-71.25
3851.358	-70.25
3853.973	-66.25
3856.586	-61.25
3859.197	-67.25
3861.806	-65.25
3864.414	-65.25
3867.019	-68.25
3869.622	-65.25
3872.224	-68.25
3874.823	-67.25
3877.421	-66.25
3880.016	-69.25
3882.61	-64.25
3885.202	-59.25
3887.792	-61.25
3890.38	-61.25
3892.966	-66.25
3895.55	-72.25
3898.132	-68.25
3900.713	-69.25
3903.291	-72.25
3905.868	-67.25
3908.442	-72.25
3911.015	-72.25
3913.586	-70.25
3916.155	-69.25
3918.722	-70.25
3921.287	-68.25
3923.85	-74.25
3926.411	-68.25
3928.971	-68.25
3931.528	-70.25
3934.084	-69.25
3936.638	-73.25
3939.19	-69.25
3941.74	-73.25
3944.288	-72.25
3946.834	-71.25
3949.378	-73.25
3951.921	-70.25
3954.462	-68.25
3957	-68.25
3959.537	-68.25
3962.072	-70.25
3964.606	-70.25
3967.137	-72.25
3969.667	-72.25
3972.194	-75.25
3974.72	-73.25
3977.244	-67.25
3979.766	-71.25
3982.286	-66.25
3984.805	-71.25
3987.321	-72.25
3989.836	-71.25
3992.349	-71.25
3994.86	-68.25
3997.369	-66.25
3999.877	-67.25
4002.382	-68.25
4004.886	-71.25
4007.388	-71.25
4009.888	-69.25
4012.386	-68.25
4014.883	-70.25
4017.377	-69.25
4019.87	-70.25
4022.361	-71.25
4024.85	-69.25
4027.338	-69.25
4029.823	-66.25
4032.307	-68.25
4034.789	-70.25
4037.269	-72.25
4039.747	-71.25
4042.224	-72.25
4044.699	-69.25
4047.172	-69.25
4049.643	-68.25
4052.112	-71.25
4054.58	-76.25
4057.046	-69.25
4059.51	-70.25
4061.972	-69.25
4064.432	-67.25
4066.891	-68.25
4069.348	-71.25
4071.803	-71.25
4074.256	-74.25
4076.708	-77.25
4079.158	-71.25
4081.606	-65.25
4084.052	-70.25
4086.497	-70.25
4088.939	-71.25
4091.38	-74.25
4093.819	-72.25
4096.257	-74.25
4098.693	-73.25
4101.127	-76.25
4103.559	-74.25
4105.989	-25.25
4108.418	-20.25
4110.845	-16.25
4113.27	-17.25
4115.694	-10.25
4118.115	-8.25
4120.535	-73.25
4122.954	-73.25
4125.37	-70.25
4127.785	-68.25
4130.198	-72.25
4132.609	-70.25
4135.019	-75.25
4137.427	-76.25
4139.833	-75.25
4142.237	-76.25
