Data from 100000CFU1_C_ramanshift_RamanShift_15-27-32-536.txt Node
Date: Sun Dec 25 15:27:32 IST 2016
User: aro
Spectrometer: QEPB0276
Trigger mode: 0
Integration Time (sec): 5.000000E0
Scans to average: 1
Electric dark correction enabled: true
Nonlinearity correction enabled: false
Boxcar width: 0
XAxis mode: Raman Shifts
Number of Pixels in Spectrum: 1044
>>>>>Begin Spectral Data<<<<<
160.701	6.38
166.742	19.38
172.777	63.38
178.805	207.38
184.826	628.38
190.841	1494.38
196.849	2757.38
202.85	3957.38
208.845	4561.38
214.833	4578.38
220.815	4384.38
226.789	4243.38
232.758	4157.38
238.719	4039.38
244.674	3884.38
250.623	3752.38
256.565	3605.38
262.5	3423.38
268.429	3266.38
274.351	3127.38
280.267	3002.38
286.176	2889.38
292.079	2799.38
297.975	2705.38
303.865	2613.38
309.748	2522.38
315.625	2441.38
321.495	2373.38
327.359	2328.38
333.217	2308.38
339.068	2273.38
344.912	2247.38
350.751	2239.38
356.583	2249.38
362.408	2224.38
368.227	2216.38
374.04	2223.38
379.847	2237.38
385.647	2255.38
391.44	2264.38
397.228	2265.38
403.009	2279.38
408.784	2299.38
414.553	2298.38
420.315	2309.38
426.071	2312.38
431.821	2302.38
437.565	2324.38
443.302	2306.38
449.033	2301.38
454.758	2318.38
460.477	2300.38
466.189	2278.38
471.896	2282.38
477.596	2277.38
483.29	2267.38
488.978	2264.38
494.66	2259.38
500.335	2218.38
506.005	2193.38
511.668	2172.38
517.325	2129.38
522.977	2114.38
528.622	2112.38
534.261	2058.38
539.894	2028.38
545.521	2017.38
551.141	2002.38
556.756	2017.38
562.365	2004.38
567.968	1986.38
573.565	1965.38
579.155	1966.38
584.74	1941.38
590.319	1934.38
595.892	1938.38
601.459	1921.38
607.02	1910.38
612.575	1882.38
618.124	1885.38
623.667	1863.38
629.204	1867.38
634.735	1850.38
640.261	1815.38
645.781	1820.38
651.294	1799.38
656.802	1801.38
662.304	1788.38
667.8	1795.38
673.29	1782.38
678.775	1763.38
684.254	1778.38
689.726	1754.38
695.193	1746.38
700.655	1765.38
706.11	1752.38
711.56	1748.38
717.004	1716.38
722.442	1704.38
727.874	1710.38
733.301	1687.38
738.722	1676.38
744.137	1671.38
749.547	1669.38
754.951	1671.38
760.349	1667.38
765.741	1673.38
771.128	1674.38
776.509	1662.38
781.885	1670.38
787.254	1677.38
792.618	1661.38
797.977	1666.38
803.33	1642.38
808.677	1625.38
814.019	1634.38
819.355	1603.38
824.686	1581.38
830.011	1566.38
835.33	1575.38
840.644	1581.38
845.952	1570.38
851.255	1543.38
856.552	1562.38
861.844	1541.38
867.13	1561.38
872.41	1555.38
877.686	1536.38
882.955	1525.38
888.219	1516.38
893.478	1488.38
898.731	1459.38
903.979	1445.38
909.221	1432.38
914.458	1428.38
919.69	1405.38
924.916	1417.38
930.136	1409.38
935.351	1405.38
940.561	1402.38
945.766	1403.38
950.965	1389.38
956.158	1387.38
961.347	1368.38
966.529	1350.38
971.707	1337.38
976.879	1325.38
982.046	1319.38
987.208	1316.38
992.364	1297.38
997.515	1298.38
1002.66	1315.38
1007.801	1323.38
1012.936	1338.38
1018.066	1349.38
1023.19	1342.38
1028.309	1360.38
1033.423	1354.38
1038.532	1341.38
1043.636	1335.38
1048.734	1347.38
1053.827	1331.38
1058.915	1319.38
1063.998	1293.38
1069.075	1294.38
1074.147	1294.38
1079.214	1294.38
1084.276	1302.38
1089.333	1333.38
1094.385	1336.38
1099.431	1336.38
1104.472	1348.38
1109.509	1345.38
1114.54	1316.38
1119.565	1327.38
1124.586	1305.38
1129.602	1298.38
1134.613	1287.38
1139.618	1283.38
1144.619	1276.38
1149.614	1277.38
1154.604	1287.38
1159.589	1304.38
1164.57	1286.38
1169.545	1308.38
1174.515	1323.38
1179.48	1314.38
1184.44	1311.38
1189.395	1297.38
1194.345	1295.38
1199.29	1283.38
1204.23	1278.38
1209.165	1280.38
1214.095	1297.38
1219.021	1300.38
1223.941	1303.38
1228.856	1322.38
1233.766	1321.38
1238.672	1327.38
1243.572	1321.38
1248.467	1323.38
1253.358	1312.38
1258.244	1310.38
1263.124	1287.38
1268	1270.38
1272.871	1243.38
1277.737	1232.38
1282.599	1219.38
1287.455	1230.38
1292.306	1237.38
1297.153	1254.38
1301.995	1244.38
1306.832	1259.38
1311.664	1275.38
1316.491	1292.38
1321.314	1276.38
1326.132	1272.38
1330.945	1251.38
1335.753	1258.38
1340.556	1227.38
1345.354	1218.38
1350.148	1209.38
1354.937	1203.38
1359.722	1187.38
1364.501	1181.38
1369.276	1169.38
1374.046	1156.38
1378.811	1160.38
1383.572	1158.38
1388.327	1146.38
1393.079	1165.38
1397.825	1151.38
1402.567	1145.38
1407.304	1121.38
1412.036	1131.38
1416.764	1122.38
1421.487	1114.38
1426.205	1132.38
1430.919	1139.38
1435.628	1132.38
1440.333	1166.38
1445.032	1165.38
1449.727	1185.38
1454.418	1185.38
1459.104	1188.38
1463.785	1176.38
1468.462	1186.38
1473.134	1161.38
1477.802	1149.38
1482.465	1135.38
1487.123	1148.38
1491.777	1136.38
1496.426	1147.38
1501.071	1146.38
1505.711	1154.38
1510.347	1164.38
1514.978	1173.38
1519.604	1186.38
1524.226	1192.38
1528.844	1177.38
1533.457	1181.38
1538.065	1195.38
1542.669	1182.38
1547.269	1180.38
1551.864	1199.38
1556.454	1197.38
1561.041	1193.38
1565.622	1193.38
1570.199	1219.38
1574.772	1227.38
1579.34	1253.38
1583.904	1277.38
1588.464	1297.38
1593.019	1288.38
1597.569	1315.38
1602.115	1333.38
1606.657	1332.38
1611.195	1339.38
1615.728	1340.38
1620.256	1367.38
1624.78	1388.38
1629.3	1385.38
1633.816	1424.38
1638.327	1419.38
1642.834	1451.38
1647.336	1458.38
1651.834	1474.38
1656.328	1467.38
1660.817	1474.38
1665.302	1457.38
1669.783	1436.38
1674.259	1404.38
1678.732	1369.38
1683.199	1335.38
1687.663	1304.38
1692.122	1276.38
1696.577	1212.38
1701.028	1188.38
1705.474	1126.38
1709.917	1079.38
1714.355	1065.38
1718.788	1028.38
1723.218	1036.38
1727.643	1020.38
1732.064	1018.38
1736.481	981.38
1740.893	971.38
1745.301	950.38
1749.705	919.38
1754.105	909.38
1758.501	880.38
1762.893	875.38
1767.28	875.38
1771.663	861.38
1776.042	842.38
1780.417	850.38
1784.787	836.38
1789.154	844.38
1793.516	846.38
1797.874	845.38
1802.228	865.38
1806.578	840.38
1810.924	816.38
1815.266	817.38
1819.603	808.38
1823.937	780.38
1828.266	775.38
1832.591	779.38
1836.913	766.38
1841.23	756.38
1845.543	772.38
1849.852	773.38
1854.156	787.38
1858.457	770.38
1862.754	790.38
1867.047	774.38
1871.335	787.38
1875.62	788.38
1879.9	784.38
1884.177	799.38
1888.449	792.38
1892.718	785.38
1896.982	774.38
1901.243	772.38
1905.499	759.38
1909.752	775.38
1914	761.38
1918.245	762.38
1922.485	768.38
1926.722	756.38
1930.954	773.38
1935.183	770.38
1939.408	777.38
1943.628	780.38
1947.845	777.38
1952.058	781.38
1956.267	775.38
1960.472	779.38
1964.673	770.38
1968.87	756.38
1973.063	759.38
1977.252	753.38
1981.438	739.38
1985.619	735.38
1989.797	740.38
1993.971	731.38
1998.14	734.38
2002.306	748.38
2006.469	742.38
2010.627	748.38
2014.781	745.38
2018.932	753.38
2023.078	752.38
2027.221	753.38
2031.36	745.38
2035.495	744.38
2039.627	740.38
2043.754	729.38
2047.878	732.38
2051.998	728.38
2056.114	735.38
2060.226	725.38
2064.334	723.38
2068.439	721.38
2072.54	744.38
2076.637	735.38
2080.73	736.38
2084.82	752.38
2088.906	752.38
2092.988	750.38
2097.066	742.38
2101.14	754.38
2105.211	728.38
2109.278	730.38
2113.342	732.38
2117.401	714.38
2121.457	725.38
2125.509	714.38
2129.558	715.38
2133.602	719.38
2137.643	715.38
2141.681	700.38
2145.714	699.38
2149.744	706.38
2153.77	708.38
2157.793	703.38
2161.812	698.38
2165.827	680.38
2169.838	686.38
2173.846	668.38
2177.851	668.38
2181.851	661.38
2185.848	638.38
2189.841	645.38
2193.831	628.38
2197.817	626.38
2201.799	637.38
2205.778	621.38
2209.753	627.38
2213.725	629.38
2217.693	616.38
2221.657	618.38
2225.618	627.38
2229.575	627.38
2233.529	623.38
2237.479	602.38
2241.425	614.38
2245.368	596.38
2249.307	598.38
2253.243	584.38
2257.175	587.38
2261.104	566.38
2265.029	568.38
2268.95	552.38
2272.868	561.38
2276.783	545.38
2280.694	543.38
2284.601	543.38
2288.505	535.38
2292.405	530.38
2296.302	533.38
2300.195	525.38
2304.085	520.38
2307.971	502.38
2311.854	496.38
2315.734	494.38
2319.609	498.38
2323.482	481.38
2327.351	477.38
2331.216	478.38
2335.078	468.38
2338.937	465.38
2342.792	466.38
2346.643	462.38
2350.492	451.38
2354.336	463.38
2358.178	457.38
2362.015	453.38
2365.85	453.38
2369.681	467.38
2373.508	475.38
2377.333	467.38
2381.153	460.38
2384.971	463.38
2388.785	461.38
2392.595	464.38
2396.402	460.38
2400.206	460.38
2404.007	450.38
2407.804	452.38
2411.597	444.38
2415.388	443.38
2419.174	445.38
2422.958	445.38
2426.738	441.38
2430.515	440.38
2434.289	448.38
2438.059	438.38
2441.825	436.38
2445.589	435.38
2449.349	431.38
2453.106	428.38
2456.859	430.38
2460.61	431.38
2464.356	417.38
2468.1	426.38
2471.84	421.38
2475.577	417.38
2479.311	421.38
2483.041	413.38
2486.768	415.38
2490.492	414.38
2494.213	407.38
2497.93	415.38
2501.644	407.38
2505.355	402.38
2509.062	409.38
2512.766	405.38
2516.467	410.38
2520.165	403.38
2523.859	402.38
2527.551	398.38
2531.239	399.38
2534.923	384.38
2538.605	390.38
2542.283	386.38
2545.958	380.38
2549.63	386.38
2553.299	384.38
2556.964	390.38
2560.626	379.38
2564.285	379.38
2567.941	375.38
2571.594	374.38
2575.243	364.38
2578.89	361.38
2582.533	362.38
2586.173	356.38
2589.809	365.38
2593.443	355.38
2597.073	359.38
2600.701	351.38
2604.325	344.38
2607.946	347.38
2611.564	348.38
2615.178	352.38
2618.79	356.38
2622.398	346.38
2626.004	338.38
2629.606	339.38
2633.205	339.38
2636.801	340.38
2640.394	333.38
2643.983	329.38
2647.57	323.38
2651.153	324.38
2654.734	315.38
2658.311	331.38
2661.885	319.38
2665.456	317.38
2669.025	308.38
2672.589	308.38
2676.151	311.38
2679.71	302.38
2683.266	305.38
2686.819	312.38
2690.368	303.38
2693.915	297.38
2697.458	291.38
2700.999	287.38
2704.536	290.38
2708.071	288.38
2711.602	287.38
2715.13	287.38
2718.656	282.38
2722.178	287.38
2725.697	278.38
2729.214	274.38
2732.727	289.38
2736.237	292.38
2739.744	285.38
2743.249	280.38
2746.75	284.38
2750.248	279.38
2753.743	275.38
2757.236	274.38
2760.725	280.38
2764.211	274.38
2767.695	278.38
2771.175	273.38
2774.652	270.38
2778.127	255.38
2781.598	264.38
2785.067	271.38
2788.532	267.38
2791.995	271.38
2795.455	265.38
2798.911	267.38
2802.365	268.38
2805.816	266.38
2809.264	276.38
2812.709	277.38
2816.151	273.38
2819.59	280.38
2823.026	277.38
2826.46	273.38
2829.89	269.38
2833.318	273.38
2836.742	275.38
2840.164	267.38
2843.583	275.38
2846.999	275.38
2850.412	280.38
2853.822	279.38
2857.229	285.38
2860.634	290.38
2864.035	285.38
2867.434	290.38
2870.83	304.38
2874.223	289.38
2877.613	301.38
2881	300.38
2884.385	295.38
2887.766	306.38
2891.145	295.38
2894.521	289.38
2897.894	303.38
2901.264	303.38
2904.631	301.38
2907.996	305.38
2911.358	301.38
2914.717	300.38
2918.073	314.38
2921.426	309.38
2924.777	321.38
2928.124	318.38
2931.469	330.38
2934.811	336.38
2938.15	331.38
2941.487	341.38
2944.821	346.38
2948.152	346.38
2951.48	350.38
2954.805	351.38
2958.128	365.38
2961.447	360.38
2964.765	370.38
2968.079	376.38
2971.39	376.38
2974.699	378.38
2978.005	388.38
2981.308	398.38
2984.609	399.38
2987.907	412.38
2991.202	429.38
2994.494	431.38
2997.784	441.38
3001.07	460.38
3004.355	465.38
3007.636	479.38
3010.915	483.38
3014.191	482.38
3017.464	498.38
3020.734	502.38
3024.002	514.38
3027.267	511.38
3030.53	538.38
3033.789	539.38
3037.046	551.38
3040.301	560.38
3043.552	566.38
3046.801	578.38
3050.048	599.38
3053.291	604.38
3056.532	619.38
3059.771	640.38
3063.006	660.38
3066.239	669.38
3069.469	700.38
3072.697	713.38
3075.922	739.38
3079.144	748.38
3082.364	781.38
3085.581	791.38
3088.795	804.38
3092.007	817.38
3095.216	840.38
3098.423	850.38
3101.627	866.38
3104.828	888.38
3108.026	903.38
3111.222	929.38
3114.416	950.38
3117.607	968.38
3120.795	972.38
3123.98	1005.38
3127.163	1034.38
3130.344	1055.38
3133.521	1069.38
3136.696	1102.38
3139.869	1127.38
3143.039	1133.38
3146.206	1147.38
3149.371	1167.38
3152.533	1179.38
3155.693	1189.38
3158.85	1196.38
3162.005	1197.38
3165.157	1191.38
3168.306	1194.38
3171.453	1210.38
3174.597	1211.38
3177.739	1211.38
3180.878	1216.38
3184.014	1242.38
3187.149	1207.38
3190.28	1224.38
3193.409	1222.38
3196.536	1240.38
3199.659	1230.38
3202.781	1243.38
3205.9	1240.38
3209.016	1247.38
3212.13	1230.38
3215.241	1239.38
3218.35	1227.38
3221.456	1202.38
3224.56	1192.38
3227.661	1192.38
3230.76	1167.38
3233.856	1159.38
3236.95	1151.38
3240.041	1136.38
3243.13	1114.38
3246.216	1120.38
3249.3	1105.38
3252.382	1112.38
3255.46	1106.38
3258.537	1089.38
3261.611	1091.38
3264.682	1081.38
3267.751	1071.38
3270.818	1065.38
3273.882	1062.38
3276.943	1066.38
3280.002	1045.38
3283.059	1047.38
3286.113	1032.38
3289.165	1021.38
3292.214	1010.38
3295.261	1003.38
3298.306	994.38
3301.348	963.38
3304.387	956.38
3307.425	928.38
3310.459	920.38
3313.492	921.38
3316.521	892.38
3319.549	898.38
3322.574	884.38
3325.597	864.38
3328.617	862.38
3331.635	863.38
3334.65	858.38
3337.663	854.38
3340.674	854.38
3343.682	840.38
3346.688	848.38
3349.691	844.38
3352.692	835.38
3355.691	830.38
3358.687	817.38
3361.681	823.38
3364.673	801.38
3367.662	801.38
3370.649	798.38
3373.633	781.38
3376.615	774.38
3379.595	754.38
3382.572	744.38
3385.547	734.38
3388.52	724.38
3391.49	716.38
3394.458	716.38
3397.424	700.38
3400.387	682.38
3403.348	686.38
3406.307	673.38
3409.263	671.38
3412.217	665.38
3415.168	665.38
3418.118	647.38
3421.065	631.38
3424.009	624.38
3426.951	621.38
3429.891	623.38
3432.829	600.38
3435.764	598.38
3438.697	584.38
3441.628	568.38
3444.557	557.38
3447.483	546.38
3450.407	532.38
3453.328	509.38
3456.247	502.38
3459.164	491.38
3462.079	476.38
3464.991	461.38
3467.902	446.38
3470.809	429.38
3473.715	416.38
3476.618	407.38
3479.519	391.38
3482.418	386.38
3485.315	379.38
3488.209	360.38
3491.101	364.38
3493.99	345.38
3496.878	338.38
3499.763	329.38
3502.646	322.38
3505.527	305.38
3508.405	291.38
3511.281	284.38
3514.155	271.38
3517.027	266.38
3519.897	256.38
3522.764	244.38
3525.629	225.38
3528.492	217.38
3531.352	210.38
3534.211	202.38
3537.067	183.38
3539.921	181.38
3542.773	180.38
3545.622	165.38
3548.469	162.38
3551.315	146.38
3554.157	138.38
3556.998	132.38
3559.837	123.38
3562.673	123.38
3565.507	119.38
3568.339	112.38
3571.169	109.38
3573.996	99.38
3576.822	92.38
3579.645	86.38
3582.466	85.38
3585.285	80.38
3588.101	70.38
3590.916	67.38
3593.728	62.38
3596.538	58.38
3599.346	52.38
3602.152	47.38
3604.956	42.38
3607.757	42.38
3610.556	38.38
3613.354	33.38
3616.149	25.38
3618.942	30.38
3621.732	20.38
3624.521	19.38
3627.307	15.38
3630.092	15.38
3632.874	17.38
3635.654	10.38
3638.432	8.38
3641.208	6.38
3643.982	3.38
3646.753	-1.62
3649.523	-2.62
3652.29	-1.62
3655.055	-9.62
3657.818	-10.62
3660.579	-7.62
3663.338	-13.62
3666.095	-10.62
3668.849	-20.62
3671.602	-23.62
3674.352	-28.62
3677.101	-24.62
3679.847	-29.62
3682.591	-28.62
3685.333	-26.62
3688.073	-31.62
3690.811	-29.62
3693.547	-33.62
3696.281	-35.62
3699.013	-39.62
3701.742	-37.62
3704.47	-33.62
3707.195	-36.62
3709.919	-37.62
3712.64	-46.62
3715.359	-40.62
3718.076	-48.62
3720.792	-50.62
3723.505	-46.62
3726.216	-48.62
3728.925	-48.62
3731.632	-50.62
3734.336	-48.62
3737.039	-55.62
3739.74	-48.62
3742.439	-48.62
3745.136	-53.62
3747.83	-52.62
3750.523	-53.62
3753.213	-51.62
3755.902	-56.62
3758.589	-52.62
3761.273	-51.62
3763.956	-53.62
3766.636	-53.62
3769.315	-54.62
3771.991	-57.62
3774.665	-57.62
3777.338	-55.62
3780.008	-53.62
3782.677	-59.62
3785.343	-55.62
3788.007	-60.62
3790.67	-63.62
3793.33	-63.62
3795.989	-58.62
3798.645	-59.62
3801.299	-57.62
3803.952	-56.62
3806.602	-60.62
3809.251	-58.62
3811.897	-65.62
3814.542	-67.62
3817.184	-60.62
3819.825	-60.62
3822.463	-60.62
3825.1	-62.62
3827.735	-62.62
3830.367	-66.62
3832.998	-60.62
3835.627	-65.62
3838.253	-63.62
3840.878	-67.62
3843.501	-63.62
3846.122	-64.62
3848.741	-66.62
3851.358	-66.62
3853.973	-63.62
3856.586	-64.62
3859.197	-68.62
3861.806	-67.62
3864.414	-64.62
3867.019	-68.62
3869.622	-61.62
3872.224	-64.62
3874.823	-66.62
3877.421	-63.62
3880.016	-65.62
3882.61	-65.62
3885.202	-61.62
3887.792	-61.62
3890.38	-62.62
3892.966	-64.62
3895.55	-66.62
3898.132	-67.62
3900.713	-69.62
3903.291	-74.62
3905.868	-67.62
3908.442	-68.62
3911.015	-71.62
3913.586	-70.62
3916.155	-63.62
3918.722	-67.62
3921.287	-65.62
3923.85	-69.62
3926.411	-68.62
3928.971	-71.62
3931.528	-69.62
3934.084	-73.62
3936.638	-70.62
3939.19	-70.62
3941.74	-69.62
3944.288	-71.62
3946.834	-68.62
3949.378	-70.62
3951.921	-71.62
3954.462	-73.62
3957	-69.62
3959.537	-70.62
3962.072	-68.62
3964.606	-68.62
3967.137	-71.62
3969.667	-71.62
3972.194	-71.62
3974.72	-73.62
3977.244	-68.62
3979.766	-70.62
3982.286	-65.62
3984.805	-68.62
3987.321	-70.62
3989.836	-69.62
3992.349	-69.62
3994.86	-70.62
3997.369	-63.62
3999.877	-67.62
4002.382	-65.62
4004.886	-66.62
4007.388	-69.62
4009.888	-69.62
4012.386	-66.62
4014.883	-70.62
4017.377	-72.62
4019.87	-68.62
4022.361	-68.62
4024.85	-66.62
4027.338	-66.62
4029.823	-66.62
4032.307	-64.62
4034.789	-70.62
4037.269	-72.62
4039.747	-72.62
4042.224	-71.62
4044.699	-67.62
4047.172	-66.62
4049.643	-66.62
4052.112	-71.62
4054.58	-71.62
4057.046	-71.62
4059.51	-70.62
4061.972	-67.62
4064.432	-67.62
4066.891	-68.62
4069.348	-67.62
4071.803	-67.62
4074.256	-71.62
4076.708	-71.62
4079.158	-73.62
4081.606	-67.62
4084.052	-70.62
4086.497	-68.62
4088.939	-69.62
4091.38	-71.62
4093.819	-70.62
4096.257	-72.62
4098.693	-71.62
4101.127	-73.62
4103.559	-71.62
4105.989	-21.62
4108.418	-18.62
4110.845	-12.62
4113.27	-12.62
4115.694	-11.62
4118.115	-5.62
4120.535	-73.62
4122.954	-69.62
4125.37	-70.62
4127.785	-71.62
4130.198	-68.62
4132.609	-70.62
4135.019	-74.62
4137.427	-71.62
4139.833	-73.62
4142.237	-76.62
