Data from 100000CFU3_B_ramanshift_RamanShift_15-02-47-678.txt Node
Date: Sun Dec 25 15:02:47 IST 2016
User: aro
Spectrometer: QEPB0276
Trigger mode: 0
Integration Time (sec): 5.000000E0
Scans to average: 1
Electric dark correction enabled: true
Nonlinearity correction enabled: false
Boxcar width: 0
XAxis mode: Raman Shifts
Number of Pixels in Spectrum: 1044
>>>>>Begin Spectral Data<<<<<
160.701	2.75
166.742	15.75
172.777	50.75
178.805	140.75
184.826	413.75
190.841	928.75
196.849	1648.75
202.85	2345.75
208.845	2661.75
214.833	2669.75
220.815	2565.75
226.789	2515.75
232.758	2444.75
238.719	2370.75
244.674	2275.75
250.623	2216.75
256.565	2114.75
262.5	2033.75
268.429	1949.75
274.351	1880.75
280.267	1796.75
286.176	1737.75
292.079	1683.75
297.975	1645.75
303.865	1589.75
309.748	1546.75
315.625	1502.75
321.495	1474.75
327.359	1444.75
333.217	1417.75
339.068	1410.75
344.912	1399.75
350.751	1384.75
356.583	1388.75
362.408	1392.75
368.227	1412.75
374.04	1393.75
379.847	1402.75
385.647	1423.75
391.44	1415.75
397.228	1419.75
403.009	1436.75
408.784	1433.75
414.553	1446.75
420.315	1430.75
426.071	1451.75
431.821	1442.75
437.565	1451.75
443.302	1466.75
449.033	1454.75
454.758	1437.75
460.477	1465.75
466.189	1438.75
471.896	1424.75
477.596	1415.75
483.29	1404.75
488.978	1399.75
494.66	1391.75
500.335	1392.75
506.005	1370.75
511.668	1323.75
517.325	1303.75
522.977	1276.75
528.622	1254.75
534.261	1228.75
539.894	1221.75
545.521	1200.75
551.141	1194.75
556.756	1180.75
562.365	1182.75
567.968	1165.75
573.565	1173.75
579.155	1153.75
584.74	1151.75
590.319	1145.75
595.892	1146.75
601.459	1129.75
607.02	1119.75
612.575	1120.75
618.124	1108.75
623.667	1100.75
629.204	1084.75
634.735	1079.75
640.261	1069.75
645.781	1070.75
651.294	1065.75
656.802	1053.75
662.304	1039.75
667.8	1038.75
673.29	1033.75
678.775	1025.75
684.254	1021.75
689.726	1019.75
695.193	1030.75
700.655	1012.75
706.11	998.75
711.56	1003.75
717.004	1002.75
722.442	1000.75
727.874	987.75
733.301	974.75
738.722	986.75
744.137	961.75
749.547	972.75
754.951	961.75
760.349	967.75
765.741	978.75
771.128	956.75
776.509	958.75
781.885	956.75
787.254	969.75
792.618	978.75
797.977	975.75
803.33	974.75
808.677	966.75
814.019	946.75
819.355	925.75
824.686	917.75
830.011	917.75
835.33	916.75
840.644	923.75
845.952	902.75
851.255	903.75
856.552	905.75
861.844	898.75
867.13	894.75
872.41	876.75
877.686	868.75
882.955	879.75
888.219	862.75
893.478	836.75
898.731	825.75
903.979	828.75
909.221	807.75
914.458	803.75
919.69	787.75
924.916	793.75
930.136	800.75
935.351	798.75
940.561	802.75
945.766	792.75
950.965	791.75
956.158	783.75
961.347	777.75
966.529	753.75
971.707	759.75
976.879	758.75
982.046	740.75
987.208	736.75
992.364	747.75
997.515	729.75
1002.66	727.75
1007.801	744.75
1012.936	737.75
1018.066	749.75
1023.19	766.75
1028.309	771.75
1033.423	760.75
1038.532	759.75
1043.636	755.75
1048.734	762.75
1053.827	742.75
1058.915	739.75
1063.998	727.75
1069.075	732.75
1074.147	735.75
1079.214	723.75
1084.276	736.75
1089.333	732.75
1094.385	749.75
1099.431	741.75
1104.472	758.75
1109.509	734.75
1114.54	732.75
1119.565	731.75
1124.586	730.75
1129.602	715.75
1134.613	715.75
1139.618	704.75
1144.619	703.75
1149.614	705.75
1154.604	705.75
1159.589	710.75
1164.57	717.75
1169.545	720.75
1174.515	725.75
1179.48	712.75
1184.44	714.75
1189.395	709.75
1194.345	710.75
1199.29	701.75
1204.23	704.75
1209.165	704.75
1214.095	714.75
1219.021	711.75
1223.941	721.75
1228.856	729.75
1233.766	726.75
1238.672	723.75
1243.572	719.75
1248.467	720.75
1253.358	717.75
1258.244	718.75
1263.124	695.75
1268	690.75
1272.871	677.75
1277.737	672.75
1282.599	677.75
1287.455	662.75
1292.306	660.75
1297.153	674.75
1301.995	679.75
1306.832	680.75
1311.664	671.75
1316.491	677.75
1321.314	682.75
1326.132	662.75
1330.945	652.75
1335.753	651.75
1340.556	624.75
1345.354	609.75
1350.148	596.75
1354.937	599.75
1359.722	600.75
1364.501	600.75
1369.276	614.75
1374.046	617.75
1378.811	628.75
1383.572	633.75
1388.327	642.75
1393.079	645.75
1397.825	631.75
1402.567	627.75
1407.304	615.75
1412.036	607.75
1416.764	595.75
1421.487	592.75
1426.205	590.75
1430.919	602.75
1435.628	600.75
1440.333	596.75
1445.032	592.75
1449.727	603.75
1454.418	598.75
1459.104	606.75
1463.785	594.75
1468.462	597.75
1473.134	578.75
1477.802	564.75
1482.465	563.75
1487.123	555.75
1491.777	560.75
1496.426	561.75
1501.071	571.75
1505.711	576.75
1510.347	600.75
1514.978	606.75
1519.604	615.75
1524.226	627.75
1528.844	644.75
1533.457	632.75
1538.065	651.75
1542.669	644.75
1547.269	643.75
1551.864	626.75
1556.454	634.75
1561.041	633.75
1565.622	645.75
1570.199	652.75
1574.772	652.75
1579.34	657.75
1583.904	658.75
1588.464	671.75
1593.019	689.75
1597.569	680.75
1602.115	683.75
1606.657	685.75
1611.195	677.75
1615.728	698.75
1620.256	698.75
1624.78	703.75
1629.3	711.75
1633.816	713.75
1638.327	726.75
1642.834	729.75
1647.336	743.75
1651.834	746.75
1656.328	751.75
1660.817	755.75
1665.302	729.75
1669.783	721.75
1674.259	707.75
1678.732	688.75
1683.199	665.75
1687.663	641.75
1692.122	621.75
1696.577	598.75
1701.028	588.75
1705.474	583.75
1709.917	574.75
1714.355	582.75
1718.788	580.75
1723.218	576.75
1727.643	556.75
1732.064	543.75
1736.481	522.75
1740.893	504.75
1745.301	485.75
1749.705	470.75
1754.105	453.75
1758.501	435.75
1762.893	419.75
1767.28	409.75
1771.663	403.75
1776.042	384.75
1780.417	371.75
1784.787	371.75
1789.154	384.75
1793.516	390.75
1797.874	391.75
1802.228	406.75
1806.578	415.75
1810.924	405.75
1815.266	415.75
1819.603	399.75
1823.937	407.75
1828.266	389.75
1832.591	388.75
1836.913	379.75
1841.23	360.75
1845.543	370.75
1849.852	370.75
1854.156	361.75
1858.457	369.75
1862.754	365.75
1867.047	363.75
1871.335	365.75
1875.62	359.75
1879.9	369.75
1884.177	360.75
1888.449	355.75
1892.718	367.75
1896.982	352.75
1901.243	346.75
1905.499	348.75
1909.752	352.75
1914	353.75
1918.245	354.75
1922.485	359.75
1926.722	367.75
1930.954	371.75
1935.183	374.75
1939.408	393.75
1943.628	407.75
1947.845	387.75
1952.058	390.75
1956.267	402.75
1960.472	394.75
1964.673	389.75
1968.87	378.75
1973.063	369.75
1977.252	363.75
1981.438	354.75
1985.619	363.75
1989.797	363.75
1993.971	345.75
1998.14	347.75
2002.306	346.75
2006.469	352.75
2010.627	339.75
2014.781	341.75
2018.932	342.75
2023.078	336.75
2027.221	341.75
2031.36	331.75
2035.495	337.75
2039.627	332.75
2043.754	329.75
2047.878	324.75
2051.998	323.75
2056.114	322.75
2060.226	323.75
2064.334	321.75
2068.439	339.75
2072.54	338.75
2076.637	336.75
2080.73	336.75
2084.82	347.75
2088.906	352.75
2092.988	354.75
2097.066	359.75
2101.14	360.75
2105.211	346.75
2109.278	363.75
2113.342	347.75
2117.401	354.75
2121.457	354.75
2125.509	348.75
2129.558	345.75
2133.602	347.75
2137.643	344.75
2141.681	335.75
2145.714	335.75
2149.744	331.75
2153.77	332.75
2157.793	332.75
2161.812	327.75
2165.827	318.75
2169.838	314.75
2173.846	301.75
2177.851	304.75
2181.851	298.75
2185.848	295.75
2189.841	292.75
2193.831	280.75
2197.817	284.75
2201.799	280.75
2205.778	285.75
2209.753	278.75
2213.725	280.75
2217.693	279.75
2221.657	284.75
2225.618	271.75
2229.575	272.75
2233.529	266.75
2237.479	269.75
2241.425	276.75
2245.368	264.75
2249.307	257.75
2253.243	253.75
2257.175	250.75
2261.104	244.75
2265.029	243.75
2268.95	249.75
2272.868	243.75
2276.783	234.75
2280.694	234.75
2284.601	230.75
2288.505	228.75
2292.405	231.75
2296.302	230.75
2300.195	230.75
2304.085	231.75
2307.971	218.75
2311.854	214.75
2315.734	212.75
2319.609	207.75
2323.482	203.75
2327.351	203.75
2331.216	199.75
2335.078	210.75
2338.937	208.75
2342.792	202.75
2346.643	197.75
2350.492	198.75
2354.336	200.75
2358.178	193.75
2362.015	201.75
2365.85	204.75
2369.681	200.75
2373.508	201.75
2377.333	207.75
2381.153	204.75
2384.971	198.75
2388.785	195.75
2392.595	199.75
2396.402	198.75
2400.206	194.75
2404.007	196.75
2407.804	199.75
2411.597	196.75
2415.388	193.75
2419.174	192.75
2422.958	190.75
2426.738	191.75
2430.515	185.75
2434.289	192.75
2438.059	182.75
2441.825	185.75
2445.589	181.75
2449.349	185.75
2453.106	178.75
2456.859	176.75
2460.61	181.75
2464.356	176.75
2468.1	175.75
2471.84	167.75
2475.577	167.75
2479.311	163.75
2483.041	168.75
2486.768	171.75
2490.492	162.75
2494.213	164.75
2497.93	174.75
2501.644	168.75
2505.355	167.75
2509.062	167.75
2512.766	161.75
2516.467	164.75
2520.165	165.75
2523.859	163.75
2527.551	156.75
2531.239	165.75
2534.923	163.75
2538.605	162.75
2542.283	162.75
2545.958	156.75
2549.63	162.75
2553.299	157.75
2556.964	158.75
2560.626	163.75
2564.285	166.75
2567.941	170.75
2571.594	165.75
2575.243	152.75
2578.89	159.75
2582.533	157.75
2586.173	158.75
2589.809	153.75
2593.443	156.75
2597.073	151.75
2600.701	152.75
2604.325	152.75
2607.946	144.75
2611.564	149.75
2615.178	145.75
2618.79	152.75
2622.398	147.75
2626.004	143.75
2629.606	142.75
2633.205	139.75
2636.801	139.75
2640.394	142.75
2643.983	137.75
2647.57	134.75
2651.153	136.75
2654.734	130.75
2658.311	128.75
2661.885	130.75
2665.456	126.75
2669.025	125.75
2672.589	120.75
2676.151	125.75
2679.71	122.75
2683.266	121.75
2686.819	122.75
2690.368	118.75
2693.915	115.75
2697.458	116.75
2700.999	107.75
2704.536	108.75
2708.071	103.75
2711.602	101.75
2715.13	99.75
2718.656	97.75
2722.178	110.75
2725.697	90.75
2729.214	91.75
2732.727	93.75
2736.237	90.75
2739.744	98.75
2743.249	101.75
2746.75	98.75
2750.248	102.75
2753.743	101.75
2757.236	102.75
2760.725	105.75
2764.211	109.75
2767.695	106.75
2771.175	104.75
2774.652	110.75
2778.127	106.75
2781.598	112.75
2785.067	115.75
2788.532	108.75
2791.995	107.75
2795.455	107.75
2798.911	105.75
2802.365	103.75
2805.816	105.75
2809.264	116.75
2812.709	113.75
2816.151	116.75
2819.59	109.75
2823.026	108.75
2826.46	118.75
2829.89	113.75
2833.318	118.75
2836.742	115.75
2840.164	117.75
2843.583	114.75
2846.999	120.75
2850.412	114.75
2853.822	117.75
2857.229	126.75
2860.634	128.75
2864.035	123.75
2867.434	125.75
2870.83	129.75
2874.223	130.75
2877.613	131.75
2881	136.75
2884.385	136.75
2887.766	131.75
2891.145	125.75
2894.521	132.75
2897.894	129.75
2901.264	128.75
2904.631	131.75
2907.996	139.75
2911.358	132.75
2914.717	125.75
2918.073	126.75
2921.426	136.75
2924.777	139.75
2928.124	141.75
2931.469	142.75
2934.811	143.75
2938.15	144.75
2941.487	141.75
2944.821	143.75
2948.152	154.75
2951.48	152.75
2954.805	150.75
2958.128	156.75
2961.447	155.75
2964.765	155.75
2968.079	158.75
2971.39	164.75
2974.699	167.75
2978.005	175.75
2981.308	178.75
2984.609	188.75
2987.907	196.75
2991.202	200.75
2994.494	211.75
2997.784	211.75
3001.07	213.75
3004.355	223.75
3007.636	229.75
3010.915	230.75
3014.191	243.75
3017.464	250.75
3020.734	245.75
3024.002	258.75
3027.267	258.75
3030.53	252.75
3033.789	261.75
3037.046	265.75
3040.301	280.75
3043.552	279.75
3046.801	288.75
3050.048	292.75
3053.291	303.75
3056.532	304.75
3059.771	317.75
3063.006	318.75
3066.239	345.75
3069.469	357.75
3072.697	358.75
3075.922	369.75
3079.144	384.75
3082.364	400.75
3085.581	397.75
3088.795	411.75
3092.007	424.75
3095.216	435.75
3098.423	444.75
3101.627	453.75
3104.828	465.75
3108.026	488.75
3111.222	486.75
3114.416	497.75
3117.607	507.75
3120.795	526.75
3123.98	541.75
3127.163	557.75
3130.344	564.75
3133.521	594.75
3136.696	607.75
3139.869	606.75
3143.039	622.75
3146.206	628.75
3149.371	639.75
3152.533	633.75
3155.693	645.75
3158.85	655.75
3162.005	663.75
3165.157	658.75
3168.306	647.75
3171.453	657.75
3174.597	649.75
3177.739	663.75
3180.878	664.75
3184.014	660.75
3187.149	658.75
3190.28	651.75
3193.409	655.75
3196.536	658.75
3199.659	661.75
3202.781	655.75
3205.9	664.75
3209.016	669.75
3212.13	658.75
3215.241	653.75
3218.35	639.75
3221.456	641.75
3224.56	645.75
3227.661	621.75
3230.76	619.75
3233.856	628.75
3236.95	604.75
3240.041	612.75
3243.13	604.75
3246.216	598.75
3249.3	599.75
3252.382	598.75
3255.46	588.75
3258.537	590.75
3261.611	597.75
3264.682	583.75
3267.751	596.75
3270.818	586.75
3273.882	578.75
3276.943	578.75
3280.002	566.75
3283.059	566.75
3286.113	554.75
3289.165	548.75
3292.214	545.75
3295.261	534.75
3298.306	522.75
3301.348	516.75
3304.387	505.75
3307.425	492.75
3310.459	487.75
3313.492	485.75
3316.521	478.75
3319.549	474.75
3322.574	471.75
3325.597	460.75
3328.617	457.75
3331.635	459.75
3334.65	450.75
3337.663	459.75
3340.674	444.75
3343.682	434.75
3346.688	445.75
3349.691	447.75
3352.692	433.75
3355.691	441.75
3358.687	433.75
3361.681	428.75
3364.673	409.75
3367.662	420.75
3370.649	416.75
3373.633	412.75
3376.615	402.75
3379.595	400.75
3382.572	386.75
3385.547	385.75
3388.52	375.75
3391.49	373.75
3394.458	377.75
3397.424	368.75
3400.387	368.75
3403.348	357.75
3406.307	356.75
3409.263	356.75
3412.217	346.75
3415.168	342.75
3418.118	355.75
3421.065	343.75
3424.009	336.75
3426.951	338.75
3429.891	324.75
3432.829	319.75
3435.764	310.75
3438.697	310.75
3441.628	297.75
3444.557	297.75
3447.483	286.75
3450.407	272.75
3453.328	268.75
3456.247	257.75
3459.164	254.75
3462.079	249.75
3464.991	242.75
3467.902	232.75
3470.809	220.75
3473.715	223.75
3476.618	207.75
3479.519	204.75
3482.418	200.75
3485.315	191.75
3488.209	190.75
3491.101	185.75
3493.99	176.75
3496.878	171.75
3499.763	164.75
3502.646	166.75
3505.527	152.75
3508.405	157.75
3511.281	142.75
3514.155	142.75
3517.027	130.75
3519.897	130.75
3522.764	125.75
3525.629	120.75
3528.492	111.75
3531.352	103.75
3534.211	101.75
3537.067	89.75
3539.921	85.75
3542.773	88.75
3545.622	84.75
3548.469	74.75
3551.315	65.75
3554.157	66.75
3556.998	59.75
3559.837	52.75
3562.673	47.75
3565.507	49.75
3568.339	47.75
3571.169	43.75
3573.996	38.75
3576.822	34.75
3579.645	33.75
3582.466	34.75
3585.285	33.75
3588.101	29.75
3590.916	25.75
3593.728	17.75
3596.538	13.75
3599.346	12.75
3602.152	15.75
3604.956	13.75
3607.757	14.75
3610.556	7.75
3613.354	8.75
3616.149	1.75
3618.942	3.75
3621.732	-1.25
3624.521	-1.25
3627.307	-3.25
3630.092	-6.25
3632.874	-3.25
3635.654	-11.25
3638.432	-10.25
3641.208	-14.25
3643.982	-11.25
3646.753	-12.25
3649.523	-9.25
3652.29	-13.25
3655.055	-17.25
3657.818	-16.25
3660.579	-17.25
3663.338	-19.25
3666.095	-20.25
3668.849	-27.25
3671.602	-26.25
3674.352	-28.25
3677.101	-28.25
3679.847	-25.25
3682.591	-26.25
3685.333	-30.25
3688.073	-27.25
3690.811	-29.25
3693.547	-31.25
3696.281	-34.25
3699.013	-35.25
3701.742	-30.25
3704.47	-31.25
3707.195	-30.25
3709.919	-36.25
3712.64	-39.25
3715.359	-36.25
3718.076	-37.25
3720.792	-38.25
3723.505	-35.25
3726.216	-37.25
3728.925	-39.25
3731.632	-38.25
3734.336	-36.25
3737.039	-40.25
3739.74	-40.25
3742.439	-39.25
3745.136	-39.25
3747.83	-41.25
3750.523	-40.25
3753.213	-39.25
3755.902	-42.25
3758.589	-42.25
3761.273	-43.25
3763.956	-42.25
3766.636	-43.25
3769.315	-41.25
3771.991	-41.25
3774.665	-44.25
3777.338	-42.25
3780.008	-44.25
3782.677	-45.25
3785.343	-41.25
3788.007	-45.25
3790.67	-43.25
3793.33	-43.25
3795.989	-43.25
3798.645	-47.25
3801.299	-42.25
3803.952	-45.25
3806.602	-46.25
3809.251	-46.25
3811.897	-48.25
3814.542	-47.25
3817.184	-43.25
3819.825	-43.25
3822.463	-44.25
3825.1	-47.25
3827.735	-44.25
3830.367	-50.25
3832.998	-47.25
3835.627	-44.25
3838.253	-44.25
3840.878	-47.25
3843.501	-48.25
3846.122	-47.25
3848.741	-49.25
3851.358	-55.25
3853.973	-44.25
3856.586	-47.25
3859.197	-47.25
3861.806	-45.25
3864.414	-46.25
3867.019	-45.25
3869.622	-42.25
3872.224	-48.25
3874.823	-49.25
3877.421	-49.25
3880.016	-47.25
3882.61	-44.25
3885.202	-42.25
3887.792	-40.25
3890.38	-39.25
3892.966	-44.25
3895.55	-49.25
3898.132	-50.25
3900.713	-52.25
3903.291	-51.25
3905.868	-47.25
3908.442	-45.25
3911.015	-49.25
3913.586	-49.25
3916.155	-47.25
3918.722	-48.25
3921.287	-50.25
3923.85	-53.25
3926.411	-48.25
3928.971	-46.25
3931.528	-50.25
3934.084	-51.25
3936.638	-52.25
3939.19	-52.25
3941.74	-52.25
3944.288	-52.25
3946.834	-51.25
3949.378	-50.25
3951.921	-50.25
3954.462	-49.25
3957	-49.25
3959.537	-50.25
3962.072	-50.25
3964.606	-50.25
3967.137	-50.25
3969.667	-49.25
3972.194	-46.25
3974.72	-50.25
3977.244	-47.25
3979.766	-47.25
3982.286	-48.25
3984.805	-52.25
3987.321	-55.25
3989.836	-50.25
3992.349	-49.25
3994.86	-48.25
3997.369	-42.25
3999.877	-49.25
4002.382	-48.25
4004.886	-51.25
4007.388	-53.25
4009.888	-48.25
4012.386	-44.25
4014.883	-47.25
4017.377	-50.25
4019.87	-50.25
4022.361	-49.25
4024.85	-52.25
4027.338	-49.25
4029.823	-44.25
4032.307	-47.25
4034.789	-48.25
4037.269	-47.25
4039.747	-50.25
4042.224	-52.25
4044.699	-47.25
4047.172	-51.25
4049.643	-47.25
4052.112	-52.25
4054.58	-50.25
4057.046	-49.25
4059.51	-50.25
4061.972	-45.25
4064.432	-46.25
4066.891	-51.25
4069.348	-51.25
4071.803	-52.25
4074.256	-50.25
4076.708	-52.25
4079.158	-46.25
4081.606	-45.25
4084.052	-50.25
4086.497	-47.25
4088.939	-50.25
4091.38	-52.25
4093.819	-52.25
4096.257	-52.25
4098.693	-50.25
4101.127	-49.25
4103.559	-48.25
4105.989	-4.25
4108.418	-3.25
4110.845	-2.25
4113.27	-3.25
4115.694	-2.25
4118.115	-5.25
4120.535	-50.25
4122.954	-48.25
4125.37	-47.25
4127.785	-50.25
4130.198	-47.25
4132.609	-52.25
4135.019	-56.25
4137.427	-49.25
4139.833	-51.25
4142.237	-53.25
