Data from 10000CFU2_A_ramanshift_RamanShift_14-15-35-483.txt Node
Date: Sun Dec 25 14:15:35 IST 2016
User: aro
Spectrometer: QEPB0276
Trigger mode: 0
Integration Time (sec): 5.000000E0
Scans to average: 1
Electric dark correction enabled: true
Nonlinearity correction enabled: false
Boxcar width: 0
XAxis mode: Raman Shifts
Number of Pixels in Spectrum: 1044
>>>>>Begin Spectral Data<<<<<
160.701	4.38
166.742	20.38
172.777	70.38
178.805	216.38
184.826	661.38
190.841	1556.38
196.849	2874.38
202.85	4100.38
208.845	4728.38
214.833	4762.38
220.815	4560.38
226.789	4385.38
232.758	4305.38
238.719	4150.38
244.674	4023.38
250.623	3866.38
256.565	3691.38
262.5	3523.38
268.429	3356.38
274.351	3217.38
280.267	3080.38
286.176	2974.38
292.079	2838.38
297.975	2758.38
303.865	2675.38
309.748	2578.38
315.625	2525.38
321.495	2461.38
327.359	2400.38
333.217	2359.38
339.068	2317.38
344.912	2314.38
350.751	2311.38
356.583	2301.38
362.408	2298.38
368.227	2299.38
374.04	2311.38
379.847	2322.38
385.647	2314.38
391.44	2322.38
397.228	2334.38
403.009	2360.38
408.784	2365.38
414.553	2384.38
420.315	2385.38
426.071	2395.38
431.821	2377.38
437.565	2374.38
443.302	2379.38
449.033	2386.38
454.758	2381.38
460.477	2385.38
466.189	2349.38
471.896	2342.38
477.596	2346.38
483.29	2330.38
488.978	2305.38
494.66	2328.38
500.335	2301.38
506.005	2268.38
511.668	2210.38
517.325	2195.38
522.977	2182.38
528.622	2134.38
534.261	2110.38
539.894	2097.38
545.521	2088.38
551.141	2077.38
556.756	2060.38
562.365	2049.38
567.968	2023.38
573.565	2016.38
579.155	1988.38
584.74	1996.38
590.319	1980.38
595.892	1967.38
601.459	1955.38
607.02	1957.38
612.575	1924.38
618.124	1914.38
623.667	1892.38
629.204	1866.38
634.735	1868.38
640.261	1836.38
645.781	1843.38
651.294	1839.38
656.802	1827.38
662.304	1824.38
667.8	1799.38
673.29	1816.38
678.775	1803.38
684.254	1782.38
689.726	1786.38
695.193	1776.38
700.655	1782.38
706.11	1752.38
711.56	1752.38
717.004	1725.38
722.442	1723.38
727.874	1708.38
733.301	1706.38
738.722	1709.38
744.137	1689.38
749.547	1683.38
754.951	1688.38
760.349	1671.38
765.741	1682.38
771.128	1672.38
776.509	1655.38
781.885	1676.38
787.254	1676.38
792.618	1673.38
797.977	1673.38
803.33	1646.38
808.677	1616.38
814.019	1625.38
819.355	1598.38
824.686	1586.38
830.011	1571.38
835.33	1592.38
840.644	1554.38
845.952	1571.38
851.255	1565.38
856.552	1542.38
861.844	1537.38
867.13	1529.38
872.41	1513.38
877.686	1515.38
882.955	1507.38
888.219	1483.38
893.478	1474.38
898.731	1432.38
903.979	1431.38
909.221	1403.38
914.458	1399.38
919.69	1380.38
924.916	1372.38
930.136	1364.38
935.351	1366.38
940.561	1377.38
945.766	1362.38
950.965	1367.38
956.158	1352.38
961.347	1344.38
966.529	1312.38
971.707	1281.38
976.879	1310.38
982.046	1279.38
987.208	1263.38
992.364	1258.38
997.515	1257.38
1002.66	1261.38
1007.801	1277.38
1012.936	1283.38
1018.066	1293.38
1023.19	1317.38
1028.309	1326.38
1033.423	1318.38
1038.532	1296.38
1043.636	1305.38
1048.734	1280.38
1053.827	1275.38
1058.915	1256.38
1063.998	1267.38
1069.075	1256.38
1074.147	1238.38
1079.214	1253.38
1084.276	1268.38
1089.333	1265.38
1094.385	1295.38
1099.431	1293.38
1104.472	1306.38
1109.509	1285.38
1114.54	1271.38
1119.565	1271.38
1124.586	1245.38
1129.602	1222.38
1134.613	1237.38
1139.618	1209.38
1144.619	1212.38
1149.614	1213.38
1154.604	1218.38
1159.589	1219.38
1164.57	1253.38
1169.545	1238.38
1174.515	1248.38
1179.48	1255.38
1184.44	1220.38
1189.395	1218.38
1194.345	1227.38
1199.29	1215.38
1204.23	1222.38
1209.165	1213.38
1214.095	1227.38
1219.021	1230.38
1223.941	1252.38
1228.856	1243.38
1233.766	1256.38
1238.672	1256.38
1243.572	1249.38
1248.467	1245.38
1253.358	1252.38
1258.244	1240.38
1263.124	1201.38
1268	1199.38
1272.871	1167.38
1277.737	1170.38
1282.599	1171.38
1287.455	1184.38
1292.306	1173.38
1297.153	1177.38
1301.995	1180.38
1306.832	1198.38
1311.664	1211.38
1316.491	1216.38
1321.314	1195.38
1326.132	1192.38
1330.945	1190.38
1335.753	1168.38
1340.556	1151.38
1345.354	1142.38
1350.148	1144.38
1354.937	1138.38
1359.722	1134.38
1364.501	1113.38
1369.276	1120.38
1374.046	1114.38
1378.811	1076.38
1383.572	1087.38
1388.327	1082.38
1393.079	1076.38
1397.825	1084.38
1402.567	1060.38
1407.304	1067.38
1412.036	1060.38
1416.764	1051.38
1421.487	1066.38
1426.205	1054.38
1430.919	1070.38
1435.628	1074.38
1440.333	1077.38
1445.032	1091.38
1449.727	1115.38
1454.418	1099.38
1459.104	1112.38
1463.785	1094.38
1468.462	1086.38
1473.134	1107.38
1477.802	1089.38
1482.465	1078.38
1487.123	1074.38
1491.777	1064.38
1496.426	1063.38
1501.071	1071.38
1505.711	1075.38
1510.347	1082.38
1514.978	1087.38
1519.604	1111.38
1524.226	1124.38
1528.844	1121.38
1533.457	1121.38
1538.065	1117.38
1542.669	1115.38
1547.269	1116.38
1551.864	1102.38
1556.454	1114.38
1561.041	1129.38
1565.622	1137.38
1570.199	1132.38
1574.772	1167.38
1579.34	1180.38
1583.904	1196.38
1588.464	1226.38
1593.019	1226.38
1597.569	1254.38
1602.115	1271.38
1606.657	1279.38
1611.195	1285.38
1615.728	1305.38
1620.256	1299.38
1624.78	1321.38
1629.3	1343.38
1633.816	1366.38
1638.327	1367.38
1642.834	1397.38
1647.336	1417.38
1651.834	1423.38
1656.328	1421.38
1660.817	1400.38
1665.302	1399.38
1669.783	1368.38
1674.259	1356.38
1678.732	1300.38
1683.199	1269.38
1687.663	1242.38
1692.122	1210.38
1696.577	1164.38
1701.028	1120.38
1705.474	1064.38
1709.917	1026.38
1714.355	985.38
1718.788	965.38
1723.218	965.38
1727.643	963.38
1732.064	941.38
1736.481	918.38
1740.893	892.38
1745.301	868.38
1749.705	852.38
1754.105	828.38
1758.501	810.38
1762.893	796.38
1767.28	785.38
1771.663	779.38
1776.042	760.38
1780.417	766.38
1784.787	755.38
1789.154	762.38
1793.516	770.38
1797.874	772.38
1802.228	761.38
1806.578	751.38
1810.924	736.38
1815.266	732.38
1819.603	730.38
1823.937	707.38
1828.266	707.38
1832.591	691.38
1836.913	698.38
1841.23	692.38
1845.543	685.38
1849.852	694.38
1854.156	697.38
1858.457	694.38
1862.754	689.38
1867.047	692.38
1871.335	686.38
1875.62	711.38
1879.9	709.38
1884.177	701.38
1888.449	705.38
1892.718	702.38
1896.982	695.38
1901.243	696.38
1905.499	692.38
1909.752	705.38
1914	703.38
1918.245	681.38
1922.485	696.38
1926.722	694.38
1930.954	698.38
1935.183	690.38
1939.408	691.38
1943.628	695.38
1947.845	710.38
1952.058	691.38
1956.267	692.38
1960.472	692.38
1964.673	684.38
1968.87	678.38
1973.063	675.38
1977.252	666.38
1981.438	667.38
1985.619	651.38
1989.797	666.38
1993.971	663.38
1998.14	664.38
2002.306	664.38
2006.469	656.38
2010.627	678.38
2014.781	673.38
2018.932	675.38
2023.078	672.38
2027.221	670.38
2031.36	667.38
2035.495	661.38
2039.627	650.38
2043.754	655.38
2047.878	655.38
2051.998	653.38
2056.114	652.38
2060.226	649.38
2064.334	653.38
2068.439	665.38
2072.54	657.38
2076.637	679.38
2080.73	660.38
2084.82	676.38
2088.906	666.38
2092.988	674.38
2097.066	673.38
2101.14	665.38
2105.211	663.38
2109.278	666.38
2113.342	655.38
2117.401	649.38
2121.457	642.38
2125.509	652.38
2129.558	645.38
2133.602	644.38
2137.643	646.38
2141.681	631.38
2145.714	628.38
2149.744	635.38
2153.77	614.38
2157.793	624.38
2161.812	620.38
2165.827	630.38
2169.838	610.38
2173.846	604.38
2177.851	584.38
2181.851	585.38
2185.848	574.38
2189.841	561.38
2193.831	561.38
2197.817	548.38
2201.799	563.38
2205.778	555.38
2209.753	558.38
2213.725	554.38
2217.693	551.38
2221.657	550.38
2225.618	547.38
2229.575	533.38
2233.529	543.38
2237.479	547.38
2241.425	551.38
2245.368	532.38
2249.307	525.38
2253.243	514.38
2257.175	511.38
2261.104	505.38
2265.029	492.38
2268.95	490.38
2272.868	496.38
2276.783	493.38
2280.694	478.38
2284.601	464.38
2288.505	466.38
2292.405	456.38
2296.302	453.38
2300.195	442.38
2304.085	441.38
2307.971	440.38
2311.854	432.38
2315.734	416.38
2319.609	416.38
2323.482	408.38
2327.351	401.38
2331.216	411.38
2335.078	400.38
2338.937	396.38
2342.792	403.38
2346.643	388.38
2350.492	393.38
2354.336	398.38
2358.178	381.38
2362.015	397.38
2365.85	388.38
2369.681	393.38
2373.508	390.38
2377.333	403.38
2381.153	399.38
2384.971	394.38
2388.785	392.38
2392.595	390.38
2396.402	387.38
2400.206	384.38
2404.007	380.38
2407.804	384.38
2411.597	390.38
2415.388	379.38
2419.174	381.38
2422.958	377.38
2426.738	370.38
2430.515	369.38
2434.289	377.38
2438.059	374.38
2441.825	370.38
2445.589	374.38
2449.349	362.38
2453.106	368.38
2456.859	358.38
2460.61	366.38
2464.356	348.38
2468.1	353.38
2471.84	345.38
2475.577	352.38
2479.311	344.38
2483.041	341.38
2486.768	341.38
2490.492	343.38
2494.213	341.38
2497.93	336.38
2501.644	340.38
2505.355	340.38
2509.062	337.38
2512.766	340.38
2516.467	349.38
2520.165	338.38
2523.859	334.38
2527.551	330.38
2531.239	328.38
2534.923	335.38
2538.605	323.38
2542.283	322.38
2545.958	316.38
2549.63	319.38
2553.299	314.38
2556.964	316.38
2560.626	311.38
2564.285	320.38
2567.941	313.38
2571.594	311.38
2575.243	309.38
2578.89	299.38
2582.533	292.38
2586.173	296.38
2589.809	300.38
2593.443	296.38
2597.073	295.38
2600.701	292.38
2604.325	287.38
2607.946	285.38
2611.564	287.38
2615.178	287.38
2618.79	303.38
2622.398	288.38
2626.004	282.38
2629.606	284.38
2633.205	283.38
2636.801	278.38
2640.394	270.38
2643.983	268.38
2647.57	269.38
2651.153	267.38
2654.734	266.38
2658.311	266.38
2661.885	264.38
2665.456	258.38
2669.025	262.38
2672.589	254.38
2676.151	251.38
2679.71	254.38
2683.266	251.38
2686.819	246.38
2690.368	249.38
2693.915	244.38
2697.458	240.38
2700.999	242.38
2704.536	238.38
2708.071	233.38
2711.602	239.38
2715.13	236.38
2718.656	228.38
2722.178	235.38
2725.697	224.38
2729.214	227.38
2732.727	232.38
2736.237	235.38
2739.744	237.38
2743.249	236.38
2746.75	235.38
2750.248	233.38
2753.743	232.38
2757.236	227.38
2760.725	234.38
2764.211	233.38
2767.695	228.38
2771.175	225.38
2774.652	224.38
2778.127	218.38
2781.598	216.38
2785.067	223.38
2788.532	224.38
2791.995	228.38
2795.455	219.38
2798.911	225.38
2802.365	232.38
2805.816	225.38
2809.264	231.38
2812.709	228.38
2816.151	225.38
2819.59	228.38
2823.026	225.38
2826.46	235.38
2829.89	234.38
2833.318	229.38
2836.742	233.38
2840.164	237.38
2843.583	242.38
2846.999	237.38
2850.412	238.38
2853.822	246.38
2857.229	254.38
2860.634	251.38
2864.035	247.38
2867.434	251.38
2870.83	255.38
2874.223	253.38
2877.613	258.38
2881	270.38
2884.385	268.38
2887.766	262.38
2891.145	264.38
2894.521	269.38
2897.894	269.38
2901.264	264.38
2904.631	269.38
2907.996	276.38
2911.358	268.38
2914.717	272.38
2918.073	281.38
2921.426	286.38
2924.777	282.38
2928.124	293.38
2931.469	298.38
2934.811	309.38
2938.15	313.38
2941.487	308.38
2944.821	313.38
2948.152	326.38
2951.48	328.38
2954.805	326.38
2958.128	327.38
2961.447	336.38
2964.765	341.38
2968.079	354.38
2971.39	359.38
2974.699	361.38
2978.005	372.38
2981.308	376.38
2984.609	389.38
2987.907	402.38
2991.202	404.38
2994.494	421.38
2997.784	430.38
3001.07	440.38
3004.355	446.38
3007.636	456.38
3010.915	478.38
3014.191	483.38
3017.464	501.38
3020.734	498.38
3024.002	502.38
3027.267	510.38
3030.53	514.38
3033.789	524.38
3037.046	542.38
3040.301	551.38
3043.552	573.38
3046.801	573.38
3050.048	591.38
3053.291	610.38
3056.532	624.38
3059.771	654.38
3063.006	664.38
3066.239	676.38
3069.469	703.38
3072.697	711.38
3075.922	733.38
3079.144	754.38
3082.364	766.38
3085.581	797.38
3088.795	827.38
3092.007	828.38
3095.216	846.38
3098.423	867.38
3101.627	886.38
3104.828	907.38
3108.026	933.38
3111.222	948.38
3114.416	972.38
3117.607	1000.38
3120.795	1004.38
3123.98	1028.38
3127.163	1056.38
3130.344	1074.38
3133.521	1109.38
3136.696	1126.38
3139.869	1132.38
3143.039	1164.38
3146.206	1177.38
3149.371	1194.38
3152.533	1215.38
3155.693	1214.38
3158.85	1229.38
3162.005	1241.38
3165.157	1254.38
3168.306	1244.38
3171.453	1244.38
3174.597	1268.38
3177.739	1261.38
3180.878	1261.38
3184.014	1268.38
3187.149	1276.38
3190.28	1274.38
3193.409	1268.38
3196.536	1271.38
3199.659	1279.38
3202.781	1285.38
3205.9	1300.38
3209.016	1276.38
3212.13	1287.38
3215.241	1292.38
3218.35	1267.38
3221.456	1253.38
3224.56	1246.38
3227.661	1233.38
3230.76	1232.38
3233.856	1218.38
3236.95	1207.38
3240.041	1192.38
3243.13	1180.38
3246.216	1172.38
3249.3	1168.38
3252.382	1164.38
3255.46	1137.38
3258.537	1145.38
3261.611	1127.38
3264.682	1138.38
3267.751	1138.38
3270.818	1131.38
3273.882	1129.38
3276.943	1112.38
3280.002	1101.38
3283.059	1096.38
3286.113	1094.38
3289.165	1080.38
3292.214	1046.38
3295.261	1046.38
3298.306	1022.38
3301.348	1008.38
3304.387	993.38
3307.425	973.38
3310.459	953.38
3313.492	953.38
3316.521	949.38
3319.549	926.38
3322.574	917.38
3325.597	912.38
3328.617	910.38
3331.635	902.38
3334.65	899.38
3337.663	881.38
3340.674	890.38
3343.682	884.38
3346.688	880.38
3349.691	883.38
3352.692	870.38
3355.691	873.38
3358.687	864.38
3361.681	859.38
3364.673	839.38
3367.662	829.38
3370.649	831.38
3373.633	806.38
3376.615	793.38
3379.595	794.38
3382.572	776.38
3385.547	764.38
3388.52	758.38
3391.49	740.38
3394.458	734.38
3397.424	737.38
3400.387	721.38
3403.348	703.38
3406.307	709.38
3409.263	693.38
3412.217	695.38
3415.168	681.38
3418.118	685.38
3421.065	670.38
3424.009	668.38
3426.951	648.38
3429.891	644.38
3432.829	622.38
3435.764	622.38
3438.697	621.38
3441.628	594.38
3444.557	596.38
3447.483	572.38
3450.407	543.38
3453.328	534.38
3456.247	526.38
3459.164	511.38
3462.079	505.38
3464.991	480.38
3467.902	480.38
3470.809	459.38
3473.715	439.38
3476.618	425.38
3479.519	422.38
3482.418	410.38
3485.315	399.38
3488.209	397.38
3491.101	375.38
3493.99	362.38
3496.878	349.38
3499.763	349.38
3502.646	342.38
3505.527	338.38
3508.405	313.38
3511.281	296.38
3514.155	284.38
3517.027	275.38
3519.897	266.38
3522.764	256.38
3525.629	255.38
3528.492	237.38
3531.352	226.38
3534.211	215.38
3537.067	203.38
3539.921	190.38
3542.773	183.38
3545.622	177.38
3548.469	166.38
3551.315	153.38
3554.157	151.38
3556.998	140.38
3559.837	132.38
3562.673	123.38
3565.507	122.38
3568.339	114.38
3571.169	115.38
3573.996	111.38
3576.822	99.38
3579.645	90.38
3582.466	86.38
3585.285	83.38
3588.101	73.38
3590.916	70.38
3593.728	62.38
3596.538	58.38
3599.346	51.38
3602.152	51.38
3604.956	46.38
3607.757	44.38
3610.556	32.38
3613.354	32.38
3616.149	26.38
3618.942	25.38
3621.732	22.38
3624.521	21.38
3627.307	21.38
3630.092	17.38
3632.874	12.38
3635.654	4.38
3638.432	3.38
3641.208	6.38
3643.982	6.38
3646.753	3.38
3649.523	4.38
3652.29	-1.62
3655.055	-10.62
3657.818	-13.62
3660.579	-16.62
3663.338	-16.62
3666.095	-19.62
3668.849	-18.62
3671.602	-18.62
3674.352	-26.62
3677.101	-29.62
3679.847	-28.62
3682.591	-36.62
3685.333	-33.62
3688.073	-32.62
3690.811	-32.62
3693.547	-36.62
3696.281	-38.62
3699.013	-43.62
3701.742	-37.62
3704.47	-45.62
3707.195	-44.62
3709.919	-43.62
3712.64	-46.62
3715.359	-45.62
3718.076	-49.62
3720.792	-51.62
3723.505	-46.62
3726.216	-51.62
3728.925	-54.62
3731.632	-54.62
3734.336	-53.62
3737.039	-57.62
3739.74	-54.62
3742.439	-51.62
3745.136	-52.62
3747.83	-59.62
3750.523	-59.62
3753.213	-57.62
3755.902	-60.62
3758.589	-58.62
3761.273	-58.62
3763.956	-57.62
3766.636	-57.62
3769.315	-59.62
3771.991	-62.62
3774.665	-63.62
3777.338	-61.62
3780.008	-62.62
3782.677	-63.62
3785.343	-60.62
3788.007	-63.62
3790.67	-63.62
3793.33	-65.62
3795.989	-63.62
3798.645	-63.62
3801.299	-65.62
3803.952	-63.62
3806.602	-68.62
3809.251	-63.62
3811.897	-66.62
3814.542	-65.62
3817.184	-61.62
3819.825	-63.62
3822.463	-64.62
3825.1	-70.62
3827.735	-67.62
3830.367	-73.62
3832.998	-68.62
3835.627	-67.62
3838.253	-65.62
3840.878	-67.62
3843.501	-68.62
3846.122	-67.62
3848.741	-73.62
3851.358	-73.62
3853.973	-68.62
3856.586	-65.62
3859.197	-69.62
3861.806	-69.62
3864.414	-70.62
3867.019	-72.62
3869.622	-68.62
3872.224	-72.62
3874.823	-73.62
3877.421	-69.62
3880.016	-70.62
3882.61	-67.62
3885.202	-61.62
3887.792	-65.62
3890.38	-64.62
3892.966	-67.62
3895.55	-70.62
3898.132	-72.62
3900.713	-73.62
3903.291	-73.62
3905.868	-74.62
3908.442	-70.62
3911.015	-76.62
3913.586	-74.62
3916.155	-70.62
3918.722	-72.62
3921.287	-72.62
3923.85	-75.62
3926.411	-73.62
3928.971	-72.62
3931.528	-73.62
3934.084	-74.62
3936.638	-77.62
3939.19	-74.62
3941.74	-76.62
3944.288	-78.62
3946.834	-75.62
3949.378	-72.62
3951.921	-70.62
3954.462	-73.62
3957	-71.62
3959.537	-72.62
3962.072	-72.62
3964.606	-75.62
3967.137	-75.62
3969.667	-72.62
3972.194	-74.62
3974.72	-72.62
3977.244	-69.62
3979.766	-70.62
3982.286	-70.62
3984.805	-73.62
3987.321	-75.62
3989.836	-74.62
3992.349	-68.62
3994.86	-67.62
3997.369	-67.62
3999.877	-72.62
4002.382	-72.62
4004.886	-76.62
4007.388	-76.62
4009.888	-68.62
4012.386	-70.62
4014.883	-71.62
4017.377	-71.62
4019.87	-74.62
4022.361	-73.62
4024.85	-74.62
4027.338	-70.62
4029.823	-69.62
4032.307	-67.62
4034.789	-70.62
4037.269	-73.62
4039.747	-76.62
4042.224	-73.62
4044.699	-70.62
4047.172	-71.62
4049.643	-74.62
4052.112	-75.62
4054.58	-74.62
4057.046	-72.62
4059.51	-73.62
4061.972	-70.62
4064.432	-68.62
4066.891	-75.62
4069.348	-73.62
4071.803	-72.62
4074.256	-75.62
4076.708	-77.62
4079.158	-75.62
4081.606	-67.62
4084.052	-75.62
4086.497	-71.62
4088.939	-72.62
4091.38	-77.62
4093.819	-73.62
4096.257	-76.62
4098.693	-75.62
4101.127	-76.62
4103.559	-76.62
4105.989	-24.62
4108.418	-18.62
4110.845	-19.62
4113.27	-16.62
4115.694	-15.62
4118.115	-10.62
4120.535	-76.62
4122.954	-74.62
4125.37	-71.62
4127.785	-73.62
4130.198	-73.62
4132.609	-75.62
4135.019	-79.62
4137.427	-76.62
4139.833	-78.62
4142.237	-76.62
