Data from 10000000CFU2_FROM15TH_ramanshift_RamanShift_13-46-40-644.txt Node
Date: Sun Dec 25 13:46:40 IST 2016
User: aro
Spectrometer: QEPB0276
Trigger mode: 0
Integration Time (sec): 5.000000E0
Scans to average: 1
Electric dark correction enabled: true
Nonlinearity correction enabled: false
Boxcar width: 0
XAxis mode: Raman Shifts
Number of Pixels in Spectrum: 1044
>>>>>Begin Spectral Data<<<<<
160.701	3.5
166.742	17.5
172.777	66.5
178.805	207.5
184.826	612.5
190.841	1444.5
196.849	2647.5
202.85	3795.5
208.845	4343.5
214.833	4378.5
220.815	4231.5
226.789	4065.5
232.758	3949.5
238.719	3881.5
244.674	3752.5
250.623	3591.5
256.565	3477.5
262.5	3313.5
268.429	3170.5
274.351	3039.5
280.267	2909.5
286.176	2819.5
292.079	2761.5
297.975	2651.5
303.865	2571.5
309.748	2483.5
315.625	2421.5
321.495	2381.5
327.359	2331.5
333.217	2314.5
339.068	2272.5
344.912	2283.5
350.751	2252.5
356.583	2238.5
362.408	2251.5
368.227	2245.5
374.04	2253.5
379.847	2255.5
385.647	2267.5
391.44	2265.5
397.228	2277.5
403.009	2292.5
408.784	2318.5
414.553	2308.5
420.315	2332.5
426.071	2318.5
431.821	2320.5
437.565	2344.5
443.302	2326.5
449.033	2331.5
454.758	2311.5
460.477	2302.5
466.189	2312.5
471.896	2298.5
477.596	2277.5
483.29	2263.5
488.978	2269.5
494.66	2268.5
500.335	2257.5
506.005	2220.5
511.668	2193.5
517.325	2159.5
522.977	2139.5
528.622	2116.5
534.261	2067.5
539.894	2060.5
545.521	2039.5
551.141	2028.5
556.756	2018.5
562.365	1999.5
567.968	1999.5
573.565	1986.5
579.155	1978.5
584.74	1970.5
590.319	1969.5
595.892	1956.5
601.459	1940.5
607.02	1927.5
612.575	1897.5
618.124	1894.5
623.667	1884.5
629.204	1868.5
634.735	1854.5
640.261	1842.5
645.781	1823.5
651.294	1845.5
656.802	1833.5
662.304	1812.5
667.8	1794.5
673.29	1807.5
678.775	1808.5
684.254	1783.5
689.726	1786.5
695.193	1785.5
700.655	1765.5
706.11	1753.5
711.56	1752.5
717.004	1739.5
722.442	1703.5
727.874	1722.5
733.301	1718.5
738.722	1708.5
744.137	1680.5
749.547	1695.5
754.951	1680.5
760.349	1667.5
765.741	1679.5
771.128	1685.5
776.509	1675.5
781.885	1679.5
787.254	1670.5
792.618	1684.5
797.977	1682.5
803.33	1660.5
808.677	1647.5
814.019	1630.5
819.355	1612.5
824.686	1609.5
830.011	1600.5
835.33	1607.5
840.644	1615.5
845.952	1588.5
851.255	1576.5
856.552	1575.5
861.844	1568.5
867.13	1560.5
872.41	1556.5
877.686	1539.5
882.955	1548.5
888.219	1519.5
893.478	1507.5
898.731	1477.5
903.979	1458.5
909.221	1428.5
914.458	1441.5
919.69	1423.5
924.916	1424.5
930.136	1411.5
935.351	1417.5
940.561	1410.5
945.766	1411.5
950.965	1406.5
956.158	1405.5
961.347	1377.5
966.529	1370.5
971.707	1353.5
976.879	1343.5
982.046	1318.5
987.208	1308.5
992.364	1314.5
997.515	1312.5
1002.66	1312.5
1007.801	1323.5
1012.936	1332.5
1018.066	1344.5
1023.19	1360.5
1028.309	1355.5
1033.423	1375.5
1038.532	1367.5
1043.636	1351.5
1048.734	1346.5
1053.827	1336.5
1058.915	1321.5
1063.998	1323.5
1069.075	1309.5
1074.147	1313.5
1079.214	1309.5
1084.276	1318.5
1089.333	1325.5
1094.385	1342.5
1099.431	1345.5
1104.472	1361.5
1109.509	1338.5
1114.54	1341.5
1119.565	1314.5
1124.586	1301.5
1129.602	1285.5
1134.613	1274.5
1139.618	1276.5
1144.619	1274.5
1149.614	1272.5
1154.604	1283.5
1159.589	1285.5
1164.57	1297.5
1169.545	1296.5
1174.515	1299.5
1179.48	1298.5
1184.44	1299.5
1189.395	1286.5
1194.345	1275.5
1199.29	1276.5
1204.23	1280.5
1209.165	1271.5
1214.095	1285.5
1219.021	1294.5
1223.941	1296.5
1228.856	1320.5
1233.766	1317.5
1238.672	1313.5
1243.572	1310.5
1248.467	1312.5
1253.358	1293.5
1258.244	1292.5
1263.124	1277.5
1268	1257.5
1272.871	1231.5
1277.737	1230.5
1282.599	1220.5
1287.455	1229.5
1292.306	1230.5
1297.153	1248.5
1301.995	1248.5
1306.832	1251.5
1311.664	1253.5
1316.491	1263.5
1321.314	1263.5
1326.132	1254.5
1330.945	1243.5
1335.753	1215.5
1340.556	1187.5
1345.354	1180.5
1350.148	1173.5
1354.937	1181.5
1359.722	1163.5
1364.501	1166.5
1369.276	1157.5
1374.046	1157.5
1378.811	1151.5
1383.572	1171.5
1388.327	1145.5
1393.079	1157.5
1397.825	1143.5
1402.567	1128.5
1407.304	1120.5
1412.036	1116.5
1416.764	1107.5
1421.487	1098.5
1426.205	1104.5
1430.919	1123.5
1435.628	1124.5
1440.333	1152.5
1445.032	1143.5
1449.727	1157.5
1454.418	1149.5
1459.104	1152.5
1463.785	1148.5
1468.462	1148.5
1473.134	1141.5
1477.802	1132.5
1482.465	1124.5
1487.123	1123.5
1491.777	1121.5
1496.426	1108.5
1501.071	1129.5
1505.711	1131.5
1510.347	1122.5
1514.978	1147.5
1519.604	1152.5
1524.226	1166.5
1528.844	1170.5
1533.457	1162.5
1538.065	1180.5
1542.669	1168.5
1547.269	1156.5
1551.864	1164.5
1556.454	1159.5
1561.041	1175.5
1565.622	1170.5
1570.199	1183.5
1574.772	1202.5
1579.34	1216.5
1583.904	1230.5
1588.464	1252.5
1593.019	1267.5
1597.569	1286.5
1602.115	1276.5
1606.657	1280.5
1611.195	1308.5
1615.728	1296.5
1620.256	1302.5
1624.78	1310.5
1629.3	1344.5
1633.816	1351.5
1638.327	1380.5
1642.834	1381.5
1647.336	1404.5
1651.834	1398.5
1656.328	1406.5
1660.817	1416.5
1665.302	1405.5
1669.783	1375.5
1674.259	1348.5
1678.732	1311.5
1683.199	1282.5
1687.663	1234.5
1692.122	1207.5
1696.577	1169.5
1701.028	1126.5
1705.474	1086.5
1709.917	1067.5
1714.355	1043.5
1718.788	1025.5
1723.218	1012.5
1727.643	993.5
1732.064	980.5
1736.481	963.5
1740.893	930.5
1745.301	907.5
1749.705	871.5
1754.105	872.5
1758.501	855.5
1762.893	840.5
1767.28	813.5
1771.663	826.5
1776.042	804.5
1780.417	797.5
1784.787	800.5
1789.154	803.5
1793.516	803.5
1797.874	814.5
1802.228	807.5
1806.578	809.5
1810.924	801.5
1815.266	778.5
1819.603	771.5
1823.937	767.5
1828.266	759.5
1832.591	768.5
1836.913	756.5
1841.23	737.5
1845.543	736.5
1849.852	747.5
1854.156	749.5
1858.457	752.5
1862.754	732.5
1867.047	742.5
1871.335	731.5
1875.62	747.5
1879.9	752.5
1884.177	750.5
1888.449	752.5
1892.718	739.5
1896.982	730.5
1901.243	737.5
1905.499	732.5
1909.752	737.5
1914	725.5
1918.245	725.5
1922.485	729.5
1926.722	731.5
1930.954	733.5
1935.183	742.5
1939.408	752.5
1943.628	752.5
1947.845	746.5
1952.058	742.5
1956.267	743.5
1960.472	737.5
1964.673	742.5
1968.87	717.5
1973.063	725.5
1977.252	709.5
1981.438	703.5
1985.619	696.5
1989.797	696.5
1993.971	698.5
1998.14	697.5
2002.306	692.5
2006.469	720.5
2010.627	722.5
2014.781	710.5
2018.932	713.5
2023.078	706.5
2027.221	712.5
2031.36	709.5
2035.495	700.5
2039.627	702.5
2043.754	681.5
2047.878	696.5
2051.998	687.5
2056.114	676.5
2060.226	682.5
2064.334	691.5
2068.439	690.5
2072.54	697.5
2076.637	705.5
2080.73	701.5
2084.82	701.5
2088.906	702.5
2092.988	701.5
2097.066	711.5
2101.14	692.5
2105.211	693.5
2109.278	683.5
2113.342	688.5
2117.401	676.5
2121.457	680.5
2125.509	687.5
2129.558	682.5
2133.602	673.5
2137.643	670.5
2141.681	663.5
2145.714	670.5
2149.744	665.5
2153.77	675.5
2157.793	658.5
2161.812	651.5
2165.827	647.5
2169.838	641.5
2173.846	622.5
2177.851	630.5
2181.851	616.5
2185.848	606.5
2189.841	607.5
2193.831	596.5
2197.817	597.5
2201.799	577.5
2205.778	586.5
2209.753	575.5
2213.725	582.5
2217.693	583.5
2221.657	590.5
2225.618	578.5
2229.575	575.5
2233.529	584.5
2237.479	567.5
2241.425	575.5
2245.368	559.5
2249.307	554.5
2253.243	557.5
2257.175	546.5
2261.104	535.5
2265.029	530.5
2268.95	524.5
2272.868	518.5
2276.783	518.5
2280.694	513.5
2284.601	498.5
2288.505	491.5
2292.405	495.5
2296.302	481.5
2300.195	479.5
2304.085	481.5
2307.971	472.5
2311.854	462.5
2315.734	443.5
2319.609	466.5
2323.482	450.5
2327.351	431.5
2331.216	431.5
2335.078	430.5
2338.937	432.5
2342.792	424.5
2346.643	418.5
2350.492	425.5
2354.336	417.5
2358.178	427.5
2362.015	428.5
2365.85	427.5
2369.681	421.5
2373.508	424.5
2377.333	426.5
2381.153	419.5
2384.971	423.5
2388.785	418.5
2392.595	423.5
2396.402	401.5
2400.206	413.5
2404.007	407.5
2407.804	402.5
2411.597	405.5
2415.388	408.5
2419.174	401.5
2422.958	403.5
2426.738	404.5
2430.515	408.5
2434.289	406.5
2438.059	406.5
2441.825	401.5
2445.589	395.5
2449.349	385.5
2453.106	384.5
2456.859	393.5
2460.61	390.5
2464.356	387.5
2468.1	386.5
2471.84	370.5
2475.577	372.5
2479.311	372.5
2483.041	374.5
2486.768	371.5
2490.492	376.5
2494.213	372.5
2497.93	364.5
2501.644	380.5
2505.355	360.5
2509.062	366.5
2512.766	363.5
2516.467	376.5
2520.165	367.5
2523.859	359.5
2527.551	356.5
2531.239	349.5
2534.923	351.5
2538.605	341.5
2542.283	347.5
2545.958	346.5
2549.63	344.5
2553.299	346.5
2556.964	340.5
2560.626	347.5
2564.285	338.5
2567.941	344.5
2571.594	330.5
2575.243	329.5
2578.89	327.5
2582.533	329.5
2586.173	324.5
2589.809	331.5
2593.443	323.5
2597.073	322.5
2600.701	325.5
2604.325	309.5
2607.946	307.5
2611.564	309.5
2615.178	319.5
2618.79	319.5
2622.398	313.5
2626.004	306.5
2629.606	307.5
2633.205	299.5
2636.801	305.5
2640.394	302.5
2643.983	298.5
2647.57	286.5
2651.153	290.5
2654.734	294.5
2658.311	281.5
2661.885	284.5
2665.456	281.5
2669.025	281.5
2672.589	273.5
2676.151	271.5
2679.71	269.5
2683.266	269.5
2686.819	271.5
2690.368	268.5
2693.915	263.5
2697.458	266.5
2700.999	262.5
2704.536	248.5
2708.071	252.5
2711.602	251.5
2715.13	247.5
2718.656	247.5
2722.178	247.5
2725.697	244.5
2729.214	247.5
2732.727	243.5
2736.237	249.5
2739.744	248.5
2743.249	246.5
2746.75	247.5
2750.248	243.5
2753.743	249.5
2757.236	245.5
2760.725	246.5
2764.211	243.5
2767.695	238.5
2771.175	245.5
2774.652	244.5
2778.127	234.5
2781.598	240.5
2785.067	238.5
2788.532	240.5
2791.995	235.5
2795.455	242.5
2798.911	239.5
2802.365	230.5
2805.816	251.5
2809.264	245.5
2812.709	245.5
2816.151	234.5
2819.59	238.5
2823.026	249.5
2826.46	241.5
2829.89	238.5
2833.318	239.5
2836.742	242.5
2840.164	238.5
2843.583	243.5
2846.999	248.5
2850.412	247.5
2853.822	255.5
2857.229	256.5
2860.634	250.5
2864.035	254.5
2867.434	262.5
2870.83	255.5
2874.223	263.5
2877.613	264.5
2881	268.5
2884.385	272.5
2887.766	270.5
2891.145	267.5
2894.521	264.5
2897.894	272.5
2901.264	282.5
2904.631	273.5
2907.996	280.5
2911.358	280.5
2914.717	271.5
2918.073	277.5
2921.426	288.5
2924.777	291.5
2928.124	292.5
2931.469	290.5
2934.811	298.5
2938.15	305.5
2941.487	304.5
2944.821	303.5
2948.152	314.5
2951.48	322.5
2954.805	322.5
2958.128	326.5
2961.447	323.5
2964.765	335.5
2968.079	338.5
2971.39	341.5
2974.699	351.5
2978.005	359.5
2981.308	354.5
2984.609	372.5
2987.907	369.5
2991.202	388.5
2994.494	400.5
2997.784	395.5
3001.07	417.5
3004.355	431.5
3007.636	436.5
3010.915	443.5
3014.191	452.5
3017.464	457.5
3020.734	465.5
3024.002	472.5
3027.267	472.5
3030.53	493.5
3033.789	497.5
3037.046	497.5
3040.301	520.5
3043.552	527.5
3046.801	535.5
3050.048	542.5
3053.291	559.5
3056.532	574.5
3059.771	590.5
3063.006	609.5
3066.239	623.5
3069.469	653.5
3072.697	654.5
3075.922	682.5
3079.144	702.5
3082.364	710.5
3085.581	718.5
3088.795	750.5
3092.007	765.5
3095.216	769.5
3098.423	793.5
3101.627	806.5
3104.828	845.5
3108.026	843.5
3111.222	859.5
3114.416	879.5
3117.607	895.5
3120.795	908.5
3123.98	936.5
3127.163	959.5
3130.344	970.5
3133.521	1004.5
3136.696	1031.5
3139.869	1038.5
3143.039	1051.5
3146.206	1069.5
3149.371	1090.5
3152.533	1110.5
3155.693	1120.5
3158.85	1130.5
3162.005	1107.5
3165.157	1129.5
3168.306	1116.5
3171.453	1123.5
3174.597	1127.5
3177.739	1138.5
3180.878	1145.5
3184.014	1140.5
3187.149	1148.5
3190.28	1145.5
3193.409	1144.5
3196.536	1153.5
3199.659	1164.5
3202.781	1168.5
3205.9	1176.5
3209.016	1167.5
3212.13	1159.5
3215.241	1164.5
3218.35	1145.5
3221.456	1143.5
3224.56	1132.5
3227.661	1111.5
3230.76	1122.5
3233.856	1111.5
3236.95	1090.5
3240.041	1087.5
3243.13	1064.5
3246.216	1061.5
3249.3	1043.5
3252.382	1049.5
3255.46	1041.5
3258.537	1034.5
3261.611	1022.5
3264.682	1031.5
3267.751	1024.5
3270.818	1008.5
3273.882	1009.5
3276.943	997.5
3280.002	1004.5
3283.059	985.5
3286.113	979.5
3289.165	962.5
3292.214	955.5
3295.261	941.5
3298.306	927.5
3301.348	919.5
3304.387	887.5
3307.425	882.5
3310.459	877.5
3313.492	880.5
3316.521	862.5
3319.549	848.5
3322.574	824.5
3325.597	827.5
3328.617	819.5
3331.635	807.5
3334.65	806.5
3337.663	804.5
3340.674	821.5
3343.682	807.5
3346.688	782.5
3349.691	794.5
3352.692	795.5
3355.691	784.5
3358.687	774.5
3361.681	776.5
3364.673	755.5
3367.662	765.5
3370.649	744.5
3373.633	732.5
3376.615	718.5
3379.595	709.5
3382.572	705.5
3385.547	696.5
3388.52	694.5
3391.49	678.5
3394.458	662.5
3397.424	658.5
3400.387	655.5
3403.348	641.5
3406.307	639.5
3409.263	628.5
3412.217	616.5
3415.168	623.5
3418.118	620.5
3421.065	591.5
3424.009	600.5
3426.951	593.5
3429.891	576.5
3432.829	571.5
3435.764	554.5
3438.697	561.5
3441.628	537.5
3444.557	522.5
3447.483	511.5
3450.407	502.5
3453.328	479.5
3456.247	468.5
3459.164	465.5
3462.079	450.5
3464.991	429.5
3467.902	428.5
3470.809	409.5
3473.715	400.5
3476.618	385.5
3479.519	376.5
3482.418	368.5
3485.315	353.5
3488.209	352.5
3491.101	341.5
3493.99	327.5
3496.878	325.5
3499.763	319.5
3502.646	297.5
3505.527	296.5
3508.405	279.5
3511.281	267.5
3514.155	255.5
3517.027	247.5
3519.897	246.5
3522.764	234.5
3525.629	227.5
3528.492	207.5
3531.352	197.5
3534.211	191.5
3537.067	180.5
3539.921	167.5
3542.773	166.5
3545.622	155.5
3548.469	142.5
3551.315	140.5
3554.157	129.5
3556.998	120.5
3559.837	113.5
3562.673	113.5
3565.507	110.5
3568.339	111.5
3571.169	102.5
3573.996	84.5
3576.822	82.5
3579.645	81.5
3582.466	75.5
3585.285	73.5
3588.101	63.5
3590.916	57.5
3593.728	56.5
3596.538	47.5
3599.346	43.5
3602.152	43.5
3604.956	40.5
3607.757	36.5
3610.556	31.5
3613.354	30.5
3616.149	25.5
3618.942	20.5
3621.732	18.5
3624.521	14.5
3627.307	12.5
3630.092	4.5
3632.874	12.5
3635.654	10.5
3638.432	5.5
3641.208	0.5
3643.982	2.5
3646.753	-2.5
3649.523	-5.5
3652.29	-10.5
3655.055	-13.5
3657.818	-12.5
3660.579	-13.5
3663.338	-18.5
3666.095	-19.5
3668.849	-22.5
3671.602	-22.5
3674.352	-29.5
3677.101	-34.5
3679.847	-29.5
3682.591	-27.5
3685.333	-34.5
3688.073	-30.5
3690.811	-30.5
3693.547	-31.5
3696.281	-40.5
3699.013	-43.5
3701.742	-39.5
3704.47	-42.5
3707.195	-39.5
3709.919	-42.5
3712.64	-49.5
3715.359	-40.5
3718.076	-46.5
3720.792	-49.5
3723.505	-48.5
3726.216	-51.5
3728.925	-54.5
3731.632	-51.5
3734.336	-50.5
3737.039	-53.5
3739.74	-51.5
3742.439	-51.5
3745.136	-55.5
3747.83	-54.5
3750.523	-57.5
3753.213	-57.5
3755.902	-57.5
3758.589	-52.5
3761.273	-55.5
3763.956	-55.5
3766.636	-55.5
3769.315	-56.5
3771.991	-61.5
3774.665	-63.5
3777.338	-60.5
3780.008	-59.5
3782.677	-57.5
3785.343	-57.5
3788.007	-60.5
3790.67	-59.5
3793.33	-62.5
3795.989	-62.5
3798.645	-65.5
3801.299	-59.5
3803.952	-61.5
3806.602	-60.5
3809.251	-61.5
3811.897	-64.5
3814.542	-64.5
3817.184	-62.5
3819.825	-65.5
3822.463	-63.5
3825.1	-66.5
3827.735	-63.5
3830.367	-67.5
3832.998	-62.5
3835.627	-62.5
3838.253	-66.5
3840.878	-67.5
3843.501	-69.5
3846.122	-66.5
3848.741	-69.5
3851.358	-70.5
3853.973	-63.5
3856.586	-64.5
3859.197	-66.5
3861.806	-67.5
3864.414	-64.5
3867.019	-68.5
3869.622	-64.5
3872.224	-69.5
3874.823	-65.5
3877.421	-66.5
3880.016	-66.5
3882.61	-63.5
3885.202	-61.5
3887.792	-62.5
3890.38	-63.5
3892.966	-66.5
3895.55	-68.5
3898.132	-69.5
3900.713	-67.5
3903.291	-70.5
3905.868	-68.5
3908.442	-67.5
3911.015	-73.5
3913.586	-74.5
3916.155	-68.5
3918.722	-69.5
3921.287	-69.5
3923.85	-70.5
3926.411	-69.5
3928.971	-70.5
3931.528	-73.5
3934.084	-73.5
3936.638	-74.5
3939.19	-72.5
3941.74	-69.5
3944.288	-72.5
3946.834	-70.5
3949.378	-73.5
3951.921	-70.5
3954.462	-72.5
3957	-71.5
3959.537	-70.5
3962.072	-67.5
3964.606	-67.5
3967.137	-70.5
3969.667	-68.5
3972.194	-73.5
3974.72	-73.5
3977.244	-69.5
3979.766	-70.5
3982.286	-65.5
3984.805	-68.5
3987.321	-68.5
3989.836	-67.5
3992.349	-70.5
3994.86	-67.5
3997.369	-63.5
3999.877	-72.5
4002.382	-72.5
4004.886	-72.5
4007.388	-67.5
4009.888	-65.5
4012.386	-64.5
4014.883	-68.5
4017.377	-69.5
4019.87	-71.5
4022.361	-70.5
4024.85	-70.5
4027.338	-67.5
4029.823	-62.5
4032.307	-66.5
4034.789	-68.5
4037.269	-71.5
4039.747	-73.5
4042.224	-73.5
4044.699	-70.5
4047.172	-71.5
4049.643	-68.5
4052.112	-69.5
4054.58	-68.5
4057.046	-71.5
4059.51	-71.5
4061.972	-70.5
4064.432	-69.5
4066.891	-69.5
4069.348	-72.5
4071.803	-66.5
4074.256	-70.5
4076.708	-71.5
4079.158	-71.5
4081.606	-66.5
4084.052	-72.5
4086.497	-71.5
4088.939	-73.5
4091.38	-70.5
4093.819	-70.5
4096.257	-76.5
4098.693	-74.5
4101.127	-73.5
4103.559	-73.5
4105.989	-19.5
4108.418	-21.5
4110.845	-15.5
4113.27	-16.5
4115.694	-9.5
4118.115	-8.5
4120.535	-72.5
4122.954	-67.5
4125.37	-71.5
4127.785	-74.5
4130.198	-74.5
4132.609	-72.5
4135.019	-74.5
4137.427	-72.5
4139.833	-71.5
4142.237	-76.5
