Data from 1000CFU3_FROM15TH_ramanshift_RamanShift_13-33-40-720.txt Node
Date: Sun Dec 25 13:33:40 IST 2016
User: aro
Spectrometer: QEPB0276
Trigger mode: 0
Integration Time (sec): 5.000000E0
Scans to average: 1
Electric dark correction enabled: true
Nonlinearity correction enabled: false
Boxcar width: 0
XAxis mode: Raman Shifts
Number of Pixels in Spectrum: 1044
>>>>>Begin Spectral Data<<<<<
160.701	4.5
166.742	19.5
172.777	69.5
178.805	220.5
184.826	660.5
190.841	1578.5
196.849	2909.5
202.85	4134.5
208.845	4770.5
214.833	4766.5
220.815	4580.5
226.789	4444.5
232.758	4360.5
238.719	4223.5
244.674	4086.5
250.623	3965.5
256.565	3765.5
262.5	3608.5
268.429	3454.5
274.351	3343.5
280.267	3221.5
286.176	3100.5
292.079	3002.5
297.975	2900.5
303.865	2798.5
309.748	2739.5
315.625	2672.5
321.495	2601.5
327.359	2546.5
333.217	2546.5
339.068	2523.5
344.912	2491.5
350.751	2459.5
356.583	2443.5
362.408	2441.5
368.227	2467.5
374.04	2465.5
379.847	2459.5
385.647	2483.5
391.44	2482.5
397.228	2493.5
403.009	2529.5
408.784	2533.5
414.553	2543.5
420.315	2547.5
426.071	2568.5
431.821	2557.5
437.565	2541.5
443.302	2539.5
449.033	2529.5
454.758	2556.5
460.477	2537.5
466.189	2544.5
471.896	2503.5
477.596	2498.5
483.29	2476.5
488.978	2489.5
494.66	2458.5
500.335	2449.5
506.005	2434.5
511.668	2383.5
517.325	2368.5
522.977	2337.5
528.622	2322.5
534.261	2274.5
539.894	2254.5
545.521	2232.5
551.141	2238.5
556.756	2223.5
562.365	2209.5
567.968	2198.5
573.565	2180.5
579.155	2174.5
584.74	2149.5
590.319	2133.5
595.892	2120.5
601.459	2118.5
607.02	2110.5
612.575	2109.5
618.124	2092.5
623.667	2070.5
629.204	2032.5
634.735	2035.5
640.261	2006.5
645.781	2028.5
651.294	2013.5
656.802	1975.5
662.304	1975.5
667.8	2000.5
673.29	1966.5
678.775	1964.5
684.254	1956.5
689.726	1956.5
695.193	1929.5
700.655	1942.5
706.11	1932.5
711.56	1921.5
717.004	1905.5
722.442	1890.5
727.874	1871.5
733.301	1875.5
738.722	1878.5
744.137	1838.5
749.547	1843.5
754.951	1850.5
760.349	1845.5
765.741	1854.5
771.128	1832.5
776.509	1844.5
781.885	1848.5
787.254	1837.5
792.618	1846.5
797.977	1827.5
803.33	1816.5
808.677	1793.5
814.019	1788.5
819.355	1777.5
824.686	1753.5
830.011	1751.5
835.33	1749.5
840.644	1731.5
845.952	1744.5
851.255	1727.5
856.552	1717.5
861.844	1708.5
867.13	1714.5
872.41	1715.5
877.686	1699.5
882.955	1689.5
888.219	1678.5
893.478	1641.5
898.731	1624.5
903.979	1612.5
909.221	1591.5
914.458	1564.5
919.69	1547.5
924.916	1569.5
930.136	1560.5
935.351	1551.5
940.561	1552.5
945.766	1538.5
950.965	1558.5
956.158	1543.5
961.347	1521.5
966.529	1503.5
971.707	1487.5
976.879	1462.5
982.046	1450.5
987.208	1442.5
992.364	1459.5
997.515	1439.5
1002.66	1452.5
1007.801	1454.5
1012.936	1478.5
1018.066	1483.5
1023.19	1492.5
1028.309	1504.5
1033.423	1516.5
1038.532	1501.5
1043.636	1510.5
1048.734	1482.5
1053.827	1473.5
1058.915	1458.5
1063.998	1461.5
1069.075	1427.5
1074.147	1443.5
1079.214	1433.5
1084.276	1456.5
1089.333	1473.5
1094.385	1474.5
1099.431	1484.5
1104.472	1476.5
1109.509	1479.5
1114.54	1462.5
1119.565	1469.5
1124.586	1447.5
1129.602	1440.5
1134.613	1404.5
1139.618	1413.5
1144.619	1402.5
1149.614	1407.5
1154.604	1405.5
1159.589	1424.5
1164.57	1422.5
1169.545	1451.5
1174.515	1428.5
1179.48	1434.5
1184.44	1422.5
1189.395	1421.5
1194.345	1417.5
1199.29	1406.5
1204.23	1391.5
1209.165	1410.5
1214.095	1406.5
1219.021	1427.5
1223.941	1436.5
1228.856	1430.5
1233.766	1441.5
1238.672	1454.5
1243.572	1439.5
1248.467	1449.5
1253.358	1450.5
1258.244	1421.5
1263.124	1414.5
1268	1383.5
1272.871	1370.5
1277.737	1342.5
1282.599	1353.5
1287.455	1355.5
1292.306	1352.5
1297.153	1370.5
1301.995	1380.5
1306.832	1373.5
1311.664	1385.5
1316.491	1388.5
1321.314	1386.5
1326.132	1383.5
1330.945	1379.5
1335.753	1364.5
1340.556	1334.5
1345.354	1329.5
1350.148	1306.5
1354.937	1277.5
1359.722	1299.5
1364.501	1286.5
1369.276	1281.5
1374.046	1269.5
1378.811	1268.5
1383.572	1273.5
1388.327	1272.5
1393.079	1260.5
1397.825	1265.5
1402.567	1257.5
1407.304	1237.5
1412.036	1228.5
1416.764	1213.5
1421.487	1226.5
1426.205	1226.5
1430.919	1236.5
1435.628	1236.5
1440.333	1249.5
1445.032	1276.5
1449.727	1281.5
1454.418	1282.5
1459.104	1294.5
1463.785	1276.5
1468.462	1260.5
1473.134	1255.5
1477.802	1241.5
1482.465	1238.5
1487.123	1234.5
1491.777	1232.5
1496.426	1226.5
1501.071	1228.5
1505.711	1246.5
1510.347	1260.5
1514.978	1254.5
1519.604	1274.5
1524.226	1290.5
1528.844	1296.5
1533.457	1284.5
1538.065	1288.5
1542.669	1286.5
1547.269	1270.5
1551.864	1278.5
1556.454	1300.5
1561.041	1285.5
1565.622	1293.5
1570.199	1297.5
1574.772	1325.5
1579.34	1339.5
1583.904	1360.5
1588.464	1377.5
1593.019	1387.5
1597.569	1414.5
1602.115	1425.5
1606.657	1431.5
1611.195	1440.5
1615.728	1437.5
1620.256	1449.5
1624.78	1460.5
1629.3	1467.5
1633.816	1495.5
1638.327	1519.5
1642.834	1537.5
1647.336	1557.5
1651.834	1562.5
1656.328	1559.5
1660.817	1568.5
1665.302	1530.5
1669.783	1531.5
1674.259	1487.5
1678.732	1440.5
1683.199	1406.5
1687.663	1376.5
1692.122	1339.5
1696.577	1289.5
1701.028	1252.5
1705.474	1183.5
1709.917	1155.5
1714.355	1154.5
1718.788	1126.5
1723.218	1107.5
1727.643	1097.5
1732.064	1076.5
1736.481	1059.5
1740.893	1041.5
1745.301	1010.5
1749.705	989.5
1754.105	961.5
1758.501	944.5
1762.893	949.5
1767.28	914.5
1771.663	902.5
1776.042	899.5
1780.417	897.5
1784.787	894.5
1789.154	904.5
1793.516	902.5
1797.874	899.5
1802.228	906.5
1806.578	889.5
1810.924	882.5
1815.266	865.5
1819.603	849.5
1823.937	854.5
1828.266	830.5
1832.591	841.5
1836.913	833.5
1841.23	822.5
1845.543	826.5
1849.852	822.5
1854.156	824.5
1858.457	826.5
1862.754	825.5
1867.047	830.5
1871.335	820.5
1875.62	831.5
1879.9	827.5
1884.177	839.5
1888.449	842.5
1892.718	832.5
1896.982	814.5
1901.243	819.5
1905.499	815.5
1909.752	804.5
1914	809.5
1918.245	810.5
1922.485	812.5
1926.722	811.5
1930.954	823.5
1935.183	813.5
1939.408	830.5
1943.628	827.5
1947.845	822.5
1952.058	816.5
1956.267	822.5
1960.472	816.5
1964.673	807.5
1968.87	806.5
1973.063	799.5
1977.252	783.5
1981.438	775.5
1985.619	783.5
1989.797	792.5
1993.971	794.5
1998.14	785.5
2002.306	788.5
2006.469	789.5
2010.627	792.5
2014.781	792.5
2018.932	788.5
2023.078	793.5
2027.221	792.5
2031.36	784.5
2035.495	772.5
2039.627	765.5
2043.754	761.5
2047.878	774.5
2051.998	762.5
2056.114	763.5
2060.226	776.5
2064.334	754.5
2068.439	761.5
2072.54	772.5
2076.637	782.5
2080.73	770.5
2084.82	778.5
2088.906	784.5
2092.988	772.5
2097.066	778.5
2101.14	775.5
2105.211	769.5
2109.278	763.5
2113.342	757.5
2117.401	752.5
2121.457	751.5
2125.509	742.5
2129.558	757.5
2133.602	745.5
2137.643	748.5
2141.681	720.5
2145.714	743.5
2149.744	731.5
2153.77	731.5
2157.793	730.5
2161.812	717.5
2165.827	718.5
2169.838	712.5
2173.846	685.5
2177.851	685.5
2181.851	676.5
2185.848	666.5
2189.841	667.5
2193.831	670.5
2197.817	650.5
2201.799	649.5
2205.778	655.5
2209.753	645.5
2213.725	651.5
2217.693	650.5
2221.657	647.5
2225.618	648.5
2229.575	643.5
2233.529	636.5
2237.479	638.5
2241.425	645.5
2245.368	623.5
2249.307	610.5
2253.243	604.5
2257.175	607.5
2261.104	599.5
2265.029	584.5
2268.95	584.5
2272.868	593.5
2276.783	571.5
2280.694	562.5
2284.601	556.5
2288.505	551.5
2292.405	553.5
2296.302	543.5
2300.195	542.5
2304.085	539.5
2307.971	516.5
2311.854	525.5
2315.734	499.5
2319.609	498.5
2323.482	492.5
2327.351	492.5
2331.216	488.5
2335.078	481.5
2338.937	480.5
2342.792	479.5
2346.643	469.5
2350.492	469.5
2354.336	478.5
2358.178	474.5
2362.015	468.5
2365.85	475.5
2369.681	477.5
2373.508	483.5
2377.333	469.5
2381.153	478.5
2384.971	470.5
2388.785	467.5
2392.595	468.5
2396.402	459.5
2400.206	470.5
2404.007	465.5
2407.804	450.5
2411.597	455.5
2415.388	453.5
2419.174	454.5
2422.958	454.5
2426.738	453.5
2430.515	451.5
2434.289	448.5
2438.059	449.5
2441.825	449.5
2445.589	443.5
2449.349	431.5
2453.106	443.5
2456.859	430.5
2460.61	430.5
2464.356	437.5
2468.1	423.5
2471.84	426.5
2475.577	414.5
2479.311	416.5
2483.041	424.5
2486.768	421.5
2490.492	406.5
2494.213	412.5
2497.93	415.5
2501.644	422.5
2505.355	414.5
2509.062	414.5
2512.766	415.5
2516.467	408.5
2520.165	400.5
2523.859	404.5
2527.551	402.5
2531.239	395.5
2534.923	394.5
2538.605	399.5
2542.283	398.5
2545.958	392.5
2549.63	378.5
2553.299	391.5
2556.964	377.5
2560.626	382.5
2564.285	382.5
2567.941	370.5
2571.594	370.5
2575.243	374.5
2578.89	369.5
2582.533	368.5
2586.173	353.5
2589.809	362.5
2593.443	360.5
2597.073	355.5
2600.701	359.5
2604.325	349.5
2607.946	346.5
2611.564	348.5
2615.178	348.5
2618.79	352.5
2622.398	348.5
2626.004	347.5
2629.606	344.5
2633.205	350.5
2636.801	339.5
2640.394	338.5
2643.983	328.5
2647.57	327.5
2651.153	331.5
2654.734	327.5
2658.311	315.5
2661.885	323.5
2665.456	318.5
2669.025	319.5
2672.589	312.5
2676.151	315.5
2679.71	304.5
2683.266	311.5
2686.819	304.5
2690.368	301.5
2693.915	299.5
2697.458	304.5
2700.999	298.5
2704.536	290.5
2708.071	286.5
2711.602	279.5
2715.13	280.5
2718.656	279.5
2722.178	273.5
2725.697	284.5
2729.214	278.5
2732.727	282.5
2736.237	285.5
2739.744	284.5
2743.249	282.5
2746.75	275.5
2750.248	273.5
2753.743	276.5
2757.236	275.5
2760.725	285.5
2764.211	274.5
2767.695	270.5
2771.175	262.5
2774.652	272.5
2778.127	267.5
2781.598	271.5
2785.067	269.5
2788.532	265.5
2791.995	270.5
2795.455	270.5
2798.911	271.5
2802.365	269.5
2805.816	271.5
2809.264	277.5
2812.709	270.5
2816.151	269.5
2819.59	266.5
2823.026	269.5
2826.46	273.5
2829.89	264.5
2833.318	272.5
2836.742	273.5
2840.164	278.5
2843.583	278.5
2846.999	278.5
2850.412	283.5
2853.822	288.5
2857.229	289.5
2860.634	280.5
2864.035	288.5
2867.434	290.5
2870.83	302.5
2874.223	292.5
2877.613	305.5
2881	300.5
2884.385	299.5
2887.766	303.5
2891.145	303.5
2894.521	301.5
2897.894	297.5
2901.264	310.5
2904.631	304.5
2907.996	324.5
2911.358	314.5
2914.717	305.5
2918.073	313.5
2921.426	320.5
2924.777	325.5
2928.124	328.5
2931.469	334.5
2934.811	337.5
2938.15	348.5
2941.487	342.5
2944.821	340.5
2948.152	347.5
2951.48	351.5
2954.805	352.5
2958.128	357.5
2961.447	366.5
2964.765	363.5
2968.079	367.5
2971.39	376.5
2974.699	387.5
2978.005	395.5
2981.308	403.5
2984.609	411.5
2987.907	423.5
2991.202	429.5
2994.494	441.5
2997.784	451.5
3001.07	455.5
3004.355	472.5
3007.636	478.5
3010.915	487.5
3014.191	497.5
3017.464	508.5
3020.734	515.5
3024.002	511.5
3027.267	513.5
3030.53	522.5
3033.789	531.5
3037.046	549.5
3040.301	555.5
3043.552	571.5
3046.801	581.5
3050.048	597.5
3053.291	612.5
3056.532	622.5
3059.771	651.5
3063.006	666.5
3066.239	673.5
3069.469	701.5
3072.697	712.5
3075.922	731.5
3079.144	749.5
3082.364	776.5
3085.581	788.5
3088.795	816.5
3092.007	808.5
3095.216	844.5
3098.423	863.5
3101.627	876.5
3104.828	899.5
3108.026	912.5
3111.222	922.5
3114.416	945.5
3117.607	969.5
3120.795	988.5
3123.98	1007.5
3127.163	1028.5
3130.344	1047.5
3133.521	1071.5
3136.696	1093.5
3139.869	1116.5
3143.039	1135.5
3146.206	1160.5
3149.371	1182.5
3152.533	1178.5
3155.693	1194.5
3158.85	1191.5
3162.005	1216.5
3165.157	1214.5
3168.306	1197.5
3171.453	1219.5
3174.597	1231.5
3177.739	1233.5
3180.878	1232.5
3184.014	1242.5
3187.149	1233.5
3190.28	1224.5
3193.409	1240.5
3196.536	1235.5
3199.659	1242.5
3202.781	1249.5
3205.9	1252.5
3209.016	1265.5
3212.13	1251.5
3215.241	1251.5
3218.35	1230.5
3221.456	1230.5
3224.56	1213.5
3227.661	1201.5
3230.76	1198.5
3233.856	1178.5
3236.95	1169.5
3240.041	1176.5
3243.13	1145.5
3246.216	1149.5
3249.3	1136.5
3252.382	1134.5
3255.46	1118.5
3258.537	1101.5
3261.611	1109.5
3264.682	1111.5
3267.751	1109.5
3270.818	1097.5
3273.882	1096.5
3276.943	1090.5
3280.002	1071.5
3283.059	1062.5
3286.113	1051.5
3289.165	1044.5
3292.214	1039.5
3295.261	1016.5
3298.306	1008.5
3301.348	980.5
3304.387	967.5
3307.425	952.5
3310.459	929.5
3313.492	940.5
3316.521	919.5
3319.549	920.5
3322.574	905.5
3325.597	901.5
3328.617	888.5
3331.635	880.5
3334.65	879.5
3337.663	869.5
3340.674	855.5
3343.682	861.5
3346.688	868.5
3349.691	862.5
3352.692	860.5
3355.691	853.5
3358.687	837.5
3361.681	835.5
3364.673	836.5
3367.662	822.5
3370.649	810.5
3373.633	795.5
3376.615	794.5
3379.595	777.5
3382.572	762.5
3385.547	760.5
3388.52	747.5
3391.49	748.5
3394.458	735.5
3397.424	722.5
3400.387	703.5
3403.348	698.5
3406.307	682.5
3409.263	680.5
3412.217	677.5
3415.168	673.5
3418.118	663.5
3421.065	666.5
3424.009	642.5
3426.951	648.5
3429.891	631.5
3432.829	620.5
3435.764	609.5
3438.697	606.5
3441.628	583.5
3444.557	582.5
3447.483	563.5
3450.407	543.5
3453.328	530.5
3456.247	517.5
3459.164	501.5
3462.079	490.5
3464.991	474.5
3467.902	464.5
3470.809	443.5
3473.715	427.5
3476.618	421.5
3479.519	405.5
3482.418	402.5
3485.315	389.5
3488.209	379.5
3491.101	372.5
3493.99	360.5
3496.878	351.5
3499.763	340.5
3502.646	328.5
3505.527	323.5
3508.405	303.5
3511.281	292.5
3514.155	282.5
3517.027	273.5
3519.897	260.5
3522.764	258.5
3525.629	243.5
3528.492	219.5
3531.352	219.5
3534.211	207.5
3537.067	194.5
3539.921	189.5
3542.773	184.5
3545.622	170.5
3548.469	168.5
3551.315	151.5
3554.157	144.5
3556.998	141.5
3559.837	125.5
3562.673	122.5
3565.507	117.5
3568.339	117.5
3571.169	113.5
3573.996	103.5
3576.822	94.5
3579.645	89.5
3582.466	84.5
3585.285	74.5
3588.101	74.5
3590.916	66.5
3593.728	61.5
3596.538	57.5
3599.346	57.5
3602.152	45.5
3604.956	43.5
3607.757	43.5
3610.556	35.5
3613.354	30.5
3616.149	25.5
3618.942	23.5
3621.732	23.5
3624.521	17.5
3627.307	10.5
3630.092	10.5
3632.874	9.5
3635.654	4.5
3638.432	7.5
3641.208	1.5
3643.982	2.5
3646.753	-0.5
3649.523	-0.5
3652.29	-3.5
3655.055	-11.5
3657.818	-14.5
3660.579	-12.5
3663.338	-22.5
3666.095	-14.5
3668.849	-22.5
3671.602	-22.5
3674.352	-28.5
3677.101	-31.5
3679.847	-32.5
3682.591	-36.5
3685.333	-36.5
3688.073	-31.5
3690.811	-36.5
3693.547	-36.5
3696.281	-37.5
3699.013	-43.5
3701.742	-43.5
3704.47	-43.5
3707.195	-39.5
3709.919	-46.5
3712.64	-50.5
3715.359	-48.5
3718.076	-48.5
3720.792	-52.5
3723.505	-53.5
3726.216	-53.5
3728.925	-55.5
3731.632	-57.5
3734.336	-52.5
3737.039	-50.5
3739.74	-52.5
3742.439	-51.5
3745.136	-56.5
3747.83	-56.5
3750.523	-59.5
3753.213	-57.5
3755.902	-57.5
3758.589	-60.5
3761.273	-57.5
3763.956	-56.5
3766.636	-58.5
3769.315	-58.5
3771.991	-61.5
3774.665	-68.5
3777.338	-66.5
3780.008	-60.5
3782.677	-60.5
3785.343	-60.5
3788.007	-64.5
3790.67	-63.5
3793.33	-65.5
3795.989	-62.5
3798.645	-68.5
3801.299	-66.5
3803.952	-66.5
3806.602	-64.5
3809.251	-65.5
3811.897	-66.5
3814.542	-68.5
3817.184	-64.5
3819.825	-70.5
3822.463	-67.5
3825.1	-70.5
3827.735	-66.5
3830.367	-72.5
3832.998	-66.5
3835.627	-69.5
3838.253	-65.5
3840.878	-70.5
3843.501	-68.5
3846.122	-72.5
3848.741	-76.5
3851.358	-75.5
3853.973	-68.5
3856.586	-66.5
3859.197	-70.5
3861.806	-71.5
3864.414	-74.5
3867.019	-69.5
3869.622	-68.5
3872.224	-72.5
3874.823	-75.5
3877.421	-70.5
3880.016	-69.5
3882.61	-65.5
3885.202	-62.5
3887.792	-66.5
3890.38	-67.5
3892.966	-72.5
3895.55	-73.5
3898.132	-74.5
3900.713	-75.5
3903.291	-75.5
3905.868	-70.5
3908.442	-75.5
3911.015	-77.5
3913.586	-74.5
3916.155	-72.5
3918.722	-74.5
3921.287	-71.5
3923.85	-75.5
3926.411	-72.5
3928.971	-75.5
3931.528	-77.5
3934.084	-78.5
3936.638	-77.5
3939.19	-75.5
3941.74	-73.5
3944.288	-76.5
3946.834	-74.5
3949.378	-75.5
3951.921	-75.5
3954.462	-76.5
3957	-75.5
3959.537	-75.5
3962.072	-74.5
3964.606	-73.5
3967.137	-75.5
3969.667	-77.5
3972.194	-75.5
3974.72	-76.5
3977.244	-74.5
3979.766	-76.5
3982.286	-72.5
3984.805	-77.5
3987.321	-75.5
3989.836	-72.5
3992.349	-73.5
3994.86	-70.5
3997.369	-69.5
3999.877	-76.5
4002.382	-76.5
4004.886	-75.5
4007.388	-74.5
4009.888	-70.5
4012.386	-71.5
4014.883	-74.5
4017.377	-75.5
4019.87	-74.5
4022.361	-74.5
4024.85	-74.5
4027.338	-76.5
4029.823	-70.5
4032.307	-68.5
4034.789	-71.5
4037.269	-74.5
4039.747	-75.5
4042.224	-77.5
4044.699	-76.5
4047.172	-74.5
4049.643	-73.5
4052.112	-73.5
4054.58	-72.5
4057.046	-73.5
4059.51	-75.5
4061.972	-74.5
4064.432	-73.5
4066.891	-74.5
4069.348	-75.5
4071.803	-74.5
4074.256	-74.5
4076.708	-76.5
4079.158	-74.5
4081.606	-72.5
4084.052	-74.5
4086.497	-75.5
4088.939	-77.5
4091.38	-78.5
4093.819	-72.5
4096.257	-76.5
4098.693	-78.5
4101.127	-79.5
4103.559	-81.5
4105.989	-27.5
4108.418	-25.5
4110.845	-17.5
4113.27	-14.5
4115.694	-12.5
4118.115	-8.5
4120.535	-76.5
4122.954	-72.5
4125.37	-74.5
4127.785	-77.5
4130.198	-75.5
4132.609	-77.5
4135.019	-81.5
4137.427	-77.5
4139.833	-76.5
4142.237	-78.5
