Data from 1000000CFU1_A_ramanshift_RamanShift_14-24-30-435.txt Node
Date: Sun Dec 25 14:24:30 IST 2016
User: aro
Spectrometer: QEPB0276
Trigger mode: 0
Integration Time (sec): 5.000000E0
Scans to average: 1
Electric dark correction enabled: true
Nonlinearity correction enabled: false
Boxcar width: 0
XAxis mode: Raman Shifts
Number of Pixels in Spectrum: 1044
>>>>>Begin Spectral Data<<<<<
160.701	6.75
166.742	19.75
172.777	71.75
178.805	208.75
184.826	645.75
190.841	1539.75
196.849	2855.75
202.85	4063.75
208.845	4677.75
214.833	4727.75
220.815	4545.75
226.789	4361.75
232.758	4263.75
238.719	4159.75
244.674	4022.75
250.623	3896.75
256.565	3706.75
262.5	3530.75
268.429	3396.75
274.351	3246.75
280.267	3122.75
286.176	3018.75
292.079	2902.75
297.975	2826.75
303.865	2718.75
309.748	2646.75
315.625	2571.75
321.495	2501.75
327.359	2459.75
333.217	2418.75
339.068	2396.75
344.912	2388.75
350.751	2389.75
356.583	2353.75
362.408	2358.75
368.227	2347.75
374.04	2344.75
379.847	2367.75
385.647	2370.75
391.44	2395.75
397.228	2397.75
403.009	2417.75
408.784	2428.75
414.553	2447.75
420.315	2453.75
426.071	2446.75
431.821	2452.75
437.565	2454.75
443.302	2462.75
449.033	2455.75
454.758	2415.75
460.477	2454.75
466.189	2433.75
471.896	2416.75
477.596	2408.75
483.29	2401.75
488.978	2396.75
494.66	2389.75
500.335	2357.75
506.005	2345.75
511.668	2296.75
517.325	2264.75
522.977	2239.75
528.622	2220.75
534.261	2184.75
539.894	2181.75
545.521	2157.75
551.141	2133.75
556.756	2141.75
562.365	2125.75
567.968	2116.75
573.565	2098.75
579.155	2109.75
584.74	2097.75
590.319	2068.75
595.892	2062.75
601.459	2069.75
607.02	2043.75
612.575	2020.75
618.124	2008.75
623.667	2000.75
629.204	1973.75
634.735	1955.75
640.261	1965.75
645.781	1948.75
651.294	1934.75
656.802	1940.75
662.304	1927.75
667.8	1908.75
673.29	1926.75
678.775	1904.75
684.254	1912.75
689.726	1898.75
695.193	1901.75
700.655	1878.75
706.11	1863.75
711.56	1857.75
717.004	1844.75
722.442	1858.75
727.874	1834.75
733.301	1813.75
738.722	1817.75
744.137	1796.75
749.547	1813.75
754.951	1787.75
760.349	1796.75
765.741	1793.75
771.128	1801.75
776.509	1817.75
781.885	1811.75
787.254	1806.75
792.618	1818.75
797.977	1780.75
803.33	1787.75
808.677	1765.75
814.019	1734.75
819.355	1735.75
824.686	1703.75
830.011	1707.75
835.33	1706.75
840.644	1704.75
845.952	1704.75
851.255	1681.75
856.552	1697.75
861.844	1676.75
867.13	1690.75
872.41	1679.75
877.686	1666.75
882.955	1678.75
888.219	1635.75
893.478	1610.75
898.731	1613.75
903.979	1580.75
909.221	1555.75
914.458	1559.75
919.69	1547.75
924.916	1534.75
930.136	1540.75
935.351	1539.75
940.561	1529.75
945.766	1556.75
950.965	1511.75
956.158	1520.75
961.347	1506.75
966.529	1483.75
971.707	1476.75
976.879	1468.75
982.046	1450.75
987.208	1441.75
992.364	1443.75
997.515	1435.75
1002.66	1437.75
1007.801	1454.75
1012.936	1470.75
1018.066	1477.75
1023.19	1503.75
1028.309	1502.75
1033.423	1491.75
1038.532	1496.75
1043.636	1469.75
1048.734	1450.75
1053.827	1463.75
1058.915	1434.75
1063.998	1452.75
1069.075	1443.75
1074.147	1437.75
1079.214	1441.75
1084.276	1445.75
1089.333	1473.75
1094.385	1471.75
1099.431	1465.75
1104.472	1483.75
1109.509	1459.75
1114.54	1471.75
1119.565	1455.75
1124.586	1453.75
1129.602	1432.75
1134.613	1417.75
1139.618	1418.75
1144.619	1408.75
1149.614	1419.75
1154.604	1415.75
1159.589	1436.75
1164.57	1432.75
1169.545	1442.75
1174.515	1425.75
1179.48	1434.75
1184.44	1426.75
1189.395	1427.75
1194.345	1419.75
1199.29	1421.75
1204.23	1406.75
1209.165	1419.75
1214.095	1427.75
1219.021	1434.75
1223.941	1449.75
1228.856	1470.75
1233.766	1468.75
1238.672	1467.75
1243.572	1472.75
1248.467	1458.75
1253.358	1467.75
1258.244	1456.75
1263.124	1414.75
1268	1417.75
1272.871	1370.75
1277.737	1355.75
1282.599	1367.75
1287.455	1369.75
1292.306	1376.75
1297.153	1389.75
1301.995	1384.75
1306.832	1411.75
1311.664	1404.75
1316.491	1405.75
1321.314	1420.75
1326.132	1401.75
1330.945	1395.75
1335.753	1381.75
1340.556	1364.75
1345.354	1356.75
1350.148	1357.75
1354.937	1346.75
1359.722	1325.75
1364.501	1324.75
1369.276	1302.75
1374.046	1301.75
1378.811	1276.75
1383.572	1281.75
1388.327	1276.75
1393.079	1283.75
1397.825	1263.75
1402.567	1265.75
1407.304	1251.75
1412.036	1259.75
1416.764	1239.75
1421.487	1256.75
1426.205	1250.75
1430.919	1263.75
1435.628	1267.75
1440.333	1280.75
1445.032	1280.75
1449.727	1309.75
1454.418	1319.75
1459.104	1315.75
1463.785	1299.75
1468.462	1311.75
1473.134	1305.75
1477.802	1277.75
1482.465	1254.75
1487.123	1251.75
1491.777	1258.75
1496.426	1252.75
1501.071	1258.75
1505.711	1262.75
1510.347	1285.75
1514.978	1303.75
1519.604	1307.75
1524.226	1311.75
1528.844	1314.75
1533.457	1315.75
1538.065	1304.75
1542.669	1296.75
1547.269	1307.75
1551.864	1298.75
1556.454	1314.75
1561.041	1317.75
1565.622	1312.75
1570.199	1330.75
1574.772	1358.75
1579.34	1361.75
1583.904	1410.75
1588.464	1398.75
1593.019	1433.75
1597.569	1448.75
1602.115	1448.75
1606.657	1452.75
1611.195	1451.75
1615.728	1479.75
1620.256	1474.75
1624.78	1504.75
1629.3	1512.75
1633.816	1522.75
1638.327	1530.75
1642.834	1566.75
1647.336	1582.75
1651.834	1587.75
1656.328	1598.75
1660.817	1596.75
1665.302	1578.75
1669.783	1550.75
1674.259	1534.75
1678.732	1488.75
1683.199	1435.75
1687.663	1418.75
1692.122	1376.75
1696.577	1341.75
1701.028	1283.75
1705.474	1222.75
1709.917	1187.75
1714.355	1167.75
1718.788	1146.75
1723.218	1141.75
1727.643	1134.75
1732.064	1113.75
1736.481	1110.75
1740.893	1078.75
1745.301	1050.75
1749.705	1040.75
1754.105	1001.75
1758.501	993.75
1762.893	971.75
1767.28	970.75
1771.663	939.75
1776.042	950.75
1780.417	939.75
1784.787	954.75
1789.154	948.75
1793.516	959.75
1797.874	945.75
1802.228	931.75
1806.578	928.75
1810.924	926.75
1815.266	902.75
1819.603	908.75
1823.937	881.75
1828.266	893.75
1832.591	864.75
1836.913	867.75
1841.23	852.75
1845.543	869.75
1849.852	871.75
1854.156	875.75
1858.457	871.75
1862.754	877.75
1867.047	874.75
1871.335	865.75
1875.62	881.75
1879.9	898.75
1884.177	890.75
1888.449	880.75
1892.718	879.75
1896.982	874.75
1901.243	860.75
1905.499	875.75
1909.752	863.75
1914	864.75
1918.245	864.75
1922.485	879.75
1926.722	867.75
1930.954	876.75
1935.183	864.75
1939.408	875.75
1943.628	877.75
1947.845	872.75
1952.058	869.75
1956.267	863.75
1960.472	850.75
1964.673	852.75
1968.87	859.75
1973.063	830.75
1977.252	819.75
1981.438	832.75
1985.619	830.75
1989.797	825.75
1993.971	827.75
1998.14	818.75
2002.306	834.75
2006.469	845.75
2010.627	837.75
2014.781	840.75
2018.932	843.75
2023.078	836.75
2027.221	835.75
2031.36	840.75
2035.495	820.75
2039.627	833.75
2043.754	818.75
2047.878	816.75
2051.998	803.75
2056.114	798.75
2060.226	807.75
2064.334	812.75
2068.439	818.75
2072.54	815.75
2076.637	818.75
2080.73	815.75
2084.82	823.75
2088.906	829.75
2092.988	819.75
2097.066	839.75
2101.14	824.75
2105.211	802.75
2109.278	817.75
2113.342	808.75
2117.401	796.75
2121.457	813.75
2125.509	816.75
2129.558	779.75
2133.602	805.75
2137.643	794.75
2141.681	786.75
2145.714	786.75
2149.744	782.75
2153.77	776.75
2157.793	776.75
2161.812	758.75
2165.827	763.75
2169.838	762.75
2173.846	739.75
2177.851	727.75
2181.851	736.75
2185.848	714.75
2189.841	710.75
2193.831	715.75
2197.817	697.75
2201.799	703.75
2205.778	705.75
2209.753	706.75
2213.725	705.75
2217.693	696.75
2221.657	703.75
2225.618	693.75
2229.575	691.75
2233.529	698.75
2237.479	685.75
2241.425	692.75
2245.368	682.75
2249.307	660.75
2253.243	648.75
2257.175	662.75
2261.104	642.75
2265.029	629.75
2268.95	629.75
2272.868	630.75
2276.783	623.75
2280.694	615.75
2284.601	612.75
2288.505	602.75
2292.405	603.75
2296.302	594.75
2300.195	580.75
2304.085	573.75
2307.971	576.75
2311.854	562.75
2315.734	543.75
2319.609	547.75
2323.482	539.75
2327.351	533.75
2331.216	534.75
2335.078	529.75
2338.937	521.75
2342.792	523.75
2346.643	527.75
2350.492	528.75
2354.336	523.75
2358.178	521.75
2362.015	512.75
2365.85	518.75
2369.681	525.75
2373.508	515.75
2377.333	531.75
2381.153	533.75
2384.971	525.75
2388.785	525.75
2392.595	521.75
2396.402	521.75
2400.206	517.75
2404.007	514.75
2407.804	513.75
2411.597	516.75
2415.388	510.75
2419.174	505.75
2422.958	500.75
2426.738	508.75
2430.515	507.75
2434.289	503.75
2438.059	491.75
2441.825	493.75
2445.589	490.75
2449.349	487.75
2453.106	485.75
2456.859	487.75
2460.61	484.75
2464.356	480.75
2468.1	470.75
2471.84	468.75
2475.577	469.75
2479.311	471.75
2483.041	471.75
2486.768	467.75
2490.492	462.75
2494.213	473.75
2497.93	464.75
2501.644	464.75
2505.355	464.75
2509.062	456.75
2512.766	467.75
2516.467	454.75
2520.165	461.75
2523.859	448.75
2527.551	449.75
2531.239	448.75
2534.923	440.75
2538.605	436.75
2542.283	443.75
2545.958	440.75
2549.63	433.75
2553.299	438.75
2556.964	422.75
2560.626	431.75
2564.285	425.75
2567.941	426.75
2571.594	409.75
2575.243	426.75
2578.89	411.75
2582.533	416.75
2586.173	407.75
2589.809	416.75
2593.443	405.75
2597.073	397.75
2600.701	403.75
2604.325	402.75
2607.946	394.75
2611.564	394.75
2615.178	393.75
2618.79	405.75
2622.398	391.75
2626.004	395.75
2629.606	384.75
2633.205	390.75
2636.801	395.75
2640.394	379.75
2643.983	380.75
2647.57	370.75
2651.153	368.75
2654.734	363.75
2658.311	365.75
2661.885	353.75
2665.456	355.75
2669.025	345.75
2672.589	348.75
2676.151	356.75
2679.71	356.75
2683.266	347.75
2686.819	345.75
2690.368	344.75
2693.915	334.75
2697.458	335.75
2700.999	332.75
2704.536	332.75
2708.071	322.75
2711.602	330.75
2715.13	332.75
2718.656	320.75
2722.178	320.75
2725.697	316.75
2729.214	315.75
2732.727	325.75
2736.237	320.75
2739.744	322.75
2743.249	318.75
2746.75	318.75
2750.248	318.75
2753.743	315.75
2757.236	313.75
2760.725	311.75
2764.211	310.75
2767.695	311.75
2771.175	308.75
2774.652	306.75
2778.127	302.75
2781.598	305.75
2785.067	298.75
2788.532	301.75
2791.995	295.75
2795.455	307.75
2798.911	296.75
2802.365	304.75
2805.816	305.75
2809.264	311.75
2812.709	307.75
2816.151	299.75
2819.59	305.75
2823.026	300.75
2826.46	303.75
2829.89	307.75
2833.318	317.75
2836.742	309.75
2840.164	305.75
2843.583	305.75
2846.999	308.75
2850.412	309.75
2853.822	314.75
2857.229	312.75
2860.634	321.75
2864.035	323.75
2867.434	320.75
2870.83	332.75
2874.223	329.75
2877.613	333.75
2881	328.75
2884.385	345.75
2887.766	331.75
2891.145	329.75
2894.521	326.75
2897.894	332.75
2901.264	332.75
2904.631	327.75
2907.996	340.75
2911.358	337.75
2914.717	329.75
2918.073	339.75
2921.426	336.75
2924.777	348.75
2928.124	359.75
2931.469	356.75
2934.811	351.75
2938.15	360.75
2941.487	360.75
2944.821	359.75
2948.152	376.75
2951.48	375.75
2954.805	387.75
2958.128	381.75
2961.447	382.75
2964.765	385.75
2968.079	396.75
2971.39	397.75
2974.699	402.75
2978.005	410.75
2981.308	414.75
2984.609	434.75
2987.907	437.75
2991.202	437.75
2994.494	460.75
2997.784	465.75
3001.07	475.75
3004.355	484.75
3007.636	492.75
3010.915	503.75
3014.191	511.75
3017.464	522.75
3020.734	519.75
3024.002	541.75
3027.267	530.75
3030.53	539.75
3033.789	563.75
3037.046	564.75
3040.301	586.75
3043.552	583.75
3046.801	597.75
3050.048	599.75
3053.291	634.75
3056.532	636.75
3059.771	654.75
3063.006	667.75
3066.239	686.75
3069.469	713.75
3072.697	724.75
3075.922	760.75
3079.144	760.75
3082.364	788.75
3085.581	787.75
3088.795	820.75
3092.007	831.75
3095.216	853.75
3098.423	855.75
3101.627	881.75
3104.828	897.75
3108.026	913.75
3111.222	934.75
3114.416	961.75
3117.607	972.75
3120.795	1000.75
3123.98	1010.75
3127.163	1044.75
3130.344	1051.75
3133.521	1074.75
3136.696	1109.75
3139.869	1114.75
3143.039	1148.75
3146.206	1161.75
3149.371	1163.75
3152.533	1180.75
3155.693	1170.75
3158.85	1197.75
3162.005	1204.75
3165.157	1204.75
3168.306	1216.75
3171.453	1204.75
3174.597	1214.75
3177.739	1224.75
3180.878	1222.75
3184.014	1228.75
3187.149	1225.75
3190.28	1233.75
3193.409	1230.75
3196.536	1235.75
3199.659	1244.75
3202.781	1247.75
3205.9	1244.75
3209.016	1240.75
3212.13	1238.75
3215.241	1227.75
3218.35	1235.75
3221.456	1220.75
3224.56	1202.75
3227.661	1202.75
3230.76	1177.75
3233.856	1172.75
3236.95	1160.75
3240.041	1143.75
3243.13	1136.75
3246.216	1130.75
3249.3	1131.75
3252.382	1116.75
3255.46	1097.75
3258.537	1110.75
3261.611	1092.75
3264.682	1090.75
3267.751	1088.75
3270.818	1089.75
3273.882	1080.75
3276.943	1067.75
3280.002	1050.75
3283.059	1048.75
3286.113	1056.75
3289.165	1031.75
3292.214	1014.75
3295.261	1001.75
3298.306	989.75
3301.348	967.75
3304.387	963.75
3307.425	959.75
3310.459	933.75
3313.492	917.75
3316.521	916.75
3319.549	903.75
3322.574	884.75
3325.597	888.75
3328.617	888.75
3331.635	875.75
3334.65	867.75
3337.663	872.75
3340.674	861.75
3343.682	854.75
3346.688	847.75
3349.691	831.75
3352.692	835.75
3355.691	835.75
3358.687	833.75
3361.681	830.75
3364.673	815.75
3367.662	811.75
3370.649	788.75
3373.633	767.75
3376.615	764.75
3379.595	756.75
3382.572	760.75
3385.547	747.75
3388.52	734.75
3391.49	726.75
3394.458	721.75
3397.424	695.75
3400.387	693.75
3403.348	670.75
3406.307	682.75
3409.263	663.75
3412.217	661.75
3415.168	649.75
3418.118	659.75
3421.065	642.75
3424.009	638.75
3426.951	620.75
3429.891	618.75
3432.829	599.75
3435.764	585.75
3438.697	584.75
3441.628	579.75
3444.557	569.75
3447.483	546.75
3450.407	533.75
3453.328	524.75
3456.247	504.75
3459.164	496.75
3462.079	487.75
3464.991	476.75
3467.902	461.75
3470.809	439.75
3473.715	419.75
3476.618	417.75
3479.519	406.75
3482.418	396.75
3485.315	383.75
3488.209	370.75
3491.101	368.75
3493.99	347.75
3496.878	338.75
3499.763	336.75
3502.646	317.75
3505.527	305.75
3508.405	295.75
3511.281	288.75
3514.155	279.75
3517.027	270.75
3519.897	258.75
3522.764	250.75
3525.629	241.75
3528.492	226.75
3531.352	219.75
3534.211	210.75
3537.067	188.75
3539.921	182.75
3542.773	178.75
3545.622	159.75
3548.469	161.75
3551.315	149.75
3554.157	135.75
3556.998	132.75
3559.837	129.75
3562.673	125.75
3565.507	122.75
3568.339	106.75
3571.169	111.75
3573.996	94.75
3576.822	97.75
3579.645	84.75
3582.466	84.75
3585.285	87.75
3588.101	73.75
3590.916	70.75
3593.728	62.75
3596.538	58.75
3599.346	58.75
3602.152	50.75
3604.956	46.75
3607.757	40.75
3610.556	36.75
3613.354	38.75
3616.149	29.75
3618.942	27.75
3621.732	26.75
3624.521	22.75
3627.307	18.75
3630.092	10.75
3632.874	13.75
3635.654	11.75
3638.432	10.75
3641.208	6.75
3643.982	4.75
3646.753	2.75
3649.523	0.75
3652.29	-2.25
3655.055	-9.25
3657.818	-8.25
3660.579	-11.25
3663.338	-12.25
3666.095	-15.25
3668.849	-21.25
3671.602	-20.25
3674.352	-27.25
3677.101	-26.25
3679.847	-28.25
3682.591	-28.25
3685.333	-31.25
3688.073	-32.25
3690.811	-32.25
3693.547	-30.25
3696.281	-37.25
3699.013	-40.25
3701.742	-40.25
3704.47	-39.25
3707.195	-37.25
3709.919	-42.25
3712.64	-45.25
3715.359	-40.25
3718.076	-46.25
3720.792	-50.25
3723.505	-47.25
3726.216	-49.25
3728.925	-47.25
3731.632	-50.25
3734.336	-49.25
3737.039	-49.25
3739.74	-49.25
3742.439	-53.25
3745.136	-53.25
3747.83	-52.25
3750.523	-54.25
3753.213	-54.25
3755.902	-55.25
3758.589	-54.25
3761.273	-54.25
3763.956	-52.25
3766.636	-56.25
3769.315	-55.25
3771.991	-59.25
3774.665	-58.25
3777.338	-59.25
3780.008	-55.25
3782.677	-56.25
3785.343	-55.25
3788.007	-61.25
3790.67	-60.25
3793.33	-64.25
3795.989	-62.25
3798.645	-61.25
3801.299	-60.25
3803.952	-59.25
3806.602	-57.25
3809.251	-63.25
3811.897	-61.25
3814.542	-64.25
3817.184	-60.25
3819.825	-65.25
3822.463	-61.25
3825.1	-66.25
3827.735	-62.25
3830.367	-66.25
3832.998	-63.25
3835.627	-66.25
3838.253	-67.25
3840.878	-69.25
3843.501	-65.25
3846.122	-65.25
3848.741	-68.25
3851.358	-68.25
3853.973	-62.25
3856.586	-64.25
3859.197	-66.25
3861.806	-70.25
3864.414	-70.25
3867.019	-72.25
3869.622	-61.25
3872.224	-66.25
3874.823	-67.25
3877.421	-64.25
3880.016	-68.25
3882.61	-65.25
3885.202	-61.25
3887.792	-64.25
3890.38	-63.25
3892.966	-64.25
3895.55	-66.25
3898.132	-70.25
3900.713	-68.25
3903.291	-72.25
3905.868	-70.25
3908.442	-71.25
3911.015	-73.25
3913.586	-73.25
3916.155	-67.25
3918.722	-68.25
3921.287	-66.25
3923.85	-73.25
3926.411	-67.25
3928.971	-70.25
3931.528	-73.25
3934.084	-74.25
3936.638	-76.25
3939.19	-74.25
3941.74	-70.25
3944.288	-72.25
3946.834	-70.25
3949.378	-70.25
3951.921	-71.25
3954.462	-72.25
3957	-72.25
3959.537	-72.25
3962.072	-74.25
3964.606	-71.25
3967.137	-70.25
3969.667	-70.25
3972.194	-70.25
3974.72	-73.25
3977.244	-66.25
3979.766	-73.25
3982.286	-67.25
3984.805	-73.25
3987.321	-69.25
3989.836	-71.25
3992.349	-70.25
3994.86	-68.25
3997.369	-65.25
3999.877	-71.25
4002.382	-71.25
4004.886	-71.25
4007.388	-72.25
4009.888	-68.25
4012.386	-63.25
4014.883	-69.25
4017.377	-70.25
4019.87	-70.25
4022.361	-69.25
4024.85	-73.25
4027.338	-71.25
4029.823	-64.25
4032.307	-64.25
4034.789	-66.25
4037.269	-69.25
4039.747	-74.25
4042.224	-73.25
4044.699	-70.25
4047.172	-73.25
4049.643	-71.25
4052.112	-67.25
4054.58	-72.25
4057.046	-69.25
4059.51	-71.25
4061.972	-69.25
4064.432	-71.25
4066.891	-73.25
4069.348	-74.25
4071.803	-71.25
4074.256	-73.25
4076.708	-75.25
4079.158	-73.25
4081.606	-67.25
4084.052	-70.25
4086.497	-72.25
4088.939	-73.25
4091.38	-71.25
4093.819	-70.25
4096.257	-76.25
4098.693	-74.25
4101.127	-73.25
4103.559	-75.25
4105.989	-21.25
4108.418	-19.25
4110.845	-20.25
4113.27	-16.25
4115.694	-11.25
4118.115	-6.25
4120.535	-71.25
4122.954	-71.25
4125.37	-70.25
4127.785	-72.25
4130.198	-71.25
4132.609	-76.25
4135.019	-78.25
4137.427	-74.25
4139.833	-77.25
4142.237	-77.25
