Data from 1000CFU2_B_ramanshift_RamanShift_14-56-37-714.txt Node
Date: Sun Dec 25 14:56:37 IST 2016
User: aro
Spectrometer: QEPB0276
Trigger mode: 0
Integration Time (sec): 5.000000E0
Scans to average: 1
Electric dark correction enabled: true
Nonlinearity correction enabled: false
Boxcar width: 0
XAxis mode: Raman Shifts
Number of Pixels in Spectrum: 1044
>>>>>Begin Spectral Data<<<<<
160.701	1.88
166.742	24.88
172.777	66.88
178.805	208.88
184.826	633.88
190.841	1521.88
196.849	2819.88
202.85	4028.88
208.845	4618.88
214.833	4651.88
220.815	4478.88
226.789	4290.88
232.758	4194.88
238.719	4067.88
244.674	3942.88
250.623	3781.88
256.565	3579.88
262.5	3440.88
268.429	3245.88
274.351	3129.88
280.267	3029.88
286.176	2894.88
292.079	2790.88
297.975	2700.88
303.865	2581.88
309.748	2504.88
315.625	2440.88
321.495	2385.88
327.359	2336.88
333.217	2292.88
339.068	2286.88
344.912	2272.88
350.751	2239.88
356.583	2239.88
362.408	2220.88
368.227	2216.88
374.04	2244.88
379.847	2255.88
385.647	2262.88
391.44	2279.88
397.228	2279.88
403.009	2305.88
408.784	2309.88
414.553	2315.88
420.315	2323.88
426.071	2333.88
431.821	2326.88
437.565	2321.88
443.302	2329.88
449.033	2319.88
454.758	2311.88
460.477	2295.88
466.189	2290.88
471.896	2290.88
477.596	2294.88
483.29	2263.88
488.978	2257.88
494.66	2261.88
500.335	2240.88
506.005	2204.88
511.668	2164.88
517.325	2109.88
522.977	2087.88
528.622	2052.88
534.261	2033.88
539.894	2024.88
545.521	2010.88
551.141	1968.88
556.756	1969.88
562.365	1969.88
567.968	1954.88
573.565	1944.88
579.155	1930.88
584.74	1929.88
590.319	1909.88
595.892	1900.88
601.459	1876.88
607.02	1880.88
612.575	1859.88
618.124	1837.88
623.667	1834.88
629.204	1811.88
634.735	1789.88
640.261	1793.88
645.781	1783.88
651.294	1764.88
656.802	1751.88
662.304	1736.88
667.8	1734.88
673.29	1715.88
678.775	1729.88
684.254	1730.88
689.726	1718.88
695.193	1708.88
700.655	1692.88
706.11	1677.88
711.56	1670.88
717.004	1650.88
722.442	1651.88
727.874	1642.88
733.301	1647.88
738.722	1621.88
744.137	1618.88
749.547	1634.88
754.951	1618.88
760.349	1608.88
765.741	1617.88
771.128	1598.88
776.509	1611.88
781.885	1618.88
787.254	1608.88
792.618	1611.88
797.977	1611.88
803.33	1566.88
808.677	1560.88
814.019	1557.88
819.355	1546.88
824.686	1530.88
830.011	1514.88
835.33	1517.88
840.644	1487.88
845.952	1508.88
851.255	1481.88
856.552	1483.88
861.844	1488.88
867.13	1487.88
872.41	1465.88
877.686	1473.88
882.955	1469.88
888.219	1449.88
893.478	1419.88
898.731	1392.88
903.979	1350.88
909.221	1354.88
914.458	1338.88
919.69	1321.88
924.916	1300.88
930.136	1314.88
935.351	1319.88
940.561	1303.88
945.766	1310.88
950.965	1318.88
956.158	1292.88
961.347	1279.88
966.529	1276.88
971.707	1250.88
976.879	1238.88
982.046	1227.88
987.208	1201.88
992.364	1187.88
997.515	1209.88
1002.66	1203.88
1007.801	1219.88
1012.936	1241.88
1018.066	1247.88
1023.19	1254.88
1028.309	1251.88
1033.423	1259.88
1038.532	1254.88
1043.636	1261.88
1048.734	1239.88
1053.827	1222.88
1058.915	1230.88
1063.998	1199.88
1069.075	1191.88
1074.147	1202.88
1079.214	1200.88
1084.276	1226.88
1089.333	1218.88
1094.385	1235.88
1099.431	1229.88
1104.472	1229.88
1109.509	1237.88
1114.54	1235.88
1119.565	1222.88
1124.586	1196.88
1129.602	1197.88
1134.613	1176.88
1139.618	1158.88
1144.619	1185.88
1149.614	1160.88
1154.604	1190.88
1159.589	1172.88
1164.57	1172.88
1169.545	1183.88
1174.515	1192.88
1179.48	1188.88
1184.44	1184.88
1189.395	1172.88
1194.345	1178.88
1199.29	1168.88
1204.23	1162.88
1209.165	1156.88
1214.095	1166.88
1219.021	1160.88
1223.941	1189.88
1228.856	1197.88
1233.766	1205.88
1238.672	1197.88
1243.572	1195.88
1248.467	1192.88
1253.358	1186.88
1258.244	1180.88
1263.124	1168.88
1268	1149.88
1272.871	1139.88
1277.737	1130.88
1282.599	1109.88
1287.455	1115.88
1292.306	1124.88
1297.153	1122.88
1301.995	1128.88
1306.832	1136.88
1311.664	1155.88
1316.491	1168.88
1321.314	1136.88
1326.132	1154.88
1330.945	1148.88
1335.753	1133.88
1340.556	1116.88
1345.354	1098.88
1350.148	1092.88
1354.937	1075.88
1359.722	1081.88
1364.501	1068.88
1369.276	1050.88
1374.046	1041.88
1378.811	1028.88
1383.572	1028.88
1388.327	1029.88
1393.079	1028.88
1397.825	1034.88
1402.567	1024.88
1407.304	1001.88
1412.036	1002.88
1416.764	1009.88
1421.487	1004.88
1426.205	1020.88
1430.919	1004.88
1435.628	1030.88
1440.333	1038.88
1445.032	1044.88
1449.727	1057.88
1454.418	1054.88
1459.104	1065.88
1463.785	1083.88
1468.462	1056.88
1473.134	1049.88
1477.802	1043.88
1482.465	1019.88
1487.123	1007.88
1491.777	1022.88
1496.426	1012.88
1501.071	1029.88
1505.711	1016.88
1510.347	1030.88
1514.978	1057.88
1519.604	1052.88
1524.226	1053.88
1528.844	1061.88
1533.457	1050.88
1538.065	1052.88
1542.669	1052.88
1547.269	1053.88
1551.864	1054.88
1556.454	1045.88
1561.041	1061.88
1565.622	1096.88
1570.199	1085.88
1574.772	1107.88
1579.34	1133.88
1583.904	1145.88
1588.464	1154.88
1593.019	1178.88
1597.569	1202.88
1602.115	1195.88
1606.657	1209.88
1611.195	1240.88
1615.728	1230.88
1620.256	1241.88
1624.78	1255.88
1629.3	1268.88
1633.816	1305.88
1638.327	1311.88
1642.834	1337.88
1647.336	1351.88
1651.834	1350.88
1656.328	1351.88
1660.817	1348.88
1665.302	1326.88
1669.783	1305.88
1674.259	1285.88
1678.732	1243.88
1683.199	1202.88
1687.663	1176.88
1692.122	1141.88
1696.577	1092.88
1701.028	1051.88
1705.474	990.88
1709.917	959.88
1714.355	929.88
1718.788	928.88
1723.218	921.88
1727.643	904.88
1732.064	888.88
1736.481	862.88
1740.893	830.88
1745.301	818.88
1749.705	789.88
1754.105	786.88
1758.501	758.88
1762.893	743.88
1767.28	741.88
1771.663	738.88
1776.042	726.88
1780.417	718.88
1784.787	708.88
1789.154	718.88
1793.516	729.88
1797.874	719.88
1802.228	717.88
1806.578	707.88
1810.924	680.88
1815.266	682.88
1819.603	672.88
1823.937	673.88
1828.266	671.88
1832.591	650.88
1836.913	650.88
1841.23	648.88
1845.543	646.88
1849.852	646.88
1854.156	646.88
1858.457	650.88
1862.754	642.88
1867.047	650.88
1871.335	652.88
1875.62	664.88
1879.9	671.88
1884.177	668.88
1888.449	668.88
1892.718	657.88
1896.982	660.88
1901.243	655.88
1905.499	646.88
1909.752	654.88
1914	657.88
1918.245	652.88
1922.485	654.88
1926.722	650.88
1930.954	644.88
1935.183	647.88
1939.408	658.88
1943.628	658.88
1947.845	658.88
1952.058	647.88
1956.267	652.88
1960.472	641.88
1964.673	643.88
1968.87	635.88
1973.063	625.88
1977.252	624.88
1981.438	622.88
1985.619	621.88
1989.797	621.88
1993.971	622.88
1998.14	628.88
2002.306	632.88
2006.469	632.88
2010.627	631.88
2014.781	627.88
2018.932	639.88
2023.078	640.88
2027.221	630.88
2031.36	626.88
2035.495	620.88
2039.627	627.88
2043.754	618.88
2047.878	626.88
2051.998	608.88
2056.114	624.88
2060.226	612.88
2064.334	615.88
2068.439	621.88
2072.54	626.88
2076.637	628.88
2080.73	630.88
2084.82	628.88
2088.906	641.88
2092.988	647.88
2097.066	638.88
2101.14	632.88
2105.211	630.88
2109.278	620.88
2113.342	619.88
2117.401	606.88
2121.457	617.88
2125.509	617.88
2129.558	613.88
2133.602	608.88
2137.643	602.88
2141.681	604.88
2145.714	607.88
2149.744	610.88
2153.77	602.88
2157.793	615.88
2161.812	603.88
2165.827	579.88
2169.838	583.88
2173.846	568.88
2177.851	568.88
2181.851	552.88
2185.848	547.88
2189.841	547.88
2193.831	544.88
2197.817	535.88
2201.799	531.88
2205.778	531.88
2209.753	524.88
2213.725	542.88
2217.693	525.88
2221.657	533.88
2225.618	531.88
2229.575	520.88
2233.529	530.88
2237.479	524.88
2241.425	512.88
2245.368	508.88
2249.307	504.88
2253.243	494.88
2257.175	494.88
2261.104	485.88
2265.029	474.88
2268.95	464.88
2272.868	470.88
2276.783	462.88
2280.694	460.88
2284.601	460.88
2288.505	441.88
2292.405	456.88
2296.302	439.88
2300.195	439.88
2304.085	426.88
2307.971	414.88
2311.854	405.88
2315.734	414.88
2319.609	407.88
2323.482	397.88
2327.351	391.88
2331.216	397.88
2335.078	398.88
2338.937	383.88
2342.792	392.88
2346.643	373.88
2350.492	380.88
2354.336	381.88
2358.178	384.88
2362.015	385.88
2365.85	388.88
2369.681	376.88
2373.508	383.88
2377.333	389.88
2381.153	387.88
2384.971	392.88
2388.785	380.88
2392.595	384.88
2396.402	383.88
2400.206	378.88
2404.007	378.88
2407.804	367.88
2411.597	370.88
2415.388	365.88
2419.174	364.88
2422.958	364.88
2426.738	365.88
2430.515	363.88
2434.289	371.88
2438.059	364.88
2441.825	362.88
2445.589	356.88
2449.349	355.88
2453.106	360.88
2456.859	351.88
2460.61	356.88
2464.356	352.88
2468.1	341.88
2471.84	344.88
2475.577	341.88
2479.311	338.88
2483.041	337.88
2486.768	337.88
2490.492	348.88
2494.213	342.88
2497.93	339.88
2501.644	338.88
2505.355	343.88
2509.062	339.88
2512.766	334.88
2516.467	325.88
2520.165	326.88
2523.859	331.88
2527.551	332.88
2531.239	322.88
2534.923	320.88
2538.605	325.88
2542.283	323.88
2545.958	306.88
2549.63	310.88
2553.299	315.88
2556.964	306.88
2560.626	312.88
2564.285	311.88
2567.941	299.88
2571.594	300.88
2575.243	295.88
2578.89	297.88
2582.533	296.88
2586.173	292.88
2589.809	298.88
2593.443	296.88
2597.073	281.88
2600.701	281.88
2604.325	286.88
2607.946	279.88
2611.564	277.88
2615.178	287.88
2618.79	286.88
2622.398	279.88
2626.004	277.88
2629.606	276.88
2633.205	272.88
2636.801	268.88
2640.394	264.88
2643.983	272.88
2647.57	272.88
2651.153	265.88
2654.734	259.88
2658.311	251.88
2661.885	250.88
2665.456	247.88
2669.025	256.88
2672.589	249.88
2676.151	250.88
2679.71	242.88
2683.266	251.88
2686.819	249.88
2690.368	239.88
2693.915	238.88
2697.458	235.88
2700.999	233.88
2704.536	239.88
2708.071	234.88
2711.602	228.88
2715.13	231.88
2718.656	222.88
2722.178	234.88
2725.697	224.88
2729.214	223.88
2732.727	225.88
2736.237	227.88
2739.744	232.88
2743.249	233.88
2746.75	238.88
2750.248	222.88
2753.743	224.88
2757.236	219.88
2760.725	228.88
2764.211	219.88
2767.695	222.88
2771.175	212.88
2774.652	216.88
2778.127	211.88
2781.598	210.88
2785.067	211.88
2788.532	209.88
2791.995	220.88
2795.455	215.88
2798.911	223.88
2802.365	219.88
2805.816	221.88
2809.264	225.88
2812.709	228.88
2816.151	217.88
2819.59	222.88
2823.026	226.88
2826.46	223.88
2829.89	225.88
2833.318	227.88
2836.742	231.88
2840.164	228.88
2843.583	224.88
2846.999	234.88
2850.412	232.88
2853.822	241.88
2857.229	245.88
2860.634	247.88
2864.035	241.88
2867.434	250.88
2870.83	251.88
2874.223	259.88
2877.613	251.88
2881	266.88
2884.385	262.88
2887.766	271.88
2891.145	263.88
2894.521	265.88
2897.894	255.88
2901.264	274.88
2904.631	265.88
2907.996	278.88
2911.358	268.88
2914.717	275.88
2918.073	287.88
2921.426	278.88
2924.777	287.88
2928.124	297.88
2931.469	302.88
2934.811	298.88
2938.15	307.88
2941.487	307.88
2944.821	316.88
2948.152	328.88
2951.48	329.88
2954.805	329.88
2958.128	326.88
2961.447	337.88
2964.765	338.88
2968.079	334.88
2971.39	354.88
2974.699	354.88
2978.005	358.88
2981.308	368.88
2984.609	384.88
2987.907	395.88
2991.202	392.88
2994.494	406.88
2997.784	415.88
3001.07	425.88
3004.355	434.88
3007.636	444.88
3010.915	457.88
3014.191	462.88
3017.464	472.88
3020.734	479.88
3024.002	487.88
3027.267	496.88
3030.53	504.88
3033.789	506.88
3037.046	514.88
3040.301	543.88
3043.552	553.88
3046.801	565.88
3050.048	568.88
3053.291	593.88
3056.532	598.88
3059.771	623.88
3063.006	642.88
3066.239	659.88
3069.469	681.88
3072.697	704.88
3075.922	709.88
3079.144	740.88
3082.364	746.88
3085.581	771.88
3088.795	797.88
3092.007	806.88
3095.216	816.88
3098.423	830.88
3101.627	850.88
3104.828	870.88
3108.026	895.88
3111.222	902.88
3114.416	918.88
3117.607	958.88
3120.795	962.88
3123.98	987.88
3127.163	1021.88
3130.344	1040.88
3133.521	1057.88
3136.696	1088.88
3139.869	1116.88
3143.039	1121.88
3146.206	1144.88
3149.371	1150.88
3152.533	1156.88
3155.693	1172.88
3158.85	1183.88
3162.005	1183.88
3165.157	1206.88
3168.306	1196.88
3171.453	1193.88
3174.597	1206.88
3177.739	1215.88
3180.878	1214.88
3184.014	1218.88
3187.149	1209.88
3190.28	1213.88
3193.409	1229.88
3196.536	1222.88
3199.659	1226.88
3202.781	1229.88
3205.9	1230.88
3209.016	1231.88
3212.13	1222.88
3215.241	1233.88
3218.35	1218.88
3221.456	1204.88
3224.56	1194.88
3227.661	1177.88
3230.76	1172.88
3233.856	1159.88
3236.95	1142.88
3240.041	1122.88
3243.13	1127.88
3246.216	1111.88
3249.3	1125.88
3252.382	1086.88
3255.46	1100.88
3258.537	1088.88
3261.611	1074.88
3264.682	1079.88
3267.751	1063.88
3270.818	1063.88
3273.882	1070.88
3276.943	1051.88
3280.002	1039.88
3283.059	1041.88
3286.113	1023.88
3289.165	1008.88
3292.214	986.88
3295.261	981.88
3298.306	974.88
3301.348	951.88
3304.387	940.88
3307.425	926.88
3310.459	918.88
3313.492	915.88
3316.521	911.88
3319.549	888.88
3322.574	887.88
3325.597	876.88
3328.617	869.88
3331.635	874.88
3334.65	864.88
3337.663	848.88
3340.674	846.88
3343.682	854.88
3346.688	835.88
3349.691	827.88
3352.692	831.88
3355.691	838.88
3358.687	830.88
3361.681	809.88
3364.673	801.88
3367.662	793.88
3370.649	780.88
3373.633	783.88
3376.615	771.88
3379.595	750.88
3382.572	740.88
3385.547	735.88
3388.52	722.88
3391.49	719.88
3394.458	699.88
3397.424	692.88
3400.387	692.88
3403.348	673.88
3406.307	691.88
3409.263	669.88
3412.217	661.88
3415.168	659.88
3418.118	656.88
3421.065	639.88
3424.009	627.88
3426.951	623.88
3429.891	609.88
3432.829	593.88
3435.764	588.88
3438.697	573.88
3441.628	573.88
3444.557	559.88
3447.483	537.88
3450.407	530.88
3453.328	500.88
3456.247	497.88
3459.164	483.88
3462.079	473.88
3464.991	456.88
3467.902	447.88
3470.809	432.88
3473.715	413.88
3476.618	400.88
3479.519	392.88
3482.418	382.88
3485.315	373.88
3488.209	359.88
3491.101	354.88
3493.99	342.88
3496.878	323.88
3499.763	324.88
3502.646	308.88
3505.527	305.88
3508.405	293.88
3511.281	281.88
3514.155	270.88
3517.027	258.88
3519.897	238.88
3522.764	241.88
3525.629	237.88
3528.492	221.88
3531.352	205.88
3534.211	192.88
3537.067	185.88
3539.921	175.88
3542.773	171.88
3545.622	159.88
3548.469	145.88
3551.315	140.88
3554.157	135.88
3556.998	126.88
3559.837	120.88
3562.673	118.88
3565.507	111.88
3568.339	107.88
3571.169	105.88
3573.996	84.88
3576.822	87.88
3579.645	81.88
3582.466	74.88
3585.285	72.88
3588.101	70.88
3590.916	58.88
3593.728	62.88
3596.538	53.88
3599.346	43.88
3602.152	43.88
3604.956	33.88
3607.757	40.88
3610.556	34.88
3613.354	31.88
3616.149	23.88
3618.942	25.88
3621.732	18.88
3624.521	15.88
3627.307	12.88
3630.092	7.88
3632.874	8.88
3635.654	3.88
3638.432	6.88
3641.208	5.88
3643.982	1.88
3646.753	-3.12
3649.523	-1.12
3652.29	-6.12
3655.055	-12.12
3657.818	-11.12
3660.579	-14.12
3663.338	-14.12
3666.095	-16.12
3668.849	-23.12
3671.602	-25.12
3674.352	-28.12
3677.101	-29.12
3679.847	-31.12
3682.591	-33.12
3685.333	-28.12
3688.073	-31.12
3690.811	-33.12
3693.547	-37.12
3696.281	-43.12
3699.013	-42.12
3701.742	-42.12
3704.47	-42.12
3707.195	-39.12
3709.919	-42.12
3712.64	-46.12
3715.359	-45.12
3718.076	-45.12
3720.792	-50.12
3723.505	-48.12
3726.216	-54.12
3728.925	-51.12
3731.632	-52.12
3734.336	-47.12
3737.039	-52.12
3739.74	-54.12
3742.439	-52.12
3745.136	-54.12
3747.83	-55.12
3750.523	-58.12
3753.213	-54.12
3755.902	-57.12
3758.589	-58.12
3761.273	-57.12
3763.956	-54.12
3766.636	-56.12
3769.315	-59.12
3771.991	-62.12
3774.665	-61.12
3777.338	-62.12
3780.008	-59.12
3782.677	-58.12
3785.343	-58.12
3788.007	-63.12
3790.67	-61.12
3793.33	-64.12
3795.989	-62.12
3798.645	-63.12
3801.299	-62.12
3803.952	-61.12
3806.602	-59.12
3809.251	-63.12
3811.897	-67.12
3814.542	-68.12
3817.184	-65.12
3819.825	-66.12
3822.463	-65.12
3825.1	-67.12
3827.735	-67.12
3830.367	-69.12
3832.998	-65.12
3835.627	-66.12
3838.253	-69.12
3840.878	-73.12
3843.501	-68.12
3846.122	-64.12
3848.741	-67.12
3851.358	-71.12
3853.973	-66.12
3856.586	-68.12
3859.197	-68.12
3861.806	-71.12
3864.414	-71.12
3867.019	-70.12
3869.622	-65.12
3872.224	-68.12
3874.823	-68.12
3877.421	-67.12
3880.016	-66.12
3882.61	-66.12
3885.202	-62.12
3887.792	-64.12
3890.38	-63.12
3892.966	-66.12
3895.55	-67.12
3898.132	-71.12
3900.713	-73.12
3903.291	-72.12
3905.868	-73.12
3908.442	-70.12
3911.015	-76.12
3913.586	-71.12
3916.155	-71.12
3918.722	-72.12
3921.287	-69.12
3923.85	-73.12
3926.411	-73.12
3928.971	-73.12
3931.528	-73.12
3934.084	-73.12
3936.638	-73.12
3939.19	-69.12
3941.74	-73.12
3944.288	-72.12
3946.834	-73.12
3949.378	-73.12
3951.921	-72.12
3954.462	-71.12
3957	-69.12
3959.537	-70.12
3962.072	-69.12
3964.606	-70.12
3967.137	-73.12
3969.667	-73.12
3972.194	-76.12
3974.72	-76.12
3977.244	-68.12
3979.766	-71.12
3982.286	-67.12
3984.805	-71.12
3987.321	-73.12
3989.836	-74.12
3992.349	-73.12
3994.86	-69.12
3997.369	-65.12
3999.877	-70.12
4002.382	-68.12
4004.886	-72.12
4007.388	-71.12
4009.888	-67.12
4012.386	-67.12
4014.883	-73.12
4017.377	-72.12
4019.87	-70.12
4022.361	-69.12
4024.85	-70.12
4027.338	-68.12
4029.823	-67.12
4032.307	-67.12
4034.789	-70.12
4037.269	-74.12
4039.747	-76.12
4042.224	-74.12
4044.699	-73.12
4047.172	-72.12
4049.643	-67.12
4052.112	-75.12
4054.58	-73.12
4057.046	-73.12
4059.51	-74.12
4061.972	-69.12
4064.432	-67.12
4066.891	-71.12
4069.348	-70.12
4071.803	-72.12
4074.256	-73.12
4076.708	-76.12
4079.158	-71.12
4081.606	-70.12
4084.052	-70.12
4086.497	-72.12
4088.939	-72.12
4091.38	-74.12
4093.819	-72.12
4096.257	-73.12
4098.693	-73.12
4101.127	-77.12
4103.559	-74.12
4105.989	-25.12
4108.418	-23.12
4110.845	-13.12
4113.27	-16.12
4115.694	-10.12
4118.115	-11.12
4120.535	-74.12
4122.954	-71.12
4125.37	-70.12
4127.785	-72.12
4130.198	-70.12
4132.609	-71.12
4135.019	-75.12
4137.427	-74.12
4139.833	-77.12
4142.237	-76.12
