Data from 1000CFU3_A_ramanshift_RamanShift_14-13-10-492.txt Node
Date: Sun Dec 25 14:13:10 IST 2016
User: aro
Spectrometer: QEPB0276
Trigger mode: 0
Integration Time (sec): 5.000000E0
Scans to average: 1
Electric dark correction enabled: true
Nonlinearity correction enabled: false
Boxcar width: 0
XAxis mode: Raman Shifts
Number of Pixels in Spectrum: 1044
>>>>>Begin Spectral Data<<<<<
160.701	4.62
166.742	19.62
172.777	67.62
178.805	209.62
184.826	630.62
190.841	1514.62
196.849	2805.62
202.85	3999.62
208.845	4607.62
214.833	4616.62
220.815	4481.62
226.789	4311.62
232.758	4226.62
238.719	4132.62
244.674	4002.62
250.623	3845.62
256.565	3717.62
262.5	3529.62
268.429	3398.62
274.351	3247.62
280.267	3123.62
286.176	3024.62
292.079	2943.62
297.975	2822.62
303.865	2741.62
309.748	2672.62
315.625	2600.62
321.495	2531.62
327.359	2498.62
333.217	2463.62
339.068	2420.62
344.912	2416.62
350.751	2406.62
356.583	2393.62
362.408	2403.62
368.227	2389.62
374.04	2404.62
379.847	2414.62
385.647	2413.62
391.44	2428.62
397.228	2430.62
403.009	2464.62
408.784	2478.62
414.553	2488.62
420.315	2485.62
426.071	2473.62
431.821	2503.62
437.565	2489.62
443.302	2489.62
449.033	2489.62
454.758	2469.62
460.477	2488.62
466.189	2465.62
471.896	2461.62
477.596	2447.62
483.29	2430.62
488.978	2417.62
494.66	2428.62
500.335	2418.62
506.005	2380.62
511.668	2339.62
517.325	2307.62
522.977	2285.62
528.622	2274.62
534.261	2224.62
539.894	2219.62
545.521	2196.62
551.141	2203.62
556.756	2172.62
562.365	2181.62
567.968	2164.62
573.565	2141.62
579.155	2116.62
584.74	2109.62
590.319	2116.62
595.892	2098.62
601.459	2094.62
607.02	2083.62
612.575	2071.62
618.124	2045.62
623.667	2049.62
629.204	2017.62
634.735	2014.62
640.261	2004.62
645.781	1980.62
651.294	1962.62
656.802	1973.62
662.304	1957.62
667.8	1943.62
673.29	1952.62
678.775	1954.62
684.254	1946.62
689.726	1939.62
695.193	1920.62
700.655	1929.62
706.11	1899.62
711.56	1892.62
717.004	1877.62
722.442	1875.62
727.874	1869.62
733.301	1867.62
738.722	1843.62
744.137	1838.62
749.547	1823.62
754.951	1852.62
760.349	1845.62
765.741	1823.62
771.128	1830.62
776.509	1835.62
781.885	1826.62
787.254	1828.62
792.618	1836.62
797.977	1844.62
803.33	1816.62
808.677	1792.62
814.019	1796.62
819.355	1749.62
824.686	1762.62
830.011	1743.62
835.33	1746.62
840.644	1749.62
845.952	1726.62
851.255	1726.62
856.552	1716.62
861.844	1732.62
867.13	1700.62
872.41	1716.62
877.686	1714.62
882.955	1689.62
888.219	1686.62
893.478	1664.62
898.731	1623.62
903.979	1623.62
909.221	1580.62
914.458	1563.62
919.69	1555.62
924.916	1560.62
930.136	1570.62
935.351	1568.62
940.561	1567.62
945.766	1558.62
950.965	1564.62
956.158	1543.62
961.347	1549.62
966.529	1496.62
971.707	1490.62
976.879	1471.62
982.046	1454.62
987.208	1453.62
992.364	1464.62
997.515	1449.62
1002.66	1464.62
1007.801	1482.62
1012.936	1495.62
1018.066	1481.62
1023.19	1498.62
1028.309	1530.62
1033.423	1509.62
1038.532	1520.62
1043.636	1505.62
1048.734	1495.62
1053.827	1480.62
1058.915	1473.62
1063.998	1443.62
1069.075	1441.62
1074.147	1455.62
1079.214	1457.62
1084.276	1471.62
1089.333	1463.62
1094.385	1480.62
1099.431	1507.62
1104.472	1495.62
1109.509	1489.62
1114.54	1476.62
1119.565	1460.62
1124.586	1450.62
1129.602	1448.62
1134.613	1425.62
1139.618	1418.62
1144.619	1421.62
1149.614	1401.62
1154.604	1427.62
1159.589	1427.62
1164.57	1438.62
1169.545	1434.62
1174.515	1460.62
1179.48	1432.62
1184.44	1424.62
1189.395	1418.62
1194.345	1415.62
1199.29	1406.62
1204.23	1414.62
1209.165	1420.62
1214.095	1430.62
1219.021	1450.62
1223.941	1452.62
1228.856	1459.62
1233.766	1451.62
1238.672	1450.62
1243.572	1462.62
1248.467	1465.62
1253.358	1444.62
1258.244	1444.62
1263.124	1412.62
1268	1389.62
1272.871	1375.62
1277.737	1388.62
1282.599	1364.62
1287.455	1363.62
1292.306	1366.62
1297.153	1382.62
1301.995	1383.62
1306.832	1403.62
1311.664	1408.62
1316.491	1404.62
1321.314	1413.62
1326.132	1396.62
1330.945	1392.62
1335.753	1387.62
1340.556	1351.62
1345.354	1347.62
1350.148	1335.62
1354.937	1322.62
1359.722	1313.62
1364.501	1317.62
1369.276	1295.62
1374.046	1293.62
1378.811	1284.62
1383.572	1279.62
1388.327	1267.62
1393.079	1270.62
1397.825	1263.62
1402.567	1257.62
1407.304	1242.62
1412.036	1248.62
1416.764	1238.62
1421.487	1246.62
1426.205	1232.62
1430.919	1268.62
1435.628	1264.62
1440.333	1278.62
1445.032	1281.62
1449.727	1292.62
1454.418	1300.62
1459.104	1312.62
1463.785	1310.62
1468.462	1295.62
1473.134	1267.62
1477.802	1263.62
1482.465	1261.62
1487.123	1249.62
1491.777	1247.62
1496.426	1247.62
1501.071	1262.62
1505.711	1266.62
1510.347	1281.62
1514.978	1286.62
1519.604	1298.62
1524.226	1300.62
1528.844	1298.62
1533.457	1300.62
1538.065	1299.62
1542.669	1295.62
1547.269	1290.62
1551.864	1291.62
1556.454	1300.62
1561.041	1307.62
1565.622	1307.62
1570.199	1312.62
1574.772	1321.62
1579.34	1366.62
1583.904	1370.62
1588.464	1382.62
1593.019	1418.62
1597.569	1414.62
1602.115	1417.62
1606.657	1418.62
1611.195	1427.62
1615.728	1451.62
1620.256	1448.62
1624.78	1478.62
1629.3	1499.62
1633.816	1504.62
1638.327	1521.62
1642.834	1538.62
1647.336	1537.62
1651.834	1562.62
1656.328	1570.62
1660.817	1550.62
1665.302	1536.62
1669.783	1526.62
1674.259	1497.62
1678.732	1473.62
1683.199	1427.62
1687.663	1373.62
1692.122	1341.62
1696.577	1316.62
1701.028	1253.62
1705.474	1199.62
1709.917	1168.62
1714.355	1136.62
1718.788	1127.62
1723.218	1121.62
1727.643	1115.62
1732.064	1088.62
1736.481	1073.62
1740.893	1048.62
1745.301	1045.62
1749.705	1007.62
1754.105	981.62
1758.501	963.62
1762.893	954.62
1767.28	944.62
1771.663	924.62
1776.042	925.62
1780.417	911.62
1784.787	908.62
1789.154	918.62
1793.516	919.62
1797.874	896.62
1802.228	913.62
1806.578	897.62
1810.924	885.62
1815.266	879.62
1819.603	863.62
1823.937	864.62
1828.266	854.62
1832.591	846.62
1836.913	835.62
1841.23	840.62
1845.543	836.62
1849.852	828.62
1854.156	849.62
1858.457	846.62
1862.754	839.62
1867.047	855.62
1871.335	841.62
1875.62	853.62
1879.9	854.62
1884.177	849.62
1888.449	855.62
1892.718	841.62
1896.982	836.62
1901.243	832.62
1905.499	843.62
1909.752	832.62
1914	836.62
1918.245	828.62
1922.485	828.62
1926.722	834.62
1930.954	829.62
1935.183	841.62
1939.408	842.62
1943.628	856.62
1947.845	836.62
1952.058	837.62
1956.267	837.62
1960.472	831.62
1964.673	819.62
1968.87	813.62
1973.063	807.62
1977.252	789.62
1981.438	796.62
1985.619	792.62
1989.797	800.62
1993.971	795.62
1998.14	795.62
2002.306	792.62
2006.469	799.62
2010.627	799.62
2014.781	799.62
2018.932	805.62
2023.078	802.62
2027.221	794.62
2031.36	792.62
2035.495	784.62
2039.627	786.62
2043.754	784.62
2047.878	773.62
2051.998	783.62
2056.114	773.62
2060.226	784.62
2064.334	766.62
2068.439	793.62
2072.54	777.62
2076.637	782.62
2080.73	784.62
2084.82	801.62
2088.906	796.62
2092.988	790.62
2097.066	787.62
2101.14	783.62
2105.211	777.62
2109.278	783.62
2113.342	778.62
2117.401	766.62
2121.457	766.62
2125.509	776.62
2129.558	763.62
2133.602	747.62
2137.643	749.62
2141.681	762.62
2145.714	753.62
2149.744	748.62
2153.77	743.62
2157.793	745.62
2161.812	730.62
2165.827	737.62
2169.838	729.62
2173.846	703.62
2177.851	703.62
2181.851	693.62
2185.848	685.62
2189.841	682.62
2193.831	683.62
2197.817	664.62
2201.799	671.62
2205.778	675.62
2209.753	649.62
2213.725	667.62
2217.693	660.62
2221.657	664.62
2225.618	653.62
2229.575	668.62
2233.529	658.62
2237.479	650.62
2241.425	657.62
2245.368	643.62
2249.307	632.62
2253.243	625.62
2257.175	618.62
2261.104	618.62
2265.029	608.62
2268.95	600.62
2272.868	592.62
2276.783	594.62
2280.694	575.62
2284.601	566.62
2288.505	569.62
2292.405	566.62
2296.302	560.62
2300.195	549.62
2304.085	554.62
2307.971	527.62
2311.854	532.62
2315.734	523.62
2319.609	512.62
2323.482	509.62
2327.351	503.62
2331.216	507.62
2335.078	498.62
2338.937	501.62
2342.792	483.62
2346.643	483.62
2350.492	484.62
2354.336	498.62
2358.178	491.62
2362.015	495.62
2365.85	481.62
2369.681	493.62
2373.508	488.62
2377.333	493.62
2381.153	491.62
2384.971	495.62
2388.785	493.62
2392.595	481.62
2396.402	476.62
2400.206	484.62
2404.007	481.62
2407.804	469.62
2411.597	471.62
2415.388	471.62
2419.174	477.62
2422.958	476.62
2426.738	465.62
2430.515	465.62
2434.289	473.62
2438.059	465.62
2441.825	467.62
2445.589	456.62
2449.349	453.62
2453.106	456.62
2456.859	460.62
2460.61	457.62
2464.356	447.62
2468.1	445.62
2471.84	446.62
2475.577	430.62
2479.311	437.62
2483.041	427.62
2486.768	438.62
2490.492	434.62
2494.213	434.62
2497.93	453.62
2501.644	438.62
2505.355	434.62
2509.062	429.62
2512.766	429.62
2516.467	423.62
2520.165	430.62
2523.859	430.62
2527.551	415.62
2531.239	417.62
2534.923	412.62
2538.605	418.62
2542.283	410.62
2545.958	407.62
2549.63	405.62
2553.299	395.62
2556.964	398.62
2560.626	393.62
2564.285	394.62
2567.941	399.62
2571.594	403.62
2575.243	393.62
2578.89	391.62
2582.533	381.62
2586.173	371.62
2589.809	375.62
2593.443	382.62
2597.073	377.62
2600.701	372.62
2604.325	371.62
2607.946	371.62
2611.564	363.62
2615.178	371.62
2618.79	371.62
2622.398	366.62
2626.004	369.62
2629.606	354.62
2633.205	354.62
2636.801	356.62
2640.394	352.62
2643.983	342.62
2647.57	335.62
2651.153	339.62
2654.734	332.62
2658.311	337.62
2661.885	332.62
2665.456	336.62
2669.025	326.62
2672.589	326.62
2676.151	323.62
2679.71	331.62
2683.266	323.62
2686.819	318.62
2690.368	320.62
2693.915	311.62
2697.458	310.62
2700.999	303.62
2704.536	300.62
2708.071	291.62
2711.602	300.62
2715.13	292.62
2718.656	294.62
2722.178	298.62
2725.697	293.62
2729.214	292.62
2732.727	293.62
2736.237	291.62
2739.744	289.62
2743.249	294.62
2746.75	294.62
2750.248	290.62
2753.743	292.62
2757.236	287.62
2760.725	298.62
2764.211	288.62
2767.695	273.62
2771.175	276.62
2774.652	273.62
2778.127	281.62
2781.598	280.62
2785.067	272.62
2788.532	280.62
2791.995	279.62
2795.455	279.62
2798.911	275.62
2802.365	274.62
2805.816	275.62
2809.264	283.62
2812.709	280.62
2816.151	283.62
2819.59	275.62
2823.026	280.62
2826.46	282.62
2829.89	279.62
2833.318	284.62
2836.742	282.62
2840.164	279.62
2843.583	290.62
2846.999	281.62
2850.412	278.62
2853.822	284.62
2857.229	293.62
2860.634	294.62
2864.035	296.62
2867.434	302.62
2870.83	299.62
2874.223	306.62
2877.613	307.62
2881	317.62
2884.385	320.62
2887.766	312.62
2891.145	315.62
2894.521	312.62
2897.894	303.62
2901.264	318.62
2904.631	314.62
2907.996	327.62
2911.358	314.62
2914.717	311.62
2918.073	315.62
2921.426	316.62
2924.777	331.62
2928.124	328.62
2931.469	337.62
2934.811	341.62
2938.15	351.62
2941.487	354.62
2944.821	353.62
2948.152	356.62
2951.48	361.62
2954.805	358.62
2958.128	370.62
2961.447	378.62
2964.765	373.62
2968.079	375.62
2971.39	389.62
2974.699	380.62
2978.005	395.62
2981.308	402.62
2984.609	414.62
2987.907	425.62
2991.202	430.62
2994.494	440.62
2997.784	450.62
3001.07	452.62
3004.355	468.62
3007.636	488.62
3010.915	482.62
3014.191	488.62
3017.464	505.62
3020.734	512.62
3024.002	526.62
3027.267	519.62
3030.53	518.62
3033.789	526.62
3037.046	548.62
3040.301	559.62
3043.552	566.62
3046.801	583.62
3050.048	587.62
3053.291	611.62
3056.532	624.62
3059.771	642.62
3063.006	651.62
3066.239	677.62
3069.469	692.62
3072.697	715.62
3075.922	719.62
3079.144	752.62
3082.364	770.62
3085.581	796.62
3088.795	796.62
3092.007	809.62
3095.216	831.62
3098.423	847.62
3101.627	860.62
3104.828	885.62
3108.026	908.62
3111.222	911.62
3114.416	931.62
3117.607	943.62
3120.795	962.62
3123.98	1003.62
3127.163	1021.62
3130.344	1034.62
3133.521	1066.62
3136.696	1095.62
3139.869	1101.62
3143.039	1117.62
3146.206	1134.62
3149.371	1156.62
3152.533	1168.62
3155.693	1182.62
3158.85	1172.62
3162.005	1199.62
3165.157	1201.62
3168.306	1206.62
3171.453	1204.62
3174.597	1199.62
3177.739	1206.62
3180.878	1201.62
3184.014	1204.62
3187.149	1203.62
3190.28	1230.62
3193.409	1223.62
3196.536	1226.62
3199.659	1234.62
3202.781	1228.62
3205.9	1219.62
3209.016	1233.62
3212.13	1215.62
3215.241	1228.62
3218.35	1230.62
3221.456	1212.62
3224.56	1194.62
3227.661	1174.62
3230.76	1179.62
3233.856	1168.62
3236.95	1144.62
3240.041	1140.62
3243.13	1122.62
3246.216	1132.62
3249.3	1111.62
3252.382	1098.62
3255.46	1104.62
3258.537	1095.62
3261.611	1088.62
3264.682	1073.62
3267.751	1090.62
3270.818	1079.62
3273.882	1064.62
3276.943	1080.62
3280.002	1054.62
3283.059	1059.62
3286.113	1035.62
3289.165	1015.62
3292.214	997.62
3295.261	996.62
3298.306	991.62
3301.348	971.62
3304.387	950.62
3307.425	936.62
3310.459	910.62
3313.492	912.62
3316.521	892.62
3319.549	894.62
3322.574	890.62
3325.597	889.62
3328.617	872.62
3331.635	875.62
3334.65	859.62
3337.663	845.62
3340.674	840.62
3343.682	835.62
3346.688	827.62
3349.691	839.62
3352.692	841.62
3355.691	838.62
3358.687	815.62
3361.681	820.62
3364.673	801.62
3367.662	793.62
3370.649	798.62
3373.633	784.62
3376.615	755.62
3379.595	766.62
3382.572	747.62
3385.547	732.62
3388.52	722.62
3391.49	707.62
3394.458	701.62
3397.424	692.62
3400.387	677.62
3403.348	674.62
3406.307	681.62
3409.263	669.62
3412.217	656.62
3415.168	651.62
3418.118	648.62
3421.065	636.62
3424.009	632.62
3426.951	624.62
3429.891	604.62
3432.829	605.62
3435.764	590.62
3438.697	579.62
3441.628	564.62
3444.557	554.62
3447.483	527.62
3450.407	529.62
3453.328	516.62
3456.247	509.62
3459.164	486.62
3462.079	488.62
3464.991	458.62
3467.902	442.62
3470.809	431.62
3473.715	420.62
3476.618	404.62
3479.519	402.62
3482.418	383.62
3485.315	376.62
3488.209	357.62
3491.101	352.62
3493.99	346.62
3496.878	337.62
3499.763	331.62
3502.646	321.62
3505.527	303.62
3508.405	297.62
3511.281	291.62
3514.155	274.62
3517.027	263.62
3519.897	261.62
3522.764	245.62
3525.629	239.62
3528.492	214.62
3531.352	208.62
3534.211	209.62
3537.067	183.62
3539.921	182.62
3542.773	180.62
3545.622	169.62
3548.469	153.62
3551.315	143.62
3554.157	136.62
3556.998	137.62
3559.837	123.62
3562.673	116.62
3565.507	116.62
3568.339	104.62
3571.169	104.62
3573.996	99.62
3576.822	93.62
3579.645	84.62
3582.466	85.62
3585.285	81.62
3588.101	74.62
3590.916	59.62
3593.728	58.62
3596.538	50.62
3599.346	53.62
3602.152	49.62
3604.956	46.62
3607.757	40.62
3610.556	35.62
3613.354	24.62
3616.149	25.62
3618.942	22.62
3621.732	20.62
3624.521	20.62
3627.307	18.62
3630.092	11.62
3632.874	11.62
3635.654	2.62
3638.432	6.62
3641.208	4.62
3643.982	-2.38
3646.753	1.62
3649.523	-1.38
3652.29	-5.38
3655.055	-7.38
3657.818	-12.38
3660.579	-13.38
3663.338	-17.38
3666.095	-19.38
3668.849	-20.38
3671.602	-28.38
3674.352	-31.38
3677.101	-29.38
3679.847	-29.38
3682.591	-30.38
3685.333	-32.38
3688.073	-30.38
3690.811	-37.38
3693.547	-37.38
3696.281	-38.38
3699.013	-38.38
3701.742	-36.38
3704.47	-38.38
3707.195	-40.38
3709.919	-39.38
3712.64	-47.38
3715.359	-44.38
3718.076	-48.38
3720.792	-51.38
3723.505	-46.38
3726.216	-51.38
3728.925	-48.38
3731.632	-50.38
3734.336	-50.38
3737.039	-54.38
3739.74	-55.38
3742.439	-50.38
3745.136	-55.38
3747.83	-56.38
3750.523	-55.38
3753.213	-55.38
3755.902	-59.38
3758.589	-54.38
3761.273	-55.38
3763.956	-57.38
3766.636	-58.38
3769.315	-57.38
3771.991	-59.38
3774.665	-58.38
3777.338	-57.38
3780.008	-57.38
3782.677	-57.38
3785.343	-58.38
3788.007	-62.38
3790.67	-62.38
3793.33	-62.38
3795.989	-62.38
3798.645	-59.38
3801.299	-61.38
3803.952	-58.38
3806.602	-62.38
3809.251	-61.38
3811.897	-65.38
3814.542	-67.38
3817.184	-63.38
3819.825	-62.38
3822.463	-63.38
3825.1	-67.38
3827.735	-62.38
3830.367	-70.38
3832.998	-65.38
3835.627	-67.38
3838.253	-67.38
3840.878	-68.38
3843.501	-65.38
3846.122	-66.38
3848.741	-69.38
3851.358	-70.38
3853.973	-65.38
3856.586	-68.38
3859.197	-71.38
3861.806	-69.38
3864.414	-71.38
3867.019	-67.38
3869.622	-65.38
3872.224	-63.38
3874.823	-67.38
3877.421	-67.38
3880.016	-67.38
3882.61	-64.38
3885.202	-64.38
3887.792	-61.38
3890.38	-62.38
3892.966	-66.38
3895.55	-71.38
3898.132	-72.38
3900.713	-71.38
3903.291	-75.38
3905.868	-70.38
3908.442	-70.38
3911.015	-71.38
3913.586	-70.38
3916.155	-67.38
3918.722	-71.38
3921.287	-69.38
3923.85	-74.38
3926.411	-74.38
3928.971	-70.38
3931.528	-70.38
3934.084	-72.38
3936.638	-71.38
3939.19	-73.38
3941.74	-73.38
3944.288	-76.38
3946.834	-73.38
3949.378	-76.38
3951.921	-72.38
3954.462	-73.38
3957	-69.38
3959.537	-72.38
3962.072	-70.38
3964.606	-73.38
3967.137	-77.38
3969.667	-74.38
3972.194	-74.38
3974.72	-74.38
3977.244	-68.38
3979.766	-72.38
3982.286	-65.38
3984.805	-72.38
3987.321	-73.38
3989.836	-73.38
3992.349	-73.38
3994.86	-70.38
3997.369	-65.38
3999.877	-68.38
4002.382	-70.38
4004.886	-72.38
4007.388	-71.38
4009.888	-69.38
4012.386	-69.38
4014.883	-72.38
4017.377	-73.38
4019.87	-71.38
4022.361	-70.38
4024.85	-70.38
4027.338	-69.38
4029.823	-69.38
4032.307	-71.38
4034.789	-73.38
4037.269	-74.38
4039.747	-74.38
4042.224	-75.38
4044.699	-68.38
4047.172	-68.38
4049.643	-72.38
4052.112	-71.38
4054.58	-75.38
4057.046	-75.38
4059.51	-76.38
4061.972	-69.38
4064.432	-66.38
4066.891	-71.38
4069.348	-71.38
4071.803	-72.38
4074.256	-74.38
4076.708	-75.38
4079.158	-71.38
4081.606	-68.38
4084.052	-71.38
4086.497	-71.38
4088.939	-73.38
4091.38	-72.38
4093.819	-73.38
4096.257	-75.38
4098.693	-73.38
4101.127	-74.38
4103.559	-77.38
4105.989	-24.38
4108.418	-19.38
4110.845	-18.38
4113.27	-15.38
4115.694	-10.38
4118.115	-7.38
4120.535	-72.38
4122.954	-71.38
4125.37	-73.38
4127.785	-70.38
4130.198	-72.38
4132.609	-71.38
4135.019	-76.38
4137.427	-72.38
4139.833	-75.38
4142.237	-77.38
