Data from 1000CFU3_C_ramanshift_RamanShift_15-23-27-560.txt Node
Date: Sun Dec 25 15:23:27 IST 2016
User: aro
Spectrometer: QEPB0276
Trigger mode: 0
Integration Time (sec): 5.000000E0
Scans to average: 1
Electric dark correction enabled: true
Nonlinearity correction enabled: false
Boxcar width: 0
XAxis mode: Raman Shifts
Number of Pixels in Spectrum: 1044
>>>>>Begin Spectral Data<<<<<
160.701	-0.25
166.742	20.75
172.777	64.75
178.805	207.75
184.826	617.75
190.841	1486.75
196.849	2726.75
202.85	3904.75
208.845	4492.75
214.833	4535.75
220.815	4353.75
226.789	4212.75
232.758	4089.75
238.719	3984.75
244.674	3851.75
250.623	3705.75
256.565	3567.75
262.5	3385.75
268.429	3240.75
274.351	3102.75
280.267	2978.75
286.176	2850.75
292.079	2773.75
297.975	2664.75
303.865	2566.75
309.748	2513.75
315.625	2441.75
321.495	2396.75
327.359	2344.75
333.217	2293.75
339.068	2257.75
344.912	2260.75
350.751	2243.75
356.583	2234.75
362.408	2216.75
368.227	2218.75
374.04	2212.75
379.847	2236.75
385.647	2246.75
391.44	2241.75
397.228	2248.75
403.009	2287.75
408.784	2296.75
414.553	2287.75
420.315	2317.75
426.071	2322.75
431.821	2308.75
437.565	2325.75
443.302	2326.75
449.033	2329.75
454.758	2320.75
460.477	2284.75
466.189	2290.75
471.896	2277.75
477.596	2286.75
483.29	2263.75
488.978	2252.75
494.66	2251.75
500.335	2247.75
506.005	2216.75
511.668	2155.75
517.325	2128.75
522.977	2104.75
528.622	2091.75
534.261	2032.75
539.894	2027.75
545.521	2032.75
551.141	2013.75
556.756	2015.75
562.365	1973.75
567.968	1976.75
573.565	1960.75
579.155	1953.75
584.74	1964.75
590.319	1942.75
595.892	1922.75
601.459	1924.75
607.02	1889.75
612.575	1892.75
618.124	1865.75
623.667	1867.75
629.204	1851.75
634.735	1824.75
640.261	1812.75
645.781	1794.75
651.294	1808.75
656.802	1780.75
662.304	1781.75
667.8	1769.75
673.29	1770.75
678.775	1769.75
684.254	1763.75
689.726	1754.75
695.193	1753.75
700.655	1740.75
706.11	1723.75
711.56	1723.75
717.004	1703.75
722.442	1696.75
727.874	1705.75
733.301	1684.75
738.722	1679.75
744.137	1681.75
749.547	1644.75
754.951	1665.75
760.349	1662.75
765.741	1643.75
771.128	1662.75
776.509	1646.75
781.885	1649.75
787.254	1660.75
792.618	1655.75
797.977	1643.75
803.33	1625.75
808.677	1616.75
814.019	1598.75
819.355	1596.75
824.686	1565.75
830.011	1564.75
835.33	1575.75
840.644	1570.75
845.952	1552.75
851.255	1537.75
856.552	1535.75
861.844	1515.75
867.13	1540.75
872.41	1525.75
877.686	1524.75
882.955	1515.75
888.219	1501.75
893.478	1492.75
898.731	1458.75
903.979	1423.75
909.221	1404.75
914.458	1419.75
919.69	1385.75
924.916	1386.75
930.136	1385.75
935.351	1389.75
940.561	1387.75
945.766	1381.75
950.965	1380.75
956.158	1353.75
961.347	1364.75
966.529	1338.75
971.707	1340.75
976.879	1314.75
982.046	1292.75
987.208	1284.75
992.364	1269.75
997.515	1297.75
1002.66	1289.75
1007.801	1296.75
1012.936	1318.75
1018.066	1331.75
1023.19	1319.75
1028.309	1339.75
1033.423	1338.75
1038.532	1332.75
1043.636	1333.75
1048.734	1324.75
1053.827	1316.75
1058.915	1295.75
1063.998	1282.75
1069.075	1274.75
1074.147	1282.75
1079.214	1283.75
1084.276	1287.75
1089.333	1306.75
1094.385	1318.75
1099.431	1334.75
1104.472	1325.75
1109.509	1314.75
1114.54	1295.75
1119.565	1299.75
1124.586	1301.75
1129.602	1269.75
1134.613	1256.75
1139.618	1260.75
1144.619	1258.75
1149.614	1249.75
1154.604	1268.75
1159.589	1257.75
1164.57	1282.75
1169.545	1287.75
1174.515	1282.75
1179.48	1282.75
1184.44	1279.75
1189.395	1266.75
1194.345	1275.75
1199.29	1251.75
1204.23	1262.75
1209.165	1257.75
1214.095	1259.75
1219.021	1265.75
1223.941	1277.75
1228.856	1290.75
1233.766	1294.75
1238.672	1300.75
1243.572	1303.75
1248.467	1290.75
1253.358	1280.75
1258.244	1285.75
1263.124	1270.75
1268	1249.75
1272.871	1209.75
1277.737	1227.75
1282.599	1201.75
1287.455	1222.75
1292.306	1224.75
1297.153	1221.75
1301.995	1222.75
1306.832	1240.75
1311.664	1239.75
1316.491	1259.75
1321.314	1258.75
1326.132	1241.75
1330.945	1230.75
1335.753	1211.75
1340.556	1208.75
1345.354	1192.75
1350.148	1187.75
1354.937	1175.75
1359.722	1166.75
1364.501	1163.75
1369.276	1145.75
1374.046	1131.75
1378.811	1120.75
1383.572	1121.75
1388.327	1123.75
1393.079	1125.75
1397.825	1129.75
1402.567	1103.75
1407.304	1108.75
1412.036	1108.75
1416.764	1101.75
1421.487	1103.75
1426.205	1098.75
1430.919	1108.75
1435.628	1116.75
1440.333	1125.75
1445.032	1149.75
1449.727	1154.75
1454.418	1159.75
1459.104	1180.75
1463.785	1159.75
1468.462	1149.75
1473.134	1131.75
1477.802	1123.75
1482.465	1117.75
1487.123	1110.75
1491.777	1103.75
1496.426	1092.75
1501.071	1104.75
1505.711	1118.75
1510.347	1126.75
1514.978	1142.75
1519.604	1148.75
1524.226	1146.75
1528.844	1149.75
1533.457	1151.75
1538.065	1154.75
1542.669	1144.75
1547.269	1148.75
1551.864	1154.75
1556.454	1167.75
1561.041	1178.75
1565.622	1168.75
1570.199	1181.75
1574.772	1192.75
1579.34	1214.75
1583.904	1228.75
1588.464	1260.75
1593.019	1262.75
1597.569	1286.75
1602.115	1296.75
1606.657	1298.75
1611.195	1312.75
1615.728	1308.75
1620.256	1330.75
1624.78	1350.75
1629.3	1345.75
1633.816	1374.75
1638.327	1386.75
1642.834	1406.75
1647.336	1415.75
1651.834	1421.75
1656.328	1436.75
1660.817	1431.75
1665.302	1408.75
1669.783	1391.75
1674.259	1373.75
1678.732	1318.75
1683.199	1298.75
1687.663	1242.75
1692.122	1223.75
1696.577	1189.75
1701.028	1129.75
1705.474	1095.75
1709.917	1032.75
1714.355	1034.75
1718.788	1008.75
1723.218	1000.75
1727.643	981.75
1732.064	960.75
1736.481	952.75
1740.893	925.75
1745.301	912.75
1749.705	883.75
1754.105	872.75
1758.501	851.75
1762.893	849.75
1767.28	829.75
1771.663	820.75
1776.042	807.75
1780.417	809.75
1784.787	806.75
1789.154	825.75
1793.516	807.75
1797.874	810.75
1802.228	803.75
1806.578	813.75
1810.924	783.75
1815.266	779.75
1819.603	781.75
1823.937	757.75
1828.266	741.75
1832.591	746.75
1836.913	737.75
1841.23	746.75
1845.543	746.75
1849.852	751.75
1854.156	750.75
1858.457	746.75
1862.754	748.75
1867.047	749.75
1871.335	746.75
1875.62	753.75
1879.9	749.75
1884.177	752.75
1888.449	749.75
1892.718	747.75
1896.982	749.75
1901.243	738.75
1905.499	752.75
1909.752	739.75
1914	746.75
1918.245	730.75
1922.485	737.75
1926.722	741.75
1930.954	739.75
1935.183	745.75
1939.408	742.75
1943.628	737.75
1947.845	741.75
1952.058	737.75
1956.267	740.75
1960.472	735.75
1964.673	736.75
1968.87	724.75
1973.063	709.75
1977.252	713.75
1981.438	713.75
1985.619	707.75
1989.797	703.75
1993.971	710.75
1998.14	713.75
2002.306	707.75
2006.469	721.75
2010.627	706.75
2014.781	721.75
2018.932	719.75
2023.078	711.75
2027.221	720.75
2031.36	714.75
2035.495	712.75
2039.627	709.75
2043.754	708.75
2047.878	702.75
2051.998	695.75
2056.114	699.75
2060.226	699.75
2064.334	694.75
2068.439	702.75
2072.54	722.75
2076.637	702.75
2080.73	713.75
2084.82	710.75
2088.906	699.75
2092.988	713.75
2097.066	707.75
2101.14	715.75
2105.211	691.75
2109.278	705.75
2113.342	697.75
2117.401	689.75
2121.457	680.75
2125.509	680.75
2129.558	685.75
2133.602	666.75
2137.643	680.75
2141.681	671.75
2145.714	670.75
2149.744	678.75
2153.77	682.75
2157.793	665.75
2161.812	664.75
2165.827	652.75
2169.838	666.75
2173.846	638.75
2177.851	624.75
2181.851	620.75
2185.848	613.75
2189.841	609.75
2193.831	613.75
2197.817	591.75
2201.799	595.75
2205.778	605.75
2209.753	595.75
2213.725	598.75
2217.693	599.75
2221.657	596.75
2225.618	592.75
2229.575	596.75
2233.529	588.75
2237.479	590.75
2241.425	582.75
2245.368	573.75
2249.307	566.75
2253.243	568.75
2257.175	558.75
2261.104	546.75
2265.029	544.75
2268.95	529.75
2272.868	527.75
2276.783	522.75
2280.694	516.75
2284.601	505.75
2288.505	507.75
2292.405	508.75
2296.302	501.75
2300.195	491.75
2304.085	498.75
2307.971	477.75
2311.854	484.75
2315.734	465.75
2319.609	456.75
2323.482	457.75
2327.351	449.75
2331.216	453.75
2335.078	452.75
2338.937	451.75
2342.792	443.75
2346.643	436.75
2350.492	447.75
2354.336	445.75
2358.178	428.75
2362.015	437.75
2365.85	443.75
2369.681	443.75
2373.508	439.75
2377.333	443.75
2381.153	440.75
2384.971	438.75
2388.785	431.75
2392.595	434.75
2396.402	434.75
2400.206	425.75
2404.007	430.75
2407.804	440.75
2411.597	430.75
2415.388	425.75
2419.174	423.75
2422.958	419.75
2426.738	414.75
2430.515	427.75
2434.289	416.75
2438.059	419.75
2441.825	414.75
2445.589	412.75
2449.349	414.75
2453.106	407.75
2456.859	396.75
2460.61	398.75
2464.356	403.75
2468.1	410.75
2471.84	389.75
2475.577	388.75
2479.311	390.75
2483.041	390.75
2486.768	391.75
2490.492	378.75
2494.213	394.75
2497.93	380.75
2501.644	384.75
2505.355	384.75
2509.062	387.75
2512.766	391.75
2516.467	381.75
2520.165	378.75
2523.859	377.75
2527.551	371.75
2531.239	361.75
2534.923	375.75
2538.605	368.75
2542.283	370.75
2545.958	360.75
2549.63	366.75
2553.299	360.75
2556.964	366.75
2560.626	360.75
2564.285	363.75
2567.941	355.75
2571.594	356.75
2575.243	351.75
2578.89	344.75
2582.533	339.75
2586.173	342.75
2589.809	331.75
2593.443	340.75
2597.073	330.75
2600.701	334.75
2604.325	337.75
2607.946	324.75
2611.564	340.75
2615.178	328.75
2618.79	323.75
2622.398	322.75
2626.004	318.75
2629.606	326.75
2633.205	317.75
2636.801	319.75
2640.394	316.75
2643.983	312.75
2647.57	305.75
2651.153	304.75
2654.734	303.75
2658.311	301.75
2661.885	296.75
2665.456	293.75
2669.025	290.75
2672.589	293.75
2676.151	292.75
2679.71	285.75
2683.266	282.75
2686.819	287.75
2690.368	290.75
2693.915	275.75
2697.458	289.75
2700.999	273.75
2704.536	267.75
2708.071	276.75
2711.602	269.75
2715.13	269.75
2718.656	269.75
2722.178	271.75
2725.697	265.75
2729.214	261.75
2732.727	268.75
2736.237	275.75
2739.744	265.75
2743.249	260.75
2746.75	270.75
2750.248	265.75
2753.743	266.75
2757.236	261.75
2760.725	271.75
2764.211	266.75
2767.695	254.75
2771.175	253.75
2774.652	263.75
2778.127	242.75
2781.598	249.75
2785.067	255.75
2788.532	255.75
2791.995	256.75
2795.455	254.75
2798.911	257.75
2802.365	249.75
2805.816	254.75
2809.264	250.75
2812.709	254.75
2816.151	255.75
2819.59	256.75
2823.026	253.75
2826.46	255.75
2829.89	261.75
2833.318	259.75
2836.742	261.75
2840.164	257.75
2843.583	256.75
2846.999	262.75
2850.412	264.75
2853.822	265.75
2857.229	274.75
2860.634	270.75
2864.035	270.75
2867.434	266.75
2870.83	271.75
2874.223	283.75
2877.613	275.75
2881	290.75
2884.385	294.75
2887.766	289.75
2891.145	288.75
2894.521	288.75
2897.894	280.75
2901.264	286.75
2904.631	298.75
2907.996	298.75
2911.358	294.75
2914.717	291.75
2918.073	295.75
2921.426	297.75
2924.777	309.75
2928.124	309.75
2931.469	304.75
2934.811	319.75
2938.15	321.75
2941.487	326.75
2944.821	324.75
2948.152	330.75
2951.48	335.75
2954.805	331.75
2958.128	350.75
2961.447	355.75
2964.765	351.75
2968.079	349.75
2971.39	369.75
2974.699	369.75
2978.005	369.75
2981.308	376.75
2984.609	386.75
2987.907	396.75
2991.202	407.75
2994.494	419.75
2997.784	414.75
3001.07	435.75
3004.355	442.75
3007.636	448.75
3010.915	451.75
3014.191	466.75
3017.464	477.75
3020.734	493.75
3024.002	501.75
3027.267	505.75
3030.53	508.75
3033.789	513.75
3037.046	532.75
3040.301	536.75
3043.552	553.75
3046.801	555.75
3050.048	572.75
3053.291	593.75
3056.532	609.75
3059.771	625.75
3063.006	631.75
3066.239	656.75
3069.469	678.75
3072.697	682.75
3075.922	704.75
3079.144	723.75
3082.364	743.75
3085.581	755.75
3088.795	771.75
3092.007	794.75
3095.216	811.75
3098.423	820.75
3101.627	846.75
3104.828	857.75
3108.026	879.75
3111.222	904.75
3114.416	904.75
3117.607	946.75
3120.795	946.75
3123.98	978.75
3127.163	1001.75
3130.344	1010.75
3133.521	1040.75
3136.696	1054.75
3139.869	1071.75
3143.039	1110.75
3146.206	1117.75
3149.371	1117.75
3152.533	1128.75
3155.693	1145.75
3158.85	1157.75
3162.005	1154.75
3165.157	1156.75
3168.306	1161.75
3171.453	1158.75
3174.597	1180.75
3177.739	1162.75
3180.878	1182.75
3184.014	1181.75
3187.149	1188.75
3190.28	1190.75
3193.409	1187.75
3196.536	1179.75
3199.659	1188.75
3202.781	1195.75
3205.9	1203.75
3209.016	1204.75
3212.13	1194.75
3215.241	1196.75
3218.35	1175.75
3221.456	1162.75
3224.56	1177.75
3227.661	1157.75
3230.76	1131.75
3233.856	1119.75
3236.95	1122.75
3240.041	1106.75
3243.13	1095.75
3246.216	1086.75
3249.3	1075.75
3252.382	1067.75
3255.46	1067.75
3258.537	1051.75
3261.611	1050.75
3264.682	1051.75
3267.751	1050.75
3270.818	1029.75
3273.882	1041.75
3276.943	1027.75
3280.002	1008.75
3283.059	1011.75
3286.113	1004.75
3289.165	982.75
3292.214	970.75
3295.261	966.75
3298.306	948.75
3301.348	924.75
3304.387	915.75
3307.425	914.75
3310.459	902.75
3313.492	888.75
3316.521	879.75
3319.549	877.75
3322.574	863.75
3325.597	836.75
3328.617	867.75
3331.635	834.75
3334.65	847.75
3337.663	838.75
3340.674	831.75
3343.682	831.75
3346.688	817.75
3349.691	825.75
3352.692	822.75
3355.691	812.75
3358.687	804.75
3361.681	802.75
3364.673	789.75
3367.662	771.75
3370.649	765.75
3373.633	758.75
3376.615	740.75
3379.595	739.75
3382.572	728.75
3385.547	714.75
3388.52	702.75
3391.49	697.75
3394.458	683.75
3397.424	672.75
3400.387	675.75
3403.348	657.75
3406.307	648.75
3409.263	636.75
3412.217	642.75
3415.168	632.75
3418.118	638.75
3421.065	621.75
3424.009	608.75
3426.951	601.75
3429.891	598.75
3432.829	576.75
3435.764	572.75
3438.697	565.75
3441.628	544.75
3444.557	537.75
3447.483	523.75
3450.407	519.75
3453.328	499.75
3456.247	489.75
3459.164	465.75
3462.079	473.75
3464.991	442.75
3467.902	426.75
3470.809	420.75
3473.715	411.75
3476.618	396.75
3479.519	388.75
3482.418	380.75
3485.315	355.75
3488.209	350.75
3491.101	348.75
3493.99	338.75
3496.878	324.75
3499.763	321.75
3502.646	309.75
3505.527	295.75
3508.405	289.75
3511.281	276.75
3514.155	259.75
3517.027	245.75
3519.897	246.75
3522.764	234.75
3525.629	226.75
3528.492	209.75
3531.352	200.75
3534.211	192.75
3537.067	176.75
3539.921	171.75
3542.773	170.75
3545.622	155.75
3548.469	146.75
3551.315	137.75
3554.157	132.75
3556.998	132.75
3559.837	112.75
3562.673	111.75
3565.507	106.75
3568.339	104.75
3571.169	96.75
3573.996	96.75
3576.822	84.75
3579.645	82.75
3582.466	75.75
3585.285	66.75
3588.101	69.75
3590.916	59.75
3593.728	63.75
3596.538	54.75
3599.346	50.75
3602.152	50.75
3604.956	42.75
3607.757	35.75
3610.556	34.75
3613.354	27.75
3616.149	21.75
3618.942	24.75
3621.732	17.75
3624.521	12.75
3627.307	12.75
3630.092	8.75
3632.874	10.75
3635.654	2.75
3638.432	5.75
3641.208	1.75
3643.982	3.75
3646.753	-0.25
3649.523	-1.25
3652.29	-2.25
3655.055	-13.25
3657.818	-17.25
3660.579	-15.25
3663.338	-18.25
3666.095	-18.25
3668.849	-20.25
3671.602	-24.25
3674.352	-29.25
3677.101	-30.25
3679.847	-34.25
3682.591	-31.25
3685.333	-31.25
3688.073	-30.25
3690.811	-34.25
3693.547	-35.25
3696.281	-37.25
3699.013	-44.25
3701.742	-41.25
3704.47	-41.25
3707.195	-43.25
3709.919	-43.25
3712.64	-45.25
3715.359	-45.25
3718.076	-46.25
3720.792	-49.25
3723.505	-46.25
3726.216	-56.25
3728.925	-53.25
3731.632	-55.25
3734.336	-45.25
3737.039	-52.25
3739.74	-51.25
3742.439	-49.25
3745.136	-53.25
3747.83	-57.25
3750.523	-57.25
3753.213	-58.25
3755.902	-56.25
3758.589	-55.25
3761.273	-53.25
3763.956	-56.25
3766.636	-56.25
3769.315	-54.25
3771.991	-63.25
3774.665	-61.25
3777.338	-61.25
3780.008	-57.25
3782.677	-56.25
3785.343	-60.25
3788.007	-58.25
3790.67	-61.25
3793.33	-61.25
3795.989	-66.25
3798.645	-62.25
3801.299	-60.25
3803.952	-59.25
3806.602	-59.25
3809.251	-61.25
3811.897	-66.25
3814.542	-66.25
3817.184	-62.25
3819.825	-64.25
3822.463	-64.25
3825.1	-64.25
3827.735	-62.25
3830.367	-68.25
3832.998	-64.25
3835.627	-65.25
3838.253	-66.25
3840.878	-68.25
3843.501	-67.25
3846.122	-66.25
3848.741	-70.25
3851.358	-66.25
3853.973	-68.25
3856.586	-62.25
3859.197	-67.25
3861.806	-69.25
3864.414	-70.25
3867.019	-67.25
3869.622	-66.25
3872.224	-65.25
3874.823	-64.25
3877.421	-63.25
3880.016	-68.25
3882.61	-69.25
3885.202	-64.25
3887.792	-65.25
3890.38	-63.25
3892.966	-64.25
3895.55	-69.25
3898.132	-67.25
3900.713	-71.25
3903.291	-69.25
3905.868	-69.25
3908.442	-70.25
3911.015	-74.25
3913.586	-69.25
3916.155	-69.25
3918.722	-69.25
3921.287	-69.25
3923.85	-72.25
3926.411	-72.25
3928.971	-73.25
3931.528	-73.25
3934.084	-72.25
3936.638	-70.25
3939.19	-71.25
3941.74	-69.25
3944.288	-72.25
3946.834	-71.25
3949.378	-72.25
3951.921	-74.25
3954.462	-70.25
3957	-68.25
3959.537	-71.25
3962.072	-68.25
3964.606	-68.25
3967.137	-70.25
3969.667	-70.25
3972.194	-74.25
3974.72	-76.25
3977.244	-69.25
3979.766	-70.25
3982.286	-65.25
3984.805	-70.25
3987.321	-71.25
3989.836	-68.25
3992.349	-73.25
3994.86	-68.25
3997.369	-67.25
3999.877	-71.25
4002.382	-66.25
4004.886	-69.25
4007.388	-70.25
4009.888	-66.25
4012.386	-68.25
4014.883	-70.25
4017.377	-74.25
4019.87	-72.25
4022.361	-71.25
4024.85	-68.25
4027.338	-68.25
4029.823	-65.25
4032.307	-65.25
4034.789	-70.25
4037.269	-73.25
4039.747	-73.25
4042.224	-76.25
4044.699	-70.25
4047.172	-68.25
4049.643	-69.25
4052.112	-69.25
4054.58	-69.25
4057.046	-71.25
4059.51	-74.25
4061.972	-70.25
4064.432	-73.25
4066.891	-69.25
4069.348	-70.25
4071.803	-69.25
4074.256	-72.25
4076.708	-72.25
4079.158	-71.25
4081.606	-68.25
4084.052	-71.25
4086.497	-73.25
4088.939	-74.25
4091.38	-72.25
4093.819	-70.25
4096.257	-71.25
4098.693	-72.25
4101.127	-75.25
4103.559	-73.25
4105.989	-20.25
4108.418	-20.25
4110.845	-21.25
4113.27	-18.25
4115.694	-13.25
4118.115	-13.25
4120.535	-70.25
4122.954	-70.25
4125.37	-71.25
4127.785	-73.25
4130.198	-70.25
4132.609	-73.25
4135.019	-75.25
4137.427	-70.25
4139.833	-72.25
4142.237	-75.25
