Data from 10000000CFU3_FROM15TH_ramanshift_RamanShift_13-47-55-635.txt Node
Date: Sun Dec 25 13:47:55 IST 2016
User: aro
Spectrometer: QEPB0276
Trigger mode: 0
Integration Time (sec): 5.000000E0
Scans to average: 1
Electric dark correction enabled: true
Nonlinearity correction enabled: false
Boxcar width: 0
XAxis mode: Raman Shifts
Number of Pixels in Spectrum: 1044
>>>>>Begin Spectral Data<<<<<
160.701	4.62
166.742	19.62
172.777	66.62
178.805	206.62
184.826	613.62
190.841	1473.62
196.849	2678.62
202.85	3808.62
208.845	4402.62
214.833	4435.62
220.815	4248.62
226.789	4102.62
232.758	4020.62
238.719	3919.62
244.674	3807.62
250.623	3654.62
256.565	3510.62
262.5	3369.62
268.429	3251.62
274.351	3093.62
280.267	2977.62
286.176	2894.62
292.079	2811.62
297.975	2706.62
303.865	2641.62
309.748	2552.62
315.625	2498.62
321.495	2438.62
327.359	2396.62
333.217	2384.62
339.068	2365.62
344.912	2322.62
350.751	2294.62
356.583	2279.62
362.408	2315.62
368.227	2300.62
374.04	2301.62
379.847	2323.62
385.647	2309.62
391.44	2344.62
397.228	2349.62
403.009	2367.62
408.784	2379.62
414.553	2373.62
420.315	2390.62
426.071	2382.62
431.821	2387.62
437.565	2398.62
443.302	2402.62
449.033	2407.62
454.758	2382.62
460.477	2373.62
466.189	2364.62
471.896	2362.62
477.596	2349.62
483.29	2346.62
488.978	2338.62
494.66	2335.62
500.335	2320.62
506.005	2297.62
511.668	2264.62
517.325	2229.62
522.977	2186.62
528.622	2161.62
534.261	2147.62
539.894	2126.62
545.521	2125.62
551.141	2091.62
556.756	2095.62
562.365	2097.62
567.968	2063.62
573.565	2071.62
579.155	2042.62
584.74	2055.62
590.319	2020.62
595.892	2025.62
601.459	2009.62
607.02	1992.62
612.575	1977.62
618.124	1970.62
623.667	1952.62
629.204	1940.62
634.735	1913.62
640.261	1922.62
645.781	1901.62
651.294	1889.62
656.802	1881.62
662.304	1872.62
667.8	1875.62
673.29	1863.62
678.775	1876.62
684.254	1838.62
689.726	1859.62
695.193	1831.62
700.655	1838.62
706.11	1828.62
711.56	1812.62
717.004	1789.62
722.442	1797.62
727.874	1786.62
733.301	1776.62
738.722	1786.62
744.137	1769.62
749.547	1760.62
754.951	1759.62
760.349	1753.62
765.741	1744.62
771.128	1743.62
776.509	1768.62
781.885	1758.62
787.254	1761.62
792.618	1746.62
797.977	1748.62
803.33	1723.62
808.677	1706.62
814.019	1698.62
819.355	1706.62
824.686	1681.62
830.011	1651.62
835.33	1669.62
840.644	1643.62
845.952	1646.62
851.255	1636.62
856.552	1646.62
861.844	1627.62
867.13	1633.62
872.41	1623.62
877.686	1618.62
882.955	1624.62
888.219	1580.62
893.478	1551.62
898.731	1543.62
903.979	1509.62
909.221	1514.62
914.458	1509.62
919.69	1473.62
924.916	1477.62
930.136	1485.62
935.351	1489.62
940.561	1475.62
945.766	1466.62
950.965	1484.62
956.158	1468.62
961.347	1455.62
966.529	1432.62
971.707	1411.62
976.879	1410.62
982.046	1381.62
987.208	1377.62
992.364	1374.62
997.515	1366.62
1002.66	1388.62
1007.801	1397.62
1012.936	1396.62
1018.066	1425.62
1023.19	1429.62
1028.309	1441.62
1033.423	1435.62
1038.532	1427.62
1043.636	1419.62
1048.734	1413.62
1053.827	1403.62
1058.915	1399.62
1063.998	1376.62
1069.075	1361.62
1074.147	1362.62
1079.214	1376.62
1084.276	1378.62
1089.333	1392.62
1094.385	1404.62
1099.431	1411.62
1104.472	1416.62
1109.509	1402.62
1114.54	1393.62
1119.565	1377.62
1124.586	1367.62
1129.602	1365.62
1134.613	1340.62
1139.618	1338.62
1144.619	1346.62
1149.614	1337.62
1154.604	1345.62
1159.589	1349.62
1164.57	1357.62
1169.545	1378.62
1174.515	1356.62
1179.48	1365.62
1184.44	1358.62
1189.395	1342.62
1194.345	1347.62
1199.29	1337.62
1204.23	1335.62
1209.165	1321.62
1214.095	1338.62
1219.021	1359.62
1223.941	1366.62
1228.856	1381.62
1233.766	1369.62
1238.672	1378.62
1243.572	1366.62
1248.467	1380.62
1253.358	1360.62
1258.244	1343.62
1263.124	1331.62
1268	1309.62
1272.871	1303.62
1277.737	1300.62
1282.599	1282.62
1287.455	1272.62
1292.306	1286.62
1297.153	1291.62
1301.995	1297.62
1306.832	1307.62
1311.664	1312.62
1316.491	1337.62
1321.314	1320.62
1326.132	1304.62
1330.945	1297.62
1335.753	1296.62
1340.556	1260.62
1345.354	1237.62
1350.148	1241.62
1354.937	1226.62
1359.722	1226.62
1364.501	1215.62
1369.276	1209.62
1374.046	1204.62
1378.811	1213.62
1383.572	1208.62
1388.327	1207.62
1393.079	1209.62
1397.825	1192.62
1402.567	1195.62
1407.304	1182.62
1412.036	1158.62
1416.764	1162.62
1421.487	1149.62
1426.205	1161.62
1430.919	1176.62
1435.628	1176.62
1440.333	1190.62
1445.032	1196.62
1449.727	1202.62
1454.418	1207.62
1459.104	1216.62
1463.785	1207.62
1468.462	1190.62
1473.134	1185.62
1477.802	1191.62
1482.465	1164.62
1487.123	1156.62
1491.777	1157.62
1496.426	1171.62
1501.071	1176.62
1505.711	1173.62
1510.347	1183.62
1514.978	1193.62
1519.604	1205.62
1524.226	1224.62
1528.844	1216.62
1533.457	1220.62
1538.065	1227.62
1542.669	1214.62
1547.269	1210.62
1551.864	1214.62
1556.454	1223.62
1561.041	1238.62
1565.622	1228.62
1570.199	1238.62
1574.772	1262.62
1579.34	1274.62
1583.904	1276.62
1588.464	1319.62
1593.019	1314.62
1597.569	1344.62
1602.115	1340.62
1606.657	1331.62
1611.195	1354.62
1615.728	1354.62
1620.256	1362.62
1624.78	1393.62
1629.3	1393.62
1633.816	1423.62
1638.327	1414.62
1642.834	1435.62
1647.336	1462.62
1651.834	1471.62
1656.328	1462.62
1660.817	1469.62
1665.302	1437.62
1669.783	1435.62
1674.259	1403.62
1678.732	1347.62
1683.199	1325.62
1687.663	1271.62
1692.122	1266.62
1696.577	1223.62
1701.028	1167.62
1705.474	1139.62
1709.917	1107.62
1714.355	1086.62
1718.788	1076.62
1723.218	1044.62
1727.643	1039.62
1732.064	1021.62
1736.481	999.62
1740.893	988.62
1745.301	950.62
1749.705	941.62
1754.105	926.62
1758.501	897.62
1762.893	882.62
1767.28	858.62
1771.663	863.62
1776.042	860.62
1780.417	836.62
1784.787	854.62
1789.154	851.62
1793.516	850.62
1797.874	857.62
1802.228	852.62
1806.578	835.62
1810.924	844.62
1815.266	840.62
1819.603	825.62
1823.937	812.62
1828.266	812.62
1832.591	794.62
1836.913	779.62
1841.23	777.62
1845.543	793.62
1849.852	785.62
1854.156	793.62
1858.457	789.62
1862.754	789.62
1867.047	789.62
1871.335	790.62
1875.62	797.62
1879.9	800.62
1884.177	784.62
1888.449	786.62
1892.718	787.62
1896.982	775.62
1901.243	784.62
1905.499	775.62
1909.752	775.62
1914	775.62
1918.245	774.62
1922.485	763.62
1926.722	774.62
1930.954	779.62
1935.183	777.62
1939.408	788.62
1943.628	788.62
1947.845	791.62
1952.058	789.62
1956.267	771.62
1960.472	766.62
1964.673	778.62
1968.87	755.62
1973.063	767.62
1977.252	755.62
1981.438	755.62
1985.619	745.62
1989.797	737.62
1993.971	735.62
1998.14	747.62
2002.306	746.62
2006.469	747.62
2010.627	749.62
2014.781	746.62
2018.932	749.62
2023.078	751.62
2027.221	753.62
2031.36	731.62
2035.495	741.62
2039.627	729.62
2043.754	725.62
2047.878	710.62
2051.998	711.62
2056.114	722.62
2060.226	718.62
2064.334	720.62
2068.439	723.62
2072.54	732.62
2076.637	731.62
2080.73	741.62
2084.82	746.62
2088.906	731.62
2092.988	735.62
2097.066	736.62
2101.14	732.62
2105.211	722.62
2109.278	725.62
2113.342	713.62
2117.401	712.62
2121.457	721.62
2125.509	716.62
2129.558	722.62
2133.602	700.62
2137.643	717.62
2141.681	694.62
2145.714	693.62
2149.744	688.62
2153.77	682.62
2157.793	699.62
2161.812	687.62
2165.827	677.62
2169.838	672.62
2173.846	658.62
2177.851	652.62
2181.851	637.62
2185.848	636.62
2189.841	623.62
2193.831	623.62
2197.817	612.62
2201.799	618.62
2205.778	615.62
2209.753	616.62
2213.725	614.62
2217.693	599.62
2221.657	626.62
2225.618	603.62
2229.575	606.62
2233.529	611.62
2237.479	598.62
2241.425	599.62
2245.368	589.62
2249.307	585.62
2253.243	569.62
2257.175	572.62
2261.104	559.62
2265.029	554.62
2268.95	547.62
2272.868	548.62
2276.783	540.62
2280.694	534.62
2284.601	528.62
2288.505	521.62
2292.405	519.62
2296.302	517.62
2300.195	500.62
2304.085	504.62
2307.971	485.62
2311.854	490.62
2315.734	481.62
2319.609	476.62
2323.482	469.62
2327.351	460.62
2331.216	461.62
2335.078	460.62
2338.937	459.62
2342.792	449.62
2346.643	443.62
2350.492	440.62
2354.336	447.62
2358.178	448.62
2362.015	438.62
2365.85	443.62
2369.681	447.62
2373.508	460.62
2377.333	447.62
2381.153	453.62
2384.971	446.62
2388.785	439.62
2392.595	447.62
2396.402	433.62
2400.206	446.62
2404.007	436.62
2407.804	433.62
2411.597	433.62
2415.388	413.62
2419.174	433.62
2422.958	421.62
2426.738	418.62
2430.515	418.62
2434.289	420.62
2438.059	417.62
2441.825	418.62
2445.589	407.62
2449.349	408.62
2453.106	407.62
2456.859	413.62
2460.61	403.62
2464.356	396.62
2468.1	392.62
2471.84	395.62
2475.577	389.62
2479.311	381.62
2483.041	396.62
2486.768	393.62
2490.492	395.62
2494.213	397.62
2497.93	393.62
2501.644	391.62
2505.355	385.62
2509.062	392.62
2512.766	388.62
2516.467	387.62
2520.165	384.62
2523.859	377.62
2527.551	379.62
2531.239	370.62
2534.923	369.62
2538.605	361.62
2542.283	372.62
2545.958	353.62
2549.63	354.62
2553.299	348.62
2556.964	354.62
2560.626	361.62
2564.285	347.62
2567.941	348.62
2571.594	349.62
2575.243	345.62
2578.89	339.62
2582.533	338.62
2586.173	341.62
2589.809	343.62
2593.443	338.62
2597.073	340.62
2600.701	331.62
2604.325	329.62
2607.946	324.62
2611.564	329.62
2615.178	327.62
2618.79	337.62
2622.398	331.62
2626.004	319.62
2629.606	321.62
2633.205	317.62
2636.801	321.62
2640.394	306.62
2643.983	314.62
2647.57	309.62
2651.153	296.62
2654.734	297.62
2658.311	303.62
2661.885	299.62
2665.456	294.62
2669.025	289.62
2672.589	288.62
2676.151	289.62
2679.71	291.62
2683.266	283.62
2686.819	284.62
2690.368	279.62
2693.915	277.62
2697.458	273.62
2700.999	266.62
2704.536	256.62
2708.071	255.62
2711.602	262.62
2715.13	261.62
2718.656	260.62
2722.178	259.62
2725.697	255.62
2729.214	262.62
2732.727	253.62
2736.237	259.62
2739.744	259.62
2743.249	266.62
2746.75	261.62
2750.248	257.62
2753.743	259.62
2757.236	262.62
2760.725	258.62
2764.211	249.62
2767.695	257.62
2771.175	255.62
2774.652	251.62
2778.127	249.62
2781.598	260.62
2785.067	246.62
2788.532	249.62
2791.995	257.62
2795.455	249.62
2798.911	250.62
2802.365	253.62
2805.816	252.62
2809.264	257.62
2812.709	250.62
2816.151	258.62
2819.59	255.62
2823.026	250.62
2826.46	244.62
2829.89	245.62
2833.318	253.62
2836.742	245.62
2840.164	255.62
2843.583	258.62
2846.999	264.62
2850.412	259.62
2853.822	259.62
2857.229	258.62
2860.634	259.62
2864.035	266.62
2867.434	266.62
2870.83	282.62
2874.223	283.62
2877.613	282.62
2881	286.62
2884.385	287.62
2887.766	290.62
2891.145	276.62
2894.521	279.62
2897.894	286.62
2901.264	279.62
2904.631	285.62
2907.996	288.62
2911.358	282.62
2914.717	281.62
2918.073	287.62
2921.426	293.62
2924.777	293.62
2928.124	300.62
2931.469	298.62
2934.811	305.62
2938.15	309.62
2941.487	319.62
2944.821	323.62
2948.152	326.62
2951.48	321.62
2954.805	331.62
2958.128	339.62
2961.447	331.62
2964.765	341.62
2968.079	346.62
2971.39	355.62
2974.699	355.62
2978.005	363.62
2981.308	367.62
2984.609	371.62
2987.907	387.62
2991.202	403.62
2994.494	412.62
2997.784	422.62
3001.07	419.62
3004.355	431.62
3007.636	450.62
3010.915	454.62
3014.191	460.62
3017.464	475.62
3020.734	474.62
3024.002	482.62
3027.267	494.62
3030.53	498.62
3033.789	500.62
3037.046	514.62
3040.301	514.62
3043.552	533.62
3046.801	543.62
3050.048	563.62
3053.291	563.62
3056.532	585.62
3059.771	600.62
3063.006	604.62
3066.239	631.62
3069.469	660.62
3072.697	673.62
3075.922	677.62
3079.144	695.62
3082.364	713.62
3085.581	726.62
3088.795	745.62
3092.007	764.62
3095.216	788.62
3098.423	794.62
3101.627	812.62
3104.828	834.62
3108.026	850.62
3111.222	864.62
3114.416	881.62
3117.607	902.62
3120.795	912.62
3123.98	929.62
3127.163	953.62
3130.344	983.62
3133.521	997.62
3136.696	1024.62
3139.869	1034.62
3143.039	1055.62
3146.206	1083.62
3149.371	1085.62
3152.533	1107.62
3155.693	1113.62
3158.85	1115.62
3162.005	1128.62
3165.157	1121.62
3168.306	1129.62
3171.453	1132.62
3174.597	1148.62
3177.739	1145.62
3180.878	1152.62
3184.014	1150.62
3187.149	1152.62
3190.28	1161.62
3193.409	1144.62
3196.536	1157.62
3199.659	1159.62
3202.781	1167.62
3205.9	1177.62
3209.016	1169.62
3212.13	1159.62
3215.241	1155.62
3218.35	1138.62
3221.456	1142.62
3224.56	1134.62
3227.661	1132.62
3230.76	1121.62
3233.856	1107.62
3236.95	1092.62
3240.041	1077.62
3243.13	1064.62
3246.216	1069.62
3249.3	1046.62
3252.382	1045.62
3255.46	1046.62
3258.537	1048.62
3261.611	1029.62
3264.682	1020.62
3267.751	1028.62
3270.818	1017.62
3273.882	1020.62
3276.943	1014.62
3280.002	1010.62
3283.059	993.62
3286.113	988.62
3289.165	975.62
3292.214	968.62
3295.261	958.62
3298.306	947.62
3301.348	917.62
3304.387	902.62
3307.425	887.62
3310.459	867.62
3313.492	868.62
3316.521	864.62
3319.549	848.62
3322.574	847.62
3325.597	836.62
3328.617	819.62
3331.635	819.62
3334.65	820.62
3337.663	818.62
3340.674	802.62
3343.682	808.62
3346.688	789.62
3349.691	803.62
3352.692	791.62
3355.691	786.62
3358.687	777.62
3361.681	781.62
3364.673	775.62
3367.662	761.62
3370.649	746.62
3373.633	740.62
3376.615	732.62
3379.595	720.62
3382.572	710.62
3385.547	697.62
3388.52	688.62
3391.49	683.62
3394.458	668.62
3397.424	650.62
3400.387	650.62
3403.348	642.62
3406.307	642.62
3409.263	626.62
3412.217	629.62
3415.168	631.62
3418.118	607.62
3421.065	609.62
3424.009	601.62
3426.951	605.62
3429.891	590.62
3432.829	577.62
3435.764	563.62
3438.697	544.62
3441.628	554.62
3444.557	532.62
3447.483	514.62
3450.407	498.62
3453.328	484.62
3456.247	477.62
3459.164	457.62
3462.079	452.62
3464.991	447.62
3467.902	427.62
3470.809	413.62
3473.715	397.62
3476.618	392.62
3479.519	380.62
3482.418	373.62
3485.315	362.62
3488.209	345.62
3491.101	336.62
3493.99	329.62
3496.878	324.62
3499.763	317.62
3502.646	307.62
3505.527	290.62
3508.405	280.62
3511.281	271.62
3514.155	261.62
3517.027	250.62
3519.897	240.62
3522.764	236.62
3525.629	229.62
3528.492	209.62
3531.352	206.62
3534.211	187.62
3537.067	179.62
3539.921	165.62
3542.773	162.62
3545.622	160.62
3548.469	151.62
3551.315	144.62
3554.157	138.62
3556.998	121.62
3559.837	120.62
3562.673	109.62
3565.507	110.62
3568.339	104.62
3571.169	101.62
3573.996	91.62
3576.822	90.62
3579.645	86.62
3582.466	84.62
3585.285	73.62
3588.101	71.62
3590.916	51.62
3593.728	54.62
3596.538	56.62
3599.346	53.62
3602.152	48.62
3604.956	40.62
3607.757	39.62
3610.556	31.62
3613.354	28.62
3616.149	18.62
3618.942	21.62
3621.732	22.62
3624.521	17.62
3627.307	16.62
3630.092	13.62
3632.874	10.62
3635.654	3.62
3638.432	4.62
3641.208	2.62
3643.982	2.62
3646.753	0.62
3649.523	-1.38
3652.29	-0.38
3655.055	-11.38
3657.818	-18.38
3660.579	-19.38
3663.338	-14.38
3666.095	-17.38
3668.849	-18.38
3671.602	-19.38
3674.352	-26.38
3677.101	-25.38
3679.847	-33.38
3682.591	-29.38
3685.333	-32.38
3688.073	-31.38
3690.811	-30.38
3693.547	-30.38
3696.281	-36.38
3699.013	-42.38
3701.742	-37.38
3704.47	-41.38
3707.195	-40.38
3709.919	-41.38
3712.64	-45.38
3715.359	-45.38
3718.076	-40.38
3720.792	-46.38
3723.505	-42.38
3726.216	-49.38
3728.925	-51.38
3731.632	-57.38
3734.336	-50.38
3737.039	-53.38
3739.74	-49.38
3742.439	-49.38
3745.136	-49.38
3747.83	-52.38
3750.523	-57.38
3753.213	-57.38
3755.902	-59.38
3758.589	-54.38
3761.273	-52.38
3763.956	-53.38
3766.636	-54.38
3769.315	-51.38
3771.991	-58.38
3774.665	-60.38
3777.338	-59.38
3780.008	-62.38
3782.677	-54.38
3785.343	-58.38
3788.007	-59.38
3790.67	-60.38
3793.33	-58.38
3795.989	-62.38
3798.645	-59.38
3801.299	-62.38
3803.952	-58.38
3806.602	-60.38
3809.251	-55.38
3811.897	-63.38
3814.542	-64.38
3817.184	-59.38
3819.825	-61.38
3822.463	-64.38
3825.1	-64.38
3827.735	-61.38
3830.367	-66.38
3832.998	-61.38
3835.627	-64.38
3838.253	-62.38
3840.878	-67.38
3843.501	-64.38
3846.122	-65.38
3848.741	-66.38
3851.358	-66.38
3853.973	-65.38
3856.586	-60.38
3859.197	-67.38
3861.806	-66.38
3864.414	-66.38
3867.019	-66.38
3869.622	-65.38
3872.224	-62.38
3874.823	-65.38
3877.421	-61.38
3880.016	-65.38
3882.61	-63.38
3885.202	-59.38
3887.792	-62.38
3890.38	-65.38
3892.966	-66.38
3895.55	-65.38
3898.132	-70.38
3900.713	-69.38
3903.291	-68.38
3905.868	-64.38
3908.442	-69.38
3911.015	-69.38
3913.586	-74.38
3916.155	-69.38
3918.722	-66.38
3921.287	-66.38
3923.85	-68.38
3926.411	-69.38
3928.971	-70.38
3931.528	-71.38
3934.084	-73.38
3936.638	-76.38
3939.19	-70.38
3941.74	-70.38
3944.288	-71.38
3946.834	-67.38
3949.378	-68.38
3951.921	-67.38
3954.462	-71.38
3957	-69.38
3959.537	-71.38
3962.072	-69.38
3964.606	-68.38
3967.137	-69.38
3969.667	-70.38
3972.194	-70.38
3974.72	-71.38
3977.244	-68.38
3979.766	-70.38
3982.286	-70.38
3984.805	-70.38
3987.321	-71.38
3989.836	-68.38
3992.349	-67.38
3994.86	-66.38
3997.369	-67.38
3999.877	-67.38
4002.382	-70.38
4004.886	-70.38
4007.388	-70.38
4009.888	-65.38
4012.386	-66.38
4014.883	-66.38
4017.377	-69.38
4019.87	-68.38
4022.361	-68.38
4024.85	-69.38
4027.338	-70.38
4029.823	-65.38
4032.307	-64.38
4034.789	-67.38
4037.269	-69.38
4039.747	-68.38
4042.224	-71.38
4044.699	-71.38
4047.172	-69.38
4049.643	-69.38
4052.112	-69.38
4054.58	-68.38
4057.046	-69.38
4059.51	-68.38
4061.972	-69.38
4064.432	-68.38
4066.891	-73.38
4069.348	-72.38
4071.803	-71.38
4074.256	-69.38
4076.708	-74.38
4079.158	-67.38
4081.606	-66.38
4084.052	-67.38
4086.497	-70.38
4088.939	-72.38
4091.38	-73.38
4093.819	-69.38
4096.257	-71.38
4098.693	-72.38
4101.127	-75.38
4103.559	-76.38
4105.989	-24.38
4108.418	-15.38
4110.845	-15.38
4113.27	-12.38
4115.694	-9.38
4118.115	-7.38
4120.535	-70.38
4122.954	-67.38
4125.37	-70.38
4127.785	-69.38
4130.198	-69.38
4132.609	-70.38
4135.019	-77.38
4137.427	-73.38
4139.833	-73.38
4142.237	-73.38
