Data from 100000000CFU1_FROM15TH_ramanshift_RamanShift_13-49-30-631.txt Node
Date: Sun Dec 25 13:49:30 IST 2016
User: aro
Spectrometer: QEPB0276
Trigger mode: 0
Integration Time (sec): 5.000000E0
Scans to average: 1
Electric dark correction enabled: true
Nonlinearity correction enabled: false
Boxcar width: 0
XAxis mode: Raman Shifts
Number of Pixels in Spectrum: 1044
>>>>>Begin Spectral Data<<<<<
160.701	7.5
166.742	17.5
172.777	51.5
178.805	161.5
184.826	471.5
190.841	1104.5
196.849	2041.5
202.85	2905.5
208.845	3367.5
214.833	3403.5
220.815	3297.5
226.789	3192.5
232.758	3154.5
238.719	3065.5
244.674	3000.5
250.623	2917.5
256.565	2831.5
262.5	2709.5
268.429	2626.5
274.351	2557.5
280.267	2453.5
286.176	2394.5
292.079	2346.5
297.975	2262.5
303.865	2213.5
309.748	2180.5
315.625	2148.5
321.495	2111.5
327.359	2082.5
333.217	2058.5
339.068	2055.5
344.912	2045.5
350.751	2044.5
356.583	2037.5
362.408	2036.5
368.227	2029.5
374.04	2057.5
379.847	2043.5
385.647	2068.5
391.44	2059.5
397.228	2078.5
403.009	2100.5
408.784	2115.5
414.553	2129.5
420.315	2127.5
426.071	2126.5
431.821	2140.5
437.565	2120.5
443.302	2163.5
449.033	2140.5
454.758	2113.5
460.477	2119.5
466.189	2127.5
471.896	2098.5
477.596	2105.5
483.29	2099.5
488.978	2090.5
494.66	2102.5
500.335	2092.5
506.005	2056.5
511.668	2045.5
517.325	1997.5
522.977	1980.5
528.622	1942.5
534.261	1938.5
539.894	1901.5
545.521	1893.5
551.141	1898.5
556.756	1919.5
562.365	1881.5
567.968	1859.5
573.565	1861.5
579.155	1865.5
584.74	1848.5
590.319	1841.5
595.892	1851.5
601.459	1844.5
607.02	1818.5
612.575	1809.5
618.124	1805.5
623.667	1791.5
629.204	1774.5
634.735	1760.5
640.261	1739.5
645.781	1758.5
651.294	1740.5
656.802	1717.5
662.304	1725.5
667.8	1710.5
673.29	1702.5
678.775	1712.5
684.254	1702.5
689.726	1705.5
695.193	1685.5
700.655	1693.5
706.11	1681.5
711.56	1670.5
717.004	1665.5
722.442	1656.5
727.874	1652.5
733.301	1638.5
738.722	1627.5
744.137	1634.5
749.547	1625.5
754.951	1620.5
760.349	1620.5
765.741	1632.5
771.128	1633.5
776.509	1633.5
781.885	1636.5
787.254	1616.5
792.618	1626.5
797.977	1615.5
803.33	1608.5
808.677	1613.5
814.019	1593.5
819.355	1558.5
824.686	1566.5
830.011	1556.5
835.33	1545.5
840.644	1539.5
845.952	1530.5
851.255	1530.5
856.552	1531.5
861.844	1522.5
867.13	1519.5
872.41	1519.5
877.686	1545.5
882.955	1567.5
888.219	1545.5
893.478	1522.5
898.731	1464.5
903.979	1429.5
909.221	1409.5
914.458	1406.5
919.69	1402.5
924.916	1383.5
930.136	1406.5
935.351	1405.5
940.561	1387.5
945.766	1381.5
950.965	1400.5
956.158	1391.5
961.347	1368.5
966.529	1361.5
971.707	1333.5
976.879	1320.5
982.046	1318.5
987.208	1300.5
992.364	1305.5
997.515	1298.5
1002.66	1302.5
1007.801	1313.5
1012.936	1345.5
1018.066	1334.5
1023.19	1337.5
1028.309	1357.5
1033.423	1353.5
1038.532	1350.5
1043.636	1330.5
1048.734	1339.5
1053.827	1330.5
1058.915	1312.5
1063.998	1309.5
1069.075	1286.5
1074.147	1278.5
1079.214	1282.5
1084.276	1302.5
1089.333	1304.5
1094.385	1310.5
1099.431	1309.5
1104.472	1317.5
1109.509	1302.5
1114.54	1304.5
1119.565	1279.5
1124.586	1266.5
1129.602	1265.5
1134.613	1226.5
1139.618	1240.5
1144.619	1236.5
1149.614	1236.5
1154.604	1238.5
1159.589	1229.5
1164.57	1244.5
1169.545	1240.5
1174.515	1254.5
1179.48	1244.5
1184.44	1230.5
1189.395	1224.5
1194.345	1200.5
1199.29	1219.5
1204.23	1213.5
1209.165	1197.5
1214.095	1216.5
1219.021	1221.5
1223.941	1227.5
1228.856	1220.5
1233.766	1241.5
1238.672	1243.5
1243.572	1257.5
1248.467	1233.5
1253.358	1223.5
1258.244	1203.5
1263.124	1173.5
1268	1183.5
1272.871	1172.5
1277.737	1150.5
1282.599	1149.5
1287.455	1145.5
1292.306	1144.5
1297.153	1162.5
1301.995	1151.5
1306.832	1161.5
1311.664	1156.5
1316.491	1164.5
1321.314	1150.5
1326.132	1141.5
1330.945	1136.5
1335.753	1124.5
1340.556	1100.5
1345.354	1080.5
1350.148	1052.5
1354.937	1056.5
1359.722	1060.5
1364.501	1048.5
1369.276	1045.5
1374.046	1050.5
1378.811	1055.5
1383.572	1052.5
1388.327	1050.5
1393.079	1060.5
1397.825	1042.5
1402.567	1031.5
1407.304	1013.5
1412.036	1014.5
1416.764	996.5
1421.487	998.5
1426.205	996.5
1430.919	1004.5
1435.628	1013.5
1440.333	1025.5
1445.032	1009.5
1449.727	1040.5
1454.418	1026.5
1459.104	1047.5
1463.785	1029.5
1468.462	1025.5
1473.134	989.5
1477.802	984.5
1482.465	973.5
1487.123	963.5
1491.777	967.5
1496.426	962.5
1501.071	957.5
1505.711	983.5
1510.347	964.5
1514.978	988.5
1519.604	988.5
1524.226	1009.5
1528.844	1014.5
1533.457	1013.5
1538.065	1015.5
1542.669	1013.5
1547.269	996.5
1551.864	1002.5
1556.454	996.5
1561.041	1003.5
1565.622	1013.5
1570.199	1014.5
1574.772	1016.5
1579.34	1037.5
1583.904	1040.5
1588.464	1044.5
1593.019	1053.5
1597.569	1058.5
1602.115	1065.5
1606.657	1071.5
1611.195	1070.5
1615.728	1077.5
1620.256	1085.5
1624.78	1079.5
1629.3	1097.5
1633.816	1088.5
1638.327	1104.5
1642.834	1120.5
1647.336	1134.5
1651.834	1137.5
1656.328	1115.5
1660.817	1137.5
1665.302	1118.5
1669.783	1100.5
1674.259	1093.5
1678.732	1060.5
1683.199	1014.5
1687.663	1011.5
1692.122	968.5
1696.577	945.5
1701.028	918.5
1705.474	887.5
1709.917	879.5
1714.355	854.5
1718.788	841.5
1723.218	850.5
1727.643	823.5
1732.064	801.5
1736.481	798.5
1740.893	787.5
1745.301	755.5
1749.705	744.5
1754.105	719.5
1758.501	710.5
1762.893	687.5
1767.28	683.5
1771.663	660.5
1776.042	665.5
1780.417	662.5
1784.787	657.5
1789.154	657.5
1793.516	664.5
1797.874	666.5
1802.228	675.5
1806.578	669.5
1810.924	668.5
1815.266	644.5
1819.603	645.5
1823.937	630.5
1828.266	633.5
1832.591	619.5
1836.913	611.5
1841.23	612.5
1845.543	615.5
1849.852	617.5
1854.156	608.5
1858.457	599.5
1862.754	613.5
1867.047	601.5
1871.335	611.5
1875.62	615.5
1879.9	624.5
1884.177	617.5
1888.449	602.5
1892.718	605.5
1896.982	617.5
1901.243	600.5
1905.499	595.5
1909.752	596.5
1914	601.5
1918.245	588.5
1922.485	588.5
1926.722	597.5
1930.954	586.5
1935.183	590.5
1939.408	602.5
1943.628	600.5
1947.845	603.5
1952.058	600.5
1956.267	607.5
1960.472	599.5
1964.673	593.5
1968.87	584.5
1973.063	577.5
1977.252	576.5
1981.438	567.5
1985.619	561.5
1989.797	577.5
1993.971	564.5
1998.14	568.5
2002.306	568.5
2006.469	565.5
2010.627	558.5
2014.781	561.5
2018.932	557.5
2023.078	556.5
2027.221	559.5
2031.36	552.5
2035.495	545.5
2039.627	542.5
2043.754	531.5
2047.878	526.5
2051.998	527.5
2056.114	527.5
2060.226	537.5
2064.334	543.5
2068.439	541.5
2072.54	539.5
2076.637	537.5
2080.73	539.5
2084.82	538.5
2088.906	552.5
2092.988	542.5
2097.066	547.5
2101.14	546.5
2105.211	536.5
2109.278	533.5
2113.342	529.5
2117.401	528.5
2121.457	532.5
2125.509	532.5
2129.558	522.5
2133.602	514.5
2137.643	510.5
2141.681	518.5
2145.714	520.5
2149.744	513.5
2153.77	506.5
2157.793	504.5
2161.812	496.5
2165.827	485.5
2169.838	506.5
2173.846	473.5
2177.851	469.5
2181.851	469.5
2185.848	468.5
2189.841	461.5
2193.831	457.5
2197.817	451.5
2201.799	453.5
2205.778	453.5
2209.753	446.5
2213.725	451.5
2217.693	458.5
2221.657	436.5
2225.618	450.5
2229.575	433.5
2233.529	440.5
2237.479	426.5
2241.425	447.5
2245.368	440.5
2249.307	420.5
2253.243	414.5
2257.175	413.5
2261.104	403.5
2265.029	400.5
2268.95	389.5
2272.868	390.5
2276.783	391.5
2280.694	384.5
2284.601	386.5
2288.505	379.5
2292.405	371.5
2296.302	368.5
2300.195	360.5
2304.085	357.5
2307.971	353.5
2311.854	347.5
2315.734	348.5
2319.609	346.5
2323.482	348.5
2327.351	330.5
2331.216	333.5
2335.078	325.5
2338.937	328.5
2342.792	329.5
2346.643	314.5
2350.492	327.5
2354.336	324.5
2358.178	319.5
2362.015	323.5
2365.85	319.5
2369.681	325.5
2373.508	320.5
2377.333	325.5
2381.153	319.5
2384.971	315.5
2388.785	316.5
2392.595	313.5
2396.402	307.5
2400.206	308.5
2404.007	306.5
2407.804	308.5
2411.597	304.5
2415.388	305.5
2419.174	303.5
2422.958	300.5
2426.738	305.5
2430.515	295.5
2434.289	291.5
2438.059	301.5
2441.825	295.5
2445.589	283.5
2449.349	290.5
2453.106	291.5
2456.859	282.5
2460.61	277.5
2464.356	287.5
2468.1	267.5
2471.84	274.5
2475.577	274.5
2479.311	275.5
2483.041	272.5
2486.768	271.5
2490.492	277.5
2494.213	273.5
2497.93	271.5
2501.644	263.5
2505.355	263.5
2509.062	270.5
2512.766	265.5
2516.467	271.5
2520.165	265.5
2523.859	254.5
2527.551	253.5
2531.239	254.5
2534.923	253.5
2538.605	255.5
2542.283	250.5
2545.958	246.5
2549.63	247.5
2553.299	248.5
2556.964	243.5
2560.626	245.5
2564.285	244.5
2567.941	248.5
2571.594	239.5
2575.243	238.5
2578.89	232.5
2582.533	231.5
2586.173	229.5
2589.809	231.5
2593.443	231.5
2597.073	232.5
2600.701	227.5
2604.325	223.5
2607.946	228.5
2611.564	232.5
2615.178	227.5
2618.79	227.5
2622.398	215.5
2626.004	217.5
2629.606	215.5
2633.205	210.5
2636.801	214.5
2640.394	214.5
2643.983	203.5
2647.57	214.5
2651.153	208.5
2654.734	199.5
2658.311	202.5
2661.885	195.5
2665.456	194.5
2669.025	199.5
2672.589	197.5
2676.151	198.5
2679.71	189.5
2683.266	189.5
2686.819	185.5
2690.368	185.5
2693.915	181.5
2697.458	187.5
2700.999	183.5
2704.536	172.5
2708.071	172.5
2711.602	171.5
2715.13	177.5
2718.656	166.5
2722.178	171.5
2725.697	168.5
2729.214	175.5
2732.727	177.5
2736.237	175.5
2739.744	175.5
2743.249	166.5
2746.75	169.5
2750.248	169.5
2753.743	177.5
2757.236	167.5
2760.725	176.5
2764.211	171.5
2767.695	164.5
2771.175	155.5
2774.652	164.5
2778.127	158.5
2781.598	165.5
2785.067	160.5
2788.532	167.5
2791.995	167.5
2795.455	161.5
2798.911	162.5
2802.365	158.5
2805.816	157.5
2809.264	173.5
2812.709	165.5
2816.151	166.5
2819.59	169.5
2823.026	169.5
2826.46	166.5
2829.89	170.5
2833.318	170.5
2836.742	169.5
2840.164	173.5
2843.583	169.5
2846.999	168.5
2850.412	180.5
2853.822	183.5
2857.229	182.5
2860.634	185.5
2864.035	182.5
2867.434	187.5
2870.83	189.5
2874.223	190.5
2877.613	200.5
2881	197.5
2884.385	201.5
2887.766	196.5
2891.145	199.5
2894.521	203.5
2897.894	200.5
2901.264	200.5
2904.631	206.5
2907.996	209.5
2911.358	200.5
2914.717	198.5
2918.073	215.5
2921.426	208.5
2924.777	211.5
2928.124	217.5
2931.469	217.5
2934.811	219.5
2938.15	232.5
2941.487	234.5
2944.821	234.5
2948.152	232.5
2951.48	240.5
2954.805	232.5
2958.128	233.5
2961.447	229.5
2964.765	237.5
2968.079	245.5
2971.39	251.5
2974.699	250.5
2978.005	257.5
2981.308	262.5
2984.609	261.5
2987.907	263.5
2991.202	274.5
2994.494	280.5
2997.784	290.5
3001.07	290.5
3004.355	304.5
3007.636	308.5
3010.915	318.5
3014.191	323.5
3017.464	330.5
3020.734	336.5
3024.002	335.5
3027.267	339.5
3030.53	351.5
3033.789	358.5
3037.046	360.5
3040.301	366.5
3043.552	370.5
3046.801	381.5
3050.048	380.5
3053.291	405.5
3056.532	411.5
3059.771	425.5
3063.006	434.5
3066.239	454.5
3069.469	456.5
3072.697	477.5
3075.922	484.5
3079.144	488.5
3082.364	510.5
3085.581	521.5
3088.795	532.5
3092.007	549.5
3095.216	551.5
3098.423	563.5
3101.627	581.5
3104.828	592.5
3108.026	591.5
3111.222	624.5
3114.416	631.5
3117.607	638.5
3120.795	646.5
3123.98	656.5
3127.163	681.5
3130.344	706.5
3133.521	717.5
3136.696	735.5
3139.869	738.5
3143.039	760.5
3146.206	776.5
3149.371	776.5
3152.533	790.5
3155.693	795.5
3158.85	801.5
3162.005	795.5
3165.157	785.5
3168.306	818.5
3171.453	801.5
3174.597	823.5
3177.739	820.5
3180.878	824.5
3184.014	820.5
3187.149	825.5
3190.28	825.5
3193.409	819.5
3196.536	829.5
3199.659	831.5
3202.781	837.5
3205.9	838.5
3209.016	827.5
3212.13	826.5
3215.241	826.5
3218.35	828.5
3221.456	813.5
3224.56	811.5
3227.661	794.5
3230.76	796.5
3233.856	781.5
3236.95	777.5
3240.041	769.5
3243.13	758.5
3246.216	760.5
3249.3	754.5
3252.382	748.5
3255.46	740.5
3258.537	737.5
3261.611	734.5
3264.682	735.5
3267.751	735.5
3270.818	729.5
3273.882	715.5
3276.943	725.5
3280.002	716.5
3283.059	696.5
3286.113	694.5
3289.165	686.5
3292.214	686.5
3295.261	664.5
3298.306	658.5
3301.348	652.5
3304.387	644.5
3307.425	640.5
3310.459	624.5
3313.492	614.5
3316.521	610.5
3319.549	601.5
3322.574	602.5
3325.597	587.5
3328.617	602.5
3331.635	584.5
3334.65	581.5
3337.663	577.5
3340.674	572.5
3343.682	574.5
3346.688	574.5
3349.691	572.5
3352.692	572.5
3355.691	558.5
3358.687	568.5
3361.681	558.5
3364.673	549.5
3367.662	547.5
3370.649	539.5
3373.633	530.5
3376.615	522.5
3379.595	516.5
3382.572	503.5
3385.547	504.5
3388.52	502.5
3391.49	484.5
3394.458	478.5
3397.424	471.5
3400.387	477.5
3403.348	461.5
3406.307	454.5
3409.263	454.5
3412.217	452.5
3415.168	438.5
3418.118	445.5
3421.065	435.5
3424.009	429.5
3426.951	428.5
3429.891	417.5
3432.829	412.5
3435.764	401.5
3438.697	394.5
3441.628	379.5
3444.557	368.5
3447.483	370.5
3450.407	352.5
3453.328	348.5
3456.247	332.5
3459.164	325.5
3462.079	324.5
3464.991	302.5
3467.902	303.5
3470.809	290.5
3473.715	286.5
3476.618	268.5
3479.519	273.5
3482.418	259.5
3485.315	254.5
3488.209	251.5
3491.101	239.5
3493.99	225.5
3496.878	226.5
3499.763	216.5
3502.646	215.5
3505.527	211.5
3508.405	196.5
3511.281	194.5
3514.155	185.5
3517.027	178.5
3519.897	165.5
3522.764	162.5
3525.629	162.5
3528.492	141.5
3531.352	145.5
3534.211	132.5
3537.067	121.5
3539.921	116.5
3542.773	114.5
3545.622	107.5
3548.469	98.5
3551.315	100.5
3554.157	86.5
3556.998	84.5
3559.837	74.5
3562.673	76.5
3565.507	71.5
3568.339	64.5
3571.169	63.5
3573.996	58.5
3576.822	56.5
3579.645	50.5
3582.466	51.5
3585.285	49.5
3588.101	41.5
3590.916	36.5
3593.728	34.5
3596.538	27.5
3599.346	23.5
3602.152	25.5
3604.956	24.5
3607.757	27.5
3610.556	21.5
3613.354	12.5
3616.149	9.5
3618.942	10.5
3621.732	9.5
3624.521	5.5
3627.307	8.5
3630.092	7.5
3632.874	4.5
3635.654	-1.5
3638.432	0.5
3641.208	-0.5
3643.982	-7.5
3646.753	-6.5
3649.523	-3.5
3652.29	-9.5
3655.055	-11.5
3657.818	-14.5
3660.579	-14.5
3663.338	-19.5
3666.095	-16.5
3668.849	-23.5
3671.602	-19.5
3674.352	-27.5
3677.101	-26.5
3679.847	-25.5
3682.591	-28.5
3685.333	-29.5
3688.073	-28.5
3690.811	-33.5
3693.547	-28.5
3696.281	-32.5
3699.013	-35.5
3701.742	-32.5
3704.47	-33.5
3707.195	-35.5
3709.919	-35.5
3712.64	-42.5
3715.359	-37.5
3718.076	-39.5
3720.792	-39.5
3723.505	-39.5
3726.216	-43.5
3728.925	-41.5
3731.632	-45.5
3734.336	-41.5
3737.039	-43.5
3739.74	-46.5
3742.439	-38.5
3745.136	-40.5
3747.83	-41.5
3750.523	-47.5
3753.213	-40.5
3755.902	-48.5
3758.589	-46.5
3761.273	-49.5
3763.956	-44.5
3766.636	-44.5
3769.315	-45.5
3771.991	-48.5
3774.665	-48.5
3777.338	-48.5
3780.008	-45.5
3782.677	-49.5
3785.343	-49.5
3788.007	-49.5
3790.67	-47.5
3793.33	-46.5
3795.989	-48.5
3798.645	-50.5
3801.299	-46.5
3803.952	-49.5
3806.602	-48.5
3809.251	-49.5
3811.897	-49.5
3814.542	-50.5
3817.184	-47.5
3819.825	-49.5
3822.463	-47.5
3825.1	-56.5
3827.735	-51.5
3830.367	-57.5
3832.998	-52.5
3835.627	-49.5
3838.253	-50.5
3840.878	-54.5
3843.501	-51.5
3846.122	-52.5
3848.741	-54.5
3851.358	-57.5
3853.973	-51.5
3856.586	-52.5
3859.197	-53.5
3861.806	-55.5
3864.414	-52.5
3867.019	-51.5
3869.622	-51.5
3872.224	-56.5
3874.823	-52.5
3877.421	-53.5
3880.016	-53.5
3882.61	-49.5
3885.202	-46.5
3887.792	-48.5
3890.38	-51.5
3892.966	-51.5
3895.55	-53.5
3898.132	-55.5
3900.713	-56.5
3903.291	-57.5
3905.868	-50.5
3908.442	-51.5
3911.015	-54.5
3913.586	-55.5
3916.155	-51.5
3918.722	-57.5
3921.287	-55.5
3923.85	-57.5
3926.411	-54.5
3928.971	-56.5
3931.528	-56.5
3934.084	-58.5
3936.638	-58.5
3939.19	-59.5
3941.74	-57.5
3944.288	-55.5
3946.834	-56.5
3949.378	-56.5
3951.921	-54.5
3954.462	-54.5
3957	-54.5
3959.537	-54.5
3962.072	-56.5
3964.606	-56.5
3967.137	-55.5
3969.667	-55.5
3972.194	-54.5
3974.72	-56.5
3977.244	-52.5
3979.766	-54.5
3982.286	-52.5
3984.805	-59.5
3987.321	-57.5
3989.836	-56.5
3992.349	-55.5
3994.86	-52.5
3997.369	-48.5
3999.877	-55.5
4002.382	-54.5
4004.886	-56.5
4007.388	-58.5
4009.888	-56.5
4012.386	-52.5
4014.883	-53.5
4017.377	-57.5
4019.87	-56.5
4022.361	-52.5
4024.85	-55.5
4027.338	-57.5
4029.823	-52.5
4032.307	-51.5
4034.789	-54.5
4037.269	-54.5
4039.747	-57.5
4042.224	-55.5
4044.699	-54.5
4047.172	-57.5
4049.643	-54.5
4052.112	-54.5
4054.58	-55.5
4057.046	-55.5
4059.51	-55.5
4061.972	-51.5
4064.432	-51.5
4066.891	-53.5
4069.348	-56.5
4071.803	-54.5
4074.256	-59.5
4076.708	-59.5
4079.158	-56.5
4081.606	-51.5
4084.052	-53.5
4086.497	-51.5
4088.939	-55.5
4091.38	-56.5
4093.819	-56.5
4096.257	-60.5
4098.693	-55.5
4101.127	-56.5
4103.559	-55.5
4105.989	-11.5
4108.418	-11.5
4110.845	-11.5
4113.27	-10.5
4115.694	-4.5
4118.115	-3.5
4120.535	-58.5
4122.954	-56.5
4125.37	-55.5
4127.785	-55.5
4130.198	-53.5
4132.609	-56.5
4135.019	-60.5
4137.427	-56.5
4139.833	-58.5
4142.237	-62.5
