Data from 1000CFU2_FROM15TH_ramanshift_RamanShift_13-32-40-723.txt Node
Date: Sun Dec 25 13:32:40 IST 2016
User: aro
Spectrometer: QEPB0276
Trigger mode: 0
Integration Time (sec): 5.000000E0
Scans to average: 1
Electric dark correction enabled: true
Nonlinearity correction enabled: false
Boxcar width: 0
XAxis mode: Raman Shifts
Number of Pixels in Spectrum: 1044
>>>>>Begin Spectral Data<<<<<
160.701	9.75
166.742	19.75
172.777	66.75
178.805	211.75
184.826	621.75
190.841	1511.75
196.849	2784.75
202.85	3945.75
208.845	4541.75
214.833	4570.75
220.815	4410.75
226.789	4235.75
232.758	4138.75
238.719	4031.75
244.674	3900.75
250.623	3735.75
256.565	3575.75
262.5	3425.75
268.429	3250.75
274.351	3137.75
280.267	3030.75
286.176	2928.75
292.079	2836.75
297.975	2713.75
303.865	2650.75
309.748	2570.75
315.625	2497.75
321.495	2431.75
327.359	2411.75
333.217	2380.75
339.068	2337.75
344.912	2339.75
350.751	2313.75
356.583	2290.75
362.408	2315.75
368.227	2308.75
374.04	2313.75
379.847	2304.75
385.647	2330.75
391.44	2338.75
397.228	2322.75
403.009	2359.75
408.784	2367.75
414.553	2381.75
420.315	2388.75
426.071	2389.75
431.821	2382.75
437.565	2377.75
443.302	2375.75
449.033	2394.75
454.758	2375.75
460.477	2374.75
466.189	2343.75
471.896	2334.75
477.596	2335.75
483.29	2329.75
488.978	2327.75
494.66	2310.75
500.335	2315.75
506.005	2269.75
511.668	2244.75
517.325	2197.75
522.977	2178.75
528.622	2149.75
534.261	2144.75
539.894	2094.75
545.521	2087.75
551.141	2067.75
556.756	2064.75
562.365	2043.75
567.968	2033.75
573.565	2019.75
579.155	2007.75
584.74	2000.75
590.319	1994.75
595.892	1978.75
601.459	1974.75
607.02	1962.75
612.575	1952.75
618.124	1936.75
623.667	1918.75
629.204	1884.75
634.735	1896.75
640.261	1869.75
645.781	1864.75
651.294	1883.75
656.802	1844.75
662.304	1821.75
667.8	1834.75
673.29	1803.75
678.775	1807.75
684.254	1824.75
689.726	1810.75
695.193	1804.75
700.655	1795.75
706.11	1783.75
711.56	1760.75
717.004	1753.75
722.442	1750.75
727.874	1742.75
733.301	1730.75
738.722	1726.75
744.137	1716.75
749.547	1713.75
754.951	1698.75
760.349	1706.75
765.741	1695.75
771.128	1691.75
776.509	1691.75
781.885	1696.75
787.254	1708.75
792.618	1699.75
797.977	1678.75
803.33	1677.75
808.677	1684.75
814.019	1660.75
819.355	1643.75
824.686	1615.75
830.011	1617.75
835.33	1624.75
840.644	1599.75
845.952	1593.75
851.255	1567.75
856.552	1586.75
861.844	1565.75
867.13	1586.75
872.41	1576.75
877.686	1568.75
882.955	1554.75
888.219	1534.75
893.478	1526.75
898.731	1490.75
903.979	1478.75
909.221	1440.75
914.458	1450.75
919.69	1429.75
924.916	1429.75
930.136	1434.75
935.351	1421.75
940.561	1422.75
945.766	1425.75
950.965	1418.75
956.158	1410.75
961.347	1402.75
966.529	1358.75
971.707	1362.75
976.879	1351.75
982.046	1330.75
987.208	1317.75
992.364	1317.75
997.515	1329.75
1002.66	1318.75
1007.801	1333.75
1012.936	1354.75
1018.066	1352.75
1023.19	1374.75
1028.309	1379.75
1033.423	1353.75
1038.532	1369.75
1043.636	1352.75
1048.734	1365.75
1053.827	1332.75
1058.915	1323.75
1063.998	1308.75
1069.075	1323.75
1074.147	1308.75
1079.214	1318.75
1084.276	1332.75
1089.333	1343.75
1094.385	1328.75
1099.431	1349.75
1104.472	1352.75
1109.509	1337.75
1114.54	1328.75
1119.565	1333.75
1124.586	1301.75
1129.602	1296.75
1134.613	1276.75
1139.618	1280.75
1144.619	1287.75
1149.614	1264.75
1154.604	1292.75
1159.589	1282.75
1164.57	1299.75
1169.545	1310.75
1174.515	1300.75
1179.48	1302.75
1184.44	1295.75
1189.395	1298.75
1194.345	1281.75
1199.29	1286.75
1204.23	1279.75
1209.165	1284.75
1214.095	1273.75
1219.021	1291.75
1223.941	1300.75
1228.856	1308.75
1233.766	1320.75
1238.672	1316.75
1243.572	1332.75
1248.467	1315.75
1253.358	1318.75
1258.244	1305.75
1263.124	1279.75
1268	1267.75
1272.871	1245.75
1277.737	1237.75
1282.599	1229.75
1287.455	1234.75
1292.306	1207.75
1297.153	1229.75
1301.995	1249.75
1306.832	1249.75
1311.664	1243.75
1316.491	1254.75
1321.314	1271.75
1326.132	1253.75
1330.945	1242.75
1335.753	1226.75
1340.556	1207.75
1345.354	1197.75
1350.148	1191.75
1354.937	1182.75
1359.722	1170.75
1364.501	1162.75
1369.276	1159.75
1374.046	1161.75
1378.811	1156.75
1383.572	1170.75
1388.327	1158.75
1393.079	1170.75
1397.825	1148.75
1402.567	1125.75
1407.304	1130.75
1412.036	1122.75
1416.764	1120.75
1421.487	1112.75
1426.205	1124.75
1430.919	1119.75
1435.628	1145.75
1440.333	1135.75
1445.032	1136.75
1449.727	1177.75
1454.418	1167.75
1459.104	1166.75
1463.785	1179.75
1468.462	1173.75
1473.134	1136.75
1477.802	1142.75
1482.465	1123.75
1487.123	1117.75
1491.777	1123.75
1496.426	1123.75
1501.071	1125.75
1505.711	1120.75
1510.347	1141.75
1514.978	1169.75
1519.604	1177.75
1524.226	1190.75
1528.844	1171.75
1533.457	1193.75
1538.065	1200.75
1542.669	1175.75
1547.269	1176.75
1551.864	1174.75
1556.454	1165.75
1561.041	1174.75
1565.622	1188.75
1570.199	1200.75
1574.772	1225.75
1579.34	1244.75
1583.904	1251.75
1588.464	1271.75
1593.019	1291.75
1597.569	1303.75
1602.115	1323.75
1606.657	1317.75
1611.195	1324.75
1615.728	1347.75
1620.256	1331.75
1624.78	1360.75
1629.3	1389.75
1633.816	1405.75
1638.327	1424.75
1642.834	1413.75
1647.336	1456.75
1651.834	1457.75
1656.328	1453.75
1660.817	1449.75
1665.302	1445.75
1669.783	1427.75
1674.259	1384.75
1678.732	1339.75
1683.199	1306.75
1687.663	1270.75
1692.122	1231.75
1696.577	1200.75
1701.028	1152.75
1705.474	1128.75
1709.917	1082.75
1714.355	1062.75
1718.788	1038.75
1723.218	1023.75
1727.643	1008.75
1732.064	988.75
1736.481	961.75
1740.893	954.75
1745.301	919.75
1749.705	900.75
1754.105	883.75
1758.501	864.75
1762.893	844.75
1767.28	839.75
1771.663	830.75
1776.042	819.75
1780.417	819.75
1784.787	816.75
1789.154	823.75
1793.516	825.75
1797.874	825.75
1802.228	824.75
1806.578	810.75
1810.924	797.75
1815.266	800.75
1819.603	801.75
1823.937	787.75
1828.266	773.75
1832.591	766.75
1836.913	756.75
1841.23	753.75
1845.543	760.75
1849.852	744.75
1854.156	757.75
1858.457	747.75
1862.754	758.75
1867.047	752.75
1871.335	764.75
1875.62	762.75
1879.9	767.75
1884.177	772.75
1888.449	764.75
1892.718	750.75
1896.982	755.75
1901.243	744.75
1905.499	748.75
1909.752	745.75
1914	744.75
1918.245	749.75
1922.485	747.75
1926.722	741.75
1930.954	747.75
1935.183	749.75
1939.408	754.75
1943.628	762.75
1947.845	752.75
1952.058	757.75
1956.267	737.75
1960.472	754.75
1964.673	728.75
1968.87	744.75
1973.063	729.75
1977.252	716.75
1981.438	726.75
1985.619	710.75
1989.797	720.75
1993.971	715.75
1998.14	722.75
2002.306	721.75
2006.469	722.75
2010.627	730.75
2014.781	729.75
2018.932	725.75
2023.078	721.75
2027.221	723.75
2031.36	721.75
2035.495	711.75
2039.627	714.75
2043.754	709.75
2047.878	711.75
2051.998	704.75
2056.114	698.75
2060.226	705.75
2064.334	695.75
2068.439	712.75
2072.54	710.75
2076.637	709.75
2080.73	722.75
2084.82	717.75
2088.906	713.75
2092.988	719.75
2097.066	719.75
2101.14	704.75
2105.211	708.75
2109.278	708.75
2113.342	699.75
2117.401	693.75
2121.457	700.75
2125.509	694.75
2129.558	696.75
2133.602	690.75
2137.643	675.75
2141.681	671.75
2145.714	677.75
2149.744	685.75
2153.77	673.75
2157.793	672.75
2161.812	672.75
2165.827	666.75
2169.838	658.75
2173.846	636.75
2177.851	625.75
2181.851	629.75
2185.848	613.75
2189.841	619.75
2193.831	599.75
2197.817	593.75
2201.799	610.75
2205.778	607.75
2209.753	595.75
2213.725	596.75
2217.693	596.75
2221.657	597.75
2225.618	600.75
2229.575	588.75
2233.529	589.75
2237.479	581.75
2241.425	582.75
2245.368	570.75
2249.307	566.75
2253.243	557.75
2257.175	547.75
2261.104	548.75
2265.029	549.75
2268.95	543.75
2272.868	540.75
2276.783	527.75
2280.694	520.75
2284.601	506.75
2288.505	508.75
2292.405	505.75
2296.302	496.75
2300.195	498.75
2304.085	483.75
2307.971	473.75
2311.854	473.75
2315.734	463.75
2319.609	455.75
2323.482	459.75
2327.351	448.75
2331.216	444.75
2335.078	446.75
2338.937	434.75
2342.792	432.75
2346.643	429.75
2350.492	417.75
2354.336	434.75
2358.178	432.75
2362.015	441.75
2365.85	436.75
2369.681	436.75
2373.508	432.75
2377.333	434.75
2381.153	429.75
2384.971	434.75
2388.785	427.75
2392.595	420.75
2396.402	427.75
2400.206	425.75
2404.007	428.75
2407.804	420.75
2411.597	429.75
2415.388	408.75
2419.174	413.75
2422.958	407.75
2426.738	412.75
2430.515	408.75
2434.289	418.75
2438.059	409.75
2441.825	408.75
2445.589	413.75
2449.349	394.75
2453.106	398.75
2456.859	392.75
2460.61	393.75
2464.356	394.75
2468.1	388.75
2471.84	383.75
2475.577	371.75
2479.311	384.75
2483.041	379.75
2486.768	382.75
2490.492	383.75
2494.213	383.75
2497.93	377.75
2501.644	391.75
2505.355	375.75
2509.062	374.75
2512.766	384.75
2516.467	373.75
2520.165	373.75
2523.859	361.75
2527.551	371.75
2531.239	363.75
2534.923	357.75
2538.605	355.75
2542.283	366.75
2545.958	353.75
2549.63	349.75
2553.299	349.75
2556.964	346.75
2560.626	340.75
2564.285	341.75
2567.941	345.75
2571.594	348.75
2575.243	345.75
2578.89	331.75
2582.533	334.75
2586.173	328.75
2589.809	326.75
2593.443	330.75
2597.073	328.75
2600.701	329.75
2604.325	326.75
2607.946	318.75
2611.564	313.75
2615.178	320.75
2618.79	320.75
2622.398	314.75
2626.004	315.75
2629.606	314.75
2633.205	313.75
2636.801	307.75
2640.394	312.75
2643.983	307.75
2647.57	298.75
2651.153	300.75
2654.734	295.75
2658.311	296.75
2661.885	289.75
2665.456	293.75
2669.025	294.75
2672.589	292.75
2676.151	282.75
2679.71	283.75
2683.266	280.75
2686.819	278.75
2690.368	275.75
2693.915	267.75
2697.458	270.75
2700.999	273.75
2704.536	261.75
2708.071	257.75
2711.602	259.75
2715.13	264.75
2718.656	258.75
2722.178	259.75
2725.697	250.75
2729.214	251.75
2732.727	249.75
2736.237	256.75
2739.744	260.75
2743.249	250.75
2746.75	258.75
2750.248	260.75
2753.743	251.75
2757.236	260.75
2760.725	260.75
2764.211	254.75
2767.695	249.75
2771.175	237.75
2774.652	249.75
2778.127	245.75
2781.598	256.75
2785.067	249.75
2788.532	248.75
2791.995	252.75
2795.455	249.75
2798.911	246.75
2802.365	248.75
2805.816	241.75
2809.264	252.75
2812.709	247.75
2816.151	249.75
2819.59	252.75
2823.026	247.75
2826.46	244.75
2829.89	246.75
2833.318	252.75
2836.742	245.75
2840.164	254.75
2843.583	251.75
2846.999	254.75
2850.412	257.75
2853.822	266.75
2857.229	265.75
2860.634	258.75
2864.035	259.75
2867.434	271.75
2870.83	281.75
2874.223	278.75
2877.613	281.75
2881	283.75
2884.385	282.75
2887.766	286.75
2891.145	286.75
2894.521	284.75
2897.894	280.75
2901.264	275.75
2904.631	290.75
2907.996	293.75
2911.358	288.75
2914.717	283.75
2918.073	296.75
2921.426	296.75
2924.777	303.75
2928.124	307.75
2931.469	309.75
2934.811	314.75
2938.15	313.75
2941.487	318.75
2944.821	327.75
2948.152	325.75
2951.48	332.75
2954.805	331.75
2958.128	336.75
2961.447	341.75
2964.765	343.75
2968.079	351.75
2971.39	362.75
2974.699	365.75
2978.005	375.75
2981.308	383.75
2984.609	386.75
2987.907	394.75
2991.202	398.75
2994.494	415.75
2997.784	426.75
3001.07	438.75
3004.355	447.75
3007.636	456.75
3010.915	471.75
3014.191	469.75
3017.464	476.75
3020.734	485.75
3024.002	495.75
3027.267	490.75
3030.53	525.75
3033.789	511.75
3037.046	520.75
3040.301	543.75
3043.552	535.75
3046.801	557.75
3050.048	579.75
3053.291	587.75
3056.532	590.75
3059.771	619.75
3063.006	630.75
3066.239	656.75
3069.469	672.75
3072.697	700.75
3075.922	715.75
3079.144	720.75
3082.364	737.75
3085.581	750.75
3088.795	786.75
3092.007	793.75
3095.216	808.75
3098.423	828.75
3101.627	832.75
3104.828	871.75
3108.026	882.75
3111.222	901.75
3114.416	920.75
3117.607	934.75
3120.795	955.75
3123.98	993.75
3127.163	999.75
3130.344	1014.75
3133.521	1044.75
3136.696	1052.75
3139.869	1071.75
3143.039	1108.75
3146.206	1133.75
3149.371	1133.75
3152.533	1168.75
3155.693	1149.75
3158.85	1154.75
3162.005	1175.75
3165.157	1175.75
3168.306	1186.75
3171.453	1180.75
3174.597	1189.75
3177.739	1193.75
3180.878	1208.75
3184.014	1204.75
3187.149	1179.75
3190.28	1206.75
3193.409	1203.75
3196.536	1224.75
3199.659	1220.75
3202.781	1225.75
3205.9	1217.75
3209.016	1215.75
3212.13	1201.75
3215.241	1210.75
3218.35	1196.75
3221.456	1184.75
3224.56	1196.75
3227.661	1172.75
3230.76	1171.75
3233.856	1169.75
3236.95	1142.75
3240.041	1134.75
3243.13	1128.75
3246.216	1113.75
3249.3	1117.75
3252.382	1101.75
3255.46	1101.75
3258.537	1092.75
3261.611	1084.75
3264.682	1095.75
3267.751	1079.75
3270.818	1073.75
3273.882	1068.75
3276.943	1069.75
3280.002	1040.75
3283.059	1031.75
3286.113	1035.75
3289.165	1016.75
3292.214	992.75
3295.261	987.75
3298.306	992.75
3301.348	953.75
3304.387	939.75
3307.425	924.75
3310.459	909.75
3313.492	910.75
3316.521	905.75
3319.549	890.75
3322.574	885.75
3325.597	875.75
3328.617	867.75
3331.635	866.75
3334.65	866.75
3337.663	837.75
3340.674	845.75
3343.682	841.75
3346.688	836.75
3349.691	840.75
3352.692	832.75
3355.691	830.75
3358.687	822.75
3361.681	809.75
3364.673	825.75
3367.662	804.75
3370.649	782.75
3373.633	779.75
3376.615	764.75
3379.595	743.75
3382.572	739.75
3385.547	736.75
3388.52	734.75
3391.49	712.75
3394.458	709.75
3397.424	701.75
3400.387	680.75
3403.348	675.75
3406.307	673.75
3409.263	669.75
3412.217	670.75
3415.168	647.75
3418.118	651.75
3421.065	652.75
3424.009	636.75
3426.951	618.75
3429.891	621.75
3432.829	601.75
3435.764	601.75
3438.697	597.75
3441.628	574.75
3444.557	563.75
3447.483	537.75
3450.407	518.75
3453.328	509.75
3456.247	505.75
3459.164	484.75
3462.079	475.75
3464.991	465.75
3467.902	457.75
3470.809	429.75
3473.715	415.75
3476.618	404.75
3479.519	407.75
3482.418	398.75
3485.315	377.75
3488.209	369.75
3491.101	359.75
3493.99	349.75
3496.878	335.75
3499.763	339.75
3502.646	329.75
3505.527	314.75
3508.405	302.75
3511.281	289.75
3514.155	277.75
3517.027	258.75
3519.897	246.75
3522.764	245.75
3525.629	235.75
3528.492	223.75
3531.352	212.75
3534.211	199.75
3537.067	194.75
3539.921	175.75
3542.773	176.75
3545.622	160.75
3548.469	153.75
3551.315	148.75
3554.157	142.75
3556.998	130.75
3559.837	119.75
3562.673	120.75
3565.507	112.75
3568.339	105.75
3571.169	102.75
3573.996	99.75
3576.822	91.75
3579.645	87.75
3582.466	80.75
3585.285	81.75
3588.101	71.75
3590.916	58.75
3593.728	59.75
3596.538	51.75
3599.346	45.75
3602.152	47.75
3604.956	47.75
3607.757	40.75
3610.556	33.75
3613.354	32.75
3616.149	24.75
3618.942	19.75
3621.732	18.75
3624.521	15.75
3627.307	14.75
3630.092	12.75
3632.874	12.75
3635.654	9.75
3638.432	5.75
3641.208	-0.25
3643.982	-3.25
3646.753	-1.25
3649.523	-0.25
3652.29	-6.25
3655.055	-13.25
3657.818	-10.25
3660.579	-13.25
3663.338	-20.25
3666.095	-20.25
3668.849	-25.25
3671.602	-25.25
3674.352	-33.25
3677.101	-27.25
3679.847	-31.25
3682.591	-32.25
3685.333	-34.25
3688.073	-36.25
3690.811	-34.25
3693.547	-39.25
3696.281	-41.25
3699.013	-41.25
3701.742	-38.25
3704.47	-45.25
3707.195	-42.25
3709.919	-42.25
3712.64	-52.25
3715.359	-47.25
3718.076	-50.25
3720.792	-49.25
3723.505	-48.25
3726.216	-50.25
3728.925	-55.25
3731.632	-56.25
3734.336	-51.25
3737.039	-55.25
3739.74	-53.25
3742.439	-54.25
3745.136	-56.25
3747.83	-56.25
3750.523	-57.25
3753.213	-54.25
3755.902	-56.25
3758.589	-58.25
3761.273	-60.25
3763.956	-58.25
3766.636	-58.25
3769.315	-58.25
3771.991	-60.25
3774.665	-62.25
3777.338	-61.25
3780.008	-60.25
3782.677	-62.25
3785.343	-60.25
3788.007	-62.25
3790.67	-66.25
3793.33	-64.25
3795.989	-65.25
3798.645	-64.25
3801.299	-60.25
3803.952	-63.25
3806.602	-65.25
3809.251	-67.25
3811.897	-66.25
3814.542	-71.25
3817.184	-66.25
3819.825	-66.25
3822.463	-65.25
3825.1	-66.25
3827.735	-64.25
3830.367	-71.25
3832.998	-63.25
3835.627	-69.25
3838.253	-67.25
3840.878	-72.25
3843.501	-67.25
3846.122	-67.25
3848.741	-73.25
3851.358	-73.25
3853.973	-67.25
3856.586	-68.25
3859.197	-72.25
3861.806	-74.25
3864.414	-71.25
3867.019	-71.25
3869.622	-65.25
3872.224	-69.25
3874.823	-68.25
3877.421	-69.25
3880.016	-70.25
3882.61	-72.25
3885.202	-68.25
3887.792	-67.25
3890.38	-68.25
3892.966	-65.25
3895.55	-68.25
3898.132	-76.25
3900.713	-75.25
3903.291	-78.25
3905.868	-72.25
3908.442	-74.25
3911.015	-71.25
3913.586	-72.25
3916.155	-68.25
3918.722	-74.25
3921.287	-71.25
3923.85	-75.25
3926.411	-76.25
3928.971	-73.25
3931.528	-75.25
3934.084	-75.25
3936.638	-74.25
3939.19	-74.25
3941.74	-75.25
3944.288	-76.25
3946.834	-76.25
3949.378	-75.25
3951.921	-74.25
3954.462	-74.25
3957	-70.25
3959.537	-75.25
3962.072	-72.25
3964.606	-75.25
3967.137	-77.25
3969.667	-75.25
3972.194	-76.25
3974.72	-75.25
3977.244	-74.25
3979.766	-73.25
3982.286	-68.25
3984.805	-76.25
3987.321	-75.25
3989.836	-76.25
3992.349	-73.25
3994.86	-72.25
3997.369	-71.25
3999.877	-70.25
4002.382	-72.25
4004.886	-74.25
4007.388	-74.25
4009.888	-72.25
4012.386	-72.25
4014.883	-73.25
4017.377	-75.25
4019.87	-72.25
4022.361	-72.25
4024.85	-73.25
4027.338	-73.25
4029.823	-70.25
4032.307	-68.25
4034.789	-72.25
4037.269	-75.25
4039.747	-76.25
4042.224	-73.25
4044.699	-71.25
4047.172	-72.25
4049.643	-70.25
4052.112	-74.25
4054.58	-76.25
4057.046	-73.25
4059.51	-76.25
4061.972	-71.25
4064.432	-72.25
4066.891	-72.25
4069.348	-74.25
4071.803	-73.25
4074.256	-77.25
4076.708	-78.25
4079.158	-76.25
4081.606	-72.25
4084.052	-75.25
4086.497	-71.25
4088.939	-76.25
4091.38	-74.25
4093.819	-73.25
4096.257	-77.25
4098.693	-76.25
4101.127	-77.25
4103.559	-77.25
4105.989	-24.25
4108.418	-24.25
4110.845	-16.25
4113.27	-16.25
4115.694	-13.25
4118.115	-9.25
4120.535	-76.25
4122.954	-74.25
4125.37	-76.25
4127.785	-76.25
4130.198	-74.25
4132.609	-77.25
4135.019	-78.25
4137.427	-76.25
4139.833	-75.25
4142.237	-78.25
