Data from 100000CFU2_B_ramanshift_RamanShift_15-01-57-683.txt Node
Date: Sun Dec 25 15:01:57 IST 2016
User: aro
Spectrometer: QEPB0276
Trigger mode: 0
Integration Time (sec): 5.000000E0
Scans to average: 1
Electric dark correction enabled: true
Nonlinearity correction enabled: false
Boxcar width: 0
XAxis mode: Raman Shifts
Number of Pixels in Spectrum: 1044
>>>>>Begin Spectral Data<<<<<
160.701	1.62
166.742	17.62
172.777	66.62
178.805	206.62
184.826	611.62
190.841	1445.62
196.849	2692.62
202.85	3850.62
208.845	4422.62
214.833	4447.62
220.815	4262.62
226.789	4126.62
232.758	4006.62
238.719	3884.62
244.674	3757.62
250.623	3601.62
256.565	3446.62
262.5	3280.62
268.429	3088.62
274.351	3005.62
280.267	2863.62
286.176	2751.62
292.079	2629.62
297.975	2543.62
303.865	2464.62
309.748	2389.62
315.625	2331.62
321.495	2257.62
327.359	2213.62
333.217	2187.62
339.068	2171.62
344.912	2133.62
350.751	2125.62
356.583	2113.62
362.408	2112.62
368.227	2106.62
374.04	2124.62
379.847	2127.62
385.647	2130.62
391.44	2127.62
397.228	2142.62
403.009	2178.62
408.784	2181.62
414.553	2179.62
420.315	2214.62
426.071	2185.62
431.821	2197.62
437.565	2200.62
443.302	2208.62
449.033	2207.62
454.758	2185.62
460.477	2159.62
466.189	2171.62
471.896	2144.62
477.596	2164.62
483.29	2157.62
488.978	2125.62
494.66	2130.62
500.335	2116.62
506.005	2065.62
511.668	2047.62
517.325	2010.62
522.977	1989.62
528.622	1944.62
534.261	1951.62
539.894	1928.62
545.521	1902.62
551.141	1883.62
556.756	1886.62
562.365	1856.62
567.968	1850.62
573.565	1826.62
579.155	1815.62
584.74	1808.62
590.319	1784.62
595.892	1803.62
601.459	1784.62
607.02	1790.62
612.575	1763.62
618.124	1748.62
623.667	1706.62
629.204	1712.62
634.735	1695.62
640.261	1672.62
645.781	1660.62
651.294	1679.62
656.802	1663.62
662.304	1648.62
667.8	1644.62
673.29	1639.62
678.775	1630.62
684.254	1646.62
689.726	1628.62
695.193	1625.62
700.655	1608.62
706.11	1598.62
711.56	1591.62
717.004	1585.62
722.442	1572.62
727.874	1567.62
733.301	1557.62
738.722	1540.62
744.137	1540.62
749.547	1537.62
754.951	1529.62
760.349	1531.62
765.741	1528.62
771.128	1527.62
776.509	1519.62
781.885	1518.62
787.254	1513.62
792.618	1503.62
797.977	1512.62
803.33	1491.62
808.677	1493.62
814.019	1468.62
819.355	1458.62
824.686	1445.62
830.011	1446.62
835.33	1443.62
840.644	1428.62
845.952	1423.62
851.255	1404.62
856.552	1406.62
861.844	1396.62
867.13	1399.62
872.41	1411.62
877.686	1400.62
882.955	1402.62
888.219	1409.62
893.478	1367.62
898.731	1340.62
903.979	1304.62
909.221	1279.62
914.458	1269.62
919.69	1270.62
924.916	1254.62
930.136	1249.62
935.351	1242.62
940.561	1240.62
945.766	1231.62
950.965	1243.62
956.158	1226.62
961.347	1219.62
966.529	1197.62
971.707	1191.62
976.879	1172.62
982.046	1162.62
987.208	1154.62
992.364	1141.62
997.515	1134.62
1002.66	1146.62
1007.801	1146.62
1012.936	1166.62
1018.066	1181.62
1023.19	1201.62
1028.309	1199.62
1033.423	1187.62
1038.532	1195.62
1043.636	1185.62
1048.734	1195.62
1053.827	1188.62
1058.915	1160.62
1063.998	1154.62
1069.075	1149.62
1074.147	1133.62
1079.214	1141.62
1084.276	1157.62
1089.333	1170.62
1094.385	1185.62
1099.431	1175.62
1104.472	1177.62
1109.509	1174.62
1114.54	1173.62
1119.565	1156.62
1124.586	1149.62
1129.602	1129.62
1134.613	1117.62
1139.618	1109.62
1144.619	1115.62
1149.614	1118.62
1154.604	1122.62
1159.589	1126.62
1164.57	1136.62
1169.545	1128.62
1174.515	1141.62
1179.48	1151.62
1184.44	1138.62
1189.395	1113.62
1194.345	1126.62
1199.29	1130.62
1204.23	1096.62
1209.165	1105.62
1214.095	1125.62
1219.021	1132.62
1223.941	1132.62
1228.856	1140.62
1233.766	1140.62
1238.672	1156.62
1243.572	1148.62
1248.467	1133.62
1253.358	1147.62
1258.244	1112.62
1263.124	1125.62
1268	1096.62
1272.871	1092.62
1277.737	1069.62
1282.599	1083.62
1287.455	1078.62
1292.306	1080.62
1297.153	1092.62
1301.995	1081.62
1306.832	1088.62
1311.664	1093.62
1316.491	1107.62
1321.314	1108.62
1326.132	1099.62
1330.945	1095.62
1335.753	1085.62
1340.556	1057.62
1345.354	1039.62
1350.148	1041.62
1354.937	1056.62
1359.722	1029.62
1364.501	1027.62
1369.276	1018.62
1374.046	1013.62
1378.811	996.62
1383.572	980.62
1388.327	964.62
1393.079	994.62
1397.825	986.62
1402.567	982.62
1407.304	978.62
1412.036	979.62
1416.764	967.62
1421.487	978.62
1426.205	975.62
1430.919	984.62
1435.628	972.62
1440.333	1008.62
1445.032	1012.62
1449.727	1015.62
1454.418	1019.62
1459.104	1034.62
1463.785	1024.62
1468.462	1018.62
1473.134	1004.62
1477.802	995.62
1482.465	1000.62
1487.123	981.62
1491.777	986.62
1496.426	990.62
1501.071	996.62
1505.711	999.62
1510.347	1008.62
1514.978	1001.62
1519.604	1012.62
1524.226	1037.62
1528.844	1024.62
1533.457	1014.62
1538.065	1032.62
1542.669	1020.62
1547.269	1007.62
1551.864	1021.62
1556.454	1029.62
1561.041	1038.62
1565.622	1041.62
1570.199	1053.62
1574.772	1086.62
1579.34	1086.62
1583.904	1103.62
1588.464	1127.62
1593.019	1138.62
1597.569	1163.62
1602.115	1157.62
1606.657	1190.62
1611.195	1196.62
1615.728	1187.62
1620.256	1202.62
1624.78	1234.62
1629.3	1246.62
1633.816	1245.62
1638.327	1288.62
1642.834	1286.62
1647.336	1302.62
1651.834	1310.62
1656.328	1302.62
1660.817	1311.62
1665.302	1299.62
1669.783	1268.62
1674.259	1256.62
1678.732	1222.62
1683.199	1191.62
1687.663	1147.62
1692.122	1105.62
1696.577	1086.62
1701.028	1041.62
1705.474	987.62
1709.917	952.62
1714.355	916.62
1718.788	893.62
1723.218	897.62
1727.643	882.62
1732.064	850.62
1736.481	840.62
1740.893	822.62
1745.301	798.62
1749.705	779.62
1754.105	756.62
1758.501	747.62
1762.893	735.62
1767.28	727.62
1771.663	712.62
1776.042	710.62
1780.417	704.62
1784.787	695.62
1789.154	697.62
1793.516	710.62
1797.874	705.62
1802.228	704.62
1806.578	691.62
1810.924	674.62
1815.266	666.62
1819.603	653.62
1823.937	650.62
1828.266	635.62
1832.591	639.62
1836.913	632.62
1841.23	633.62
1845.543	630.62
1849.852	631.62
1854.156	641.62
1858.457	638.62
1862.754	649.62
1867.047	643.62
1871.335	661.62
1875.62	637.62
1879.9	647.62
1884.177	653.62
1888.449	662.62
1892.718	652.62
1896.982	634.62
1901.243	637.62
1905.499	632.62
1909.752	639.62
1914	645.62
1918.245	633.62
1922.485	632.62
1926.722	636.62
1930.954	648.62
1935.183	641.62
1939.408	648.62
1943.628	645.62
1947.845	642.62
1952.058	632.62
1956.267	636.62
1960.472	630.62
1964.673	621.62
1968.87	624.62
1973.063	617.62
1977.252	605.62
1981.438	608.62
1985.619	609.62
1989.797	602.62
1993.971	609.62
1998.14	621.62
2002.306	617.62
2006.469	627.62
2010.627	624.62
2014.781	620.62
2018.932	635.62
2023.078	614.62
2027.221	629.62
2031.36	618.62
2035.495	616.62
2039.627	606.62
2043.754	612.62
2047.878	590.62
2051.998	603.62
2056.114	595.62
2060.226	614.62
2064.334	622.62
2068.439	617.62
2072.54	615.62
2076.637	622.62
2080.73	616.62
2084.82	629.62
2088.906	622.62
2092.988	630.62
2097.066	626.62
2101.14	623.62
2105.211	619.62
2109.278	616.62
2113.342	618.62
2117.401	605.62
2121.457	616.62
2125.509	607.62
2129.558	599.62
2133.602	605.62
2137.643	608.62
2141.681	593.62
2145.714	594.62
2149.744	594.62
2153.77	592.62
2157.793	592.62
2161.812	580.62
2165.827	574.62
2169.838	571.62
2173.846	546.62
2177.851	555.62
2181.851	550.62
2185.848	543.62
2189.841	546.62
2193.831	527.62
2197.817	531.62
2201.799	527.62
2205.778	521.62
2209.753	515.62
2213.725	516.62
2217.693	518.62
2221.657	515.62
2225.618	521.62
2229.575	516.62
2233.529	519.62
2237.479	506.62
2241.425	510.62
2245.368	503.62
2249.307	495.62
2253.243	482.62
2257.175	485.62
2261.104	473.62
2265.029	470.62
2268.95	459.62
2272.868	462.62
2276.783	453.62
2280.694	449.62
2284.601	453.62
2288.505	442.62
2292.405	431.62
2296.302	433.62
2300.195	428.62
2304.085	425.62
2307.971	414.62
2311.854	409.62
2315.734	395.62
2319.609	408.62
2323.482	382.62
2327.351	393.62
2331.216	388.62
2335.078	375.62
2338.937	388.62
2342.792	384.62
2346.643	379.62
2350.492	378.62
2354.336	377.62
2358.178	370.62
2362.015	380.62
2365.85	378.62
2369.681	380.62
2373.508	377.62
2377.333	387.62
2381.153	387.62
2384.971	375.62
2388.785	376.62
2392.595	376.62
2396.402	372.62
2400.206	368.62
2404.007	374.62
2407.804	368.62
2411.597	361.62
2415.388	365.62
2419.174	361.62
2422.958	365.62
2426.738	362.62
2430.515	359.62
2434.289	360.62
2438.059	353.62
2441.825	352.62
2445.589	354.62
2449.349	350.62
2453.106	340.62
2456.859	343.62
2460.61	342.62
2464.356	344.62
2468.1	333.62
2471.84	332.62
2475.577	332.62
2479.311	336.62
2483.041	338.62
2486.768	337.62
2490.492	333.62
2494.213	339.62
2497.93	336.62
2501.644	326.62
2505.355	329.62
2509.062	331.62
2512.766	331.62
2516.467	327.62
2520.165	324.62
2523.859	321.62
2527.551	314.62
2531.239	308.62
2534.923	310.62
2538.605	310.62
2542.283	312.62
2545.958	311.62
2549.63	316.62
2553.299	304.62
2556.964	305.62
2560.626	304.62
2564.285	307.62
2567.941	299.62
2571.594	291.62
2575.243	299.62
2578.89	297.62
2582.533	294.62
2586.173	289.62
2589.809	289.62
2593.443	290.62
2597.073	284.62
2600.701	278.62
2604.325	277.62
2607.946	282.62
2611.564	274.62
2615.178	283.62
2618.79	293.62
2622.398	276.62
2626.004	275.62
2629.606	272.62
2633.205	274.62
2636.801	259.62
2640.394	262.62
2643.983	262.62
2647.57	258.62
2651.153	262.62
2654.734	259.62
2658.311	251.62
2661.885	250.62
2665.456	250.62
2669.025	253.62
2672.589	241.62
2676.151	246.62
2679.71	247.62
2683.266	244.62
2686.819	244.62
2690.368	239.62
2693.915	234.62
2697.458	231.62
2700.999	244.62
2704.536	229.62
2708.071	222.62
2711.602	234.62
2715.13	233.62
2718.656	225.62
2722.178	233.62
2725.697	224.62
2729.214	222.62
2732.727	220.62
2736.237	232.62
2739.744	234.62
2743.249	228.62
2746.75	227.62
2750.248	225.62
2753.743	222.62
2757.236	221.62
2760.725	232.62
2764.211	221.62
2767.695	221.62
2771.175	212.62
2774.652	217.62
2778.127	212.62
2781.598	214.62
2785.067	213.62
2788.532	217.62
2791.995	213.62
2795.455	221.62
2798.911	216.62
2802.365	216.62
2805.816	225.62
2809.264	223.62
2812.709	225.62
2816.151	225.62
2819.59	223.62
2823.026	221.62
2826.46	223.62
2829.89	222.62
2833.318	233.62
2836.742	224.62
2840.164	231.62
2843.583	228.62
2846.999	224.62
2850.412	234.62
2853.822	237.62
2857.229	244.62
2860.634	244.62
2864.035	236.62
2867.434	255.62
2870.83	249.62
2874.223	255.62
2877.613	258.62
2881	264.62
2884.385	263.62
2887.766	270.62
2891.145	268.62
2894.521	262.62
2897.894	269.62
2901.264	268.62
2904.631	270.62
2907.996	271.62
2911.358	267.62
2914.717	269.62
2918.073	279.62
2921.426	291.62
2924.777	289.62
2928.124	299.62
2931.469	299.62
2934.811	303.62
2938.15	312.62
2941.487	317.62
2944.821	319.62
2948.152	329.62
2951.48	330.62
2954.805	334.62
2958.128	334.62
2961.447	333.62
2964.765	340.62
2968.079	345.62
2971.39	361.62
2974.699	366.62
2978.005	364.62
2981.308	370.62
2984.609	387.62
2987.907	396.62
2991.202	399.62
2994.494	412.62
2997.784	416.62
3001.07	424.62
3004.355	440.62
3007.636	449.62
3010.915	466.62
3014.191	467.62
3017.464	472.62
3020.734	477.62
3024.002	484.62
3027.267	482.62
3030.53	506.62
3033.789	511.62
3037.046	520.62
3040.301	539.62
3043.552	549.62
3046.801	547.62
3050.048	582.62
3053.291	593.62
3056.532	595.62
3059.771	627.62
3063.006	636.62
3066.239	663.62
3069.469	682.62
3072.697	696.62
3075.922	714.62
3079.144	715.62
3082.364	751.62
3085.581	772.62
3088.795	799.62
3092.007	802.62
3095.216	821.62
3098.423	831.62
3101.627	855.62
3104.828	860.62
3108.026	879.62
3111.222	913.62
3114.416	930.62
3117.607	945.62
3120.795	970.62
3123.98	987.62
3127.163	1002.62
3130.344	1034.62
3133.521	1048.62
3136.696	1065.62
3139.869	1097.62
3143.039	1105.62
3146.206	1144.62
3149.371	1157.62
3152.533	1152.62
3155.693	1179.62
3158.85	1178.62
3162.005	1180.62
3165.157	1200.62
3168.306	1194.62
3171.453	1199.62
3174.597	1215.62
3177.739	1198.62
3180.878	1222.62
3184.014	1214.62
3187.149	1213.62
3190.28	1216.62
3193.409	1219.62
3196.536	1219.62
3199.659	1226.62
3202.781	1239.62
3205.9	1224.62
3209.016	1253.62
3212.13	1242.62
3215.241	1233.62
3218.35	1208.62
3221.456	1197.62
3224.56	1200.62
3227.661	1175.62
3230.76	1179.62
3233.856	1160.62
3236.95	1147.62
3240.041	1151.62
3243.13	1127.62
3246.216	1124.62
3249.3	1106.62
3252.382	1105.62
3255.46	1114.62
3258.537	1108.62
3261.611	1087.62
3264.682	1083.62
3267.751	1090.62
3270.818	1075.62
3273.882	1066.62
3276.943	1064.62
3280.002	1049.62
3283.059	1046.62
3286.113	1031.62
3289.165	1028.62
3292.214	999.62
3295.261	993.62
3298.306	979.62
3301.348	962.62
3304.387	954.62
3307.425	934.62
3310.459	930.62
3313.492	921.62
3316.521	898.62
3319.549	900.62
3322.574	883.62
3325.597	871.62
3328.617	877.62
3331.635	869.62
3334.65	863.62
3337.663	848.62
3340.674	864.62
3343.682	849.62
3346.688	833.62
3349.691	829.62
3352.692	836.62
3355.691	827.62
3358.687	822.62
3361.681	814.62
3364.673	809.62
3367.662	795.62
3370.649	792.62
3373.633	790.62
3376.615	765.62
3379.595	750.62
3382.572	748.62
3385.547	738.62
3388.52	734.62
3391.49	724.62
3394.458	707.62
3397.424	692.62
3400.387	704.62
3403.348	688.62
3406.307	679.62
3409.263	673.62
3412.217	671.62
3415.168	661.62
3418.118	656.62
3421.065	656.62
3424.009	635.62
3426.951	619.62
3429.891	612.62
3432.829	610.62
3435.764	597.62
3438.697	585.62
3441.628	582.62
3444.557	564.62
3447.483	537.62
3450.407	532.62
3453.328	512.62
3456.247	502.62
3459.164	487.62
3462.079	474.62
3464.991	465.62
3467.902	446.62
3470.809	437.62
3473.715	413.62
3476.618	406.62
3479.519	393.62
3482.418	395.62
3485.315	383.62
3488.209	370.62
3491.101	353.62
3493.99	341.62
3496.878	343.62
3499.763	328.62
3502.646	325.62
3505.527	322.62
3508.405	295.62
3511.281	283.62
3514.155	269.62
3517.027	261.62
3519.897	256.62
3522.764	247.62
3525.629	240.62
3528.492	218.62
3531.352	215.62
3534.211	206.62
3537.067	190.62
3539.921	175.62
3542.773	175.62
3545.622	173.62
3548.469	160.62
3551.315	153.62
3554.157	145.62
3556.998	134.62
3559.837	127.62
3562.673	116.62
3565.507	112.62
3568.339	109.62
3571.169	100.62
3573.996	96.62
3576.822	92.62
3579.645	89.62
3582.466	85.62
3585.285	82.62
3588.101	67.62
3590.916	60.62
3593.728	58.62
3596.538	56.62
3599.346	50.62
3602.152	52.62
3604.956	47.62
3607.757	41.62
3610.556	36.62
3613.354	34.62
3616.149	23.62
3618.942	23.62
3621.732	25.62
3624.521	21.62
3627.307	19.62
3630.092	18.62
3632.874	16.62
3635.654	7.62
3638.432	5.62
3641.208	5.62
3643.982	-1.38
3646.753	2.62
3649.523	-0.38
3652.29	-2.38
3655.055	-11.38
3657.818	-10.38
3660.579	-13.38
3663.338	-14.38
3666.095	-15.38
3668.849	-20.38
3671.602	-23.38
3674.352	-29.38
3677.101	-23.38
3679.847	-26.38
3682.591	-29.38
3685.333	-32.38
3688.073	-33.38
3690.811	-37.38
3693.547	-37.38
3696.281	-36.38
3699.013	-39.38
3701.742	-40.38
3704.47	-35.38
3707.195	-40.38
3709.919	-44.38
3712.64	-48.38
3715.359	-45.38
3718.076	-46.38
3720.792	-49.38
3723.505	-45.38
3726.216	-48.38
3728.925	-49.38
3731.632	-53.38
3734.336	-47.38
3737.039	-54.38
3739.74	-52.38
3742.439	-48.38
3745.136	-54.38
3747.83	-50.38
3750.523	-57.38
3753.213	-51.38
3755.902	-53.38
3758.589	-56.38
3761.273	-54.38
3763.956	-53.38
3766.636	-52.38
3769.315	-56.38
3771.991	-58.38
3774.665	-55.38
3777.338	-56.38
3780.008	-59.38
3782.677	-57.38
3785.343	-57.38
3788.007	-59.38
3790.67	-61.38
3793.33	-58.38
3795.989	-61.38
3798.645	-60.38
3801.299	-58.38
3803.952	-60.38
3806.602	-62.38
3809.251	-60.38
3811.897	-62.38
3814.542	-62.38
3817.184	-60.38
3819.825	-61.38
3822.463	-62.38
3825.1	-64.38
3827.735	-64.38
3830.367	-67.38
3832.998	-66.38
3835.627	-62.38
3838.253	-64.38
3840.878	-66.38
3843.501	-65.38
3846.122	-63.38
3848.741	-68.38
3851.358	-72.38
3853.973	-65.38
3856.586	-63.38
3859.197	-65.38
3861.806	-65.38
3864.414	-65.38
3867.019	-67.38
3869.622	-63.38
3872.224	-67.38
3874.823	-69.38
3877.421	-64.38
3880.016	-64.38
3882.61	-61.38
3885.202	-58.38
3887.792	-63.38
3890.38	-65.38
3892.966	-65.38
3895.55	-70.38
3898.132	-70.38
3900.713	-71.38
3903.291	-66.38
3905.868	-66.38
3908.442	-68.38
3911.015	-69.38
3913.586	-71.38
3916.155	-68.38
3918.722	-70.38
3921.287	-66.38
3923.85	-68.38
3926.411	-67.38
3928.971	-68.38
3931.528	-69.38
3934.084	-69.38
3936.638	-75.38
3939.19	-69.38
3941.74	-71.38
3944.288	-72.38
3946.834	-69.38
3949.378	-68.38
3951.921	-66.38
3954.462	-69.38
3957	-70.38
3959.537	-70.38
3962.072	-68.38
3964.606	-66.38
3967.137	-68.38
3969.667	-68.38
3972.194	-70.38
3974.72	-73.38
3977.244	-67.38
3979.766	-70.38
3982.286	-70.38
3984.805	-73.38
3987.321	-70.38
3989.836	-67.38
3992.349	-69.38
3994.86	-64.38
3997.369	-64.38
3999.877	-68.38
4002.382	-70.38
4004.886	-67.38
4007.388	-68.38
4009.888	-67.38
4012.386	-65.38
4014.883	-68.38
4017.377	-68.38
4019.87	-68.38
4022.361	-71.38
4024.85	-68.38
4027.338	-71.38
4029.823	-63.38
4032.307	-63.38
4034.789	-66.38
4037.269	-70.38
4039.747	-73.38
4042.224	-74.38
4044.699	-70.38
4047.172	-70.38
4049.643	-66.38
4052.112	-69.38
4054.58	-69.38
4057.046	-70.38
4059.51	-68.38
4061.972	-69.38
4064.432	-66.38
4066.891	-71.38
4069.348	-71.38
4071.803	-68.38
4074.256	-70.38
4076.708	-70.38
4079.158	-70.38
4081.606	-62.38
4084.052	-71.38
4086.497	-70.38
4088.939	-74.38
4091.38	-73.38
4093.819	-71.38
4096.257	-73.38
4098.693	-72.38
4101.127	-74.38
4103.559	-73.38
4105.989	-23.38
4108.418	-20.38
4110.845	-17.38
4113.27	-15.38
4115.694	-13.38
4118.115	-8.38
4120.535	-73.38
4122.954	-68.38
4125.37	-70.38
4127.785	-68.38
4130.198	-70.38
4132.609	-72.38
4135.019	-77.38
4137.427	-71.38
4139.833	-71.38
4142.237	-72.38
