Data from 100000CFU1_A_ramanshift_RamanShift_14-19-10-463.txt Node
Date: Sun Dec 25 14:19:10 IST 2016
User: aro
Spectrometer: QEPB0276
Trigger mode: 0
Integration Time (sec): 5.000000E0
Scans to average: 1
Electric dark correction enabled: true
Nonlinearity correction enabled: false
Boxcar width: 0
XAxis mode: Raman Shifts
Number of Pixels in Spectrum: 1044
>>>>>Begin Spectral Data<<<<<
160.701	4.62
166.742	18.62
172.777	68.62
178.805	219.62
184.826	645.62
190.841	1527.62
196.849	2808.62
202.85	4016.62
208.845	4614.62
214.833	4633.62
220.815	4431.62
226.789	4284.62
232.758	4168.62
238.719	4017.62
244.674	3920.62
250.623	3747.62
256.565	3559.62
262.5	3428.62
268.429	3230.62
274.351	3103.62
280.267	2945.62
286.176	2838.62
292.079	2737.62
297.975	2650.62
303.865	2559.62
309.748	2456.62
315.625	2425.62
321.495	2342.62
327.359	2307.62
333.217	2274.62
339.068	2239.62
344.912	2216.62
350.751	2181.62
356.583	2187.62
362.408	2197.62
368.227	2204.62
374.04	2196.62
379.847	2189.62
385.647	2217.62
391.44	2237.62
397.228	2251.62
403.009	2237.62
408.784	2250.62
414.553	2276.62
420.315	2278.62
426.071	2277.62
431.821	2269.62
437.565	2292.62
443.302	2284.62
449.033	2271.62
454.758	2267.62
460.477	2259.62
466.189	2238.62
471.896	2236.62
477.596	2210.62
483.29	2202.62
488.978	2214.62
494.66	2193.62
500.335	2180.62
506.005	2154.62
511.668	2119.62
517.325	2095.62
522.977	2046.62
528.622	2018.62
534.261	1995.62
539.894	1995.62
545.521	1983.62
551.141	1950.62
556.756	1929.62
562.365	1919.62
567.968	1924.62
573.565	1902.62
579.155	1889.62
584.74	1860.62
590.319	1868.62
595.892	1842.62
601.459	1847.62
607.02	1817.62
612.575	1818.62
618.124	1792.62
623.667	1790.62
629.204	1771.62
634.735	1772.62
640.261	1747.62
645.781	1722.62
651.294	1732.62
656.802	1725.62
662.304	1725.62
667.8	1686.62
673.29	1689.62
678.775	1692.62
684.254	1701.62
689.726	1657.62
695.193	1663.62
700.655	1641.62
706.11	1656.62
711.56	1645.62
717.004	1635.62
722.442	1615.62
727.874	1617.62
733.301	1610.62
738.722	1592.62
744.137	1583.62
749.547	1569.62
754.951	1569.62
760.349	1571.62
765.741	1582.62
771.128	1556.62
776.509	1567.62
781.885	1560.62
787.254	1568.62
792.618	1566.62
797.977	1538.62
803.33	1541.62
808.677	1538.62
814.019	1526.62
819.355	1524.62
824.686	1510.62
830.011	1481.62
835.33	1480.62
840.644	1459.62
845.952	1464.62
851.255	1464.62
856.552	1449.62
861.844	1466.62
867.13	1458.62
872.41	1461.62
877.686	1476.62
882.955	1510.62
888.219	1507.62
893.478	1481.62
898.731	1410.62
903.979	1352.62
909.221	1328.62
914.458	1312.62
919.69	1298.62
924.916	1283.62
930.136	1284.62
935.351	1293.62
940.561	1281.62
945.766	1258.62
950.965	1280.62
956.158	1275.62
961.347	1246.62
966.529	1230.62
971.707	1215.62
976.879	1202.62
982.046	1184.62
987.208	1173.62
992.364	1167.62
997.515	1174.62
1002.66	1188.62
1007.801	1204.62
1012.936	1185.62
1018.066	1218.62
1023.19	1214.62
1028.309	1222.62
1033.423	1225.62
1038.532	1241.62
1043.636	1232.62
1048.734	1249.62
1053.827	1240.62
1058.915	1212.62
1063.998	1191.62
1069.075	1195.62
1074.147	1182.62
1079.214	1184.62
1084.276	1198.62
1089.333	1222.62
1094.385	1230.62
1099.431	1232.62
1104.472	1246.62
1109.509	1218.62
1114.54	1194.62
1119.565	1206.62
1124.586	1185.62
1129.602	1169.62
1134.613	1156.62
1139.618	1156.62
1144.619	1156.62
1149.614	1142.62
1154.604	1136.62
1159.589	1161.62
1164.57	1175.62
1169.545	1163.62
1174.515	1174.62
1179.48	1180.62
1184.44	1173.62
1189.395	1147.62
1194.345	1144.62
1199.29	1136.62
1204.23	1139.62
1209.165	1144.62
1214.095	1138.62
1219.021	1152.62
1223.941	1168.62
1228.856	1180.62
1233.766	1180.62
1238.672	1193.62
1243.572	1162.62
1248.467	1170.62
1253.358	1169.62
1258.244	1160.62
1263.124	1153.62
1268	1123.62
1272.871	1113.62
1277.737	1105.62
1282.599	1113.62
1287.455	1108.62
1292.306	1117.62
1297.153	1119.62
1301.995	1119.62
1306.832	1123.62
1311.664	1118.62
1316.491	1136.62
1321.314	1130.62
1326.132	1134.62
1330.945	1119.62
1335.753	1107.62
1340.556	1077.62
1345.354	1075.62
1350.148	1062.62
1354.937	1057.62
1359.722	1061.62
1364.501	1041.62
1369.276	1040.62
1374.046	1035.62
1378.811	1022.62
1383.572	1042.62
1388.327	1016.62
1393.079	1025.62
1397.825	1024.62
1402.567	1019.62
1407.304	1000.62
1412.036	1003.62
1416.764	991.62
1421.487	1003.62
1426.205	1000.62
1430.919	1016.62
1435.628	1028.62
1440.333	1030.62
1445.032	1041.62
1449.727	1061.62
1454.418	1081.62
1459.104	1098.62
1463.785	1081.62
1468.462	1079.62
1473.134	1060.62
1477.802	1038.62
1482.465	1010.62
1487.123	1012.62
1491.777	1010.62
1496.426	1021.62
1501.071	1015.62
1505.711	1026.62
1510.347	1034.62
1514.978	1033.62
1519.604	1045.62
1524.226	1063.62
1528.844	1053.62
1533.457	1061.62
1538.065	1058.62
1542.669	1053.62
1547.269	1051.62
1551.864	1048.62
1556.454	1045.62
1561.041	1060.62
1565.622	1067.62
1570.199	1080.62
1574.772	1100.62
1579.34	1114.62
1583.904	1120.62
1588.464	1147.62
1593.019	1160.62
1597.569	1185.62
1602.115	1186.62
1606.657	1196.62
1611.195	1225.62
1615.728	1214.62
1620.256	1227.62
1624.78	1269.62
1629.3	1273.62
1633.816	1291.62
1638.327	1308.62
1642.834	1316.62
1647.336	1344.62
1651.834	1359.62
1656.328	1340.62
1660.817	1346.62
1665.302	1337.62
1669.783	1305.62
1674.259	1266.62
1678.732	1248.62
1683.199	1207.62
1687.663	1175.62
1692.122	1123.62
1696.577	1106.62
1701.028	1060.62
1705.474	1009.62
1709.917	966.62
1714.355	944.62
1718.788	915.62
1723.218	914.62
1727.643	898.62
1732.064	884.62
1736.481	861.62
1740.893	840.62
1745.301	810.62
1749.705	792.62
1754.105	770.62
1758.501	758.62
1762.893	740.62
1767.28	729.62
1771.663	723.62
1776.042	714.62
1780.417	718.62
1784.787	706.62
1789.154	714.62
1793.516	714.62
1797.874	713.62
1802.228	717.62
1806.578	697.62
1810.924	694.62
1815.266	677.62
1819.603	670.62
1823.937	657.62
1828.266	651.62
1832.591	654.62
1836.913	646.62
1841.23	641.62
1845.543	640.62
1849.852	634.62
1854.156	638.62
1858.457	646.62
1862.754	640.62
1867.047	642.62
1871.335	649.62
1875.62	654.62
1879.9	662.62
1884.177	661.62
1888.449	646.62
1892.718	653.62
1896.982	641.62
1901.243	652.62
1905.499	638.62
1909.752	641.62
1914	646.62
1918.245	629.62
1922.485	640.62
1926.722	641.62
1930.954	640.62
1935.183	653.62
1939.408	657.62
1943.628	650.62
1947.845	641.62
1952.058	643.62
1956.267	650.62
1960.472	641.62
1964.673	638.62
1968.87	625.62
1973.063	620.62
1977.252	611.62
1981.438	615.62
1985.619	614.62
1989.797	617.62
1993.971	621.62
1998.14	625.62
2002.306	629.62
2006.469	627.62
2010.627	628.62
2014.781	621.62
2018.932	629.62
2023.078	623.62
2027.221	624.62
2031.36	624.62
2035.495	627.62
2039.627	620.62
2043.754	612.62
2047.878	626.62
2051.998	608.62
2056.114	620.62
2060.226	615.62
2064.334	625.62
2068.439	624.62
2072.54	635.62
2076.637	628.62
2080.73	623.62
2084.82	628.62
2088.906	629.62
2092.988	636.62
2097.066	638.62
2101.14	626.62
2105.211	624.62
2109.278	627.62
2113.342	615.62
2117.401	616.62
2121.457	619.62
2125.509	608.62
2129.558	608.62
2133.602	604.62
2137.643	606.62
2141.681	607.62
2145.714	603.62
2149.744	594.62
2153.77	596.62
2157.793	605.62
2161.812	591.62
2165.827	577.62
2169.838	570.62
2173.846	563.62
2177.851	559.62
2181.851	553.62
2185.848	544.62
2189.841	537.62
2193.831	518.62
2197.817	526.62
2201.799	538.62
2205.778	531.62
2209.753	527.62
2213.725	527.62
2217.693	521.62
2221.657	523.62
2225.618	515.62
2229.575	521.62
2233.529	518.62
2237.479	513.62
2241.425	515.62
2245.368	508.62
2249.307	496.62
2253.243	483.62
2257.175	483.62
2261.104	466.62
2265.029	467.62
2268.95	464.62
2272.868	463.62
2276.783	463.62
2280.694	450.62
2284.601	458.62
2288.505	444.62
2292.405	441.62
2296.302	439.62
2300.195	425.62
2304.085	412.62
2307.971	411.62
2311.854	415.62
2315.734	398.62
2319.609	397.62
2323.482	399.62
2327.351	385.62
2331.216	381.62
2335.078	380.62
2338.937	372.62
2342.792	375.62
2346.643	376.62
2350.492	360.62
2354.336	376.62
2358.178	368.62
2362.015	371.62
2365.85	382.62
2369.681	378.62
2373.508	380.62
2377.333	379.62
2381.153	366.62
2384.971	373.62
2388.785	371.62
2392.595	367.62
2396.402	369.62
2400.206	367.62
2404.007	360.62
2407.804	357.62
2411.597	365.62
2415.388	361.62
2419.174	356.62
2422.958	361.62
2426.738	363.62
2430.515	355.62
2434.289	359.62
2438.059	348.62
2441.825	353.62
2445.589	348.62
2449.349	345.62
2453.106	344.62
2456.859	346.62
2460.61	348.62
2464.356	343.62
2468.1	334.62
2471.84	334.62
2475.577	314.62
2479.311	326.62
2483.041	325.62
2486.768	324.62
2490.492	326.62
2494.213	331.62
2497.93	329.62
2501.644	323.62
2505.355	329.62
2509.062	327.62
2512.766	336.62
2516.467	321.62
2520.165	322.62
2523.859	320.62
2527.551	314.62
2531.239	304.62
2534.923	307.62
2538.605	309.62
2542.283	307.62
2545.958	303.62
2549.63	301.62
2553.299	302.62
2556.964	301.62
2560.626	296.62
2564.285	293.62
2567.941	299.62
2571.594	290.62
2575.243	291.62
2578.89	291.62
2582.533	295.62
2586.173	288.62
2589.809	291.62
2593.443	283.62
2597.073	286.62
2600.701	285.62
2604.325	280.62
2607.946	278.62
2611.564	284.62
2615.178	275.62
2618.79	279.62
2622.398	278.62
2626.004	275.62
2629.606	266.62
2633.205	267.62
2636.801	263.62
2640.394	257.62
2643.983	268.62
2647.57	260.62
2651.153	256.62
2654.734	259.62
2658.311	254.62
2661.885	246.62
2665.456	255.62
2669.025	250.62
2672.589	244.62
2676.151	247.62
2679.71	239.62
2683.266	248.62
2686.819	248.62
2690.368	232.62
2693.915	231.62
2697.458	231.62
2700.999	231.62
2704.536	224.62
2708.071	225.62
2711.602	230.62
2715.13	227.62
2718.656	221.62
2722.178	219.62
2725.697	225.62
2729.214	216.62
2732.727	228.62
2736.237	230.62
2739.744	227.62
2743.249	228.62
2746.75	227.62
2750.248	222.62
2753.743	226.62
2757.236	223.62
2760.725	221.62
2764.211	220.62
2767.695	220.62
2771.175	217.62
2774.652	218.62
2778.127	214.62
2781.598	217.62
2785.067	218.62
2788.532	207.62
2791.995	214.62
2795.455	213.62
2798.911	211.62
2802.365	219.62
2805.816	222.62
2809.264	225.62
2812.709	232.62
2816.151	217.62
2819.59	226.62
2823.026	230.62
2826.46	221.62
2829.89	233.62
2833.318	236.62
2836.742	237.62
2840.164	227.62
2843.583	237.62
2846.999	228.62
2850.412	233.62
2853.822	244.62
2857.229	249.62
2860.634	260.62
2864.035	256.62
2867.434	265.62
2870.83	269.62
2874.223	272.62
2877.613	266.62
2881	283.62
2884.385	280.62
2887.766	287.62
2891.145	287.62
2894.521	290.62
2897.894	289.62
2901.264	290.62
2904.631	291.62
2907.996	288.62
2911.358	288.62
2914.717	293.62
2918.073	290.62
2921.426	304.62
2924.777	316.62
2928.124	318.62
2931.469	322.62
2934.811	332.62
2938.15	343.62
2941.487	352.62
2944.821	352.62
2948.152	347.62
2951.48	354.62
2954.805	347.62
2958.128	354.62
2961.447	357.62
2964.765	363.62
2968.079	358.62
2971.39	373.62
2974.699	370.62
2978.005	387.62
2981.308	393.62
2984.609	395.62
2987.907	412.62
2991.202	429.62
2994.494	436.62
2997.784	420.62
3001.07	448.62
3004.355	448.62
3007.636	462.62
3010.915	465.62
3014.191	480.62
3017.464	487.62
3020.734	480.62
3024.002	505.62
3027.267	499.62
3030.53	504.62
3033.789	516.62
3037.046	531.62
3040.301	545.62
3043.552	555.62
3046.801	580.62
3050.048	584.62
3053.291	593.62
3056.532	612.62
3059.771	624.62
3063.006	644.62
3066.239	656.62
3069.469	693.62
3072.697	717.62
3075.922	730.62
3079.144	746.62
3082.364	757.62
3085.581	781.62
3088.795	796.62
3092.007	815.62
3095.216	840.62
3098.423	845.62
3101.627	877.62
3104.828	881.62
3108.026	908.62
3111.222	937.62
3114.416	947.62
3117.607	963.62
3120.795	995.62
3123.98	993.62
3127.163	1039.62
3130.344	1059.62
3133.521	1079.62
3136.696	1112.62
3139.869	1119.62
3143.039	1144.62
3146.206	1162.62
3149.371	1174.62
3152.533	1196.62
3155.693	1208.62
3158.85	1220.62
3162.005	1203.62
3165.157	1232.62
3168.306	1221.62
3171.453	1226.62
3174.597	1237.62
3177.739	1235.62
3180.878	1249.62
3184.014	1243.62
3187.149	1241.62
3190.28	1235.62
3193.409	1262.62
3196.536	1253.62
3199.659	1264.62
3202.781	1263.62
3205.9	1267.62
3209.016	1253.62
3212.13	1248.62
3215.241	1263.62
3218.35	1243.62
3221.456	1253.62
3224.56	1243.62
3227.661	1208.62
3230.76	1192.62
3233.856	1184.62
3236.95	1190.62
3240.041	1165.62
3243.13	1170.62
3246.216	1153.62
3249.3	1153.62
3252.382	1136.62
3255.46	1118.62
3258.537	1114.62
3261.611	1118.62
3264.682	1113.62
3267.751	1125.62
3270.818	1095.62
3273.882	1090.62
3276.943	1095.62
3280.002	1083.62
3283.059	1074.62
3286.113	1056.62
3289.165	1045.62
3292.214	1047.62
3295.261	1015.62
3298.306	1002.62
3301.348	1006.62
3304.387	981.62
3307.425	958.62
3310.459	946.62
3313.492	931.62
3316.521	922.62
3319.549	917.62
3322.574	896.62
3325.597	909.62
3328.617	894.62
3331.635	887.62
3334.65	876.62
3337.663	880.62
3340.674	870.62
3343.682	864.62
3346.688	877.62
3349.691	870.62
3352.692	860.62
3355.691	863.62
3358.687	851.62
3361.681	843.62
3364.673	829.62
3367.662	814.62
3370.649	805.62
3373.633	805.62
3376.615	797.62
3379.595	779.62
3382.572	760.62
3385.547	757.62
3388.52	742.62
3391.49	732.62
3394.458	731.62
3397.424	730.62
3400.387	721.62
3403.348	708.62
3406.307	694.62
3409.263	681.62
3412.217	678.62
3415.168	682.62
3418.118	670.62
3421.065	655.62
3424.009	652.62
3426.951	641.62
3429.891	639.62
3432.829	614.62
3435.764	613.62
3438.697	608.62
3441.628	593.62
3444.557	574.62
3447.483	560.62
3450.407	542.62
3453.328	531.62
3456.247	519.62
3459.164	509.62
3462.079	494.62
3464.991	479.62
3467.902	466.62
3470.809	437.62
3473.715	433.62
3476.618	424.62
3479.519	408.62
3482.418	409.62
3485.315	393.62
3488.209	381.62
3491.101	365.62
3493.99	352.62
3496.878	350.62
3499.763	339.62
3502.646	323.62
3505.527	320.62
3508.405	304.62
3511.281	294.62
3514.155	273.62
3517.027	278.62
3519.897	263.62
3522.764	255.62
3525.629	239.62
3528.492	231.62
3531.352	219.62
3534.211	208.62
3537.067	197.62
3539.921	182.62
3542.773	177.62
3545.622	172.62
3548.469	153.62
3551.315	150.62
3554.157	140.62
3556.998	138.62
3559.837	133.62
3562.673	119.62
3565.507	111.62
3568.339	106.62
3571.169	109.62
3573.996	94.62
3576.822	94.62
3579.645	91.62
3582.466	82.62
3585.285	76.62
3588.101	69.62
3590.916	63.62
3593.728	55.62
3596.538	54.62
3599.346	49.62
3602.152	44.62
3604.956	45.62
3607.757	41.62
3610.556	31.62
3613.354	30.62
3616.149	22.62
3618.942	23.62
3621.732	15.62
3624.521	11.62
3627.307	14.62
3630.092	12.62
3632.874	7.62
3635.654	7.62
3638.432	7.62
3641.208	0.62
3643.982	0.62
3646.753	-5.38
3649.523	-5.38
3652.29	-8.38
3655.055	-10.38
3657.818	-14.38
3660.579	-11.38
3663.338	-18.38
3666.095	-17.38
3668.849	-24.38
3671.602	-28.38
3674.352	-37.38
3677.101	-30.38
3679.847	-32.38
3682.591	-29.38
3685.333	-31.38
3688.073	-35.38
3690.811	-37.38
3693.547	-38.38
3696.281	-41.38
3699.013	-40.38
3701.742	-39.38
3704.47	-40.38
3707.195	-40.38
3709.919	-44.38
3712.64	-49.38
3715.359	-44.38
3718.076	-49.38
3720.792	-55.38
3723.505	-51.38
3726.216	-52.38
3728.925	-51.38
3731.632	-53.38
3734.336	-52.38
3737.039	-54.38
3739.74	-54.38
3742.439	-52.38
3745.136	-58.38
3747.83	-56.38
3750.523	-58.38
3753.213	-58.38
3755.902	-60.38
3758.589	-57.38
3761.273	-59.38
3763.956	-57.38
3766.636	-59.38
3769.315	-62.38
3771.991	-66.38
3774.665	-62.38
3777.338	-60.38
3780.008	-61.38
3782.677	-64.38
3785.343	-62.38
3788.007	-66.38
3790.67	-64.38
3793.33	-67.38
3795.989	-68.38
3798.645	-66.38
3801.299	-62.38
3803.952	-64.38
3806.602	-65.38
3809.251	-61.38
3811.897	-69.38
3814.542	-71.38
3817.184	-66.38
3819.825	-67.38
3822.463	-64.38
3825.1	-71.38
3827.735	-65.38
3830.367	-70.38
3832.998	-66.38
3835.627	-69.38
3838.253	-69.38
3840.878	-72.38
3843.501	-68.38
3846.122	-69.38
3848.741	-70.38
3851.358	-74.38
3853.973	-66.38
3856.586	-66.38
3859.197	-75.38
3861.806	-74.38
3864.414	-73.38
3867.019	-72.38
3869.622	-68.38
3872.224	-68.38
3874.823	-71.38
3877.421	-67.38
3880.016	-72.38
3882.61	-68.38
3885.202	-66.38
3887.792	-62.38
3890.38	-66.38
3892.966	-68.38
3895.55	-70.38
3898.132	-74.38
3900.713	-72.38
3903.291	-74.38
3905.868	-72.38
3908.442	-75.38
3911.015	-76.38
3913.586	-74.38
3916.155	-71.38
3918.722	-73.38
3921.287	-73.38
3923.85	-75.38
3926.411	-72.38
3928.971	-79.38
3931.528	-75.38
3934.084	-75.38
3936.638	-79.38
3939.19	-73.38
3941.74	-74.38
3944.288	-75.38
3946.834	-75.38
3949.378	-78.38
3951.921	-74.38
3954.462	-74.38
3957	-77.38
3959.537	-75.38
3962.072	-73.38
3964.606	-72.38
3967.137	-74.38
3969.667	-75.38
3972.194	-76.38
3974.72	-78.38
3977.244	-70.38
3979.766	-74.38
3982.286	-68.38
3984.805	-75.38
3987.321	-73.38
3989.836	-73.38
3992.349	-72.38
3994.86	-71.38
3997.369	-69.38
3999.877	-73.38
4002.382	-72.38
4004.886	-74.38
4007.388	-73.38
4009.888	-73.38
4012.386	-70.38
4014.883	-74.38
4017.377	-75.38
4019.87	-76.38
4022.361	-71.38
4024.85	-73.38
4027.338	-71.38
4029.823	-66.38
4032.307	-69.38
4034.789	-73.38
4037.269	-74.38
4039.747	-80.38
4042.224	-77.38
4044.699	-72.38
4047.172	-71.38
4049.643	-71.38
4052.112	-73.38
4054.58	-76.38
4057.046	-77.38
4059.51	-77.38
4061.972	-73.38
4064.432	-72.38
4066.891	-74.38
4069.348	-73.38
4071.803	-74.38
4074.256	-76.38
4076.708	-77.38
4079.158	-72.38
4081.606	-72.38
4084.052	-77.38
4086.497	-76.38
4088.939	-74.38
4091.38	-73.38
4093.819	-73.38
4096.257	-78.38
4098.693	-80.38
4101.127	-76.38
4103.559	-77.38
4105.989	-23.38
4108.418	-21.38
4110.845	-16.38
4113.27	-18.38
4115.694	-15.38
4118.115	-10.38
4120.535	-73.38
4122.954	-74.38
4125.37	-74.38
4127.785	-75.38
4130.198	-75.38
4132.609	-76.38
4135.019	-78.38
4137.427	-76.38
4139.833	-77.38
4142.237	-79.38
