Data from 100CFU3_C_ramanshift_RamanShift_15-20-47-575.txt Node
Date: Sun Dec 25 15:20:47 IST 2016
User: aro
Spectrometer: QEPB0276
Trigger mode: 0
Integration Time (sec): 5.000000E0
Scans to average: 1
Electric dark correction enabled: true
Nonlinearity correction enabled: false
Boxcar width: 0
XAxis mode: Raman Shifts
Number of Pixels in Spectrum: 1044
>>>>>Begin Spectral Data<<<<<
160.701	0.5
166.742	25.5
172.777	66.5
178.805	207.5
184.826	618.5
190.841	1442.5
196.849	2687.5
202.85	3811.5
208.845	4409.5
214.833	4432.5
220.815	4237.5
226.789	4118.5
232.758	3995.5
238.719	3883.5
244.674	3744.5
250.623	3597.5
256.565	3431.5
262.5	3292.5
268.429	3132.5
274.351	2981.5
280.267	2839.5
286.176	2741.5
292.079	2645.5
297.975	2542.5
303.865	2461.5
309.748	2377.5
315.625	2317.5
321.495	2258.5
327.359	2207.5
333.217	2168.5
339.068	2162.5
344.912	2143.5
350.751	2138.5
356.583	2121.5
362.408	2101.5
368.227	2093.5
374.04	2117.5
379.847	2121.5
385.647	2122.5
391.44	2120.5
397.228	2157.5
403.009	2153.5
408.784	2170.5
414.553	2201.5
420.315	2189.5
426.071	2202.5
431.821	2189.5
437.565	2201.5
443.302	2203.5
449.033	2205.5
454.758	2189.5
460.477	2184.5
466.189	2192.5
471.896	2160.5
477.596	2147.5
483.29	2132.5
488.978	2130.5
494.66	2134.5
500.335	2112.5
506.005	2079.5
511.668	2033.5
517.325	2015.5
522.977	1981.5
528.622	1949.5
534.261	1929.5
539.894	1921.5
545.521	1891.5
551.141	1893.5
556.756	1859.5
562.365	1866.5
567.968	1852.5
573.565	1833.5
579.155	1815.5
584.74	1807.5
590.319	1798.5
595.892	1807.5
601.459	1785.5
607.02	1761.5
612.575	1772.5
618.124	1752.5
623.667	1723.5
629.204	1705.5
634.735	1694.5
640.261	1674.5
645.781	1672.5
651.294	1672.5
656.802	1668.5
662.304	1665.5
667.8	1647.5
673.29	1641.5
678.775	1631.5
684.254	1649.5
689.726	1612.5
695.193	1616.5
700.655	1607.5
706.11	1615.5
711.56	1580.5
717.004	1576.5
722.442	1567.5
727.874	1559.5
733.301	1548.5
738.722	1541.5
744.137	1544.5
749.547	1531.5
754.951	1520.5
760.349	1526.5
765.741	1519.5
771.128	1525.5
776.509	1514.5
781.885	1515.5
787.254	1518.5
792.618	1518.5
797.977	1501.5
803.33	1478.5
808.677	1499.5
814.019	1476.5
819.355	1462.5
824.686	1431.5
830.011	1438.5
835.33	1435.5
840.644	1430.5
845.952	1419.5
851.255	1426.5
856.552	1412.5
861.844	1397.5
867.13	1399.5
872.41	1389.5
877.686	1401.5
882.955	1402.5
888.219	1381.5
893.478	1355.5
898.731	1312.5
903.979	1301.5
909.221	1279.5
914.458	1263.5
919.69	1242.5
924.916	1244.5
930.136	1245.5
935.351	1250.5
940.561	1253.5
945.766	1221.5
950.965	1242.5
956.158	1214.5
961.347	1204.5
966.529	1204.5
971.707	1167.5
976.879	1153.5
982.046	1155.5
987.208	1152.5
992.364	1136.5
997.515	1125.5
1002.66	1146.5
1007.801	1154.5
1012.936	1170.5
1018.066	1174.5
1023.19	1185.5
1028.309	1176.5
1033.423	1176.5
1038.532	1181.5
1043.636	1185.5
1048.734	1174.5
1053.827	1163.5
1058.915	1166.5
1063.998	1151.5
1069.075	1125.5
1074.147	1141.5
1079.214	1138.5
1084.276	1132.5
1089.333	1163.5
1094.385	1177.5
1099.431	1173.5
1104.472	1165.5
1109.509	1174.5
1114.54	1147.5
1119.565	1146.5
1124.586	1125.5
1129.602	1118.5
1134.613	1120.5
1139.618	1109.5
1144.619	1103.5
1149.614	1105.5
1154.604	1099.5
1159.589	1110.5
1164.57	1121.5
1169.545	1115.5
1174.515	1117.5
1179.48	1115.5
1184.44	1105.5
1189.395	1092.5
1194.345	1110.5
1199.29	1098.5
1204.23	1103.5
1209.165	1093.5
1214.095	1109.5
1219.021	1109.5
1223.941	1118.5
1228.856	1138.5
1233.766	1126.5
1238.672	1144.5
1243.572	1128.5
1248.467	1127.5
1253.358	1121.5
1258.244	1125.5
1263.124	1088.5
1268	1090.5
1272.871	1080.5
1277.737	1056.5
1282.599	1066.5
1287.455	1072.5
1292.306	1060.5
1297.153	1075.5
1301.995	1071.5
1306.832	1081.5
1311.664	1094.5
1316.491	1092.5
1321.314	1086.5
1326.132	1098.5
1330.945	1086.5
1335.753	1065.5
1340.556	1041.5
1345.354	1033.5
1350.148	1034.5
1354.937	1026.5
1359.722	1027.5
1364.501	1002.5
1369.276	1000.5
1374.046	988.5
1378.811	976.5
1383.572	986.5
1388.327	966.5
1393.079	962.5
1397.825	975.5
1402.567	969.5
1407.304	968.5
1412.036	969.5
1416.764	942.5
1421.487	955.5
1426.205	952.5
1430.919	960.5
1435.628	976.5
1440.333	995.5
1445.032	987.5
1449.727	1009.5
1454.418	1013.5
1459.104	1033.5
1463.785	1026.5
1468.462	1002.5
1473.134	1001.5
1477.802	988.5
1482.465	972.5
1487.123	965.5
1491.777	961.5
1496.426	969.5
1501.071	976.5
1505.711	980.5
1510.347	986.5
1514.978	998.5
1519.604	998.5
1524.226	1021.5
1528.844	1014.5
1533.457	1004.5
1538.065	1001.5
1542.669	1015.5
1547.269	991.5
1551.864	1004.5
1556.454	1013.5
1561.041	1035.5
1565.622	1040.5
1570.199	1030.5
1574.772	1064.5
1579.34	1071.5
1583.904	1093.5
1588.464	1104.5
1593.019	1131.5
1597.569	1141.5
1602.115	1151.5
1606.657	1146.5
1611.195	1171.5
1615.728	1172.5
1620.256	1187.5
1624.78	1212.5
1629.3	1220.5
1633.816	1244.5
1638.327	1260.5
1642.834	1282.5
1647.336	1290.5
1651.834	1287.5
1656.328	1285.5
1660.817	1292.5
1665.302	1285.5
1669.783	1243.5
1674.259	1229.5
1678.732	1194.5
1683.199	1159.5
1687.663	1137.5
1692.122	1098.5
1696.577	1046.5
1701.028	1014.5
1705.474	955.5
1709.917	922.5
1714.355	907.5
1718.788	886.5
1723.218	876.5
1727.643	873.5
1732.064	858.5
1736.481	819.5
1740.893	804.5
1745.301	786.5
1749.705	765.5
1754.105	758.5
1758.501	728.5
1762.893	710.5
1767.28	705.5
1771.663	699.5
1776.042	693.5
1780.417	695.5
1784.787	681.5
1789.154	697.5
1793.516	686.5
1797.874	682.5
1802.228	679.5
1806.578	672.5
1810.924	653.5
1815.266	643.5
1819.603	641.5
1823.937	621.5
1828.266	630.5
1832.591	628.5
1836.913	616.5
1841.23	606.5
1845.543	628.5
1849.852	626.5
1854.156	622.5
1858.457	619.5
1862.754	609.5
1867.047	622.5
1871.335	625.5
1875.62	629.5
1879.9	640.5
1884.177	635.5
1888.449	622.5
1892.718	636.5
1896.982	627.5
1901.243	623.5
1905.499	614.5
1909.752	625.5
1914	616.5
1918.245	607.5
1922.485	624.5
1926.722	614.5
1930.954	633.5
1935.183	628.5
1939.408	635.5
1943.628	627.5
1947.845	618.5
1952.058	612.5
1956.267	628.5
1960.472	621.5
1964.673	619.5
1968.87	601.5
1973.063	613.5
1977.252	597.5
1981.438	586.5
1985.619	592.5
1989.797	586.5
1993.971	592.5
1998.14	593.5
2002.306	599.5
2006.469	600.5
2010.627	618.5
2014.781	600.5
2018.932	622.5
2023.078	606.5
2027.221	609.5
2031.36	596.5
2035.495	600.5
2039.627	584.5
2043.754	602.5
2047.878	591.5
2051.998	581.5
2056.114	587.5
2060.226	588.5
2064.334	600.5
2068.439	594.5
2072.54	601.5
2076.637	593.5
2080.73	600.5
2084.82	606.5
2088.906	610.5
2092.988	611.5
2097.066	603.5
2101.14	609.5
2105.211	605.5
2109.278	603.5
2113.342	601.5
2117.401	589.5
2121.457	588.5
2125.509	581.5
2129.558	576.5
2133.602	582.5
2137.643	579.5
2141.681	581.5
2145.714	586.5
2149.744	584.5
2153.77	568.5
2157.793	567.5
2161.812	566.5
2165.827	563.5
2169.838	555.5
2173.846	543.5
2177.851	534.5
2181.851	535.5
2185.848	532.5
2189.841	517.5
2193.831	511.5
2197.817	509.5
2201.799	507.5
2205.778	507.5
2209.753	500.5
2213.725	509.5
2217.693	499.5
2221.657	493.5
2225.618	508.5
2229.575	498.5
2233.529	510.5
2237.479	494.5
2241.425	483.5
2245.368	482.5
2249.307	472.5
2253.243	474.5
2257.175	467.5
2261.104	459.5
2265.029	456.5
2268.95	452.5
2272.868	450.5
2276.783	437.5
2280.694	446.5
2284.601	428.5
2288.505	427.5
2292.405	416.5
2296.302	413.5
2300.195	397.5
2304.085	407.5
2307.971	397.5
2311.854	394.5
2315.734	393.5
2319.609	385.5
2323.482	378.5
2327.351	368.5
2331.216	371.5
2335.078	369.5
2338.937	358.5
2342.792	366.5
2346.643	360.5
2350.492	359.5
2354.336	363.5
2358.178	354.5
2362.015	363.5
2365.85	355.5
2369.681	360.5
2373.508	368.5
2377.333	367.5
2381.153	361.5
2384.971	372.5
2388.785	360.5
2392.595	349.5
2396.402	349.5
2400.206	357.5
2404.007	347.5
2407.804	348.5
2411.597	359.5
2415.388	353.5
2419.174	341.5
2422.958	342.5
2426.738	343.5
2430.515	344.5
2434.289	342.5
2438.059	343.5
2441.825	339.5
2445.589	344.5
2449.349	345.5
2453.106	342.5
2456.859	335.5
2460.61	328.5
2464.356	334.5
2468.1	313.5
2471.84	310.5
2475.577	317.5
2479.311	327.5
2483.041	314.5
2486.768	332.5
2490.492	316.5
2494.213	315.5
2497.93	312.5
2501.644	308.5
2505.355	308.5
2509.062	318.5
2512.766	316.5
2516.467	320.5
2520.165	313.5
2523.859	314.5
2527.551	299.5
2531.239	303.5
2534.923	300.5
2538.605	305.5
2542.283	305.5
2545.958	296.5
2549.63	286.5
2553.299	291.5
2556.964	289.5
2560.626	288.5
2564.285	285.5
2567.941	289.5
2571.594	276.5
2575.243	291.5
2578.89	281.5
2582.533	280.5
2586.173	275.5
2589.809	284.5
2593.443	270.5
2597.073	267.5
2600.701	271.5
2604.325	270.5
2607.946	267.5
2611.564	276.5
2615.178	269.5
2618.79	262.5
2622.398	265.5
2626.004	248.5
2629.606	260.5
2633.205	259.5
2636.801	256.5
2640.394	258.5
2643.983	256.5
2647.57	247.5
2651.153	242.5
2654.734	250.5
2658.311	238.5
2661.885	235.5
2665.456	239.5
2669.025	234.5
2672.589	234.5
2676.151	232.5
2679.71	231.5
2683.266	239.5
2686.819	221.5
2690.368	225.5
2693.915	223.5
2697.458	224.5
2700.999	218.5
2704.536	221.5
2708.071	220.5
2711.602	219.5
2715.13	214.5
2718.656	211.5
2722.178	214.5
2725.697	206.5
2729.214	215.5
2732.727	212.5
2736.237	224.5
2739.744	218.5
2743.249	212.5
2746.75	219.5
2750.248	213.5
2753.743	214.5
2757.236	210.5
2760.725	213.5
2764.211	211.5
2767.695	210.5
2771.175	205.5
2774.652	203.5
2778.127	200.5
2781.598	205.5
2785.067	205.5
2788.532	206.5
2791.995	197.5
2795.455	199.5
2798.911	210.5
2802.365	208.5
2805.816	211.5
2809.264	216.5
2812.709	211.5
2816.151	214.5
2819.59	210.5
2823.026	212.5
2826.46	212.5
2829.89	220.5
2833.318	222.5
2836.742	220.5
2840.164	218.5
2843.583	217.5
2846.999	223.5
2850.412	226.5
2853.822	236.5
2857.229	230.5
2860.634	232.5
2864.035	238.5
2867.434	238.5
2870.83	237.5
2874.223	245.5
2877.613	247.5
2881	253.5
2884.385	260.5
2887.766	253.5
2891.145	262.5
2894.521	264.5
2897.894	260.5
2901.264	264.5
2904.631	255.5
2907.996	262.5
2911.358	258.5
2914.717	271.5
2918.073	270.5
2921.426	274.5
2924.777	276.5
2928.124	289.5
2931.469	291.5
2934.811	294.5
2938.15	305.5
2941.487	312.5
2944.821	306.5
2948.152	317.5
2951.48	324.5
2954.805	318.5
2958.128	320.5
2961.447	323.5
2964.765	333.5
2968.079	331.5
2971.39	340.5
2974.699	351.5
2978.005	356.5
2981.308	371.5
2984.609	370.5
2987.907	380.5
2991.202	392.5
2994.494	403.5
2997.784	411.5
3001.07	418.5
3004.355	432.5
3007.636	439.5
3010.915	438.5
3014.191	452.5
3017.464	466.5
3020.734	458.5
3024.002	479.5
3027.267	487.5
3030.53	495.5
3033.789	498.5
3037.046	511.5
3040.301	519.5
3043.552	536.5
3046.801	546.5
3050.048	556.5
3053.291	575.5
3056.532	589.5
3059.771	619.5
3063.006	626.5
3066.239	637.5
3069.469	666.5
3072.697	688.5
3075.922	706.5
3079.144	714.5
3082.364	728.5
3085.581	756.5
3088.795	771.5
3092.007	787.5
3095.216	800.5
3098.423	808.5
3101.627	829.5
3104.828	853.5
3108.026	868.5
3111.222	891.5
3114.416	921.5
3117.607	935.5
3120.795	939.5
3123.98	975.5
3127.163	998.5
3130.344	1028.5
3133.521	1030.5
3136.696	1062.5
3139.869	1081.5
3143.039	1104.5
3146.206	1115.5
3149.371	1134.5
3152.533	1147.5
3155.693	1154.5
3158.85	1165.5
3162.005	1184.5
3165.157	1184.5
3168.306	1185.5
3171.453	1185.5
3174.597	1188.5
3177.739	1192.5
3180.878	1179.5
3184.014	1193.5
3187.149	1194.5
3190.28	1194.5
3193.409	1196.5
3196.536	1207.5
3199.659	1211.5
3202.781	1216.5
3205.9	1223.5
3209.016	1210.5
3212.13	1222.5
3215.241	1213.5
3218.35	1195.5
3221.456	1197.5
3224.56	1174.5
3227.661	1168.5
3230.76	1155.5
3233.856	1142.5
3236.95	1133.5
3240.041	1107.5
3243.13	1116.5
3246.216	1115.5
3249.3	1100.5
3252.382	1092.5
3255.46	1078.5
3258.537	1072.5
3261.611	1054.5
3264.682	1064.5
3267.751	1071.5
3270.818	1060.5
3273.882	1067.5
3276.943	1054.5
3280.002	1030.5
3283.059	1015.5
3286.113	1016.5
3289.165	1005.5
3292.214	977.5
3295.261	978.5
3298.306	969.5
3301.348	945.5
3304.387	923.5
3307.425	911.5
3310.459	909.5
3313.492	903.5
3316.521	895.5
3319.549	874.5
3322.574	866.5
3325.597	864.5
3328.617	858.5
3331.635	854.5
3334.65	847.5
3337.663	831.5
3340.674	823.5
3343.682	829.5
3346.688	834.5
3349.691	827.5
3352.692	830.5
3355.691	813.5
3358.687	813.5
3361.681	809.5
3364.673	799.5
3367.662	785.5
3370.649	782.5
3373.633	782.5
3376.615	755.5
3379.595	733.5
3382.572	731.5
3385.547	727.5
3388.52	722.5
3391.49	703.5
3394.458	695.5
3397.424	680.5
3400.387	684.5
3403.348	669.5
3406.307	673.5
3409.263	664.5
3412.217	655.5
3415.168	635.5
3418.118	632.5
3421.065	635.5
3424.009	625.5
3426.951	615.5
3429.891	613.5
3432.829	595.5
3435.764	586.5
3438.697	575.5
3441.628	556.5
3444.557	553.5
3447.483	530.5
3450.407	523.5
3453.328	512.5
3456.247	497.5
3459.164	482.5
3462.079	466.5
3464.991	453.5
3467.902	434.5
3470.809	419.5
3473.715	424.5
3476.618	395.5
3479.519	394.5
3482.418	393.5
3485.315	373.5
3488.209	356.5
3491.101	355.5
3493.99	342.5
3496.878	331.5
3499.763	324.5
3502.646	319.5
3505.527	305.5
3508.405	294.5
3511.281	286.5
3514.155	265.5
3517.027	253.5
3519.897	248.5
3522.764	239.5
3525.629	230.5
3528.492	220.5
3531.352	207.5
3534.211	199.5
3537.067	182.5
3539.921	175.5
3542.773	170.5
3545.622	157.5
3548.469	142.5
3551.315	142.5
3554.157	137.5
3556.998	127.5
3559.837	116.5
3562.673	118.5
3565.507	108.5
3568.339	105.5
3571.169	104.5
3573.996	88.5
3576.822	90.5
3579.645	86.5
3582.466	80.5
3585.285	76.5
3588.101	68.5
3590.916	56.5
3593.728	55.5
3596.538	55.5
3599.346	45.5
3602.152	43.5
3604.956	46.5
3607.757	41.5
3610.556	30.5
3613.354	31.5
3616.149	23.5
3618.942	21.5
3621.732	19.5
3624.521	19.5
3627.307	14.5
3630.092	13.5
3632.874	9.5
3635.654	6.5
3638.432	3.5
3641.208	-0.5
3643.982	-1.5
3646.753	-2.5
3649.523	-2.5
3652.29	-1.5
3655.055	-9.5
3657.818	-10.5
3660.579	-16.5
3663.338	-15.5
3666.095	-18.5
3668.849	-21.5
3671.602	-23.5
3674.352	-29.5
3677.101	-26.5
3679.847	-30.5
3682.591	-30.5
3685.333	-37.5
3688.073	-33.5
3690.811	-33.5
3693.547	-35.5
3696.281	-38.5
3699.013	-42.5
3701.742	-35.5
3704.47	-41.5
3707.195	-43.5
3709.919	-42.5
3712.64	-52.5
3715.359	-47.5
3718.076	-49.5
3720.792	-47.5
3723.505	-47.5
3726.216	-52.5
3728.925	-50.5
3731.632	-55.5
3734.336	-50.5
3737.039	-55.5
3739.74	-52.5
3742.439	-50.5
3745.136	-51.5
3747.83	-55.5
3750.523	-59.5
3753.213	-55.5
3755.902	-57.5
3758.589	-55.5
3761.273	-56.5
3763.956	-56.5
3766.636	-51.5
3769.315	-56.5
3771.991	-59.5
3774.665	-60.5
3777.338	-62.5
3780.008	-60.5
3782.677	-59.5
3785.343	-59.5
3788.007	-64.5
3790.67	-60.5
3793.33	-61.5
3795.989	-61.5
3798.645	-60.5
3801.299	-59.5
3803.952	-62.5
3806.602	-66.5
3809.251	-60.5
3811.897	-64.5
3814.542	-65.5
3817.184	-59.5
3819.825	-65.5
3822.463	-63.5
3825.1	-68.5
3827.735	-65.5
3830.367	-69.5
3832.998	-62.5
3835.627	-63.5
3838.253	-62.5
3840.878	-67.5
3843.501	-67.5
3846.122	-68.5
3848.741	-74.5
3851.358	-68.5
3853.973	-65.5
3856.586	-61.5
3859.197	-67.5
3861.806	-65.5
3864.414	-68.5
3867.019	-68.5
3869.622	-68.5
3872.224	-69.5
3874.823	-68.5
3877.421	-67.5
3880.016	-68.5
3882.61	-66.5
3885.202	-59.5
3887.792	-65.5
3890.38	-64.5
3892.966	-66.5
3895.55	-67.5
3898.132	-71.5
3900.713	-71.5
3903.291	-71.5
3905.868	-64.5
3908.442	-67.5
3911.015	-76.5
3913.586	-74.5
3916.155	-68.5
3918.722	-72.5
3921.287	-68.5
3923.85	-71.5
3926.411	-68.5
3928.971	-68.5
3931.528	-70.5
3934.084	-74.5
3936.638	-74.5
3939.19	-73.5
3941.74	-75.5
3944.288	-71.5
3946.834	-69.5
3949.378	-70.5
3951.921	-70.5
3954.462	-70.5
3957	-70.5
3959.537	-72.5
3962.072	-73.5
3964.606	-71.5
3967.137	-74.5
3969.667	-69.5
3972.194	-69.5
3974.72	-71.5
3977.244	-70.5
3979.766	-69.5
3982.286	-68.5
3984.805	-71.5
3987.321	-72.5
3989.836	-72.5
3992.349	-69.5
3994.86	-66.5
3997.369	-64.5
3999.877	-69.5
4002.382	-66.5
4004.886	-70.5
4007.388	-75.5
4009.888	-70.5
4012.386	-67.5
4014.883	-69.5
4017.377	-70.5
4019.87	-67.5
4022.361	-64.5
4024.85	-68.5
4027.338	-72.5
4029.823	-67.5
4032.307	-70.5
4034.789	-68.5
4037.269	-69.5
4039.747	-73.5
4042.224	-74.5
4044.699	-66.5
4047.172	-70.5
4049.643	-69.5
4052.112	-71.5
4054.58	-72.5
4057.046	-73.5
4059.51	-71.5
4061.972	-65.5
4064.432	-70.5
4066.891	-73.5
4069.348	-75.5
4071.803	-71.5
4074.256	-72.5
4076.708	-73.5
4079.158	-68.5
4081.606	-67.5
4084.052	-72.5
4086.497	-70.5
4088.939	-73.5
4091.38	-74.5
4093.819	-72.5
4096.257	-74.5
4098.693	-75.5
4101.127	-78.5
4103.559	-74.5
4105.989	-24.5
4108.418	-19.5
4110.845	-17.5
4113.27	-14.5
4115.694	-8.5
4118.115	-14.5
4120.535	-71.5
4122.954	-69.5
4125.37	-69.5
4127.785	-68.5
4130.198	-70.5
4132.609	-73.5
4135.019	-78.5
4137.427	-74.5
4139.833	-73.5
4142.237	-73.5
