Data from 100CFU2_B_ramanshift_RamanShift_14-53-47-730.txt Node
Date: Sun Dec 25 14:53:47 IST 2016
User: aro
Spectrometer: QEPB0276
Trigger mode: 0
Integration Time (sec): 5.000000E0
Scans to average: 1
Electric dark correction enabled: true
Nonlinearity correction enabled: false
Boxcar width: 0
XAxis mode: Raman Shifts
Number of Pixels in Spectrum: 1044
>>>>>Begin Spectral Data<<<<<
160.701	7.38
166.742	26.38
172.777	59.38
178.805	191.38
184.826	571.38
190.841	1374.38
196.849	2578.38
202.85	3696.38
208.845	4246.38
214.833	4292.38
220.815	4145.38
226.789	3999.38
232.758	3898.38
238.719	3761.38
244.674	3655.38
250.623	3539.38
256.565	3375.38
262.5	3234.38
268.429	3110.38
274.351	2992.38
280.267	2874.38
286.176	2756.38
292.079	2666.38
297.975	2587.38
303.865	2497.38
309.748	2423.38
315.625	2361.38
321.495	2302.38
327.359	2251.38
333.217	2251.38
339.068	2202.38
344.912	2205.38
350.751	2161.38
356.583	2174.38
362.408	2176.38
368.227	2184.38
374.04	2182.38
379.847	2177.38
385.647	2200.38
391.44	2195.38
397.228	2207.38
403.009	2230.38
408.784	2246.38
414.553	2260.38
420.315	2268.38
426.071	2257.38
431.821	2253.38
437.565	2280.38
443.302	2267.38
449.033	2255.38
454.758	2264.38
460.477	2242.38
466.189	2239.38
471.896	2236.38
477.596	2226.38
483.29	2210.38
488.978	2207.38
494.66	2185.38
500.335	2186.38
506.005	2151.38
511.668	2101.38
517.325	2083.38
522.977	2042.38
528.622	2038.38
534.261	2001.38
539.894	1982.38
545.521	1974.38
551.141	1967.38
556.756	1952.38
562.365	1953.38
567.968	1948.38
573.565	1916.38
579.155	1911.38
584.74	1915.38
590.319	1898.38
595.892	1875.38
601.459	1865.38
607.02	1865.38
612.575	1848.38
618.124	1825.38
623.667	1807.38
629.204	1804.38
634.735	1782.38
640.261	1773.38
645.781	1764.38
651.294	1752.38
656.802	1741.38
662.304	1741.38
667.8	1754.38
673.29	1741.38
678.775	1732.38
684.254	1726.38
689.726	1720.38
695.193	1712.38
700.655	1710.38
706.11	1688.38
711.56	1692.38
717.004	1671.38
722.442	1673.38
727.874	1662.38
733.301	1644.38
738.722	1651.38
744.137	1631.38
749.547	1632.38
754.951	1620.38
760.349	1628.38
765.741	1624.38
771.128	1632.38
776.509	1624.38
781.885	1623.38
787.254	1631.38
792.618	1625.38
797.977	1614.38
803.33	1612.38
808.677	1604.38
814.019	1573.38
819.355	1574.38
824.686	1575.38
830.011	1561.38
835.33	1552.38
840.644	1534.38
845.952	1528.38
851.255	1525.38
856.552	1526.38
861.844	1531.38
867.13	1518.38
872.41	1526.38
877.686	1529.38
882.955	1541.38
888.219	1531.38
893.478	1508.38
898.731	1464.38
903.979	1440.38
909.221	1402.38
914.458	1398.38
919.69	1383.38
924.916	1360.38
930.136	1384.38
935.351	1392.38
940.561	1369.38
945.766	1391.38
950.965	1359.38
956.158	1371.38
961.347	1357.38
966.529	1328.38
971.707	1312.38
976.879	1303.38
982.046	1283.38
987.208	1275.38
992.364	1258.38
997.515	1276.38
1002.66	1274.38
1007.801	1285.38
1012.936	1310.38
1018.066	1321.38
1023.19	1338.38
1028.309	1353.38
1033.423	1336.38
1038.532	1319.38
1043.636	1336.38
1048.734	1323.38
1053.827	1322.38
1058.915	1314.38
1063.998	1289.38
1069.075	1283.38
1074.147	1278.38
1079.214	1291.38
1084.276	1291.38
1089.333	1300.38
1094.385	1309.38
1099.431	1326.38
1104.472	1349.38
1109.509	1321.38
1114.54	1308.38
1119.565	1298.38
1124.586	1297.38
1129.602	1270.38
1134.613	1260.38
1139.618	1265.38
1144.619	1248.38
1149.614	1253.38
1154.604	1260.38
1159.589	1257.38
1164.57	1261.38
1169.545	1271.38
1174.515	1280.38
1179.48	1285.38
1184.44	1257.38
1189.395	1272.38
1194.345	1259.38
1199.29	1248.38
1204.23	1269.38
1209.165	1247.38
1214.095	1254.38
1219.021	1266.38
1223.941	1278.38
1228.856	1286.38
1233.766	1305.38
1238.672	1303.38
1243.572	1295.38
1248.467	1283.38
1253.358	1284.38
1258.244	1284.38
1263.124	1264.38
1268	1229.38
1272.871	1225.38
1277.737	1206.38
1282.599	1223.38
1287.455	1225.38
1292.306	1209.38
1297.153	1220.38
1301.995	1231.38
1306.832	1235.38
1311.664	1248.38
1316.491	1237.38
1321.314	1240.38
1326.132	1243.38
1330.945	1227.38
1335.753	1218.38
1340.556	1209.38
1345.354	1185.38
1350.148	1182.38
1354.937	1184.38
1359.722	1179.38
1364.501	1158.38
1369.276	1157.38
1374.046	1123.38
1378.811	1128.38
1383.572	1095.38
1388.327	1094.38
1393.079	1117.38
1397.825	1104.38
1402.567	1099.38
1407.304	1090.38
1412.036	1103.38
1416.764	1099.38
1421.487	1098.38
1426.205	1108.38
1430.919	1108.38
1435.628	1119.38
1440.333	1128.38
1445.032	1141.38
1449.727	1160.38
1454.418	1171.38
1459.104	1174.38
1463.785	1164.38
1468.462	1149.38
1473.134	1137.38
1477.802	1133.38
1482.465	1116.38
1487.123	1111.38
1491.777	1120.38
1496.426	1120.38
1501.071	1113.38
1505.711	1132.38
1510.347	1126.38
1514.978	1138.38
1519.604	1139.38
1524.226	1148.38
1528.844	1139.38
1533.457	1152.38
1538.065	1132.38
1542.669	1135.38
1547.269	1132.38
1551.864	1134.38
1556.454	1116.38
1561.041	1156.38
1565.622	1147.38
1570.199	1161.38
1574.772	1180.38
1579.34	1192.38
1583.904	1214.38
1588.464	1240.38
1593.019	1256.38
1597.569	1271.38
1602.115	1269.38
1606.657	1277.38
1611.195	1286.38
1615.728	1284.38
1620.256	1301.38
1624.78	1324.38
1629.3	1336.38
1633.816	1346.38
1638.327	1363.38
1642.834	1381.38
1647.336	1400.38
1651.834	1388.38
1656.328	1402.38
1660.817	1408.38
1665.302	1406.38
1669.783	1369.38
1674.259	1343.38
1678.732	1302.38
1683.199	1286.38
1687.663	1244.38
1692.122	1246.38
1696.577	1194.38
1701.028	1130.38
1705.474	1062.38
1709.917	1026.38
1714.355	986.38
1718.788	981.38
1723.218	990.38
1727.643	978.38
1732.064	957.38
1736.481	940.38
1740.893	918.38
1745.301	902.38
1749.705	879.38
1754.105	858.38
1758.501	842.38
1762.893	828.38
1767.28	835.38
1771.663	818.38
1776.042	817.38
1780.417	808.38
1784.787	807.38
1789.154	816.38
1793.516	805.38
1797.874	802.38
1802.228	792.38
1806.578	782.38
1810.924	773.38
1815.266	759.38
1819.603	743.38
1823.937	740.38
1828.266	736.38
1832.591	735.38
1836.913	737.38
1841.23	716.38
1845.543	740.38
1849.852	739.38
1854.156	727.38
1858.457	744.38
1862.754	744.38
1867.047	746.38
1871.335	741.38
1875.62	740.38
1879.9	757.38
1884.177	765.38
1888.449	751.38
1892.718	745.38
1896.982	741.38
1901.243	734.38
1905.499	746.38
1909.752	736.38
1914	745.38
1918.245	734.38
1922.485	739.38
1926.722	723.38
1930.954	746.38
1935.183	741.38
1939.408	737.38
1943.628	737.38
1947.845	738.38
1952.058	745.38
1956.267	733.38
1960.472	726.38
1964.673	708.38
1968.87	697.38
1973.063	694.38
1977.252	691.38
1981.438	691.38
1985.619	693.38
1989.797	686.38
1993.971	690.38
1998.14	700.38
2002.306	695.38
2006.469	707.38
2010.627	708.38
2014.781	706.38
2018.932	708.38
2023.078	712.38
2027.221	708.38
2031.36	699.38
2035.495	704.38
2039.627	683.38
2043.754	689.38
2047.878	703.38
2051.998	696.38
2056.114	678.38
2060.226	686.38
2064.334	686.38
2068.439	700.38
2072.54	697.38
2076.637	708.38
2080.73	711.38
2084.82	702.38
2088.906	705.38
2092.988	703.38
2097.066	704.38
2101.14	705.38
2105.211	698.38
2109.278	699.38
2113.342	680.38
2117.401	689.38
2121.457	684.38
2125.509	667.38
2129.558	676.38
2133.602	674.38
2137.643	661.38
2141.681	667.38
2145.714	675.38
2149.744	669.38
2153.77	664.38
2157.793	651.38
2161.812	656.38
2165.827	657.38
2169.838	640.38
2173.846	624.38
2177.851	626.38
2181.851	615.38
2185.848	617.38
2189.841	603.38
2193.831	599.38
2197.817	602.38
2201.799	594.38
2205.778	593.38
2209.753	589.38
2213.725	593.38
2217.693	594.38
2221.657	597.38
2225.618	590.38
2229.575	584.38
2233.529	584.38
2237.479	583.38
2241.425	581.38
2245.368	585.38
2249.307	560.38
2253.243	563.38
2257.175	558.38
2261.104	555.38
2265.029	532.38
2268.95	538.38
2272.868	532.38
2276.783	535.38
2280.694	517.38
2284.601	516.38
2288.505	506.38
2292.405	506.38
2296.302	500.38
2300.195	485.38
2304.085	486.38
2307.971	481.38
2311.854	482.38
2315.734	468.38
2319.609	470.38
2323.482	458.38
2327.351	448.38
2331.216	443.38
2335.078	456.38
2338.937	448.38
2342.792	445.38
2346.643	441.38
2350.492	442.38
2354.336	440.38
2358.178	437.38
2362.015	443.38
2365.85	442.38
2369.681	438.38
2373.508	437.38
2377.333	443.38
2381.153	443.38
2384.971	446.38
2388.785	444.38
2392.595	443.38
2396.402	433.38
2400.206	432.38
2404.007	428.38
2407.804	436.38
2411.597	434.38
2415.388	436.38
2419.174	428.38
2422.958	429.38
2426.738	432.38
2430.515	427.38
2434.289	428.38
2438.059	430.38
2441.825	419.38
2445.589	419.38
2449.349	411.38
2453.106	416.38
2456.859	414.38
2460.61	411.38
2464.356	403.38
2468.1	406.38
2471.84	392.38
2475.577	398.38
2479.311	400.38
2483.041	394.38
2486.768	394.38
2490.492	406.38
2494.213	396.38
2497.93	389.38
2501.644	397.38
2505.355	395.38
2509.062	399.38
2512.766	404.38
2516.467	398.38
2520.165	393.38
2523.859	392.38
2527.551	379.38
2531.239	387.38
2534.923	385.38
2538.605	384.38
2542.283	387.38
2545.958	366.38
2549.63	375.38
2553.299	365.38
2556.964	364.38
2560.626	362.38
2564.285	364.38
2567.941	361.38
2571.594	359.38
2575.243	358.38
2578.89	349.38
2582.533	345.38
2586.173	346.38
2589.809	347.38
2593.443	339.38
2597.073	346.38
2600.701	337.38
2604.325	339.38
2607.946	327.38
2611.564	335.38
2615.178	342.38
2618.79	330.38
2622.398	331.38
2626.004	329.38
2629.606	333.38
2633.205	327.38
2636.801	326.38
2640.394	324.38
2643.983	312.38
2647.57	308.38
2651.153	315.38
2654.734	306.38
2658.311	310.38
2661.885	298.38
2665.456	310.38
2669.025	302.38
2672.589	288.38
2676.151	298.38
2679.71	297.38
2683.266	284.38
2686.819	288.38
2690.368	299.38
2693.915	296.38
2697.458	285.38
2700.999	282.38
2704.536	283.38
2708.071	265.38
2711.602	278.38
2715.13	272.38
2718.656	274.38
2722.178	267.38
2725.697	270.38
2729.214	270.38
2732.727	279.38
2736.237	279.38
2739.744	271.38
2743.249	283.38
2746.75	271.38
2750.248	268.38
2753.743	269.38
2757.236	273.38
2760.725	266.38
2764.211	265.38
2767.695	255.38
2771.175	248.38
2774.652	254.38
2778.127	243.38
2781.598	250.38
2785.067	247.38
2788.532	248.38
2791.995	252.38
2795.455	250.38
2798.911	256.38
2802.365	257.38
2805.816	259.38
2809.264	255.38
2812.709	263.38
2816.151	261.38
2819.59	258.38
2823.026	257.38
2826.46	265.38
2829.89	261.38
2833.318	263.38
2836.742	263.38
2840.164	268.38
2843.583	263.38
2846.999	264.38
2850.412	272.38
2853.822	273.38
2857.229	282.38
2860.634	277.38
2864.035	265.38
2867.434	282.38
2870.83	285.38
2874.223	290.38
2877.613	289.38
2881	300.38
2884.385	300.38
2887.766	294.38
2891.145	291.38
2894.521	297.38
2897.894	295.38
2901.264	301.38
2904.631	309.38
2907.996	308.38
2911.358	299.38
2914.717	303.38
2918.073	302.38
2921.426	309.38
2924.777	317.38
2928.124	317.38
2931.469	333.38
2934.811	325.38
2938.15	338.38
2941.487	336.38
2944.821	350.38
2948.152	357.38
2951.48	351.38
2954.805	351.38
2958.128	350.38
2961.447	358.38
2964.765	357.38
2968.079	368.38
2971.39	371.38
2974.699	369.38
2978.005	386.38
2981.308	384.38
2984.609	388.38
2987.907	395.38
2991.202	407.38
2994.494	425.38
2997.784	415.38
3001.07	432.38
3004.355	439.38
3007.636	449.38
3010.915	444.38
3014.191	458.38
3017.464	475.38
3020.734	484.38
3024.002	484.38
3027.267	484.38
3030.53	490.38
3033.789	496.38
3037.046	507.38
3040.301	526.38
3043.552	539.38
3046.801	542.38
3050.048	551.38
3053.291	580.38
3056.532	590.38
3059.771	609.38
3063.006	630.38
3066.239	647.38
3069.469	656.38
3072.697	667.38
3075.922	691.38
3079.144	710.38
3082.364	715.38
3085.581	739.38
3088.795	764.38
3092.007	774.38
3095.216	780.38
3098.423	801.38
3101.627	816.38
3104.828	845.38
3108.026	853.38
3111.222	873.38
3114.416	893.38
3117.607	918.38
3120.795	896.38
3123.98	932.38
3127.163	953.38
3130.344	984.38
3133.521	994.38
3136.696	1021.38
3139.869	1047.38
3143.039	1057.38
3146.206	1076.38
3149.371	1091.38
3152.533	1091.38
3155.693	1098.38
3158.85	1092.38
3162.005	1111.38
3165.157	1128.38
3168.306	1129.38
3171.453	1129.38
3174.597	1122.38
3177.739	1129.38
3180.878	1128.38
3184.014	1142.38
3187.149	1148.38
3190.28	1144.38
3193.409	1162.38
3196.536	1145.38
3199.659	1151.38
3202.781	1152.38
3205.9	1148.38
3209.016	1156.38
3212.13	1142.38
3215.241	1166.38
3218.35	1143.38
3221.456	1139.38
3224.56	1135.38
3227.661	1124.38
3230.76	1121.38
3233.856	1091.38
3236.95	1078.38
3240.041	1070.38
3243.13	1062.38
3246.216	1043.38
3249.3	1050.38
3252.382	1038.38
3255.46	1038.38
3258.537	1019.38
3261.611	1024.38
3264.682	1026.38
3267.751	1002.38
3270.818	1006.38
3273.882	1010.38
3276.943	992.38
3280.002	991.38
3283.059	976.38
3286.113	943.38
3289.165	947.38
3292.214	940.38
3295.261	933.38
3298.306	914.38
3301.348	899.38
3304.387	893.38
3307.425	868.38
3310.459	855.38
3313.492	855.38
3316.521	838.38
3319.549	844.38
3322.574	837.38
3325.597	807.38
3328.617	814.38
3331.635	824.38
3334.65	813.38
3337.663	804.38
3340.674	796.38
3343.682	786.38
3346.688	784.38
3349.691	789.38
3352.692	791.38
3355.691	791.38
3358.687	768.38
3361.681	776.38
3364.673	746.38
3367.662	746.38
3370.649	735.38
3373.633	730.38
3376.615	725.38
3379.595	705.38
3382.572	715.38
3385.547	689.38
3388.52	691.38
3391.49	682.38
3394.458	667.38
3397.424	648.38
3400.387	662.38
3403.348	627.38
3406.307	642.38
3409.263	617.38
3412.217	612.38
3415.168	612.38
3418.118	611.38
3421.065	592.38
3424.009	600.38
3426.951	594.38
3429.891	577.38
3432.829	563.38
3435.764	552.38
3438.697	545.38
3441.628	524.38
3444.557	520.38
3447.483	511.38
3450.407	492.38
3453.328	475.38
3456.247	470.38
3459.164	444.38
3462.079	449.38
3464.991	436.38
3467.902	430.38
3470.809	410.38
3473.715	394.38
3476.618	386.38
3479.519	369.38
3482.418	362.38
3485.315	353.38
3488.209	343.38
3491.101	333.38
3493.99	327.38
3496.878	319.38
3499.763	312.38
3502.646	295.38
3505.527	293.38
3508.405	277.38
3511.281	271.38
3514.155	249.38
3517.027	248.38
3519.897	233.38
3522.764	225.38
3525.629	216.38
3528.492	209.38
3531.352	197.38
3534.211	187.38
3537.067	174.38
3539.921	168.38
3542.773	160.38
3545.622	147.38
3548.469	140.38
3551.315	137.38
3554.157	135.38
3556.998	119.38
3559.837	115.38
3562.673	111.38
3565.507	104.38
3568.339	100.38
3571.169	100.38
3573.996	89.38
3576.822	85.38
3579.645	79.38
3582.466	76.38
3585.285	74.38
3588.101	61.38
3590.916	62.38
3593.728	56.38
3596.538	54.38
3599.346	42.38
3602.152	46.38
3604.956	41.38
3607.757	43.38
3610.556	37.38
3613.354	31.38
3616.149	19.38
3618.942	22.38
3621.732	16.38
3624.521	21.38
3627.307	15.38
3630.092	16.38
3632.874	14.38
3635.654	4.38
3638.432	7.38
3641.208	2.38
3643.982	-3.62
3646.753	-1.62
3649.523	-0.62
3652.29	0.38
3655.055	-8.62
3657.818	-15.62
3660.579	-11.62
3663.338	-16.62
3666.095	-14.62
3668.849	-18.62
3671.602	-21.62
3674.352	-24.62
3677.101	-22.62
3679.847	-25.62
3682.591	-26.62
3685.333	-29.62
3688.073	-30.62
3690.811	-31.62
3693.547	-29.62
3696.281	-34.62
3699.013	-32.62
3701.742	-32.62
3704.47	-38.62
3707.195	-36.62
3709.919	-40.62
3712.64	-46.62
3715.359	-38.62
3718.076	-43.62
3720.792	-43.62
3723.505	-45.62
3726.216	-48.62
3728.925	-49.62
3731.632	-54.62
3734.336	-46.62
3737.039	-49.62
3739.74	-48.62
3742.439	-42.62
3745.136	-47.62
3747.83	-48.62
3750.523	-53.62
3753.213	-49.62
3755.902	-51.62
3758.589	-54.62
3761.273	-53.62
3763.956	-51.62
3766.636	-49.62
3769.315	-50.62
3771.991	-55.62
3774.665	-56.62
3777.338	-55.62
3780.008	-53.62
3782.677	-55.62
3785.343	-56.62
3788.007	-57.62
3790.67	-56.62
3793.33	-56.62
3795.989	-57.62
3798.645	-58.62
3801.299	-59.62
3803.952	-57.62
3806.602	-59.62
3809.251	-59.62
3811.897	-59.62
3814.542	-60.62
3817.184	-56.62
3819.825	-59.62
3822.463	-57.62
3825.1	-62.62
3827.735	-62.62
3830.367	-64.62
3832.998	-62.62
3835.627	-58.62
3838.253	-58.62
3840.878	-62.62
3843.501	-61.62
3846.122	-63.62
3848.741	-67.62
3851.358	-65.62
3853.973	-61.62
3856.586	-60.62
3859.197	-61.62
3861.806	-59.62
3864.414	-66.62
3867.019	-64.62
3869.622	-61.62
3872.224	-62.62
3874.823	-64.62
3877.421	-58.62
3880.016	-63.62
3882.61	-58.62
3885.202	-56.62
3887.792	-57.62
3890.38	-59.62
3892.966	-65.62
3895.55	-63.62
3898.132	-65.62
3900.713	-65.62
3903.291	-65.62
3905.868	-63.62
3908.442	-65.62
3911.015	-68.62
3913.586	-66.62
3916.155	-66.62
3918.722	-68.62
3921.287	-64.62
3923.85	-64.62
3926.411	-62.62
3928.971	-65.62
3931.528	-66.62
3934.084	-70.62
3936.638	-71.62
3939.19	-69.62
3941.74	-67.62
3944.288	-68.62
3946.834	-65.62
3949.378	-65.62
3951.921	-65.62
3954.462	-68.62
3957	-67.62
3959.537	-69.62
3962.072	-67.62
3964.606	-68.62
3967.137	-66.62
3969.667	-66.62
3972.194	-65.62
3974.72	-67.62
3977.244	-66.62
3979.766	-70.62
3982.286	-66.62
3984.805	-69.62
3987.321	-65.62
3989.836	-66.62
3992.349	-68.62
3994.86	-62.62
3997.369	-61.62
3999.877	-65.62
4002.382	-64.62
4004.886	-66.62
4007.388	-69.62
4009.888	-64.62
4012.386	-64.62
4014.883	-64.62
4017.377	-68.62
4019.87	-68.62
4022.361	-66.62
4024.85	-68.62
4027.338	-66.62
4029.823	-61.62
4032.307	-62.62
4034.789	-64.62
4037.269	-65.62
4039.747	-66.62
4042.224	-70.62
4044.699	-67.62
4047.172	-68.62
4049.643	-65.62
4052.112	-67.62
4054.58	-68.62
4057.046	-66.62
4059.51	-65.62
4061.972	-64.62
4064.432	-64.62
4066.891	-67.62
4069.348	-68.62
4071.803	-69.62
4074.256	-68.62
4076.708	-67.62
4079.158	-66.62
4081.606	-64.62
4084.052	-66.62
4086.497	-64.62
4088.939	-68.62
4091.38	-69.62
4093.819	-70.62
4096.257	-68.62
4098.693	-69.62
4101.127	-73.62
4103.559	-68.62
4105.989	-16.62
4108.418	-15.62
4110.845	-16.62
4113.27	-11.62
4115.694	-13.62
4118.115	-2.62
4120.535	-66.62
4122.954	-65.62
4125.37	-67.62
4127.785	-65.62
4130.198	-65.62
4132.609	-66.62
4135.019	-75.62
4137.427	-72.62
4139.833	-69.62
4142.237	-66.62
