Data from 100CFU3_A_ramanshift_RamanShift_14-09-40-514.txt Node
Date: Sun Dec 25 14:09:40 IST 2016
User: aro
Spectrometer: QEPB0276
Trigger mode: 0
Integration Time (sec): 5.000000E0
Scans to average: 1
Electric dark correction enabled: true
Nonlinearity correction enabled: false
Boxcar width: 0
XAxis mode: Raman Shifts
Number of Pixels in Spectrum: 1044
>>>>>Begin Spectral Data<<<<<
160.701	6.5
166.742	17.5
172.777	63.5
178.805	200.5
184.826	599.5
190.841	1448.5
196.849	2691.5
202.85	3823.5
208.845	4411.5
214.833	4419.5
220.815	4239.5
226.789	4110.5
232.758	3986.5
238.719	3876.5
244.674	3758.5
250.623	3617.5
256.565	3453.5
262.5	3318.5
268.429	3149.5
274.351	3013.5
280.267	2888.5
286.176	2799.5
292.079	2697.5
297.975	2608.5
303.865	2527.5
309.748	2460.5
315.625	2406.5
321.495	2326.5
327.359	2283.5
333.217	2268.5
339.068	2233.5
344.912	2220.5
350.751	2193.5
356.583	2182.5
362.408	2189.5
368.227	2191.5
374.04	2191.5
379.847	2185.5
385.647	2230.5
391.44	2217.5
397.228	2221.5
403.009	2244.5
408.784	2250.5
414.553	2264.5
420.315	2269.5
426.071	2277.5
431.821	2267.5
437.565	2280.5
443.302	2278.5
449.033	2294.5
454.758	2275.5
460.477	2250.5
466.189	2258.5
471.896	2247.5
477.596	2261.5
483.29	2222.5
488.978	2229.5
494.66	2209.5
500.335	2209.5
506.005	2158.5
511.668	2129.5
517.325	2096.5
522.977	2076.5
528.622	2054.5
534.261	2014.5
539.894	2004.5
545.521	1998.5
551.141	1967.5
556.756	1966.5
562.365	1926.5
567.968	1919.5
573.565	1930.5
579.155	1916.5
584.74	1902.5
590.319	1900.5
595.892	1892.5
601.459	1869.5
607.02	1875.5
612.575	1855.5
618.124	1836.5
623.667	1811.5
629.204	1810.5
634.735	1800.5
640.261	1791.5
645.781	1778.5
651.294	1764.5
656.802	1770.5
662.304	1743.5
667.8	1752.5
673.29	1732.5
678.775	1735.5
684.254	1723.5
689.726	1737.5
695.193	1702.5
700.655	1715.5
706.11	1697.5
711.56	1680.5
717.004	1660.5
722.442	1659.5
727.874	1641.5
733.301	1636.5
738.722	1643.5
744.137	1623.5
749.547	1608.5
754.951	1623.5
760.349	1627.5
765.741	1620.5
771.128	1623.5
776.509	1620.5
781.885	1610.5
787.254	1624.5
792.618	1614.5
797.977	1637.5
803.33	1600.5
808.677	1604.5
814.019	1575.5
819.355	1549.5
824.686	1561.5
830.011	1530.5
835.33	1521.5
840.644	1512.5
845.952	1517.5
851.255	1511.5
856.552	1518.5
861.844	1515.5
867.13	1508.5
872.41	1480.5
877.686	1482.5
882.955	1480.5
888.219	1465.5
893.478	1442.5
898.731	1420.5
903.979	1403.5
909.221	1372.5
914.458	1360.5
919.69	1345.5
924.916	1355.5
930.136	1336.5
935.351	1350.5
940.561	1342.5
945.766	1342.5
950.965	1343.5
956.158	1350.5
961.347	1323.5
966.529	1299.5
971.707	1283.5
976.879	1275.5
982.046	1260.5
987.208	1250.5
992.364	1249.5
997.515	1244.5
1002.66	1251.5
1007.801	1257.5
1012.936	1271.5
1018.066	1293.5
1023.19	1303.5
1028.309	1298.5
1033.423	1298.5
1038.532	1295.5
1043.636	1287.5
1048.734	1275.5
1053.827	1259.5
1058.915	1249.5
1063.998	1238.5
1069.075	1234.5
1074.147	1230.5
1079.214	1241.5
1084.276	1243.5
1089.333	1252.5
1094.385	1279.5
1099.431	1280.5
1104.472	1271.5
1109.509	1265.5
1114.54	1266.5
1119.565	1249.5
1124.586	1247.5
1129.602	1227.5
1134.613	1224.5
1139.618	1213.5
1144.619	1208.5
1149.614	1204.5
1154.604	1205.5
1159.589	1223.5
1164.57	1231.5
1169.545	1227.5
1174.515	1234.5
1179.48	1243.5
1184.44	1235.5
1189.395	1215.5
1194.345	1206.5
1199.29	1212.5
1204.23	1209.5
1209.165	1209.5
1214.095	1214.5
1219.021	1216.5
1223.941	1248.5
1228.856	1240.5
1233.766	1244.5
1238.672	1249.5
1243.572	1254.5
1248.467	1244.5
1253.358	1223.5
1258.244	1225.5
1263.124	1204.5
1268	1180.5
1272.871	1171.5
1277.737	1161.5
1282.599	1169.5
1287.455	1154.5
1292.306	1160.5
1297.153	1160.5
1301.995	1188.5
1306.832	1189.5
1311.664	1184.5
1316.491	1199.5
1321.314	1191.5
1326.132	1181.5
1330.945	1181.5
1335.753	1159.5
1340.556	1146.5
1345.354	1146.5
1350.148	1123.5
1354.937	1108.5
1359.722	1101.5
1364.501	1106.5
1369.276	1106.5
1374.046	1076.5
1378.811	1090.5
1383.572	1083.5
1388.327	1091.5
1393.079	1086.5
1397.825	1082.5
1402.567	1070.5
1407.304	1060.5
1412.036	1063.5
1416.764	1058.5
1421.487	1057.5
1426.205	1049.5
1430.919	1059.5
1435.628	1071.5
1440.333	1077.5
1445.032	1094.5
1449.727	1094.5
1454.418	1099.5
1459.104	1114.5
1463.785	1112.5
1468.462	1097.5
1473.134	1086.5
1477.802	1067.5
1482.465	1065.5
1487.123	1044.5
1491.777	1056.5
1496.426	1048.5
1501.071	1056.5
1505.711	1088.5
1510.347	1081.5
1514.978	1101.5
1519.604	1101.5
1524.226	1117.5
1528.844	1112.5
1533.457	1104.5
1538.065	1106.5
1542.669	1099.5
1547.269	1100.5
1551.864	1107.5
1556.454	1110.5
1561.041	1122.5
1565.622	1118.5
1570.199	1140.5
1574.772	1150.5
1579.34	1171.5
1583.904	1177.5
1588.464	1187.5
1593.019	1224.5
1597.569	1234.5
1602.115	1239.5
1606.657	1245.5
1611.195	1259.5
1615.728	1259.5
1620.256	1259.5
1624.78	1299.5
1629.3	1301.5
1633.816	1317.5
1638.327	1338.5
1642.834	1350.5
1647.336	1365.5
1651.834	1364.5
1656.328	1357.5
1660.817	1368.5
1665.302	1348.5
1669.783	1328.5
1674.259	1313.5
1678.732	1267.5
1683.199	1228.5
1687.663	1208.5
1692.122	1163.5
1696.577	1135.5
1701.028	1068.5
1705.474	1042.5
1709.917	997.5
1714.355	971.5
1718.788	975.5
1723.218	962.5
1727.643	945.5
1732.064	933.5
1736.481	894.5
1740.893	880.5
1745.301	872.5
1749.705	838.5
1754.105	832.5
1758.501	799.5
1762.893	791.5
1767.28	773.5
1771.663	768.5
1776.042	753.5
1780.417	753.5
1784.787	751.5
1789.154	751.5
1793.516	761.5
1797.874	772.5
1802.228	765.5
1806.578	751.5
1810.924	731.5
1815.266	745.5
1819.603	731.5
1823.937	719.5
1828.266	701.5
1832.591	696.5
1836.913	703.5
1841.23	693.5
1845.543	698.5
1849.852	696.5
1854.156	691.5
1858.457	687.5
1862.754	700.5
1867.047	709.5
1871.335	701.5
1875.62	702.5
1879.9	711.5
1884.177	706.5
1888.449	707.5
1892.718	698.5
1896.982	694.5
1901.243	694.5
1905.499	698.5
1909.752	694.5
1914	703.5
1918.245	697.5
1922.485	691.5
1926.722	685.5
1930.954	695.5
1935.183	693.5
1939.408	707.5
1943.628	694.5
1947.845	705.5
1952.058	709.5
1956.267	685.5
1960.472	679.5
1964.673	675.5
1968.87	674.5
1973.063	655.5
1977.252	662.5
1981.438	662.5
1985.619	662.5
1989.797	669.5
1993.971	661.5
1998.14	670.5
2002.306	661.5
2006.469	679.5
2010.627	671.5
2014.781	684.5
2018.932	687.5
2023.078	668.5
2027.221	661.5
2031.36	665.5
2035.495	659.5
2039.627	656.5
2043.754	664.5
2047.878	657.5
2051.998	654.5
2056.114	656.5
2060.226	659.5
2064.334	655.5
2068.439	654.5
2072.54	657.5
2076.637	665.5
2080.73	661.5
2084.82	665.5
2088.906	661.5
2092.988	673.5
2097.066	674.5
2101.14	661.5
2105.211	645.5
2109.278	656.5
2113.342	649.5
2117.401	650.5
2121.457	638.5
2125.509	655.5
2129.558	655.5
2133.602	643.5
2137.643	635.5
2141.681	619.5
2145.714	639.5
2149.744	631.5
2153.77	637.5
2157.793	622.5
2161.812	629.5
2165.827	620.5
2169.838	609.5
2173.846	600.5
2177.851	592.5
2181.851	585.5
2185.848	579.5
2189.841	585.5
2193.831	568.5
2197.817	559.5
2201.799	563.5
2205.778	567.5
2209.753	562.5
2213.725	549.5
2217.693	558.5
2221.657	558.5
2225.618	552.5
2229.575	557.5
2233.529	549.5
2237.479	537.5
2241.425	538.5
2245.368	542.5
2249.307	533.5
2253.243	526.5
2257.175	519.5
2261.104	528.5
2265.029	506.5
2268.95	509.5
2272.868	498.5
2276.783	490.5
2280.694	485.5
2284.601	472.5
2288.505	467.5
2292.405	475.5
2296.302	472.5
2300.195	454.5
2304.085	461.5
2307.971	438.5
2311.854	442.5
2315.734	437.5
2319.609	443.5
2323.482	431.5
2327.351	423.5
2331.216	417.5
2335.078	419.5
2338.937	405.5
2342.792	420.5
2346.643	410.5
2350.492	405.5
2354.336	412.5
2358.178	411.5
2362.015	414.5
2365.85	403.5
2369.681	406.5
2373.508	415.5
2377.333	405.5
2381.153	409.5
2384.971	406.5
2388.785	403.5
2392.595	400.5
2396.402	407.5
2400.206	403.5
2404.007	404.5
2407.804	400.5
2411.597	405.5
2415.388	400.5
2419.174	392.5
2422.958	394.5
2426.738	393.5
2430.515	394.5
2434.289	394.5
2438.059	388.5
2441.825	388.5
2445.589	379.5
2449.349	377.5
2453.106	384.5
2456.859	375.5
2460.61	382.5
2464.356	383.5
2468.1	363.5
2471.84	369.5
2475.577	355.5
2479.311	360.5
2483.041	359.5
2486.768	363.5
2490.492	358.5
2494.213	362.5
2497.93	357.5
2501.644	363.5
2505.355	347.5
2509.062	357.5
2512.766	354.5
2516.467	361.5
2520.165	352.5
2523.859	348.5
2527.551	342.5
2531.239	333.5
2534.923	341.5
2538.605	346.5
2542.283	343.5
2545.958	339.5
2549.63	347.5
2553.299	329.5
2556.964	329.5
2560.626	342.5
2564.285	329.5
2567.941	325.5
2571.594	319.5
2575.243	322.5
2578.89	314.5
2582.533	319.5
2586.173	305.5
2589.809	305.5
2593.443	302.5
2597.073	307.5
2600.701	303.5
2604.325	311.5
2607.946	303.5
2611.564	312.5
2615.178	297.5
2618.79	308.5
2622.398	304.5
2626.004	297.5
2629.606	289.5
2633.205	289.5
2636.801	287.5
2640.394	296.5
2643.983	283.5
2647.57	289.5
2651.153	277.5
2654.734	272.5
2658.311	277.5
2661.885	280.5
2665.456	270.5
2669.025	277.5
2672.589	271.5
2676.151	265.5
2679.71	264.5
2683.266	268.5
2686.819	257.5
2690.368	269.5
2693.915	260.5
2697.458	258.5
2700.999	257.5
2704.536	252.5
2708.071	239.5
2711.602	245.5
2715.13	240.5
2718.656	242.5
2722.178	239.5
2725.697	240.5
2729.214	236.5
2732.727	245.5
2736.237	246.5
2739.744	247.5
2743.249	234.5
2746.75	237.5
2750.248	236.5
2753.743	241.5
2757.236	243.5
2760.725	240.5
2764.211	242.5
2767.695	235.5
2771.175	233.5
2774.652	229.5
2778.127	222.5
2781.598	231.5
2785.067	230.5
2788.532	231.5
2791.995	232.5
2795.455	237.5
2798.911	228.5
2802.365	236.5
2805.816	243.5
2809.264	242.5
2812.709	236.5
2816.151	237.5
2819.59	230.5
2823.026	232.5
2826.46	233.5
2829.89	238.5
2833.318	235.5
2836.742	237.5
2840.164	238.5
2843.583	241.5
2846.999	241.5
2850.412	246.5
2853.822	252.5
2857.229	253.5
2860.634	258.5
2864.035	250.5
2867.434	248.5
2870.83	261.5
2874.223	261.5
2877.613	266.5
2881	274.5
2884.385	260.5
2887.766	261.5
2891.145	266.5
2894.521	274.5
2897.894	268.5
2901.264	278.5
2904.631	271.5
2907.996	272.5
2911.358	274.5
2914.717	268.5
2918.073	282.5
2921.426	281.5
2924.777	293.5
2928.124	301.5
2931.469	301.5
2934.811	300.5
2938.15	298.5
2941.487	309.5
2944.821	313.5
2948.152	312.5
2951.48	322.5
2954.805	327.5
2958.128	334.5
2961.447	335.5
2964.765	337.5
2968.079	336.5
2971.39	342.5
2974.699	352.5
2978.005	349.5
2981.308	361.5
2984.609	371.5
2987.907	375.5
2991.202	398.5
2994.494	394.5
2997.784	409.5
3001.07	424.5
3004.355	431.5
3007.636	447.5
3010.915	438.5
3014.191	455.5
3017.464	466.5
3020.734	475.5
3024.002	482.5
3027.267	478.5
3030.53	494.5
3033.789	503.5
3037.046	509.5
3040.301	516.5
3043.552	528.5
3046.801	550.5
3050.048	558.5
3053.291	568.5
3056.532	583.5
3059.771	601.5
3063.006	609.5
3066.239	635.5
3069.469	653.5
3072.697	671.5
3075.922	693.5
3079.144	705.5
3082.364	726.5
3085.581	740.5
3088.795	760.5
3092.007	785.5
3095.216	787.5
3098.423	799.5
3101.627	830.5
3104.828	838.5
3108.026	868.5
3111.222	863.5
3114.416	888.5
3117.607	910.5
3120.795	932.5
3123.98	948.5
3127.163	981.5
3130.344	995.5
3133.521	1008.5
3136.696	1043.5
3139.869	1067.5
3143.039	1069.5
3146.206	1083.5
3149.371	1104.5
3152.533	1128.5
3155.693	1112.5
3158.85	1127.5
3162.005	1141.5
3165.157	1138.5
3168.306	1134.5
3171.453	1145.5
3174.597	1160.5
3177.739	1152.5
3180.878	1142.5
3184.014	1155.5
3187.149	1170.5
3190.28	1150.5
3193.409	1175.5
3196.536	1168.5
3199.659	1170.5
3202.781	1186.5
3205.9	1188.5
3209.016	1173.5
3212.13	1167.5
3215.241	1190.5
3218.35	1155.5
3221.456	1162.5
3224.56	1134.5
3227.661	1142.5
3230.76	1137.5
3233.856	1103.5
3236.95	1090.5
3240.041	1082.5
3243.13	1073.5
3246.216	1078.5
3249.3	1073.5
3252.382	1042.5
3255.46	1049.5
3258.537	1039.5
3261.611	1035.5
3264.682	1039.5
3267.751	1028.5
3270.818	1025.5
3273.882	1022.5
3276.943	1027.5
3280.002	999.5
3283.059	994.5
3286.113	978.5
3289.165	975.5
3292.214	946.5
3295.261	945.5
3298.306	929.5
3301.348	916.5
3304.387	913.5
3307.425	890.5
3310.459	890.5
3313.492	875.5
3316.521	860.5
3319.549	849.5
3322.574	841.5
3325.597	828.5
3328.617	834.5
3331.635	831.5
3334.65	820.5
3337.663	816.5
3340.674	806.5
3343.682	810.5
3346.688	804.5
3349.691	809.5
3352.692	798.5
3355.691	794.5
3358.687	792.5
3361.681	772.5
3364.673	771.5
3367.662	764.5
3370.649	751.5
3373.633	732.5
3376.615	718.5
3379.595	724.5
3382.572	711.5
3385.547	701.5
3388.52	695.5
3391.49	682.5
3394.458	669.5
3397.424	662.5
3400.387	663.5
3403.348	658.5
3406.307	662.5
3409.263	631.5
3412.217	639.5
3415.168	620.5
3418.118	614.5
3421.065	611.5
3424.009	603.5
3426.951	609.5
3429.891	581.5
3432.829	576.5
3435.764	561.5
3438.697	553.5
3441.628	540.5
3444.557	533.5
3447.483	511.5
3450.407	505.5
3453.328	487.5
3456.247	478.5
3459.164	470.5
3462.079	453.5
3464.991	437.5
3467.902	433.5
3470.809	404.5
3473.715	408.5
3476.618	385.5
3479.519	378.5
3482.418	370.5
3485.315	355.5
3488.209	352.5
3491.101	346.5
3493.99	325.5
3496.878	321.5
3499.763	309.5
3502.646	305.5
3505.527	299.5
3508.405	288.5
3511.281	267.5
3514.155	267.5
3517.027	252.5
3519.897	243.5
3522.764	233.5
3525.629	223.5
3528.492	213.5
3531.352	197.5
3534.211	188.5
3537.067	182.5
3539.921	166.5
3542.773	165.5
3545.622	156.5
3548.469	147.5
3551.315	139.5
3554.157	133.5
3556.998	125.5
3559.837	119.5
3562.673	109.5
3565.507	104.5
3568.339	103.5
3571.169	93.5
3573.996	87.5
3576.822	81.5
3579.645	81.5
3582.466	71.5
3585.285	74.5
3588.101	65.5
3590.916	56.5
3593.728	58.5
3596.538	47.5
3599.346	47.5
3602.152	43.5
3604.956	39.5
3607.757	37.5
3610.556	35.5
3613.354	26.5
3616.149	18.5
3618.942	22.5
3621.732	17.5
3624.521	18.5
3627.307	12.5
3630.092	6.5
3632.874	13.5
3635.654	7.5
3638.432	9.5
3641.208	4.5
3643.982	2.5
3646.753	-1.5
3649.523	-5.5
3652.29	-5.5
3655.055	-10.5
3657.818	-10.5
3660.579	-7.5
3663.338	-17.5
3666.095	-14.5
3668.849	-19.5
3671.602	-20.5
3674.352	-28.5
3677.101	-24.5
3679.847	-29.5
3682.591	-27.5
3685.333	-31.5
3688.073	-32.5
3690.811	-30.5
3693.547	-32.5
3696.281	-40.5
3699.013	-39.5
3701.742	-40.5
3704.47	-35.5
3707.195	-38.5
3709.919	-36.5
3712.64	-41.5
3715.359	-40.5
3718.076	-43.5
3720.792	-49.5
3723.505	-47.5
3726.216	-50.5
3728.925	-51.5
3731.632	-47.5
3734.336	-46.5
3737.039	-51.5
3739.74	-51.5
3742.439	-46.5
3745.136	-52.5
3747.83	-50.5
3750.523	-55.5
3753.213	-54.5
3755.902	-52.5
3758.589	-48.5
3761.273	-51.5
3763.956	-51.5
3766.636	-50.5
3769.315	-51.5
3771.991	-62.5
3774.665	-56.5
3777.338	-59.5
3780.008	-57.5
3782.677	-55.5
3785.343	-55.5
3788.007	-59.5
3790.67	-58.5
3793.33	-60.5
3795.989	-59.5
3798.645	-62.5
3801.299	-60.5
3803.952	-58.5
3806.602	-56.5
3809.251	-60.5
3811.897	-61.5
3814.542	-64.5
3817.184	-62.5
3819.825	-61.5
3822.463	-63.5
3825.1	-65.5
3827.735	-57.5
3830.367	-66.5
3832.998	-61.5
3835.627	-62.5
3838.253	-62.5
3840.878	-64.5
3843.501	-63.5
3846.122	-67.5
3848.741	-67.5
3851.358	-65.5
3853.973	-61.5
3856.586	-61.5
3859.197	-65.5
3861.806	-64.5
3864.414	-68.5
3867.019	-68.5
3869.622	-59.5
3872.224	-64.5
3874.823	-63.5
3877.421	-64.5
3880.016	-62.5
3882.61	-62.5
3885.202	-61.5
3887.792	-63.5
3890.38	-63.5
3892.966	-66.5
3895.55	-62.5
3898.132	-66.5
3900.713	-65.5
3903.291	-70.5
3905.868	-69.5
3908.442	-69.5
3911.015	-72.5
3913.586	-71.5
3916.155	-66.5
3918.722	-66.5
3921.287	-65.5
3923.85	-68.5
3926.411	-68.5
3928.971	-69.5
3931.528	-71.5
3934.084	-71.5
3936.638	-72.5
3939.19	-68.5
3941.74	-68.5
3944.288	-71.5
3946.834	-70.5
3949.378	-71.5
3951.921	-67.5
3954.462	-71.5
3957	-69.5
3959.537	-69.5
3962.072	-66.5
3964.606	-65.5
3967.137	-68.5
3969.667	-67.5
3972.194	-68.5
3974.72	-72.5
3977.244	-68.5
3979.766	-69.5
3982.286	-66.5
3984.805	-68.5
3987.321	-65.5
3989.836	-71.5
3992.349	-68.5
3994.86	-66.5
3997.369	-61.5
3999.877	-70.5
4002.382	-65.5
4004.886	-67.5
4007.388	-67.5
4009.888	-64.5
4012.386	-64.5
4014.883	-64.5
4017.377	-67.5
4019.87	-71.5
4022.361	-69.5
4024.85	-68.5
4027.338	-63.5
4029.823	-62.5
4032.307	-61.5
4034.789	-67.5
4037.269	-67.5
4039.747	-72.5
4042.224	-72.5
4044.699	-67.5
4047.172	-69.5
4049.643	-66.5
4052.112	-66.5
4054.58	-69.5
4057.046	-65.5
4059.51	-71.5
4061.972	-64.5
4064.432	-68.5
4066.891	-68.5
4069.348	-67.5
4071.803	-66.5
4074.256	-71.5
4076.708	-70.5
4079.158	-68.5
4081.606	-65.5
4084.052	-72.5
4086.497	-69.5
4088.939	-69.5
4091.38	-70.5
4093.819	-70.5
4096.257	-68.5
4098.693	-70.5
4101.127	-69.5
4103.559	-73.5
4105.989	-22.5
4108.418	-18.5
4110.845	-11.5
4113.27	-12.5
4115.694	-7.5
4118.115	-6.5
4120.535	-68.5
4122.954	-70.5
4125.37	-66.5
4127.785	-69.5
4130.198	-68.5
4132.609	-73.5
4135.019	-76.5
4137.427	-70.5
4139.833	-69.5
4142.237	-71.5
