Data from 100CFU1_FROM15TH_ramanshift_RamanShift_13-28-35-752.txt Node
Date: Sun Dec 25 13:28:35 IST 2016
User: aro
Spectrometer: QEPB0276
Trigger mode: 0
Integration Time (sec): 5.000000E0
Scans to average: 1
Electric dark correction enabled: true
Nonlinearity correction enabled: false
Boxcar width: 0
XAxis mode: Raman Shifts
Number of Pixels in Spectrum: 1044
>>>>>Begin Spectral Data<<<<<
160.701	4.38
166.742	19.38
172.777	61.38
178.805	206.38
184.826	593.38
190.841	1434.38
196.849	2641.38
202.85	3809.38
208.845	4381.38
214.833	4403.38
220.815	4271.38
226.789	4172.38
232.758	4086.38
238.719	4008.38
244.674	3919.38
250.623	3830.38
256.565	3674.38
262.5	3536.38
268.429	3423.38
274.351	3323.38
280.267	3244.38
286.176	3138.38
292.079	3039.38
297.975	2991.38
303.865	2937.38
309.748	2843.38
315.625	2805.38
321.495	2748.38
327.359	2706.38
333.217	2696.38
339.068	2631.38
344.912	2632.38
350.751	2621.38
356.583	2589.38
362.408	2603.38
368.227	2607.38
374.04	2621.38
379.847	2622.38
385.647	2636.38
391.44	2636.38
397.228	2640.38
403.009	2672.38
408.784	2692.38
414.553	2671.38
420.315	2694.38
426.071	2689.38
431.821	2697.38
437.565	2698.38
443.302	2710.38
449.033	2694.38
454.758	2682.38
460.477	2696.38
466.189	2706.38
471.896	2678.38
477.596	2687.38
483.29	2663.38
488.978	2660.38
494.66	2663.38
500.335	2653.38
506.005	2623.38
511.668	2578.38
517.325	2581.38
522.977	2543.38
528.622	2531.38
534.261	2493.38
539.894	2480.38
545.521	2469.38
551.141	2459.38
556.756	2460.38
562.365	2444.38
567.968	2436.38
573.565	2435.38
579.155	2436.38
584.74	2429.38
590.319	2395.38
595.892	2395.38
601.459	2368.38
607.02	2384.38
612.575	2336.38
618.124	2369.38
623.667	2305.38
629.204	2337.38
634.735	2313.38
640.261	2285.38
645.781	2285.38
651.294	2287.38
656.802	2281.38
662.304	2253.38
667.8	2248.38
673.29	2263.38
678.775	2267.38
684.254	2256.38
689.726	2243.38
695.193	2234.38
700.655	2225.38
706.11	2236.38
711.56	2206.38
717.004	2226.38
722.442	2217.38
727.874	2185.38
733.301	2179.38
738.722	2182.38
744.137	2182.38
749.547	2159.38
754.951	2185.38
760.349	2167.38
765.741	2179.38
771.128	2163.38
776.509	2173.38
781.885	2195.38
787.254	2180.38
792.618	2200.38
797.977	2177.38
803.33	2169.38
808.677	2172.38
814.019	2144.38
819.355	2130.38
824.686	2137.38
830.011	2115.38
835.33	2123.38
840.644	2110.38
845.952	2124.38
851.255	2115.38
856.552	2133.38
861.844	2118.38
867.13	2121.38
872.41	2112.38
877.686	2101.38
882.955	2100.38
888.219	2097.38
893.478	2054.38
898.731	2039.38
903.979	2008.38
909.221	2004.38
914.458	2003.38
919.69	1980.38
924.916	1971.38
930.136	1974.38
935.351	1996.38
940.561	2004.38
945.766	1986.38
950.965	2005.38
956.158	1995.38
961.347	1985.38
966.529	1959.38
971.707	1949.38
976.879	1911.38
982.046	1883.38
987.208	1882.38
992.364	1903.38
997.515	1906.38
1002.66	1913.38
1007.801	1926.38
1012.936	1949.38
1018.066	1955.38
1023.19	1974.38
1028.309	1972.38
1033.423	1989.38
1038.532	1985.38
1043.636	1987.38
1048.734	1950.38
1053.827	1960.38
1058.915	1924.38
1063.998	1919.38
1069.075	1883.38
1074.147	1902.38
1079.214	1920.38
1084.276	1924.38
1089.333	1946.38
1094.385	1975.38
1099.431	1965.38
1104.472	1973.38
1109.509	1977.38
1114.54	1961.38
1119.565	1952.38
1124.586	1923.38
1129.602	1930.38
1134.613	1894.38
1139.618	1881.38
1144.619	1895.38
1149.614	1894.38
1154.604	1896.38
1159.589	1901.38
1164.57	1919.38
1169.545	1917.38
1174.515	1934.38
1179.48	1924.38
1184.44	1916.38
1189.395	1916.38
1194.345	1890.38
1199.29	1893.38
1204.23	1877.38
1209.165	1901.38
1214.095	1890.38
1219.021	1929.38
1223.941	1940.38
1228.856	1954.38
1233.766	1970.38
1238.672	1970.38
1243.572	1965.38
1248.467	1948.38
1253.358	1931.38
1258.244	1942.38
1263.124	1913.38
1268	1876.38
1272.871	1854.38
1277.737	1852.38
1282.599	1833.38
1287.455	1840.38
1292.306	1820.38
1297.153	1874.38
1301.995	1867.38
1306.832	1864.38
1311.664	1888.38
1316.491	1891.38
1321.314	1902.38
1326.132	1888.38
1330.945	1876.38
1335.753	1858.38
1340.556	1830.38
1345.354	1813.38
1350.148	1797.38
1354.937	1784.38
1359.722	1789.38
1364.501	1776.38
1369.276	1770.38
1374.046	1739.38
1378.811	1748.38
1383.572	1751.38
1388.327	1744.38
1393.079	1738.38
1397.825	1751.38
1402.567	1729.38
1407.304	1701.38
1412.036	1716.38
1416.764	1679.38
1421.487	1693.38
1426.205	1709.38
1430.919	1704.38
1435.628	1715.38
1440.333	1754.38
1445.032	1748.38
1449.727	1758.38
1454.418	1769.38
1459.104	1776.38
1463.785	1781.38
1468.462	1765.38
1473.134	1751.38
1477.802	1717.38
1482.465	1715.38
1487.123	1697.38
1491.777	1696.38
1496.426	1698.38
1501.071	1698.38
1505.711	1696.38
1510.347	1709.38
1514.978	1747.38
1519.604	1741.38
1524.226	1766.38
1528.844	1760.38
1533.457	1750.38
1538.065	1751.38
1542.669	1734.38
1547.269	1738.38
1551.864	1728.38
1556.454	1727.38
1561.041	1744.38
1565.622	1753.38
1570.199	1745.38
1574.772	1755.38
1579.34	1785.38
1583.904	1821.38
1588.464	1829.38
1593.019	1836.38
1597.569	1840.38
1602.115	1829.38
1606.657	1845.38
1611.195	1844.38
1615.728	1831.38
1620.256	1843.38
1624.78	1848.38
1629.3	1866.38
1633.816	1877.38
1638.327	1889.38
1642.834	1915.38
1647.336	1922.38
1651.834	1927.38
1656.328	1945.38
1660.817	1925.38
1665.302	1937.38
1669.783	1917.38
1674.259	1887.38
1678.732	1860.38
1683.199	1812.38
1687.663	1755.38
1692.122	1734.38
1696.577	1685.38
1701.028	1635.38
1705.474	1572.38
1709.917	1537.38
1714.355	1534.38
1718.788	1493.38
1723.218	1508.38
1727.643	1500.38
1732.064	1478.38
1736.481	1473.38
1740.893	1442.38
1745.301	1433.38
1749.705	1399.38
1754.105	1392.38
1758.501	1351.38
1762.893	1327.38
1767.28	1323.38
1771.663	1309.38
1776.042	1294.38
1780.417	1316.38
1784.787	1299.38
1789.154	1301.38
1793.516	1308.38
1797.874	1306.38
1802.228	1326.38
1806.578	1304.38
1810.924	1289.38
1815.266	1277.38
1819.603	1272.38
1823.937	1264.38
1828.266	1255.38
1832.591	1221.38
1836.913	1224.38
1841.23	1225.38
1845.543	1225.38
1849.852	1226.38
1854.156	1223.38
1858.457	1226.38
1862.754	1232.38
1867.047	1237.38
1871.335	1238.38
1875.62	1241.38
1879.9	1237.38
1884.177	1242.38
1888.449	1237.38
1892.718	1228.38
1896.982	1232.38
1901.243	1220.38
1905.499	1217.38
1909.752	1221.38
1914	1212.38
1918.245	1207.38
1922.485	1206.38
1926.722	1195.38
1930.954	1203.38
1935.183	1200.38
1939.408	1219.38
1943.628	1214.38
1947.845	1202.38
1952.058	1180.38
1956.267	1218.38
1960.472	1202.38
1964.673	1196.38
1968.87	1180.38
1973.063	1168.38
1977.252	1164.38
1981.438	1158.38
1985.619	1158.38
1989.797	1150.38
1993.971	1144.38
1998.14	1139.38
2002.306	1139.38
2006.469	1158.38
2010.627	1171.38
2014.781	1155.38
2018.932	1156.38
2023.078	1156.38
2027.221	1159.38
2031.36	1142.38
2035.495	1118.38
2039.627	1134.38
2043.754	1134.38
2047.878	1112.38
2051.998	1097.38
2056.114	1092.38
2060.226	1110.38
2064.334	1105.38
2068.439	1090.38
2072.54	1109.38
2076.637	1119.38
2080.73	1119.38
2084.82	1098.38
2088.906	1109.38
2092.988	1102.38
2097.066	1114.38
2101.14	1114.38
2105.211	1094.38
2109.278	1094.38
2113.342	1092.38
2117.401	1078.38
2121.457	1092.38
2125.509	1066.38
2129.558	1068.38
2133.602	1069.38
2137.643	1059.38
2141.681	1068.38
2145.714	1056.38
2149.744	1052.38
2153.77	1062.38
2157.793	1043.38
2161.812	1035.38
2165.827	1019.38
2169.838	1034.38
2173.846	984.38
2177.851	996.38
2181.851	989.38
2185.848	968.38
2189.841	957.38
2193.831	957.38
2197.817	953.38
2201.799	958.38
2205.778	954.38
2209.753	942.38
2213.725	946.38
2217.693	953.38
2221.657	948.38
2225.618	948.38
2229.575	947.38
2233.529	948.38
2237.479	946.38
2241.425	931.38
2245.368	931.38
2249.307	929.38
2253.243	916.38
2257.175	901.38
2261.104	891.38
2265.029	883.38
2268.95	860.38
2272.868	875.38
2276.783	853.38
2280.694	862.38
2284.601	855.38
2288.505	835.38
2292.405	837.38
2296.302	826.38
2300.195	816.38
2304.085	809.38
2307.971	808.38
2311.854	800.38
2315.734	779.38
2319.609	778.38
2323.482	761.38
2327.351	742.38
2331.216	740.38
2335.078	739.38
2338.937	744.38
2342.792	734.38
2346.643	736.38
2350.492	746.38
2354.336	725.38
2358.178	737.38
2362.015	730.38
2365.85	735.38
2369.681	742.38
2373.508	740.38
2377.333	740.38
2381.153	743.38
2384.971	748.38
2388.785	735.38
2392.595	746.38
2396.402	716.38
2400.206	736.38
2404.007	718.38
2407.804	731.38
2411.597	726.38
2415.388	720.38
2419.174	716.38
2422.958	724.38
2426.738	709.38
2430.515	710.38
2434.289	719.38
2438.059	707.38
2441.825	700.38
2445.589	696.38
2449.349	692.38
2453.106	687.38
2456.859	686.38
2460.61	683.38
2464.356	673.38
2468.1	681.38
2471.84	667.38
2475.577	656.38
2479.311	659.38
2483.041	664.38
2486.768	665.38
2490.492	658.38
2494.213	663.38
2497.93	668.38
2501.644	666.38
2505.355	665.38
2509.062	670.38
2512.766	664.38
2516.467	661.38
2520.165	652.38
2523.859	655.38
2527.551	639.38
2531.239	633.38
2534.923	628.38
2538.605	632.38
2542.283	634.38
2545.958	617.38
2549.63	634.38
2553.299	613.38
2556.964	615.38
2560.626	615.38
2564.285	606.38
2567.941	616.38
2571.594	605.38
2575.243	604.38
2578.89	597.38
2582.533	602.38
2586.173	580.38
2589.809	574.38
2593.443	577.38
2597.073	574.38
2600.701	590.38
2604.325	578.38
2607.946	571.38
2611.564	564.38
2615.178	570.38
2618.79	562.38
2622.398	575.38
2626.004	573.38
2629.606	560.38
2633.205	551.38
2636.801	551.38
2640.394	555.38
2643.983	548.38
2647.57	538.38
2651.153	523.38
2654.734	526.38
2658.311	520.38
2661.885	521.38
2665.456	525.38
2669.025	507.38
2672.589	497.38
2676.151	508.38
2679.71	506.38
2683.266	503.38
2686.819	492.38
2690.368	490.38
2693.915	492.38
2697.458	482.38
2700.999	480.38
2704.536	471.38
2708.071	473.38
2711.602	474.38
2715.13	460.38
2718.656	458.38
2722.178	465.38
2725.697	451.38
2729.214	451.38
2732.727	453.38
2736.237	455.38
2739.744	450.38
2743.249	442.38
2746.75	443.38
2750.248	438.38
2753.743	441.38
2757.236	443.38
2760.725	447.38
2764.211	439.38
2767.695	438.38
2771.175	435.38
2774.652	429.38
2778.127	421.38
2781.598	429.38
2785.067	423.38
2788.532	418.38
2791.995	422.38
2795.455	420.38
2798.911	426.38
2802.365	408.38
2805.816	417.38
2809.264	421.38
2812.709	423.38
2816.151	418.38
2819.59	419.38
2823.026	421.38
2826.46	413.38
2829.89	420.38
2833.318	409.38
2836.742	406.38
2840.164	398.38
2843.583	398.38
2846.999	410.38
2850.412	412.38
2853.822	416.38
2857.229	425.38
2860.634	408.38
2864.035	413.38
2867.434	419.38
2870.83	421.38
2874.223	424.38
2877.613	417.38
2881	430.38
2884.385	430.38
2887.766	427.38
2891.145	422.38
2894.521	416.38
2897.894	421.38
2901.264	409.38
2904.631	420.38
2907.996	417.38
2911.358	424.38
2914.717	408.38
2918.073	420.38
2921.426	412.38
2924.777	408.38
2928.124	417.38
2931.469	417.38
2934.811	424.38
2938.15	418.38
2941.487	434.38
2944.821	427.38
2948.152	437.38
2951.48	429.38
2954.805	440.38
2958.128	434.38
2961.447	437.38
2964.765	441.38
2968.079	439.38
2971.39	446.38
2974.699	442.38
2978.005	443.38
2981.308	457.38
2984.609	457.38
2987.907	465.38
2991.202	472.38
2994.494	472.38
2997.784	484.38
3001.07	504.38
3004.355	510.38
3007.636	520.38
3010.915	515.38
3014.191	525.38
3017.464	534.38
3020.734	537.38
3024.002	539.38
3027.267	545.38
3030.53	558.38
3033.789	548.38
3037.046	558.38
3040.301	566.38
3043.552	581.38
3046.801	590.38
3050.048	599.38
3053.291	605.38
3056.532	621.38
3059.771	627.38
3063.006	651.38
3066.239	654.38
3069.469	674.38
3072.697	685.38
3075.922	700.38
3079.144	723.38
3082.364	729.38
3085.581	732.38
3088.795	752.38
3092.007	775.38
3095.216	779.38
3098.423	795.38
3101.627	794.38
3104.828	815.38
3108.026	838.38
3111.222	841.38
3114.416	867.38
3117.607	859.38
3120.795	885.38
3123.98	898.38
3127.163	917.38
3130.344	930.38
3133.521	958.38
3136.696	979.38
3139.869	1001.38
3143.039	1008.38
3146.206	1015.38
3149.371	1027.38
3152.533	1047.38
3155.693	1038.38
3158.85	1044.38
3162.005	1065.38
3165.157	1061.38
3168.306	1064.38
3171.453	1053.38
3174.597	1073.38
3177.739	1071.38
3180.878	1065.38
3184.014	1089.38
3187.149	1065.38
3190.28	1080.38
3193.409	1071.38
3196.536	1086.38
3199.659	1079.38
3202.781	1073.38
3205.9	1085.38
3209.016	1079.38
3212.13	1070.38
3215.241	1079.38
3218.35	1076.38
3221.456	1060.38
3224.56	1047.38
3227.661	1047.38
3230.76	1027.38
3233.856	1004.38
3236.95	1004.38
3240.041	1000.38
3243.13	987.38
3246.216	980.38
3249.3	973.38
3252.382	977.38
3255.46	945.38
3258.537	950.38
3261.611	952.38
3264.682	951.38
3267.751	936.38
3270.818	940.38
3273.882	927.38
3276.943	939.38
3280.002	922.38
3283.059	935.38
3286.113	902.38
3289.165	894.38
3292.214	894.38
3295.261	870.38
3298.306	868.38
3301.348	840.38
3304.387	835.38
3307.425	820.38
3310.459	813.38
3313.492	804.38
3316.521	789.38
3319.549	784.38
3322.574	774.38
3325.597	774.38
3328.617	753.38
3331.635	751.38
3334.65	747.38
3337.663	754.38
3340.674	741.38
3343.682	750.38
3346.688	731.38
3349.691	733.38
3352.692	736.38
3355.691	745.38
3358.687	717.38
3361.681	718.38
3364.673	715.38
3367.662	708.38
3370.649	697.38
3373.633	685.38
3376.615	673.38
3379.595	657.38
3382.572	653.38
3385.547	647.38
3388.52	635.38
3391.49	629.38
3394.458	621.38
3397.424	609.38
3400.387	606.38
3403.348	603.38
3406.307	590.38
3409.263	578.38
3412.217	584.38
3415.168	576.38
3418.118	577.38
3421.065	566.38
3424.009	561.38
3426.951	548.38
3429.891	543.38
3432.829	522.38
3435.764	519.38
3438.697	511.38
3441.628	495.38
3444.557	485.38
3447.483	477.38
3450.407	467.38
3453.328	453.38
3456.247	442.38
3459.164	425.38
3462.079	415.38
3464.991	403.38
3467.902	387.38
3470.809	373.38
3473.715	372.38
3476.618	351.38
3479.519	345.38
3482.418	340.38
3485.315	325.38
3488.209	325.38
3491.101	313.38
3493.99	307.38
3496.878	295.38
3499.763	295.38
3502.646	282.38
3505.527	275.38
3508.405	270.38
3511.281	243.38
3514.155	240.38
3517.027	233.38
3519.897	226.38
3522.764	220.38
3525.629	208.38
3528.492	197.38
3531.352	196.38
3534.211	175.38
3537.067	169.38
3539.921	153.38
3542.773	155.38
3545.622	143.38
3548.469	133.38
3551.315	135.38
3554.157	122.38
3556.998	116.38
3559.837	117.38
3562.673	105.38
3565.507	102.38
3568.339	97.38
3571.169	98.38
3573.996	86.38
3576.822	81.38
3579.645	75.38
3582.466	76.38
3585.285	71.38
3588.101	64.38
3590.916	56.38
3593.728	55.38
3596.538	49.38
3599.346	45.38
3602.152	38.38
3604.956	38.38
3607.757	36.38
3610.556	32.38
3613.354	33.38
3616.149	22.38
3618.942	19.38
3621.732	19.38
3624.521	14.38
3627.307	12.38
3630.092	11.38
3632.874	9.38
3635.654	3.38
3638.432	6.38
3641.208	4.38
3643.982	0.38
3646.753	-0.62
3649.523	2.38
3652.29	-4.62
3655.055	-11.62
3657.818	-11.62
3660.579	-11.62
3663.338	-14.62
3666.095	-14.62
3668.849	-19.62
3671.602	-18.62
3674.352	-25.62
3677.101	-28.62
3679.847	-30.62
3682.591	-28.62
3685.333	-28.62
3688.073	-28.62
3690.811	-24.62
3693.547	-30.62
3696.281	-32.62
3699.013	-37.62
3701.742	-36.62
3704.47	-35.62
3707.195	-36.62
3709.919	-39.62
3712.64	-42.62
3715.359	-39.62
3718.076	-42.62
3720.792	-47.62
3723.505	-41.62
3726.216	-46.62
3728.925	-48.62
3731.632	-47.62
3734.336	-44.62
3737.039	-45.62
3739.74	-45.62
3742.439	-44.62
3745.136	-43.62
3747.83	-52.62
3750.523	-50.62
3753.213	-49.62
3755.902	-51.62
3758.589	-50.62
3761.273	-52.62
3763.956	-48.62
3766.636	-47.62
3769.315	-52.62
3771.991	-54.62
3774.665	-53.62
3777.338	-53.62
3780.008	-53.62
3782.677	-52.62
3785.343	-52.62
3788.007	-57.62
3790.67	-57.62
3793.33	-59.62
3795.989	-56.62
3798.645	-56.62
3801.299	-57.62
3803.952	-53.62
3806.602	-56.62
3809.251	-57.62
3811.897	-60.62
3814.542	-61.62
3817.184	-58.62
3819.825	-59.62
3822.463	-60.62
3825.1	-60.62
3827.735	-59.62
3830.367	-65.62
3832.998	-61.62
3835.627	-63.62
3838.253	-62.62
3840.878	-63.62
3843.501	-63.62
3846.122	-59.62
3848.741	-66.62
3851.358	-63.62
3853.973	-58.62
3856.586	-61.62
3859.197	-65.62
3861.806	-65.62
3864.414	-64.62
3867.019	-65.62
3869.622	-57.62
3872.224	-61.62
3874.823	-63.62
3877.421	-60.62
3880.016	-64.62
3882.61	-63.62
3885.202	-59.62
3887.792	-60.62
3890.38	-64.62
3892.966	-61.62
3895.55	-66.62
3898.132	-67.62
3900.713	-67.62
3903.291	-70.62
3905.868	-66.62
3908.442	-66.62
3911.015	-70.62
3913.586	-67.62
3916.155	-65.62
3918.722	-67.62
3921.287	-65.62
3923.85	-66.62
3926.411	-67.62
3928.971	-70.62
3931.528	-69.62
3934.084	-69.62
3936.638	-70.62
3939.19	-67.62
3941.74	-72.62
3944.288	-69.62
3946.834	-71.62
3949.378	-69.62
3951.921	-71.62
3954.462	-68.62
3957	-67.62
3959.537	-65.62
3962.072	-68.62
3964.606	-67.62
3967.137	-72.62
3969.667	-70.62
3972.194	-72.62
3974.72	-74.62
3977.244	-66.62
3979.766	-67.62
3982.286	-64.62
3984.805	-67.62
3987.321	-70.62
3989.836	-68.62
3992.349	-67.62
3994.86	-67.62
3997.369	-64.62
3999.877	-67.62
4002.382	-65.62
4004.886	-66.62
4007.388	-67.62
4009.888	-66.62
4012.386	-64.62
4014.883	-70.62
4017.377	-70.62
4019.87	-68.62
4022.361	-67.62
4024.85	-65.62
4027.338	-65.62
4029.823	-64.62
4032.307	-63.62
4034.789	-67.62
4037.269	-69.62
4039.747	-72.62
4042.224	-72.62
4044.699	-68.62
4047.172	-65.62
4049.643	-65.62
4052.112	-67.62
4054.58	-68.62
4057.046	-67.62
4059.51	-70.62
4061.972	-65.62
4064.432	-68.62
4066.891	-67.62
4069.348	-69.62
4071.803	-67.62
4074.256	-70.62
4076.708	-71.62
4079.158	-69.62
4081.606	-66.62
4084.052	-70.62
4086.497	-73.62
4088.939	-70.62
4091.38	-68.62
4093.819	-67.62
4096.257	-71.62
4098.693	-71.62
4101.127	-73.62
4103.559	-75.62
4105.989	-24.62
4108.418	-20.62
4110.845	-17.62
4113.27	-15.62
4115.694	-10.62
4118.115	-6.62
4120.535	-67.62
4122.954	-66.62
4125.37	-68.62
4127.785	-70.62
4130.198	-65.62
4132.609	-73.62
4135.019	-75.62
4137.427	-69.62
4139.833	-72.62
4142.237	-73.62
