Data from 10CFU3_C_ramanshift_RamanShift_15-18-12-590.txt Node
Date: Sun Dec 25 15:18:12 IST 2016
User: aro
Spectrometer: QEPB0276
Trigger mode: 0
Integration Time (sec): 5.000000E0
Scans to average: 1
Electric dark correction enabled: true
Nonlinearity correction enabled: false
Boxcar width: 0
XAxis mode: Raman Shifts
Number of Pixels in Spectrum: 1044
>>>>>Begin Spectral Data<<<<<
160.701	2.5
166.742	18.5
172.777	68.5
178.805	207.5
184.826	625.5
190.841	1493.5
196.849	2749.5
202.85	3952.5
208.845	4532.5
214.833	4523.5
220.815	4376.5
226.789	4197.5
232.758	4106.5
238.719	3945.5
244.674	3806.5
250.623	3690.5
256.565	3524.5
262.5	3329.5
268.429	3188.5
274.351	3036.5
280.267	2910.5
286.176	2792.5
292.079	2691.5
297.975	2602.5
303.865	2516.5
309.748	2432.5
315.625	2341.5
321.495	2281.5
327.359	2251.5
333.217	2209.5
339.068	2180.5
344.912	2186.5
350.751	2179.5
356.583	2158.5
362.408	2147.5
368.227	2133.5
374.04	2153.5
379.847	2153.5
385.647	2165.5
391.44	2178.5
397.228	2173.5
403.009	2182.5
408.784	2210.5
414.553	2218.5
420.315	2229.5
426.071	2209.5
431.821	2257.5
437.565	2231.5
443.302	2230.5
449.033	2227.5
454.758	2213.5
460.477	2206.5
466.189	2212.5
471.896	2203.5
477.596	2192.5
483.29	2204.5
488.978	2171.5
494.66	2145.5
500.335	2139.5
506.005	2111.5
511.668	2075.5
517.325	2041.5
522.977	1988.5
528.622	2002.5
534.261	1972.5
539.894	1953.5
545.521	1917.5
551.141	1923.5
556.756	1913.5
562.365	1905.5
567.968	1889.5
573.565	1887.5
579.155	1857.5
584.74	1853.5
590.319	1841.5
595.892	1828.5
601.459	1812.5
607.02	1800.5
612.575	1795.5
618.124	1773.5
623.667	1778.5
629.204	1763.5
634.735	1739.5
640.261	1735.5
645.781	1709.5
651.294	1708.5
656.802	1693.5
662.304	1697.5
667.8	1674.5
673.29	1678.5
678.775	1661.5
684.254	1663.5
689.726	1647.5
695.193	1642.5
700.655	1635.5
706.11	1639.5
711.56	1617.5
717.004	1608.5
722.442	1593.5
727.874	1591.5
733.301	1596.5
738.722	1576.5
744.137	1577.5
749.547	1573.5
754.951	1549.5
760.349	1552.5
765.741	1572.5
771.128	1548.5
776.509	1553.5
781.885	1559.5
787.254	1547.5
792.618	1546.5
797.977	1531.5
803.33	1528.5
808.677	1513.5
814.019	1517.5
819.355	1481.5
824.686	1495.5
830.011	1469.5
835.33	1464.5
840.644	1449.5
845.952	1455.5
851.255	1444.5
856.552	1425.5
861.844	1413.5
867.13	1421.5
872.41	1418.5
877.686	1400.5
882.955	1380.5
888.219	1391.5
893.478	1359.5
898.731	1335.5
903.979	1313.5
909.221	1310.5
914.458	1290.5
919.69	1292.5
924.916	1271.5
930.136	1277.5
935.351	1267.5
940.561	1280.5
945.766	1263.5
950.965	1269.5
956.158	1265.5
961.347	1237.5
966.529	1230.5
971.707	1219.5
976.879	1198.5
982.046	1186.5
987.208	1174.5
992.364	1165.5
997.515	1174.5
1002.66	1190.5
1007.801	1187.5
1012.936	1207.5
1018.066	1208.5
1023.19	1222.5
1028.309	1216.5
1033.423	1213.5
1038.532	1215.5
1043.636	1207.5
1048.734	1196.5
1053.827	1189.5
1058.915	1180.5
1063.998	1161.5
1069.075	1176.5
1074.147	1173.5
1079.214	1164.5
1084.276	1180.5
1089.333	1192.5
1094.385	1200.5
1099.431	1207.5
1104.472	1199.5
1109.509	1184.5
1114.54	1190.5
1119.565	1166.5
1124.586	1167.5
1129.602	1161.5
1134.613	1149.5
1139.618	1125.5
1144.619	1140.5
1149.614	1141.5
1154.604	1135.5
1159.589	1162.5
1164.57	1168.5
1169.545	1165.5
1174.515	1173.5
1179.48	1165.5
1184.44	1148.5
1189.395	1147.5
1194.345	1141.5
1199.29	1136.5
1204.23	1143.5
1209.165	1132.5
1214.095	1145.5
1219.021	1158.5
1223.941	1162.5
1228.856	1151.5
1233.766	1159.5
1238.672	1185.5
1243.572	1190.5
1248.467	1185.5
1253.358	1163.5
1258.244	1157.5
1263.124	1131.5
1268	1125.5
1272.871	1110.5
1277.737	1103.5
1282.599	1090.5
1287.455	1103.5
1292.306	1100.5
1297.153	1112.5
1301.995	1105.5
1306.832	1117.5
1311.664	1123.5
1316.491	1131.5
1321.314	1116.5
1326.132	1123.5
1330.945	1118.5
1335.753	1096.5
1340.556	1091.5
1345.354	1088.5
1350.148	1067.5
1354.937	1066.5
1359.722	1056.5
1364.501	1048.5
1369.276	1040.5
1374.046	1023.5
1378.811	1016.5
1383.572	1012.5
1388.327	1009.5
1393.079	1006.5
1397.825	1006.5
1402.567	1011.5
1407.304	994.5
1412.036	1008.5
1416.764	996.5
1421.487	999.5
1426.205	999.5
1430.919	1015.5
1435.628	1004.5
1440.333	1025.5
1445.032	1026.5
1449.727	1038.5
1454.418	1047.5
1459.104	1056.5
1463.785	1043.5
1468.462	1035.5
1473.134	1033.5
1477.802	1015.5
1482.465	996.5
1487.123	1009.5
1491.777	995.5
1496.426	1002.5
1501.071	1005.5
1505.711	1017.5
1510.347	1021.5
1514.978	1036.5
1519.604	1042.5
1524.226	1056.5
1528.844	1058.5
1533.457	1042.5
1538.065	1054.5
1542.669	1034.5
1547.269	1033.5
1551.864	1044.5
1556.454	1040.5
1561.041	1062.5
1565.622	1065.5
1570.199	1066.5
1574.772	1095.5
1579.34	1104.5
1583.904	1129.5
1588.464	1159.5
1593.019	1154.5
1597.569	1178.5
1602.115	1184.5
1606.657	1200.5
1611.195	1211.5
1615.728	1214.5
1620.256	1237.5
1624.78	1257.5
1629.3	1255.5
1633.816	1298.5
1638.327	1307.5
1642.834	1319.5
1647.336	1342.5
1651.834	1351.5
1656.328	1359.5
1660.817	1348.5
1665.302	1325.5
1669.783	1302.5
1674.259	1282.5
1678.732	1231.5
1683.199	1200.5
1687.663	1165.5
1692.122	1138.5
1696.577	1101.5
1701.028	1052.5
1705.474	1003.5
1709.917	962.5
1714.355	941.5
1718.788	911.5
1723.218	909.5
1727.643	898.5
1732.064	887.5
1736.481	867.5
1740.893	824.5
1745.301	808.5
1749.705	797.5
1754.105	772.5
1758.501	765.5
1762.893	745.5
1767.28	739.5
1771.663	736.5
1776.042	739.5
1780.417	716.5
1784.787	723.5
1789.154	718.5
1793.516	724.5
1797.874	722.5
1802.228	718.5
1806.578	703.5
1810.924	696.5
1815.266	690.5
1819.603	673.5
1823.937	654.5
1828.266	675.5
1832.591	655.5
1836.913	653.5
1841.23	644.5
1845.543	648.5
1849.852	650.5
1854.156	652.5
1858.457	641.5
1862.754	662.5
1867.047	653.5
1871.335	655.5
1875.62	661.5
1879.9	671.5
1884.177	670.5
1888.449	678.5
1892.718	663.5
1896.982	659.5
1901.243	662.5
1905.499	662.5
1909.752	657.5
1914	659.5
1918.245	659.5
1922.485	660.5
1926.722	641.5
1930.954	649.5
1935.183	648.5
1939.408	667.5
1943.628	670.5
1947.845	665.5
1952.058	662.5
1956.267	667.5
1960.472	663.5
1964.673	640.5
1968.87	645.5
1973.063	640.5
1977.252	622.5
1981.438	624.5
1985.619	621.5
1989.797	633.5
1993.971	623.5
1998.14	632.5
2002.306	627.5
2006.469	638.5
2010.627	636.5
2014.781	645.5
2018.932	637.5
2023.078	638.5
2027.221	637.5
2031.36	632.5
2035.495	632.5
2039.627	623.5
2043.754	620.5
2047.878	616.5
2051.998	621.5
2056.114	621.5
2060.226	621.5
2064.334	630.5
2068.439	630.5
2072.54	632.5
2076.637	632.5
2080.73	641.5
2084.82	634.5
2088.906	639.5
2092.988	635.5
2097.066	638.5
2101.14	643.5
2105.211	642.5
2109.278	626.5
2113.342	617.5
2117.401	626.5
2121.457	631.5
2125.509	616.5
2129.558	623.5
2133.602	609.5
2137.643	612.5
2141.681	609.5
2145.714	604.5
2149.744	613.5
2153.77	600.5
2157.793	598.5
2161.812	599.5
2165.827	582.5
2169.838	583.5
2173.846	568.5
2177.851	566.5
2181.851	560.5
2185.848	543.5
2189.841	544.5
2193.831	545.5
2197.817	527.5
2201.799	538.5
2205.778	533.5
2209.753	523.5
2213.725	532.5
2217.693	524.5
2221.657	521.5
2225.618	525.5
2229.575	520.5
2233.529	529.5
2237.479	516.5
2241.425	527.5
2245.368	509.5
2249.307	509.5
2253.243	497.5
2257.175	497.5
2261.104	481.5
2265.029	477.5
2268.95	479.5
2272.868	473.5
2276.783	471.5
2280.694	459.5
2284.601	465.5
2288.505	440.5
2292.405	444.5
2296.302	438.5
2300.195	437.5
2304.085	435.5
2307.971	414.5
2311.854	418.5
2315.734	413.5
2319.609	412.5
2323.482	397.5
2327.351	388.5
2331.216	393.5
2335.078	399.5
2338.937	386.5
2342.792	389.5
2346.643	373.5
2350.492	379.5
2354.336	381.5
2358.178	390.5
2362.015	383.5
2365.85	387.5
2369.681	387.5
2373.508	372.5
2377.333	390.5
2381.153	384.5
2384.971	379.5
2388.785	379.5
2392.595	376.5
2396.402	376.5
2400.206	376.5
2404.007	370.5
2407.804	365.5
2411.597	374.5
2415.388	364.5
2419.174	370.5
2422.958	362.5
2426.738	377.5
2430.515	366.5
2434.289	372.5
2438.059	371.5
2441.825	357.5
2445.589	362.5
2449.349	350.5
2453.106	349.5
2456.859	353.5
2460.61	351.5
2464.356	349.5
2468.1	348.5
2471.84	339.5
2475.577	329.5
2479.311	332.5
2483.041	330.5
2486.768	341.5
2490.492	341.5
2494.213	347.5
2497.93	338.5
2501.644	339.5
2505.355	331.5
2509.062	342.5
2512.766	335.5
2516.467	334.5
2520.165	336.5
2523.859	328.5
2527.551	323.5
2531.239	318.5
2534.923	325.5
2538.605	324.5
2542.283	324.5
2545.958	310.5
2549.63	315.5
2553.299	310.5
2556.964	313.5
2560.626	312.5
2564.285	308.5
2567.941	296.5
2571.594	307.5
2575.243	299.5
2578.89	294.5
2582.533	291.5
2586.173	293.5
2589.809	300.5
2593.443	293.5
2597.073	297.5
2600.701	290.5
2604.325	292.5
2607.946	278.5
2611.564	292.5
2615.178	285.5
2618.79	286.5
2622.398	288.5
2626.004	278.5
2629.606	279.5
2633.205	275.5
2636.801	273.5
2640.394	280.5
2643.983	269.5
2647.57	271.5
2651.153	257.5
2654.734	265.5
2658.311	263.5
2661.885	259.5
2665.456	262.5
2669.025	251.5
2672.589	249.5
2676.151	252.5
2679.71	236.5
2683.266	257.5
2686.819	253.5
2690.368	243.5
2693.915	240.5
2697.458	241.5
2700.999	234.5
2704.536	229.5
2708.071	229.5
2711.602	236.5
2715.13	230.5
2718.656	228.5
2722.178	230.5
2725.697	227.5
2729.214	230.5
2732.727	235.5
2736.237	228.5
2739.744	231.5
2743.249	233.5
2746.75	238.5
2750.248	236.5
2753.743	228.5
2757.236	232.5
2760.725	227.5
2764.211	229.5
2767.695	223.5
2771.175	225.5
2774.652	216.5
2778.127	218.5
2781.598	221.5
2785.067	213.5
2788.532	215.5
2791.995	213.5
2795.455	223.5
2798.911	224.5
2802.365	216.5
2805.816	222.5
2809.264	234.5
2812.709	226.5
2816.151	222.5
2819.59	219.5
2823.026	226.5
2826.46	225.5
2829.89	236.5
2833.318	228.5
2836.742	228.5
2840.164	235.5
2843.583	231.5
2846.999	236.5
2850.412	233.5
2853.822	243.5
2857.229	241.5
2860.634	253.5
2864.035	250.5
2867.434	256.5
2870.83	253.5
2874.223	257.5
2877.613	253.5
2881	258.5
2884.385	264.5
2887.766	258.5
2891.145	264.5
2894.521	260.5
2897.894	258.5
2901.264	262.5
2904.631	260.5
2907.996	264.5
2911.358	266.5
2914.717	262.5
2918.073	265.5
2921.426	286.5
2924.777	288.5
2928.124	291.5
2931.469	295.5
2934.811	291.5
2938.15	307.5
2941.487	303.5
2944.821	314.5
2948.152	317.5
2951.48	320.5
2954.805	320.5
2958.128	323.5
2961.447	339.5
2964.765	336.5
2968.079	348.5
2971.39	357.5
2974.699	358.5
2978.005	375.5
2981.308	367.5
2984.609	385.5
2987.907	393.5
2991.202	394.5
2994.494	413.5
2997.784	421.5
3001.07	426.5
3004.355	439.5
3007.636	456.5
3010.915	454.5
3014.191	460.5
3017.464	484.5
3020.734	484.5
3024.002	495.5
3027.267	497.5
3030.53	498.5
3033.789	518.5
3037.046	519.5
3040.301	539.5
3043.552	539.5
3046.801	562.5
3050.048	572.5
3053.291	592.5
3056.532	604.5
3059.771	630.5
3063.006	642.5
3066.239	649.5
3069.469	682.5
3072.697	698.5
3075.922	720.5
3079.144	732.5
3082.364	753.5
3085.581	770.5
3088.795	786.5
3092.007	806.5
3095.216	816.5
3098.423	836.5
3101.627	853.5
3104.828	874.5
3108.026	898.5
3111.222	915.5
3114.416	937.5
3117.607	955.5
3120.795	978.5
3123.98	998.5
3127.163	1015.5
3130.344	1034.5
3133.521	1071.5
3136.696	1075.5
3139.869	1104.5
3143.039	1127.5
3146.206	1136.5
3149.371	1151.5
3152.533	1166.5
3155.693	1183.5
3158.85	1176.5
3162.005	1202.5
3165.157	1199.5
3168.306	1194.5
3171.453	1209.5
3174.597	1217.5
3177.739	1220.5
3180.878	1222.5
3184.014	1211.5
3187.149	1214.5
3190.28	1216.5
3193.409	1216.5
3196.536	1232.5
3199.659	1229.5
3202.781	1245.5
3205.9	1237.5
3209.016	1240.5
3212.13	1226.5
3215.241	1222.5
3218.35	1221.5
3221.456	1210.5
3224.56	1203.5
3227.661	1191.5
3230.76	1178.5
3233.856	1170.5
3236.95	1152.5
3240.041	1129.5
3243.13	1120.5
3246.216	1112.5
3249.3	1115.5
3252.382	1116.5
3255.46	1120.5
3258.537	1097.5
3261.611	1084.5
3264.682	1091.5
3267.751	1080.5
3270.818	1074.5
3273.882	1084.5
3276.943	1064.5
3280.002	1049.5
3283.059	1055.5
3286.113	1038.5
3289.165	1035.5
3292.214	1007.5
3295.261	1002.5
3298.306	988.5
3301.348	964.5
3304.387	961.5
3307.425	944.5
3310.459	939.5
3313.492	926.5
3316.521	901.5
3319.549	910.5
3322.574	889.5
3325.597	866.5
3328.617	872.5
3331.635	870.5
3334.65	869.5
3337.663	863.5
3340.674	858.5
3343.682	846.5
3346.688	836.5
3349.691	837.5
3352.692	837.5
3355.691	835.5
3358.687	827.5
3361.681	821.5
3364.673	819.5
3367.662	797.5
3370.649	792.5
3373.633	775.5
3376.615	758.5
3379.595	763.5
3382.572	758.5
3385.547	740.5
3388.52	719.5
3391.49	725.5
3394.458	720.5
3397.424	705.5
3400.387	685.5
3403.348	694.5
3406.307	678.5
3409.263	686.5
3412.217	668.5
3415.168	657.5
3418.118	638.5
3421.065	642.5
3424.009	632.5
3426.951	621.5
3429.891	625.5
3432.829	615.5
3435.764	597.5
3438.697	595.5
3441.628	572.5
3444.557	561.5
3447.483	531.5
3450.407	533.5
3453.328	511.5
3456.247	506.5
3459.164	482.5
3462.079	481.5
3464.991	469.5
3467.902	446.5
3470.809	438.5
3473.715	426.5
3476.618	403.5
3479.519	403.5
3482.418	393.5
3485.315	379.5
3488.209	371.5
3491.101	366.5
3493.99	347.5
3496.878	350.5
3499.763	329.5
3502.646	324.5
3505.527	312.5
3508.405	295.5
3511.281	292.5
3514.155	280.5
3517.027	262.5
3519.897	249.5
3522.764	250.5
3525.629	231.5
3528.492	230.5
3531.352	213.5
3534.211	198.5
3537.067	186.5
3539.921	177.5
3542.773	175.5
3545.622	165.5
3548.469	155.5
3551.315	149.5
3554.157	143.5
3556.998	131.5
3559.837	124.5
3562.673	119.5
3565.507	120.5
3568.339	107.5
3571.169	106.5
3573.996	98.5
3576.822	96.5
3579.645	86.5
3582.466	86.5
3585.285	77.5
3588.101	73.5
3590.916	64.5
3593.728	55.5
3596.538	55.5
3599.346	51.5
3602.152	50.5
3604.956	47.5
3607.757	43.5
3610.556	36.5
3613.354	34.5
3616.149	25.5
3618.942	30.5
3621.732	21.5
3624.521	19.5
3627.307	20.5
3630.092	13.5
3632.874	13.5
3635.654	9.5
3638.432	5.5
3641.208	5.5
3643.982	1.5
3646.753	-0.5
3649.523	1.5
3652.29	-3.5
3655.055	-11.5
3657.818	-7.5
3660.579	-9.5
3663.338	-14.5
3666.095	-14.5
3668.849	-20.5
3671.602	-25.5
3674.352	-29.5
3677.101	-28.5
3679.847	-26.5
3682.591	-32.5
3685.333	-30.5
3688.073	-30.5
3690.811	-33.5
3693.547	-36.5
3696.281	-38.5
3699.013	-40.5
3701.742	-38.5
3704.47	-38.5
3707.195	-39.5
3709.919	-39.5
3712.64	-44.5
3715.359	-44.5
3718.076	-46.5
3720.792	-51.5
3723.505	-47.5
3726.216	-49.5
3728.925	-50.5
3731.632	-53.5
3734.336	-48.5
3737.039	-51.5
3739.74	-52.5
3742.439	-52.5
3745.136	-53.5
3747.83	-52.5
3750.523	-55.5
3753.213	-52.5
3755.902	-53.5
3758.589	-54.5
3761.273	-55.5
3763.956	-51.5
3766.636	-54.5
3769.315	-57.5
3771.991	-57.5
3774.665	-57.5
3777.338	-56.5
3780.008	-57.5
3782.677	-55.5
3785.343	-58.5
3788.007	-61.5
3790.67	-57.5
3793.33	-61.5
3795.989	-63.5
3798.645	-61.5
3801.299	-57.5
3803.952	-56.5
3806.602	-62.5
3809.251	-62.5
3811.897	-65.5
3814.542	-67.5
3817.184	-60.5
3819.825	-63.5
3822.463	-62.5
3825.1	-63.5
3827.735	-61.5
3830.367	-67.5
3832.998	-62.5
3835.627	-64.5
3838.253	-64.5
3840.878	-69.5
3843.501	-64.5
3846.122	-64.5
3848.741	-65.5
3851.358	-68.5
3853.973	-64.5
3856.586	-64.5
3859.197	-67.5
3861.806	-67.5
3864.414	-67.5
3867.019	-68.5
3869.622	-63.5
3872.224	-64.5
3874.823	-67.5
3877.421	-68.5
3880.016	-65.5
3882.61	-64.5
3885.202	-61.5
3887.792	-63.5
3890.38	-60.5
3892.966	-65.5
3895.55	-66.5
3898.132	-67.5
3900.713	-71.5
3903.291	-72.5
3905.868	-64.5
3908.442	-68.5
3911.015	-73.5
3913.586	-67.5
3916.155	-64.5
3918.722	-68.5
3921.287	-65.5
3923.85	-74.5
3926.411	-71.5
3928.971	-68.5
3931.528	-69.5
3934.084	-70.5
3936.638	-70.5
3939.19	-72.5
3941.74	-72.5
3944.288	-73.5
3946.834	-73.5
3949.378	-71.5
3951.921	-70.5
3954.462	-68.5
3957	-69.5
3959.537	-72.5
3962.072	-67.5
3964.606	-72.5
3967.137	-73.5
3969.667	-71.5
3972.194	-71.5
3974.72	-72.5
3977.244	-68.5
3979.766	-69.5
3982.286	-65.5
3984.805	-69.5
3987.321	-70.5
3989.836	-71.5
3992.349	-69.5
3994.86	-68.5
3997.369	-63.5
3999.877	-67.5
4002.382	-65.5
4004.886	-68.5
4007.388	-69.5
4009.888	-71.5
4012.386	-68.5
4014.883	-69.5
4017.377	-69.5
4019.87	-70.5
4022.361	-68.5
4024.85	-69.5
4027.338	-64.5
4029.823	-65.5
4032.307	-66.5
4034.789	-70.5
4037.269	-71.5
4039.747	-71.5
4042.224	-72.5
4044.699	-68.5
4047.172	-70.5
4049.643	-67.5
4052.112	-69.5
4054.58	-73.5
4057.046	-69.5
4059.51	-69.5
4061.972	-64.5
4064.432	-68.5
4066.891	-70.5
4069.348	-68.5
4071.803	-71.5
4074.256	-74.5
4076.708	-69.5
4079.158	-69.5
4081.606	-67.5
4084.052	-70.5
4086.497	-70.5
4088.939	-70.5
4091.38	-76.5
4093.819	-73.5
4096.257	-69.5
4098.693	-73.5
4101.127	-73.5
4103.559	-74.5
4105.989	-24.5
4108.418	-20.5
4110.845	-12.5
4113.27	-15.5
4115.694	-10.5
4118.115	-7.5
4120.535	-71.5
4122.954	-69.5
4125.37	-69.5
4127.785	-68.5
4130.198	-67.5
4132.609	-72.5
4135.019	-74.5
4137.427	-71.5
4139.833	-74.5
4142.237	-76.5
