Data from 10CFU3_FROM15TH_ramanshift_RamanShift_13-26-55-763.txt Node
Date: Sun Dec 25 13:26:55 IST 2016
User: aro
Spectrometer: QEPB0276
Trigger mode: 0
Integration Time (sec): 5.000000E0
Scans to average: 1
Electric dark correction enabled: true
Nonlinearity correction enabled: false
Boxcar width: 0
XAxis mode: Raman Shifts
Number of Pixels in Spectrum: 1044
>>>>>Begin Spectral Data<<<<<
160.701	1.38
166.742	19.38
172.777	69.38
178.805	203.38
184.826	628.38
190.841	1467.38
196.849	2706.38
202.85	3837.38
208.845	4437.38
214.833	4433.38
220.815	4317.38
226.789	4170.38
232.758	4083.38
238.719	3984.38
244.674	3864.38
250.623	3742.38
256.565	3575.38
262.5	3420.38
268.429	3299.38
274.351	3176.38
280.267	3070.38
286.176	2973.38
292.079	2888.38
297.975	2812.38
303.865	2722.38
309.748	2665.38
315.625	2594.38
321.495	2536.38
327.359	2489.38
333.217	2480.38
339.068	2454.38
344.912	2429.38
350.751	2408.38
356.583	2417.38
362.408	2410.38
368.227	2403.38
374.04	2414.38
379.847	2397.38
385.647	2430.38
391.44	2439.38
397.228	2445.38
403.009	2442.38
408.784	2477.38
414.553	2485.38
420.315	2495.38
426.071	2499.38
431.821	2522.38
437.565	2506.38
443.302	2492.38
449.033	2498.38
454.758	2481.38
460.477	2485.38
466.189	2467.38
471.896	2447.38
477.596	2462.38
483.29	2456.38
488.978	2446.38
494.66	2459.38
500.335	2402.38
506.005	2401.38
511.668	2362.38
517.325	2328.38
522.977	2317.38
528.622	2306.38
534.261	2248.38
539.894	2242.38
545.521	2266.38
551.141	2212.38
556.756	2211.38
562.365	2206.38
567.968	2183.38
573.565	2192.38
579.155	2196.38
584.74	2161.38
590.319	2152.38
595.892	2150.38
601.459	2120.38
607.02	2136.38
612.575	2119.38
618.124	2098.38
623.667	2103.38
629.204	2058.38
634.735	2039.38
640.261	2037.38
645.781	2037.38
651.294	2019.38
656.802	2020.38
662.304	2028.38
667.8	2011.38
673.29	2018.38
678.775	1997.38
684.254	1982.38
689.726	1976.38
695.193	1982.38
700.655	1966.38
706.11	1983.38
711.56	1956.38
717.004	1969.38
722.442	1929.38
727.874	1926.38
733.301	1935.38
738.722	1933.38
744.137	1913.38
749.547	1905.38
754.951	1896.38
760.349	1911.38
765.741	1911.38
771.128	1919.38
776.509	1907.38
781.885	1913.38
787.254	1914.38
792.618	1904.38
797.977	1910.38
803.33	1889.38
808.677	1872.38
814.019	1867.38
819.355	1841.38
824.686	1832.38
830.011	1826.38
835.33	1830.38
840.644	1823.38
845.952	1807.38
851.255	1809.38
856.552	1793.38
861.844	1800.38
867.13	1793.38
872.41	1794.38
877.686	1784.38
882.955	1777.38
888.219	1753.38
893.478	1749.38
898.731	1722.38
903.979	1700.38
909.221	1704.38
914.458	1679.38
919.69	1670.38
924.916	1669.38
930.136	1653.38
935.351	1673.38
940.561	1680.38
945.766	1663.38
950.965	1666.38
956.158	1667.38
961.347	1643.38
966.529	1633.38
971.707	1622.38
976.879	1582.38
982.046	1590.38
987.208	1567.38
992.364	1568.38
997.515	1574.38
1002.66	1576.38
1007.801	1604.38
1012.936	1615.38
1018.066	1601.38
1023.19	1635.38
1028.309	1633.38
1033.423	1634.38
1038.532	1640.38
1043.636	1622.38
1048.734	1617.38
1053.827	1615.38
1058.915	1571.38
1063.998	1568.38
1069.075	1556.38
1074.147	1579.38
1079.214	1557.38
1084.276	1602.38
1089.333	1590.38
1094.385	1612.38
1099.431	1608.38
1104.472	1625.38
1109.509	1623.38
1114.54	1607.38
1119.565	1602.38
1124.586	1582.38
1129.602	1575.38
1134.613	1562.38
1139.618	1552.38
1144.619	1562.38
1149.614	1546.38
1154.604	1565.38
1159.589	1568.38
1164.57	1564.38
1169.545	1558.38
1174.515	1583.38
1179.48	1580.38
1184.44	1580.38
1189.395	1549.38
1194.345	1562.38
1199.29	1548.38
1204.23	1532.38
1209.165	1560.38
1214.095	1557.38
1219.021	1577.38
1223.941	1572.38
1228.856	1602.38
1233.766	1594.38
1238.672	1605.38
1243.572	1607.38
1248.467	1612.38
1253.358	1594.38
1258.244	1589.38
1263.124	1567.38
1268	1539.38
1272.871	1522.38
1277.737	1512.38
1282.599	1504.38
1287.455	1508.38
1292.306	1511.38
1297.153	1534.38
1301.995	1522.38
1306.832	1545.38
1311.664	1537.38
1316.491	1547.38
1321.314	1545.38
1326.132	1534.38
1330.945	1524.38
1335.753	1518.38
1340.556	1487.38
1345.354	1479.38
1350.148	1461.38
1354.937	1443.38
1359.722	1436.38
1364.501	1447.38
1369.276	1451.38
1374.046	1421.38
1378.811	1421.38
1383.572	1424.38
1388.327	1416.38
1393.079	1424.38
1397.825	1413.38
1402.567	1410.38
1407.304	1381.38
1412.036	1375.38
1416.764	1375.38
1421.487	1385.38
1426.205	1369.38
1430.919	1395.38
1435.628	1397.38
1440.333	1416.38
1445.032	1412.38
1449.727	1432.38
1454.418	1424.38
1459.104	1448.38
1463.785	1429.38
1468.462	1434.38
1473.134	1406.38
1477.802	1402.38
1482.465	1388.38
1487.123	1385.38
1491.777	1368.38
1496.426	1380.38
1501.071	1392.38
1505.711	1405.38
1510.347	1402.38
1514.978	1414.38
1519.604	1425.38
1524.226	1437.38
1528.844	1437.38
1533.457	1437.38
1538.065	1465.38
1542.669	1426.38
1547.269	1421.38
1551.864	1428.38
1556.454	1432.38
1561.041	1441.38
1565.622	1445.38
1570.199	1450.38
1574.772	1465.38
1579.34	1478.38
1583.904	1528.38
1588.464	1520.38
1593.019	1533.38
1597.569	1548.38
1602.115	1549.38
1606.657	1559.38
1611.195	1566.38
1615.728	1564.38
1620.256	1562.38
1624.78	1590.38
1629.3	1593.38
1633.816	1612.38
1638.327	1642.38
1642.834	1647.38
1647.336	1665.38
1651.834	1680.38
1656.328	1684.38
1660.817	1683.38
1665.302	1670.38
1669.783	1678.38
1674.259	1610.38
1678.732	1562.38
1683.199	1529.38
1687.663	1501.38
1692.122	1464.38
1696.577	1412.38
1701.028	1393.38
1705.474	1333.38
1709.917	1303.38
1714.355	1271.38
1718.788	1256.38
1723.218	1260.38
1727.643	1240.38
1732.064	1217.38
1736.481	1183.38
1740.893	1174.38
1745.301	1159.38
1749.705	1133.38
1754.105	1102.38
1758.501	1076.38
1762.893	1071.38
1767.28	1059.38
1771.663	1068.38
1776.042	1050.38
1780.417	1049.38
1784.787	1036.38
1789.154	1067.38
1793.516	1064.38
1797.874	1053.38
1802.228	1049.38
1806.578	1048.38
1810.924	1046.38
1815.266	1033.38
1819.603	1012.38
1823.937	1002.38
1828.266	995.38
1832.591	985.38
1836.913	978.38
1841.23	973.38
1845.543	971.38
1849.852	966.38
1854.156	991.38
1858.457	973.38
1862.754	989.38
1867.047	987.38
1871.335	990.38
1875.62	991.38
1879.9	977.38
1884.177	998.38
1888.449	989.38
1892.718	985.38
1896.982	967.38
1901.243	968.38
1905.499	980.38
1909.752	967.38
1914	973.38
1918.245	967.38
1922.485	966.38
1926.722	952.38
1930.954	958.38
1935.183	967.38
1939.408	980.38
1943.628	991.38
1947.845	977.38
1952.058	972.38
1956.267	956.38
1960.472	963.38
1964.673	961.38
1968.87	959.38
1973.063	951.38
1977.252	936.38
1981.438	934.38
1985.619	926.38
1989.797	941.38
1993.971	924.38
1998.14	933.38
2002.306	921.38
2006.469	930.38
2010.627	937.38
2014.781	947.38
2018.932	940.38
2023.078	937.38
2027.221	929.38
2031.36	922.38
2035.495	911.38
2039.627	911.38
2043.754	902.38
2047.878	887.38
2051.998	898.38
2056.114	902.38
2060.226	891.38
2064.334	904.38
2068.439	905.38
2072.54	907.38
2076.637	905.38
2080.73	896.38
2084.82	895.38
2088.906	903.38
2092.988	902.38
2097.066	917.38
2101.14	911.38
2105.211	904.38
2109.278	897.38
2113.342	899.38
2117.401	882.38
2121.457	882.38
2125.509	869.38
2129.558	880.38
2133.602	860.38
2137.643	875.38
2141.681	871.38
2145.714	868.38
2149.744	879.38
2153.77	845.38
2157.793	865.38
2161.812	844.38
2165.827	854.38
2169.838	828.38
2173.846	826.38
2177.851	813.38
2181.851	798.38
2185.848	793.38
2189.841	791.38
2193.831	773.38
2197.817	776.38
2201.799	767.38
2205.778	769.38
2209.753	776.38
2213.725	778.38
2217.693	760.38
2221.657	764.38
2225.618	775.38
2229.575	770.38
2233.529	767.38
2237.479	763.38
2241.425	766.38
2245.368	753.38
2249.307	747.38
2253.243	729.38
2257.175	723.38
2261.104	701.38
2265.029	699.38
2268.95	698.38
2272.868	690.38
2276.783	690.38
2280.694	688.38
2284.601	670.38
2288.505	663.38
2292.405	659.38
2296.302	651.38
2300.195	654.38
2304.085	639.38
2307.971	637.38
2311.854	630.38
2315.734	617.38
2319.609	615.38
2323.482	609.38
2327.351	603.38
2331.216	597.38
2335.078	593.38
2338.937	590.38
2342.792	580.38
2346.643	589.38
2350.492	578.38
2354.336	571.38
2358.178	584.38
2362.015	587.38
2365.85	590.38
2369.681	589.38
2373.508	587.38
2377.333	590.38
2381.153	593.38
2384.971	586.38
2388.785	591.38
2392.595	580.38
2396.402	576.38
2400.206	576.38
2404.007	572.38
2407.804	569.38
2411.597	573.38
2415.388	577.38
2419.174	567.38
2422.958	556.38
2426.738	558.38
2430.515	557.38
2434.289	561.38
2438.059	562.38
2441.825	548.38
2445.589	559.38
2449.349	548.38
2453.106	542.38
2456.859	535.38
2460.61	542.38
2464.356	530.38
2468.1	531.38
2471.84	519.38
2475.577	519.38
2479.311	523.38
2483.041	523.38
2486.768	522.38
2490.492	514.38
2494.213	520.38
2497.93	519.38
2501.644	523.38
2505.355	519.38
2509.062	518.38
2512.766	527.38
2516.467	510.38
2520.165	514.38
2523.859	504.38
2527.551	502.38
2531.239	498.38
2534.923	500.38
2538.605	495.38
2542.283	484.38
2545.958	482.38
2549.63	481.38
2553.299	472.38
2556.964	474.38
2560.626	478.38
2564.285	479.38
2567.941	470.38
2571.594	471.38
2575.243	472.38
2578.89	470.38
2582.533	462.38
2586.173	447.38
2589.809	459.38
2593.443	448.38
2597.073	463.38
2600.701	443.38
2604.325	443.38
2607.946	447.38
2611.564	447.38
2615.178	446.38
2618.79	438.38
2622.398	438.38
2626.004	435.38
2629.606	445.38
2633.205	434.38
2636.801	430.38
2640.394	428.38
2643.983	427.38
2647.57	420.38
2651.153	414.38
2654.734	405.38
2658.311	415.38
2661.885	406.38
2665.456	399.38
2669.025	403.38
2672.589	395.38
2676.151	398.38
2679.71	391.38
2683.266	388.38
2686.819	376.38
2690.368	372.38
2693.915	390.38
2697.458	377.38
2700.999	377.38
2704.536	369.38
2708.071	361.38
2711.602	360.38
2715.13	369.38
2718.656	351.38
2722.178	362.38
2725.697	349.38
2729.214	354.38
2732.727	352.38
2736.237	357.38
2739.744	353.38
2743.249	359.38
2746.75	351.38
2750.248	353.38
2753.743	348.38
2757.236	350.38
2760.725	354.38
2764.211	356.38
2767.695	345.38
2771.175	337.38
2774.652	346.38
2778.127	340.38
2781.598	339.38
2785.067	327.38
2788.532	331.38
2791.995	334.38
2795.455	334.38
2798.911	338.38
2802.365	333.38
2805.816	332.38
2809.264	338.38
2812.709	333.38
2816.151	333.38
2819.59	332.38
2823.026	329.38
2826.46	331.38
2829.89	337.38
2833.318	334.38
2836.742	325.38
2840.164	334.38
2843.583	333.38
2846.999	329.38
2850.412	339.38
2853.822	339.38
2857.229	343.38
2860.634	343.38
2864.035	350.38
2867.434	346.38
2870.83	344.38
2874.223	348.38
2877.613	343.38
2881	355.38
2884.385	358.38
2887.766	352.38
2891.145	348.38
2894.521	346.38
2897.894	358.38
2901.264	354.38
2904.631	348.38
2907.996	349.38
2911.358	351.38
2914.717	347.38
2918.073	359.38
2921.426	356.38
2924.777	360.38
2928.124	360.38
2931.469	361.38
2934.811	366.38
2938.15	369.38
2941.487	370.38
2944.821	381.38
2948.152	378.38
2951.48	379.38
2954.805	380.38
2958.128	377.38
2961.447	386.38
2964.765	400.38
2968.079	397.38
2971.39	412.38
2974.699	411.38
2978.005	412.38
2981.308	403.38
2984.609	422.38
2987.907	436.38
2991.202	444.38
2994.494	447.38
2997.784	463.38
3001.07	465.38
3004.355	474.38
3007.636	477.38
3010.915	497.38
3014.191	502.38
3017.464	510.38
3020.734	514.38
3024.002	520.38
3027.267	527.38
3030.53	530.38
3033.789	535.38
3037.046	542.38
3040.301	539.38
3043.552	562.38
3046.801	569.38
3050.048	587.38
3053.291	593.38
3056.532	623.38
3059.771	625.38
3063.006	638.38
3066.239	665.38
3069.469	688.38
3072.697	695.38
3075.922	704.38
3079.144	728.38
3082.364	737.38
3085.581	753.38
3088.795	754.38
3092.007	768.38
3095.216	785.38
3098.423	801.38
3101.627	818.38
3104.828	848.38
3108.026	867.38
3111.222	883.38
3114.416	889.38
3117.607	905.38
3120.795	913.38
3123.98	936.38
3127.163	962.38
3130.344	992.38
3133.521	1003.38
3136.696	1034.38
3139.869	1031.38
3143.039	1065.38
3146.206	1067.38
3149.371	1083.38
3152.533	1090.38
3155.693	1107.38
3158.85	1121.38
3162.005	1116.38
3165.157	1112.38
3168.306	1120.38
3171.453	1129.38
3174.597	1133.38
3177.739	1148.38
3180.878	1142.38
3184.014	1140.38
3187.149	1132.38
3190.28	1152.38
3193.409	1148.38
3196.536	1146.38
3199.659	1138.38
3202.781	1151.38
3205.9	1159.38
3209.016	1154.38
3212.13	1157.38
3215.241	1148.38
3218.35	1131.38
3221.456	1127.38
3224.56	1131.38
3227.661	1117.38
3230.76	1103.38
3233.856	1082.38
3236.95	1079.38
3240.041	1064.38
3243.13	1064.38
3246.216	1048.38
3249.3	1041.38
3252.382	1043.38
3255.46	1037.38
3258.537	1021.38
3261.611	1013.38
3264.682	1016.38
3267.751	1005.38
3270.818	1001.38
3273.882	998.38
3276.943	1003.38
3280.002	985.38
3283.059	984.38
3286.113	986.38
3289.165	962.38
3292.214	957.38
3295.261	935.38
3298.306	938.38
3301.348	909.38
3304.387	891.38
3307.425	873.38
3310.459	866.38
3313.492	860.38
3316.521	851.38
3319.549	837.38
3322.574	824.38
3325.597	826.38
3328.617	816.38
3331.635	808.38
3334.65	805.38
3337.663	796.38
3340.674	802.38
3343.682	798.38
3346.688	788.38
3349.691	784.38
3352.692	795.38
3355.691	758.38
3358.687	763.38
3361.681	769.38
3364.673	764.38
3367.662	750.38
3370.649	737.38
3373.633	738.38
3376.615	722.38
3379.595	701.38
3382.572	691.38
3385.547	683.38
3388.52	690.38
3391.49	673.38
3394.458	657.38
3397.424	646.38
3400.387	650.38
3403.348	637.38
3406.307	633.38
3409.263	633.38
3412.217	619.38
3415.168	620.38
3418.118	603.38
3421.065	615.38
3424.009	602.38
3426.951	584.38
3429.891	569.38
3432.829	566.38
3435.764	552.38
3438.697	558.38
3441.628	529.38
3444.557	522.38
3447.483	509.38
3450.407	491.38
3453.328	484.38
3456.247	472.38
3459.164	459.38
3462.079	456.38
3464.991	432.38
3467.902	422.38
3470.809	405.38
3473.715	397.38
3476.618	383.38
3479.519	377.38
3482.418	370.38
3485.315	356.38
3488.209	355.38
3491.101	344.38
3493.99	325.38
3496.878	323.38
3499.763	318.38
3502.646	309.38
3505.527	293.38
3508.405	274.38
3511.281	273.38
3514.155	261.38
3517.027	252.38
3519.897	237.38
3522.764	239.38
3525.629	224.38
3528.492	219.38
3531.352	205.38
3534.211	194.38
3537.067	172.38
3539.921	182.38
3542.773	164.38
3545.622	161.38
3548.469	147.38
3551.315	134.38
3554.157	127.38
3556.998	129.38
3559.837	117.38
3562.673	121.38
3565.507	115.38
3568.339	100.38
3571.169	106.38
3573.996	93.38
3576.822	86.38
3579.645	82.38
3582.466	78.38
3585.285	76.38
3588.101	66.38
3590.916	68.38
3593.728	62.38
3596.538	53.38
3599.346	47.38
3602.152	47.38
3604.956	39.38
3607.757	38.38
3610.556	35.38
3613.354	32.38
3616.149	23.38
3618.942	26.38
3621.732	22.38
3624.521	23.38
3627.307	20.38
3630.092	11.38
3632.874	12.38
3635.654	11.38
3638.432	5.38
3641.208	6.38
3643.982	5.38
3646.753	2.38
3649.523	0.38
3652.29	-6.62
3655.055	-9.62
3657.818	-6.62
3660.579	-10.62
3663.338	-12.62
3666.095	-13.62
3668.849	-17.62
3671.602	-18.62
3674.352	-27.62
3677.101	-27.62
3679.847	-27.62
3682.591	-26.62
3685.333	-30.62
3688.073	-28.62
3690.811	-29.62
3693.547	-30.62
3696.281	-37.62
3699.013	-37.62
3701.742	-36.62
3704.47	-35.62
3707.195	-36.62
3709.919	-35.62
3712.64	-44.62
3715.359	-40.62
3718.076	-41.62
3720.792	-46.62
3723.505	-45.62
3726.216	-49.62
3728.925	-50.62
3731.632	-49.62
3734.336	-48.62
3737.039	-45.62
3739.74	-47.62
3742.439	-46.62
3745.136	-53.62
3747.83	-54.62
3750.523	-56.62
3753.213	-50.62
3755.902	-52.62
3758.589	-51.62
3761.273	-51.62
3763.956	-52.62
3766.636	-50.62
3769.315	-53.62
3771.991	-58.62
3774.665	-58.62
3777.338	-58.62
3780.008	-56.62
3782.677	-54.62
3785.343	-52.62
3788.007	-59.62
3790.67	-60.62
3793.33	-58.62
3795.989	-57.62
3798.645	-58.62
3801.299	-54.62
3803.952	-53.62
3806.602	-56.62
3809.251	-57.62
3811.897	-62.62
3814.542	-63.62
3817.184	-56.62
3819.825	-60.62
3822.463	-61.62
3825.1	-61.62
3827.735	-60.62
3830.367	-66.62
3832.998	-62.62
3835.627	-64.62
3838.253	-65.62
3840.878	-68.62
3843.501	-65.62
3846.122	-63.62
3848.741	-67.62
3851.358	-64.62
3853.973	-62.62
3856.586	-60.62
3859.197	-64.62
3861.806	-64.62
3864.414	-70.62
3867.019	-67.62
3869.622	-59.62
3872.224	-62.62
3874.823	-64.62
3877.421	-64.62
3880.016	-66.62
3882.61	-64.62
3885.202	-58.62
3887.792	-61.62
3890.38	-62.62
3892.966	-63.62
3895.55	-64.62
3898.132	-67.62
3900.713	-67.62
3903.291	-71.62
3905.868	-67.62
3908.442	-67.62
3911.015	-70.62
3913.586	-69.62
3916.155	-64.62
3918.722	-68.62
3921.287	-66.62
3923.85	-69.62
3926.411	-67.62
3928.971	-70.62
3931.528	-69.62
3934.084	-71.62
3936.638	-71.62
3939.19	-68.62
3941.74	-70.62
3944.288	-69.62
3946.834	-68.62
3949.378	-68.62
3951.921	-68.62
3954.462	-68.62
3957	-70.62
3959.537	-65.62
3962.072	-65.62
3964.606	-67.62
3967.137	-69.62
3969.667	-71.62
3972.194	-71.62
3974.72	-69.62
3977.244	-67.62
3979.766	-70.62
3982.286	-67.62
3984.805	-67.62
3987.321	-70.62
3989.836	-67.62
3992.349	-70.62
3994.86	-66.62
3997.369	-65.62
3999.877	-67.62
4002.382	-69.62
4004.886	-65.62
4007.388	-71.62
4009.888	-64.62
4012.386	-64.62
4014.883	-69.62
4017.377	-71.62
4019.87	-69.62
4022.361	-70.62
4024.85	-68.62
4027.338	-67.62
4029.823	-63.62
4032.307	-63.62
4034.789	-64.62
4037.269	-69.62
4039.747	-73.62
4042.224	-73.62
4044.699	-69.62
4047.172	-67.62
4049.643	-65.62
4052.112	-65.62
4054.58	-66.62
4057.046	-68.62
4059.51	-69.62
4061.972	-68.62
4064.432	-67.62
4066.891	-70.62
4069.348	-68.62
4071.803	-67.62
4074.256	-69.62
4076.708	-71.62
4079.158	-67.62
4081.606	-65.62
4084.052	-69.62
4086.497	-70.62
4088.939	-70.62
4091.38	-70.62
4093.819	-69.62
4096.257	-71.62
4098.693	-72.62
4101.127	-74.62
4103.559	-73.62
4105.989	-20.62
4108.418	-15.62
4110.845	-11.62
4113.27	-10.62
4115.694	-5.62
4118.115	-5.62
4120.535	-69.62
4122.954	-66.62
4125.37	-68.62
4127.785	-69.62
4130.198	-70.62
4132.609	-74.62
4135.019	-75.62
4137.427	-72.62
4139.833	-72.62
4142.237	-72.62
