Data from 10CFU1_B_ramanshift_RamanShift_14-48-57-758.txt Node
Date: Sun Dec 25 14:48:57 IST 2016
User: aro
Spectrometer: QEPB0276
Trigger mode: 0
Integration Time (sec): 5.000000E0
Scans to average: 1
Electric dark correction enabled: true
Nonlinearity correction enabled: false
Boxcar width: 0
XAxis mode: Raman Shifts
Number of Pixels in Spectrum: 1044
>>>>>Begin Spectral Data<<<<<
160.701	0.88
166.742	18.88
172.777	67.88
178.805	217.88
184.826	641.88
190.841	1529.88
196.849	2833.88
202.85	4060.88
208.845	4640.88
214.833	4659.88
220.815	4470.88
226.789	4367.88
232.758	4233.88
238.719	4103.88
244.674	3976.88
250.623	3840.88
256.565	3673.88
262.5	3508.88
268.429	3353.88
274.351	3189.88
280.267	3086.88
286.176	2979.88
292.079	2863.88
297.975	2777.88
303.865	2674.88
309.748	2599.88
315.625	2541.88
321.495	2461.88
327.359	2425.88
333.217	2407.88
339.068	2363.88
344.912	2343.88
350.751	2342.88
356.583	2321.88
362.408	2333.88
368.227	2321.88
374.04	2306.88
379.847	2318.88
385.647	2355.88
391.44	2357.88
397.228	2349.88
403.009	2359.88
408.784	2400.88
414.553	2415.88
420.315	2412.88
426.071	2426.88
431.821	2414.88
437.565	2411.88
443.302	2413.88
449.033	2410.88
454.758	2407.88
460.477	2393.88
466.189	2383.88
471.896	2373.88
477.596	2387.88
483.29	2371.88
488.978	2377.88
494.66	2339.88
500.335	2339.88
506.005	2299.88
511.668	2280.88
517.325	2240.88
522.977	2215.88
528.622	2200.88
534.261	2153.88
539.894	2144.88
545.521	2102.88
551.141	2107.88
556.756	2103.88
562.365	2089.88
567.968	2094.88
573.565	2074.88
579.155	2054.88
584.74	2051.88
590.319	2029.88
595.892	2028.88
601.459	2008.88
607.02	2012.88
612.575	1980.88
618.124	1990.88
623.667	1979.88
629.204	1962.88
634.735	1921.88
640.261	1908.88
645.781	1904.88
651.294	1899.88
656.802	1913.88
662.304	1880.88
667.8	1886.88
673.29	1872.88
678.775	1874.88
684.254	1863.88
689.726	1863.88
695.193	1844.88
700.655	1857.88
706.11	1834.88
711.56	1832.88
717.004	1808.88
722.442	1800.88
727.874	1815.88
733.301	1798.88
738.722	1797.88
744.137	1787.88
749.547	1760.88
754.951	1775.88
760.349	1776.88
765.741	1758.88
771.128	1772.88
776.509	1781.88
781.885	1778.88
787.254	1765.88
792.618	1776.88
797.977	1752.88
803.33	1748.88
808.677	1740.88
814.019	1709.88
819.355	1723.88
824.686	1707.88
830.011	1679.88
835.33	1675.88
840.644	1689.88
845.952	1675.88
851.255	1669.88
856.552	1657.88
861.844	1646.88
867.13	1666.88
872.41	1643.88
877.686	1640.88
882.955	1620.88
888.219	1607.88
893.478	1581.88
898.731	1550.88
903.979	1546.88
909.221	1547.88
914.458	1528.88
919.69	1505.88
924.916	1495.88
930.136	1501.88
935.351	1521.88
940.561	1499.88
945.766	1512.88
950.965	1509.88
956.158	1507.88
961.347	1486.88
966.529	1473.88
971.707	1444.88
976.879	1430.88
982.046	1422.88
987.208	1414.88
992.364	1389.88
997.515	1419.88
1002.66	1414.88
1007.801	1438.88
1012.936	1444.88
1018.066	1459.88
1023.19	1470.88
1028.309	1471.88
1033.423	1479.88
1038.532	1467.88
1043.636	1457.88
1048.734	1455.88
1053.827	1450.88
1058.915	1421.88
1063.998	1427.88
1069.075	1387.88
1074.147	1423.88
1079.214	1404.88
1084.276	1412.88
1089.333	1437.88
1094.385	1448.88
1099.431	1455.88
1104.472	1459.88
1109.509	1457.88
1114.54	1437.88
1119.565	1425.88
1124.586	1410.88
1129.602	1403.88
1134.613	1403.88
1139.618	1386.88
1144.619	1392.88
1149.614	1383.88
1154.604	1416.88
1159.589	1394.88
1164.57	1424.88
1169.545	1423.88
1174.515	1431.88
1179.48	1416.88
1184.44	1403.88
1189.395	1410.88
1194.345	1403.88
1199.29	1388.88
1204.23	1395.88
1209.165	1398.88
1214.095	1406.88
1219.021	1422.88
1223.941	1415.88
1228.856	1445.88
1233.766	1438.88
1238.672	1432.88
1243.572	1438.88
1248.467	1435.88
1253.358	1427.88
1258.244	1418.88
1263.124	1396.88
1268	1370.88
1272.871	1381.88
1277.737	1349.88
1282.599	1345.88
1287.455	1347.88
1292.306	1336.88
1297.153	1357.88
1301.995	1376.88
1306.832	1373.88
1311.664	1382.88
1316.491	1379.88
1321.314	1390.88
1326.132	1388.88
1330.945	1374.88
1335.753	1364.88
1340.556	1341.88
1345.354	1337.88
1350.148	1321.88
1354.937	1325.88
1359.722	1287.88
1364.501	1300.88
1369.276	1280.88
1374.046	1268.88
1378.811	1253.88
1383.572	1260.88
1388.327	1245.88
1393.079	1242.88
1397.825	1269.88
1402.567	1245.88
1407.304	1237.88
1412.036	1248.88
1416.764	1235.88
1421.487	1221.88
1426.205	1229.88
1430.919	1241.88
1435.628	1238.88
1440.333	1270.88
1445.032	1270.88
1449.727	1282.88
1454.418	1293.88
1459.104	1303.88
1463.785	1278.88
1468.462	1287.88
1473.134	1278.88
1477.802	1267.88
1482.465	1251.88
1487.123	1247.88
1491.777	1244.88
1496.426	1242.88
1501.071	1258.88
1505.711	1261.88
1510.347	1261.88
1514.978	1285.88
1519.604	1293.88
1524.226	1296.88
1528.844	1311.88
1533.457	1294.88
1538.065	1289.88
1542.669	1283.88
1547.269	1290.88
1551.864	1290.88
1556.454	1280.88
1561.041	1298.88
1565.622	1311.88
1570.199	1317.88
1574.772	1350.88
1579.34	1355.88
1583.904	1371.88
1588.464	1398.88
1593.019	1413.88
1597.569	1434.88
1602.115	1447.88
1606.657	1436.88
1611.195	1459.88
1615.728	1458.88
1620.256	1461.88
1624.78	1487.88
1629.3	1491.88
1633.816	1510.88
1638.327	1533.88
1642.834	1556.88
1647.336	1565.88
1651.834	1573.88
1656.328	1583.88
1660.817	1574.88
1665.302	1573.88
1669.783	1557.88
1674.259	1502.88
1678.732	1474.88
1683.199	1437.88
1687.663	1409.88
1692.122	1372.88
1696.577	1328.88
1701.028	1275.88
1705.474	1210.88
1709.917	1182.88
1714.355	1154.88
1718.788	1133.88
1723.218	1139.88
1727.643	1119.88
1732.064	1089.88
1736.481	1082.88
1740.893	1063.88
1745.301	1041.88
1749.705	1010.88
1754.105	990.88
1758.501	977.88
1762.893	955.88
1767.28	943.88
1771.663	933.88
1776.042	930.88
1780.417	921.88
1784.787	935.88
1789.154	937.88
1793.516	926.88
1797.874	921.88
1802.228	938.88
1806.578	923.88
1810.924	897.88
1815.266	902.88
1819.603	877.88
1823.937	858.88
1828.266	865.88
1832.591	873.88
1836.913	854.88
1841.23	857.88
1845.543	845.88
1849.852	862.88
1854.156	856.88
1858.457	869.88
1862.754	862.88
1867.047	854.88
1871.335	868.88
1875.62	862.88
1879.9	873.88
1884.177	869.88
1888.449	885.88
1892.718	864.88
1896.982	860.88
1901.243	859.88
1905.499	856.88
1909.752	865.88
1914	860.88
1918.245	850.88
1922.485	848.88
1926.722	842.88
1930.954	851.88
1935.183	848.88
1939.408	875.88
1943.628	853.88
1947.845	856.88
1952.058	853.88
1956.267	852.88
1960.472	849.88
1964.673	837.88
1968.87	831.88
1973.063	840.88
1977.252	817.88
1981.438	810.88
1985.619	815.88
1989.797	805.88
1993.971	809.88
1998.14	818.88
2002.306	822.88
2006.469	826.88
2010.627	838.88
2014.781	820.88
2018.932	832.88
2023.078	839.88
2027.221	815.88
2031.36	819.88
2035.495	814.88
2039.627	810.88
2043.754	816.88
2047.878	813.88
2051.998	811.88
2056.114	797.88
2060.226	806.88
2064.334	807.88
2068.439	801.88
2072.54	822.88
2076.637	825.88
2080.73	828.88
2084.82	815.88
2088.906	828.88
2092.988	827.88
2097.066	823.88
2101.14	816.88
2105.211	804.88
2109.278	803.88
2113.342	813.88
2117.401	790.88
2121.457	804.88
2125.509	784.88
2129.558	783.88
2133.602	788.88
2137.643	784.88
2141.681	773.88
2145.714	773.88
2149.744	783.88
2153.77	778.88
2157.793	776.88
2161.812	763.88
2165.827	757.88
2169.838	745.88
2173.846	738.88
2177.851	719.88
2181.851	723.88
2185.848	705.88
2189.841	712.88
2193.831	706.88
2197.817	699.88
2201.799	691.88
2205.778	690.88
2209.753	688.88
2213.725	700.88
2217.693	699.88
2221.657	688.88
2225.618	691.88
2229.575	693.88
2233.529	693.88
2237.479	677.88
2241.425	680.88
2245.368	665.88
2249.307	656.88
2253.243	661.88
2257.175	653.88
2261.104	638.88
2265.029	635.88
2268.95	622.88
2272.868	617.88
2276.783	614.88
2280.694	604.88
2284.601	602.88
2288.505	604.88
2292.405	591.88
2296.302	582.88
2300.195	583.88
2304.085	574.88
2307.971	567.88
2311.854	552.88
2315.734	553.88
2319.609	547.88
2323.482	545.88
2327.351	523.88
2331.216	527.88
2335.078	513.88
2338.937	517.88
2342.792	510.88
2346.643	507.88
2350.492	512.88
2354.336	518.88
2358.178	506.88
2362.015	523.88
2365.85	520.88
2369.681	517.88
2373.508	512.88
2377.333	521.88
2381.153	519.88
2384.971	517.88
2388.785	518.88
2392.595	521.88
2396.402	512.88
2400.206	506.88
2404.007	514.88
2407.804	498.88
2411.597	505.88
2415.388	500.88
2419.174	495.88
2422.958	497.88
2426.738	498.88
2430.515	494.88
2434.289	494.88
2438.059	483.88
2441.825	494.88
2445.589	477.88
2449.349	480.88
2453.106	491.88
2456.859	484.88
2460.61	473.88
2464.356	479.88
2468.1	464.88
2471.84	470.88
2475.577	459.88
2479.311	464.88
2483.041	464.88
2486.768	472.88
2490.492	461.88
2494.213	468.88
2497.93	464.88
2501.644	460.88
2505.355	460.88
2509.062	463.88
2512.766	453.88
2516.467	455.88
2520.165	447.88
2523.859	457.88
2527.551	440.88
2531.239	437.88
2534.923	446.88
2538.605	435.88
2542.283	429.88
2545.958	430.88
2549.63	433.88
2553.299	434.88
2556.964	425.88
2560.626	426.88
2564.285	426.88
2567.941	425.88
2571.594	410.88
2575.243	418.88
2578.89	409.88
2582.533	413.88
2586.173	401.88
2589.809	411.88
2593.443	413.88
2597.073	400.88
2600.701	392.88
2604.325	387.88
2607.946	393.88
2611.564	391.88
2615.178	395.88
2618.79	393.88
2622.398	390.88
2626.004	395.88
2629.606	386.88
2633.205	375.88
2636.801	380.88
2640.394	374.88
2643.983	370.88
2647.57	370.88
2651.153	365.88
2654.734	368.88
2658.311	363.88
2661.885	354.88
2665.456	349.88
2669.025	354.88
2672.589	342.88
2676.151	345.88
2679.71	347.88
2683.266	352.88
2686.819	348.88
2690.368	336.88
2693.915	337.88
2697.458	329.88
2700.999	331.88
2704.536	321.88
2708.071	319.88
2711.602	320.88
2715.13	317.88
2718.656	325.88
2722.178	326.88
2725.697	316.88
2729.214	322.88
2732.727	321.88
2736.237	327.88
2739.744	316.88
2743.249	321.88
2746.75	321.88
2750.248	316.88
2753.743	317.88
2757.236	316.88
2760.725	311.88
2764.211	317.88
2767.695	301.88
2771.175	300.88
2774.652	308.88
2778.127	298.88
2781.598	297.88
2785.067	294.88
2788.532	297.88
2791.995	296.88
2795.455	293.88
2798.911	296.88
2802.365	304.88
2805.816	292.88
2809.264	304.88
2812.709	306.88
2816.151	303.88
2819.59	303.88
2823.026	293.88
2826.46	304.88
2829.89	304.88
2833.318	300.88
2836.742	309.88
2840.164	313.88
2843.583	296.88
2846.999	312.88
2850.412	305.88
2853.822	310.88
2857.229	313.88
2860.634	316.88
2864.035	310.88
2867.434	322.88
2870.83	325.88
2874.223	323.88
2877.613	329.88
2881	327.88
2884.385	339.88
2887.766	324.88
2891.145	322.88
2894.521	319.88
2897.894	331.88
2901.264	320.88
2904.631	338.88
2907.996	337.88
2911.358	328.88
2914.717	327.88
2918.073	337.88
2921.426	332.88
2924.777	345.88
2928.124	346.88
2931.469	355.88
2934.811	356.88
2938.15	349.88
2941.487	360.88
2944.821	365.88
2948.152	364.88
2951.48	376.88
2954.805	383.88
2958.128	385.88
2961.447	384.88
2964.765	390.88
2968.079	387.88
2971.39	400.88
2974.699	400.88
2978.005	411.88
2981.308	420.88
2984.609	421.88
2987.907	442.88
2991.202	437.88
2994.494	447.88
2997.784	468.88
3001.07	480.88
3004.355	476.88
3007.636	488.88
3010.915	505.88
3014.191	519.88
3017.464	520.88
3020.734	522.88
3024.002	533.88
3027.267	529.88
3030.53	552.88
3033.789	551.88
3037.046	565.88
3040.301	569.88
3043.552	586.88
3046.801	605.88
3050.048	607.88
3053.291	627.88
3056.532	642.88
3059.771	652.88
3063.006	670.88
3066.239	686.88
3069.469	704.88
3072.697	720.88
3075.922	755.88
3079.144	770.88
3082.364	780.88
3085.581	804.88
3088.795	817.88
3092.007	835.88
3095.216	864.88
3098.423	874.88
3101.627	889.88
3104.828	899.88
3108.026	919.88
3111.222	942.88
3114.416	956.88
3117.607	969.88
3120.795	992.88
3123.98	1016.88
3127.163	1033.88
3130.344	1060.88
3133.521	1083.88
3136.696	1117.88
3139.869	1143.88
3143.039	1145.88
3146.206	1154.88
3149.371	1169.88
3152.533	1188.88
3155.693	1186.88
3158.85	1204.88
3162.005	1204.88
3165.157	1214.88
3168.306	1219.88
3171.453	1201.88
3174.597	1232.88
3177.739	1232.88
3180.878	1226.88
3184.014	1220.88
3187.149	1228.88
3190.28	1230.88
3193.409	1232.88
3196.536	1232.88
3199.659	1238.88
3202.781	1238.88
3205.9	1252.88
3209.016	1249.88
3212.13	1247.88
3215.241	1233.88
3218.35	1233.88
3221.456	1235.88
3224.56	1223.88
3227.661	1202.88
3230.76	1184.88
3233.856	1164.88
3236.95	1170.88
3240.041	1152.88
3243.13	1131.88
3246.216	1136.88
3249.3	1121.88
3252.382	1118.88
3255.46	1115.88
3258.537	1100.88
3261.611	1085.88
3264.682	1083.88
3267.751	1084.88
3270.818	1088.88
3273.882	1064.88
3276.943	1074.88
3280.002	1057.88
3283.059	1056.88
3286.113	1029.88
3289.165	1030.88
3292.214	1017.88
3295.261	998.88
3298.306	986.88
3301.348	962.88
3304.387	944.88
3307.425	935.88
3310.459	930.88
3313.492	917.88
3316.521	912.88
3319.549	917.88
3322.574	884.88
3325.597	880.88
3328.617	888.88
3331.635	875.88
3334.65	863.88
3337.663	868.88
3340.674	865.88
3343.682	851.88
3346.688	842.88
3349.691	846.88
3352.692	841.88
3355.691	831.88
3358.687	821.88
3361.681	826.88
3364.673	812.88
3367.662	809.88
3370.649	786.88
3373.633	780.88
3376.615	774.88
3379.595	763.88
3382.572	752.88
3385.547	733.88
3388.52	744.88
3391.49	739.88
3394.458	714.88
3397.424	708.88
3400.387	700.88
3403.348	684.88
3406.307	685.88
3409.263	673.88
3412.217	659.88
3415.168	656.88
3418.118	651.88
3421.065	642.88
3424.009	638.88
3426.951	636.88
3429.891	614.88
3432.829	611.88
3435.764	599.88
3438.697	598.88
3441.628	571.88
3444.557	567.88
3447.483	546.88
3450.407	537.88
3453.328	523.88
3456.247	504.88
3459.164	497.88
3462.079	480.88
3464.991	470.88
3467.902	449.88
3470.809	437.88
3473.715	427.88
3476.618	409.88
3479.519	403.88
3482.418	396.88
3485.315	386.88
3488.209	372.88
3491.101	360.88
3493.99	358.88
3496.878	345.88
3499.763	340.88
3502.646	321.88
3505.527	308.88
3508.405	304.88
3511.281	295.88
3514.155	268.88
3517.027	268.88
3519.897	254.88
3522.764	254.88
3525.629	236.88
3528.492	223.88
3531.352	205.88
3534.211	202.88
3537.067	192.88
3539.921	182.88
3542.773	170.88
3545.622	171.88
3548.469	157.88
3551.315	147.88
3554.157	141.88
3556.998	135.88
3559.837	129.88
3562.673	129.88
3565.507	119.88
3568.339	114.88
3571.169	105.88
3573.996	93.88
3576.822	93.88
3579.645	92.88
3582.466	88.88
3585.285	87.88
3588.101	74.88
3590.916	69.88
3593.728	66.88
3596.538	58.88
3599.346	50.88
3602.152	45.88
3604.956	46.88
3607.757	50.88
3610.556	38.88
3613.354	42.88
3616.149	24.88
3618.942	29.88
3621.732	23.88
3624.521	22.88
3627.307	17.88
3630.092	13.88
3632.874	11.88
3635.654	11.88
3638.432	13.88
3641.208	6.88
3643.982	2.88
3646.753	-2.12
3649.523	-0.12
3652.29	-8.12
3655.055	-8.12
3657.818	-11.12
3660.579	-7.12
3663.338	-12.12
3666.095	-12.12
3668.849	-20.12
3671.602	-23.12
3674.352	-30.12
3677.101	-28.12
3679.847	-31.12
3682.591	-27.12
3685.333	-28.12
3688.073	-31.12
3690.811	-29.12
3693.547	-34.12
3696.281	-38.12
3699.013	-39.12
3701.742	-36.12
3704.47	-38.12
3707.195	-37.12
3709.919	-37.12
3712.64	-45.12
3715.359	-42.12
3718.076	-47.12
3720.792	-47.12
3723.505	-46.12
3726.216	-52.12
3728.925	-49.12
3731.632	-52.12
3734.336	-48.12
3737.039	-51.12
3739.74	-51.12
3742.439	-50.12
3745.136	-53.12
3747.83	-53.12
3750.523	-57.12
3753.213	-49.12
3755.902	-55.12
3758.589	-54.12
3761.273	-57.12
3763.956	-54.12
3766.636	-54.12
3769.315	-56.12
3771.991	-60.12
3774.665	-57.12
3777.338	-56.12
3780.008	-57.12
3782.677	-58.12
3785.343	-55.12
3788.007	-61.12
3790.67	-60.12
3793.33	-62.12
3795.989	-60.12
3798.645	-59.12
3801.299	-60.12
3803.952	-61.12
3806.602	-60.12
3809.251	-62.12
3811.897	-69.12
3814.542	-65.12
3817.184	-60.12
3819.825	-62.12
3822.463	-63.12
3825.1	-66.12
3827.735	-63.12
3830.367	-66.12
3832.998	-64.12
3835.627	-68.12
3838.253	-65.12
3840.878	-65.12
3843.501	-64.12
3846.122	-64.12
3848.741	-69.12
3851.358	-69.12
3853.973	-64.12
3856.586	-64.12
3859.197	-70.12
3861.806	-68.12
3864.414	-69.12
3867.019	-67.12
3869.622	-62.12
3872.224	-65.12
3874.823	-68.12
3877.421	-68.12
3880.016	-67.12
3882.61	-65.12
3885.202	-61.12
3887.792	-59.12
3890.38	-61.12
3892.966	-64.12
3895.55	-67.12
3898.132	-71.12
3900.713	-71.12
3903.291	-73.12
3905.868	-69.12
3908.442	-69.12
3911.015	-74.12
3913.586	-67.12
3916.155	-68.12
3918.722	-70.12
3921.287	-69.12
3923.85	-69.12
3926.411	-72.12
3928.971	-73.12
3931.528	-72.12
3934.084	-70.12
3936.638	-73.12
3939.19	-73.12
3941.74	-72.12
3944.288	-73.12
3946.834	-76.12
3949.378	-72.12
3951.921	-70.12
3954.462	-69.12
3957	-71.12
3959.537	-68.12
3962.072	-70.12
3964.606	-72.12
3967.137	-74.12
3969.667	-74.12
3972.194	-73.12
3974.72	-72.12
3977.244	-69.12
3979.766	-70.12
3982.286	-69.12
3984.805	-73.12
3987.321	-73.12
3989.836	-73.12
3992.349	-71.12
3994.86	-69.12
3997.369	-65.12
3999.877	-67.12
4002.382	-68.12
4004.886	-71.12
4007.388	-72.12
4009.888	-69.12
4012.386	-69.12
4014.883	-71.12
4017.377	-72.12
4019.87	-70.12
4022.361	-70.12
4024.85	-71.12
4027.338	-71.12
4029.823	-68.12
4032.307	-68.12
4034.789	-70.12
4037.269	-73.12
4039.747	-74.12
4042.224	-72.12
4044.699	-68.12
4047.172	-68.12
4049.643	-68.12
4052.112	-70.12
4054.58	-74.12
4057.046	-71.12
4059.51	-72.12
4061.972	-68.12
4064.432	-68.12
4066.891	-69.12
4069.348	-72.12
4071.803	-73.12
4074.256	-75.12
4076.708	-76.12
4079.158	-72.12
4081.606	-66.12
4084.052	-70.12
4086.497	-71.12
4088.939	-71.12
4091.38	-71.12
4093.819	-73.12
4096.257	-76.12
4098.693	-74.12
4101.127	-78.12
4103.559	-77.12
4105.989	-28.12
4108.418	-20.12
4110.845	-20.12
4113.27	-12.12
4115.694	-16.12
4118.115	-10.12
4120.535	-73.12
4122.954	-72.12
4125.37	-69.12
4127.785	-71.12
4130.198	-71.12
4132.609	-73.12
4135.019	-78.12
4137.427	-74.12
4139.833	-75.12
4142.237	-78.12
