Data from 10CFU2_C_ramanshift_RamanShift_15-17-22-594.txt Node
Date: Sun Dec 25 15:17:22 IST 2016
User: aro
Spectrometer: QEPB0276
Trigger mode: 0
Integration Time (sec): 5.000000E0
Scans to average: 1
Electric dark correction enabled: true
Nonlinearity correction enabled: false
Boxcar width: 0
XAxis mode: Raman Shifts
Number of Pixels in Spectrum: 1044
>>>>>Begin Spectral Data<<<<<
160.701	-0.38
166.742	25.62
172.777	66.62
178.805	217.62
184.826	658.62
190.841	1534.62
196.849	2852.62
202.85	4064.62
208.845	4663.62
214.833	4734.62
220.815	4506.62
226.789	4356.62
232.758	4240.62
238.719	4146.62
244.674	4014.62
250.623	3856.62
256.565	3689.62
262.5	3538.62
268.429	3373.62
274.351	3244.62
280.267	3112.62
286.176	3011.62
292.079	2898.62
297.975	2776.62
303.865	2685.62
309.748	2604.62
315.625	2533.62
321.495	2481.62
327.359	2447.62
333.217	2387.62
339.068	2392.62
344.912	2359.62
350.751	2364.62
356.583	2346.62
362.408	2353.62
368.227	2335.62
374.04	2335.62
379.847	2365.62
385.647	2367.62
391.44	2387.62
397.228	2391.62
403.009	2399.62
408.784	2416.62
414.553	2436.62
420.315	2426.62
426.071	2431.62
431.821	2438.62
437.565	2431.62
443.302	2417.62
449.033	2436.62
454.758	2434.62
460.477	2423.62
466.189	2402.62
471.896	2396.62
477.596	2374.62
483.29	2383.62
488.978	2366.62
494.66	2369.62
500.335	2353.62
506.005	2319.62
511.668	2266.62
517.325	2235.62
522.977	2239.62
528.622	2184.62
534.261	2181.62
539.894	2148.62
545.521	2156.62
551.141	2116.62
556.756	2119.62
562.365	2107.62
567.968	2090.62
573.565	2093.62
579.155	2065.62
584.74	2038.62
590.319	2035.62
595.892	2041.62
601.459	2021.62
607.02	2016.62
612.575	1991.62
618.124	1986.62
623.667	1978.62
629.204	1942.62
634.735	1951.62
640.261	1938.62
645.781	1911.62
651.294	1910.62
656.802	1905.62
662.304	1888.62
667.8	1885.62
673.29	1903.62
678.775	1873.62
684.254	1870.62
689.726	1861.62
695.193	1863.62
700.655	1848.62
706.11	1847.62
711.56	1844.62
717.004	1821.62
722.442	1818.62
727.874	1800.62
733.301	1789.62
738.722	1779.62
744.137	1759.62
749.547	1758.62
754.951	1766.62
760.349	1763.62
765.741	1764.62
771.128	1761.62
776.509	1775.62
781.885	1782.62
787.254	1772.62
792.618	1765.62
797.977	1754.62
803.33	1735.62
808.677	1721.62
814.019	1713.62
819.355	1694.62
824.686	1693.62
830.011	1664.62
835.33	1653.62
840.644	1662.62
845.952	1650.62
851.255	1655.62
856.552	1651.62
861.844	1640.62
867.13	1639.62
872.41	1637.62
877.686	1628.62
882.955	1627.62
888.219	1766.62
893.478	1627.62
898.731	1565.62
903.979	1520.62
909.221	1518.62
914.458	1511.62
919.69	1485.62
924.916	1484.62
930.136	1500.62
935.351	1488.62
940.561	1498.62
945.766	1480.62
950.965	1481.62
956.158	1476.62
961.347	1468.62
966.529	1431.62
971.707	1430.62
976.879	1414.62
982.046	1399.62
987.208	1388.62
992.364	1373.62
997.515	1372.62
1002.66	1393.62
1007.801	1409.62
1012.936	1413.62
1018.066	1418.62
1023.19	1429.62
1028.309	1441.62
1033.423	1442.62
1038.532	1430.62
1043.636	1442.62
1048.734	1419.62
1053.827	1393.62
1058.915	1389.62
1063.998	1372.62
1069.075	1387.62
1074.147	1374.62
1079.214	1383.62
1084.276	1388.62
1089.333	1400.62
1094.385	1416.62
1099.431	1414.62
1104.472	1417.62
1109.509	1414.62
1114.54	1391.62
1119.565	1391.62
1124.586	1380.62
1129.602	1372.62
1134.613	1357.62
1139.618	1346.62
1144.619	1360.62
1149.614	1329.62
1154.604	1356.62
1159.589	1372.62
1164.57	1352.62
1169.545	1365.62
1174.515	1378.62
1179.48	1373.62
1184.44	1372.62
1189.395	1367.62
1194.345	1344.62
1199.29	1356.62
1204.23	1339.62
1209.165	1336.62
1214.095	1366.62
1219.021	1363.62
1223.941	1377.62
1228.856	1393.62
1233.766	1405.62
1238.672	1408.62
1243.572	1400.62
1248.467	1387.62
1253.358	1379.62
1258.244	1364.62
1263.124	1347.62
1268	1328.62
1272.871	1308.62
1277.737	1303.62
1282.599	1295.62
1287.455	1308.62
1292.306	1315.62
1297.153	1307.62
1301.995	1321.62
1306.832	1322.62
1311.664	1332.62
1316.491	1348.62
1321.314	1355.62
1326.132	1340.62
1330.945	1325.62
1335.753	1304.62
1340.556	1305.62
1345.354	1279.62
1350.148	1272.62
1354.937	1265.62
1359.722	1251.62
1364.501	1224.62
1369.276	1225.62
1374.046	1210.62
1378.811	1194.62
1383.572	1211.62
1388.327	1199.62
1393.079	1195.62
1397.825	1207.62
1402.567	1193.62
1407.304	1186.62
1412.036	1182.62
1416.764	1169.62
1421.487	1178.62
1426.205	1185.62
1430.919	1198.62
1435.628	1204.62
1440.333	1219.62
1445.032	1216.62
1449.727	1225.62
1454.418	1233.62
1459.104	1250.62
1463.785	1225.62
1468.462	1229.62
1473.134	1212.62
1477.802	1213.62
1482.465	1219.62
1487.123	1186.62
1491.777	1171.62
1496.426	1193.62
1501.071	1189.62
1505.711	1206.62
1510.347	1201.62
1514.978	1213.62
1519.604	1234.62
1524.226	1226.62
1528.844	1243.62
1533.457	1231.62
1538.065	1220.62
1542.669	1228.62
1547.269	1227.62
1551.864	1216.62
1556.454	1238.62
1561.041	1248.62
1565.622	1255.62
1570.199	1258.62
1574.772	1257.62
1579.34	1294.62
1583.904	1315.62
1588.464	1346.62
1593.019	1351.62
1597.569	1360.62
1602.115	1389.62
1606.657	1386.62
1611.195	1397.62
1615.728	1400.62
1620.256	1402.62
1624.78	1428.62
1629.3	1434.62
1633.816	1452.62
1638.327	1483.62
1642.834	1478.62
1647.336	1503.62
1651.834	1506.62
1656.328	1509.62
1660.817	1530.62
1665.302	1504.62
1669.783	1483.62
1674.259	1441.62
1678.732	1398.62
1683.199	1369.62
1687.663	1363.62
1692.122	1293.62
1696.577	1252.62
1701.028	1193.62
1705.474	1159.62
1709.917	1119.62
1714.355	1106.62
1718.788	1070.62
1723.218	1073.62
1727.643	1044.62
1732.064	1060.62
1736.481	1018.62
1740.893	995.62
1745.301	987.62
1749.705	953.62
1754.105	939.62
1758.501	928.62
1762.893	889.62
1767.28	880.62
1771.663	882.62
1776.042	878.62
1780.417	867.62
1784.787	871.62
1789.154	874.62
1793.516	880.62
1797.874	867.62
1802.228	870.62
1806.578	856.62
1810.924	838.62
1815.266	821.62
1819.603	824.62
1823.937	821.62
1828.266	815.62
1832.591	802.62
1836.913	781.62
1841.23	790.62
1845.543	798.62
1849.852	804.62
1854.156	805.62
1858.457	792.62
1862.754	800.62
1867.047	805.62
1871.335	807.62
1875.62	800.62
1879.9	812.62
1884.177	815.62
1888.449	818.62
1892.718	790.62
1896.982	791.62
1901.243	795.62
1905.499	783.62
1909.752	802.62
1914	802.62
1918.245	789.62
1922.485	787.62
1926.722	789.62
1930.954	793.62
1935.183	790.62
1939.408	816.62
1943.628	812.62
1947.845	799.62
1952.058	801.62
1956.267	790.62
1960.472	781.62
1964.673	780.62
1968.87	772.62
1973.063	780.62
1977.252	760.62
1981.438	769.62
1985.619	756.62
1989.797	771.62
1993.971	755.62
1998.14	751.62
2002.306	760.62
2006.469	768.62
2010.627	773.62
2014.781	768.62
2018.932	758.62
2023.078	774.62
2027.221	764.62
2031.36	763.62
2035.495	755.62
2039.627	746.62
2043.754	743.62
2047.878	745.62
2051.998	747.62
2056.114	746.62
2060.226	744.62
2064.334	740.62
2068.439	751.62
2072.54	741.62
2076.637	755.62
2080.73	755.62
2084.82	766.62
2088.906	771.62
2092.988	760.62
2097.066	762.62
2101.14	763.62
2105.211	751.62
2109.278	740.62
2113.342	746.62
2117.401	744.62
2121.457	734.62
2125.509	734.62
2129.558	729.62
2133.602	741.62
2137.643	725.62
2141.681	706.62
2145.714	723.62
2149.744	720.62
2153.77	721.62
2157.793	728.62
2161.812	706.62
2165.827	702.62
2169.838	699.62
2173.846	682.62
2177.851	675.62
2181.851	668.62
2185.848	665.62
2189.841	653.62
2193.831	652.62
2197.817	649.62
2201.799	636.62
2205.778	646.62
2209.753	633.62
2213.725	645.62
2217.693	637.62
2221.657	639.62
2225.618	643.62
2229.575	617.62
2233.529	633.62
2237.479	630.62
2241.425	624.62
2245.368	611.62
2249.307	599.62
2253.243	601.62
2257.175	598.62
2261.104	587.62
2265.029	574.62
2268.95	571.62
2272.868	568.62
2276.783	575.62
2280.694	552.62
2284.601	549.62
2288.505	538.62
2292.405	543.62
2296.302	539.62
2300.195	533.62
2304.085	516.62
2307.971	511.62
2311.854	507.62
2315.734	493.62
2319.609	498.62
2323.482	482.62
2327.351	483.62
2331.216	484.62
2335.078	476.62
2338.937	477.62
2342.792	463.62
2346.643	471.62
2350.492	471.62
2354.336	462.62
2358.178	469.62
2362.015	467.62
2365.85	468.62
2369.681	465.62
2373.508	470.62
2377.333	473.62
2381.153	474.62
2384.971	479.62
2388.785	467.62
2392.595	461.62
2396.402	470.62
2400.206	448.62
2404.007	457.62
2407.804	460.62
2411.597	461.62
2415.388	458.62
2419.174	452.62
2422.958	449.62
2426.738	456.62
2430.515	441.62
2434.289	443.62
2438.059	451.62
2441.825	434.62
2445.589	434.62
2449.349	432.62
2453.106	431.62
2456.859	426.62
2460.61	429.62
2464.356	427.62
2468.1	426.62
2471.84	420.62
2475.577	404.62
2479.311	421.62
2483.041	414.62
2486.768	417.62
2490.492	415.62
2494.213	412.62
2497.93	405.62
2501.644	407.62
2505.355	411.62
2509.062	413.62
2512.766	403.62
2516.467	409.62
2520.165	401.62
2523.859	405.62
2527.551	393.62
2531.239	395.62
2534.923	391.62
2538.605	393.62
2542.283	388.62
2545.958	382.62
2549.63	381.62
2553.299	378.62
2556.964	373.62
2560.626	374.62
2564.285	380.62
2567.941	380.62
2571.594	369.62
2575.243	378.62
2578.89	359.62
2582.533	374.62
2586.173	360.62
2589.809	363.62
2593.443	358.62
2597.073	353.62
2600.701	351.62
2604.325	352.62
2607.946	352.62
2611.564	360.62
2615.178	348.62
2618.79	344.62
2622.398	341.62
2626.004	338.62
2629.606	331.62
2633.205	334.62
2636.801	335.62
2640.394	338.62
2643.983	334.62
2647.57	330.62
2651.153	318.62
2654.734	322.62
2658.311	316.62
2661.885	312.62
2665.456	307.62
2669.025	316.62
2672.589	310.62
2676.151	299.62
2679.71	304.62
2683.266	308.62
2686.819	303.62
2690.368	297.62
2693.915	298.62
2697.458	296.62
2700.999	292.62
2704.536	292.62
2708.071	283.62
2711.602	287.62
2715.13	281.62
2718.656	279.62
2722.178	281.62
2725.697	277.62
2729.214	273.62
2732.727	279.62
2736.237	283.62
2739.744	284.62
2743.249	284.62
2746.75	279.62
2750.248	277.62
2753.743	275.62
2757.236	286.62
2760.725	282.62
2764.211	279.62
2767.695	270.62
2771.175	271.62
2774.652	266.62
2778.127	261.62
2781.598	263.62
2785.067	269.62
2788.532	260.62
2791.995	267.62
2795.455	269.62
2798.911	266.62
2802.365	261.62
2805.816	265.62
2809.264	275.62
2812.709	273.62
2816.151	270.62
2819.59	263.62
2823.026	275.62
2826.46	270.62
2829.89	271.62
2833.318	270.62
2836.742	270.62
2840.164	273.62
2843.583	271.62
2846.999	275.62
2850.412	276.62
2853.822	283.62
2857.229	289.62
2860.634	285.62
2864.035	283.62
2867.434	290.62
2870.83	282.62
2874.223	296.62
2877.613	298.62
2881	310.62
2884.385	296.62
2887.766	305.62
2891.145	301.62
2894.521	289.62
2897.894	297.62
2901.264	302.62
2904.631	305.62
2907.996	307.62
2911.358	315.62
2914.717	302.62
2918.073	313.62
2921.426	315.62
2924.777	318.62
2928.124	322.62
2931.469	321.62
2934.811	327.62
2938.15	340.62
2941.487	343.62
2944.821	344.62
2948.152	352.62
2951.48	353.62
2954.805	349.62
2958.128	357.62
2961.447	355.62
2964.765	366.62
2968.079	367.62
2971.39	386.62
2974.699	387.62
2978.005	393.62
2981.308	390.62
2984.609	398.62
2987.907	418.62
2991.202	422.62
2994.494	436.62
2997.784	446.62
3001.07	453.62
3004.355	462.62
3007.636	475.62
3010.915	478.62
3014.191	484.62
3017.464	502.62
3020.734	509.62
3024.002	521.62
3027.267	521.62
3030.53	529.62
3033.789	528.62
3037.046	549.62
3040.301	555.62
3043.552	576.62
3046.801	573.62
3050.048	596.62
3053.291	606.62
3056.532	618.62
3059.771	641.62
3063.006	667.62
3066.239	678.62
3069.469	695.62
3072.697	714.62
3075.922	730.62
3079.144	767.62
3082.364	774.62
3085.581	796.62
3088.795	812.62
3092.007	820.62
3095.216	848.62
3098.423	848.62
3101.627	874.62
3104.828	899.62
3108.026	908.62
3111.222	941.62
3114.416	941.62
3117.607	961.62
3120.795	980.62
3123.98	1007.62
3127.163	1033.62
3130.344	1061.62
3133.521	1085.62
3136.696	1102.62
3139.869	1124.62
3143.039	1141.62
3146.206	1149.62
3149.371	1159.62
3152.533	1185.62
3155.693	1174.62
3158.85	1190.62
3162.005	1197.62
3165.157	1206.62
3168.306	1212.62
3171.453	1214.62
3174.597	1205.62
3177.739	1216.62
3180.878	1215.62
3184.014	1226.62
3187.149	1229.62
3190.28	1219.62
3193.409	1236.62
3196.536	1223.62
3199.659	1245.62
3202.781	1241.62
3205.9	1237.62
3209.016	1254.62
3212.13	1234.62
3215.241	1243.62
3218.35	1220.62
3221.456	1215.62
3224.56	1204.62
3227.661	1186.62
3230.76	1177.62
3233.856	1162.62
3236.95	1159.62
3240.041	1164.62
3243.13	1137.62
3246.216	1147.62
3249.3	1131.62
3252.382	1112.62
3255.46	1102.62
3258.537	1092.62
3261.611	1088.62
3264.682	1089.62
3267.751	1094.62
3270.818	1082.62
3273.882	1077.62
3276.943	1073.62
3280.002	1047.62
3283.059	1066.62
3286.113	1039.62
3289.165	1027.62
3292.214	1015.62
3295.261	1005.62
3298.306	990.62
3301.348	972.62
3304.387	965.62
3307.425	960.62
3310.459	926.62
3313.492	918.62
3316.521	904.62
3319.549	901.62
3322.574	897.62
3325.597	896.62
3328.617	870.62
3331.635	872.62
3334.65	862.62
3337.663	857.62
3340.674	859.62
3343.682	853.62
3346.688	854.62
3349.691	839.62
3352.692	841.62
3355.691	834.62
3358.687	837.62
3361.681	831.62
3364.673	811.62
3367.662	806.62
3370.649	799.62
3373.633	786.62
3376.615	764.62
3379.595	756.62
3382.572	752.62
3385.547	747.62
3388.52	734.62
3391.49	728.62
3394.458	719.62
3397.424	712.62
3400.387	697.62
3403.348	693.62
3406.307	676.62
3409.263	673.62
3412.217	675.62
3415.168	671.62
3418.118	657.62
3421.065	638.62
3424.009	630.62
3426.951	628.62
3429.891	609.62
3432.829	609.62
3435.764	584.62
3438.697	590.62
3441.628	573.62
3444.557	563.62
3447.483	549.62
3450.407	535.62
3453.328	517.62
3456.247	511.62
3459.164	495.62
3462.079	473.62
3464.991	477.62
3467.902	445.62
3470.809	431.62
3473.715	413.62
3476.618	405.62
3479.519	399.62
3482.418	402.62
3485.315	377.62
3488.209	373.62
3491.101	360.62
3493.99	343.62
3496.878	349.62
3499.763	332.62
3502.646	320.62
3505.527	312.62
3508.405	313.62
3511.281	297.62
3514.155	274.62
3517.027	258.62
3519.897	259.62
3522.764	243.62
3525.629	233.62
3528.492	227.62
3531.352	215.62
3534.211	205.62
3537.067	190.62
3539.921	183.62
3542.773	177.62
3545.622	163.62
3548.469	158.62
3551.315	151.62
3554.157	141.62
3556.998	138.62
3559.837	130.62
3562.673	120.62
3565.507	118.62
3568.339	112.62
3571.169	105.62
3573.996	91.62
3576.822	92.62
3579.645	84.62
3582.466	83.62
3585.285	78.62
3588.101	68.62
3590.916	61.62
3593.728	58.62
3596.538	54.62
3599.346	43.62
3602.152	47.62
3604.956	44.62
3607.757	39.62
3610.556	38.62
3613.354	27.62
3616.149	28.62
3618.942	25.62
3621.732	18.62
3624.521	21.62
3627.307	20.62
3630.092	12.62
3632.874	15.62
3635.654	2.62
3638.432	1.62
3641.208	3.62
3643.982	1.62
3646.753	-2.38
3649.523	-0.38
3652.29	-5.38
3655.055	-14.38
3657.818	-13.38
3660.579	-11.38
3663.338	-15.38
3666.095	-17.38
3668.849	-21.38
3671.602	-23.38
3674.352	-31.38
3677.101	-29.38
3679.847	-31.38
3682.591	-31.38
3685.333	-32.38
3688.073	-35.38
3690.811	-34.38
3693.547	-35.38
3696.281	-41.38
3699.013	-38.38
3701.742	-40.38
3704.47	-42.38
3707.195	-42.38
3709.919	-44.38
3712.64	-50.38
3715.359	-44.38
3718.076	-51.38
3720.792	-47.38
3723.505	-46.38
3726.216	-52.38
3728.925	-52.38
3731.632	-56.38
3734.336	-53.38
3737.039	-56.38
3739.74	-55.38
3742.439	-51.38
3745.136	-54.38
3747.83	-57.38
3750.523	-58.38
3753.213	-60.38
3755.902	-60.38
3758.589	-60.38
3761.273	-62.38
3763.956	-57.38
3766.636	-54.38
3769.315	-57.38
3771.991	-65.38
3774.665	-64.38
3777.338	-61.38
3780.008	-61.38
3782.677	-62.38
3785.343	-61.38
3788.007	-65.38
3790.67	-62.38
3793.33	-61.38
3795.989	-63.38
3798.645	-63.38
3801.299	-63.38
3803.952	-61.38
3806.602	-61.38
3809.251	-63.38
3811.897	-67.38
3814.542	-67.38
3817.184	-60.38
3819.825	-68.38
3822.463	-67.38
3825.1	-71.38
3827.735	-67.38
3830.367	-72.38
3832.998	-66.38
3835.627	-65.38
3838.253	-64.38
3840.878	-72.38
3843.501	-68.38
3846.122	-68.38
3848.741	-74.38
3851.358	-71.38
3853.973	-67.38
3856.586	-66.38
3859.197	-68.38
3861.806	-70.38
3864.414	-70.38
3867.019	-70.38
3869.622	-67.38
3872.224	-69.38
3874.823	-69.38
3877.421	-69.38
3880.016	-69.38
3882.61	-66.38
3885.202	-61.38
3887.792	-65.38
3890.38	-68.38
3892.966	-67.38
3895.55	-70.38
3898.132	-74.38
3900.713	-74.38
3903.291	-74.38
3905.868	-70.38
3908.442	-70.38
3911.015	-77.38
3913.586	-76.38
3916.155	-74.38
3918.722	-77.38
3921.287	-74.38
3923.85	-74.38
3926.411	-69.38
3928.971	-72.38
3931.528	-74.38
3934.084	-78.38
3936.638	-76.38
3939.19	-74.38
3941.74	-76.38
3944.288	-75.38
3946.834	-73.38
3949.378	-72.38
3951.921	-74.38
3954.462	-74.38
3957	-72.38
3959.537	-74.38
3962.072	-76.38
3964.606	-71.38
3967.137	-74.38
3969.667	-73.38
3972.194	-73.38
3974.72	-76.38
3977.244	-72.38
3979.766	-73.38
3982.286	-73.38
3984.805	-75.38
3987.321	-76.38
3989.836	-72.38
3992.349	-74.38
3994.86	-68.38
3997.369	-65.38
3999.877	-71.38
4002.382	-76.38
4004.886	-77.38
4007.388	-73.38
4009.888	-69.38
4012.386	-67.38
4014.883	-72.38
4017.377	-73.38
4019.87	-72.38
4022.361	-75.38
4024.85	-74.38
4027.338	-70.38
4029.823	-66.38
4032.307	-68.38
4034.789	-72.38
4037.269	-73.38
4039.747	-75.38
4042.224	-74.38
4044.699	-71.38
4047.172	-73.38
4049.643	-71.38
4052.112	-71.38
4054.58	-76.38
4057.046	-74.38
4059.51	-75.38
4061.972	-71.38
4064.432	-73.38
4066.891	-74.38
4069.348	-74.38
4071.803	-71.38
4074.256	-75.38
4076.708	-73.38
4079.158	-71.38
4081.606	-71.38
4084.052	-75.38
4086.497	-74.38
4088.939	-74.38
4091.38	-75.38
4093.819	-75.38
4096.257	-78.38
4098.693	-80.38
4101.127	-78.38
4103.559	-77.38
4105.989	-19.38
4108.418	-17.38
4110.845	-14.38
4113.27	-15.38
4115.694	-12.38
4118.115	-14.38
4120.535	-72.38
4122.954	-72.38
4125.37	-71.38
4127.785	-73.38
4130.198	-72.38
4132.609	-78.38
4135.019	-79.38
4137.427	-77.38
4139.833	-76.38
4142.237	-76.38
