Data from 1CFU2_A_ramanshift_RamanShift_13-58-15-576.txt Node
Date: Sun Dec 25 13:58:15 IST 2016
User: aro
Spectrometer: QEPB0276
Trigger mode: 0
Integration Time (sec): 5.000000E0
Scans to average: 1
Electric dark correction enabled: true
Nonlinearity correction enabled: false
Boxcar width: 0
XAxis mode: Raman Shifts
Number of Pixels in Spectrum: 1044
>>>>>Begin Spectral Data<<<<<
160.701	4.38
166.742	24.38
172.777	61.38
178.805	197.38
184.826	582.38
190.841	1410.38
196.849	2607.38
202.85	3751.38
208.845	4339.38
214.833	4363.38
220.815	4193.38
226.789	4093.38
232.758	3988.38
238.719	3857.38
244.674	3748.38
250.623	3627.38
256.565	3474.38
262.5	3336.38
268.429	3184.38
274.351	3100.38
280.267	2969.38
286.176	2827.38
292.079	2789.38
297.975	2673.38
303.865	2615.38
309.748	2543.38
315.625	2474.38
321.495	2427.38
327.359	2367.38
333.217	2356.38
339.068	2350.38
344.912	2324.38
350.751	2314.38
356.583	2289.38
362.408	2281.38
368.227	2274.38
374.04	2311.38
379.847	2292.38
385.647	2309.38
391.44	2315.38
397.228	2355.38
403.009	2355.38
408.784	2345.38
414.553	2382.38
420.315	2400.38
426.071	2397.38
431.821	2366.38
437.565	2412.38
443.302	2370.38
449.033	2398.38
454.758	2385.38
460.477	2361.38
466.189	2366.38
471.896	2351.38
477.596	2347.38
483.29	2339.38
488.978	2344.38
494.66	2328.38
500.335	2328.38
506.005	2292.38
511.668	2267.38
517.325	2229.38
522.977	2182.38
528.622	2176.38
534.261	2129.38
539.894	2130.38
545.521	2101.38
551.141	2119.38
556.756	2084.38
562.365	2117.38
567.968	2085.38
573.565	2060.38
579.155	2057.38
584.74	2044.38
590.319	2032.38
595.892	2014.38
601.459	2018.38
607.02	1991.38
612.575	2001.38
618.124	1973.38
623.667	1975.38
629.204	1941.38
634.735	1942.38
640.261	1913.38
645.781	1896.38
651.294	1911.38
656.802	1885.38
662.304	1887.38
667.8	1888.38
673.29	1890.38
678.775	1879.38
684.254	1867.38
689.726	1868.38
695.193	1862.38
700.655	1852.38
706.11	1827.38
711.56	1825.38
717.004	1829.38
722.442	1795.38
727.874	1803.38
733.301	1791.38
738.722	1778.38
744.137	1767.38
749.547	1769.38
754.951	1773.38
760.349	1773.38
765.741	1760.38
771.128	1774.38
776.509	1775.38
781.885	1765.38
787.254	1775.38
792.618	1765.38
797.977	1775.38
803.33	1750.38
808.677	1736.38
814.019	1722.38
819.355	1692.38
824.686	1687.38
830.011	1696.38
835.33	1694.38
840.644	1665.38
845.952	1668.38
851.255	1656.38
856.552	1658.38
861.844	1653.38
867.13	1655.38
872.41	1655.38
877.686	1644.38
882.955	1637.38
888.219	1637.38
893.478	1608.38
898.731	1582.38
903.979	1569.38
909.221	1558.38
914.458	1539.38
919.69	1531.38
924.916	1522.38
930.136	1503.38
935.351	1513.38
940.561	1519.38
945.766	1506.38
950.965	1515.38
956.158	1508.38
961.347	1477.38
966.529	1463.38
971.707	1456.38
976.879	1434.38
982.046	1430.38
987.208	1403.38
992.364	1406.38
997.515	1402.38
1002.66	1418.38
1007.801	1415.38
1012.936	1436.38
1018.066	1450.38
1023.19	1470.38
1028.309	1476.38
1033.423	1466.38
1038.532	1456.38
1043.636	1475.38
1048.734	1446.38
1053.827	1439.38
1058.915	1433.38
1063.998	1408.38
1069.075	1394.38
1074.147	1400.38
1079.214	1416.38
1084.276	1432.38
1089.333	1420.38
1094.385	1436.38
1099.431	1445.38
1104.472	1453.38
1109.509	1425.38
1114.54	1438.38
1119.565	1428.38
1124.586	1395.38
1129.602	1388.38
1134.613	1379.38
1139.618	1376.38
1144.619	1381.38
1149.614	1368.38
1154.604	1357.38
1159.589	1383.38
1164.57	1383.38
1169.545	1385.38
1174.515	1401.38
1179.48	1398.38
1184.44	1389.38
1189.395	1378.38
1194.345	1389.38
1199.29	1362.38
1204.23	1373.38
1209.165	1371.38
1214.095	1393.38
1219.021	1375.38
1223.941	1401.38
1228.856	1398.38
1233.766	1410.38
1238.672	1420.38
1243.572	1425.38
1248.467	1414.38
1253.358	1404.38
1258.244	1390.38
1263.124	1369.38
1268	1341.38
1272.871	1320.38
1277.737	1320.38
1282.599	1323.38
1287.455	1314.38
1292.306	1321.38
1297.153	1337.38
1301.995	1340.38
1306.832	1340.38
1311.664	1351.38
1316.491	1347.38
1321.314	1350.38
1326.132	1343.38
1330.945	1331.38
1335.753	1329.38
1340.556	1302.38
1345.354	1309.38
1350.148	1297.38
1354.937	1272.38
1359.722	1269.38
1364.501	1269.38
1369.276	1253.38
1374.046	1238.38
1378.811	1227.38
1383.572	1227.38
1388.327	1202.38
1393.079	1228.38
1397.825	1222.38
1402.567	1208.38
1407.304	1204.38
1412.036	1191.38
1416.764	1190.38
1421.487	1212.38
1426.205	1206.38
1430.919	1199.38
1435.628	1217.38
1440.333	1220.38
1445.032	1225.38
1449.727	1240.38
1454.418	1257.38
1459.104	1260.38
1463.785	1258.38
1468.462	1265.38
1473.134	1235.38
1477.802	1222.38
1482.465	1191.38
1487.123	1193.38
1491.777	1188.38
1496.426	1201.38
1501.071	1204.38
1505.711	1211.38
1510.347	1226.38
1514.978	1223.38
1519.604	1223.38
1524.226	1252.38
1528.844	1235.38
1533.457	1237.38
1538.065	1254.38
1542.669	1235.38
1547.269	1224.38
1551.864	1251.38
1556.454	1226.38
1561.041	1238.38
1565.622	1250.38
1570.199	1258.38
1574.772	1272.38
1579.34	1284.38
1583.904	1319.38
1588.464	1323.38
1593.019	1333.38
1597.569	1353.38
1602.115	1366.38
1606.657	1359.38
1611.195	1370.38
1615.728	1380.38
1620.256	1391.38
1624.78	1416.38
1629.3	1435.38
1633.816	1438.38
1638.327	1453.38
1642.834	1460.38
1647.336	1482.38
1651.834	1497.38
1656.328	1490.38
1660.817	1508.38
1665.302	1482.38
1669.783	1470.38
1674.259	1422.38
1678.732	1391.38
1683.199	1365.38
1687.663	1325.38
1692.122	1302.38
1696.577	1267.38
1701.028	1205.38
1705.474	1159.38
1709.917	1112.38
1714.355	1087.38
1718.788	1074.38
1723.218	1072.38
1727.643	1062.38
1732.064	1040.38
1736.481	1031.38
1740.893	1009.38
1745.301	977.38
1749.705	959.38
1754.105	941.38
1758.501	924.38
1762.893	904.38
1767.28	883.38
1771.663	889.38
1776.042	885.38
1780.417	885.38
1784.787	881.38
1789.154	875.38
1793.516	878.38
1797.874	874.38
1802.228	884.38
1806.578	870.38
1810.924	856.38
1815.266	843.38
1819.603	850.38
1823.937	817.38
1828.266	815.38
1832.591	811.38
1836.913	804.38
1841.23	811.38
1845.543	803.38
1849.852	805.38
1854.156	807.38
1858.457	808.38
1862.754	805.38
1867.047	827.38
1871.335	817.38
1875.62	821.38
1879.9	827.38
1884.177	819.38
1888.449	824.38
1892.718	822.38
1896.982	810.38
1901.243	810.38
1905.499	806.38
1909.752	823.38
1914	807.38
1918.245	785.38
1922.485	803.38
1926.722	802.38
1930.954	817.38
1935.183	817.38
1939.408	817.38
1943.628	808.38
1947.845	798.38
1952.058	796.38
1956.267	807.38
1960.472	802.38
1964.673	784.38
1968.87	783.38
1973.063	772.38
1977.252	768.38
1981.438	763.38
1985.619	760.38
1989.797	760.38
1993.971	759.38
1998.14	767.38
2002.306	757.38
2006.469	770.38
2010.627	775.38
2014.781	769.38
2018.932	772.38
2023.078	769.38
2027.221	766.38
2031.36	767.38
2035.495	762.38
2039.627	752.38
2043.754	747.38
2047.878	742.38
2051.998	746.38
2056.114	749.38
2060.226	747.38
2064.334	751.38
2068.439	750.38
2072.54	752.38
2076.637	768.38
2080.73	760.38
2084.82	758.38
2088.906	766.38
2092.988	759.38
2097.066	760.38
2101.14	757.38
2105.211	760.38
2109.278	746.38
2113.342	750.38
2117.401	737.38
2121.457	737.38
2125.509	734.38
2129.558	734.38
2133.602	719.38
2137.643	732.38
2141.681	709.38
2145.714	717.38
2149.744	718.38
2153.77	710.38
2157.793	718.38
2161.812	699.38
2165.827	705.38
2169.838	687.38
2173.846	680.38
2177.851	680.38
2181.851	664.38
2185.848	657.38
2189.841	654.38
2193.831	645.38
2197.817	643.38
2201.799	634.38
2205.778	638.38
2209.753	641.38
2213.725	646.38
2217.693	647.38
2221.657	637.38
2225.618	631.38
2229.575	626.38
2233.529	628.38
2237.479	626.38
2241.425	625.38
2245.368	621.38
2249.307	610.38
2253.243	599.38
2257.175	600.38
2261.104	588.38
2265.029	581.38
2268.95	572.38
2272.868	558.38
2276.783	566.38
2280.694	567.38
2284.601	548.38
2288.505	545.38
2292.405	539.38
2296.302	539.38
2300.195	524.38
2304.085	527.38
2307.971	508.38
2311.854	511.38
2315.734	509.38
2319.609	502.38
2323.482	490.38
2327.351	485.38
2331.216	480.38
2335.078	478.38
2338.937	475.38
2342.792	474.38
2346.643	461.38
2350.492	473.38
2354.336	463.38
2358.178	463.38
2362.015	475.38
2365.85	467.38
2369.681	475.38
2373.508	478.38
2377.333	480.38
2381.153	476.38
2384.971	472.38
2388.785	467.38
2392.595	473.38
2396.402	467.38
2400.206	460.38
2404.007	459.38
2407.804	458.38
2411.597	464.38
2415.388	462.38
2419.174	451.38
2422.958	446.38
2426.738	453.38
2430.515	450.38
2434.289	448.38
2438.059	446.38
2441.825	442.38
2445.589	440.38
2449.349	432.38
2453.106	430.38
2456.859	441.38
2460.61	443.38
2464.356	431.38
2468.1	419.38
2471.84	421.38
2475.577	420.38
2479.311	415.38
2483.041	421.38
2486.768	417.38
2490.492	416.38
2494.213	422.38
2497.93	415.38
2501.644	413.38
2505.355	412.38
2509.062	416.38
2512.766	418.38
2516.467	418.38
2520.165	408.38
2523.859	400.38
2527.551	402.38
2531.239	401.38
2534.923	399.38
2538.605	396.38
2542.283	393.38
2545.958	392.38
2549.63	393.38
2553.299	379.38
2556.964	389.38
2560.626	384.38
2564.285	372.38
2567.941	379.38
2571.594	378.38
2575.243	377.38
2578.89	371.38
2582.533	363.38
2586.173	361.38
2589.809	360.38
2593.443	366.38
2597.073	356.38
2600.701	355.38
2604.325	358.38
2607.946	352.38
2611.564	351.38
2615.178	357.38
2618.79	355.38
2622.398	345.38
2626.004	340.38
2629.606	342.38
2633.205	347.38
2636.801	338.38
2640.394	327.38
2643.983	338.38
2647.57	329.38
2651.153	326.38
2654.734	326.38
2658.311	324.38
2661.885	318.38
2665.456	321.38
2669.025	319.38
2672.589	311.38
2676.151	310.38
2679.71	309.38
2683.266	308.38
2686.819	304.38
2690.368	290.38
2693.915	294.38
2697.458	293.38
2700.999	288.38
2704.536	288.38
2708.071	286.38
2711.602	289.38
2715.13	287.38
2718.656	284.38
2722.178	283.38
2725.697	281.38
2729.214	276.38
2732.727	277.38
2736.237	286.38
2739.744	289.38
2743.249	280.38
2746.75	278.38
2750.248	281.38
2753.743	282.38
2757.236	278.38
2760.725	268.38
2764.211	278.38
2767.695	275.38
2771.175	267.38
2774.652	268.38
2778.127	255.38
2781.598	266.38
2785.067	260.38
2788.532	271.38
2791.995	255.38
2795.455	263.38
2798.911	267.38
2802.365	269.38
2805.816	265.38
2809.264	267.38
2812.709	261.38
2816.151	262.38
2819.59	267.38
2823.026	267.38
2826.46	274.38
2829.89	269.38
2833.318	274.38
2836.742	274.38
2840.164	271.38
2843.583	269.38
2846.999	268.38
2850.412	266.38
2853.822	282.38
2857.229	288.38
2860.634	283.38
2864.035	274.38
2867.434	285.38
2870.83	280.38
2874.223	287.38
2877.613	297.38
2881	298.38
2884.385	298.38
2887.766	297.38
2891.145	288.38
2894.521	297.38
2897.894	299.38
2901.264	293.38
2904.631	289.38
2907.996	300.38
2911.358	303.38
2914.717	299.38
2918.073	311.38
2921.426	309.38
2924.777	305.38
2928.124	314.38
2931.469	320.38
2934.811	325.38
2938.15	330.38
2941.487	329.38
2944.821	337.38
2948.152	345.38
2951.48	344.38
2954.805	343.38
2958.128	346.38
2961.447	347.38
2964.765	354.38
2968.079	362.38
2971.39	373.38
2974.699	365.38
2978.005	375.38
2981.308	388.38
2984.609	383.38
2987.907	395.38
2991.202	398.38
2994.494	416.38
2997.784	418.38
3001.07	433.38
3004.355	440.38
3007.636	447.38
3010.915	453.38
3014.191	461.38
3017.464	473.38
3020.734	471.38
3024.002	480.38
3027.267	481.38
3030.53	496.38
3033.789	504.38
3037.046	519.38
3040.301	526.38
3043.552	529.38
3046.801	539.38
3050.048	557.38
3053.291	565.38
3056.532	591.38
3059.771	596.38
3063.006	614.38
3066.239	632.38
3069.469	657.38
3072.697	682.38
3075.922	668.38
3079.144	699.38
3082.364	705.38
3085.581	739.38
3088.795	746.38
3092.007	769.38
3095.216	775.38
3098.423	793.38
3101.627	812.38
3104.828	815.38
3108.026	850.38
3111.222	866.38
3114.416	880.38
3117.607	895.38
3120.795	906.38
3123.98	932.38
3127.163	956.38
3130.344	978.38
3133.521	983.38
3136.696	1008.38
3139.869	1028.38
3143.039	1060.38
3146.206	1055.38
3149.371	1085.38
3152.533	1088.38
3155.693	1100.38
3158.85	1106.38
3162.005	1101.38
3165.157	1111.38
3168.306	1123.38
3171.453	1127.38
3174.597	1131.38
3177.739	1144.38
3180.878	1136.38
3184.014	1148.38
3187.149	1127.38
3190.28	1155.38
3193.409	1146.38
3196.536	1148.38
3199.659	1146.38
3202.781	1159.38
3205.9	1166.38
3209.016	1162.38
3212.13	1165.38
3215.241	1143.38
3218.35	1149.38
3221.456	1129.38
3224.56	1129.38
3227.661	1120.38
3230.76	1089.38
3233.856	1090.38
3236.95	1075.38
3240.041	1076.38
3243.13	1057.38
3246.216	1047.38
3249.3	1052.38
3252.382	1047.38
3255.46	1041.38
3258.537	1020.38
3261.611	1027.38
3264.682	1024.38
3267.751	1004.38
3270.818	1007.38
3273.882	1006.38
3276.943	993.38
3280.002	988.38
3283.059	980.38
3286.113	978.38
3289.165	957.38
3292.214	948.38
3295.261	935.38
3298.306	911.38
3301.348	913.38
3304.387	888.38
3307.425	891.38
3310.459	852.38
3313.492	868.38
3316.521	864.38
3319.549	848.38
3322.574	827.38
3325.597	818.38
3328.617	810.38
3331.635	803.38
3334.65	812.38
3337.663	804.38
3340.674	786.38
3343.682	794.38
3346.688	787.38
3349.691	784.38
3352.692	789.38
3355.691	785.38
3358.687	782.38
3361.681	762.38
3364.673	754.38
3367.662	744.38
3370.649	728.38
3373.633	734.38
3376.615	715.38
3379.595	706.38
3382.572	700.38
3385.547	698.38
3388.52	682.38
3391.49	686.38
3394.458	664.38
3397.424	644.38
3400.387	654.38
3403.348	639.38
3406.307	620.38
3409.263	628.38
3412.217	623.38
3415.168	615.38
3418.118	611.38
3421.065	599.38
3424.009	599.38
3426.951	584.38
3429.891	589.38
3432.829	555.38
3435.764	558.38
3438.697	550.38
3441.628	537.38
3444.557	531.38
3447.483	511.38
3450.407	491.38
3453.328	471.38
3456.247	474.38
3459.164	450.38
3462.079	436.38
3464.991	441.38
3467.902	426.38
3470.809	409.38
3473.715	399.38
3476.618	384.38
3479.519	370.38
3482.418	365.38
3485.315	352.38
3488.209	342.38
3491.101	337.38
3493.99	333.38
3496.878	319.38
3499.763	312.38
3502.646	303.38
3505.527	293.38
3508.405	280.38
3511.281	269.38
3514.155	260.38
3517.027	248.38
3519.897	242.38
3522.764	234.38
3525.629	229.38
3528.492	205.38
3531.352	204.38
3534.211	190.38
3537.067	174.38
3539.921	164.38
3542.773	170.38
3545.622	162.38
3548.469	146.38
3551.315	140.38
3554.157	134.38
3556.998	124.38
3559.837	115.38
3562.673	111.38
3565.507	114.38
3568.339	103.38
3571.169	95.38
3573.996	88.38
3576.822	89.38
3579.645	83.38
3582.466	77.38
3585.285	74.38
3588.101	64.38
3590.916	59.38
3593.728	58.38
3596.538	59.38
3599.346	44.38
3602.152	46.38
3604.956	41.38
3607.757	42.38
3610.556	37.38
3613.354	33.38
3616.149	23.38
3618.942	25.38
3621.732	19.38
3624.521	18.38
3627.307	19.38
3630.092	10.38
3632.874	13.38
3635.654	9.38
3638.432	6.38
3641.208	5.38
3643.982	-1.62
3646.753	-4.62
3649.523	-1.62
3652.29	-7.62
3655.055	-10.62
3657.818	-8.62
3660.579	-10.62
3663.338	-16.62
3666.095	-15.62
3668.849	-22.62
3671.602	-20.62
3674.352	-27.62
3677.101	-26.62
3679.847	-30.62
3682.591	-29.62
3685.333	-27.62
3688.073	-25.62
3690.811	-29.62
3693.547	-33.62
3696.281	-36.62
3699.013	-40.62
3701.742	-38.62
3704.47	-38.62
3707.195	-35.62
3709.919	-38.62
3712.64	-46.62
3715.359	-40.62
3718.076	-44.62
3720.792	-47.62
3723.505	-46.62
3726.216	-51.62
3728.925	-48.62
3731.632	-51.62
3734.336	-46.62
3737.039	-47.62
3739.74	-51.62
3742.439	-50.62
3745.136	-52.62
3747.83	-52.62
3750.523	-55.62
3753.213	-55.62
3755.902	-49.62
3758.589	-52.62
3761.273	-53.62
3763.956	-51.62
3766.636	-52.62
3769.315	-56.62
3771.991	-59.62
3774.665	-56.62
3777.338	-57.62
3780.008	-54.62
3782.677	-56.62
3785.343	-55.62
3788.007	-59.62
3790.67	-59.62
3793.33	-59.62
3795.989	-59.62
3798.645	-57.62
3801.299	-59.62
3803.952	-61.62
3806.602	-59.62
3809.251	-59.62
3811.897	-62.62
3814.542	-63.62
3817.184	-57.62
3819.825	-60.62
3822.463	-63.62
3825.1	-61.62
3827.735	-58.62
3830.367	-65.62
3832.998	-60.62
3835.627	-59.62
3838.253	-62.62
3840.878	-66.62
3843.501	-63.62
3846.122	-62.62
3848.741	-64.62
3851.358	-66.62
3853.973	-65.62
3856.586	-60.62
3859.197	-66.62
3861.806	-67.62
3864.414	-68.62
3867.019	-66.62
3869.622	-61.62
3872.224	-65.62
3874.823	-62.62
3877.421	-65.62
3880.016	-65.62
3882.61	-63.62
3885.202	-62.62
3887.792	-61.62
3890.38	-62.62
3892.966	-64.62
3895.55	-65.62
3898.132	-65.62
3900.713	-68.62
3903.291	-70.62
3905.868	-66.62
3908.442	-67.62
3911.015	-71.62
3913.586	-67.62
3916.155	-67.62
3918.722	-65.62
3921.287	-66.62
3923.85	-71.62
3926.411	-68.62
3928.971	-67.62
3931.528	-71.62
3934.084	-68.62
3936.638	-72.62
3939.19	-69.62
3941.74	-72.62
3944.288	-70.62
3946.834	-69.62
3949.378	-68.62
3951.921	-70.62
3954.462	-68.62
3957	-66.62
3959.537	-68.62
3962.072	-67.62
3964.606	-66.62
3967.137	-68.62
3969.667	-67.62
3972.194	-70.62
3974.72	-71.62
3977.244	-66.62
3979.766	-69.62
3982.286	-61.62
3984.805	-68.62
3987.321	-69.62
3989.836	-67.62
3992.349	-68.62
3994.86	-64.62
3997.369	-63.62
3999.877	-69.62
4002.382	-66.62
4004.886	-69.62
4007.388	-65.62
4009.888	-63.62
4012.386	-66.62
4014.883	-69.62
4017.377	-71.62
4019.87	-71.62
4022.361	-67.62
4024.85	-65.62
4027.338	-65.62
4029.823	-62.62
4032.307	-65.62
4034.789	-69.62
4037.269	-72.62
4039.747	-73.62
4042.224	-74.62
4044.699	-66.62
4047.172	-68.62
4049.643	-62.62
4052.112	-66.62
4054.58	-70.62
4057.046	-69.62
4059.51	-72.62
4061.972	-68.62
4064.432	-65.62
4066.891	-66.62
4069.348	-68.62
4071.803	-67.62
4074.256	-70.62
4076.708	-71.62
4079.158	-70.62
4081.606	-70.62
4084.052	-69.62
4086.497	-70.62
4088.939	-66.62
4091.38	-67.62
4093.819	-66.62
4096.257	-70.62
4098.693	-69.62
4101.127	-73.62
4103.559	-74.62
4105.989	-22.62
4108.418	-17.62
4110.845	-16.62
4113.27	-11.62
4115.694	-12.62
4118.115	-7.62
4120.535	-71.62
4122.954	-66.62
4125.37	-69.62
4127.785	-68.62
4130.198	-69.62
4132.609	-68.62
4135.019	-73.62
4137.427	-70.62
4139.833	-70.62
4142.237	-72.62
