Data from 1CFU3_A_ramanshift_RamanShift_14-02-05-562.txt Node
Date: Sun Dec 25 14:02:05 IST 2016
User: aro
Spectrometer: QEPB0276
Trigger mode: 0
Integration Time (sec): 5.000000E0
Scans to average: 1
Electric dark correction enabled: true
Nonlinearity correction enabled: false
Boxcar width: 0
XAxis mode: Raman Shifts
Number of Pixels in Spectrum: 1044
>>>>>Begin Spectral Data<<<<<
160.701	7.38
166.742	26.38
172.777	64.38
178.805	204.38
184.826	625.38
190.841	1468.38
196.849	2722.38
202.85	3853.38
208.845	4436.38
214.833	4488.38
220.815	4327.38
226.789	4169.38
232.758	4066.38
238.719	3927.38
244.674	3813.38
250.623	3647.38
256.565	3539.38
262.5	3352.38
268.429	3228.38
274.351	3076.38
280.267	2967.38
286.176	2855.38
292.079	2746.38
297.975	2651.38
303.865	2600.38
309.748	2500.38
315.625	2427.38
321.495	2365.38
327.359	2336.38
333.217	2294.38
339.068	2282.38
344.912	2278.38
350.751	2241.38
356.583	2232.38
362.408	2242.38
368.227	2212.38
374.04	2235.38
379.847	2229.38
385.647	2257.38
391.44	2268.38
397.228	2267.38
403.009	2284.38
408.784	2296.38
414.553	2303.38
420.315	2324.38
426.071	2312.38
431.821	2324.38
437.565	2315.38
443.302	2309.38
449.033	2321.38
454.758	2312.38
460.477	2335.38
466.189	2298.38
471.896	2287.38
477.596	2268.38
483.29	2280.38
488.978	2270.38
494.66	2252.38
500.335	2249.38
506.005	2220.38
511.668	2164.38
517.325	2141.38
522.977	2112.38
528.622	2082.38
534.261	2074.38
539.894	2045.38
545.521	2034.38
551.141	2026.38
556.756	1995.38
562.365	1996.38
567.968	1971.38
573.565	1972.38
579.155	1977.38
584.74	1954.38
590.319	1953.38
595.892	1926.38
601.459	1923.38
607.02	1917.38
612.575	1890.38
618.124	1888.38
623.667	1855.38
629.204	1855.38
634.735	1840.38
640.261	1836.38
645.781	1824.38
651.294	1814.38
656.802	1801.38
662.304	1796.38
667.8	1782.38
673.29	1799.38
678.775	1785.38
684.254	1759.38
689.726	1763.38
695.193	1755.38
700.655	1751.38
706.11	1750.38
711.56	1731.38
717.004	1710.38
722.442	1717.38
727.874	1713.38
733.301	1691.38
738.722	1665.38
744.137	1676.38
749.547	1674.38
754.951	1672.38
760.349	1675.38
765.741	1675.38
771.128	1669.38
776.509	1666.38
781.885	1683.38
787.254	1669.38
792.618	1650.38
797.977	1665.38
803.33	1646.38
808.677	1631.38
814.019	1624.38
819.355	1610.38
824.686	1605.38
830.011	1585.38
835.33	1584.38
840.644	1572.38
845.952	1555.38
851.255	1553.38
856.552	1549.38
861.844	1563.38
867.13	1559.38
872.41	1561.38
877.686	1540.38
882.955	1568.38
888.219	1548.38
893.478	1519.38
898.731	1480.38
903.979	1459.38
909.221	1415.38
914.458	1423.38
919.69	1413.38
924.916	1421.38
930.136	1407.38
935.351	1411.38
940.561	1409.38
945.766	1392.38
950.965	1395.38
956.158	1389.38
961.347	1394.38
966.529	1348.38
971.707	1347.38
976.879	1328.38
982.046	1318.38
987.208	1310.38
992.364	1289.38
997.515	1303.38
1002.66	1300.38
1007.801	1323.38
1012.936	1344.38
1018.066	1350.38
1023.19	1351.38
1028.309	1368.38
1033.423	1351.38
1038.532	1354.38
1043.636	1364.38
1048.734	1356.38
1053.827	1348.38
1058.915	1331.38
1063.998	1310.38
1069.075	1308.38
1074.147	1307.38
1079.214	1304.38
1084.276	1315.38
1089.333	1325.38
1094.385	1350.38
1099.431	1350.38
1104.472	1356.38
1109.509	1363.38
1114.54	1341.38
1119.565	1319.38
1124.586	1313.38
1129.602	1292.38
1134.613	1285.38
1139.618	1263.38
1144.619	1268.38
1149.614	1282.38
1154.604	1279.38
1159.589	1291.38
1164.57	1299.38
1169.545	1300.38
1174.515	1304.38
1179.48	1306.38
1184.44	1293.38
1189.395	1296.38
1194.345	1293.38
1199.29	1275.38
1204.23	1275.38
1209.165	1274.38
1214.095	1293.38
1219.021	1283.38
1223.941	1293.38
1228.856	1330.38
1233.766	1323.38
1238.672	1325.38
1243.572	1318.38
1248.467	1313.38
1253.358	1323.38
1258.244	1302.38
1263.124	1278.38
1268	1254.38
1272.871	1253.38
1277.737	1246.38
1282.599	1232.38
1287.455	1235.38
1292.306	1232.38
1297.153	1239.38
1301.995	1252.38
1306.832	1244.38
1311.664	1265.38
1316.491	1267.38
1321.314	1268.38
1326.132	1277.38
1330.945	1252.38
1335.753	1254.38
1340.556	1209.38
1345.354	1210.38
1350.148	1186.38
1354.937	1193.38
1359.722	1185.38
1364.501	1172.38
1369.276	1172.38
1374.046	1173.38
1378.811	1173.38
1383.572	1163.38
1388.327	1158.38
1393.079	1162.38
1397.825	1149.38
1402.567	1157.38
1407.304	1132.38
1412.036	1116.38
1416.764	1126.38
1421.487	1122.38
1426.205	1109.38
1430.919	1141.38
1435.628	1140.38
1440.333	1153.38
1445.032	1164.38
1449.727	1183.38
1454.418	1172.38
1459.104	1201.38
1463.785	1175.38
1468.462	1178.38
1473.134	1158.38
1477.802	1147.38
1482.465	1142.38
1487.123	1121.38
1491.777	1127.38
1496.426	1129.38
1501.071	1131.38
1505.711	1133.38
1510.347	1161.38
1514.978	1161.38
1519.604	1167.38
1524.226	1183.38
1528.844	1193.38
1533.457	1184.38
1538.065	1189.38
1542.669	1178.38
1547.269	1185.38
1551.864	1169.38
1556.454	1187.38
1561.041	1190.38
1565.622	1218.38
1570.199	1212.38
1574.772	1229.38
1579.34	1229.38
1583.904	1274.38
1588.464	1271.38
1593.019	1278.38
1597.569	1304.38
1602.115	1317.38
1606.657	1315.38
1611.195	1333.38
1615.728	1320.38
1620.256	1353.38
1624.78	1354.38
1629.3	1383.38
1633.816	1401.38
1638.327	1411.38
1642.834	1433.38
1647.336	1440.38
1651.834	1452.38
1656.328	1453.38
1660.817	1451.38
1665.302	1441.38
1669.783	1411.38
1674.259	1375.38
1678.732	1330.38
1683.199	1308.38
1687.663	1272.38
1692.122	1235.38
1696.577	1193.38
1701.028	1147.38
1705.474	1124.38
1709.917	1087.38
1714.355	1056.38
1718.788	1059.38
1723.218	1031.38
1727.643	1030.38
1732.064	1013.38
1736.481	969.38
1740.893	947.38
1745.301	939.38
1749.705	907.38
1754.105	894.38
1758.501	873.38
1762.893	868.38
1767.28	844.38
1771.663	843.38
1776.042	835.38
1780.417	829.38
1784.787	821.38
1789.154	824.38
1793.516	821.38
1797.874	839.38
1802.228	846.38
1806.578	836.38
1810.924	809.38
1815.266	801.38
1819.603	797.38
1823.937	783.38
1828.266	794.38
1832.591	771.38
1836.913	770.38
1841.23	758.38
1845.543	760.38
1849.852	764.38
1854.156	762.38
1858.457	768.38
1862.754	774.38
1867.047	767.38
1871.335	756.38
1875.62	767.38
1879.9	774.38
1884.177	779.38
1888.449	774.38
1892.718	778.38
1896.982	754.38
1901.243	771.38
1905.499	751.38
1909.752	766.38
1914	773.38
1918.245	756.38
1922.485	765.38
1926.722	762.38
1930.954	764.38
1935.183	748.38
1939.408	774.38
1943.628	772.38
1947.845	765.38
1952.058	765.38
1956.267	764.38
1960.472	764.38
1964.673	757.38
1968.87	752.38
1973.063	744.38
1977.252	740.38
1981.438	730.38
1985.619	740.38
1989.797	740.38
1993.971	731.38
1998.14	743.38
2002.306	734.38
2006.469	746.38
2010.627	746.38
2014.781	743.38
2018.932	742.38
2023.078	746.38
2027.221	748.38
2031.36	731.38
2035.495	731.38
2039.627	721.38
2043.754	709.38
2047.878	707.38
2051.998	711.38
2056.114	722.38
2060.226	710.38
2064.334	720.38
2068.439	721.38
2072.54	732.38
2076.637	739.38
2080.73	721.38
2084.82	731.38
2088.906	730.38
2092.988	728.38
2097.066	737.38
2101.14	737.38
2105.211	724.38
2109.278	722.38
2113.342	707.38
2117.401	718.38
2121.457	711.38
2125.509	713.38
2129.558	709.38
2133.602	709.38
2137.643	699.38
2141.681	707.38
2145.714	698.38
2149.744	693.38
2153.77	700.38
2157.793	681.38
2161.812	691.38
2165.827	674.38
2169.838	661.38
2173.846	659.38
2177.851	651.38
2181.851	648.38
2185.848	633.38
2189.841	629.38
2193.831	610.38
2197.817	621.38
2201.799	621.38
2205.778	613.38
2209.753	618.38
2213.725	610.38
2217.693	614.38
2221.657	626.38
2225.618	608.38
2229.575	597.38
2233.529	600.38
2237.479	606.38
2241.425	595.38
2245.368	605.38
2249.307	590.38
2253.243	578.38
2257.175	570.38
2261.104	564.38
2265.029	555.38
2268.95	554.38
2272.868	537.38
2276.783	541.38
2280.694	532.38
2284.601	535.38
2288.505	516.38
2292.405	522.38
2296.302	520.38
2300.195	511.38
2304.085	509.38
2307.971	497.38
2311.854	490.38
2315.734	484.38
2319.609	477.38
2323.482	455.38
2327.351	466.38
2331.216	469.38
2335.078	471.38
2338.937	458.38
2342.792	453.38
2346.643	445.38
2350.492	449.38
2354.336	445.38
2358.178	450.38
2362.015	448.38
2365.85	460.38
2369.681	455.38
2373.508	458.38
2377.333	453.38
2381.153	444.38
2384.971	446.38
2388.785	441.38
2392.595	450.38
2396.402	447.38
2400.206	445.38
2404.007	445.38
2407.804	446.38
2411.597	441.38
2415.388	434.38
2419.174	433.38
2422.958	429.38
2426.738	429.38
2430.515	432.38
2434.289	434.38
2438.059	432.38
2441.825	416.38
2445.589	421.38
2449.349	424.38
2453.106	413.38
2456.859	418.38
2460.61	407.38
2464.356	409.38
2468.1	404.38
2471.84	393.38
2475.577	405.38
2479.311	394.38
2483.041	396.38
2486.768	402.38
2490.492	393.38
2494.213	396.38
2497.93	401.38
2501.644	392.38
2505.355	396.38
2509.062	401.38
2512.766	401.38
2516.467	397.38
2520.165	385.38
2523.859	384.38
2527.551	379.38
2531.239	380.38
2534.923	381.38
2538.605	368.38
2542.283	380.38
2545.958	376.38
2549.63	369.38
2553.299	368.38
2556.964	368.38
2560.626	358.38
2564.285	370.38
2567.941	364.38
2571.594	357.38
2575.243	356.38
2578.89	351.38
2582.533	344.38
2586.173	342.38
2589.809	355.38
2593.443	349.38
2597.073	346.38
2600.701	338.38
2604.325	340.38
2607.946	340.38
2611.564	337.38
2615.178	341.38
2618.79	340.38
2622.398	341.38
2626.004	334.38
2629.606	328.38
2633.205	328.38
2636.801	331.38
2640.394	327.38
2643.983	321.38
2647.57	317.38
2651.153	312.38
2654.734	314.38
2658.311	307.38
2661.885	296.38
2665.456	312.38
2669.025	306.38
2672.589	306.38
2676.151	303.38
2679.71	297.38
2683.266	303.38
2686.819	292.38
2690.368	288.38
2693.915	293.38
2697.458	288.38
2700.999	285.38
2704.536	275.38
2708.071	282.38
2711.602	275.38
2715.13	275.38
2718.656	270.38
2722.178	275.38
2725.697	265.38
2729.214	265.38
2732.727	273.38
2736.237	276.38
2739.744	268.38
2743.249	273.38
2746.75	274.38
2750.248	269.38
2753.743	273.38
2757.236	281.38
2760.725	277.38
2764.211	273.38
2767.695	273.38
2771.175	260.38
2774.652	261.38
2778.127	259.38
2781.598	262.38
2785.067	270.38
2788.532	272.38
2791.995	263.38
2795.455	258.38
2798.911	258.38
2802.365	253.38
2805.816	270.38
2809.264	269.38
2812.709	262.38
2816.151	265.38
2819.59	264.38
2823.026	265.38
2826.46	259.38
2829.89	260.38
2833.318	262.38
2836.742	267.38
2840.164	264.38
2843.583	267.38
2846.999	263.38
2850.412	270.38
2853.822	281.38
2857.229	284.38
2860.634	280.38
2864.035	277.38
2867.434	281.38
2870.83	281.38
2874.223	293.38
2877.613	292.38
2881	296.38
2884.385	304.38
2887.766	300.38
2891.145	293.38
2894.521	297.38
2897.894	298.38
2901.264	302.38
2904.631	298.38
2907.996	312.38
2911.358	308.38
2914.717	299.38
2918.073	306.38
2921.426	305.38
2924.777	312.38
2928.124	317.38
2931.469	317.38
2934.811	331.38
2938.15	331.38
2941.487	336.38
2944.821	343.38
2948.152	347.38
2951.48	349.38
2954.805	347.38
2958.128	344.38
2961.447	351.38
2964.765	361.38
2968.079	360.38
2971.39	369.38
2974.699	369.38
2978.005	388.38
2981.308	391.38
2984.609	394.38
2987.907	407.38
2991.202	419.38
2994.494	421.38
2997.784	432.38
3001.07	434.38
3004.355	453.38
3007.636	458.38
3010.915	463.38
3014.191	477.38
3017.464	494.38
3020.734	500.38
3024.002	497.38
3027.267	498.38
3030.53	518.38
3033.789	519.38
3037.046	526.38
3040.301	531.38
3043.552	551.38
3046.801	559.38
3050.048	565.38
3053.291	592.38
3056.532	590.38
3059.771	615.38
3063.006	637.38
3066.239	654.38
3069.469	672.38
3072.697	686.38
3075.922	707.38
3079.144	720.38
3082.364	739.38
3085.581	758.38
3088.795	775.38
3092.007	795.38
3095.216	802.38
3098.423	816.38
3101.627	828.38
3104.828	856.38
3108.026	877.38
3111.222	892.38
3114.416	903.38
3117.607	924.38
3120.795	946.38
3123.98	967.38
3127.163	995.38
3130.344	997.38
3133.521	1018.38
3136.696	1063.38
3139.869	1060.38
3143.039	1100.38
3146.206	1095.38
3149.371	1136.38
3152.533	1132.38
3155.693	1142.38
3158.85	1162.38
3162.005	1160.38
3165.157	1164.38
3168.306	1168.38
3171.453	1166.38
3174.597	1176.38
3177.739	1178.38
3180.878	1178.38
3184.014	1192.38
3187.149	1180.38
3190.28	1184.38
3193.409	1187.38
3196.536	1189.38
3199.659	1191.38
3202.781	1189.38
3205.9	1205.38
3209.016	1211.38
3212.13	1204.38
3215.241	1190.38
3218.35	1191.38
3221.456	1177.38
3224.56	1169.38
3227.661	1149.38
3230.76	1152.38
3233.856	1131.38
3236.95	1120.38
3240.041	1109.38
3243.13	1100.38
3246.216	1095.38
3249.3	1073.38
3252.382	1088.38
3255.46	1080.38
3258.537	1068.38
3261.611	1054.38
3264.682	1072.38
3267.751	1056.38
3270.818	1046.38
3273.882	1046.38
3276.943	1062.38
3280.002	1030.38
3283.059	1022.38
3286.113	1010.38
3289.165	1007.38
3292.214	985.38
3295.261	972.38
3298.306	959.38
3301.348	947.38
3304.387	926.38
3307.425	904.38
3310.459	892.38
3313.492	907.38
3316.521	890.38
3319.549	881.38
3322.574	882.38
3325.597	860.38
3328.617	854.38
3331.635	849.38
3334.65	835.38
3337.663	831.38
3340.674	820.38
3343.682	808.38
3346.688	815.38
3349.691	819.38
3352.692	817.38
3355.691	822.38
3358.687	806.38
3361.681	807.38
3364.673	790.38
3367.662	780.38
3370.649	775.38
3373.633	767.38
3376.615	752.38
3379.595	736.38
3382.572	735.38
3385.547	728.38
3388.52	713.38
3391.49	706.38
3394.458	689.38
3397.424	682.38
3400.387	676.38
3403.348	667.38
3406.307	655.38
3409.263	653.38
3412.217	647.38
3415.168	640.38
3418.118	632.38
3421.065	630.38
3424.009	628.38
3426.951	617.38
3429.891	590.38
3432.829	587.38
3435.764	590.38
3438.697	570.38
3441.628	561.38
3444.557	554.38
3447.483	529.38
3450.407	514.38
3453.328	506.38
3456.247	492.38
3459.164	475.38
3462.079	472.38
3464.991	453.38
3467.902	440.38
3470.809	428.38
3473.715	412.38
3476.618	404.38
3479.519	386.38
3482.418	388.38
3485.315	368.38
3488.209	357.38
3491.101	349.38
3493.99	338.38
3496.878	338.38
3499.763	330.38
3502.646	327.38
3505.527	310.38
3508.405	290.38
3511.281	285.38
3514.155	271.38
3517.027	264.38
3519.897	248.38
3522.764	240.38
3525.629	239.38
3528.492	225.38
3531.352	209.38
3534.211	200.38
3537.067	183.38
3539.921	178.38
3542.773	168.38
3545.622	170.38
3548.469	153.38
3551.315	151.38
3554.157	143.38
3556.998	133.38
3559.837	123.38
3562.673	121.38
3565.507	112.38
3568.339	110.38
3571.169	103.38
3573.996	94.38
3576.822	87.38
3579.645	88.38
3582.466	77.38
3585.285	69.38
3588.101	65.38
3590.916	59.38
3593.728	60.38
3596.538	57.38
3599.346	51.38
3602.152	44.38
3604.956	40.38
3607.757	43.38
3610.556	32.38
3613.354	27.38
3616.149	27.38
3618.942	22.38
3621.732	19.38
3624.521	20.38
3627.307	17.38
3630.092	15.38
3632.874	11.38
3635.654	10.38
3638.432	3.38
3641.208	4.38
3643.982	1.38
3646.753	-1.62
3649.523	0.38
3652.29	-4.62
3655.055	-10.62
3657.818	-11.62
3660.579	-15.62
3663.338	-20.62
3666.095	-16.62
3668.849	-21.62
3671.602	-22.62
3674.352	-29.62
3677.101	-27.62
3679.847	-28.62
3682.591	-31.62
3685.333	-33.62
3688.073	-34.62
3690.811	-35.62
3693.547	-37.62
3696.281	-33.62
3699.013	-42.62
3701.742	-37.62
3704.47	-37.62
3707.195	-42.62
3709.919	-46.62
3712.64	-48.62
3715.359	-43.62
3718.076	-43.62
3720.792	-51.62
3723.505	-45.62
3726.216	-52.62
3728.925	-51.62
3731.632	-54.62
3734.336	-50.62
3737.039	-53.62
3739.74	-51.62
3742.439	-49.62
3745.136	-51.62
3747.83	-51.62
3750.523	-55.62
3753.213	-54.62
3755.902	-58.62
3758.589	-57.62
3761.273	-56.62
3763.956	-57.62
3766.636	-55.62
3769.315	-55.62
3771.991	-60.62
3774.665	-60.62
3777.338	-61.62
3780.008	-58.62
3782.677	-59.62
3785.343	-55.62
3788.007	-61.62
3790.67	-58.62
3793.33	-63.62
3795.989	-64.62
3798.645	-62.62
3801.299	-64.62
3803.952	-65.62
3806.602	-62.62
3809.251	-59.62
3811.897	-62.62
3814.542	-65.62
3817.184	-60.62
3819.825	-63.62
3822.463	-64.62
3825.1	-64.62
3827.735	-64.62
3830.367	-66.62
3832.998	-64.62
3835.627	-64.62
3838.253	-63.62
3840.878	-67.62
3843.501	-65.62
3846.122	-67.62
3848.741	-69.62
3851.358	-69.62
3853.973	-66.62
3856.586	-60.62
3859.197	-65.62
3861.806	-65.62
3864.414	-72.62
3867.019	-71.62
3869.622	-66.62
3872.224	-66.62
3874.823	-67.62
3877.421	-59.62
3880.016	-66.62
3882.61	-64.62
3885.202	-64.62
3887.792	-63.62
3890.38	-66.62
3892.966	-67.62
3895.55	-70.62
3898.132	-69.62
3900.713	-70.62
3903.291	-72.62
3905.868	-66.62
3908.442	-69.62
3911.015	-74.62
3913.586	-70.62
3916.155	-70.62
3918.722	-70.62
3921.287	-69.62
3923.85	-69.62
3926.411	-70.62
3928.971	-73.62
3931.528	-70.62
3934.084	-73.62
3936.638	-75.62
3939.19	-72.62
3941.74	-74.62
3944.288	-73.62
3946.834	-69.62
3949.378	-72.62
3951.921	-71.62
3954.462	-70.62
3957	-71.62
3959.537	-70.62
3962.072	-73.62
3964.606	-71.62
3967.137	-73.62
3969.667	-69.62
3972.194	-72.62
3974.72	-74.62
3977.244	-68.62
3979.766	-74.62
3982.286	-70.62
3984.805	-72.62
3987.321	-73.62
3989.836	-71.62
3992.349	-69.62
3994.86	-65.62
3997.369	-63.62
3999.877	-71.62
4002.382	-70.62
4004.886	-74.62
4007.388	-73.62
4009.888	-70.62
4012.386	-70.62
4014.883	-66.62
4017.377	-70.62
4019.87	-70.62
4022.361	-70.62
4024.85	-71.62
4027.338	-69.62
4029.823	-64.62
4032.307	-68.62
4034.789	-67.62
4037.269	-70.62
4039.747	-73.62
4042.224	-74.62
4044.699	-70.62
4047.172	-69.62
4049.643	-69.62
4052.112	-71.62
4054.58	-74.62
4057.046	-71.62
4059.51	-70.62
4061.972	-67.62
4064.432	-67.62
4066.891	-71.62
4069.348	-75.62
4071.803	-73.62
4074.256	-75.62
4076.708	-74.62
4079.158	-68.62
4081.606	-67.62
4084.052	-72.62
4086.497	-71.62
4088.939	-71.62
4091.38	-73.62
4093.819	-73.62
4096.257	-75.62
4098.693	-73.62
4101.127	-74.62
4103.559	-74.62
4105.989	-21.62
4108.418	-14.62
4110.845	-16.62
4113.27	-16.62
4115.694	-10.62
4118.115	-4.62
4120.535	-73.62
4122.954	-71.62
4125.37	-70.62
4127.785	-71.62
4130.198	-72.62
4132.609	-73.62
4135.019	-79.62
4137.427	-74.62
4139.833	-73.62
4142.237	-74.62
