Data from 1CFU1_A_ramanshift_RamanShift_13-57-15-587.txt Node
Date: Sun Dec 25 13:57:15 IST 2016
User: aro
Spectrometer: QEPB0276
Trigger mode: 0
Integration Time (sec): 5.000000E0
Scans to average: 1
Electric dark correction enabled: true
Nonlinearity correction enabled: false
Boxcar width: 0
XAxis mode: Raman Shifts
Number of Pixels in Spectrum: 1044
>>>>>Begin Spectral Data<<<<<
160.701	3.75
166.742	24.75
172.777	66.75
178.805	211.75
184.826	633.75
190.841	1491.75
196.849	2796.75
202.85	3994.75
208.845	4647.75
214.833	4664.75
220.815	4511.75
226.789	4388.75
232.758	4323.75
238.719	4212.75
244.674	4092.75
250.623	3948.75
256.565	3833.75
262.5	3664.75
268.429	3522.75
274.351	3419.75
280.267	3293.75
286.176	3210.75
292.079	3105.75
297.975	3025.75
303.865	2952.75
309.748	2883.75
315.625	2811.75
321.495	2786.75
327.359	2741.75
333.217	2702.75
339.068	2700.75
344.912	2693.75
350.751	2658.75
356.583	2660.75
362.408	2631.75
368.227	2633.75
374.04	2660.75
379.847	2682.75
385.647	2667.75
391.44	2678.75
397.228	2684.75
403.009	2707.75
408.784	2726.75
414.553	2730.75
420.315	2754.75
426.071	2732.75
431.821	2737.75
437.565	2741.75
443.302	2745.75
449.033	2742.75
454.758	2737.75
460.477	2707.75
466.189	2719.75
471.896	2713.75
477.596	2707.75
483.29	2698.75
488.978	2700.75
494.66	2689.75
500.335	2665.75
506.005	2651.75
511.668	2597.75
517.325	2563.75
522.977	2526.75
528.622	2531.75
534.261	2502.75
539.894	2492.75
545.521	2455.75
551.141	2446.75
556.756	2436.75
562.365	2413.75
567.968	2415.75
573.565	2403.75
579.155	2391.75
584.74	2378.75
590.319	2382.75
595.892	2359.75
601.459	2346.75
607.02	2333.75
612.575	2334.75
618.124	2311.75
623.667	2295.75
629.204	2275.75
634.735	2246.75
640.261	2252.75
645.781	2222.75
651.294	2240.75
656.802	2199.75
662.304	2204.75
667.8	2201.75
673.29	2210.75
678.775	2193.75
684.254	2187.75
689.726	2194.75
695.193	2200.75
700.655	2160.75
706.11	2161.75
711.56	2156.75
717.004	2110.75
722.442	2109.75
727.874	2104.75
733.301	2105.75
738.722	2097.75
744.137	2073.75
749.547	2079.75
754.951	2088.75
760.349	2086.75
765.741	2077.75
771.128	2072.75
776.509	2079.75
781.885	2082.75
787.254	2029.75
792.618	2063.75
797.977	2053.75
803.33	2043.75
808.677	2024.75
814.019	2033.75
819.355	1999.75
824.686	1997.75
830.011	1990.75
835.33	1956.75
840.644	1968.75
845.952	1974.75
851.255	1952.75
856.552	1951.75
861.844	1932.75
867.13	1948.75
872.41	1941.75
877.686	1932.75
882.955	1928.75
888.219	1895.75
893.478	1885.75
898.731	1865.75
903.979	1823.75
909.221	1792.75
914.458	1801.75
919.69	1776.75
924.916	1780.75
930.136	1777.75
935.351	1792.75
940.561	1785.75
945.766	1773.75
950.965	1800.75
956.158	1784.75
961.347	1755.75
966.529	1733.75
971.707	1720.75
976.879	1695.75
982.046	1694.75
987.208	1669.75
992.364	1664.75
997.515	1678.75
1002.66	1663.75
1007.801	1682.75
1012.936	1696.75
1018.066	1716.75
1023.19	1721.75
1028.309	1739.75
1033.423	1721.75
1038.532	1733.75
1043.636	1708.75
1048.734	1688.75
1053.827	1702.75
1058.915	1682.75
1063.998	1658.75
1069.075	1646.75
1074.147	1628.75
1079.214	1649.75
1084.276	1655.75
1089.333	1655.75
1094.385	1677.75
1099.431	1687.75
1104.472	1689.75
1109.509	1685.75
1114.54	1687.75
1119.565	1655.75
1124.586	1634.75
1129.602	1621.75
1134.613	1603.75
1139.618	1626.75
1144.619	1601.75
1149.614	1602.75
1154.604	1632.75
1159.589	1618.75
1164.57	1616.75
1169.545	1631.75
1174.515	1634.75
1179.48	1620.75
1184.44	1628.75
1189.395	1605.75
1194.345	1603.75
1199.29	1585.75
1204.23	1583.75
1209.165	1601.75
1214.095	1606.75
1219.021	1608.75
1223.941	1617.75
1228.856	1634.75
1233.766	1632.75
1238.672	1633.75
1243.572	1624.75
1248.467	1631.75
1253.358	1610.75
1258.244	1608.75
1263.124	1573.75
1268	1574.75
1272.871	1556.75
1277.737	1528.75
1282.599	1508.75
1287.455	1522.75
1292.306	1515.75
1297.153	1532.75
1301.995	1546.75
1306.832	1563.75
1311.664	1555.75
1316.491	1552.75
1321.314	1538.75
1326.132	1555.75
1330.945	1525.75
1335.753	1505.75
1340.556	1484.75
1345.354	1442.75
1350.148	1442.75
1354.937	1427.75
1359.722	1435.75
1364.501	1435.75
1369.276	1423.75
1374.046	1418.75
1378.811	1411.75
1383.572	1407.75
1388.327	1392.75
1393.079	1397.75
1397.825	1373.75
1402.567	1379.75
1407.304	1348.75
1412.036	1343.75
1416.764	1335.75
1421.487	1342.75
1426.205	1343.75
1430.919	1360.75
1435.628	1356.75
1440.333	1378.75
1445.032	1370.75
1449.727	1382.75
1454.418	1402.75
1459.104	1397.75
1463.785	1386.75
1468.462	1369.75
1473.134	1343.75
1477.802	1340.75
1482.465	1338.75
1487.123	1322.75
1491.777	1321.75
1496.426	1313.75
1501.071	1329.75
1505.711	1342.75
1510.347	1356.75
1514.978	1350.75
1519.604	1367.75
1524.226	1371.75
1528.844	1380.75
1533.457	1371.75
1538.065	1374.75
1542.669	1371.75
1547.269	1361.75
1551.864	1370.75
1556.454	1352.75
1561.041	1371.75
1565.622	1372.75
1570.199	1394.75
1574.772	1400.75
1579.34	1411.75
1583.904	1434.75
1588.464	1432.75
1593.019	1465.75
1597.569	1472.75
1602.115	1483.75
1606.657	1493.75
1611.195	1492.75
1615.728	1488.75
1620.256	1494.75
1624.78	1512.75
1629.3	1527.75
1633.816	1539.75
1638.327	1535.75
1642.834	1571.75
1647.336	1573.75
1651.834	1592.75
1656.328	1587.75
1660.817	1585.75
1665.302	1568.75
1669.783	1556.75
1674.259	1524.75
1678.732	1472.75
1683.199	1454.75
1687.663	1401.75
1692.122	1358.75
1696.577	1324.75
1701.028	1284.75
1705.474	1253.75
1709.917	1210.75
1714.355	1184.75
1718.788	1165.75
1723.218	1167.75
1727.643	1143.75
1732.064	1126.75
1736.481	1111.75
1740.893	1087.75
1745.301	1066.75
1749.705	1040.75
1754.105	1009.75
1758.501	995.75
1762.893	976.75
1767.28	969.75
1771.663	945.75
1776.042	923.75
1780.417	936.75
1784.787	922.75
1789.154	931.75
1793.516	942.75
1797.874	923.75
1802.228	933.75
1806.578	922.75
1810.924	921.75
1815.266	905.75
1819.603	894.75
1823.937	885.75
1828.266	886.75
1832.591	877.75
1836.913	869.75
1841.23	864.75
1845.543	870.75
1849.852	856.75
1854.156	854.75
1858.457	866.75
1862.754	858.75
1867.047	860.75
1871.335	859.75
1875.62	873.75
1879.9	878.75
1884.177	877.75
1888.449	877.75
1892.718	853.75
1896.982	851.75
1901.243	852.75
1905.499	852.75
1909.752	849.75
1914	840.75
1918.245	844.75
1922.485	834.75
1926.722	830.75
1930.954	844.75
1935.183	835.75
1939.408	840.75
1943.628	850.75
1947.845	852.75
1952.058	845.75
1956.267	827.75
1960.472	826.75
1964.673	828.75
1968.87	819.75
1973.063	810.75
1977.252	800.75
1981.438	802.75
1985.619	794.75
1989.797	782.75
1993.971	786.75
1998.14	783.75
2002.306	803.75
2006.469	793.75
2010.627	805.75
2014.781	798.75
2018.932	798.75
2023.078	804.75
2027.221	806.75
2031.36	786.75
2035.495	790.75
2039.627	775.75
2043.754	769.75
2047.878	772.75
2051.998	758.75
2056.114	763.75
2060.226	763.75
2064.334	770.75
2068.439	764.75
2072.54	767.75
2076.637	784.75
2080.73	776.75
2084.82	767.75
2088.906	779.75
2092.988	773.75
2097.066	785.75
2101.14	778.75
2105.211	759.75
2109.278	769.75
2113.342	754.75
2117.401	749.75
2121.457	746.75
2125.509	758.75
2129.558	733.75
2133.602	743.75
2137.643	740.75
2141.681	738.75
2145.714	736.75
2149.744	724.75
2153.77	723.75
2157.793	728.75
2161.812	723.75
2165.827	707.75
2169.838	712.75
2173.846	690.75
2177.851	683.75
2181.851	677.75
2185.848	668.75
2189.841	666.75
2193.831	664.75
2197.817	649.75
2201.799	647.75
2205.778	642.75
2209.753	642.75
2213.725	654.75
2217.693	648.75
2221.657	643.75
2225.618	635.75
2229.575	648.75
2233.529	630.75
2237.479	630.75
2241.425	628.75
2245.368	629.75
2249.307	613.75
2253.243	601.75
2257.175	611.75
2261.104	589.75
2265.029	580.75
2268.95	581.75
2272.868	571.75
2276.783	564.75
2280.694	550.75
2284.601	544.75
2288.505	546.75
2292.405	536.75
2296.302	541.75
2300.195	536.75
2304.085	516.75
2307.971	513.75
2311.854	502.75
2315.734	507.75
2319.609	492.75
2323.482	496.75
2327.351	489.75
2331.216	481.75
2335.078	479.75
2338.937	484.75
2342.792	476.75
2346.643	458.75
2350.492	472.75
2354.336	470.75
2358.178	473.75
2362.015	468.75
2365.85	476.75
2369.681	471.75
2373.508	478.75
2377.333	480.75
2381.153	472.75
2384.971	461.75
2388.785	466.75
2392.595	458.75
2396.402	466.75
2400.206	459.75
2404.007	455.75
2407.804	453.75
2411.597	459.75
2415.388	448.75
2419.174	454.75
2422.958	447.75
2426.738	456.75
2430.515	440.75
2434.289	443.75
2438.059	442.75
2441.825	437.75
2445.589	432.75
2449.349	428.75
2453.106	424.75
2456.859	432.75
2460.61	421.75
2464.356	425.75
2468.1	412.75
2471.84	413.75
2475.577	408.75
2479.311	412.75
2483.041	409.75
2486.768	413.75
2490.492	414.75
2494.213	409.75
2497.93	401.75
2501.644	401.75
2505.355	395.75
2509.062	402.75
2512.766	400.75
2516.467	401.75
2520.165	399.75
2523.859	395.75
2527.551	389.75
2531.239	384.75
2534.923	381.75
2538.605	385.75
2542.283	385.75
2545.958	365.75
2549.63	375.75
2553.299	369.75
2556.964	375.75
2560.626	371.75
2564.285	370.75
2567.941	371.75
2571.594	362.75
2575.243	354.75
2578.89	358.75
2582.533	354.75
2586.173	351.75
2589.809	348.75
2593.443	351.75
2597.073	348.75
2600.701	329.75
2604.325	342.75
2607.946	336.75
2611.564	334.75
2615.178	338.75
2618.79	335.75
2622.398	330.75
2626.004	327.75
2629.606	327.75
2633.205	317.75
2636.801	316.75
2640.394	317.75
2643.983	315.75
2647.57	318.75
2651.153	313.75
2654.734	299.75
2658.311	307.75
2661.885	299.75
2665.456	306.75
2669.025	303.75
2672.589	302.75
2676.151	300.75
2679.71	297.75
2683.266	290.75
2686.819	282.75
2690.368	287.75
2693.915	280.75
2697.458	277.75
2700.999	273.75
2704.536	276.75
2708.071	262.75
2711.602	274.75
2715.13	268.75
2718.656	256.75
2722.178	271.75
2725.697	259.75
2729.214	253.75
2732.727	261.75
2736.237	265.75
2739.744	271.75
2743.249	267.75
2746.75	267.75
2750.248	259.75
2753.743	259.75
2757.236	258.75
2760.725	256.75
2764.211	260.75
2767.695	244.75
2771.175	253.75
2774.652	248.75
2778.127	245.75
2781.598	250.75
2785.067	250.75
2788.532	251.75
2791.995	240.75
2795.455	246.75
2798.911	248.75
2802.365	257.75
2805.816	249.75
2809.264	257.75
2812.709	256.75
2816.151	251.75
2819.59	244.75
2823.026	246.75
2826.46	254.75
2829.89	249.75
2833.318	253.75
2836.742	256.75
2840.164	257.75
2843.583	259.75
2846.999	255.75
2850.412	247.75
2853.822	264.75
2857.229	258.75
2860.634	264.75
2864.035	264.75
2867.434	269.75
2870.83	273.75
2874.223	270.75
2877.613	271.75
2881	284.75
2884.385	276.75
2887.766	272.75
2891.145	275.75
2894.521	277.75
2897.894	274.75
2901.264	275.75
2904.631	273.75
2907.996	283.75
2911.358	276.75
2914.717	269.75
2918.073	288.75
2921.426	285.75
2924.777	288.75
2928.124	302.75
2931.469	291.75
2934.811	299.75
2938.15	300.75
2941.487	308.75
2944.821	315.75
2948.152	322.75
2951.48	316.75
2954.805	320.75
2958.128	328.75
2961.447	330.75
2964.765	324.75
2968.079	334.75
2971.39	349.75
2974.699	356.75
2978.005	353.75
2981.308	362.75
2984.609	368.75
2987.907	380.75
2991.202	388.75
2994.494	389.75
2997.784	400.75
3001.07	416.75
3004.355	417.75
3007.636	438.75
3010.915	437.75
3014.191	438.75
3017.464	459.75
3020.734	449.75
3024.002	471.75
3027.267	475.75
3030.53	481.75
3033.789	484.75
3037.046	503.75
3040.301	509.75
3043.552	515.75
3046.801	527.75
3050.048	540.75
3053.291	546.75
3056.532	566.75
3059.771	592.75
3063.006	603.75
3066.239	618.75
3069.469	631.75
3072.697	652.75
3075.922	667.75
3079.144	684.75
3082.364	696.75
3085.581	711.75
3088.795	743.75
3092.007	741.75
3095.216	752.75
3098.423	780.75
3101.627	793.75
3104.828	810.75
3108.026	831.75
3111.222	847.75
3114.416	854.75
3117.607	883.75
3120.795	893.75
3123.98	912.75
3127.163	939.75
3130.344	943.75
3133.521	986.75
3136.696	1006.75
3139.869	1007.75
3143.039	1031.75
3146.206	1047.75
3149.371	1080.75
3152.533	1080.75
3155.693	1083.75
3158.85	1091.75
3162.005	1101.75
3165.157	1093.75
3168.306	1098.75
3171.453	1114.75
3174.597	1108.75
3177.739	1119.75
3180.878	1112.75
3184.014	1128.75
3187.149	1112.75
3190.28	1124.75
3193.409	1127.75
3196.536	1126.75
3199.659	1124.75
3202.781	1143.75
3205.9	1148.75
3209.016	1137.75
3212.13	1141.75
3215.241	1133.75
3218.35	1119.75
3221.456	1117.75
3224.56	1110.75
3227.661	1103.75
3230.76	1093.75
3233.856	1085.75
3236.95	1072.75
3240.041	1051.75
3243.13	1047.75
3246.216	1034.75
3249.3	1027.75
3252.382	1021.75
3255.46	1024.75
3258.537	1026.75
3261.611	1003.75
3264.682	1001.75
3267.751	999.75
3270.818	993.75
3273.882	993.75
3276.943	976.75
3280.002	969.75
3283.059	960.75
3286.113	960.75
3289.165	958.75
3292.214	938.75
3295.261	921.75
3298.306	921.75
3301.348	894.75
3304.387	877.75
3307.425	871.75
3310.459	850.75
3313.492	853.75
3316.521	832.75
3319.549	818.75
3322.574	816.75
3325.597	817.75
3328.617	806.75
3331.635	792.75
3334.65	793.75
3337.663	792.75
3340.674	785.75
3343.682	794.75
3346.688	775.75
3349.691	776.75
3352.692	770.75
3355.691	761.75
3358.687	770.75
3361.681	762.75
3364.673	741.75
3367.662	738.75
3370.649	723.75
3373.633	723.75
3376.615	705.75
3379.595	700.75
3382.572	687.75
3385.547	691.75
3388.52	669.75
3391.49	668.75
3394.458	650.75
3397.424	636.75
3400.387	645.75
3403.348	628.75
3406.307	625.75
3409.263	609.75
3412.217	615.75
3415.168	606.75
3418.118	606.75
3421.065	598.75
3424.009	592.75
3426.951	587.75
3429.891	564.75
3432.829	550.75
3435.764	552.75
3438.697	544.75
3441.628	526.75
3444.557	518.75
3447.483	493.75
3450.407	487.75
3453.328	480.75
3456.247	460.75
3459.164	450.75
3462.079	440.75
3464.991	431.75
3467.902	414.75
3470.809	398.75
3473.715	389.75
3476.618	375.75
3479.519	361.75
3482.418	352.75
3485.315	345.75
3488.209	341.75
3491.101	332.75
3493.99	312.75
3496.878	306.75
3499.763	301.75
3502.646	298.75
3505.527	295.75
3508.405	277.75
3511.281	267.75
3514.155	246.75
3517.027	240.75
3519.897	233.75
3522.764	227.75
3525.629	213.75
3528.492	197.75
3531.352	194.75
3534.211	181.75
3537.067	171.75
3539.921	163.75
3542.773	154.75
3545.622	154.75
3548.469	137.75
3551.315	132.75
3554.157	124.75
3556.998	118.75
3559.837	115.75
3562.673	111.75
3565.507	105.75
3568.339	105.75
3571.169	92.75
3573.996	85.75
3576.822	81.75
3579.645	75.75
3582.466	69.75
3585.285	68.75
3588.101	63.75
3590.916	56.75
3593.728	52.75
3596.538	50.75
3599.346	42.75
3602.152	39.75
3604.956	40.75
3607.757	33.75
3610.556	29.75
3613.354	24.75
3616.149	19.75
3618.942	15.75
3621.732	14.75
3624.521	12.75
3627.307	7.75
3630.092	2.75
3632.874	3.75
3635.654	-0.25
3638.432	1.75
3641.208	-7.25
3643.982	-3.25
3646.753	-6.25
3649.523	-6.25
3652.29	-10.25
3655.055	-16.25
3657.818	-18.25
3660.579	-18.25
3663.338	-22.25
3666.095	-19.25
3668.849	-26.25
3671.602	-27.25
3674.352	-37.25
3677.101	-37.25
3679.847	-34.25
3682.591	-34.25
3685.333	-35.25
3688.073	-36.25
3690.811	-38.25
3693.547	-39.25
3696.281	-43.25
3699.013	-45.25
3701.742	-44.25
3704.47	-47.25
3707.195	-42.25
3709.919	-47.25
3712.64	-51.25
3715.359	-50.25
3718.076	-52.25
3720.792	-54.25
3723.505	-54.25
3726.216	-55.25
3728.925	-55.25
3731.632	-56.25
3734.336	-50.25
3737.039	-55.25
3739.74	-53.25
3742.439	-54.25
3745.136	-57.25
3747.83	-59.25
3750.523	-63.25
3753.213	-59.25
3755.902	-61.25
3758.589	-59.25
3761.273	-57.25
3763.956	-58.25
3766.636	-59.25
3769.315	-60.25
3771.991	-66.25
3774.665	-65.25
3777.338	-64.25
3780.008	-62.25
3782.677	-60.25
3785.343	-63.25
3788.007	-61.25
3790.67	-64.25
3793.33	-68.25
3795.989	-67.25
3798.645	-67.25
3801.299	-62.25
3803.952	-63.25
3806.602	-65.25
3809.251	-62.25
3811.897	-69.25
3814.542	-69.25
3817.184	-67.25
3819.825	-67.25
3822.463	-67.25
3825.1	-70.25
3827.735	-65.25
3830.367	-70.25
3832.998	-68.25
3835.627	-69.25
3838.253	-68.25
3840.878	-68.25
3843.501	-71.25
3846.122	-70.25
3848.741	-73.25
3851.358	-71.25
3853.973	-68.25
3856.586	-66.25
3859.197	-69.25
3861.806	-73.25
3864.414	-77.25
3867.019	-73.25
3869.622	-68.25
3872.224	-70.25
3874.823	-69.25
3877.421	-70.25
3880.016	-72.25
3882.61	-71.25
3885.202	-66.25
3887.792	-68.25
3890.38	-68.25
3892.966	-68.25
3895.55	-72.25
3898.132	-70.25
3900.713	-71.25
3903.291	-74.25
3905.868	-72.25
3908.442	-75.25
3911.015	-78.25
3913.586	-72.25
3916.155	-73.25
3918.722	-72.25
3921.287	-70.25
3923.85	-75.25
3926.411	-71.25
3928.971	-75.25
3931.528	-76.25
3934.084	-75.25
3936.638	-75.25
3939.19	-73.25
3941.74	-75.25
3944.288	-73.25
3946.834	-76.25
3949.378	-73.25
3951.921	-72.25
3954.462	-77.25
3957	-76.25
3959.537	-74.25
3962.072	-73.25
3964.606	-71.25
3967.137	-70.25
3969.667	-75.25
3972.194	-74.25
3974.72	-76.25
3977.244	-74.25
3979.766	-75.25
3982.286	-70.25
3984.805	-73.25
3987.321	-73.25
3989.836	-74.25
3992.349	-75.25
3994.86	-70.25
3997.369	-72.25
3999.877	-74.25
4002.382	-76.25
4004.886	-73.25
4007.388	-75.25
4009.888	-68.25
4012.386	-69.25
4014.883	-72.25
4017.377	-76.25
4019.87	-76.25
4022.361	-76.25
4024.85	-71.25
4027.338	-71.25
4029.823	-69.25
4032.307	-66.25
4034.789	-70.25
4037.269	-75.25
4039.747	-75.25
4042.224	-78.25
4044.699	-75.25
4047.172	-74.25
4049.643	-69.25
4052.112	-73.25
4054.58	-74.25
4057.046	-75.25
4059.51	-74.25
4061.972	-72.25
4064.432	-71.25
4066.891	-73.25
4069.348	-75.25
4071.803	-74.25
4074.256	-74.25
4076.708	-78.25
4079.158	-73.25
4081.606	-69.25
4084.052	-77.25
4086.497	-75.25
4088.939	-75.25
4091.38	-74.25
4093.819	-72.25
4096.257	-78.25
4098.693	-75.25
4101.127	-77.25
4103.559	-77.25
4105.989	-23.25
4108.418	-21.25
4110.845	-20.25
4113.27	-13.25
4115.694	-9.25
4118.115	-7.25
4120.535	-73.25
4122.954	-71.25
4125.37	-73.25
4127.785	-75.25
4130.198	-74.25
4132.609	-76.25
4135.019	-80.25
4137.427	-73.25
4139.833	-76.25
4142.237	-77.25
