Data from DDW2_A_ramanshift_RamanShift_13-53-55-607.txt Node
Date: Sun Dec 25 13:53:55 IST 2016
User: aro
Spectrometer: QEPB0276
Trigger mode: 0
Integration Time (sec): 5.000000E0
Scans to average: 1
Electric dark correction enabled: true
Nonlinearity correction enabled: false
Boxcar width: 0
XAxis mode: Raman Shifts
Number of Pixels in Spectrum: 1044
>>>>>Begin Spectral Data<<<<<
160.701	-0.62
166.742	19.38
172.777	71.38
178.805	207.38
184.826	607.38
190.841	1462.38
196.849	2745.38
202.85	3901.38
208.845	4471.38
214.833	4471.38
220.815	4302.38
226.789	4137.38
232.758	4051.38
238.719	3913.38
244.674	3789.38
250.623	3624.38
256.565	3486.38
262.5	3315.38
268.429	3130.38
274.351	3002.38
280.267	2887.38
286.176	2769.38
292.079	2695.38
297.975	2564.38
303.865	2489.38
309.748	2423.38
315.625	2350.38
321.495	2298.38
327.359	2259.38
333.217	2193.38
339.068	2210.38
344.912	2180.38
350.751	2160.38
356.583	2157.38
362.408	2144.38
368.227	2147.38
374.04	2161.38
379.847	2148.38
385.647	2168.38
391.44	2178.38
397.228	2197.38
403.009	2203.38
408.784	2230.38
414.553	2222.38
420.315	2241.38
426.071	2235.38
431.821	2256.38
437.565	2219.38
443.302	2215.38
449.033	2220.38
454.758	2228.38
460.477	2211.38
466.189	2198.38
471.896	2203.38
477.596	2193.38
483.29	2179.38
488.978	2158.38
494.66	2166.38
500.335	2134.38
506.005	2111.38
511.668	2073.38
517.325	2055.38
522.977	2024.38
528.622	1985.38
534.261	1955.38
539.894	1936.38
545.521	1917.38
551.141	1918.38
556.756	1910.38
562.365	1892.38
567.968	1890.38
573.565	1887.38
579.155	1861.38
584.74	1848.38
590.319	1836.38
595.892	1831.38
601.459	1817.38
607.02	1805.38
612.575	1790.38
618.124	1785.38
623.667	1765.38
629.204	1751.38
634.735	1720.38
640.261	1735.38
645.781	1700.38
651.294	1704.38
656.802	1700.38
662.304	1680.38
667.8	1677.38
673.29	1680.38
678.775	1673.38
684.254	1667.38
689.726	1661.38
695.193	1639.38
700.655	1630.38
706.11	1634.38
711.56	1613.38
717.004	1593.38
722.442	1607.38
727.874	1594.38
733.301	1582.38
738.722	1570.38
744.137	1561.38
749.547	1545.38
754.951	1562.38
760.349	1559.38
765.741	1558.38
771.128	1552.38
776.509	1553.38
781.885	1556.38
787.254	1560.38
792.618	1557.38
797.977	1543.38
803.33	1522.38
808.677	1525.38
814.019	1499.38
819.355	1485.38
824.686	1472.38
830.011	1449.38
835.33	1463.38
840.644	1456.38
845.952	1440.38
851.255	1435.38
856.552	1454.38
861.844	1436.38
867.13	1444.38
872.41	1445.38
877.686	1457.38
882.955	1457.38
888.219	1483.38
893.478	1437.38
898.731	1384.38
903.979	1344.38
909.221	1303.38
914.458	1289.38
919.69	1285.38
924.916	1280.38
930.136	1285.38
935.351	1264.38
940.561	1270.38
945.766	1267.38
950.965	1250.38
956.158	1260.38
961.347	1234.38
966.529	1223.38
971.707	1207.38
976.879	1199.38
982.046	1176.38
987.208	1171.38
992.364	1165.38
997.515	1170.38
1002.66	1165.38
1007.801	1179.38
1012.936	1197.38
1018.066	1204.38
1023.19	1222.38
1028.309	1227.38
1033.423	1228.38
1038.532	1234.38
1043.636	1197.38
1048.734	1214.38
1053.827	1211.38
1058.915	1205.38
1063.998	1194.38
1069.075	1170.38
1074.147	1190.38
1079.214	1181.38
1084.276	1193.38
1089.333	1210.38
1094.385	1213.38
1099.431	1225.38
1104.472	1221.38
1109.509	1207.38
1114.54	1192.38
1119.565	1192.38
1124.586	1172.38
1129.602	1170.38
1134.613	1144.38
1139.618	1122.38
1144.619	1130.38
1149.614	1149.38
1154.604	1149.38
1159.589	1147.38
1164.57	1155.38
1169.545	1159.38
1174.515	1160.38
1179.48	1154.38
1184.44	1145.38
1189.395	1143.38
1194.345	1133.38
1199.29	1129.38
1204.23	1136.38
1209.165	1136.38
1214.095	1141.38
1219.021	1155.38
1223.941	1154.38
1228.856	1162.38
1233.766	1159.38
1238.672	1183.38
1243.572	1177.38
1248.467	1174.38
1253.358	1167.38
1258.244	1148.38
1263.124	1135.38
1268	1125.38
1272.871	1111.38
1277.737	1095.38
1282.599	1098.38
1287.455	1104.38
1292.306	1099.38
1297.153	1106.38
1301.995	1105.38
1306.832	1110.38
1311.664	1128.38
1316.491	1130.38
1321.314	1112.38
1326.132	1110.38
1330.945	1101.38
1335.753	1104.38
1340.556	1074.38
1345.354	1068.38
1350.148	1040.38
1354.937	1039.38
1359.722	1038.38
1364.501	1029.38
1369.276	1033.38
1374.046	1022.38
1378.811	1008.38
1383.572	1037.38
1388.327	1043.38
1393.079	1031.38
1397.825	1013.38
1402.567	1014.38
1407.304	987.38
1412.036	996.38
1416.764	1003.38
1421.487	981.38
1426.205	986.38
1430.919	1005.38
1435.628	999.38
1440.333	1010.38
1445.032	1029.38
1449.727	1056.38
1454.418	1049.38
1459.104	1073.38
1463.785	1061.38
1468.462	1053.38
1473.134	1039.38
1477.802	1019.38
1482.465	999.38
1487.123	986.38
1491.777	1001.38
1496.426	1008.38
1501.071	1002.38
1505.711	998.38
1510.347	1017.38
1514.978	1022.38
1519.604	1016.38
1524.226	1043.38
1528.844	1040.38
1533.457	1055.38
1538.065	1046.38
1542.669	1029.38
1547.269	1044.38
1551.864	1046.38
1556.454	1041.38
1561.041	1053.38
1565.622	1061.38
1570.199	1066.38
1574.772	1088.38
1579.34	1105.38
1583.904	1129.38
1588.464	1135.38
1593.019	1151.38
1597.569	1177.38
1602.115	1182.38
1606.657	1170.38
1611.195	1200.38
1615.728	1213.38
1620.256	1224.38
1624.78	1235.38
1629.3	1253.38
1633.816	1282.38
1638.327	1287.38
1642.834	1321.38
1647.336	1318.38
1651.834	1316.38
1656.328	1329.38
1660.817	1326.38
1665.302	1298.38
1669.783	1296.38
1674.259	1262.38
1678.732	1206.38
1683.199	1179.38
1687.663	1142.38
1692.122	1114.38
1696.577	1059.38
1701.028	1029.38
1705.474	984.38
1709.917	947.38
1714.355	927.38
1718.788	913.38
1723.218	895.38
1727.643	892.38
1732.064	873.38
1736.481	841.38
1740.893	820.38
1745.301	805.38
1749.705	791.38
1754.105	777.38
1758.501	742.38
1762.893	738.38
1767.28	715.38
1771.663	720.38
1776.042	705.38
1780.417	700.38
1784.787	704.38
1789.154	693.38
1793.516	697.38
1797.874	712.38
1802.228	701.38
1806.578	695.38
1810.924	687.38
1815.266	687.38
1819.603	681.38
1823.937	673.38
1828.266	672.38
1832.591	658.38
1836.913	656.38
1841.23	640.38
1845.543	644.38
1849.852	640.38
1854.156	654.38
1858.457	643.38
1862.754	651.38
1867.047	658.38
1871.335	647.38
1875.62	647.38
1879.9	661.38
1884.177	654.38
1888.449	665.38
1892.718	649.38
1896.982	640.38
1901.243	638.38
1905.499	641.38
1909.752	648.38
1914	630.38
1918.245	631.38
1922.485	642.38
1926.722	627.38
1930.954	649.38
1935.183	638.38
1939.408	651.38
1943.628	636.38
1947.845	637.38
1952.058	628.38
1956.267	653.38
1960.472	636.38
1964.673	639.38
1968.87	635.38
1973.063	621.38
1977.252	621.38
1981.438	620.38
1985.619	611.38
1989.797	606.38
1993.971	601.38
1998.14	631.38
2002.306	626.38
2006.469	634.38
2010.627	631.38
2014.781	626.38
2018.932	618.38
2023.078	630.38
2027.221	632.38
2031.36	629.38
2035.495	616.38
2039.627	613.38
2043.754	610.38
2047.878	623.38
2051.998	609.38
2056.114	610.38
2060.226	605.38
2064.334	618.38
2068.439	609.38
2072.54	618.38
2076.637	622.38
2080.73	616.38
2084.82	615.38
2088.906	627.38
2092.988	623.38
2097.066	620.38
2101.14	614.38
2105.211	613.38
2109.278	620.38
2113.342	607.38
2117.401	603.38
2121.457	606.38
2125.509	603.38
2129.558	599.38
2133.602	583.38
2137.643	588.38
2141.681	598.38
2145.714	600.38
2149.744	593.38
2153.77	590.38
2157.793	588.38
2161.812	579.38
2165.827	574.38
2169.838	570.38
2173.846	561.38
2177.851	553.38
2181.851	550.38
2185.848	541.38
2189.841	538.38
2193.831	520.38
2197.817	524.38
2201.799	522.38
2205.778	523.38
2209.753	518.38
2213.725	517.38
2217.693	515.38
2221.657	518.38
2225.618	509.38
2229.575	512.38
2233.529	517.38
2237.479	513.38
2241.425	518.38
2245.368	499.38
2249.307	494.38
2253.243	478.38
2257.175	495.38
2261.104	468.38
2265.029	465.38
2268.95	460.38
2272.868	458.38
2276.783	458.38
2280.694	460.38
2284.601	449.38
2288.505	432.38
2292.405	437.38
2296.302	430.38
2300.195	418.38
2304.085	414.38
2307.971	408.38
2311.854	404.38
2315.734	405.38
2319.609	396.38
2323.482	387.38
2327.351	385.38
2331.216	395.38
2335.078	377.38
2338.937	371.38
2342.792	374.38
2346.643	370.38
2350.492	370.38
2354.336	371.38
2358.178	370.38
2362.015	374.38
2365.85	373.38
2369.681	367.38
2373.508	373.38
2377.333	368.38
2381.153	380.38
2384.971	374.38
2388.785	363.38
2392.595	364.38
2396.402	368.38
2400.206	348.38
2404.007	359.38
2407.804	354.38
2411.597	352.38
2415.388	358.38
2419.174	360.38
2422.958	354.38
2426.738	354.38
2430.515	348.38
2434.289	343.38
2438.059	350.38
2441.825	353.38
2445.589	338.38
2449.349	340.38
2453.106	343.38
2456.859	337.38
2460.61	331.38
2464.356	338.38
2468.1	332.38
2471.84	324.38
2475.577	325.38
2479.311	329.38
2483.041	319.38
2486.768	331.38
2490.492	322.38
2494.213	327.38
2497.93	325.38
2501.644	326.38
2505.355	319.38
2509.062	315.38
2512.766	319.38
2516.467	317.38
2520.165	320.38
2523.859	313.38
2527.551	312.38
2531.239	306.38
2534.923	306.38
2538.605	303.38
2542.283	302.38
2545.958	289.38
2549.63	294.38
2553.299	297.38
2556.964	302.38
2560.626	291.38
2564.285	292.38
2567.941	288.38
2571.594	281.38
2575.243	283.38
2578.89	276.38
2582.533	285.38
2586.173	284.38
2589.809	282.38
2593.443	270.38
2597.073	276.38
2600.701	271.38
2604.325	268.38
2607.946	268.38
2611.564	270.38
2615.178	271.38
2618.79	270.38
2622.398	273.38
2626.004	269.38
2629.606	268.38
2633.205	263.38
2636.801	255.38
2640.394	258.38
2643.983	261.38
2647.57	257.38
2651.153	250.38
2654.734	248.38
2658.311	244.38
2661.885	240.38
2665.456	243.38
2669.025	235.38
2672.589	240.38
2676.151	240.38
2679.71	236.38
2683.266	236.38
2686.819	230.38
2690.368	231.38
2693.915	226.38
2697.458	228.38
2700.999	221.38
2704.536	227.38
2708.071	216.38
2711.602	223.38
2715.13	225.38
2718.656	220.38
2722.178	221.38
2725.697	215.38
2729.214	219.38
2732.727	224.38
2736.237	218.38
2739.744	232.38
2743.249	224.38
2746.75	222.38
2750.248	212.38
2753.743	223.38
2757.236	221.38
2760.725	220.38
2764.211	222.38
2767.695	215.38
2771.175	214.38
2774.652	216.38
2778.127	213.38
2781.598	210.38
2785.067	212.38
2788.532	210.38
2791.995	204.38
2795.455	211.38
2798.911	212.38
2802.365	216.38
2805.816	219.38
2809.264	221.38
2812.709	221.38
2816.151	220.38
2819.59	219.38
2823.026	215.38
2826.46	223.38
2829.89	221.38
2833.318	229.38
2836.742	231.38
2840.164	224.38
2843.583	219.38
2846.999	229.38
2850.412	229.38
2853.822	245.38
2857.229	243.38
2860.634	240.38
2864.035	245.38
2867.434	242.38
2870.83	256.38
2874.223	257.38
2877.613	262.38
2881	276.38
2884.385	280.38
2887.766	275.38
2891.145	274.38
2894.521	271.38
2897.894	276.38
2901.264	270.38
2904.631	274.38
2907.996	282.38
2911.358	281.38
2914.717	283.38
2918.073	290.38
2921.426	299.38
2924.777	296.38
2928.124	304.38
2931.469	308.38
2934.811	315.38
2938.15	326.38
2941.487	329.38
2944.821	325.38
2948.152	332.38
2951.48	332.38
2954.805	329.38
2958.128	331.38
2961.447	331.38
2964.765	334.38
2968.079	345.38
2971.39	350.38
2974.699	354.38
2978.005	365.38
2981.308	373.38
2984.609	380.38
2987.907	388.38
2991.202	399.38
2994.494	398.38
2997.784	409.38
3001.07	429.38
3004.355	428.38
3007.636	446.38
3010.915	453.38
3014.191	454.38
3017.464	460.38
3020.734	470.38
3024.002	482.38
3027.267	479.38
3030.53	491.38
3033.789	493.38
3037.046	510.38
3040.301	523.38
3043.552	539.38
3046.801	544.38
3050.048	553.38
3053.291	562.38
3056.532	577.38
3059.771	606.38
3063.006	619.38
3066.239	636.38
3069.469	651.38
3072.697	679.38
3075.922	700.38
3079.144	702.38
3082.364	727.38
3085.581	741.38
3088.795	764.38
3092.007	777.38
3095.216	798.38
3098.423	812.38
3101.627	828.38
3104.828	846.38
3108.026	862.38
3111.222	874.38
3114.416	896.38
3117.607	923.38
3120.795	931.38
3123.98	950.38
3127.163	986.38
3130.344	989.38
3133.521	1026.38
3136.696	1052.38
3139.869	1060.38
3143.039	1081.38
3146.206	1102.38
3149.371	1109.38
3152.533	1119.38
3155.693	1130.38
3158.85	1136.38
3162.005	1154.38
3165.157	1159.38
3168.306	1179.38
3171.453	1181.38
3174.597	1167.38
3177.739	1175.38
3180.878	1177.38
3184.014	1179.38
3187.149	1169.38
3190.28	1177.38
3193.409	1191.38
3196.536	1187.38
3199.659	1193.38
3202.781	1190.38
3205.9	1209.38
3209.016	1196.38
3212.13	1201.38
3215.241	1194.38
3218.35	1191.38
3221.456	1180.38
3224.56	1154.38
3227.661	1156.38
3230.76	1154.38
3233.856	1145.38
3236.95	1108.38
3240.041	1117.38
3243.13	1092.38
3246.216	1099.38
3249.3	1085.38
3252.382	1083.38
3255.46	1063.38
3258.537	1069.38
3261.611	1045.38
3264.682	1057.38
3267.751	1047.38
3270.818	1053.38
3273.882	1063.38
3276.943	1035.38
3280.002	1034.38
3283.059	1019.38
3286.113	1017.38
3289.165	995.38
3292.214	980.38
3295.261	974.38
3298.306	961.38
3301.348	933.38
3304.387	938.38
3307.425	913.38
3310.459	915.38
3313.492	899.38
3316.521	887.38
3319.549	876.38
3322.574	867.38
3325.597	852.38
3328.617	872.38
3331.635	852.38
3334.65	847.38
3337.663	858.38
3340.674	832.38
3343.682	842.38
3346.688	820.38
3349.691	818.38
3352.692	817.38
3355.691	810.38
3358.687	821.38
3361.681	807.38
3364.673	795.38
3367.662	784.38
3370.649	770.38
3373.633	755.38
3376.615	755.38
3379.595	740.38
3382.572	732.38
3385.547	721.38
3388.52	712.38
3391.49	710.38
3394.458	695.38
3397.424	681.38
3400.387	674.38
3403.348	669.38
3406.307	653.38
3409.263	662.38
3412.217	646.38
3415.168	643.38
3418.118	648.38
3421.065	638.38
3424.009	626.38
3426.951	620.38
3429.891	601.38
3432.829	589.38
3435.764	580.38
3438.697	576.38
3441.628	552.38
3444.557	547.38
3447.483	538.38
3450.407	512.38
3453.328	503.38
3456.247	491.38
3459.164	480.38
3462.079	463.38
3464.991	451.38
3467.902	437.38
3470.809	417.38
3473.715	418.38
3476.618	399.38
3479.519	390.38
3482.418	379.38
3485.315	375.38
3488.209	361.38
3491.101	360.38
3493.99	342.38
3496.878	325.38
3499.763	321.38
3502.646	314.38
3505.527	308.38
3508.405	297.38
3511.281	284.38
3514.155	262.38
3517.027	260.38
3519.897	248.38
3522.764	242.38
3525.629	236.38
3528.492	218.38
3531.352	205.38
3534.211	195.38
3537.067	175.38
3539.921	180.38
3542.773	168.38
3545.622	154.38
3548.469	145.38
3551.315	140.38
3554.157	134.38
3556.998	127.38
3559.837	121.38
3562.673	118.38
3565.507	115.38
3568.339	107.38
3571.169	104.38
3573.996	95.38
3576.822	90.38
3579.645	87.38
3582.466	82.38
3585.285	84.38
3588.101	70.38
3590.916	66.38
3593.728	58.38
3596.538	52.38
3599.346	50.38
3602.152	49.38
3604.956	45.38
3607.757	37.38
3610.556	33.38
3613.354	30.38
3616.149	27.38
3618.942	22.38
3621.732	22.38
3624.521	13.38
3627.307	15.38
3630.092	10.38
3632.874	13.38
3635.654	8.38
3638.432	9.38
3641.208	2.38
3643.982	3.38
3646.753	-3.62
3649.523	-2.62
3652.29	-5.62
3655.055	-13.62
3657.818	-12.62
3660.579	-9.62
3663.338	-16.62
3666.095	-13.62
3668.849	-22.62
3671.602	-21.62
3674.352	-28.62
3677.101	-25.62
3679.847	-25.62
3682.591	-25.62
3685.333	-31.62
3688.073	-33.62
3690.811	-32.62
3693.547	-36.62
3696.281	-39.62
3699.013	-43.62
3701.742	-38.62
3704.47	-43.62
3707.195	-37.62
3709.919	-42.62
3712.64	-47.62
3715.359	-45.62
3718.076	-43.62
3720.792	-48.62
3723.505	-49.62
3726.216	-51.62
3728.925	-50.62
3731.632	-54.62
3734.336	-48.62
3737.039	-51.62
3739.74	-52.62
3742.439	-51.62
3745.136	-54.62
3747.83	-54.62
3750.523	-57.62
3753.213	-59.62
3755.902	-55.62
3758.589	-55.62
3761.273	-55.62
3763.956	-56.62
3766.636	-53.62
3769.315	-58.62
3771.991	-59.62
3774.665	-62.62
3777.338	-60.62
3780.008	-60.62
3782.677	-57.62
3785.343	-59.62
3788.007	-59.62
3790.67	-62.62
3793.33	-63.62
3795.989	-65.62
3798.645	-64.62
3801.299	-60.62
3803.952	-61.62
3806.602	-61.62
3809.251	-61.62
3811.897	-64.62
3814.542	-66.62
3817.184	-63.62
3819.825	-66.62
3822.463	-61.62
3825.1	-65.62
3827.735	-62.62
3830.367	-67.62
3832.998	-64.62
3835.627	-66.62
3838.253	-65.62
3840.878	-67.62
3843.501	-67.62
3846.122	-65.62
3848.741	-70.62
3851.358	-68.62
3853.973	-64.62
3856.586	-63.62
3859.197	-67.62
3861.806	-67.62
3864.414	-72.62
3867.019	-71.62
3869.622	-66.62
3872.224	-65.62
3874.823	-64.62
3877.421	-63.62
3880.016	-67.62
3882.61	-67.62
3885.202	-63.62
3887.792	-63.62
3890.38	-64.62
3892.966	-63.62
3895.55	-68.62
3898.132	-66.62
3900.713	-71.62
3903.291	-70.62
3905.868	-67.62
3908.442	-70.62
3911.015	-73.62
3913.586	-68.62
3916.155	-66.62
3918.722	-65.62
3921.287	-68.62
3923.85	-68.62
3926.411	-69.62
3928.971	-70.62
3931.528	-74.62
3934.084	-73.62
3936.638	-75.62
3939.19	-66.62
3941.74	-69.62
3944.288	-70.62
3946.834	-70.62
3949.378	-71.62
3951.921	-72.62
3954.462	-73.62
3957	-70.62
3959.537	-69.62
3962.072	-68.62
3964.606	-72.62
3967.137	-71.62
3969.667	-71.62
3972.194	-74.62
3974.72	-74.62
3977.244	-70.62
3979.766	-71.62
3982.286	-67.62
3984.805	-70.62
3987.321	-69.62
3989.836	-73.62
3992.349	-71.62
3994.86	-67.62
3997.369	-66.62
3999.877	-68.62
4002.382	-68.62
4004.886	-70.62
4007.388	-70.62
4009.888	-68.62
4012.386	-66.62
4014.883	-67.62
4017.377	-75.62
4019.87	-72.62
4022.361	-70.62
4024.85	-71.62
4027.338	-68.62
4029.823	-67.62
4032.307	-66.62
4034.789	-67.62
4037.269	-72.62
4039.747	-72.62
4042.224	-75.62
4044.699	-67.62
4047.172	-68.62
4049.643	-67.62
4052.112	-68.62
4054.58	-72.62
4057.046	-70.62
4059.51	-73.62
4061.972	-70.62
4064.432	-68.62
4066.891	-69.62
4069.348	-69.62
4071.803	-68.62
4074.256	-73.62
4076.708	-74.62
4079.158	-73.62
4081.606	-68.62
4084.052	-72.62
4086.497	-70.62
4088.939	-70.62
4091.38	-71.62
4093.819	-70.62
4096.257	-74.62
4098.693	-74.62
4101.127	-76.62
4103.559	-74.62
4105.989	-21.62
4108.418	-20.62
4110.845	-19.62
4113.27	-15.62
4115.694	-15.62
4118.115	-11.62
4120.535	-71.62
4122.954	-70.62
4125.37	-68.62
4127.785	-73.62
4130.198	-70.62
4132.609	-72.62
4135.019	-76.62
4137.427	-72.62
4139.833	-72.62
4142.237	-75.62
