Data from 2018-3-7_conc=3_n=5_RamanShift_03.txt Node
Date: Wed Mar 07 11:28:52 IST 2018
User: aro
Spectrometer: QEPB0276
Trigger mode: 0
Integration Time (sec): 3.000000E1
Scans to average: 1
Electric dark correction enabled: true
Nonlinearity correction enabled: false
Boxcar width: 0
XAxis mode: Raman Shifts
Number of Pixels in Spectrum: 1044
>>>>>Begin Spectral Data<<<<<
160.701	17.1
166.742	24.1
172.777	46.1
178.805	134.1
184.826	341.1
190.841	707.1
196.849	1196.1
202.85	1540.1
208.845	1692.1
214.833	1696.1
220.815	1671.1
226.789	1686.1
232.758	1684.1
238.719	1662.1
244.674	1660.1
250.623	1667.1
256.565	1655.1
262.5	1641.1
268.429	1626.1
274.351	1616.1
280.267	1608.1
286.176	1590.1
292.079	1589.1
297.975	1581.1
303.865	1601.1
309.748	1612.1
315.625	1602.1
321.495	1605.1
327.359	1607.1
333.217	1606.1
339.068	1618.1
344.912	1623.1
350.751	1611.1
356.583	1624.1
362.408	1625.1
368.227	1632.1
374.04	1635.1
379.847	1653.1
385.647	1641.1
391.44	1648.1
397.228	1684.1
403.009	1674.1
408.784	1691.1
414.553	1692.1
420.315	1706.1
426.071	1693.1
431.821	1712.1
437.565	1673.1
443.302	1683.1
449.033	1709.1
454.758	1688.1
460.477	1689.1
466.189	1658.1
471.896	1634.1
477.596	1638.1
483.29	1627.1
488.978	1602.1
494.66	1615.1
500.335	1575.1
506.005	1512.1
511.668	1447.1
517.325	1404.1
522.977	1345.1
528.622	1324.1
534.261	1295.1
539.894	1281.1
545.521	1245.1
551.141	1247.1
556.756	1215.1
562.365	1232.1
567.968	1196.1
573.565	1205.1
579.155	1198.1
584.74	1203.1
590.319	1178.1
595.892	1193.1
601.459	1180.1
607.02	1180.1
612.575	1177.1
618.124	1162.1
623.667	1131.1
629.204	1119.1
634.735	1115.1
640.261	1108.1
645.781	1116.1
651.294	1106.1
656.802	1097.1
662.304	1089.1
667.8	1083.1
673.29	1086.1
678.775	1073.1
684.254	1065.1
689.726	1077.1
695.193	1068.1
700.655	1064.1
706.11	1054.1
711.56	1062.1
717.004	1040.1
722.442	1034.1
727.874	1042.1
733.301	1030.1
738.722	1019.1
744.137	1040.1
749.547	1016.1
754.951	1001.1
760.349	1016.1
765.741	1017.1
771.128	1003.1
776.509	1023.1
781.885	1042.1
787.254	1060.1
792.618	1055.1
797.977	1040.1
803.33	1042.1
808.677	1037.1
814.019	1033.1
819.355	1006.1
824.686	1002.1
830.011	998.1
835.33	989.1
840.644	1000.1
845.952	1000.1
851.255	988.1
856.552	969.1
861.844	972.1
867.13	969.1
872.41	965.1
877.686	965.1
882.955	955.1
888.219	934.1
893.478	922.1
898.731	903.1
903.979	900.1
909.221	895.1
914.458	893.1
919.69	896.1
924.916	891.1
930.136	896.1
935.351	898.1
940.561	888.1
945.766	895.1
950.965	868.1
956.158	870.1
961.347	872.1
966.529	876.1
971.707	839.1
976.879	830.1
982.046	834.1
987.208	835.1
992.364	820.1
997.515	813.1
1002.66	837.1
1007.801	844.1
1012.936	836.1
1018.066	859.1
1023.19	845.1
1028.309	847.1
1033.423	847.1
1038.532	847.1
1043.636	837.1
1048.734	843.1
1053.827	828.1
1058.915	817.1
1063.998	811.1
1069.075	796.1
1074.147	800.1
1079.214	796.1
1084.276	814.1
1089.333	807.1
1094.385	811.1
1099.431	811.1
1104.472	813.1
1109.509	797.1
1114.54	809.1
1119.565	773.1
1124.586	783.1
1129.602	761.1
1134.613	747.1
1139.618	753.1
1144.619	751.1
1149.614	760.1
1154.604	740.1
1159.589	768.1
1164.57	762.1
1169.545	759.1
1174.515	759.1
1179.48	768.1
1184.44	751.1
1189.395	748.1
1194.345	738.1
1199.29	716.1
1204.23	743.1
1209.165	730.1
1214.095	731.1
1219.021	736.1
1223.941	745.1
1228.856	747.1
1233.766	743.1
1238.672	746.1
1243.572	751.1
1248.467	742.1
1253.358	723.1
1258.244	712.1
1263.124	710.1
1268	700.1
1272.871	686.1
1277.737	693.1
1282.599	672.1
1287.455	677.1
1292.306	682.1
1297.153	669.1
1301.995	677.1
1306.832	693.1
1311.664	693.1
1316.491	686.1
1321.314	682.1
1326.132	694.1
1330.945	672.1
1335.753	658.1
1340.556	643.1
1345.354	625.1
1350.148	618.1
1354.937	605.1
1359.722	602.1
1364.501	584.1
1369.276	579.1
1374.046	584.1
1378.811	565.1
1383.572	563.1
1388.327	566.1
1393.079	557.1
1397.825	569.1
1402.567	582.1
1407.304	571.1
1412.036	570.1
1416.764	566.1
1421.487	559.1
1426.205	570.1
1430.919	574.1
1435.628	577.1
1440.333	578.1
1445.032	561.1
1449.727	581.1
1454.418	584.1
1459.104	587.1
1463.785	577.1
1468.462	566.1
1473.134	557.1
1477.802	536.1
1482.465	521.1
1487.123	503.1
1491.777	492.1
1496.426	498.1
1501.071	497.1
1505.711	484.1
1510.347	479.1
1514.978	473.1
1519.604	471.1
1524.226	476.1
1528.844	472.1
1533.457	474.1
1538.065	462.1
1542.669	464.1
1547.269	475.1
1551.864	476.1
1556.454	487.1
1561.041	502.1
1565.622	490.1
1570.199	493.1
1574.772	493.1
1579.34	500.1
1583.904	499.1
1588.464	511.1
1593.019	520.1
1597.569	515.1
1602.115	520.1
1606.657	517.1
1611.195	514.1
1615.728	515.1
1620.256	503.1
1624.78	510.1
1629.3	509.1
1633.816	504.1
1638.327	506.1
1642.834	494.1
1647.336	509.1
1651.834	491.1
1656.328	508.1
1660.817	500.1
1665.302	486.1
1669.783	492.1
1674.259	468.1
1678.732	475.1
1683.199	447.1
1687.663	435.1
1692.122	398.1
1696.577	383.1
1701.028	385.1
1705.474	355.1
1709.917	347.1
1714.355	352.1
1718.788	345.1
1723.218	339.1
1727.643	336.1
1732.064	344.1
1736.481	344.1
1740.893	333.1
1745.301	332.1
1749.705	323.1
1754.105	306.1
1758.501	296.1
1762.893	300.1
1767.28	292.1
1771.663	286.1
1776.042	279.1
1780.417	279.1
1784.787	278.1
1789.154	268.1
1793.516	259.1
1797.874	261.1
1802.228	267.1
1806.578	260.1
1810.924	252.1
1815.266	254.1
1819.603	255.1
1823.937	260.1
1828.266	255.1
1832.591	268.1
1836.913	261.1
1841.23	259.1
1845.543	263.1
1849.852	261.1
1854.156	266.1
1858.457	262.1
1862.754	265.1
1867.047	254.1
1871.335	261.1
1875.62	266.1
1879.9	261.1
1884.177	246.1
1888.449	245.1
1892.718	243.1
1896.982	243.1
1901.243	236.1
1905.499	239.1
1909.752	228.1
1914	221.1
1918.245	216.1
1922.485	207.1
1926.722	210.1
1930.954	213.1
1935.183	219.1
1939.408	214.1
1943.628	211.1
1947.845	207.1
1952.058	213.1
1956.267	200.1
1960.472	203.1
1964.673	193.1
1968.87	196.1
1973.063	193.1
1977.252	195.1
1981.438	203.1
1985.619	195.1
1989.797	196.1
1993.971	202.1
1998.14	198.1
2002.306	204.1
2006.469	206.1
2010.627	196.1
2014.781	196.1
2018.932	193.1
2023.078	195.1
2027.221	195.1
2031.36	197.1
2035.495	188.1
2039.627	181.1
2043.754	180.1
2047.878	177.1
2051.998	184.1
2056.114	181.1
2060.226	177.1
2064.334	174.1
2068.439	170.1
2072.54	176.1
2076.637	179.1
2080.73	174.1
2084.82	164.1
2088.906	175.1
2092.988	169.1
2097.066	167.1
2101.14	166.1
2105.211	167.1
2109.278	153.1
2113.342	152.1
2117.401	154.1
2121.457	151.1
2125.509	146.1
2129.558	158.1
2133.602	149.1
2137.643	160.1
2141.681	140.1
2145.714	155.1
2149.744	158.1
2153.77	164.1
2157.793	145.1
2161.812	159.1
2165.827	150.1
2169.838	146.1
2173.846	147.1
2177.851	147.1
2181.851	143.1
2185.848	139.1
2189.841	140.1
2193.831	135.1
2197.817	142.1
2201.799	141.1
2205.778	137.1
2209.753	142.1
2213.725	135.1
2217.693	147.1
2221.657	135.1
2225.618	133.1
2229.575	136.1
2233.529	132.1
2237.479	131.1
2241.425	127.1
2245.368	127.1
2249.307	129.1
2253.243	126.1
2257.175	127.1
2261.104	114.1
2265.029	113.1
2268.95	129.1
2272.868	120.1
2276.783	118.1
2280.694	116.1
2284.601	110.1
2288.505	105.1
2292.405	115.1
2296.302	119.1
2300.195	103.1
2304.085	101.1
2307.971	100.1
2311.854	103.1
2315.734	101.1
2319.609	104.1
2323.482	106.1
2327.351	114.1
2331.216	114.1
2335.078	136.1
2338.937	121.1
2342.792	110.1
2346.643	103.1
2350.492	112.1
2354.336	100.1
2358.178	99.1
2362.015	105.1
2365.85	100.1
2369.681	104.1
2373.508	112.1
2377.333	108.1
2381.153	102.1
2384.971	104.1
2388.785	101.1
2392.595	101.1
2396.402	109.1
2400.206	107.1
2404.007	105.1
2407.804	98.1
2411.597	96.1
2415.388	99.1
2419.174	99.1
2422.958	92.1
2426.738	102.1
2430.515	93.1
2434.289	92.1
2438.059	91.1
2441.825	84.1
2445.589	96.1
2449.349	94.1
2453.106	93.1
2456.859	89.1
2460.61	86.1
2464.356	87.1
2468.1	84.1
2471.84	88.1
2475.577	79.1
2479.311	78.1
2483.041	81.1
2486.768	79.1
2490.492	76.1
2494.213	79.1
2497.93	82.1
2501.644	74.1
2505.355	80.1
2509.062	78.1
2512.766	73.1
2516.467	68.1
2520.165	75.1
2523.859	69.1
2527.551	64.1
2531.239	63.1
2534.923	62.1
2538.605	58.1
2542.283	57.1
2545.958	60.1
2549.63	62.1
2553.299	61.1
2556.964	52.1
2560.626	64.1
2564.285	59.1
2567.941	60.1
2571.594	52.1
2575.243	61.1
2578.89	66.1
2582.533	51.1
2586.173	50.1
2589.809	63.1
2593.443	63.1
2597.073	49.1
2600.701	51.1
2604.325	43.1
2607.946	41.1
2611.564	53.1
2615.178	53.1
2618.79	46.1
2622.398	53.1
2626.004	48.1
2629.606	44.1
2633.205	49.1
2636.801	44.1
2640.394	56.1
2643.983	43.1
2647.57	45.1
2651.153	36.1
2654.734	40.1
2658.311	41.1
2661.885	48.1
2665.456	44.1
2669.025	37.1
2672.589	44.1
2676.151	43.1
2679.71	38.1
2683.266	39.1
2686.819	45.1
2690.368	44.1
2693.915	40.1
2697.458	36.1
2700.999	38.1
2704.536	40.1
2708.071	37.1
2711.602	30.1
2715.13	28.1
2718.656	31.1
2722.178	23.1
2725.697	32.1
2729.214	32.1
2732.727	31.1
2736.237	31.1
2739.744	27.1
2743.249	30.1
2746.75	31.1
2750.248	28.1
2753.743	25.1
2757.236	20.1
2760.725	27.1
2764.211	12.1
2767.695	21.1
2771.175	20.1
2774.652	14.1
2778.127	16.1
2781.598	14.1
2785.067	20.1
2788.532	15.1
2791.995	27.1
2795.455	14.1
2798.911	18.1
2802.365	23.1
2805.816	18.1
2809.264	20.1
2812.709	15.1
2816.151	20.1
2819.59	30.1
2823.026	16.1
2826.46	19.1
2829.89	25.1
2833.318	21.1
2836.742	27.1
2840.164	18.1
2843.583	20.1
2846.999	26.1
2850.412	25.1
2853.822	24.1
2857.229	22.1
2860.634	16.1
2864.035	21.1
2867.434	21.1
2870.83	28.1
2874.223	20.1
2877.613	29.1
2881	25.1
2884.385	33.1
2887.766	24.1
2891.145	29.1
2894.521	31.1
2897.894	31.1
2901.264	32.1
2904.631	27.1
2907.996	27.1
2911.358	40.1
2914.717	34.1
2918.073	26.1
2921.426	36.1
2924.777	33.1
2928.124	33.1
2931.469	37.1
2934.811	37.1
2938.15	47.1
2941.487	54.1
2944.821	41.1
2948.152	51.1
2951.48	39.1
2954.805	43.1
2958.128	40.1
2961.447	46.1
2964.765	31.1
2968.079	34.1
2971.39	36.1
2974.699	31.1
2978.005	40.1
2981.308	34.1
2984.609	34.1
2987.907	39.1
2991.202	39.1
2994.494	37.1
2997.784	33.1
3001.07	40.1
3004.355	44.1
3007.636	43.1
3010.915	40.1
3014.191	41.1
3017.464	43.1
3020.734	39.1
3024.002	49.1
3027.267	46.1
3030.53	47.1
3033.789	41.1
3037.046	44.1
3040.301	46.1
3043.552	52.1
3046.801	58.1
3050.048	55.1
3053.291	57.1
3056.532	55.1
3059.771	58.1
3063.006	66.1
3066.239	65.1
3069.469	74.1
3072.697	70.1
3075.922	68.1
3079.144	81.1
3082.364	82.1
3085.581	75.1
3088.795	94.1
3092.007	88.1
3095.216	91.1
3098.423	89.1
3101.627	82.1
3104.828	98.1
3108.026	96.1
3111.222	96.1
3114.416	102.1
3117.607	100.1
3120.795	102.1
3123.98	101.1
3127.163	110.1
3130.344	112.1
3133.521	110.1
3136.696	120.1
3139.869	124.1
3143.039	119.1
3146.206	125.1
3149.371	126.1
3152.533	134.1
3155.693	136.1
3158.85	136.1
3162.005	137.1
3165.157	131.1
3168.306	128.1
3171.453	129.1
3174.597	126.1
3177.739	136.1
3180.878	134.1
3184.014	135.1
3187.149	136.1
3190.28	134.1
3193.409	139.1
3196.536	130.1
3199.659	143.1
3202.781	134.1
3205.9	137.1
3209.016	134.1
3212.13	129.1
3215.241	137.1
3218.35	132.1
3221.456	138.1
3224.56	129.1
3227.661	126.1
3230.76	122.1
3233.856	126.1
3236.95	117.1
3240.041	114.1
3243.13	121.1
3246.216	110.1
3249.3	102.1
3252.382	110.1
3255.46	113.1
3258.537	106.1
3261.611	99.1
3264.682	109.1
3267.751	109.1
3270.818	97.1
3273.882	108.1
3276.943	99.1
3280.002	105.1
3283.059	101.1
3286.113	98.1
3289.165	101.1
3292.214	101.1
3295.261	99.1
3298.306	95.1
3301.348	98.1
3304.387	85.1
3307.425	89.1
3310.459	89.1
3313.492	84.1
3316.521	91.1
3319.549	97.1
3322.574	86.1
3325.597	90.1
3328.617	91.1
3331.635	95.1
3334.65	97.1
3337.663	72.1
3340.674	87.1
3343.682	89.1
3346.688	86.1
3349.691	85.1
3352.692	88.1
3355.691	90.1
3358.687	85.1
3361.681	91.1
3364.673	84.1
3367.662	87.1
3370.649	87.1
3373.633	78.1
3376.615	81.1
3379.595	75.1
3382.572	71.1
3385.547	82.1
3388.52	69.1
3391.49	65.1
3394.458	58.1
3397.424	74.1
3400.387	70.1
3403.348	63.1
3406.307	54.1
3409.263	67.1
3412.217	66.1
3415.168	67.1
3418.118	61.1
3421.065	53.1
3424.009	58.1
3426.951	56.1
3429.891	53.1
3432.829	52.1
3435.764	55.1
3438.697	47.1
3441.628	38.1
3444.557	44.1
3447.483	38.1
3450.407	31.1
3453.328	36.1
3456.247	40.1
3459.164	41.1
3462.079	26.1
3464.991	30.1
3467.902	28.1
3470.809	22.1
3473.715	22.1
3476.618	18.1
3479.519	16.1
3482.418	20.1
3485.315	11.1
3488.209	2.1
3491.101	3.1
3493.99	12.1
3496.878	9.1
3499.763	2.1
3502.646	4.1
3505.527	1.1
3508.405	8.1
3511.281	3.1
3514.155	-2.9
3517.027	-1.9
3519.897	-0.9
3522.764	-8.9
3525.629	-8.9
3528.492	-8.9
3531.352	-10.9
3534.211	-11.9
3537.067	-16.9
3539.921	-11.9
3542.773	-22.9
3545.622	-18.9
3548.469	-14.9
3551.315	-23.9
3554.157	-25.9
3556.998	-19.9
3559.837	-20.9
3562.673	-21.9
3565.507	-14.9
3568.339	-18.9
3571.169	-27.9
3573.996	-22.9
3576.822	-33.9
3579.645	-35.9
3582.466	-25.9
3585.285	-30.9
3588.101	-32.9
3590.916	-26.9
3593.728	-27.9
3596.538	-37.9
3599.346	-33.9
3602.152	-29.9
3604.956	-26.9
3607.757	-27.9
3610.556	-33.9
3613.354	-37.9
3616.149	-37.9
3618.942	-28.9
3621.732	-33.9
3624.521	-30.9
3627.307	-38.9
3630.092	-34.9
3632.874	-39.9
3635.654	-33.9
3638.432	-32.9
3641.208	-32.9
3643.982	-31.9
3646.753	-39.9
3649.523	-34.9
3652.29	-42.9
3655.055	-36.9
3657.818	-40.9
3660.579	-46.9
3663.338	-38.9
3666.095	-40.9
3668.849	-42.9
3671.602	-43.9
3674.352	-39.9
3677.101	-45.9
3679.847	-43.9
3682.591	-50.9
3685.333	-43.9
3688.073	-46.9
3690.811	-42.9
3693.547	-46.9
3696.281	-43.9
3699.013	-45.9
3701.742	-52.9
3704.47	-42.9
3707.195	-45.9
3709.919	-44.9
3712.64	-43.9
3715.359	-51.9
3718.076	-46.9
3720.792	-46.9
3723.505	-47.9
3726.216	-43.9
3728.925	-46.9
3731.632	-43.9
3734.336	-44.9
3737.039	-43.9
3739.74	-51.9
3742.439	-46.9
3745.136	-47.9
3747.83	-46.9
3750.523	-53.9
3753.213	-45.9
3755.902	-51.9
3758.589	-53.9
3761.273	-57.9
3763.956	-49.9
3766.636	-49.9
3769.315	-41.9
3771.991	-55.9
3774.665	-51.9
3777.338	-49.9
3780.008	-43.9
3782.677	-52.9
3785.343	-46.9
3788.007	-52.9
3790.67	-53.9
3793.33	-49.9
3795.989	-51.9
3798.645	-53.9
3801.299	-54.9
3803.952	-51.9
3806.602	-51.9
3809.251	-54.9
3811.897	-56.9
3814.542	-58.9
3817.184	-51.9
3819.825	-49.9
3822.463	-47.9
3825.1	-44.9
3827.735	-52.9
3830.367	-51.9
3832.998	-51.9
3835.627	-53.9
3838.253	-45.9
3840.878	-48.9
3843.501	-45.9
3846.122	-51.9
3848.741	-51.9
3851.358	-50.9
3853.973	-46.9
3856.586	-49.9
3859.197	-45.9
3861.806	-50.9
3864.414	-52.9
3867.019	-51.9
3869.622	-43.9
3872.224	-32.9
3874.823	-23.9
3877.421	-19.9
3880.016	-6.9
3882.61	9.1
3885.202	11.1
3887.792	1.1
3890.38	-19.9
3892.966	-38.9
3895.55	-43.9
3898.132	-45.9
3900.713	-52.9
3903.291	-48.9
3905.868	-45.9
3908.442	-51.9
3911.015	-54.9
3913.586	-54.9
3916.155	-52.9
3918.722	-49.9
3921.287	-56.9
3923.85	-46.9
3926.411	-58.9
3928.971	-60.9
3931.528	-52.9
3934.084	-53.9
3936.638	-51.9
3939.19	-55.9
3941.74	-48.9
3944.288	-48.9
3946.834	-49.9
3949.378	-53.9
3951.921	-52.9
3954.462	-51.9
3957	-45.9
3959.537	-41.9
3962.072	-50.9
3964.606	-55.9
3967.137	-54.9
3969.667	-50.9
3972.194	-50.9
3974.72	-48.9
3977.244	-49.9
3979.766	-52.9
3982.286	-49.9
3984.805	-52.9
3987.321	-48.9
3989.836	-48.9
3992.349	-48.9
3994.86	-50.9
3997.369	-53.9
3999.877	-52.9
4002.382	-52.9
4004.886	-47.9
4007.388	-56.9
4009.888	-52.9
4012.386	-52.9
4014.883	-46.9
4017.377	-44.9
4019.87	-53.9
4022.361	-54.9
4024.85	-49.9
4027.338	-46.9
4029.823	-53.9
4032.307	-53.9
4034.789	-48.9
4037.269	-53.9
4039.747	-51.9
4042.224	-51.9
4044.699	-52.9
4047.172	-53.9
4049.643	-52.9
4052.112	-50.9
4054.58	-51.9
4057.046	-46.9
4059.51	-51.9
4061.972	-53.9
4064.432	-46.9
4066.891	-48.9
4069.348	-49.9
4071.803	-45.9
4074.256	-47.9
4076.708	-50.9
4079.158	-54.9
4081.606	-49.9
4084.052	-53.9
4086.497	-44.9
4088.939	-48.9
4091.38	-53.9
4093.819	-51.9
4096.257	-50.9
4098.693	-53.9
4101.127	-47.9
4103.559	-56.9
4105.989	19.1
4108.418	15.1
4110.845	11.1
4113.27	10.1
4115.694	17.1
4118.115	12.1
4120.535	-51.9
4122.954	-48.9
4125.37	-51.9
4127.785	-49.9
4130.198	-49.9
4132.609	-52.9
4135.019	-54.9
4137.427	-56.9
4139.833	-53.9
4142.237	-55.9
