Data from 2018-3-7_conc=0_n=9_RamanShift_03.txt Node
Date: Wed Mar 07 10:33:52 IST 2018
User: aro
Spectrometer: QEPB0276
Trigger mode: 0
Integration Time (sec): 3.000000E1
Scans to average: 1
Electric dark correction enabled: true
Nonlinearity correction enabled: false
Boxcar width: 0
XAxis mode: Raman Shifts
Number of Pixels in Spectrum: 1044
>>>>>Begin Spectral Data<<<<<
160.701	14.2
166.742	26.2
172.777	53.2
178.805	156.2
184.826	398.2
190.841	836.2
196.849	1373.2
202.85	1767.2
208.845	1917.2
214.833	1934.2
220.815	1923.2
226.789	1922.2
232.758	1938.2
238.719	1946.2
244.674	1914.2
250.623	1946.2
256.565	1921.2
262.5	1900.2
268.429	1895.2
274.351	1883.2
280.267	1862.2
286.176	1886.2
292.079	1881.2
297.975	1891.2
303.865	1899.2
309.748	1875.2
315.625	1895.2
321.495	1892.2
327.359	1922.2
333.217	1913.2
339.068	1923.2
344.912	1952.2
350.751	1937.2
356.583	1933.2
362.408	1939.2
368.227	1930.2
374.04	1958.2
379.847	1980.2
385.647	1976.2
391.44	1982.2
397.228	2019.2
403.009	2006.2
408.784	2029.2
414.553	2029.2
420.315	2054.2
426.071	2057.2
431.821	2061.2
437.565	2054.2
443.302	2060.2
449.033	2043.2
454.758	2011.2
460.477	2005.2
466.189	1988.2
471.896	1964.2
477.596	1951.2
483.29	1954.2
488.978	1937.2
494.66	1924.2
500.335	1884.2
506.005	1817.2
511.668	1729.2
517.325	1646.2
522.977	1586.2
528.622	1511.2
534.261	1501.2
539.894	1449.2
545.521	1442.2
551.141	1418.2
556.756	1427.2
562.365	1391.2
567.968	1385.2
573.565	1379.2
579.155	1378.2
584.74	1376.2
590.319	1368.2
595.892	1364.2
601.459	1353.2
607.02	1359.2
612.575	1357.2
618.124	1319.2
623.667	1318.2
629.204	1294.2
634.735	1290.2
640.261	1265.2
645.781	1266.2
651.294	1253.2
656.802	1241.2
662.304	1249.2
667.8	1238.2
673.29	1251.2
678.775	1240.2
684.254	1248.2
689.726	1215.2
695.193	1222.2
700.655	1211.2
706.11	1201.2
711.56	1197.2
717.004	1189.2
722.442	1194.2
727.874	1160.2
733.301	1187.2
738.722	1157.2
744.137	1144.2
749.547	1152.2
754.951	1165.2
760.349	1166.2
765.741	1160.2
771.128	1153.2
776.509	1172.2
781.885	1196.2
787.254	1207.2
792.618	1221.2
797.977	1201.2
803.33	1188.2
808.677	1192.2
814.019	1189.2
819.355	1173.2
824.686	1164.2
830.011	1150.2
835.33	1155.2
840.644	1136.2
845.952	1145.2
851.255	1139.2
856.552	1139.2
861.844	1112.2
867.13	1100.2
872.41	1124.2
877.686	1131.2
882.955	1151.2
888.219	1141.2
893.478	1101.2
898.731	1057.2
903.979	1028.2
909.221	1024.2
914.458	1014.2
919.69	1004.2
924.916	1008.2
930.136	1017.2
935.351	1014.2
940.561	1011.2
945.766	1000.2
950.965	990.2
956.158	1002.2
961.347	987.2
966.529	970.2
971.707	958.2
976.879	945.2
982.046	943.2
987.208	940.2
992.364	941.2
997.515	930.2
1002.66	932.2
1007.801	953.2
1012.936	957.2
1018.066	979.2
1023.19	967.2
1028.309	950.2
1033.423	956.2
1038.532	964.2
1043.636	965.2
1048.734	964.2
1053.827	971.2
1058.915	961.2
1063.998	934.2
1069.075	919.2
1074.147	931.2
1079.214	930.2
1084.276	940.2
1089.333	942.2
1094.385	947.2
1099.431	940.2
1104.472	930.2
1109.509	909.2
1114.54	892.2
1119.565	889.2
1124.586	871.2
1129.602	861.2
1134.613	864.2
1139.618	841.2
1144.619	840.2
1149.614	855.2
1154.604	836.2
1159.589	863.2
1164.57	851.2
1169.545	855.2
1174.515	861.2
1179.48	854.2
1184.44	852.2
1189.395	839.2
1194.345	837.2
1199.29	815.2
1204.23	827.2
1209.165	824.2
1214.095	823.2
1219.021	828.2
1223.941	831.2
1228.856	839.2
1233.766	853.2
1238.672	841.2
1243.572	835.2
1248.467	830.2
1253.358	823.2
1258.244	812.2
1263.124	803.2
1268	781.2
1272.871	769.2
1277.737	783.2
1282.599	773.2
1287.455	771.2
1292.306	768.2
1297.153	758.2
1301.995	770.2
1306.832	772.2
1311.664	786.2
1316.491	781.2
1321.314	779.2
1326.132	771.2
1330.945	751.2
1335.753	743.2
1340.556	709.2
1345.354	705.2
1350.148	698.2
1354.937	692.2
1359.722	663.2
1364.501	646.2
1369.276	651.2
1374.046	637.2
1378.811	629.2
1383.572	638.2
1388.327	643.2
1393.079	626.2
1397.825	639.2
1402.567	639.2
1407.304	639.2
1412.036	633.2
1416.764	650.2
1421.487	658.2
1426.205	657.2
1430.919	646.2
1435.628	655.2
1440.333	668.2
1445.032	664.2
1449.727	681.2
1454.418	691.2
1459.104	702.2
1463.785	681.2
1468.462	657.2
1473.134	632.2
1477.802	609.2
1482.465	595.2
1487.123	578.2
1491.777	560.2
1496.426	560.2
1501.071	538.2
1505.711	543.2
1510.347	536.2
1514.978	537.2
1519.604	534.2
1524.226	532.2
1528.844	529.2
1533.457	522.2
1538.065	529.2
1542.669	532.2
1547.269	523.2
1551.864	535.2
1556.454	536.2
1561.041	554.2
1565.622	560.2
1570.199	538.2
1574.772	551.2
1579.34	565.2
1583.904	556.2
1588.464	576.2
1593.019	571.2
1597.569	577.2
1602.115	579.2
1606.657	560.2
1611.195	565.2
1615.728	564.2
1620.256	555.2
1624.78	552.2
1629.3	546.2
1633.816	551.2
1638.327	558.2
1642.834	554.2
1647.336	555.2
1651.834	548.2
1656.328	553.2
1660.817	558.2
1665.302	543.2
1669.783	521.2
1674.259	514.2
1678.732	494.2
1683.199	471.2
1687.663	461.2
1692.122	440.2
1696.577	429.2
1701.028	409.2
1705.474	379.2
1709.917	385.2
1714.355	462.2
1718.788	611.2
1723.218	420.2
1727.643	385.2
1732.064	376.2
1736.481	371.2
1740.893	365.2
1745.301	355.2
1749.705	358.2
1754.105	340.2
1758.501	330.2
1762.893	327.2
1767.28	320.2
1771.663	313.2
1776.042	309.2
1780.417	306.2
1784.787	298.2
1789.154	295.2
1793.516	281.2
1797.874	280.2
1802.228	272.2
1806.578	271.2
1810.924	273.2
1815.266	277.2
1819.603	277.2
1823.937	287.2
1828.266	277.2
1832.591	273.2
1836.913	275.2
1841.23	285.2
1845.543	274.2
1849.852	280.2
1854.156	294.2
1858.457	291.2
1862.754	292.2
1867.047	281.2
1871.335	278.2
1875.62	284.2
1879.9	280.2
1884.177	270.2
1888.449	271.2
1892.718	261.2
1896.982	259.2
1901.243	248.2
1905.499	245.2
1909.752	236.2
1914	238.2
1918.245	235.2
1922.485	232.2
1926.722	217.2
1930.954	216.2
1935.183	216.2
1939.408	217.2
1943.628	212.2
1947.845	221.2
1952.058	219.2
1956.267	209.2
1960.472	209.2
1964.673	203.2
1968.87	197.2
1973.063	210.2
1977.252	219.2
1981.438	219.2
1985.619	209.2
1989.797	203.2
1993.971	216.2
1998.14	210.2
2002.306	208.2
2006.469	217.2
2010.627	211.2
2014.781	216.2
2018.932	207.2
2023.078	214.2
2027.221	217.2
2031.36	204.2
2035.495	198.2
2039.627	191.2
2043.754	201.2
2047.878	194.2
2051.998	193.2
2056.114	185.2
2060.226	196.2
2064.334	193.2
2068.439	182.2
2072.54	186.2
2076.637	184.2
2080.73	181.2
2084.82	183.2
2088.906	182.2
2092.988	175.2
2097.066	173.2
2101.14	175.2
2105.211	175.2
2109.278	173.2
2113.342	156.2
2117.401	163.2
2121.457	160.2
2125.509	151.2
2129.558	161.2
2133.602	162.2
2137.643	166.2
2141.681	166.2
2145.714	161.2
2149.744	162.2
2153.77	170.2
2157.793	164.2
2161.812	164.2
2165.827	159.2
2169.838	153.2
2173.846	154.2
2177.851	155.2
2181.851	158.2
2185.848	158.2
2189.841	157.2
2193.831	138.2
2197.817	143.2
2201.799	152.2
2205.778	142.2
2209.753	153.2
2213.725	152.2
2217.693	146.2
2221.657	148.2
2225.618	150.2
2229.575	144.2
2233.529	135.2
2237.479	148.2
2241.425	138.2
2245.368	135.2
2249.307	141.2
2253.243	137.2
2257.175	131.2
2261.104	131.2
2265.029	137.2
2268.95	132.2
2272.868	134.2
2276.783	121.2
2280.694	116.2
2284.601	119.2
2288.505	121.2
2292.405	133.2
2296.302	132.2
2300.195	118.2
2304.085	117.2
2307.971	105.2
2311.854	111.2
2315.734	107.2
2319.609	112.2
2323.482	108.2
2327.351	115.2
2331.216	130.2
2335.078	146.2
2338.937	130.2
2342.792	118.2
2346.643	118.2
2350.492	114.2
2354.336	112.2
2358.178	102.2
2362.015	113.2
2365.85	105.2
2369.681	118.2
2373.508	118.2
2377.333	113.2
2381.153	117.2
2384.971	103.2
2388.785	109.2
2392.595	107.2
2396.402	118.2
2400.206	107.2
2404.007	108.2
2407.804	110.2
2411.597	112.2
2415.388	114.2
2419.174	113.2
2422.958	102.2
2426.738	100.2
2430.515	103.2
2434.289	105.2
2438.059	103.2
2441.825	101.2
2445.589	98.2
2449.349	100.2
2453.106	108.2
2456.859	99.2
2460.61	96.2
2464.356	97.2
2468.1	89.2
2471.84	90.2
2475.577	88.2
2479.311	89.2
2483.041	79.2
2486.768	92.2
2490.492	87.2
2494.213	87.2
2497.93	84.2
2501.644	84.2
2505.355	71.2
2509.062	80.2
2512.766	80.2
2516.467	78.2
2520.165	69.2
2523.859	78.2
2527.551	71.2
2531.239	77.2
2534.923	68.2
2538.605	68.2
2542.283	61.2
2545.958	63.2
2549.63	68.2
2553.299	76.2
2556.964	64.2
2560.626	62.2
2564.285	57.2
2567.941	57.2
2571.594	58.2
2575.243	61.2
2578.89	56.2
2582.533	51.2
2586.173	59.2
2589.809	59.2
2593.443	62.2
2597.073	47.2
2600.701	53.2
2604.325	54.2
2607.946	54.2
2611.564	52.2
2615.178	58.2
2618.79	54.2
2622.398	50.2
2626.004	49.2
2629.606	47.2
2633.205	46.2
2636.801	46.2
2640.394	51.2
2643.983	54.2
2647.57	53.2
2651.153	44.2
2654.734	49.2
2658.311	48.2
2661.885	41.2
2665.456	50.2
2669.025	46.2
2672.589	41.2
2676.151	45.2
2679.71	36.2
2683.266	43.2
2686.819	45.2
2690.368	48.2
2693.915	41.2
2697.458	32.2
2700.999	42.2
2704.536	39.2
2708.071	40.2
2711.602	32.2
2715.13	34.2
2718.656	36.2
2722.178	30.2
2725.697	30.2
2729.214	30.2
2732.727	34.2
2736.237	34.2
2739.744	27.2
2743.249	33.2
2746.75	29.2
2750.248	28.2
2753.743	26.2
2757.236	20.2
2760.725	22.2
2764.211	18.2
2767.695	15.2
2771.175	17.2
2774.652	18.2
2778.127	21.2
2781.598	22.2
2785.067	18.2
2788.532	17.2
2791.995	22.2
2795.455	18.2
2798.911	17.2
2802.365	21.2
2805.816	22.2
2809.264	17.2
2812.709	17.2
2816.151	24.2
2819.59	37.2
2823.026	23.2
2826.46	25.2
2829.89	23.2
2833.318	21.2
2836.742	26.2
2840.164	21.2
2843.583	26.2
2846.999	24.2
2850.412	31.2
2853.822	28.2
2857.229	30.2
2860.634	24.2
2864.035	35.2
2867.434	32.2
2870.83	40.2
2874.223	33.2
2877.613	40.2
2881	45.2
2884.385	51.2
2887.766	51.2
2891.145	54.2
2894.521	52.2
2897.894	52.2
2901.264	45.2
2904.631	45.2
2907.996	45.2
2911.358	50.2
2914.717	46.2
2918.073	45.2
2921.426	50.2
2924.777	56.2
2928.124	62.2
2931.469	62.2
2934.811	73.2
2938.15	82.2
2941.487	75.2
2944.821	72.2
2948.152	72.2
2951.48	61.2
2954.805	63.2
2958.128	57.2
2961.447	59.2
2964.765	45.2
2968.079	50.2
2971.39	51.2
2974.699	43.2
2978.005	52.2
2981.308	42.2
2984.609	44.2
2987.907	43.2
2991.202	44.2
2994.494	49.2
2997.784	40.2
3001.07	51.2
3004.355	50.2
3007.636	45.2
3010.915	48.2
3014.191	40.2
3017.464	39.2
3020.734	48.2
3024.002	49.2
3027.267	53.2
3030.53	54.2
3033.789	55.2
3037.046	54.2
3040.301	50.2
3043.552	51.2
3046.801	60.2
3050.048	53.2
3053.291	57.2
3056.532	63.2
3059.771	60.2
3063.006	64.2
3066.239	69.2
3069.469	78.2
3072.697	75.2
3075.922	82.2
3079.144	78.2
3082.364	80.2
3085.581	81.2
3088.795	93.2
3092.007	89.2
3095.216	92.2
3098.423	89.2
3101.627	92.2
3104.828	98.2
3108.026	105.2
3111.222	102.2
3114.416	103.2
3117.607	105.2
3120.795	103.2
3123.98	107.2
3127.163	123.2
3130.344	117.2
3133.521	115.2
3136.696	127.2
3139.869	125.2
3143.039	122.2
3146.206	136.2
3149.371	133.2
3152.533	138.2
3155.693	145.2
3158.85	144.2
3162.005	137.2
3165.157	138.2
3168.306	137.2
3171.453	143.2
3174.597	141.2
3177.739	137.2
3180.878	149.2
3184.014	135.2
3187.149	142.2
3190.28	140.2
3193.409	135.2
3196.536	134.2
3199.659	144.2
3202.781	140.2
3205.9	135.2
3209.016	134.2
3212.13	141.2
3215.241	136.2
3218.35	127.2
3221.456	136.2
3224.56	128.2
3227.661	129.2
3230.76	116.2
3233.856	125.2
3236.95	119.2
3240.041	114.2
3243.13	110.2
3246.216	110.2
3249.3	109.2
3252.382	109.2
3255.46	102.2
3258.537	108.2
3261.611	102.2
3264.682	98.2
3267.751	103.2
3270.818	95.2
3273.882	103.2
3276.943	100.2
3280.002	97.2
3283.059	100.2
3286.113	94.2
3289.165	91.2
3292.214	95.2
3295.261	94.2
3298.306	93.2
3301.348	93.2
3304.387	97.2
3307.425	83.2
3310.459	85.2
3313.492	95.2
3316.521	85.2
3319.549	94.2
3322.574	90.2
3325.597	87.2
3328.617	78.2
3331.635	89.2
3334.65	92.2
3337.663	87.2
3340.674	90.2
3343.682	87.2
3346.688	85.2
3349.691	92.2
3352.692	84.2
3355.691	92.2
3358.687	89.2
3361.681	83.2
3364.673	89.2
3367.662	87.2
3370.649	85.2
3373.633	75.2
3376.615	84.2
3379.595	77.2
3382.572	67.2
3385.547	71.2
3388.52	68.2
3391.49	68.2
3394.458	65.2
3397.424	75.2
3400.387	71.2
3403.348	59.2
3406.307	59.2
3409.263	66.2
3412.217	58.2
3415.168	58.2
3418.118	58.2
3421.065	55.2
3424.009	56.2
3426.951	54.2
3429.891	54.2
3432.829	47.2
3435.764	55.2
3438.697	46.2
3441.628	39.2
3444.557	43.2
3447.483	40.2
3450.407	31.2
3453.328	36.2
3456.247	31.2
3459.164	32.2
3462.079	20.2
3464.991	22.2
3467.902	20.2
3470.809	13.2
3473.715	23.2
3476.618	10.2
3479.519	12.2
3482.418	14.2
3485.315	13.2
3488.209	-1.8
3491.101	1.2
3493.99	7.2
3496.878	0.2
3499.763	-7.8
3502.646	-0.8
3505.527	-0.8
3508.405	-2.8
3511.281	-4.8
3514.155	-2.8
3517.027	-12.8
3519.897	-13.8
3522.764	-9.8
3525.629	-13.8
3528.492	-22.8
3531.352	-25.8
3534.211	-21.8
3537.067	-23.8
3539.921	-20.8
3542.773	-26.8
3545.622	-21.8
3548.469	-20.8
3551.315	-21.8
3554.157	-26.8
3556.998	-25.8
3559.837	-29.8
3562.673	-25.8
3565.507	-25.8
3568.339	-25.8
3571.169	-31.8
3573.996	-30.8
3576.822	-40.8
3579.645	-36.8
3582.466	-29.8
3585.285	-35.8
3588.101	-36.8
3590.916	-28.8
3593.728	-39.8
3596.538	-41.8
3599.346	-42.8
3602.152	-44.8
3604.956	-38.8
3607.757	-40.8
3610.556	-40.8
3613.354	-45.8
3616.149	-45.8
3618.942	-39.8
3621.732	-37.8
3624.521	-35.8
3627.307	-42.8
3630.092	-47.8
3632.874	-47.8
3635.654	-47.8
3638.432	-44.8
3641.208	-45.8
3643.982	-36.8
3646.753	-46.8
3649.523	-46.8
3652.29	-44.8
3655.055	-43.8
3657.818	-50.8
3660.579	-51.8
3663.338	-45.8
3666.095	-48.8
3668.849	-47.8
3671.602	-52.8
3674.352	-44.8
3677.101	-50.8
3679.847	-47.8
3682.591	-53.8
3685.333	-54.8
3688.073	-57.8
3690.811	-49.8
3693.547	-54.8
3696.281	-46.8
3699.013	-52.8
3701.742	-50.8
3704.47	-45.8
3707.195	-44.8
3709.919	-58.8
3712.64	-50.8
3715.359	-54.8
3718.076	-59.8
3720.792	-55.8
3723.505	-57.8
3726.216	-46.8
3728.925	-53.8
3731.632	-50.8
3734.336	-56.8
3737.039	-53.8
3739.74	-56.8
3742.439	-59.8
3745.136	-60.8
3747.83	-52.8
3750.523	-60.8
3753.213	-54.8
3755.902	-55.8
3758.589	-60.8
3761.273	-51.8
3763.956	-58.8
3766.636	-50.8
3769.315	-47.8
3771.991	-60.8
3774.665	-57.8
3777.338	-56.8
3780.008	-58.8
3782.677	-60.8
3785.343	-51.8
3788.007	-55.8
3790.67	-56.8
3793.33	-56.8
3795.989	-56.8
3798.645	-58.8
3801.299	-56.8
3803.952	-57.8
3806.602	-58.8
3809.251	-55.8
3811.897	-60.8
3814.542	-55.8
3817.184	-56.8
3819.825	-53.8
3822.463	-56.8
3825.1	-57.8
3827.735	-58.8
3830.367	-65.8
3832.998	-61.8
3835.627	-61.8
3838.253	-53.8
3840.878	-50.8
3843.501	-52.8
3846.122	-57.8
3848.741	-56.8
3851.358	-58.8
3853.973	-54.8
3856.586	-57.8
3859.197	-57.8
3861.806	-59.8
3864.414	-58.8
3867.019	-56.8
3869.622	-52.8
3872.224	-47.8
3874.823	-39.8
3877.421	-32.8
3880.016	-16.8
3882.61	-0.8
3885.202	8.2
3887.792	-1.8
3890.38	-17.8
3892.966	-44.8
3895.55	-49.8
3898.132	-50.8
3900.713	-56.8
3903.291	-56.8
3905.868	-54.8
3908.442	-63.8
3911.015	-53.8
3913.586	-59.8
3916.155	-57.8
3918.722	-54.8
3921.287	-58.8
3923.85	-54.8
3926.411	-63.8
3928.971	-64.8
3931.528	-58.8
3934.084	-58.8
3936.638	-56.8
3939.19	-63.8
3941.74	-57.8
3944.288	-58.8
3946.834	-53.8
3949.378	-58.8
3951.921	-59.8
3954.462	-58.8
3957	-55.8
3959.537	-52.8
3962.072	-56.8
3964.606	-61.8
3967.137	-56.8
3969.667	-61.8
3972.194	-54.8
3974.72	-52.8
3977.244	-49.8
3979.766	-61.8
3982.286	-58.8
3984.805	-65.8
3987.321	-55.8
3989.836	-55.8
3992.349	-56.8
3994.86	-59.8
3997.369	-58.8
3999.877	-56.8
4002.382	-55.8
4004.886	-53.8
4007.388	-60.8
4009.888	-56.8
4012.386	-61.8
4014.883	-57.8
4017.377	-56.8
4019.87	-58.8
4022.361	-57.8
4024.85	-55.8
4027.338	-59.8
4029.823	-58.8
4032.307	-60.8
4034.789	-59.8
4037.269	-58.8
4039.747	-59.8
4042.224	-59.8
4044.699	-61.8
4047.172	-60.8
4049.643	-58.8
4052.112	-51.8
4054.58	-51.8
4057.046	-55.8
4059.51	-58.8
4061.972	-60.8
4064.432	-56.8
4066.891	-57.8
4069.348	-58.8
4071.803	-55.8
4074.256	-53.8
4076.708	-56.8
4079.158	-52.8
4081.606	-57.8
4084.052	-57.8
4086.497	-56.8
4088.939	-56.8
4091.38	-58.8
4093.819	-61.8
4096.257	-57.8
4098.693	-61.8
4101.127	-52.8
4103.559	-64.8
4105.989	22.2
4108.418	9.2
4110.845	11.2
4113.27	13.2
4115.694	14.2
4118.115	16.2
4120.535	-60.8
4122.954	-52.8
4125.37	-51.8
4127.785	-51.8
4130.198	-53.8
4132.609	-57.8
4135.019	-59.8
4137.427	-63.8
4139.833	-62.8
4142.237	-63.8
