Data from 2018-3-7_conc=6_n=3_RamanShift_02.txt Node
Date: Wed Mar 07 13:03:22 IST 2018
User: aro
Spectrometer: QEPB0276
Trigger mode: 0
Integration Time (sec): 3.000000E1
Scans to average: 1
Electric dark correction enabled: true
Nonlinearity correction enabled: false
Boxcar width: 0
XAxis mode: Raman Shifts
Number of Pixels in Spectrum: 1044
>>>>>Begin Spectral Data<<<<<
160.701	7.6
166.742	19.6
172.777	53.6
178.805	164.6
184.826	427.6
190.841	933.6
196.849	1541.6
202.85	2030.6
208.845	2210.6
214.833	2208.6
220.815	2187.6
226.789	2176.6
232.758	2182.6
238.719	2199.6
244.674	2153.6
250.623	2145.6
256.565	2117.6
262.5	2082.6
268.429	2054.6
274.351	2048.6
280.267	2032.6
286.176	2014.6
292.079	2030.6
297.975	2004.6
303.865	2025.6
309.748	1996.6
315.625	1968.6
321.495	1983.6
327.359	1988.6
333.217	2003.6
339.068	1990.6
344.912	1985.6
350.751	1999.6
356.583	1985.6
362.408	1980.6
368.227	2009.6
374.04	2001.6
379.847	2001.6
385.647	2023.6
391.44	2010.6
397.228	2019.6
403.009	2033.6
408.784	2047.6
414.553	2073.6
420.315	2055.6
426.071	2065.6
431.821	2055.6
437.565	2058.6
443.302	2059.6
449.033	2071.6
454.758	2055.6
460.477	2032.6
466.189	1995.6
471.896	2007.6
477.596	1993.6
483.29	1971.6
488.978	1993.6
494.66	1971.6
500.335	1956.6
506.005	1891.6
511.668	1833.6
517.325	1777.6
522.977	1729.6
528.622	1693.6
534.261	1684.6
539.894	1673.6
545.521	1649.6
551.141	1617.6
556.756	1628.6
562.365	1613.6
567.968	1614.6
573.565	1607.6
579.155	1600.6
584.74	1598.6
590.319	1572.6
595.892	1578.6
601.459	1577.6
607.02	1544.6
612.575	1539.6
618.124	1544.6
623.667	1522.6
629.204	1500.6
634.735	1472.6
640.261	1486.6
645.781	1481.6
651.294	1473.6
656.802	1465.6
662.304	1447.6
667.8	1454.6
673.29	1466.6
678.775	1458.6
684.254	1454.6
689.726	1451.6
695.193	1431.6
700.655	1419.6
706.11	1423.6
711.56	1405.6
717.004	1399.6
722.442	1390.6
727.874	1390.6
733.301	1394.6
738.722	1380.6
744.137	1396.6
749.547	1357.6
754.951	1371.6
760.349	1375.6
765.741	1367.6
771.128	1371.6
776.509	1395.6
781.885	1401.6
787.254	1416.6
792.618	1401.6
797.977	1395.6
803.33	1376.6
808.677	1374.6
814.019	1384.6
819.355	1360.6
824.686	1354.6
830.011	1340.6
835.33	1333.6
840.644	1335.6
845.952	1326.6
851.255	1325.6
856.552	1329.6
861.844	1308.6
867.13	1303.6
872.41	1293.6
877.686	1288.6
882.955	1275.6
888.219	1275.6
893.478	1256.6
898.731	1236.6
903.979	1211.6
909.221	1214.6
914.458	1202.6
919.69	1224.6
924.916	1217.6
930.136	1221.6
935.351	1227.6
940.561	1208.6
945.766	1213.6
950.965	1212.6
956.158	1210.6
961.347	1183.6
966.529	1180.6
971.707	1152.6
976.879	1127.6
982.046	1128.6
987.208	1147.6
992.364	1126.6
997.515	1130.6
1002.66	1124.6
1007.801	1140.6
1012.936	1142.6
1018.066	1169.6
1023.19	1175.6
1028.309	1150.6
1033.423	1140.6
1038.532	1148.6
1043.636	1145.6
1048.734	1132.6
1053.827	1125.6
1058.915	1092.6
1063.998	1089.6
1069.075	1087.6
1074.147	1075.6
1079.214	1091.6
1084.276	1102.6
1089.333	1109.6
1094.385	1111.6
1099.431	1079.6
1104.472	1101.6
1109.509	1082.6
1114.54	1080.6
1119.565	1063.6
1124.586	1054.6
1129.602	1040.6
1134.613	1039.6
1139.618	1013.6
1144.619	1026.6
1149.614	1020.6
1154.604	1029.6
1159.589	1033.6
1164.57	1029.6
1169.545	1030.6
1174.515	1032.6
1179.48	1019.6
1184.44	1014.6
1189.395	1005.6
1194.345	1004.6
1199.29	986.6
1204.23	1003.6
1209.165	1005.6
1214.095	999.6
1219.021	1019.6
1223.941	1018.6
1228.856	1022.6
1233.766	1010.6
1238.672	1031.6
1243.572	1020.6
1248.467	1023.6
1253.358	997.6
1258.244	986.6
1263.124	975.6
1268	938.6
1272.871	937.6
1277.737	929.6
1282.599	933.6
1287.455	926.6
1292.306	929.6
1297.153	927.6
1301.995	944.6
1306.832	947.6
1311.664	953.6
1316.491	960.6
1321.314	966.6
1326.132	949.6
1330.945	938.6
1335.753	921.6
1340.556	892.6
1345.354	887.6
1350.148	852.6
1354.937	847.6
1359.722	831.6
1364.501	809.6
1369.276	798.6
1374.046	770.6
1378.811	756.6
1383.572	754.6
1388.327	766.6
1393.079	759.6
1397.825	751.6
1402.567	779.6
1407.304	773.6
1412.036	793.6
1416.764	775.6
1421.487	775.6
1426.205	783.6
1430.919	787.6
1435.628	792.6
1440.333	803.6
1445.032	797.6
1449.727	822.6
1454.418	808.6
1459.104	800.6
1463.785	786.6
1468.462	778.6
1473.134	764.6
1477.802	744.6
1482.465	721.6
1487.123	710.6
1491.777	688.6
1496.426	693.6
1501.071	680.6
1505.711	668.6
1510.347	662.6
1514.978	657.6
1519.604	651.6
1524.226	651.6
1528.844	640.6
1533.457	647.6
1538.065	643.6
1542.669	640.6
1547.269	635.6
1551.864	635.6
1556.454	651.6
1561.041	674.6
1565.622	683.6
1570.199	673.6
1574.772	673.6
1579.34	688.6
1583.904	684.6
1588.464	700.6
1593.019	709.6
1597.569	709.6
1602.115	700.6
1606.657	702.6
1611.195	699.6
1615.728	701.6
1620.256	701.6
1624.78	709.6
1629.3	706.6
1633.816	706.6
1638.327	713.6
1642.834	707.6
1647.336	702.6
1651.834	711.6
1656.328	698.6
1660.817	704.6
1665.302	691.6
1669.783	652.6
1674.259	661.6
1678.732	645.6
1683.199	612.6
1687.663	586.6
1692.122	558.6
1696.577	534.6
1701.028	514.6
1705.474	486.6
1709.917	460.6
1714.355	458.6
1718.788	459.6
1723.218	458.6
1727.643	457.6
1732.064	463.6
1736.481	461.6
1740.893	450.6
1745.301	440.6
1749.705	445.6
1754.105	436.6
1758.501	416.6
1762.893	412.6
1767.28	392.6
1771.663	395.6
1776.042	382.6
1780.417	380.6
1784.787	370.6
1789.154	355.6
1793.516	345.6
1797.874	347.6
1802.228	341.6
1806.578	331.6
1810.924	323.6
1815.266	333.6
1819.603	328.6
1823.937	339.6
1828.266	348.6
1832.591	347.6
1836.913	340.6
1841.23	340.6
1845.543	345.6
1849.852	354.6
1854.156	359.6
1858.457	356.6
1862.754	358.6
1867.047	343.6
1871.335	357.6
1875.62	351.6
1879.9	353.6
1884.177	344.6
1888.449	340.6
1892.718	335.6
1896.982	324.6
1901.243	319.6
1905.499	319.6
1909.752	305.6
1914	311.6
1918.245	295.6
1922.485	287.6
1926.722	288.6
1930.954	277.6
1935.183	290.6
1939.408	286.6
1943.628	271.6
1947.845	273.6
1952.058	277.6
1956.267	257.6
1960.472	268.6
1964.673	252.6
1968.87	255.6
1973.063	256.6
1977.252	262.6
1981.438	262.6
1985.619	256.6
1989.797	257.6
1993.971	268.6
1998.14	267.6
2002.306	271.6
2006.469	270.6
2010.627	275.6
2014.781	277.6
2018.932	273.6
2023.078	277.6
2027.221	270.6
2031.36	265.6
2035.495	263.6
2039.627	257.6
2043.754	259.6
2047.878	252.6
2051.998	254.6
2056.114	242.6
2060.226	243.6
2064.334	248.6
2068.439	239.6
2072.54	236.6
2076.637	231.6
2080.73	235.6
2084.82	236.6
2088.906	227.6
2092.988	227.6
2097.066	225.6
2101.14	230.6
2105.211	219.6
2109.278	218.6
2113.342	207.6
2117.401	217.6
2121.457	207.6
2125.509	211.6
2129.558	199.6
2133.602	201.6
2137.643	210.6
2141.681	203.6
2145.714	207.6
2149.744	211.6
2153.77	210.6
2157.793	209.6
2161.812	215.6
2165.827	212.6
2169.838	197.6
2173.846	214.6
2177.851	202.6
2181.851	198.6
2185.848	201.6
2189.841	192.6
2193.831	191.6
2197.817	203.6
2201.799	190.6
2205.778	198.6
2209.753	191.6
2213.725	184.6
2217.693	194.6
2221.657	195.6
2225.618	190.6
2229.575	181.6
2233.529	192.6
2237.479	195.6
2241.425	176.6
2245.368	180.6
2249.307	175.6
2253.243	171.6
2257.175	171.6
2261.104	171.6
2265.029	167.6
2268.95	162.6
2272.868	166.6
2276.783	166.6
2280.694	162.6
2284.601	157.6
2288.505	169.6
2292.405	159.6
2296.302	162.6
2300.195	164.6
2304.085	152.6
2307.971	144.6
2311.854	151.6
2315.734	138.6
2319.609	149.6
2323.482	147.6
2327.351	149.6
2331.216	151.6
2335.078	168.6
2338.937	150.6
2342.792	154.6
2346.643	150.6
2350.492	148.6
2354.336	148.6
2358.178	144.6
2362.015	148.6
2365.85	152.6
2369.681	152.6
2373.508	156.6
2377.333	157.6
2381.153	154.6
2384.971	154.6
2388.785	143.6
2392.595	152.6
2396.402	153.6
2400.206	149.6
2404.007	147.6
2407.804	145.6
2411.597	139.6
2415.388	144.6
2419.174	150.6
2422.958	146.6
2426.738	143.6
2430.515	134.6
2434.289	140.6
2438.059	131.6
2441.825	140.6
2445.589	136.6
2449.349	135.6
2453.106	146.6
2456.859	125.6
2460.61	134.6
2464.356	127.6
2468.1	125.6
2471.84	120.6
2475.577	114.6
2479.311	126.6
2483.041	124.6
2486.768	125.6
2490.492	121.6
2494.213	116.6
2497.93	122.6
2501.644	123.6
2505.355	113.6
2509.062	116.6
2512.766	108.6
2516.467	108.6
2520.165	113.6
2523.859	106.6
2527.551	101.6
2531.239	100.6
2534.923	93.6
2538.605	98.6
2542.283	91.6
2545.958	92.6
2549.63	97.6
2553.299	92.6
2556.964	84.6
2560.626	91.6
2564.285	90.6
2567.941	88.6
2571.594	85.6
2575.243	89.6
2578.89	89.6
2582.533	82.6
2586.173	82.6
2589.809	88.6
2593.443	82.6
2597.073	79.6
2600.701	79.6
2604.325	73.6
2607.946	67.6
2611.564	80.6
2615.178	74.6
2618.79	74.6
2622.398	78.6
2626.004	69.6
2629.606	75.6
2633.205	73.6
2636.801	75.6
2640.394	73.6
2643.983	64.6
2647.57	72.6
2651.153	72.6
2654.734	76.6
2658.311	70.6
2661.885	71.6
2665.456	70.6
2669.025	73.6
2672.589	62.6
2676.151	60.6
2679.71	63.6
2683.266	58.6
2686.819	69.6
2690.368	59.6
2693.915	61.6
2697.458	57.6
2700.999	60.6
2704.536	57.6
2708.071	58.6
2711.602	56.6
2715.13	48.6
2718.656	58.6
2722.178	45.6
2725.697	50.6
2729.214	54.6
2732.727	57.6
2736.237	51.6
2739.744	44.6
2743.249	49.6
2746.75	39.6
2750.248	38.6
2753.743	38.6
2757.236	36.6
2760.725	36.6
2764.211	29.6
2767.695	29.6
2771.175	31.6
2774.652	26.6
2778.127	30.6
2781.598	34.6
2785.067	31.6
2788.532	24.6
2791.995	34.6
2795.455	34.6
2798.911	29.6
2802.365	38.6
2805.816	35.6
2809.264	33.6
2812.709	33.6
2816.151	37.6
2819.59	51.6
2823.026	47.6
2826.46	35.6
2829.89	42.6
2833.318	35.6
2836.742	43.6
2840.164	38.6
2843.583	36.6
2846.999	43.6
2850.412	42.6
2853.822	36.6
2857.229	40.6
2860.634	35.6
2864.035	36.6
2867.434	37.6
2870.83	48.6
2874.223	46.6
2877.613	43.6
2881	46.6
2884.385	52.6
2887.766	51.6
2891.145	50.6
2894.521	53.6
2897.894	47.6
2901.264	55.6
2904.631	45.6
2907.996	53.6
2911.358	57.6
2914.717	59.6
2918.073	59.6
2921.426	58.6
2924.777	66.6
2928.124	62.6
2931.469	65.6
2934.811	71.6
2938.15	64.6
2941.487	80.6
2944.821	65.6
2948.152	72.6
2951.48	65.6
2954.805	71.6
2958.128	67.6
2961.447	68.6
2964.765	57.6
2968.079	70.6
2971.39	65.6
2974.699	62.6
2978.005	72.6
2981.308	60.6
2984.609	70.6
2987.907	67.6
2991.202	63.6
2994.494	67.6
2997.784	64.6
3001.07	70.6
3004.355	70.6
3007.636	71.6
3010.915	69.6
3014.191	62.6
3017.464	62.6
3020.734	64.6
3024.002	78.6
3027.267	78.6
3030.53	73.6
3033.789	77.6
3037.046	79.6
3040.301	80.6
3043.552	89.6
3046.801	90.6
3050.048	94.6
3053.291	97.6
3056.532	98.6
3059.771	112.6
3063.006	111.6
3066.239	120.6
3069.469	114.6
3072.697	120.6
3075.922	122.6
3079.144	116.6
3082.364	133.6
3085.581	129.6
3088.795	135.6
3092.007	142.6
3095.216	141.6
3098.423	143.6
3101.627	141.6
3104.828	153.6
3108.026	162.6
3111.222	158.6
3114.416	170.6
3117.607	167.6
3120.795	169.6
3123.98	172.6
3127.163	182.6
3130.344	178.6
3133.521	184.6
3136.696	180.6
3139.869	195.6
3143.039	194.6
3146.206	206.6
3149.371	204.6
3152.533	210.6
3155.693	208.6
3158.85	203.6
3162.005	207.6
3165.157	206.6
3168.306	209.6
3171.453	215.6
3174.597	212.6
3177.739	218.6
3180.878	217.6
3184.014	211.6
3187.149	212.6
3190.28	222.6
3193.409	222.6
3196.536	215.6
3199.659	214.6
3202.781	218.6
3205.9	220.6
3209.016	219.6
3212.13	219.6
3215.241	209.6
3218.35	205.6
3221.456	213.6
3224.56	204.6
3227.661	198.6
3230.76	194.6
3233.856	193.6
3236.95	192.6
3240.041	186.6
3243.13	191.6
3246.216	187.6
3249.3	177.6
3252.382	184.6
3255.46	174.6
3258.537	185.6
3261.611	172.6
3264.682	167.6
3267.751	168.6
3270.818	167.6
3273.882	161.6
3276.943	160.6
3280.002	166.6
3283.059	156.6
3286.113	155.6
3289.165	148.6
3292.214	150.6
3295.261	157.6
3298.306	151.6
3301.348	155.6
3304.387	155.6
3307.425	144.6
3310.459	147.6
3313.492	150.6
3316.521	143.6
3319.549	159.6
3322.574	147.6
3325.597	148.6
3328.617	146.6
3331.635	154.6
3334.65	150.6
3337.663	137.6
3340.674	143.6
3343.682	152.6
3346.688	144.6
3349.691	148.6
3352.692	143.6
3355.691	151.6
3358.687	139.6
3361.681	141.6
3364.673	147.6
3367.662	139.6
3370.649	137.6
3373.633	129.6
3376.615	131.6
3379.595	136.6
3382.572	128.6
3385.547	134.6
3388.52	128.6
3391.49	123.6
3394.458	112.6
3397.424	119.6
3400.387	122.6
3403.348	109.6
3406.307	108.6
3409.263	117.6
3412.217	107.6
3415.168	110.6
3418.118	109.6
3421.065	103.6
3424.009	103.6
3426.951	97.6
3429.891	94.6
3432.829	92.6
3435.764	95.6
3438.697	94.6
3441.628	78.6
3444.557	83.6
3447.483	82.6
3450.407	71.6
3453.328	78.6
3456.247	72.6
3459.164	67.6
3462.079	60.6
3464.991	60.6
3467.902	58.6
3470.809	49.6
3473.715	50.6
3476.618	41.6
3479.519	43.6
3482.418	43.6
3485.315	37.6
3488.209	25.6
3491.101	22.6
3493.99	35.6
3496.878	24.6
3499.763	20.6
3502.646	22.6
3505.527	23.6
3508.405	24.6
3511.281	21.6
3514.155	11.6
3517.027	4.6
3519.897	15.6
3522.764	6.6
3525.629	4.6
3528.492	0.6
3531.352	-0.4
3534.211	-1.4
3537.067	-10.4
3539.921	-6.4
3542.773	-16.4
3545.622	-16.4
3548.469	-11.4
3551.315	-4.4
3554.157	-17.4
3556.998	-14.4
3559.837	-9.4
3562.673	-20.4
3565.507	-15.4
3568.339	-14.4
3571.169	-18.4
3573.996	-10.4
3576.822	-26.4
3579.645	-22.4
3582.466	-27.4
3585.285	-25.4
3588.101	-29.4
3590.916	-26.4
3593.728	-32.4
3596.538	-31.4
3599.346	-35.4
3602.152	-34.4
3604.956	-34.4
3607.757	-27.4
3610.556	-34.4
3613.354	-39.4
3616.149	-38.4
3618.942	-36.4
3621.732	-42.4
3624.521	-33.4
3627.307	-35.4
3630.092	-38.4
3632.874	-41.4
3635.654	-35.4
3638.432	-37.4
3641.208	-39.4
3643.982	-35.4
3646.753	-43.4
3649.523	-42.4
3652.29	-41.4
3655.055	-42.4
3657.818	-46.4
3660.579	-46.4
3663.338	-49.4
3666.095	-42.4
3668.849	-48.4
3671.602	-46.4
3674.352	-49.4
3677.101	-46.4
3679.847	-47.4
3682.591	-50.4
3685.333	-50.4
3688.073	-52.4
3690.811	-49.4
3693.547	-49.4
3696.281	-46.4
3699.013	-49.4
3701.742	-53.4
3704.47	-44.4
3707.195	-48.4
3709.919	-46.4
3712.64	-55.4
3715.359	-50.4
3718.076	-55.4
3720.792	-52.4
3723.505	-50.4
3726.216	-48.4
3728.925	-54.4
3731.632	-51.4
3734.336	-48.4
3737.039	-48.4
3739.74	-57.4
3742.439	-61.4
3745.136	-55.4
3747.83	-55.4
3750.523	-63.4
3753.213	-64.4
3755.902	-57.4
3758.589	-58.4
3761.273	-52.4
3763.956	-51.4
3766.636	-55.4
3769.315	-51.4
3771.991	-54.4
3774.665	-53.4
3777.338	-53.4
3780.008	-50.4
3782.677	-54.4
3785.343	-53.4
3788.007	-50.4
3790.67	-56.4
3793.33	-54.4
3795.989	-58.4
3798.645	-59.4
3801.299	-55.4
3803.952	-53.4
3806.602	-57.4
3809.251	-57.4
3811.897	-63.4
3814.542	-64.4
3817.184	-56.4
3819.825	-49.4
3822.463	-57.4
3825.1	-52.4
3827.735	-60.4
3830.367	-57.4
3832.998	-60.4
3835.627	-53.4
3838.253	-55.4
3840.878	-54.4
3843.501	-53.4
3846.122	-54.4
3848.741	-57.4
3851.358	-53.4
3853.973	-53.4
3856.586	-55.4
3859.197	-58.4
3861.806	-60.4
3864.414	-61.4
3867.019	-64.4
3869.622	-52.4
3872.224	-47.4
3874.823	-38.4
3877.421	-33.4
3880.016	-20.4
3882.61	1.6
3885.202	2.6
3887.792	-5.4
3890.38	-26.4
3892.966	-36.4
3895.55	-48.4
3898.132	-53.4
3900.713	-52.4
3903.291	-60.4
3905.868	-53.4
3908.442	-53.4
3911.015	-57.4
3913.586	-58.4
3916.155	-57.4
3918.722	-62.4
3921.287	-62.4
3923.85	-49.4
3926.411	-59.4
3928.971	-65.4
3931.528	-60.4
3934.084	-56.4
3936.638	-56.4
3939.19	-60.4
3941.74	-56.4
3944.288	-55.4
3946.834	-55.4
3949.378	-63.4
3951.921	-63.4
3954.462	-57.4
3957	-49.4
3959.537	-48.4
3962.072	-51.4
3964.606	-52.4
3967.137	-48.4
3969.667	-58.4
3972.194	-54.4
3974.72	-49.4
3977.244	-52.4
3979.766	-54.4
3982.286	-58.4
3984.805	-68.4
3987.321	-56.4
3989.836	-55.4
3992.349	-60.4
3994.86	-61.4
3997.369	-60.4
3999.877	-56.4
4002.382	-59.4
4004.886	-57.4
4007.388	-57.4
4009.888	-55.4
4012.386	-55.4
4014.883	-49.4
4017.377	-49.4
4019.87	-53.4
4022.361	-61.4
4024.85	-57.4
4027.338	-65.4
4029.823	-57.4
4032.307	-59.4
4034.789	-53.4
4037.269	-54.4
4039.747	-56.4
4042.224	-59.4
4044.699	-58.4
4047.172	-62.4
4049.643	-57.4
4052.112	-62.4
4054.58	-56.4
4057.046	-54.4
4059.51	-59.4
4061.972	-60.4
4064.432	-53.4
4066.891	-54.4
4069.348	-51.4
4071.803	-48.4
4074.256	-59.4
4076.708	-55.4
4079.158	-57.4
4081.606	-54.4
4084.052	-60.4
4086.497	-57.4
4088.939	-55.4
4091.38	-60.4
4093.819	-64.4
4096.257	-57.4
4098.693	-57.4
4101.127	-53.4
4103.559	-63.4
4105.989	8.6
4108.418	3.6
4110.845	1.6
4113.27	1.6
4115.694	8.6
4118.115	-0.4
4120.535	-56.4
4122.954	-51.4
4125.37	-56.4
4127.785	-56.4
4130.198	-55.4
4132.609	-62.4
4135.019	-61.4
4137.427	-62.4
4139.833	-63.4
4142.237	-58.4
