Data from 2018-3-7_conc=2_n=2_RamanShift_02.txt Node
Date: Wed Mar 07 10:42:52 IST 2018
User: aro
Spectrometer: QEPB0276
Trigger mode: 0
Integration Time (sec): 3.000000E1
Scans to average: 1
Electric dark correction enabled: true
Nonlinearity correction enabled: false
Boxcar width: 0
XAxis mode: Raman Shifts
Number of Pixels in Spectrum: 1044
>>>>>Begin Spectral Data<<<<<
160.701	15.8
166.742	28.8
172.777	65.8
178.805	171.8
184.826	451.8
190.841	960.8
196.849	1581.8
202.85	2045.8
208.845	2242.8
214.833	2250.8
220.815	2242.8
226.789	2233.8
232.758	2228.8
238.719	2224.8
244.674	2222.8
250.623	2230.8
256.565	2193.8
262.5	2175.8
268.429	2152.8
274.351	2127.8
280.267	2126.8
286.176	2124.8
292.079	2129.8
297.975	2145.8
303.865	2119.8
309.748	2121.8
315.625	2112.8
321.495	2158.8
327.359	2134.8
333.217	2125.8
339.068	2148.8
344.912	2139.8
350.751	2156.8
356.583	2136.8
362.408	2139.8
368.227	2166.8
374.04	2168.8
379.847	2175.8
385.647	2175.8
391.44	2205.8
397.228	2223.8
403.009	2235.8
408.784	2252.8
414.553	2255.8
420.315	2262.8
426.071	2270.8
431.821	2272.8
437.565	2260.8
443.302	2245.8
449.033	2251.8
454.758	2221.8
460.477	2224.8
466.189	2204.8
471.896	2185.8
477.596	2164.8
483.29	2146.8
488.978	2152.8
494.66	2150.8
500.335	2087.8
506.005	2040.8
511.668	1942.8
517.325	1860.8
522.977	1801.8
528.622	1759.8
534.261	1720.8
539.894	1683.8
545.521	1677.8
551.141	1655.8
556.756	1629.8
562.365	1635.8
567.968	1613.8
573.565	1589.8
579.155	1578.8
584.74	1582.8
590.319	1575.8
595.892	1581.8
601.459	1573.8
607.02	1554.8
612.575	1564.8
618.124	1529.8
623.667	1517.8
629.204	1514.8
634.735	1488.8
640.261	1478.8
645.781	1467.8
651.294	1479.8
656.802	1438.8
662.304	1457.8
667.8	1445.8
673.29	1431.8
678.775	1451.8
684.254	1431.8
689.726	1422.8
695.193	1404.8
700.655	1408.8
706.11	1415.8
711.56	1396.8
717.004	1390.8
722.442	1382.8
727.874	1375.8
733.301	1367.8
738.722	1353.8
744.137	1347.8
749.547	1358.8
754.951	1351.8
760.349	1342.8
765.741	1353.8
771.128	1349.8
776.509	1387.8
781.885	1385.8
787.254	1401.8
792.618	1403.8
797.977	1387.8
803.33	1379.8
808.677	1377.8
814.019	1366.8
819.355	1337.8
824.686	1334.8
830.011	1334.8
835.33	1322.8
840.644	1334.8
845.952	1320.8
851.255	1298.8
856.552	1307.8
861.844	1292.8
867.13	1275.8
872.41	1268.8
877.686	1277.8
882.955	1282.8
888.219	1264.8
893.478	1234.8
898.731	1215.8
903.979	1194.8
909.221	1197.8
914.458	1167.8
919.69	1182.8
924.916	1179.8
930.136	1179.8
935.351	1189.8
940.561	1179.8
945.766	1185.8
950.965	1176.8
956.158	1172.8
961.347	1173.8
966.529	1144.8
971.707	1117.8
976.879	1096.8
982.046	1108.8
987.208	1095.8
992.364	1092.8
997.515	1099.8
1002.66	1105.8
1007.801	1111.8
1012.936	1110.8
1018.066	1139.8
1023.19	1130.8
1028.309	1133.8
1033.423	1124.8
1038.532	1117.8
1043.636	1118.8
1048.734	1113.8
1053.827	1101.8
1058.915	1078.8
1063.998	1070.8
1069.075	1074.8
1074.147	1053.8
1079.214	1066.8
1084.276	1079.8
1089.333	1080.8
1094.385	1077.8
1099.431	1070.8
1104.472	1078.8
1109.509	1074.8
1114.54	1053.8
1119.565	1040.8
1124.586	1013.8
1129.602	1009.8
1134.613	1006.8
1139.618	1001.8
1144.619	981.8
1149.614	982.8
1154.604	988.8
1159.589	1004.8
1164.57	1001.8
1169.545	1003.8
1174.515	998.8
1179.48	996.8
1184.44	974.8
1189.395	986.8
1194.345	971.8
1199.29	957.8
1204.23	960.8
1209.165	968.8
1214.095	971.8
1219.021	977.8
1223.941	980.8
1228.856	999.8
1233.766	1005.8
1238.672	990.8
1243.572	984.8
1248.467	989.8
1253.358	966.8
1258.244	953.8
1263.124	944.8
1268	924.8
1272.871	910.8
1277.737	901.8
1282.599	894.8
1287.455	898.8
1292.306	892.8
1297.153	905.8
1301.995	921.8
1306.832	924.8
1311.664	926.8
1316.491	921.8
1321.314	907.8
1326.132	903.8
1330.945	879.8
1335.753	866.8
1340.556	842.8
1345.354	847.8
1350.148	822.8
1354.937	807.8
1359.722	779.8
1364.501	769.8
1369.276	757.8
1374.046	743.8
1378.811	743.8
1383.572	736.8
1388.327	736.8
1393.079	739.8
1397.825	751.8
1402.567	743.8
1407.304	740.8
1412.036	751.8
1416.764	750.8
1421.487	761.8
1426.205	753.8
1430.919	749.8
1435.628	762.8
1440.333	770.8
1445.032	751.8
1449.727	782.8
1454.418	788.8
1459.104	764.8
1463.785	758.8
1468.462	753.8
1473.134	724.8
1477.802	708.8
1482.465	680.8
1487.123	678.8
1491.777	641.8
1496.426	644.8
1501.071	638.8
1505.711	625.8
1510.347	613.8
1514.978	618.8
1519.604	614.8
1524.226	614.8
1528.844	616.8
1533.457	607.8
1538.065	611.8
1542.669	611.8
1547.269	604.8
1551.864	613.8
1556.454	628.8
1561.041	645.8
1565.622	644.8
1570.199	639.8
1574.772	640.8
1579.34	665.8
1583.904	658.8
1588.464	681.8
1593.019	666.8
1597.569	675.8
1602.115	673.8
1606.657	671.8
1611.195	655.8
1615.728	685.8
1620.256	659.8
1624.78	671.8
1629.3	668.8
1633.816	657.8
1638.327	661.8
1642.834	657.8
1647.336	640.8
1651.834	651.8
1656.328	652.8
1660.817	658.8
1665.302	633.8
1669.783	620.8
1674.259	613.8
1678.732	589.8
1683.199	568.8
1687.663	547.8
1692.122	514.8
1696.577	496.8
1701.028	478.8
1705.474	454.8
1709.917	434.8
1714.355	431.8
1718.788	439.8
1723.218	426.8
1727.643	433.8
1732.064	435.8
1736.481	440.8
1740.893	423.8
1745.301	420.8
1749.705	409.8
1754.105	401.8
1758.501	378.8
1762.893	370.8
1767.28	373.8
1771.663	362.8
1776.042	361.8
1780.417	347.8
1784.787	348.8
1789.154	347.8
1793.516	329.8
1797.874	317.8
1802.228	328.8
1806.578	321.8
1810.924	304.8
1815.266	312.8
1819.603	321.8
1823.937	323.8
1828.266	319.8
1832.591	322.8
1836.913	327.8
1841.23	337.8
1845.543	316.8
1849.852	328.8
1854.156	340.8
1858.457	326.8
1862.754	335.8
1867.047	327.8
1871.335	324.8
1875.62	331.8
1879.9	318.8
1884.177	317.8
1888.449	312.8
1892.718	310.8
1896.982	300.8
1901.243	295.8
1905.499	284.8
1909.752	280.8
1914	271.8
1918.245	264.8
1922.485	269.8
1926.722	254.8
1930.954	260.8
1935.183	254.8
1939.408	254.8
1943.628	249.8
1947.845	245.8
1952.058	252.8
1956.267	240.8
1960.472	246.8
1964.673	229.8
1968.87	245.8
1973.063	242.8
1977.252	242.8
1981.438	246.8
1985.619	241.8
1989.797	247.8
1993.971	243.8
1998.14	248.8
2002.306	252.8
2006.469	246.8
2010.627	244.8
2014.781	250.8
2018.932	253.8
2023.078	256.8
2027.221	251.8
2031.36	247.8
2035.495	239.8
2039.627	226.8
2043.754	230.8
2047.878	234.8
2051.998	225.8
2056.114	221.8
2060.226	218.8
2064.334	215.8
2068.439	213.8
2072.54	214.8
2076.637	217.8
2080.73	213.8
2084.82	206.8
2088.906	210.8
2092.988	204.8
2097.066	203.8
2101.14	201.8
2105.211	191.8
2109.278	189.8
2113.342	189.8
2117.401	191.8
2121.457	183.8
2125.509	187.8
2129.558	187.8
2133.602	185.8
2137.643	184.8
2141.681	187.8
2145.714	176.8
2149.744	193.8
2153.77	185.8
2157.793	191.8
2161.812	196.8
2165.827	187.8
2169.838	182.8
2173.846	188.8
2177.851	173.8
2181.851	179.8
2185.848	172.8
2189.841	168.8
2193.831	167.8
2197.817	182.8
2201.799	173.8
2205.778	180.8
2209.753	173.8
2213.725	169.8
2217.693	175.8
2221.657	175.8
2225.618	172.8
2229.575	166.8
2233.529	168.8
2237.479	166.8
2241.425	162.8
2245.368	161.8
2249.307	161.8
2253.243	167.8
2257.175	158.8
2261.104	147.8
2265.029	148.8
2268.95	153.8
2272.868	152.8
2276.783	146.8
2280.694	137.8
2284.601	133.8
2288.505	139.8
2292.405	144.8
2296.302	143.8
2300.195	140.8
2304.085	130.8
2307.971	129.8
2311.854	126.8
2315.734	122.8
2319.609	134.8
2323.482	127.8
2327.351	136.8
2331.216	149.8
2335.078	164.8
2338.937	146.8
2342.792	132.8
2346.643	133.8
2350.492	134.8
2354.336	129.8
2358.178	118.8
2362.015	130.8
2365.85	130.8
2369.681	148.8
2373.508	132.8
2377.333	132.8
2381.153	127.8
2384.971	128.8
2388.785	129.8
2392.595	127.8
2396.402	129.8
2400.206	127.8
2404.007	128.8
2407.804	123.8
2411.597	124.8
2415.388	115.8
2419.174	127.8
2422.958	121.8
2426.738	123.8
2430.515	127.8
2434.289	113.8
2438.059	111.8
2441.825	116.8
2445.589	117.8
2449.349	112.8
2453.106	121.8
2456.859	109.8
2460.61	115.8
2464.356	109.8
2468.1	111.8
2471.84	106.8
2475.577	93.8
2479.311	103.8
2483.041	104.8
2486.768	96.8
2490.492	99.8
2494.213	96.8
2497.93	96.8
2501.644	103.8
2505.355	96.8
2509.062	96.8
2512.766	94.8
2516.467	94.8
2520.165	87.8
2523.859	87.8
2527.551	84.8
2531.239	84.8
2534.923	76.8
2538.605	86.8
2542.283	75.8
2545.958	73.8
2549.63	79.8
2553.299	74.8
2556.964	68.8
2560.626	76.8
2564.285	73.8
2567.941	69.8
2571.594	67.8
2575.243	72.8
2578.89	63.8
2582.533	67.8
2586.173	67.8
2589.809	68.8
2593.443	70.8
2597.073	60.8
2600.701	63.8
2604.325	54.8
2607.946	52.8
2611.564	59.8
2615.178	62.8
2618.79	60.8
2622.398	65.8
2626.004	63.8
2629.606	57.8
2633.205	59.8
2636.801	54.8
2640.394	56.8
2643.983	48.8
2647.57	46.8
2651.153	49.8
2654.734	49.8
2658.311	50.8
2661.885	51.8
2665.456	54.8
2669.025	53.8
2672.589	42.8
2676.151	52.8
2679.71	39.8
2683.266	42.8
2686.819	44.8
2690.368	48.8
2693.915	44.8
2697.458	43.8
2700.999	50.8
2704.536	47.8
2708.071	42.8
2711.602	37.8
2715.13	35.8
2718.656	37.8
2722.178	36.8
2725.697	37.8
2729.214	34.8
2732.727	41.8
2736.237	35.8
2739.744	31.8
2743.249	29.8
2746.75	37.8
2750.248	20.8
2753.743	26.8
2757.236	28.8
2760.725	20.8
2764.211	20.8
2767.695	20.8
2771.175	13.8
2774.652	22.8
2778.127	23.8
2781.598	21.8
2785.067	22.8
2788.532	20.8
2791.995	24.8
2795.455	21.8
2798.911	19.8
2802.365	21.8
2805.816	15.8
2809.264	21.8
2812.709	19.8
2816.151	24.8
2819.59	33.8
2823.026	25.8
2826.46	29.8
2829.89	27.8
2833.318	21.8
2836.742	27.8
2840.164	21.8
2843.583	19.8
2846.999	19.8
2850.412	26.8
2853.822	19.8
2857.229	32.8
2860.634	18.8
2864.035	29.8
2867.434	26.8
2870.83	32.8
2874.223	33.8
2877.613	38.8
2881	35.8
2884.385	43.8
2887.766	39.8
2891.145	43.8
2894.521	49.8
2897.894	39.8
2901.264	41.8
2904.631	42.8
2907.996	42.8
2911.358	45.8
2914.717	36.8
2918.073	45.8
2921.426	43.8
2924.777	52.8
2928.124	47.8
2931.469	52.8
2934.811	65.8
2938.15	59.8
2941.487	70.8
2944.821	55.8
2948.152	60.8
2951.48	58.8
2954.805	61.8
2958.128	51.8
2961.447	52.8
2964.765	50.8
2968.079	42.8
2971.39	49.8
2974.699	48.8
2978.005	52.8
2981.308	45.8
2984.609	43.8
2987.907	49.8
2991.202	53.8
2994.494	45.8
2997.784	45.8
3001.07	44.8
3004.355	51.8
3007.636	55.8
3010.915	56.8
3014.191	49.8
3017.464	53.8
3020.734	59.8
3024.002	62.8
3027.267	60.8
3030.53	60.8
3033.789	60.8
3037.046	56.8
3040.301	60.8
3043.552	63.8
3046.801	68.8
3050.048	75.8
3053.291	79.8
3056.532	78.8
3059.771	84.8
3063.006	84.8
3066.239	84.8
3069.469	95.8
3072.697	100.8
3075.922	108.8
3079.144	98.8
3082.364	106.8
3085.581	108.8
3088.795	113.8
3092.007	117.8
3095.216	122.8
3098.423	114.8
3101.627	116.8
3104.828	130.8
3108.026	129.8
3111.222	129.8
3114.416	134.8
3117.607	144.8
3120.795	141.8
3123.98	142.8
3127.163	157.8
3130.344	154.8
3133.521	152.8
3136.696	158.8
3139.869	167.8
3143.039	164.8
3146.206	169.8
3149.371	161.8
3152.533	174.8
3155.693	170.8
3158.85	179.8
3162.005	176.8
3165.157	175.8
3168.306	173.8
3171.453	177.8
3174.597	176.8
3177.739	182.8
3180.878	178.8
3184.014	180.8
3187.149	176.8
3190.28	184.8
3193.409	179.8
3196.536	178.8
3199.659	189.8
3202.781	185.8
3205.9	178.8
3209.016	172.8
3212.13	177.8
3215.241	181.8
3218.35	172.8
3221.456	169.8
3224.56	168.8
3227.661	171.8
3230.76	164.8
3233.856	165.8
3236.95	151.8
3240.041	148.8
3243.13	158.8
3246.216	143.8
3249.3	142.8
3252.382	141.8
3255.46	144.8
3258.537	131.8
3261.611	129.8
3264.682	142.8
3267.751	136.8
3270.818	137.8
3273.882	132.8
3276.943	133.8
3280.002	131.8
3283.059	120.8
3286.113	126.8
3289.165	125.8
3292.214	127.8
3295.261	135.8
3298.306	118.8
3301.348	122.8
3304.387	129.8
3307.425	120.8
3310.459	116.8
3313.492	123.8
3316.521	112.8
3319.549	119.8
3322.574	114.8
3325.597	114.8
3328.617	112.8
3331.635	118.8
3334.65	120.8
3337.663	106.8
3340.674	122.8
3343.682	110.8
3346.688	114.8
3349.691	114.8
3352.692	116.8
3355.691	117.8
3358.687	114.8
3361.681	112.8
3364.673	108.8
3367.662	112.8
3370.649	115.8
3373.633	108.8
3376.615	106.8
3379.595	96.8
3382.572	100.8
3385.547	96.8
3388.52	98.8
3391.49	87.8
3394.458	89.8
3397.424	88.8
3400.387	90.8
3403.348	82.8
3406.307	84.8
3409.263	90.8
3412.217	85.8
3415.168	82.8
3418.118	76.8
3421.065	67.8
3424.009	72.8
3426.951	69.8
3429.891	66.8
3432.829	60.8
3435.764	67.8
3438.697	65.8
3441.628	61.8
3444.557	66.8
3447.483	57.8
3450.407	42.8
3453.328	47.8
3456.247	44.8
3459.164	45.8
3462.079	34.8
3464.991	38.8
3467.902	33.8
3470.809	35.8
3473.715	25.8
3476.618	21.8
3479.519	16.8
3482.418	18.8
3485.315	10.8
3488.209	11.8
3491.101	12.8
3493.99	10.8
3496.878	1.8
3499.763	5.8
3502.646	7.8
3505.527	3.8
3508.405	-1.2
3511.281	-2.2
3514.155	-5.2
3517.027	-11.2
3519.897	-0.2
3522.764	-15.2
3525.629	-14.2
3528.492	-14.2
3531.352	-15.2
3534.211	-18.2
3537.067	-22.2
3539.921	-17.2
3542.773	-25.2
3545.622	-25.2
3548.469	-29.2
3551.315	-27.2
3554.157	-28.2
3556.998	-30.2
3559.837	-34.2
3562.673	-31.2
3565.507	-30.2
3568.339	-23.2
3571.169	-34.2
3573.996	-28.2
3576.822	-37.2
3579.645	-41.2
3582.466	-41.2
3585.285	-41.2
3588.101	-41.2
3590.916	-41.2
3593.728	-46.2
3596.538	-44.2
3599.346	-44.2
3602.152	-42.2
3604.956	-47.2
3607.757	-38.2
3610.556	-42.2
3613.354	-51.2
3616.149	-52.2
3618.942	-45.2
3621.732	-54.2
3624.521	-41.2
3627.307	-45.2
3630.092	-51.2
3632.874	-51.2
3635.654	-51.2
3638.432	-48.2
3641.208	-53.2
3643.982	-49.2
3646.753	-57.2
3649.523	-50.2
3652.29	-55.2
3655.055	-52.2
3657.818	-53.2
3660.579	-50.2
3663.338	-52.2
3666.095	-57.2
3668.849	-55.2
3671.602	-56.2
3674.352	-51.2
3677.101	-57.2
3679.847	-55.2
3682.591	-57.2
3685.333	-55.2
3688.073	-61.2
3690.811	-53.2
3693.547	-58.2
3696.281	-52.2
3699.013	-58.2
3701.742	-63.2
3704.47	-54.2
3707.195	-65.2
3709.919	-62.2
3712.64	-56.2
3715.359	-52.2
3718.076	-63.2
3720.792	-61.2
3723.505	-62.2
3726.216	-58.2
3728.925	-63.2
3731.632	-58.2
3734.336	-65.2
3737.039	-59.2
3739.74	-65.2
3742.439	-70.2
3745.136	-63.2
3747.83	-62.2
3750.523	-64.2
3753.213	-63.2
3755.902	-68.2
3758.589	-64.2
3761.273	-67.2
3763.956	-66.2
3766.636	-63.2
3769.315	-58.2
3771.991	-65.2
3774.665	-64.2
3777.338	-64.2
3780.008	-61.2
3782.677	-69.2
3785.343	-61.2
3788.007	-67.2
3790.67	-68.2
3793.33	-69.2
3795.989	-69.2
3798.645	-65.2
3801.299	-65.2
3803.952	-62.2
3806.602	-64.2
3809.251	-63.2
3811.897	-70.2
3814.542	-72.2
3817.184	-63.2
3819.825	-64.2
3822.463	-65.2
3825.1	-63.2
3827.735	-76.2
3830.367	-65.2
3832.998	-65.2
3835.627	-66.2
3838.253	-61.2
3840.878	-61.2
3843.501	-59.2
3846.122	-67.2
3848.741	-68.2
3851.358	-69.2
3853.973	-68.2
3856.586	-63.2
3859.197	-62.2
3861.806	-65.2
3864.414	-65.2
3867.019	-66.2
3869.622	-61.2
3872.224	-54.2
3874.823	-45.2
3877.421	-41.2
3880.016	-28.2
3882.61	-8.2
3885.202	-10.2
3887.792	-14.2
3890.38	-29.2
3892.966	-49.2
3895.55	-65.2
3898.132	-62.2
3900.713	-67.2
3903.291	-72.2
3905.868	-64.2
3908.442	-67.2
3911.015	-66.2
3913.586	-72.2
3916.155	-67.2
3918.722	-69.2
3921.287	-67.2
3923.85	-61.2
3926.411	-69.2
3928.971	-69.2
3931.528	-77.2
3934.084	-66.2
3936.638	-65.2
3939.19	-68.2
3941.74	-64.2
3944.288	-66.2
3946.834	-66.2
3949.378	-63.2
3951.921	-69.2
3954.462	-66.2
3957	-62.2
3959.537	-62.2
3962.072	-62.2
3964.606	-64.2
3967.137	-60.2
3969.667	-70.2
3972.194	-61.2
3974.72	-60.2
3977.244	-63.2
3979.766	-69.2
3982.286	-72.2
3984.805	-70.2
3987.321	-63.2
3989.836	-63.2
3992.349	-69.2
3994.86	-68.2
3997.369	-65.2
3999.877	-66.2
4002.382	-64.2
4004.886	-66.2
4007.388	-67.2
4009.888	-63.2
4012.386	-68.2
4014.883	-61.2
4017.377	-65.2
4019.87	-66.2
4022.361	-72.2
4024.85	-60.2
4027.338	-66.2
4029.823	-67.2
4032.307	-69.2
4034.789	-59.2
4037.269	-62.2
4039.747	-67.2
4042.224	-66.2
4044.699	-72.2
4047.172	-69.2
4049.643	-69.2
4052.112	-64.2
4054.58	-64.2
4057.046	-61.2
4059.51	-64.2
4061.972	-67.2
4064.432	-67.2
4066.891	-59.2
4069.348	-63.2
4071.803	-58.2
4074.256	-67.2
4076.708	-68.2
4079.158	-74.2
4081.606	-68.2
4084.052	-64.2
4086.497	-59.2
4088.939	-60.2
4091.38	-74.2
4093.819	-68.2
4096.257	-66.2
4098.693	-71.2
4101.127	-63.2
4103.559	-75.2
4105.989	20.8
4108.418	13.8
4110.845	9.8
4113.27	13.8
4115.694	20.8
4118.115	15.8
4120.535	-64.2
4122.954	-66.2
4125.37	-62.2
4127.785	-63.2
4130.198	-67.2
4132.609	-71.2
4135.019	-70.2
4137.427	-74.2
4139.833	-71.2
4142.237	-66.2
