Data from 2018-3-7_conc=2_n=8_RamanShift_05.txt Node
Date: Wed Mar 07 11:03:22 IST 2018
User: aro
Spectrometer: QEPB0276
Trigger mode: 0
Integration Time (sec): 3.000000E1
Scans to average: 1
Electric dark correction enabled: true
Nonlinearity correction enabled: false
Boxcar width: 0
XAxis mode: Raman Shifts
Number of Pixels in Spectrum: 1044
>>>>>Begin Spectral Data<<<<<
160.701	16.4
166.742	23.4
172.777	48.4
178.805	137.4
184.826	345.4
190.841	705.4
196.849	1171.4
202.85	1524.4
208.845	1666.4
214.833	1705.4
220.815	1648.4
226.789	1653.4
232.758	1664.4
238.719	1664.4
244.674	1664.4
250.623	1649.4
256.565	1639.4
262.5	1608.4
268.429	1599.4
274.351	1582.4
280.267	1572.4
286.176	1572.4
292.079	1576.4
297.975	1561.4
303.865	1581.4
309.748	1571.4
315.625	1561.4
321.495	1573.4
327.359	1582.4
333.217	1579.4
339.068	1583.4
344.912	1612.4
350.751	1600.4
356.583	1599.4
362.408	1603.4
368.227	1588.4
374.04	1612.4
379.847	1619.4
385.647	1623.4
391.44	1648.4
397.228	1643.4
403.009	1657.4
408.784	1665.4
414.553	1686.4
420.315	1664.4
426.071	1668.4
431.821	1677.4
437.565	1678.4
443.302	1675.4
449.033	1648.4
454.758	1658.4
460.477	1643.4
466.189	1629.4
471.896	1611.4
477.596	1597.4
483.29	1618.4
488.978	1588.4
494.66	1584.4
500.335	1554.4
506.005	1491.4
511.668	1433.4
517.325	1366.4
522.977	1305.4
528.622	1271.4
534.261	1234.4
539.894	1204.4
545.521	1200.4
551.141	1197.4
556.756	1177.4
562.365	1180.4
567.968	1162.4
573.565	1158.4
579.155	1150.4
584.74	1150.4
590.319	1141.4
595.892	1136.4
601.459	1128.4
607.02	1137.4
612.575	1121.4
618.124	1111.4
623.667	1092.4
629.204	1082.4
634.735	1060.4
640.261	1059.4
645.781	1057.4
651.294	1051.4
656.802	1025.4
662.304	1045.4
667.8	1027.4
673.29	1043.4
678.775	1030.4
684.254	1031.4
689.726	1025.4
695.193	1015.4
700.655	1015.4
706.11	999.4
711.56	989.4
717.004	985.4
722.442	986.4
727.874	986.4
733.301	970.4
738.722	964.4
744.137	977.4
749.547	979.4
754.951	954.4
760.349	958.4
765.741	984.4
771.128	975.4
776.509	972.4
781.885	1001.4
787.254	1007.4
792.618	1010.4
797.977	1002.4
803.33	992.4
808.677	993.4
814.019	973.4
819.355	975.4
824.686	960.4
830.011	964.4
835.33	948.4
840.644	946.4
845.952	949.4
851.255	939.4
856.552	940.4
861.844	942.4
867.13	925.4
872.41	909.4
877.686	916.4
882.955	927.4
888.219	902.4
893.478	893.4
898.731	860.4
903.979	858.4
909.221	852.4
914.458	837.4
919.69	847.4
924.916	843.4
930.136	841.4
935.351	857.4
940.561	841.4
945.766	837.4
950.965	831.4
956.158	830.4
961.347	830.4
966.529	818.4
971.707	791.4
976.879	780.4
982.046	782.4
987.208	778.4
992.364	785.4
997.515	791.4
1002.66	796.4
1007.801	800.4
1012.936	794.4
1018.066	821.4
1023.19	801.4
1028.309	819.4
1033.423	814.4
1038.532	808.4
1043.636	792.4
1048.734	794.4
1053.827	787.4
1058.915	778.4
1063.998	769.4
1069.075	759.4
1074.147	776.4
1079.214	754.4
1084.276	764.4
1089.333	776.4
1094.385	773.4
1099.431	769.4
1104.472	767.4
1109.509	754.4
1114.54	754.4
1119.565	734.4
1124.586	725.4
1129.602	720.4
1134.613	720.4
1139.618	713.4
1144.619	711.4
1149.614	714.4
1154.604	720.4
1159.589	715.4
1164.57	715.4
1169.545	719.4
1174.515	717.4
1179.48	723.4
1184.44	724.4
1189.395	704.4
1194.345	698.4
1199.29	694.4
1204.23	696.4
1209.165	692.4
1214.095	702.4
1219.021	697.4
1223.941	707.4
1228.856	708.4
1233.766	704.4
1238.672	724.4
1243.572	707.4
1248.467	707.4
1253.358	709.4
1258.244	686.4
1263.124	674.4
1268	657.4
1272.871	649.4
1277.737	649.4
1282.599	647.4
1287.455	643.4
1292.306	650.4
1297.153	650.4
1301.995	656.4
1306.832	653.4
1311.664	662.4
1316.491	658.4
1321.314	671.4
1326.132	660.4
1330.945	639.4
1335.753	626.4
1340.556	604.4
1345.354	591.4
1350.148	597.4
1354.937	579.4
1359.722	553.4
1364.501	554.4
1369.276	552.4
1374.046	541.4
1378.811	537.4
1383.572	531.4
1388.327	525.4
1393.079	530.4
1397.825	538.4
1402.567	538.4
1407.304	545.4
1412.036	546.4
1416.764	544.4
1421.487	550.4
1426.205	540.4
1430.919	539.4
1435.628	542.4
1440.333	564.4
1445.032	553.4
1449.727	566.4
1454.418	564.4
1459.104	554.4
1463.785	540.4
1468.462	531.4
1473.134	518.4
1477.802	505.4
1482.465	488.4
1487.123	483.4
1491.777	470.4
1496.426	467.4
1501.071	457.4
1505.711	456.4
1510.347	455.4
1514.978	461.4
1519.604	450.4
1524.226	445.4
1528.844	453.4
1533.457	442.4
1538.065	447.4
1542.669	442.4
1547.269	443.4
1551.864	450.4
1556.454	463.4
1561.041	474.4
1565.622	478.4
1570.199	468.4
1574.772	468.4
1579.34	480.4
1583.904	482.4
1588.464	497.4
1593.019	492.4
1597.569	484.4
1602.115	485.4
1606.657	482.4
1611.195	487.4
1615.728	484.4
1620.256	480.4
1624.78	475.4
1629.3	478.4
1633.816	480.4
1638.327	500.4
1642.834	484.4
1647.336	483.4
1651.834	471.4
1656.328	475.4
1660.817	479.4
1665.302	470.4
1669.783	463.4
1674.259	455.4
1678.732	441.4
1683.199	416.4
1687.663	404.4
1692.122	392.4
1696.577	368.4
1701.028	348.4
1705.474	339.4
1709.917	326.4
1714.355	328.4
1718.788	320.4
1723.218	324.4
1727.643	319.4
1732.064	326.4
1736.481	324.4
1740.893	305.4
1745.301	311.4
1749.705	305.4
1754.105	293.4
1758.501	285.4
1762.893	284.4
1767.28	271.4
1771.663	267.4
1776.042	276.4
1780.417	261.4
1784.787	260.4
1789.154	249.4
1793.516	236.4
1797.874	243.4
1802.228	253.4
1806.578	245.4
1810.924	246.4
1815.266	233.4
1819.603	239.4
1823.937	251.4
1828.266	238.4
1832.591	245.4
1836.913	236.4
1841.23	243.4
1845.543	238.4
1849.852	235.4
1854.156	248.4
1858.457	246.4
1862.754	248.4
1867.047	243.4
1871.335	240.4
1875.62	241.4
1879.9	240.4
1884.177	229.4
1888.449	241.4
1892.718	233.4
1896.982	225.4
1901.243	220.4
1905.499	216.4
1909.752	208.4
1914	213.4
1918.245	206.4
1922.485	196.4
1926.722	197.4
1930.954	196.4
1935.183	198.4
1939.408	198.4
1943.628	192.4
1947.845	203.4
1952.058	194.4
1956.267	189.4
1960.472	185.4
1964.673	179.4
1968.87	178.4
1973.063	189.4
1977.252	185.4
1981.438	187.4
1985.619	183.4
1989.797	181.4
1993.971	191.4
1998.14	185.4
2002.306	184.4
2006.469	199.4
2010.627	188.4
2014.781	188.4
2018.932	185.4
2023.078	185.4
2027.221	180.4
2031.36	189.4
2035.495	177.4
2039.627	170.4
2043.754	177.4
2047.878	169.4
2051.998	173.4
2056.114	162.4
2060.226	167.4
2064.334	174.4
2068.439	161.4
2072.54	164.4
2076.637	161.4
2080.73	164.4
2084.82	163.4
2088.906	161.4
2092.988	155.4
2097.066	149.4
2101.14	156.4
2105.211	152.4
2109.278	151.4
2113.342	139.4
2117.401	154.4
2121.457	141.4
2125.509	142.4
2129.558	146.4
2133.602	141.4
2137.643	141.4
2141.681	143.4
2145.714	144.4
2149.744	144.4
2153.77	149.4
2157.793	148.4
2161.812	154.4
2165.827	148.4
2169.838	143.4
2173.846	138.4
2177.851	135.4
2181.851	137.4
2185.848	133.4
2189.841	130.4
2193.831	127.4
2197.817	135.4
2201.799	133.4
2205.778	126.4
2209.753	135.4
2213.725	119.4
2217.693	125.4
2221.657	138.4
2225.618	123.4
2229.575	120.4
2233.529	126.4
2237.479	133.4
2241.425	120.4
2245.368	120.4
2249.307	112.4
2253.243	112.4
2257.175	114.4
2261.104	104.4
2265.029	113.4
2268.95	117.4
2272.868	112.4
2276.783	110.4
2280.694	96.4
2284.601	101.4
2288.505	106.4
2292.405	109.4
2296.302	110.4
2300.195	103.4
2304.085	97.4
2307.971	94.4
2311.854	93.4
2315.734	100.4
2319.609	102.4
2323.482	93.4
2327.351	99.4
2331.216	106.4
2335.078	122.4
2338.937	110.4
2342.792	104.4
2346.643	97.4
2350.492	99.4
2354.336	100.4
2358.178	86.4
2362.015	93.4
2365.85	94.4
2369.681	92.4
2373.508	100.4
2377.333	103.4
2381.153	92.4
2384.971	88.4
2388.785	93.4
2392.595	104.4
2396.402	97.4
2400.206	90.4
2404.007	95.4
2407.804	86.4
2411.597	92.4
2415.388	86.4
2419.174	91.4
2422.958	87.4
2426.738	91.4
2430.515	90.4
2434.289	93.4
2438.059	82.4
2441.825	85.4
2445.589	78.4
2449.349	86.4
2453.106	89.4
2456.859	78.4
2460.61	86.4
2464.356	77.4
2468.1	74.4
2471.84	69.4
2475.577	71.4
2479.311	68.4
2483.041	66.4
2486.768	75.4
2490.492	74.4
2494.213	74.4
2497.93	72.4
2501.644	77.4
2505.355	71.4
2509.062	70.4
2512.766	67.4
2516.467	58.4
2520.165	63.4
2523.859	63.4
2527.551	62.4
2531.239	61.4
2534.923	60.4
2538.605	56.4
2542.283	53.4
2545.958	57.4
2549.63	58.4
2553.299	56.4
2556.964	53.4
2560.626	60.4
2564.285	56.4
2567.941	51.4
2571.594	52.4
2575.243	50.4
2578.89	44.4
2582.533	43.4
2586.173	53.4
2589.809	53.4
2593.443	55.4
2597.073	45.4
2600.701	47.4
2604.325	38.4
2607.946	38.4
2611.564	41.4
2615.178	43.4
2618.79	41.4
2622.398	47.4
2626.004	37.4
2629.606	38.4
2633.205	41.4
2636.801	42.4
2640.394	52.4
2643.983	38.4
2647.57	44.4
2651.153	36.4
2654.734	33.4
2658.311	34.4
2661.885	37.4
2665.456	39.4
2669.025	37.4
2672.589	35.4
2676.151	35.4
2679.71	36.4
2683.266	32.4
2686.819	44.4
2690.368	36.4
2693.915	41.4
2697.458	31.4
2700.999	32.4
2704.536	32.4
2708.071	25.4
2711.602	27.4
2715.13	18.4
2718.656	26.4
2722.178	20.4
2725.697	19.4
2729.214	22.4
2732.727	24.4
2736.237	28.4
2739.744	20.4
2743.249	27.4
2746.75	22.4
2750.248	18.4
2753.743	21.4
2757.236	9.4
2760.725	15.4
2764.211	10.4
2767.695	11.4
2771.175	15.4
2774.652	17.4
2778.127	15.4
2781.598	13.4
2785.067	19.4
2788.532	11.4
2791.995	13.4
2795.455	9.4
2798.911	14.4
2802.365	18.4
2805.816	10.4
2809.264	17.4
2812.709	12.4
2816.151	18.4
2819.59	31.4
2823.026	15.4
2826.46	17.4
2829.89	18.4
2833.318	21.4
2836.742	15.4
2840.164	10.4
2843.583	16.4
2846.999	20.4
2850.412	17.4
2853.822	17.4
2857.229	16.4
2860.634	21.4
2864.035	15.4
2867.434	14.4
2870.83	33.4
2874.223	25.4
2877.613	23.4
2881	24.4
2884.385	29.4
2887.766	26.4
2891.145	23.4
2894.521	29.4
2897.894	30.4
2901.264	31.4
2904.631	25.4
2907.996	35.4
2911.358	36.4
2914.717	28.4
2918.073	25.4
2921.426	28.4
2924.777	31.4
2928.124	35.4
2931.469	36.4
2934.811	42.4
2938.15	40.4
2941.487	44.4
2944.821	43.4
2948.152	48.4
2951.48	43.4
2954.805	39.4
2958.128	34.4
2961.447	43.4
2964.765	33.4
2968.079	34.4
2971.39	37.4
2974.699	30.4
2978.005	36.4
2981.308	24.4
2984.609	32.4
2987.907	37.4
2991.202	41.4
2994.494	35.4
2997.784	25.4
3001.07	35.4
3004.355	39.4
3007.636	41.4
3010.915	42.4
3014.191	32.4
3017.464	35.4
3020.734	41.4
3024.002	42.4
3027.267	45.4
3030.53	44.4
3033.789	51.4
3037.046	47.4
3040.301	46.4
3043.552	49.4
3046.801	55.4
3050.048	51.4
3053.291	50.4
3056.532	60.4
3059.771	60.4
3063.006	55.4
3066.239	67.4
3069.469	73.4
3072.697	74.4
3075.922	69.4
3079.144	76.4
3082.364	78.4
3085.581	76.4
3088.795	85.4
3092.007	92.4
3095.216	82.4
3098.423	81.4
3101.627	87.4
3104.828	96.4
3108.026	89.4
3111.222	94.4
3114.416	99.4
3117.607	102.4
3120.795	101.4
3123.98	102.4
3127.163	118.4
3130.344	118.4
3133.521	117.4
3136.696	119.4
3139.869	120.4
3143.039	119.4
3146.206	123.4
3149.371	116.4
3152.533	136.4
3155.693	128.4
3158.85	132.4
3162.005	134.4
3165.157	127.4
3168.306	131.4
3171.453	130.4
3174.597	124.4
3177.739	133.4
3180.878	136.4
3184.014	124.4
3187.149	123.4
3190.28	130.4
3193.409	133.4
3196.536	133.4
3199.659	135.4
3202.781	135.4
3205.9	131.4
3209.016	135.4
3212.13	137.4
3215.241	132.4
3218.35	129.4
3221.456	129.4
3224.56	122.4
3227.661	127.4
3230.76	116.4
3233.856	118.4
3236.95	113.4
3240.041	109.4
3243.13	122.4
3246.216	102.4
3249.3	108.4
3252.382	106.4
3255.46	107.4
3258.537	107.4
3261.611	100.4
3264.682	100.4
3267.751	100.4
3270.818	94.4
3273.882	100.4
3276.943	99.4
3280.002	106.4
3283.059	101.4
3286.113	90.4
3289.165	97.4
3292.214	90.4
3295.261	96.4
3298.306	94.4
3301.348	94.4
3304.387	95.4
3307.425	83.4
3310.459	85.4
3313.492	83.4
3316.521	86.4
3319.549	96.4
3322.574	87.4
3325.597	81.4
3328.617	83.4
3331.635	94.4
3334.65	90.4
3337.663	86.4
3340.674	87.4
3343.682	88.4
3346.688	88.4
3349.691	83.4
3352.692	86.4
3355.691	94.4
3358.687	84.4
3361.681	85.4
3364.673	85.4
3367.662	85.4
3370.649	83.4
3373.633	77.4
3376.615	79.4
3379.595	76.4
3382.572	68.4
3385.547	73.4
3388.52	76.4
3391.49	67.4
3394.458	64.4
3397.424	69.4
3400.387	65.4
3403.348	56.4
3406.307	60.4
3409.263	52.4
3412.217	59.4
3415.168	61.4
3418.118	60.4
3421.065	55.4
3424.009	53.4
3426.951	60.4
3429.891	52.4
3432.829	54.4
3435.764	59.4
3438.697	51.4
3441.628	33.4
3444.557	39.4
3447.483	40.4
3450.407	29.4
3453.328	41.4
3456.247	36.4
3459.164	36.4
3462.079	23.4
3464.991	25.4
3467.902	24.4
3470.809	25.4
3473.715	18.4
3476.618	19.4
3479.519	11.4
3482.418	15.4
3485.315	12.4
3488.209	3.4
3491.101	4.4
3493.99	10.4
3496.878	0.4
3499.763	-2.6
3502.646	5.4
3505.527	5.4
3508.405	2.4
3511.281	-1.6
3514.155	-7.6
3517.027	-10.6
3519.897	-5.6
3522.764	-5.6
3525.629	-13.6
3528.492	-11.6
3531.352	-14.6
3534.211	-16.6
3537.067	-8.6
3539.921	-12.6
3542.773	-21.6
3545.622	-17.6
3548.469	-22.6
3551.315	-18.6
3554.157	-27.6
3556.998	-21.6
3559.837	-25.6
3562.673	-26.6
3565.507	-25.6
3568.339	-23.6
3571.169	-30.6
3573.996	-20.6
3576.822	-39.6
3579.645	-27.6
3582.466	-29.6
3585.285	-25.6
3588.101	-33.6
3590.916	-30.6
3593.728	-34.6
3596.538	-35.6
3599.346	-35.6
3602.152	-37.6
3604.956	-33.6
3607.757	-28.6
3610.556	-32.6
3613.354	-36.6
3616.149	-41.6
3618.942	-33.6
3621.732	-33.6
3624.521	-41.6
3627.307	-35.6
3630.092	-40.6
3632.874	-40.6
3635.654	-40.6
3638.432	-37.6
3641.208	-34.6
3643.982	-39.6
3646.753	-45.6
3649.523	-38.6
3652.29	-46.6
3655.055	-40.6
3657.818	-45.6
3660.579	-43.6
3663.338	-33.6
3666.095	-39.6
3668.849	-47.6
3671.602	-42.6
3674.352	-43.6
3677.101	-47.6
3679.847	-40.6
3682.591	-47.6
3685.333	-43.6
3688.073	-46.6
3690.811	-42.6
3693.547	-45.6
3696.281	-42.6
3699.013	-49.6
3701.742	-45.6
3704.47	-43.6
3707.195	-49.6
3709.919	-45.6
3712.64	-47.6
3715.359	-48.6
3718.076	-49.6
3720.792	-48.6
3723.505	-49.6
3726.216	-39.6
3728.925	-51.6
3731.632	-43.6
3734.336	-47.6
3737.039	-44.6
3739.74	-53.6
3742.439	-53.6
3745.136	-52.6
3747.83	-51.6
3750.523	-53.6
3753.213	-60.6
3755.902	-54.6
3758.589	-52.6
3761.273	-49.6
3763.956	-51.6
3766.636	-47.6
3769.315	-43.6
3771.991	-47.6
3774.665	-52.6
3777.338	-48.6
3780.008	-49.6
3782.677	-56.6
3785.343	-48.6
3788.007	-50.6
3790.67	-56.6
3793.33	-53.6
3795.989	-56.6
3798.645	-52.6
3801.299	-50.6
3803.952	-50.6
3806.602	-50.6
3809.251	-52.6
3811.897	-53.6
3814.542	-63.6
3817.184	-47.6
3819.825	-46.6
3822.463	-51.6
3825.1	-46.6
3827.735	-60.6
3830.367	-54.6
3832.998	-53.6
3835.627	-51.6
3838.253	-47.6
3840.878	-43.6
3843.501	-45.6
3846.122	-50.6
3848.741	-52.6
3851.358	-55.6
3853.973	-50.6
3856.586	-49.6
3859.197	-48.6
3861.806	-55.6
3864.414	-54.6
3867.019	-52.6
3869.622	-47.6
3872.224	-38.6
3874.823	-31.6
3877.421	-20.6
3880.016	-16.6
3882.61	6.4
3885.202	7.4
3887.792	-0.6
3890.38	-19.6
3892.966	-38.6
3895.55	-44.6
3898.132	-48.6
3900.713	-53.6
3903.291	-54.6
3905.868	-46.6
3908.442	-52.6
3911.015	-50.6
3913.586	-49.6
3916.155	-51.6
3918.722	-52.6
3921.287	-55.6
3923.85	-47.6
3926.411	-58.6
3928.971	-61.6
3931.528	-56.6
3934.084	-47.6
3936.638	-47.6
3939.19	-57.6
3941.74	-49.6
3944.288	-51.6
3946.834	-52.6
3949.378	-49.6
3951.921	-58.6
3954.462	-49.6
3957	-48.6
3959.537	-44.6
3962.072	-45.6
3964.606	-49.6
3967.137	-48.6
3969.667	-51.6
3972.194	-48.6
3974.72	-43.6
3977.244	-50.6
3979.766	-53.6
3982.286	-56.6
3984.805	-57.6
3987.321	-49.6
3989.836	-48.6
3992.349	-55.6
3994.86	-56.6
3997.369	-55.6
3999.877	-52.6
4002.382	-55.6
4004.886	-45.6
4007.388	-52.6
4009.888	-47.6
4012.386	-51.6
4014.883	-50.6
4017.377	-49.6
4019.87	-51.6
4022.361	-59.6
4024.85	-49.6
4027.338	-57.6
4029.823	-52.6
4032.307	-52.6
4034.789	-52.6
4037.269	-53.6
4039.747	-54.6
4042.224	-55.6
4044.699	-60.6
4047.172	-55.6
4049.643	-56.6
4052.112	-57.6
4054.58	-52.6
4057.046	-48.6
4059.51	-55.6
4061.972	-56.6
4064.432	-47.6
4066.891	-46.6
4069.348	-44.6
4071.803	-43.6
4074.256	-51.6
4076.708	-54.6
4079.158	-56.6
4081.606	-52.6
4084.052	-51.6
4086.497	-46.6
4088.939	-49.6
4091.38	-55.6
4093.819	-50.6
4096.257	-53.6
4098.693	-54.6
4101.127	-50.6
4103.559	-60.6
4105.989	16.4
4108.418	10.4
4110.845	8.4
4113.27	10.4
4115.694	8.4
4118.115	10.4
4120.535	-51.6
4122.954	-49.6
4125.37	-50.6
4127.785	-46.6
4130.198	-47.6
4132.609	-51.6
4135.019	-53.6
4137.427	-58.6
4139.833	-55.6
4142.237	-57.6
