Data from 2018-3-7_conc=2_n=7_RamanShift_04.txt Node
Date: Wed Mar 07 10:59:22 IST 2018
User: aro
Spectrometer: QEPB0276
Trigger mode: 0
Integration Time (sec): 3.000000E1
Scans to average: 1
Electric dark correction enabled: true
Nonlinearity correction enabled: false
Boxcar width: 0
XAxis mode: Raman Shifts
Number of Pixels in Spectrum: 1044
>>>>>Begin Spectral Data<<<<<
160.701	14.5
166.742	20.5
172.777	46.5
178.805	123.5
184.826	324.5
190.841	667.5
196.849	1107.5
202.85	1442.5
208.845	1574.5
214.833	1581.5
220.815	1560.5
226.789	1576.5
232.758	1585.5
238.719	1587.5
244.674	1573.5
250.623	1595.5
256.565	1556.5
262.5	1545.5
268.429	1520.5
274.351	1539.5
280.267	1524.5
286.176	1520.5
292.079	1519.5
297.975	1524.5
303.865	1522.5
309.748	1548.5
315.625	1512.5
321.495	1526.5
327.359	1539.5
333.217	1544.5
339.068	1552.5
344.912	1551.5
350.751	1542.5
356.583	1550.5
362.408	1572.5
368.227	1567.5
374.04	1585.5
379.847	1590.5
385.647	1605.5
391.44	1601.5
397.228	1601.5
403.009	1616.5
408.784	1625.5
414.553	1630.5
420.315	1632.5
426.071	1622.5
431.821	1654.5
437.565	1644.5
443.302	1627.5
449.033	1622.5
454.758	1623.5
460.477	1601.5
466.189	1584.5
471.896	1581.5
477.596	1546.5
483.29	1559.5
488.978	1544.5
494.66	1538.5
500.335	1500.5
506.005	1453.5
511.668	1377.5
517.325	1312.5
522.977	1272.5
528.622	1232.5
534.261	1198.5
539.894	1187.5
545.521	1166.5
551.141	1140.5
556.756	1132.5
562.365	1121.5
567.968	1106.5
573.565	1101.5
579.155	1107.5
584.74	1100.5
590.319	1079.5
595.892	1098.5
601.459	1076.5
607.02	1087.5
612.575	1072.5
618.124	1063.5
623.667	1048.5
629.204	1041.5
634.735	1029.5
640.261	1013.5
645.781	1009.5
651.294	995.5
656.802	1000.5
662.304	998.5
667.8	1007.5
673.29	1001.5
678.775	980.5
684.254	988.5
689.726	990.5
695.193	972.5
700.655	975.5
706.11	965.5
711.56	957.5
717.004	960.5
722.442	942.5
727.874	935.5
733.301	936.5
738.722	942.5
744.137	932.5
749.547	928.5
754.951	922.5
760.349	924.5
765.741	930.5
771.128	932.5
776.509	941.5
781.885	967.5
787.254	965.5
792.618	961.5
797.977	962.5
803.33	954.5
808.677	962.5
814.019	939.5
819.355	937.5
824.686	934.5
830.011	935.5
835.33	927.5
840.644	921.5
845.952	913.5
851.255	906.5
856.552	908.5
861.844	874.5
867.13	871.5
872.41	872.5
877.686	874.5
882.955	869.5
888.219	871.5
893.478	852.5
898.731	839.5
903.979	818.5
909.221	809.5
914.458	802.5
919.69	820.5
924.916	814.5
930.136	809.5
935.351	804.5
940.561	813.5
945.766	814.5
950.965	820.5
956.158	812.5
961.347	779.5
966.529	783.5
971.707	768.5
976.879	766.5
982.046	745.5
987.208	750.5
992.364	731.5
997.515	739.5
1002.66	745.5
1007.801	777.5
1012.936	768.5
1018.066	788.5
1023.19	782.5
1028.309	777.5
1033.423	781.5
1038.532	778.5
1043.636	762.5
1048.734	770.5
1053.827	755.5
1058.915	749.5
1063.998	741.5
1069.075	734.5
1074.147	732.5
1079.214	727.5
1084.276	740.5
1089.333	745.5
1094.385	735.5
1099.431	734.5
1104.472	741.5
1109.509	719.5
1114.54	720.5
1119.565	705.5
1124.586	698.5
1129.602	692.5
1134.613	692.5
1139.618	682.5
1144.619	677.5
1149.614	695.5
1154.604	678.5
1159.589	687.5
1164.57	684.5
1169.545	683.5
1174.515	694.5
1179.48	685.5
1184.44	687.5
1189.395	676.5
1194.345	671.5
1199.29	654.5
1204.23	672.5
1209.165	656.5
1214.095	664.5
1219.021	664.5
1223.941	674.5
1228.856	674.5
1233.766	689.5
1238.672	693.5
1243.572	684.5
1248.467	668.5
1253.358	661.5
1258.244	656.5
1263.124	639.5
1268	630.5
1272.871	625.5
1277.737	615.5
1282.599	614.5
1287.455	612.5
1292.306	616.5
1297.153	612.5
1301.995	619.5
1306.832	640.5
1311.664	629.5
1316.491	629.5
1321.314	629.5
1326.132	636.5
1330.945	604.5
1335.753	597.5
1340.556	588.5
1345.354	569.5
1350.148	570.5
1354.937	556.5
1359.722	540.5
1364.501	535.5
1369.276	520.5
1374.046	519.5
1378.811	518.5
1383.572	509.5
1388.327	514.5
1393.079	508.5
1397.825	511.5
1402.567	508.5
1407.304	515.5
1412.036	514.5
1416.764	519.5
1421.487	513.5
1426.205	518.5
1430.919	517.5
1435.628	526.5
1440.333	535.5
1445.032	510.5
1449.727	537.5
1454.418	539.5
1459.104	536.5
1463.785	525.5
1468.462	511.5
1473.134	508.5
1477.802	490.5
1482.465	479.5
1487.123	462.5
1491.777	451.5
1496.426	456.5
1501.071	446.5
1505.711	442.5
1510.347	429.5
1514.978	437.5
1519.604	429.5
1524.226	436.5
1528.844	436.5
1533.457	432.5
1538.065	430.5
1542.669	437.5
1547.269	424.5
1551.864	435.5
1556.454	454.5
1561.041	449.5
1565.622	456.5
1570.199	451.5
1574.772	460.5
1579.34	457.5
1583.904	455.5
1588.464	466.5
1593.019	464.5
1597.569	471.5
1602.115	467.5
1606.657	474.5
1611.195	465.5
1615.728	455.5
1620.256	467.5
1624.78	453.5
1629.3	460.5
1633.816	462.5
1638.327	462.5
1642.834	460.5
1647.336	455.5
1651.834	443.5
1656.328	456.5
1660.817	451.5
1665.302	456.5
1669.783	440.5
1674.259	427.5
1678.732	427.5
1683.199	409.5
1687.663	392.5
1692.122	360.5
1696.577	357.5
1701.028	350.5
1705.474	328.5
1709.917	329.5
1714.355	320.5
1718.788	318.5
1723.218	312.5
1727.643	317.5
1732.064	313.5
1736.481	318.5
1740.893	310.5
1745.301	307.5
1749.705	294.5
1754.105	283.5
1758.501	271.5
1762.893	276.5
1767.28	271.5
1771.663	270.5
1776.042	268.5
1780.417	261.5
1784.787	262.5
1789.154	251.5
1793.516	240.5
1797.874	242.5
1802.228	248.5
1806.578	240.5
1810.924	234.5
1815.266	235.5
1819.603	231.5
1823.937	234.5
1828.266	239.5
1832.591	242.5
1836.913	247.5
1841.23	235.5
1845.543	239.5
1849.852	246.5
1854.156	241.5
1858.457	244.5
1862.754	245.5
1867.047	236.5
1871.335	241.5
1875.62	238.5
1879.9	248.5
1884.177	221.5
1888.449	232.5
1892.718	231.5
1896.982	224.5
1901.243	214.5
1905.499	219.5
1909.752	211.5
1914	220.5
1918.245	197.5
1922.485	189.5
1926.722	186.5
1930.954	196.5
1935.183	201.5
1939.408	200.5
1943.628	197.5
1947.845	201.5
1952.058	193.5
1956.267	196.5
1960.472	187.5
1964.673	175.5
1968.87	177.5
1973.063	181.5
1977.252	188.5
1981.438	185.5
1985.619	179.5
1989.797	182.5
1993.971	188.5
1998.14	187.5
2002.306	184.5
2006.469	189.5
2010.627	184.5
2014.781	180.5
2018.932	184.5
2023.078	185.5
2027.221	190.5
2031.36	182.5
2035.495	170.5
2039.627	164.5
2043.754	180.5
2047.878	175.5
2051.998	171.5
2056.114	166.5
2060.226	165.5
2064.334	163.5
2068.439	156.5
2072.54	163.5
2076.637	162.5
2080.73	158.5
2084.82	161.5
2088.906	160.5
2092.988	157.5
2097.066	157.5
2101.14	154.5
2105.211	162.5
2109.278	152.5
2113.342	137.5
2117.401	151.5
2121.457	143.5
2125.509	145.5
2129.558	143.5
2133.602	140.5
2137.643	147.5
2141.681	139.5
2145.714	149.5
2149.744	149.5
2153.77	152.5
2157.793	146.5
2161.812	158.5
2165.827	149.5
2169.838	133.5
2173.846	138.5
2177.851	136.5
2181.851	135.5
2185.848	127.5
2189.841	133.5
2193.831	125.5
2197.817	133.5
2201.799	130.5
2205.778	129.5
2209.753	135.5
2213.725	125.5
2217.693	125.5
2221.657	130.5
2225.618	127.5
2229.575	125.5
2233.529	120.5
2237.479	123.5
2241.425	119.5
2245.368	132.5
2249.307	118.5
2253.243	117.5
2257.175	109.5
2261.104	109.5
2265.029	120.5
2268.95	111.5
2272.868	106.5
2276.783	106.5
2280.694	103.5
2284.601	95.5
2288.505	102.5
2292.405	106.5
2296.302	105.5
2300.195	99.5
2304.085	99.5
2307.971	97.5
2311.854	96.5
2315.734	95.5
2319.609	100.5
2323.482	90.5
2327.351	99.5
2331.216	101.5
2335.078	115.5
2338.937	109.5
2342.792	102.5
2346.643	100.5
2350.492	98.5
2354.336	101.5
2358.178	91.5
2362.015	100.5
2365.85	97.5
2369.681	100.5
2373.508	99.5
2377.333	95.5
2381.153	88.5
2384.971	87.5
2388.785	94.5
2392.595	90.5
2396.402	96.5
2400.206	94.5
2404.007	94.5
2407.804	96.5
2411.597	97.5
2415.388	89.5
2419.174	96.5
2422.958	85.5
2426.738	98.5
2430.515	85.5
2434.289	95.5
2438.059	78.5
2441.825	80.5
2445.589	83.5
2449.349	72.5
2453.106	85.5
2456.859	79.5
2460.61	84.5
2464.356	78.5
2468.1	78.5
2471.84	75.5
2475.577	75.5
2479.311	76.5
2483.041	70.5
2486.768	72.5
2490.492	76.5
2494.213	69.5
2497.93	66.5
2501.644	67.5
2505.355	65.5
2509.062	65.5
2512.766	67.5
2516.467	64.5
2520.165	63.5
2523.859	71.5
2527.551	63.5
2531.239	63.5
2534.923	64.5
2538.605	53.5
2542.283	52.5
2545.958	58.5
2549.63	63.5
2553.299	53.5
2556.964	43.5
2560.626	58.5
2564.285	53.5
2567.941	53.5
2571.594	55.5
2575.243	50.5
2578.89	53.5
2582.533	53.5
2586.173	52.5
2589.809	53.5
2593.443	52.5
2597.073	48.5
2600.701	51.5
2604.325	38.5
2607.946	32.5
2611.564	44.5
2615.178	46.5
2618.79	45.5
2622.398	45.5
2626.004	44.5
2629.606	40.5
2633.205	44.5
2636.801	38.5
2640.394	46.5
2643.983	41.5
2647.57	39.5
2651.153	40.5
2654.734	39.5
2658.311	45.5
2661.885	41.5
2665.456	41.5
2669.025	41.5
2672.589	36.5
2676.151	38.5
2679.71	31.5
2683.266	31.5
2686.819	35.5
2690.368	28.5
2693.915	37.5
2697.458	29.5
2700.999	38.5
2704.536	33.5
2708.071	37.5
2711.602	35.5
2715.13	24.5
2718.656	29.5
2722.178	24.5
2725.697	30.5
2729.214	23.5
2732.727	26.5
2736.237	27.5
2739.744	24.5
2743.249	21.5
2746.75	21.5
2750.248	22.5
2753.743	21.5
2757.236	18.5
2760.725	20.5
2764.211	19.5
2767.695	11.5
2771.175	15.5
2774.652	20.5
2778.127	16.5
2781.598	13.5
2785.067	14.5
2788.532	11.5
2791.995	15.5
2795.455	19.5
2798.911	21.5
2802.365	19.5
2805.816	19.5
2809.264	14.5
2812.709	16.5
2816.151	19.5
2819.59	26.5
2823.026	16.5
2826.46	17.5
2829.89	13.5
2833.318	13.5
2836.742	20.5
2840.164	16.5
2843.583	12.5
2846.999	23.5
2850.412	21.5
2853.822	21.5
2857.229	24.5
2860.634	18.5
2864.035	16.5
2867.434	21.5
2870.83	29.5
2874.223	18.5
2877.613	23.5
2881	24.5
2884.385	26.5
2887.766	30.5
2891.145	28.5
2894.521	31.5
2897.894	34.5
2901.264	31.5
2904.631	25.5
2907.996	30.5
2911.358	40.5
2914.717	30.5
2918.073	29.5
2921.426	25.5
2924.777	30.5
2928.124	29.5
2931.469	31.5
2934.811	45.5
2938.15	40.5
2941.487	48.5
2944.821	42.5
2948.152	46.5
2951.48	39.5
2954.805	36.5
2958.128	39.5
2961.447	37.5
2964.765	30.5
2968.079	30.5
2971.39	36.5
2974.699	34.5
2978.005	38.5
2981.308	34.5
2984.609	30.5
2987.907	38.5
2991.202	37.5
2994.494	37.5
2997.784	28.5
3001.07	38.5
3004.355	36.5
3007.636	35.5
3010.915	35.5
3014.191	33.5
3017.464	39.5
3020.734	48.5
3024.002	45.5
3027.267	37.5
3030.53	47.5
3033.789	44.5
3037.046	42.5
3040.301	44.5
3043.552	44.5
3046.801	47.5
3050.048	45.5
3053.291	48.5
3056.532	46.5
3059.771	55.5
3063.006	63.5
3066.239	60.5
3069.469	66.5
3072.697	64.5
3075.922	68.5
3079.144	74.5
3082.364	70.5
3085.581	69.5
3088.795	80.5
3092.007	78.5
3095.216	80.5
3098.423	73.5
3101.627	75.5
3104.828	90.5
3108.026	83.5
3111.222	87.5
3114.416	88.5
3117.607	96.5
3120.795	92.5
3123.98	96.5
3127.163	111.5
3130.344	101.5
3133.521	103.5
3136.696	104.5
3139.869	112.5
3143.039	103.5
3146.206	114.5
3149.371	115.5
3152.533	120.5
3155.693	123.5
3158.85	121.5
3162.005	122.5
3165.157	119.5
3168.306	119.5
3171.453	121.5
3174.597	111.5
3177.739	126.5
3180.878	114.5
3184.014	112.5
3187.149	121.5
3190.28	119.5
3193.409	120.5
3196.536	118.5
3199.659	125.5
3202.781	123.5
3205.9	124.5
3209.016	116.5
3212.13	115.5
3215.241	121.5
3218.35	116.5
3221.456	112.5
3224.56	112.5
3227.661	112.5
3230.76	119.5
3233.856	114.5
3236.95	109.5
3240.041	99.5
3243.13	104.5
3246.216	103.5
3249.3	102.5
3252.382	97.5
3255.46	95.5
3258.537	94.5
3261.611	94.5
3264.682	97.5
3267.751	97.5
3270.818	88.5
3273.882	91.5
3276.943	95.5
3280.002	92.5
3283.059	92.5
3286.113	84.5
3289.165	84.5
3292.214	81.5
3295.261	82.5
3298.306	81.5
3301.348	84.5
3304.387	92.5
3307.425	82.5
3310.459	78.5
3313.492	78.5
3316.521	85.5
3319.549	87.5
3322.574	77.5
3325.597	73.5
3328.617	75.5
3331.635	80.5
3334.65	88.5
3337.663	70.5
3340.674	76.5
3343.682	80.5
3346.688	75.5
3349.691	82.5
3352.692	79.5
3355.691	83.5
3358.687	72.5
3361.681	71.5
3364.673	76.5
3367.662	71.5
3370.649	73.5
3373.633	74.5
3376.615	73.5
3379.595	72.5
3382.572	64.5
3385.547	70.5
3388.52	66.5
3391.49	60.5
3394.458	55.5
3397.424	61.5
3400.387	62.5
3403.348	50.5
3406.307	47.5
3409.263	61.5
3412.217	53.5
3415.168	59.5
3418.118	53.5
3421.065	46.5
3424.009	50.5
3426.951	51.5
3429.891	44.5
3432.829	46.5
3435.764	45.5
3438.697	47.5
3441.628	31.5
3444.557	38.5
3447.483	33.5
3450.407	24.5
3453.328	36.5
3456.247	29.5
3459.164	27.5
3462.079	26.5
3464.991	21.5
3467.902	22.5
3470.809	21.5
3473.715	15.5
3476.618	19.5
3479.519	14.5
3482.418	11.5
3485.315	11.5
3488.209	4.5
3491.101	2.5
3493.99	15.5
3496.878	2.5
3499.763	-2.5
3502.646	0.5
3505.527	3.5
3508.405	-1.5
3511.281	-1.5
3514.155	-6.5
3517.027	-9.5
3519.897	-2.5
3522.764	-6.5
3525.629	-4.5
3528.492	-5.5
3531.352	-17.5
3534.211	-14.5
3537.067	-9.5
3539.921	-14.5
3542.773	-19.5
3545.622	-17.5
3548.469	-16.5
3551.315	-19.5
3554.157	-21.5
3556.998	-20.5
3559.837	-23.5
3562.673	-18.5
3565.507	-19.5
3568.339	-18.5
3571.169	-23.5
3573.996	-20.5
3576.822	-29.5
3579.645	-28.5
3582.466	-29.5
3585.285	-28.5
3588.101	-34.5
3590.916	-26.5
3593.728	-29.5
3596.538	-34.5
3599.346	-28.5
3602.152	-31.5
3604.956	-25.5
3607.757	-29.5
3610.556	-30.5
3613.354	-37.5
3616.149	-37.5
3618.942	-34.5
3621.732	-35.5
3624.521	-33.5
3627.307	-31.5
3630.092	-34.5
3632.874	-37.5
3635.654	-34.5
3638.432	-32.5
3641.208	-30.5
3643.982	-32.5
3646.753	-40.5
3649.523	-31.5
3652.29	-42.5
3655.055	-34.5
3657.818	-37.5
3660.579	-38.5
3663.338	-38.5
3666.095	-41.5
3668.849	-40.5
3671.602	-37.5
3674.352	-38.5
3677.101	-37.5
3679.847	-32.5
3682.591	-46.5
3685.333	-40.5
3688.073	-48.5
3690.811	-43.5
3693.547	-47.5
3696.281	-40.5
3699.013	-43.5
3701.742	-43.5
3704.47	-35.5
3707.195	-43.5
3709.919	-40.5
3712.64	-40.5
3715.359	-40.5
3718.076	-43.5
3720.792	-41.5
3723.505	-43.5
3726.216	-37.5
3728.925	-52.5
3731.632	-44.5
3734.336	-48.5
3737.039	-39.5
3739.74	-48.5
3742.439	-48.5
3745.136	-41.5
3747.83	-38.5
3750.523	-42.5
3753.213	-52.5
3755.902	-47.5
3758.589	-42.5
3761.273	-41.5
3763.956	-45.5
3766.636	-45.5
3769.315	-44.5
3771.991	-46.5
3774.665	-51.5
3777.338	-41.5
3780.008	-48.5
3782.677	-50.5
3785.343	-47.5
3788.007	-47.5
3790.67	-47.5
3793.33	-45.5
3795.989	-47.5
3798.645	-46.5
3801.299	-46.5
3803.952	-46.5
3806.602	-47.5
3809.251	-48.5
3811.897	-50.5
3814.542	-49.5
3817.184	-50.5
3819.825	-44.5
3822.463	-46.5
3825.1	-43.5
3827.735	-49.5
3830.367	-45.5
3832.998	-48.5
3835.627	-49.5
3838.253	-44.5
3840.878	-44.5
3843.501	-42.5
3846.122	-50.5
3848.741	-49.5
3851.358	-48.5
3853.973	-41.5
3856.586	-45.5
3859.197	-44.5
3861.806	-50.5
3864.414	-52.5
3867.019	-49.5
3869.622	-44.5
3872.224	-36.5
3874.823	-29.5
3877.421	-22.5
3880.016	-16.5
3882.61	0.5
3885.202	-2.5
3887.792	4.5
3890.38	-17.5
3892.966	-30.5
3895.55	-38.5
3898.132	-41.5
3900.713	-43.5
3903.291	-50.5
3905.868	-42.5
3908.442	-45.5
3911.015	-41.5
3913.586	-51.5
3916.155	-43.5
3918.722	-47.5
3921.287	-46.5
3923.85	-39.5
3926.411	-49.5
3928.971	-57.5
3931.528	-51.5
3934.084	-42.5
3936.638	-42.5
3939.19	-53.5
3941.74	-49.5
3944.288	-48.5
3946.834	-49.5
3949.378	-45.5
3951.921	-51.5
3954.462	-48.5
3957	-41.5
3959.537	-36.5
3962.072	-40.5
3964.606	-45.5
3967.137	-43.5
3969.667	-49.5
3972.194	-44.5
3974.72	-39.5
3977.244	-43.5
3979.766	-49.5
3982.286	-49.5
3984.805	-54.5
3987.321	-51.5
3989.836	-39.5
3992.349	-48.5
3994.86	-45.5
3997.369	-49.5
3999.877	-46.5
4002.382	-46.5
4004.886	-43.5
4007.388	-45.5
4009.888	-45.5
4012.386	-44.5
4014.883	-45.5
4017.377	-48.5
4019.87	-49.5
4022.361	-52.5
4024.85	-45.5
4027.338	-46.5
4029.823	-46.5
4032.307	-49.5
4034.789	-44.5
4037.269	-44.5
4039.747	-45.5
4042.224	-45.5
4044.699	-50.5
4047.172	-49.5
4049.643	-48.5
4052.112	-47.5
4054.58	-46.5
4057.046	-41.5
4059.51	-50.5
4061.972	-49.5
4064.432	-48.5
4066.891	-38.5
4069.348	-44.5
4071.803	-44.5
4074.256	-45.5
4076.708	-47.5
4079.158	-48.5
4081.606	-51.5
4084.052	-44.5
4086.497	-45.5
4088.939	-39.5
4091.38	-49.5
4093.819	-48.5
4096.257	-48.5
4098.693	-47.5
4101.127	-46.5
4103.559	-53.5
4105.989	19.5
4108.418	18.5
4110.845	9.5
4113.27	16.5
4115.694	15.5
4118.115	18.5
4120.535	-50.5
4122.954	-41.5
4125.37	-46.5
4127.785	-41.5
4130.198	-46.5
4132.609	-50.5
4135.019	-52.5
4137.427	-51.5
4139.833	-50.5
4142.237	-50.5
