Data from 2018-3-7_conc=0_n=8_RamanShift_02.txt Node
Date: Wed Mar 07 10:30:22 IST 2018
User: aro
Spectrometer: QEPB0276
Trigger mode: 0
Integration Time (sec): 3.000000E1
Scans to average: 1
Electric dark correction enabled: true
Nonlinearity correction enabled: false
Boxcar width: 0
XAxis mode: Raman Shifts
Number of Pixels in Spectrum: 1044
>>>>>Begin Spectral Data<<<<<
160.701	15.9
166.742	23.9
172.777	56.9
178.805	156.9
184.826	399.9
190.841	837.9
196.849	1365.9
202.85	1753.9
208.845	1938.9
214.833	1949.9
220.815	1924.9
226.789	1913.9
232.758	1933.9
238.719	1961.9
244.674	1949.9
250.623	1943.9
256.565	1928.9
262.5	1895.9
268.429	1887.9
274.351	1893.9
280.267	1875.9
286.176	1885.9
292.079	1904.9
297.975	1907.9
303.865	1919.9
309.748	1907.9
315.625	1904.9
321.495	1920.9
327.359	1938.9
333.217	1937.9
339.068	1941.9
344.912	1950.9
350.751	1952.9
356.583	1962.9
362.408	1959.9
368.227	1976.9
374.04	1974.9
379.847	2006.9
385.647	2009.9
391.44	2030.9
397.228	2032.9
403.009	2056.9
408.784	2074.9
414.553	2069.9
420.315	2089.9
426.071	2075.9
431.821	2090.9
437.565	2089.9
443.302	2083.9
449.033	2069.9
454.758	2053.9
460.477	2037.9
466.189	1997.9
471.896	2002.9
477.596	1985.9
483.29	1964.9
488.978	1957.9
494.66	1944.9
500.335	1897.9
506.005	1822.9
511.668	1731.9
517.325	1646.9
522.977	1557.9
528.622	1505.9
534.261	1470.9
539.894	1433.9
545.521	1413.9
551.141	1383.9
556.756	1364.9
562.365	1378.9
567.968	1338.9
573.565	1338.9
579.155	1335.9
584.74	1327.9
590.319	1320.9
595.892	1309.9
601.459	1315.9
607.02	1320.9
612.575	1326.9
618.124	1303.9
623.667	1279.9
629.204	1256.9
634.735	1237.9
640.261	1220.9
645.781	1224.9
651.294	1212.9
656.802	1207.9
662.304	1202.9
667.8	1201.9
673.29	1196.9
678.775	1201.9
684.254	1190.9
689.726	1176.9
695.193	1170.9
700.655	1159.9
706.11	1173.9
711.56	1155.9
717.004	1138.9
722.442	1124.9
727.874	1144.9
733.301	1134.9
738.722	1131.9
744.137	1112.9
749.547	1124.9
754.951	1129.9
760.349	1110.9
765.741	1107.9
771.128	1133.9
776.509	1149.9
781.885	1165.9
787.254	1174.9
792.618	1187.9
797.977	1176.9
803.33	1151.9
808.677	1172.9
814.019	1150.9
819.355	1144.9
824.686	1137.9
830.011	1110.9
835.33	1120.9
840.644	1110.9
845.952	1113.9
851.255	1101.9
856.552	1103.9
861.844	1079.9
867.13	1068.9
872.41	1086.9
877.686	1109.9
882.955	1138.9
888.219	1115.9
893.478	1083.9
898.731	1030.9
903.979	1002.9
909.221	985.9
914.458	964.9
919.69	972.9
924.916	997.9
930.136	962.9
935.351	966.9
940.561	968.9
945.766	968.9
950.965	966.9
956.158	959.9
961.347	947.9
966.529	939.9
971.707	908.9
976.879	898.9
982.046	901.9
987.208	897.9
992.364	893.9
997.515	899.9
1002.66	916.9
1007.801	926.9
1012.936	928.9
1018.066	949.9
1023.19	928.9
1028.309	942.9
1033.423	926.9
1038.532	937.9
1043.636	931.9
1048.734	945.9
1053.827	919.9
1058.915	928.9
1063.998	915.9
1069.075	897.9
1074.147	915.9
1079.214	910.9
1084.276	921.9
1089.333	923.9
1094.385	926.9
1099.431	905.9
1104.472	892.9
1109.509	868.9
1114.54	859.9
1119.565	856.9
1124.586	841.9
1129.602	834.9
1134.613	823.9
1139.618	820.9
1144.619	805.9
1149.614	823.9
1154.604	822.9
1159.589	828.9
1164.57	826.9
1169.545	820.9
1174.515	824.9
1179.48	825.9
1184.44	817.9
1189.395	798.9
1194.345	797.9
1199.29	788.9
1204.23	792.9
1209.165	796.9
1214.095	815.9
1219.021	806.9
1223.941	814.9
1228.856	809.9
1233.766	810.9
1238.672	814.9
1243.572	814.9
1248.467	802.9
1253.358	790.9
1258.244	793.9
1263.124	759.9
1268	763.9
1272.871	747.9
1277.737	747.9
1282.599	745.9
1287.455	734.9
1292.306	739.9
1297.153	738.9
1301.995	753.9
1306.832	747.9
1311.664	747.9
1316.491	755.9
1321.314	735.9
1326.132	748.9
1330.945	722.9
1335.753	714.9
1340.556	685.9
1345.354	678.9
1350.148	682.9
1354.937	665.9
1359.722	644.9
1364.501	648.9
1369.276	623.9
1374.046	612.9
1378.811	605.9
1383.572	618.9
1388.327	607.9
1393.079	605.9
1397.825	628.9
1402.567	615.9
1407.304	624.9
1412.036	627.9
1416.764	625.9
1421.487	633.9
1426.205	627.9
1430.919	630.9
1435.628	643.9
1440.333	644.9
1445.032	647.9
1449.727	668.9
1454.418	671.9
1459.104	686.9
1463.785	662.9
1468.462	632.9
1473.134	618.9
1477.802	589.9
1482.465	563.9
1487.123	561.9
1491.777	547.9
1496.426	549.9
1501.071	533.9
1505.711	515.9
1510.347	514.9
1514.978	513.9
1519.604	514.9
1524.226	509.9
1528.844	506.9
1533.457	504.9
1538.065	504.9
1542.669	512.9
1547.269	504.9
1551.864	517.9
1556.454	531.9
1561.041	539.9
1565.622	536.9
1570.199	539.9
1574.772	534.9
1579.34	550.9
1583.904	535.9
1588.464	560.9
1593.019	557.9
1597.569	550.9
1602.115	552.9
1606.657	557.9
1611.195	541.9
1615.728	540.9
1620.256	528.9
1624.78	542.9
1629.3	539.9
1633.816	540.9
1638.327	550.9
1642.834	539.9
1647.336	543.9
1651.834	534.9
1656.328	528.9
1660.817	529.9
1665.302	515.9
1669.783	508.9
1674.259	500.9
1678.732	493.9
1683.199	461.9
1687.663	445.9
1692.122	423.9
1696.577	403.9
1701.028	384.9
1705.474	382.9
1709.917	365.9
1714.355	358.9
1718.788	367.9
1723.218	370.9
1727.643	359.9
1732.064	364.9
1736.481	361.9
1740.893	345.9
1745.301	354.9
1749.705	340.9
1754.105	329.9
1758.501	316.9
1762.893	313.9
1767.28	300.9
1771.663	296.9
1776.042	289.9
1780.417	281.9
1784.787	288.9
1789.154	282.9
1793.516	270.9
1797.874	264.9
1802.228	272.9
1806.578	263.9
1810.924	260.9
1815.266	262.9
1819.603	259.9
1823.937	274.9
1828.266	268.9
1832.591	273.9
1836.913	269.9
1841.23	275.9
1845.543	267.9
1849.852	266.9
1854.156	280.9
1858.457	271.9
1862.754	279.9
1867.047	265.9
1871.335	268.9
1875.62	266.9
1879.9	277.9
1884.177	258.9
1888.449	255.9
1892.718	260.9
1896.982	245.9
1901.243	233.9
1905.499	235.9
1909.752	227.9
1914	227.9
1918.245	224.9
1922.485	221.9
1926.722	215.9
1930.954	213.9
1935.183	212.9
1939.408	215.9
1943.628	206.9
1947.845	204.9
1952.058	204.9
1956.267	201.9
1960.472	203.9
1964.673	203.9
1968.87	201.9
1973.063	205.9
1977.252	205.9
1981.438	203.9
1985.619	203.9
1989.797	198.9
1993.971	203.9
1998.14	204.9
2002.306	206.9
2006.469	220.9
2010.627	206.9
2014.781	221.9
2018.932	206.9
2023.078	203.9
2027.221	200.9
2031.36	208.9
2035.495	186.9
2039.627	187.9
2043.754	189.9
2047.878	193.9
2051.998	190.9
2056.114	185.9
2060.226	184.9
2064.334	173.9
2068.439	176.9
2072.54	167.9
2076.637	177.9
2080.73	172.9
2084.82	170.9
2088.906	177.9
2092.988	173.9
2097.066	161.9
2101.14	160.9
2105.211	165.9
2109.278	153.9
2113.342	156.9
2117.401	151.9
2121.457	158.9
2125.509	155.9
2129.558	152.9
2133.602	150.9
2137.643	151.9
2141.681	152.9
2145.714	151.9
2149.744	160.9
2153.77	160.9
2157.793	160.9
2161.812	168.9
2165.827	166.9
2169.838	153.9
2173.846	155.9
2177.851	155.9
2181.851	151.9
2185.848	153.9
2189.841	148.9
2193.831	139.9
2197.817	150.9
2201.799	145.9
2205.778	150.9
2209.753	145.9
2213.725	137.9
2217.693	146.9
2221.657	134.9
2225.618	135.9
2229.575	139.9
2233.529	133.9
2237.479	142.9
2241.425	134.9
2245.368	135.9
2249.307	132.9
2253.243	130.9
2257.175	129.9
2261.104	117.9
2265.029	116.9
2268.95	123.9
2272.868	122.9
2276.783	117.9
2280.694	116.9
2284.601	115.9
2288.505	121.9
2292.405	118.9
2296.302	123.9
2300.195	110.9
2304.085	118.9
2307.971	111.9
2311.854	109.9
2315.734	109.9
2319.609	112.9
2323.482	102.9
2327.351	112.9
2331.216	122.9
2335.078	131.9
2338.937	124.9
2342.792	116.9
2346.643	114.9
2350.492	109.9
2354.336	104.9
2358.178	101.9
2362.015	108.9
2365.85	102.9
2369.681	113.9
2373.508	112.9
2377.333	117.9
2381.153	104.9
2384.971	106.9
2388.785	109.9
2392.595	112.9
2396.402	103.9
2400.206	101.9
2404.007	105.9
2407.804	103.9
2411.597	100.9
2415.388	100.9
2419.174	108.9
2422.958	103.9
2426.738	100.9
2430.515	102.9
2434.289	101.9
2438.059	94.9
2441.825	89.9
2445.589	97.9
2449.349	94.9
2453.106	92.9
2456.859	91.9
2460.61	91.9
2464.356	85.9
2468.1	83.9
2471.84	85.9
2475.577	81.9
2479.311	84.9
2483.041	82.9
2486.768	77.9
2490.492	87.9
2494.213	83.9
2497.93	79.9
2501.644	86.9
2505.355	75.9
2509.062	72.9
2512.766	73.9
2516.467	71.9
2520.165	78.9
2523.859	76.9
2527.551	70.9
2531.239	65.9
2534.923	62.9
2538.605	61.9
2542.283	59.9
2545.958	59.9
2549.63	54.9
2553.299	58.9
2556.964	60.9
2560.626	63.9
2564.285	54.9
2567.941	55.9
2571.594	55.9
2575.243	57.9
2578.89	48.9
2582.533	52.9
2586.173	55.9
2589.809	58.9
2593.443	59.9
2597.073	48.9
2600.701	56.9
2604.325	42.9
2607.946	43.9
2611.564	53.9
2615.178	49.9
2618.79	48.9
2622.398	47.9
2626.004	47.9
2629.606	47.9
2633.205	42.9
2636.801	48.9
2640.394	54.9
2643.983	44.9
2647.57	46.9
2651.153	37.9
2654.734	42.9
2658.311	44.9
2661.885	43.9
2665.456	40.9
2669.025	43.9
2672.589	38.9
2676.151	39.9
2679.71	31.9
2683.266	42.9
2686.819	50.9
2690.368	36.9
2693.915	42.9
2697.458	29.9
2700.999	35.9
2704.536	42.9
2708.071	35.9
2711.602	31.9
2715.13	28.9
2718.656	30.9
2722.178	34.9
2725.697	23.9
2729.214	24.9
2732.727	32.9
2736.237	27.9
2739.744	26.9
2743.249	27.9
2746.75	26.9
2750.248	21.9
2753.743	21.9
2757.236	18.9
2760.725	18.9
2764.211	13.9
2767.695	13.9
2771.175	12.9
2774.652	16.9
2778.127	18.9
2781.598	17.9
2785.067	17.9
2788.532	16.9
2791.995	20.9
2795.455	13.9
2798.911	15.9
2802.365	12.9
2805.816	19.9
2809.264	18.9
2812.709	13.9
2816.151	23.9
2819.59	32.9
2823.026	18.9
2826.46	28.9
2829.89	19.9
2833.318	21.9
2836.742	26.9
2840.164	21.9
2843.583	20.9
2846.999	31.9
2850.412	22.9
2853.822	31.9
2857.229	31.9
2860.634	29.9
2864.035	34.9
2867.434	33.9
2870.83	34.9
2874.223	38.9
2877.613	42.9
2881	42.9
2884.385	45.9
2887.766	57.9
2891.145	53.9
2894.521	53.9
2897.894	49.9
2901.264	54.9
2904.631	48.9
2907.996	43.9
2911.358	58.9
2914.717	56.9
2918.073	53.9
2921.426	49.9
2924.777	56.9
2928.124	51.9
2931.469	62.9
2934.811	80.9
2938.15	81.9
2941.487	86.9
2944.821	75.9
2948.152	75.9
2951.48	73.9
2954.805	64.9
2958.128	56.9
2961.447	61.9
2964.765	53.9
2968.079	53.9
2971.39	44.9
2974.699	52.9
2978.005	58.9
2981.308	50.9
2984.609	50.9
2987.907	49.9
2991.202	50.9
2994.494	48.9
2997.784	42.9
3001.07	38.9
3004.355	45.9
3007.636	52.9
3010.915	49.9
3014.191	46.9
3017.464	49.9
3020.734	50.9
3024.002	45.9
3027.267	50.9
3030.53	48.9
3033.789	54.9
3037.046	42.9
3040.301	43.9
3043.552	55.9
3046.801	58.9
3050.048	60.9
3053.291	56.9
3056.532	55.9
3059.771	62.9
3063.006	66.9
3066.239	65.9
3069.469	74.9
3072.697	77.9
3075.922	87.9
3079.144	83.9
3082.364	84.9
3085.581	81.9
3088.795	92.9
3092.007	87.9
3095.216	92.9
3098.423	89.9
3101.627	82.9
3104.828	107.9
3108.026	99.9
3111.222	99.9
3114.416	105.9
3117.607	111.9
3120.795	108.9
3123.98	108.9
3127.163	125.9
3130.344	117.9
3133.521	130.9
3136.696	124.9
3139.869	126.9
3143.039	133.9
3146.206	135.9
3149.371	126.9
3152.533	140.9
3155.693	143.9
3158.85	138.9
3162.005	133.9
3165.157	130.9
3168.306	134.9
3171.453	141.9
3174.597	128.9
3177.739	148.9
3180.878	141.9
3184.014	130.9
3187.149	149.9
3190.28	139.9
3193.409	147.9
3196.536	142.9
3199.659	141.9
3202.781	142.9
3205.9	137.9
3209.016	127.9
3212.13	137.9
3215.241	142.9
3218.35	136.9
3221.456	142.9
3224.56	128.9
3227.661	127.9
3230.76	128.9
3233.856	124.9
3236.95	118.9
3240.041	114.9
3243.13	114.9
3246.216	104.9
3249.3	105.9
3252.382	110.9
3255.46	107.9
3258.537	109.9
3261.611	106.9
3264.682	107.9
3267.751	109.9
3270.818	90.9
3273.882	94.9
3276.943	97.9
3280.002	98.9
3283.059	98.9
3286.113	92.9
3289.165	92.9
3292.214	95.9
3295.261	94.9
3298.306	95.9
3301.348	91.9
3304.387	90.9
3307.425	90.9
3310.459	86.9
3313.492	95.9
3316.521	92.9
3319.549	95.9
3322.574	90.9
3325.597	93.9
3328.617	87.9
3331.635	90.9
3334.65	90.9
3337.663	84.9
3340.674	91.9
3343.682	85.9
3346.688	84.9
3349.691	84.9
3352.692	89.9
3355.691	88.9
3358.687	86.9
3361.681	85.9
3364.673	84.9
3367.662	77.9
3370.649	88.9
3373.633	77.9
3376.615	79.9
3379.595	78.9
3382.572	72.9
3385.547	70.9
3388.52	66.9
3391.49	65.9
3394.458	62.9
3397.424	63.9
3400.387	70.9
3403.348	56.9
3406.307	56.9
3409.263	58.9
3412.217	62.9
3415.168	62.9
3418.118	59.9
3421.065	51.9
3424.009	46.9
3426.951	52.9
3429.891	53.9
3432.829	48.9
3435.764	53.9
3438.697	46.9
3441.628	37.9
3444.557	35.9
3447.483	41.9
3450.407	25.9
3453.328	38.9
3456.247	26.9
3459.164	26.9
3462.079	20.9
3464.991	20.9
3467.902	16.9
3470.809	14.9
3473.715	14.9
3476.618	9.9
3479.519	11.9
3482.418	5.9
3485.315	8.9
3488.209	4.9
3491.101	2.9
3493.99	7.9
3496.878	-0.1
3499.763	-6.1
3502.646	-5.1
3505.527	-3.1
3508.405	-5.1
3511.281	-10.1
3514.155	-12.1
3517.027	-15.1
3519.897	-4.1
3522.764	-17.1
3525.629	-14.1
3528.492	-21.1
3531.352	-24.1
3534.211	-26.1
3537.067	-23.1
3539.921	-18.1
3542.773	-21.1
3545.622	-24.1
3548.469	-26.1
3551.315	-24.1
3554.157	-30.1
3556.998	-28.1
3559.837	-33.1
3562.673	-33.1
3565.507	-31.1
3568.339	-28.1
3571.169	-37.1
3573.996	-26.1
3576.822	-38.1
3579.645	-39.1
3582.466	-33.1
3585.285	-34.1
3588.101	-38.1
3590.916	-30.1
3593.728	-38.1
3596.538	-42.1
3599.346	-37.1
3602.152	-41.1
3604.956	-39.1
3607.757	-36.1
3610.556	-39.1
3613.354	-48.1
3616.149	-49.1
3618.942	-42.1
3621.732	-41.1
3624.521	-35.1
3627.307	-41.1
3630.092	-44.1
3632.874	-49.1
3635.654	-48.1
3638.432	-41.1
3641.208	-48.1
3643.982	-40.1
3646.753	-52.1
3649.523	-46.1
3652.29	-49.1
3655.055	-44.1
3657.818	-53.1
3660.579	-56.1
3663.338	-42.1
3666.095	-50.1
3668.849	-52.1
3671.602	-49.1
3674.352	-41.1
3677.101	-50.1
3679.847	-50.1
3682.591	-53.1
3685.333	-52.1
3688.073	-56.1
3690.811	-52.1
3693.547	-52.1
3696.281	-51.1
3699.013	-52.1
3701.742	-56.1
3704.47	-55.1
3707.195	-53.1
3709.919	-55.1
3712.64	-50.1
3715.359	-59.1
3718.076	-57.1
3720.792	-57.1
3723.505	-52.1
3726.216	-55.1
3728.925	-61.1
3731.632	-53.1
3734.336	-57.1
3737.039	-54.1
3739.74	-56.1
3742.439	-63.1
3745.136	-56.1
3747.83	-52.1
3750.523	-63.1
3753.213	-60.1
3755.902	-62.1
3758.589	-57.1
3761.273	-53.1
3763.956	-58.1
3766.636	-51.1
3769.315	-52.1
3771.991	-56.1
3774.665	-60.1
3777.338	-54.1
3780.008	-59.1
3782.677	-65.1
3785.343	-60.1
3788.007	-58.1
3790.67	-61.1
3793.33	-53.1
3795.989	-59.1
3798.645	-62.1
3801.299	-54.1
3803.952	-58.1
3806.602	-57.1
3809.251	-58.1
3811.897	-61.1
3814.542	-60.1
3817.184	-58.1
3819.825	-55.1
3822.463	-59.1
3825.1	-51.1
3827.735	-63.1
3830.367	-60.1
3832.998	-63.1
3835.627	-60.1
3838.253	-55.1
3840.878	-55.1
3843.501	-51.1
3846.122	-64.1
3848.741	-63.1
3851.358	-61.1
3853.973	-57.1
3856.586	-56.1
3859.197	-60.1
3861.806	-61.1
3864.414	-58.1
3867.019	-56.1
3869.622	-51.1
3872.224	-49.1
3874.823	-37.1
3877.421	-33.1
3880.016	-18.1
3882.61	1.9
3885.202	1.9
3887.792	-7.1
3890.38	-22.1
3892.966	-41.1
3895.55	-47.1
3898.132	-53.1
3900.713	-58.1
3903.291	-62.1
3905.868	-60.1
3908.442	-58.1
3911.015	-61.1
3913.586	-62.1
3916.155	-59.1
3918.722	-57.1
3921.287	-62.1
3923.85	-54.1
3926.411	-62.1
3928.971	-66.1
3931.528	-59.1
3934.084	-53.1
3936.638	-54.1
3939.19	-63.1
3941.74	-59.1
3944.288	-60.1
3946.834	-59.1
3949.378	-62.1
3951.921	-65.1
3954.462	-59.1
3957	-50.1
3959.537	-47.1
3962.072	-58.1
3964.606	-57.1
3967.137	-56.1
3969.667	-68.1
3972.194	-57.1
3974.72	-61.1
3977.244	-51.1
3979.766	-56.1
3982.286	-58.1
3984.805	-68.1
3987.321	-63.1
3989.836	-58.1
3992.349	-59.1
3994.86	-60.1
3997.369	-62.1
3999.877	-60.1
4002.382	-58.1
4004.886	-58.1
4007.388	-61.1
4009.888	-60.1
4012.386	-60.1
4014.883	-57.1
4017.377	-59.1
4019.87	-61.1
4022.361	-62.1
4024.85	-54.1
4027.338	-60.1
4029.823	-61.1
4032.307	-62.1
4034.789	-59.1
4037.269	-57.1
4039.747	-61.1
4042.224	-63.1
4044.699	-59.1
4047.172	-67.1
4049.643	-55.1
4052.112	-57.1
4054.58	-55.1
4057.046	-57.1
4059.51	-59.1
4061.972	-64.1
4064.432	-60.1
4066.891	-57.1
4069.348	-55.1
4071.803	-54.1
4074.256	-57.1
4076.708	-57.1
4079.158	-61.1
4081.606	-59.1
4084.052	-60.1
4086.497	-57.1
4088.939	-61.1
4091.38	-62.1
4093.819	-64.1
4096.257	-61.1
4098.693	-63.1
4101.127	-61.1
4103.559	-64.1
4105.989	26.9
4108.418	10.9
4110.845	6.9
4113.27	15.9
4115.694	13.9
4118.115	8.9
4120.535	-58.1
4122.954	-59.1
4125.37	-59.1
4127.785	-49.1
4130.198	-58.1
4132.609	-59.1
4135.019	-63.1
4137.427	-68.1
4139.833	-59.1
4142.237	-63.1
