Data from 2018-3-7_conc=0_n=10_RamanShift_04.txt Node
Date: Wed Mar 07 10:37:22 IST 2018
User: aro
Spectrometer: QEPB0276
Trigger mode: 0
Integration Time (sec): 3.000000E1
Scans to average: 1
Electric dark correction enabled: true
Nonlinearity correction enabled: false
Boxcar width: 0
XAxis mode: Raman Shifts
Number of Pixels in Spectrum: 1044
>>>>>Begin Spectral Data<<<<<
160.701	6.6
166.742	14.6
172.777	49.6
178.805	151.6
184.826	382.6
190.841	801.6
196.849	1301.6
202.85	1695.6
208.845	1841.6
214.833	1841.6
220.815	1796.6
226.789	1828.6
232.758	1842.6
238.719	1854.6
244.674	1857.6
250.623	1852.6
256.565	1847.6
262.5	1811.6
268.429	1795.6
274.351	1792.6
280.267	1791.6
286.176	1776.6
292.079	1772.6
297.975	1791.6
303.865	1795.6
309.748	1796.6
315.625	1810.6
321.495	1810.6
327.359	1808.6
333.217	1813.6
339.068	1819.6
344.912	1813.6
350.751	1812.6
356.583	1826.6
362.408	1837.6
368.227	1834.6
374.04	1860.6
379.847	1857.6
385.647	1873.6
391.44	1871.6
397.228	1890.6
403.009	1909.6
408.784	1905.6
414.553	1935.6
420.315	1922.6
426.071	1935.6
431.821	1934.6
437.565	1940.6
443.302	1934.6
449.033	1932.6
454.758	1922.6
460.477	1888.6
466.189	1874.6
471.896	1863.6
477.596	1836.6
483.29	1834.6
488.978	1831.6
494.66	1837.6
500.335	1776.6
506.005	1714.6
511.668	1631.6
517.325	1561.6
522.977	1492.6
528.622	1449.6
534.261	1430.6
539.894	1393.6
545.521	1386.6
551.141	1360.6
556.756	1349.6
562.365	1327.6
567.968	1323.6
573.565	1317.6
579.155	1276.6
584.74	1311.6
590.319	1291.6
595.892	1304.6
601.459	1300.6
607.02	1275.6
612.575	1274.6
618.124	1272.6
623.667	1251.6
629.204	1236.6
634.735	1239.6
640.261	1214.6
645.781	1189.6
651.294	1196.6
656.802	1205.6
662.304	1195.6
667.8	1188.6
673.29	1192.6
678.775	1184.6
684.254	1187.6
689.726	1177.6
695.193	1157.6
700.655	1145.6
706.11	1140.6
711.56	1137.6
717.004	1135.6
722.442	1128.6
727.874	1123.6
733.301	1144.6
738.722	1110.6
744.137	1106.6
749.547	1103.6
754.951	1096.6
760.349	1105.6
765.741	1115.6
771.128	1121.6
776.509	1126.6
781.885	1142.6
787.254	1161.6
792.618	1159.6
797.977	1152.6
803.33	1137.6
808.677	1124.6
814.019	1130.6
819.355	1133.6
824.686	1112.6
830.011	1098.6
835.33	1096.6
840.644	1098.6
845.952	1083.6
851.255	1077.6
856.552	1083.6
861.844	1054.6
867.13	1061.6
872.41	1069.6
877.686	1087.6
882.955	1110.6
888.219	1092.6
893.478	1043.6
898.731	1001.6
903.979	990.6
909.221	992.6
914.458	964.6
919.69	962.6
924.916	982.6
930.136	973.6
935.351	975.6
940.561	982.6
945.766	978.6
950.965	964.6
956.158	954.6
961.347	946.6
966.529	942.6
971.707	912.6
976.879	896.6
982.046	903.6
987.208	895.6
992.364	892.6
997.515	902.6
1002.66	900.6
1007.801	910.6
1012.936	934.6
1018.066	931.6
1023.19	937.6
1028.309	925.6
1033.423	938.6
1038.532	942.6
1043.636	930.6
1048.734	923.6
1053.827	941.6
1058.915	903.6
1063.998	888.6
1069.075	883.6
1074.147	901.6
1079.214	902.6
1084.276	901.6
1089.333	928.6
1094.385	921.6
1099.431	899.6
1104.472	884.6
1109.509	884.6
1114.54	864.6
1119.565	851.6
1124.586	852.6
1129.602	841.6
1134.613	833.6
1139.618	824.6
1144.619	813.6
1149.614	829.6
1154.604	829.6
1159.589	825.6
1164.57	826.6
1169.545	811.6
1174.515	830.6
1179.48	826.6
1184.44	827.6
1189.395	817.6
1194.345	812.6
1199.29	799.6
1204.23	795.6
1209.165	808.6
1214.095	806.6
1219.021	810.6
1223.941	810.6
1228.856	826.6
1233.766	818.6
1238.672	818.6
1243.572	813.6
1248.467	799.6
1253.358	803.6
1258.244	791.6
1263.124	782.6
1268	778.6
1272.871	752.6
1277.737	746.6
1282.599	760.6
1287.455	755.6
1292.306	744.6
1297.153	737.6
1301.995	750.6
1306.832	753.6
1311.664	754.6
1316.491	748.6
1321.314	761.6
1326.132	756.6
1330.945	739.6
1335.753	719.6
1340.556	702.6
1345.354	696.6
1350.148	689.6
1354.937	677.6
1359.722	659.6
1364.501	634.6
1369.276	625.6
1374.046	627.6
1378.811	617.6
1383.572	611.6
1388.327	600.6
1393.079	607.6
1397.825	629.6
1402.567	628.6
1407.304	639.6
1412.036	629.6
1416.764	625.6
1421.487	632.6
1426.205	633.6
1430.919	638.6
1435.628	635.6
1440.333	638.6
1445.032	645.6
1449.727	663.6
1454.418	666.6
1459.104	667.6
1463.785	647.6
1468.462	635.6
1473.134	618.6
1477.802	590.6
1482.465	569.6
1487.123	559.6
1491.777	556.6
1496.426	546.6
1501.071	536.6
1505.711	518.6
1510.347	523.6
1514.978	516.6
1519.604	521.6
1524.226	509.6
1528.844	518.6
1533.457	509.6
1538.065	506.6
1542.669	505.6
1547.269	511.6
1551.864	516.6
1556.454	535.6
1561.041	551.6
1565.622	551.6
1570.199	536.6
1574.772	534.6
1579.34	544.6
1583.904	553.6
1588.464	566.6
1593.019	553.6
1597.569	572.6
1602.115	569.6
1606.657	565.6
1611.195	548.6
1615.728	541.6
1620.256	535.6
1624.78	548.6
1629.3	553.6
1633.816	541.6
1638.327	546.6
1642.834	544.6
1647.336	536.6
1651.834	544.6
1656.328	551.6
1660.817	535.6
1665.302	512.6
1669.783	524.6
1674.259	507.6
1678.732	492.6
1683.199	476.6
1687.663	460.6
1692.122	442.6
1696.577	416.6
1701.028	403.6
1705.474	377.6
1709.917	375.6
1714.355	379.6
1718.788	368.6
1723.218	372.6
1727.643	371.6
1732.064	373.6
1736.481	375.6
1740.893	363.6
1745.301	365.6
1749.705	345.6
1754.105	345.6
1758.501	330.6
1762.893	333.6
1767.28	319.6
1771.663	301.6
1776.042	305.6
1780.417	299.6
1784.787	301.6
1789.154	293.6
1793.516	276.6
1797.874	277.6
1802.228	281.6
1806.578	273.6
1810.924	271.6
1815.266	279.6
1819.603	277.6
1823.937	271.6
1828.266	275.6
1832.591	288.6
1836.913	287.6
1841.23	284.6
1845.543	278.6
1849.852	284.6
1854.156	281.6
1858.457	293.6
1862.754	292.6
1867.047	284.6
1871.335	285.6
1875.62	275.6
1879.9	279.6
1884.177	269.6
1888.449	262.6
1892.718	272.6
1896.982	270.6
1901.243	245.6
1905.499	244.6
1909.752	243.6
1914	250.6
1918.245	239.6
1922.485	237.6
1926.722	222.6
1930.954	230.6
1935.183	221.6
1939.408	225.6
1943.628	219.6
1947.845	213.6
1952.058	215.6
1956.267	209.6
1960.472	216.6
1964.673	215.6
1968.87	204.6
1973.063	212.6
1977.252	213.6
1981.438	225.6
1985.619	207.6
1989.797	204.6
1993.971	211.6
1998.14	215.6
2002.306	217.6
2006.469	222.6
2010.627	223.6
2014.781	211.6
2018.932	215.6
2023.078	211.6
2027.221	219.6
2031.36	211.6
2035.495	207.6
2039.627	195.6
2043.754	203.6
2047.878	197.6
2051.998	197.6
2056.114	187.6
2060.226	194.6
2064.334	189.6
2068.439	187.6
2072.54	183.6
2076.637	182.6
2080.73	188.6
2084.82	180.6
2088.906	181.6
2092.988	182.6
2097.066	173.6
2101.14	177.6
2105.211	170.6
2109.278	176.6
2113.342	165.6
2117.401	161.6
2121.457	163.6
2125.509	165.6
2129.558	160.6
2133.602	171.6
2137.643	172.6
2141.681	170.6
2145.714	169.6
2149.744	169.6
2153.77	171.6
2157.793	161.6
2161.812	173.6
2165.827	163.6
2169.838	162.6
2173.846	162.6
2177.851	158.6
2181.851	159.6
2185.848	157.6
2189.841	158.6
2193.831	150.6
2197.817	155.6
2201.799	147.6
2205.778	151.6
2209.753	155.6
2213.725	150.6
2217.693	155.6
2221.657	149.6
2225.618	146.6
2229.575	147.6
2233.529	148.6
2237.479	155.6
2241.425	139.6
2245.368	148.6
2249.307	142.6
2253.243	142.6
2257.175	140.6
2261.104	140.6
2265.029	141.6
2268.95	127.6
2272.868	128.6
2276.783	131.6
2280.694	126.6
2284.601	122.6
2288.505	125.6
2292.405	131.6
2296.302	131.6
2300.195	123.6
2304.085	126.6
2307.971	117.6
2311.854	118.6
2315.734	118.6
2319.609	113.6
2323.482	120.6
2327.351	123.6
2331.216	136.6
2335.078	148.6
2338.937	139.6
2342.792	122.6
2346.643	118.6
2350.492	117.6
2354.336	124.6
2358.178	109.6
2362.015	111.6
2365.85	125.6
2369.681	119.6
2373.508	124.6
2377.333	123.6
2381.153	123.6
2384.971	118.6
2388.785	113.6
2392.595	120.6
2396.402	115.6
2400.206	111.6
2404.007	113.6
2407.804	114.6
2411.597	121.6
2415.388	114.6
2419.174	119.6
2422.958	106.6
2426.738	118.6
2430.515	117.6
2434.289	109.6
2438.059	114.6
2441.825	105.6
2445.589	102.6
2449.349	104.6
2453.106	110.6
2456.859	102.6
2460.61	99.6
2464.356	97.6
2468.1	98.6
2471.84	94.6
2475.577	84.6
2479.311	96.6
2483.041	97.6
2486.768	88.6
2490.492	97.6
2494.213	88.6
2497.93	93.6
2501.644	97.6
2505.355	85.6
2509.062	86.6
2512.766	85.6
2516.467	73.6
2520.165	81.6
2523.859	91.6
2527.551	74.6
2531.239	79.6
2534.923	74.6
2538.605	74.6
2542.283	66.6
2545.958	73.6
2549.63	72.6
2553.299	70.6
2556.964	67.6
2560.626	67.6
2564.285	70.6
2567.941	64.6
2571.594	64.6
2575.243	64.6
2578.89	61.6
2582.533	64.6
2586.173	61.6
2589.809	64.6
2593.443	68.6
2597.073	59.6
2600.701	57.6
2604.325	56.6
2607.946	55.6
2611.564	63.6
2615.178	63.6
2618.79	62.6
2622.398	55.6
2626.004	55.6
2629.606	46.6
2633.205	57.6
2636.801	51.6
2640.394	60.6
2643.983	54.6
2647.57	55.6
2651.153	52.6
2654.734	52.6
2658.311	56.6
2661.885	55.6
2665.456	50.6
2669.025	59.6
2672.589	50.6
2676.151	46.6
2679.71	46.6
2683.266	44.6
2686.819	51.6
2690.368	54.6
2693.915	49.6
2697.458	42.6
2700.999	53.6
2704.536	50.6
2708.071	46.6
2711.602	38.6
2715.13	31.6
2718.656	34.6
2722.178	34.6
2725.697	35.6
2729.214	31.6
2732.727	46.6
2736.237	40.6
2739.744	31.6
2743.249	39.6
2746.75	36.6
2750.248	31.6
2753.743	23.6
2757.236	28.6
2760.725	32.6
2764.211	26.6
2767.695	24.6
2771.175	32.6
2774.652	25.6
2778.127	22.6
2781.598	20.6
2785.067	18.6
2788.532	14.6
2791.995	27.6
2795.455	22.6
2798.911	24.6
2802.365	26.6
2805.816	28.6
2809.264	27.6
2812.709	22.6
2816.151	28.6
2819.59	32.6
2823.026	29.6
2826.46	30.6
2829.89	24.6
2833.318	31.6
2836.742	35.6
2840.164	32.6
2843.583	33.6
2846.999	43.6
2850.412	30.6
2853.822	31.6
2857.229	26.6
2860.634	28.6
2864.035	34.6
2867.434	36.6
2870.83	45.6
2874.223	46.6
2877.613	42.6
2881	47.6
2884.385	49.6
2887.766	51.6
2891.145	49.6
2894.521	48.6
2897.894	45.6
2901.264	45.6
2904.631	41.6
2907.996	52.6
2911.358	57.6
2914.717	47.6
2918.073	53.6
2921.426	58.6
2924.777	60.6
2928.124	65.6
2931.469	64.6
2934.811	66.6
2938.15	73.6
2941.487	77.6
2944.821	63.6
2948.152	71.6
2951.48	64.6
2954.805	66.6
2958.128	59.6
2961.447	52.6
2964.765	57.6
2968.079	50.6
2971.39	49.6
2974.699	54.6
2978.005	59.6
2981.308	55.6
2984.609	49.6
2987.907	59.6
2991.202	53.6
2994.494	47.6
2997.784	43.6
3001.07	47.6
3004.355	45.6
3007.636	53.6
3010.915	43.6
3014.191	44.6
3017.464	43.6
3020.734	55.6
3024.002	54.6
3027.267	53.6
3030.53	56.6
3033.789	58.6
3037.046	54.6
3040.301	51.6
3043.552	53.6
3046.801	58.6
3050.048	61.6
3053.291	63.6
3056.532	67.6
3059.771	75.6
3063.006	75.6
3066.239	70.6
3069.469	81.6
3072.697	78.6
3075.922	86.6
3079.144	86.6
3082.364	88.6
3085.581	89.6
3088.795	91.6
3092.007	96.6
3095.216	96.6
3098.423	90.6
3101.627	88.6
3104.828	104.6
3108.026	102.6
3111.222	98.6
3114.416	100.6
3117.607	109.6
3120.795	106.6
3123.98	115.6
3127.163	126.6
3130.344	125.6
3133.521	123.6
3136.696	125.6
3139.869	131.6
3143.039	134.6
3146.206	136.6
3149.371	138.6
3152.533	142.6
3155.693	142.6
3158.85	142.6
3162.005	143.6
3165.157	145.6
3168.306	139.6
3171.453	137.6
3174.597	133.6
3177.739	140.6
3180.878	141.6
3184.014	140.6
3187.149	142.6
3190.28	144.6
3193.409	144.6
3196.536	144.6
3199.659	145.6
3202.781	145.6
3205.9	142.6
3209.016	142.6
3212.13	134.6
3215.241	142.6
3218.35	137.6
3221.456	137.6
3224.56	128.6
3227.661	135.6
3230.76	137.6
3233.856	116.6
3236.95	124.6
3240.041	123.6
3243.13	127.6
3246.216	113.6
3249.3	109.6
3252.382	112.6
3255.46	113.6
3258.537	105.6
3261.611	107.6
3264.682	111.6
3267.751	105.6
3270.818	95.6
3273.882	99.6
3276.943	94.6
3280.002	102.6
3283.059	99.6
3286.113	108.6
3289.165	96.6
3292.214	102.6
3295.261	103.6
3298.306	98.6
3301.348	97.6
3304.387	97.6
3307.425	96.6
3310.459	86.6
3313.492	85.6
3316.521	89.6
3319.549	99.6
3322.574	91.6
3325.597	90.6
3328.617	94.6
3331.635	97.6
3334.65	99.6
3337.663	83.6
3340.674	88.6
3343.682	85.6
3346.688	84.6
3349.691	93.6
3352.692	91.6
3355.691	99.6
3358.687	89.6
3361.681	88.6
3364.673	84.6
3367.662	84.6
3370.649	84.6
3373.633	79.6
3376.615	81.6
3379.595	83.6
3382.572	75.6
3385.547	85.6
3388.52	69.6
3391.49	68.6
3394.458	69.6
3397.424	67.6
3400.387	66.6
3403.348	65.6
3406.307	60.6
3409.263	65.6
3412.217	66.6
3415.168	66.6
3418.118	60.6
3421.065	53.6
3424.009	53.6
3426.951	56.6
3429.891	51.6
3432.829	48.6
3435.764	52.6
3438.697	50.6
3441.628	47.6
3444.557	41.6
3447.483	43.6
3450.407	34.6
3453.328	45.6
3456.247	35.6
3459.164	37.6
3462.079	23.6
3464.991	28.6
3467.902	23.6
3470.809	22.6
3473.715	16.6
3476.618	20.6
3479.519	14.6
3482.418	19.6
3485.315	11.6
3488.209	1.6
3491.101	2.6
3493.99	14.6
3496.878	6.6
3499.763	3.6
3502.646	2.6
3505.527	2.6
3508.405	0.6
3511.281	0.6
3514.155	-6.4
3517.027	-11.4
3519.897	-11.4
3522.764	-8.4
3525.629	-6.4
3528.492	-9.4
3531.352	-18.4
3534.211	-13.4
3537.067	-12.4
3539.921	-12.4
3542.773	-24.4
3545.622	-20.4
3548.469	-20.4
3551.315	-20.4
3554.157	-20.4
3556.998	-20.4
3559.837	-25.4
3562.673	-21.4
3565.507	-20.4
3568.339	-18.4
3571.169	-34.4
3573.996	-23.4
3576.822	-28.4
3579.645	-29.4
3582.466	-23.4
3585.285	-29.4
3588.101	-32.4
3590.916	-31.4
3593.728	-32.4
3596.538	-37.4
3599.346	-37.4
3602.152	-33.4
3604.956	-37.4
3607.757	-30.4
3610.556	-35.4
3613.354	-38.4
3616.149	-36.4
3618.942	-35.4
3621.732	-39.4
3624.521	-32.4
3627.307	-34.4
3630.092	-42.4
3632.874	-42.4
3635.654	-42.4
3638.432	-39.4
3641.208	-37.4
3643.982	-34.4
3646.753	-40.4
3649.523	-38.4
3652.29	-39.4
3655.055	-42.4
3657.818	-46.4
3660.579	-45.4
3663.338	-40.4
3666.095	-48.4
3668.849	-42.4
3671.602	-47.4
3674.352	-42.4
3677.101	-45.4
3679.847	-41.4
3682.591	-48.4
3685.333	-48.4
3688.073	-50.4
3690.811	-41.4
3693.547	-45.4
3696.281	-42.4
3699.013	-46.4
3701.742	-47.4
3704.47	-43.4
3707.195	-46.4
3709.919	-48.4
3712.64	-49.4
3715.359	-51.4
3718.076	-53.4
3720.792	-52.4
3723.505	-49.4
3726.216	-44.4
3728.925	-48.4
3731.632	-50.4
3734.336	-47.4
3737.039	-42.4
3739.74	-52.4
3742.439	-57.4
3745.136	-52.4
3747.83	-49.4
3750.523	-49.4
3753.213	-50.4
3755.902	-47.4
3758.589	-53.4
3761.273	-52.4
3763.956	-53.4
3766.636	-47.4
3769.315	-46.4
3771.991	-50.4
3774.665	-52.4
3777.338	-48.4
3780.008	-48.4
3782.677	-55.4
3785.343	-51.4
3788.007	-55.4
3790.67	-51.4
3793.33	-53.4
3795.989	-52.4
3798.645	-56.4
3801.299	-56.4
3803.952	-53.4
3806.602	-53.4
3809.251	-51.4
3811.897	-53.4
3814.542	-55.4
3817.184	-54.4
3819.825	-46.4
3822.463	-51.4
3825.1	-45.4
3827.735	-61.4
3830.367	-54.4
3832.998	-55.4
3835.627	-54.4
3838.253	-48.4
3840.878	-45.4
3843.501	-50.4
3846.122	-55.4
3848.741	-57.4
3851.358	-54.4
3853.973	-53.4
3856.586	-53.4
3859.197	-52.4
3861.806	-51.4
3864.414	-50.4
3867.019	-50.4
3869.622	-47.4
3872.224	-39.4
3874.823	-33.4
3877.421	-32.4
3880.016	-18.4
3882.61	-6.4
3885.202	-1.4
3887.792	-2.4
3890.38	-24.4
3892.966	-38.4
3895.55	-47.4
3898.132	-46.4
3900.713	-50.4
3903.291	-52.4
3905.868	-46.4
3908.442	-52.4
3911.015	-53.4
3913.586	-51.4
3916.155	-53.4
3918.722	-54.4
3921.287	-53.4
3923.85	-47.4
3926.411	-54.4
3928.971	-58.4
3931.528	-52.4
3934.084	-51.4
3936.638	-48.4
3939.19	-61.4
3941.74	-56.4
3944.288	-53.4
3946.834	-53.4
3949.378	-52.4
3951.921	-57.4
3954.462	-56.4
3957	-46.4
3959.537	-45.4
3962.072	-46.4
3964.606	-45.4
3967.137	-49.4
3969.667	-52.4
3972.194	-56.4
3974.72	-45.4
3977.244	-49.4
3979.766	-56.4
3982.286	-53.4
3984.805	-61.4
3987.321	-55.4
3989.836	-47.4
3992.349	-47.4
3994.86	-58.4
3997.369	-57.4
3999.877	-56.4
4002.382	-56.4
4004.886	-44.4
4007.388	-55.4
4009.888	-51.4
4012.386	-53.4
4014.883	-54.4
4017.377	-48.4
4019.87	-49.4
4022.361	-55.4
4024.85	-50.4
4027.338	-54.4
4029.823	-55.4
4032.307	-54.4
4034.789	-45.4
4037.269	-49.4
4039.747	-50.4
4042.224	-55.4
4044.699	-56.4
4047.172	-58.4
4049.643	-53.4
4052.112	-53.4
4054.58	-54.4
4057.046	-50.4
4059.51	-51.4
4061.972	-54.4
4064.432	-45.4
4066.891	-47.4
4069.348	-47.4
4071.803	-46.4
4074.256	-49.4
4076.708	-56.4
4079.158	-56.4
4081.606	-52.4
4084.052	-48.4
4086.497	-48.4
4088.939	-43.4
4091.38	-55.4
4093.819	-56.4
4096.257	-52.4
4098.693	-53.4
4101.127	-48.4
4103.559	-58.4
4105.989	13.6
4108.418	13.6
4110.845	-1.4
4113.27	9.6
4115.694	13.6
4118.115	9.6
4120.535	-57.4
4122.954	-49.4
4125.37	-52.4
4127.785	-48.4
4130.198	-49.4
4132.609	-54.4
4135.019	-57.4
4137.427	-57.4
4139.833	-54.4
4142.237	-53.4
