Data from 2018-3-7_conc=3_n=6_RamanShift_01.txt Node
Date: Wed Mar 07 11:31:22 IST 2018
User: aro
Spectrometer: QEPB0276
Trigger mode: 0
Integration Time (sec): 3.000000E1
Scans to average: 1
Electric dark correction enabled: true
Nonlinearity correction enabled: false
Boxcar width: 0
XAxis mode: Raman Shifts
Number of Pixels in Spectrum: 1044
>>>>>Begin Spectral Data<<<<<
160.701	18.4
166.742	27.4
172.777	54.4
178.805	136.4
184.826	347.4
190.841	733.4
196.849	1217.4
202.85	1585.4
208.845	1713.4
214.833	1723.4
220.815	1708.4
226.789	1693.4
232.758	1713.4
238.719	1727.4
244.674	1702.4
250.623	1705.4
256.565	1668.4
262.5	1653.4
268.429	1639.4
274.351	1643.4
280.267	1632.4
286.176	1643.4
292.079	1637.4
297.975	1645.4
303.865	1635.4
309.748	1640.4
315.625	1628.4
321.495	1630.4
327.359	1630.4
333.217	1623.4
339.068	1631.4
344.912	1655.4
350.751	1648.4
356.583	1648.4
362.408	1639.4
368.227	1662.4
374.04	1667.4
379.847	1670.4
385.647	1675.4
391.44	1696.4
397.228	1685.4
403.009	1709.4
408.784	1717.4
414.553	1727.4
420.315	1729.4
426.071	1725.4
431.821	1704.4
437.565	1735.4
443.302	1737.4
449.033	1720.4
454.758	1711.4
460.477	1704.4
466.189	1674.4
471.896	1671.4
477.596	1652.4
483.29	1659.4
488.978	1651.4
494.66	1633.4
500.335	1605.4
506.005	1536.4
511.668	1476.4
517.325	1409.4
522.977	1359.4
528.622	1324.4
534.261	1312.4
539.894	1281.4
545.521	1246.4
551.141	1228.4
556.756	1228.4
562.365	1226.4
567.968	1218.4
573.565	1201.4
579.155	1189.4
584.74	1204.4
590.319	1180.4
595.892	1190.4
601.459	1185.4
607.02	1169.4
612.575	1162.4
618.124	1157.4
623.667	1132.4
629.204	1118.4
634.735	1094.4
640.261	1105.4
645.781	1097.4
651.294	1099.4
656.802	1095.4
662.304	1069.4
667.8	1080.4
673.29	1087.4
678.775	1071.4
684.254	1086.4
689.726	1064.4
695.193	1057.4
700.655	1052.4
706.11	1059.4
711.56	1050.4
717.004	1034.4
722.442	1022.4
727.874	1008.4
733.301	1020.4
738.722	1012.4
744.137	1020.4
749.547	1015.4
754.951	1023.4
760.349	1009.4
765.741	1007.4
771.128	1014.4
776.509	1029.4
781.885	1045.4
787.254	1050.4
792.618	1054.4
797.977	1060.4
803.33	1037.4
808.677	1029.4
814.019	1036.4
819.355	1019.4
824.686	1003.4
830.011	997.4
835.33	996.4
840.644	986.4
845.952	980.4
851.255	985.4
856.552	978.4
861.844	954.4
867.13	945.4
872.41	948.4
877.686	954.4
882.955	942.4
888.219	933.4
893.478	920.4
898.731	902.4
903.979	899.4
909.221	883.4
914.458	876.4
919.69	876.4
924.916	878.4
930.136	884.4
935.351	884.4
940.561	878.4
945.766	877.4
950.965	869.4
956.158	867.4
961.347	854.4
966.529	861.4
971.707	830.4
976.879	820.4
982.046	817.4
987.208	828.4
992.364	819.4
997.515	810.4
1002.66	822.4
1007.801	841.4
1012.936	834.4
1018.066	841.4
1023.19	836.4
1028.309	838.4
1033.423	836.4
1038.532	833.4
1043.636	825.4
1048.734	821.4
1053.827	807.4
1058.915	813.4
1063.998	803.4
1069.075	795.4
1074.147	783.4
1079.214	804.4
1084.276	807.4
1089.333	803.4
1094.385	803.4
1099.431	798.4
1104.472	801.4
1109.509	801.4
1114.54	765.4
1119.565	761.4
1124.586	752.4
1129.602	752.4
1134.613	750.4
1139.618	739.4
1144.619	739.4
1149.614	757.4
1154.604	737.4
1159.589	747.4
1164.57	743.4
1169.545	743.4
1174.515	755.4
1179.48	729.4
1184.44	723.4
1189.395	732.4
1194.345	724.4
1199.29	699.4
1204.23	728.4
1209.165	717.4
1214.095	732.4
1219.021	724.4
1223.941	732.4
1228.856	742.4
1233.766	737.4
1238.672	739.4
1243.572	728.4
1248.467	734.4
1253.358	725.4
1258.244	714.4
1263.124	708.4
1268	688.4
1272.871	657.4
1277.737	661.4
1282.599	681.4
1287.455	669.4
1292.306	679.4
1297.153	668.4
1301.995	676.4
1306.832	689.4
1311.664	676.4
1316.491	672.4
1321.314	679.4
1326.132	679.4
1330.945	663.4
1335.753	649.4
1340.556	621.4
1345.354	623.4
1350.148	604.4
1354.937	604.4
1359.722	579.4
1364.501	580.4
1369.276	575.4
1374.046	570.4
1378.811	551.4
1383.572	562.4
1388.327	551.4
1393.079	548.4
1397.825	551.4
1402.567	561.4
1407.304	556.4
1412.036	562.4
1416.764	567.4
1421.487	566.4
1426.205	563.4
1430.919	549.4
1435.628	571.4
1440.333	571.4
1445.032	560.4
1449.727	582.4
1454.418	573.4
1459.104	574.4
1463.785	567.4
1468.462	564.4
1473.134	549.4
1477.802	528.4
1482.465	508.4
1487.123	507.4
1491.777	496.4
1496.426	490.4
1501.071	477.4
1505.711	485.4
1510.347	482.4
1514.978	469.4
1519.604	483.4
1524.226	470.4
1528.844	469.4
1533.457	467.4
1538.065	471.4
1542.669	472.4
1547.269	454.4
1551.864	465.4
1556.454	478.4
1561.041	487.4
1565.622	477.4
1570.199	483.4
1574.772	477.4
1579.34	500.4
1583.904	493.4
1588.464	507.4
1593.019	504.4
1597.569	502.4
1602.115	501.4
1606.657	509.4
1611.195	508.4
1615.728	501.4
1620.256	494.4
1624.78	505.4
1629.3	501.4
1633.816	501.4
1638.327	508.4
1642.834	498.4
1647.336	491.4
1651.834	501.4
1656.328	495.4
1660.817	497.4
1665.302	493.4
1669.783	467.4
1674.259	463.4
1678.732	451.4
1683.199	437.4
1687.663	430.4
1692.122	400.4
1696.577	391.4
1701.028	371.4
1705.474	351.4
1709.917	345.4
1714.355	341.4
1718.788	340.4
1723.218	339.4
1727.643	330.4
1732.064	340.4
1736.481	342.4
1740.893	325.4
1745.301	326.4
1749.705	323.4
1754.105	309.4
1758.501	293.4
1762.893	303.4
1767.28	284.4
1771.663	290.4
1776.042	282.4
1780.417	282.4
1784.787	265.4
1789.154	260.4
1793.516	252.4
1797.874	256.4
1802.228	263.4
1806.578	251.4
1810.924	246.4
1815.266	244.4
1819.603	252.4
1823.937	246.4
1828.266	254.4
1832.591	250.4
1836.913	253.4
1841.23	256.4
1845.543	250.4
1849.852	259.4
1854.156	258.4
1858.457	255.4
1862.754	261.4
1867.047	253.4
1871.335	253.4
1875.62	245.4
1879.9	255.4
1884.177	247.4
1888.449	255.4
1892.718	248.4
1896.982	234.4
1901.243	227.4
1905.499	228.4
1909.752	215.4
1914	209.4
1918.245	215.4
1922.485	202.4
1926.722	205.4
1930.954	200.4
1935.183	209.4
1939.408	214.4
1943.628	198.4
1947.845	208.4
1952.058	205.4
1956.267	196.4
1960.472	192.4
1964.673	198.4
1968.87	184.4
1973.063	194.4
1977.252	198.4
1981.438	184.4
1985.619	179.4
1989.797	188.4
1993.971	192.4
1998.14	183.4
2002.306	191.4
2006.469	197.4
2010.627	191.4
2014.781	193.4
2018.932	183.4
2023.078	186.4
2027.221	188.4
2031.36	189.4
2035.495	179.4
2039.627	179.4
2043.754	186.4
2047.878	174.4
2051.998	173.4
2056.114	170.4
2060.226	166.4
2064.334	173.4
2068.439	174.4
2072.54	169.4
2076.637	177.4
2080.73	172.4
2084.82	169.4
2088.906	171.4
2092.988	164.4
2097.066	152.4
2101.14	158.4
2105.211	155.4
2109.278	155.4
2113.342	141.4
2117.401	158.4
2121.457	149.4
2125.509	146.4
2129.558	150.4
2133.602	144.4
2137.643	151.4
2141.681	143.4
2145.714	150.4
2149.744	152.4
2153.77	152.4
2157.793	153.4
2161.812	145.4
2165.827	150.4
2169.838	146.4
2173.846	142.4
2177.851	131.4
2181.851	139.4
2185.848	137.4
2189.841	134.4
2193.831	135.4
2197.817	139.4
2201.799	132.4
2205.778	132.4
2209.753	131.4
2213.725	130.4
2217.693	124.4
2221.657	132.4
2225.618	129.4
2229.575	120.4
2233.529	127.4
2237.479	128.4
2241.425	119.4
2245.368	128.4
2249.307	127.4
2253.243	122.4
2257.175	114.4
2261.104	112.4
2265.029	116.4
2268.95	113.4
2272.868	116.4
2276.783	110.4
2280.694	110.4
2284.601	102.4
2288.505	107.4
2292.405	110.4
2296.302	103.4
2300.195	98.4
2304.085	102.4
2307.971	100.4
2311.854	92.4
2315.734	91.4
2319.609	99.4
2323.482	92.4
2327.351	102.4
2331.216	110.4
2335.078	124.4
2338.937	113.4
2342.792	94.4
2346.643	98.4
2350.492	94.4
2354.336	95.4
2358.178	86.4
2362.015	85.4
2365.85	89.4
2369.681	100.4
2373.508	101.4
2377.333	100.4
2381.153	95.4
2384.971	94.4
2388.785	85.4
2392.595	95.4
2396.402	94.4
2400.206	93.4
2404.007	90.4
2407.804	94.4
2411.597	85.4
2415.388	88.4
2419.174	93.4
2422.958	87.4
2426.738	89.4
2430.515	88.4
2434.289	92.4
2438.059	90.4
2441.825	80.4
2445.589	84.4
2449.349	77.4
2453.106	84.4
2456.859	77.4
2460.61	77.4
2464.356	79.4
2468.1	73.4
2471.84	74.4
2475.577	68.4
2479.311	74.4
2483.041	70.4
2486.768	71.4
2490.492	81.4
2494.213	64.4
2497.93	68.4
2501.644	68.4
2505.355	65.4
2509.062	61.4
2512.766	58.4
2516.467	61.4
2520.165	58.4
2523.859	61.4
2527.551	61.4
2531.239	58.4
2534.923	56.4
2538.605	53.4
2542.283	56.4
2545.958	49.4
2549.63	61.4
2553.299	55.4
2556.964	50.4
2560.626	55.4
2564.285	58.4
2567.941	43.4
2571.594	47.4
2575.243	49.4
2578.89	48.4
2582.533	48.4
2586.173	42.4
2589.809	46.4
2593.443	57.4
2597.073	48.4
2600.701	46.4
2604.325	42.4
2607.946	42.4
2611.564	42.4
2615.178	47.4
2618.79	45.4
2622.398	37.4
2626.004	39.4
2629.606	33.4
2633.205	44.4
2636.801	34.4
2640.394	48.4
2643.983	36.4
2647.57	33.4
2651.153	28.4
2654.734	34.4
2658.311	39.4
2661.885	36.4
2665.456	41.4
2669.025	36.4
2672.589	25.4
2676.151	36.4
2679.71	29.4
2683.266	31.4
2686.819	37.4
2690.368	29.4
2693.915	32.4
2697.458	22.4
2700.999	33.4
2704.536	31.4
2708.071	31.4
2711.602	25.4
2715.13	16.4
2718.656	22.4
2722.178	25.4
2725.697	19.4
2729.214	24.4
2732.727	31.4
2736.237	23.4
2739.744	21.4
2743.249	24.4
2746.75	22.4
2750.248	17.4
2753.743	11.4
2757.236	15.4
2760.725	11.4
2764.211	16.4
2767.695	9.4
2771.175	9.4
2774.652	9.4
2778.127	11.4
2781.598	10.4
2785.067	10.4
2788.532	10.4
2791.995	14.4
2795.455	14.4
2798.911	9.4
2802.365	11.4
2805.816	14.4
2809.264	9.4
2812.709	11.4
2816.151	4.4
2819.59	21.4
2823.026	14.4
2826.46	15.4
2829.89	15.4
2833.318	16.4
2836.742	18.4
2840.164	14.4
2843.583	13.4
2846.999	20.4
2850.412	16.4
2853.822	14.4
2857.229	18.4
2860.634	21.4
2864.035	16.4
2867.434	15.4
2870.83	21.4
2874.223	20.4
2877.613	22.4
2881	24.4
2884.385	28.4
2887.766	29.4
2891.145	23.4
2894.521	25.4
2897.894	21.4
2901.264	27.4
2904.631	19.4
2907.996	33.4
2911.358	29.4
2914.717	22.4
2918.073	19.4
2921.426	28.4
2924.777	30.4
2928.124	28.4
2931.469	37.4
2934.811	34.4
2938.15	37.4
2941.487	46.4
2944.821	33.4
2948.152	43.4
2951.48	41.4
2954.805	41.4
2958.128	34.4
2961.447	41.4
2964.765	34.4
2968.079	36.4
2971.39	34.4
2974.699	29.4
2978.005	37.4
2981.308	31.4
2984.609	31.4
2987.907	31.4
2991.202	34.4
2994.494	27.4
2997.784	27.4
3001.07	43.4
3004.355	33.4
3007.636	37.4
3010.915	40.4
3014.191	39.4
3017.464	35.4
3020.734	41.4
3024.002	48.4
3027.267	45.4
3030.53	42.4
3033.789	48.4
3037.046	45.4
3040.301	38.4
3043.552	47.4
3046.801	48.4
3050.048	51.4
3053.291	51.4
3056.532	58.4
3059.771	55.4
3063.006	65.4
3066.239	65.4
3069.469	74.4
3072.697	70.4
3075.922	82.4
3079.144	72.4
3082.364	80.4
3085.581	84.4
3088.795	81.4
3092.007	79.4
3095.216	89.4
3098.423	85.4
3101.627	83.4
3104.828	97.4
3108.026	100.4
3111.222	97.4
3114.416	100.4
3117.607	106.4
3120.795	107.4
3123.98	112.4
3127.163	120.4
3130.344	112.4
3133.521	119.4
3136.696	120.4
3139.869	128.4
3143.039	118.4
3146.206	119.4
3149.371	130.4
3152.533	142.4
3155.693	136.4
3158.85	133.4
3162.005	139.4
3165.157	132.4
3168.306	129.4
3171.453	134.4
3174.597	132.4
3177.739	141.4
3180.878	145.4
3184.014	123.4
3187.149	134.4
3190.28	132.4
3193.409	140.4
3196.536	132.4
3199.659	140.4
3202.781	138.4
3205.9	133.4
3209.016	129.4
3212.13	134.4
3215.241	144.4
3218.35	138.4
3221.456	143.4
3224.56	126.4
3227.661	132.4
3230.76	125.4
3233.856	124.4
3236.95	119.4
3240.041	117.4
3243.13	123.4
3246.216	112.4
3249.3	107.4
3252.382	116.4
3255.46	113.4
3258.537	107.4
3261.611	107.4
3264.682	113.4
3267.751	112.4
3270.818	97.4
3273.882	104.4
3276.943	98.4
3280.002	106.4
3283.059	101.4
3286.113	89.4
3289.165	95.4
3292.214	92.4
3295.261	98.4
3298.306	90.4
3301.348	96.4
3304.387	92.4
3307.425	87.4
3310.459	90.4
3313.492	92.4
3316.521	86.4
3319.549	100.4
3322.574	84.4
3325.597	95.4
3328.617	89.4
3331.635	87.4
3334.65	94.4
3337.663	82.4
3340.674	91.4
3343.682	90.4
3346.688	84.4
3349.691	92.4
3352.692	85.4
3355.691	99.4
3358.687	91.4
3361.681	81.4
3364.673	85.4
3367.662	81.4
3370.649	84.4
3373.633	79.4
3376.615	81.4
3379.595	72.4
3382.572	67.4
3385.547	80.4
3388.52	68.4
3391.49	71.4
3394.458	67.4
3397.424	73.4
3400.387	69.4
3403.348	58.4
3406.307	56.4
3409.263	65.4
3412.217	63.4
3415.168	67.4
3418.118	61.4
3421.065	60.4
3424.009	55.4
3426.951	51.4
3429.891	46.4
3432.829	48.4
3435.764	49.4
3438.697	50.4
3441.628	43.4
3444.557	46.4
3447.483	45.4
3450.407	35.4
3453.328	40.4
3456.247	31.4
3459.164	30.4
3462.079	18.4
3464.991	22.4
3467.902	21.4
3470.809	23.4
3473.715	18.4
3476.618	15.4
3479.519	16.4
3482.418	15.4
3485.315	11.4
3488.209	2.4
3491.101	6.4
3493.99	8.4
3496.878	7.4
3499.763	2.4
3502.646	-0.6
3505.527	2.4
3508.405	-1.6
3511.281	-4.6
3514.155	-4.6
3517.027	-6.6
3519.897	-8.6
3522.764	-6.6
3525.629	-6.6
3528.492	-10.6
3531.352	-20.6
3534.211	-18.6
3537.067	-15.6
3539.921	-12.6
3542.773	-18.6
3545.622	-21.6
3548.469	-21.6
3551.315	-16.6
3554.157	-27.6
3556.998	-26.6
3559.837	-26.6
3562.673	-27.6
3565.507	-26.6
3568.339	-20.6
3571.169	-27.6
3573.996	-23.6
3576.822	-35.6
3579.645	-32.6
3582.466	-36.6
3585.285	-34.6
3588.101	-35.6
3590.916	-32.6
3593.728	-39.6
3596.538	-37.6
3599.346	-37.6
3602.152	-38.6
3604.956	-35.6
3607.757	-26.6
3610.556	-30.6
3613.354	-36.6
3616.149	-43.6
3618.942	-43.6
3621.732	-45.6
3624.521	-30.6
3627.307	-43.6
3630.092	-41.6
3632.874	-43.6
3635.654	-46.6
3638.432	-39.6
3641.208	-41.6
3643.982	-43.6
3646.753	-44.6
3649.523	-37.6
3652.29	-48.6
3655.055	-43.6
3657.818	-46.6
3660.579	-47.6
3663.338	-42.6
3666.095	-44.6
3668.849	-49.6
3671.602	-47.6
3674.352	-48.6
3677.101	-51.6
3679.847	-49.6
3682.591	-55.6
3685.333	-46.6
3688.073	-51.6
3690.811	-48.6
3693.547	-51.6
3696.281	-45.6
3699.013	-48.6
3701.742	-53.6
3704.47	-43.6
3707.195	-49.6
3709.919	-52.6
3712.64	-50.6
3715.359	-51.6
3718.076	-57.6
3720.792	-54.6
3723.505	-50.6
3726.216	-49.6
3728.925	-53.6
3731.632	-52.6
3734.336	-50.6
3737.039	-46.6
3739.74	-54.6
3742.439	-53.6
3745.136	-50.6
3747.83	-50.6
3750.523	-57.6
3753.213	-57.6
3755.902	-54.6
3758.589	-54.6
3761.273	-54.6
3763.956	-56.6
3766.636	-51.6
3769.315	-53.6
3771.991	-48.6
3774.665	-56.6
3777.338	-50.6
3780.008	-51.6
3782.677	-58.6
3785.343	-57.6
3788.007	-55.6
3790.67	-57.6
3793.33	-51.6
3795.989	-58.6
3798.645	-63.6
3801.299	-55.6
3803.952	-54.6
3806.602	-59.6
3809.251	-58.6
3811.897	-55.6
3814.542	-57.6
3817.184	-55.6
3819.825	-49.6
3822.463	-53.6
3825.1	-51.6
3827.735	-59.6
3830.367	-58.6
3832.998	-58.6
3835.627	-60.6
3838.253	-53.6
3840.878	-51.6
3843.501	-53.6
3846.122	-56.6
3848.741	-55.6
3851.358	-55.6
3853.973	-55.6
3856.586	-49.6
3859.197	-52.6
3861.806	-53.6
3864.414	-54.6
3867.019	-53.6
3869.622	-47.6
3872.224	-40.6
3874.823	-32.6
3877.421	-19.6
3880.016	-11.6
3882.61	9.4
3885.202	11.4
3887.792	4.4
3890.38	-19.6
3892.966	-34.6
3895.55	-49.6
3898.132	-48.6
3900.713	-54.6
3903.291	-54.6
3905.868	-47.6
3908.442	-51.6
3911.015	-54.6
3913.586	-56.6
3916.155	-53.6
3918.722	-52.6
3921.287	-58.6
3923.85	-46.6
3926.411	-60.6
3928.971	-63.6
3931.528	-57.6
3934.084	-54.6
3936.638	-52.6
3939.19	-58.6
3941.74	-56.6
3944.288	-56.6
3946.834	-49.6
3949.378	-56.6
3951.921	-53.6
3954.462	-60.6
3957	-50.6
3959.537	-42.6
3962.072	-50.6
3964.606	-52.6
3967.137	-55.6
3969.667	-51.6
3972.194	-57.6
3974.72	-55.6
3977.244	-53.6
3979.766	-54.6
3982.286	-61.6
3984.805	-64.6
3987.321	-54.6
3989.836	-49.6
3992.349	-49.6
3994.86	-53.6
3997.369	-55.6
3999.877	-54.6
4002.382	-56.6
4004.886	-51.6
4007.388	-56.6
4009.888	-53.6
4012.386	-59.6
4014.883	-53.6
4017.377	-53.6
4019.87	-55.6
4022.361	-60.6
4024.85	-51.6
4027.338	-56.6
4029.823	-57.6
4032.307	-58.6
4034.789	-44.6
4037.269	-60.6
4039.747	-56.6
4042.224	-57.6
4044.699	-58.6
4047.172	-60.6
4049.643	-56.6
4052.112	-56.6
4054.58	-57.6
4057.046	-54.6
4059.51	-61.6
4061.972	-57.6
4064.432	-54.6
4066.891	-48.6
4069.348	-52.6
4071.803	-46.6
4074.256	-51.6
4076.708	-52.6
4079.158	-57.6
4081.606	-55.6
4084.052	-59.6
4086.497	-50.6
4088.939	-55.6
4091.38	-59.6
4093.819	-58.6
4096.257	-60.6
4098.693	-59.6
4101.127	-53.6
4103.559	-62.6
4105.989	32.4
4108.418	24.4
4110.845	12.4
4113.27	12.4
4115.694	26.4
4118.115	15.4
4120.535	-54.6
4122.954	-49.6
4125.37	-53.6
4127.785	-52.6
4130.198	-52.6
4132.609	-53.6
4135.019	-59.6
4137.427	-61.6
4139.833	-55.6
4142.237	-59.6
