Data from 2018-3-7_conc=0_n=6_RamanShift_04.txt Node
Date: Wed Mar 07 10:23:52 IST 2018
User: aro
Spectrometer: QEPB0276
Trigger mode: 0
Integration Time (sec): 3.000000E1
Scans to average: 1
Electric dark correction enabled: true
Nonlinearity correction enabled: false
Boxcar width: 0
XAxis mode: Raman Shifts
Number of Pixels in Spectrum: 1044
>>>>>Begin Spectral Data<<<<<
160.701	9.8
166.742	19.8
172.777	48.8
178.805	145.8
184.826	375.8
190.841	809.8
196.849	1310.8
202.85	1715.8
208.845	1858.8
214.833	1880.8
220.815	1867.8
226.789	1859.8
232.758	1883.8
238.719	1892.8
244.674	1890.8
250.623	1869.8
256.565	1874.8
262.5	1858.8
268.429	1857.8
274.351	1831.8
280.267	1832.8
286.176	1862.8
292.079	1859.8
297.975	1863.8
303.865	1869.8
309.748	1867.8
315.625	1878.8
321.495	1872.8
327.359	1879.8
333.217	1879.8
339.068	1913.8
344.912	1907.8
350.751	1922.8
356.583	1929.8
362.408	1937.8
368.227	1941.8
374.04	1961.8
379.847	1964.8
385.647	1974.8
391.44	1992.8
397.228	1977.8
403.009	2011.8
408.784	2007.8
414.553	2019.8
420.315	2029.8
426.071	2039.8
431.821	2018.8
437.565	2033.8
443.302	2029.8
449.033	2022.8
454.758	2018.8
460.477	2003.8
466.189	1957.8
471.896	1966.8
477.596	1947.8
483.29	1915.8
488.978	1924.8
494.66	1903.8
500.335	1857.8
506.005	1776.8
511.668	1703.8
517.325	1596.8
522.977	1543.8
528.622	1472.8
534.261	1446.8
539.894	1389.8
545.521	1383.8
551.141	1351.8
556.756	1344.8
562.365	1336.8
567.968	1345.8
573.565	1313.8
579.155	1299.8
584.74	1302.8
590.319	1290.8
595.892	1307.8
601.459	1284.8
607.02	1298.8
612.575	1287.8
618.124	1250.8
623.667	1236.8
629.204	1215.8
634.735	1216.8
640.261	1193.8
645.781	1190.8
651.294	1187.8
656.802	1158.8
662.304	1166.8
667.8	1166.8
673.29	1158.8
678.775	1161.8
684.254	1169.8
689.726	1149.8
695.193	1151.8
700.655	1146.8
706.11	1129.8
711.56	1124.8
717.004	1109.8
722.442	1106.8
727.874	1092.8
733.301	1112.8
738.722	1090.8
744.137	1103.8
749.547	1102.8
754.951	1092.8
760.349	1091.8
765.741	1099.8
771.128	1091.8
776.509	1125.8
781.885	1150.8
787.254	1150.8
792.618	1158.8
797.977	1160.8
803.33	1154.8
808.677	1142.8
814.019	1155.8
819.355	1120.8
824.686	1113.8
830.011	1092.8
835.33	1084.8
840.644	1097.8
845.952	1088.8
851.255	1068.8
856.552	1068.8
861.844	1059.8
867.13	1072.8
872.41	1079.8
877.686	1113.8
882.955	1140.8
888.219	1129.8
893.478	1079.8
898.731	1023.8
903.979	983.8
909.221	965.8
914.458	965.8
919.69	952.8
924.916	958.8
930.136	950.8
935.351	953.8
940.561	959.8
945.766	950.8
950.965	950.8
956.158	938.8
961.347	933.8
966.529	916.8
971.707	896.8
976.879	888.8
982.046	884.8
987.208	886.8
992.364	869.8
997.515	889.8
1002.66	902.8
1007.801	901.8
1012.936	905.8
1018.066	907.8
1023.19	935.8
1028.309	920.8
1033.423	926.8
1038.532	931.8
1043.636	934.8
1048.734	953.8
1053.827	932.8
1058.915	912.8
1063.998	897.8
1069.075	898.8
1074.147	901.8
1079.214	907.8
1084.276	903.8
1089.333	912.8
1094.385	927.8
1099.431	912.8
1104.472	902.8
1109.509	883.8
1114.54	858.8
1119.565	841.8
1124.586	833.8
1129.602	813.8
1134.613	821.8
1139.618	810.8
1144.619	800.8
1149.614	813.8
1154.604	815.8
1159.589	812.8
1164.57	807.8
1169.545	816.8
1174.515	828.8
1179.48	814.8
1184.44	804.8
1189.395	798.8
1194.345	784.8
1199.29	782.8
1204.23	784.8
1209.165	772.8
1214.095	792.8
1219.021	789.8
1223.941	813.8
1228.856	795.8
1233.766	803.8
1238.672	798.8
1243.572	790.8
1248.467	800.8
1253.358	787.8
1258.244	778.8
1263.124	760.8
1268	731.8
1272.871	742.8
1277.737	743.8
1282.599	744.8
1287.455	743.8
1292.306	743.8
1297.153	738.8
1301.995	738.8
1306.832	739.8
1311.664	737.8
1316.491	742.8
1321.314	748.8
1326.132	729.8
1330.945	720.8
1335.753	708.8
1340.556	679.8
1345.354	675.8
1350.148	664.8
1354.937	648.8
1359.722	636.8
1364.501	623.8
1369.276	617.8
1374.046	601.8
1378.811	598.8
1383.572	609.8
1388.327	607.8
1393.079	595.8
1397.825	611.8
1402.567	615.8
1407.304	610.8
1412.036	612.8
1416.764	610.8
1421.487	621.8
1426.205	618.8
1430.919	607.8
1435.628	625.8
1440.333	640.8
1445.032	643.8
1449.727	665.8
1454.418	667.8
1459.104	681.8
1463.785	651.8
1468.462	640.8
1473.134	603.8
1477.802	587.8
1482.465	568.8
1487.123	550.8
1491.777	532.8
1496.426	535.8
1501.071	514.8
1505.711	508.8
1510.347	507.8
1514.978	504.8
1519.604	497.8
1524.226	502.8
1528.844	504.8
1533.457	502.8
1538.065	501.8
1542.669	501.8
1547.269	498.8
1551.864	515.8
1556.454	514.8
1561.041	529.8
1565.622	532.8
1570.199	526.8
1574.772	521.8
1579.34	539.8
1583.904	534.8
1588.464	537.8
1593.019	537.8
1597.569	548.8
1602.115	539.8
1606.657	549.8
1611.195	531.8
1615.728	531.8
1620.256	524.8
1624.78	517.8
1629.3	522.8
1633.816	529.8
1638.327	533.8
1642.834	518.8
1647.336	531.8
1651.834	515.8
1656.328	522.8
1660.817	517.8
1665.302	504.8
1669.783	500.8
1674.259	487.8
1678.732	477.8
1683.199	459.8
1687.663	435.8
1692.122	425.8
1696.577	408.8
1701.028	379.8
1705.474	365.8
1709.917	357.8
1714.355	361.8
1718.788	355.8
1723.218	360.8
1727.643	351.8
1732.064	351.8
1736.481	352.8
1740.893	333.8
1745.301	343.8
1749.705	331.8
1754.105	335.8
1758.501	315.8
1762.893	317.8
1767.28	302.8
1771.663	302.8
1776.042	306.8
1780.417	289.8
1784.787	282.8
1789.154	280.8
1793.516	272.8
1797.874	261.8
1802.228	270.8
1806.578	261.8
1810.924	268.8
1815.266	256.8
1819.603	270.8
1823.937	275.8
1828.266	273.8
1832.591	273.8
1836.913	266.8
1841.23	269.8
1845.543	253.8
1849.852	269.8
1854.156	273.8
1858.457	264.8
1862.754	279.8
1867.047	272.8
1871.335	270.8
1875.62	267.8
1879.9	258.8
1884.177	255.8
1888.449	256.8
1892.718	253.8
1896.982	253.8
1901.243	238.8
1905.499	236.8
1909.752	229.8
1914	221.8
1918.245	222.8
1922.485	215.8
1926.722	201.8
1930.954	218.8
1935.183	209.8
1939.408	208.8
1943.628	208.8
1947.845	203.8
1952.058	206.8
1956.267	196.8
1960.472	206.8
1964.673	200.8
1968.87	201.8
1973.063	208.8
1977.252	200.8
1981.438	204.8
1985.619	198.8
1989.797	201.8
1993.971	204.8
1998.14	207.8
2002.306	204.8
2006.469	216.8
2010.627	209.8
2014.781	207.8
2018.932	194.8
2023.078	204.8
2027.221	204.8
2031.36	209.8
2035.495	202.8
2039.627	188.8
2043.754	185.8
2047.878	179.8
2051.998	189.8
2056.114	177.8
2060.226	179.8
2064.334	183.8
2068.439	173.8
2072.54	182.8
2076.637	178.8
2080.73	173.8
2084.82	170.8
2088.906	167.8
2092.988	171.8
2097.066	172.8
2101.14	171.8
2105.211	162.8
2109.278	165.8
2113.342	151.8
2117.401	149.8
2121.457	159.8
2125.509	158.8
2129.558	159.8
2133.602	156.8
2137.643	155.8
2141.681	150.8
2145.714	160.8
2149.744	157.8
2153.77	165.8
2157.793	163.8
2161.812	172.8
2165.827	167.8
2169.838	154.8
2173.846	149.8
2177.851	150.8
2181.851	144.8
2185.848	145.8
2189.841	138.8
2193.831	144.8
2197.817	152.8
2201.799	146.8
2205.778	141.8
2209.753	147.8
2213.725	140.8
2217.693	142.8
2221.657	139.8
2225.618	144.8
2229.575	147.8
2233.529	141.8
2237.479	145.8
2241.425	131.8
2245.368	136.8
2249.307	133.8
2253.243	129.8
2257.175	135.8
2261.104	126.8
2265.029	132.8
2268.95	124.8
2272.868	134.8
2276.783	123.8
2280.694	123.8
2284.601	121.8
2288.505	123.8
2292.405	121.8
2296.302	125.8
2300.195	121.8
2304.085	113.8
2307.971	116.8
2311.854	120.8
2315.734	106.8
2319.609	116.8
2323.482	114.8
2327.351	120.8
2331.216	127.8
2335.078	140.8
2338.937	134.8
2342.792	105.8
2346.643	108.8
2350.492	114.8
2354.336	112.8
2358.178	111.8
2362.015	119.8
2365.85	110.8
2369.681	114.8
2373.508	114.8
2377.333	112.8
2381.153	112.8
2384.971	111.8
2388.785	110.8
2392.595	126.8
2396.402	114.8
2400.206	114.8
2404.007	112.8
2407.804	111.8
2411.597	108.8
2415.388	112.8
2419.174	119.8
2422.958	107.8
2426.738	114.8
2430.515	109.8
2434.289	106.8
2438.059	97.8
2441.825	97.8
2445.589	96.8
2449.349	98.8
2453.106	97.8
2456.859	105.8
2460.61	101.8
2464.356	103.8
2468.1	88.8
2471.84	89.8
2475.577	86.8
2479.311	83.8
2483.041	92.8
2486.768	88.8
2490.492	93.8
2494.213	85.8
2497.93	88.8
2501.644	87.8
2505.355	85.8
2509.062	77.8
2512.766	80.8
2516.467	86.8
2520.165	82.8
2523.859	79.8
2527.551	80.8
2531.239	74.8
2534.923	69.8
2538.605	65.8
2542.283	61.8
2545.958	66.8
2549.63	68.8
2553.299	67.8
2556.964	66.8
2560.626	70.8
2564.285	71.8
2567.941	62.8
2571.594	58.8
2575.243	59.8
2578.89	57.8
2582.533	60.8
2586.173	57.8
2589.809	64.8
2593.443	64.8
2597.073	53.8
2600.701	52.8
2604.325	48.8
2607.946	47.8
2611.564	54.8
2615.178	58.8
2618.79	53.8
2622.398	56.8
2626.004	54.8
2629.606	54.8
2633.205	49.8
2636.801	50.8
2640.394	55.8
2643.983	54.8
2647.57	53.8
2651.153	47.8
2654.734	50.8
2658.311	49.8
2661.885	52.8
2665.456	51.8
2669.025	51.8
2672.589	45.8
2676.151	47.8
2679.71	44.8
2683.266	47.8
2686.819	48.8
2690.368	45.8
2693.915	40.8
2697.458	36.8
2700.999	47.8
2704.536	51.8
2708.071	39.8
2711.602	40.8
2715.13	38.8
2718.656	36.8
2722.178	29.8
2725.697	30.8
2729.214	35.8
2732.727	41.8
2736.237	38.8
2739.744	29.8
2743.249	36.8
2746.75	28.8
2750.248	30.8
2753.743	26.8
2757.236	26.8
2760.725	31.8
2764.211	25.8
2767.695	25.8
2771.175	26.8
2774.652	25.8
2778.127	22.8
2781.598	19.8
2785.067	22.8
2788.532	22.8
2791.995	25.8
2795.455	26.8
2798.911	25.8
2802.365	24.8
2805.816	25.8
2809.264	21.8
2812.709	25.8
2816.151	20.8
2819.59	33.8
2823.026	27.8
2826.46	27.8
2829.89	33.8
2833.318	28.8
2836.742	37.8
2840.164	30.8
2843.583	26.8
2846.999	33.8
2850.412	31.8
2853.822	34.8
2857.229	35.8
2860.634	35.8
2864.035	37.8
2867.434	44.8
2870.83	48.8
2874.223	49.8
2877.613	52.8
2881	56.8
2884.385	64.8
2887.766	72.8
2891.145	61.8
2894.521	66.8
2897.894	56.8
2901.264	62.8
2904.631	60.8
2907.996	64.8
2911.358	66.8
2914.717	62.8
2918.073	65.8
2921.426	61.8
2924.777	74.8
2928.124	76.8
2931.469	82.8
2934.811	88.8
2938.15	98.8
2941.487	93.8
2944.821	94.8
2948.152	84.8
2951.48	81.8
2954.805	75.8
2958.128	71.8
2961.447	67.8
2964.765	60.8
2968.079	62.8
2971.39	57.8
2974.699	65.8
2978.005	64.8
2981.308	58.8
2984.609	65.8
2987.907	59.8
2991.202	58.8
2994.494	52.8
2997.784	47.8
3001.07	53.8
3004.355	51.8
3007.636	49.8
3010.915	54.8
3014.191	47.8
3017.464	46.8
3020.734	48.8
3024.002	49.8
3027.267	52.8
3030.53	51.8
3033.789	58.8
3037.046	55.8
3040.301	52.8
3043.552	52.8
3046.801	66.8
3050.048	52.8
3053.291	60.8
3056.532	62.8
3059.771	60.8
3063.006	65.8
3066.239	75.8
3069.469	76.8
3072.697	78.8
3075.922	79.8
3079.144	77.8
3082.364	82.8
3085.581	84.8
3088.795	88.8
3092.007	89.8
3095.216	89.8
3098.423	86.8
3101.627	90.8
3104.828	96.8
3108.026	98.8
3111.222	99.8
3114.416	102.8
3117.607	98.8
3120.795	104.8
3123.98	103.8
3127.163	115.8
3130.344	108.8
3133.521	112.8
3136.696	117.8
3139.869	121.8
3143.039	123.8
3146.206	128.8
3149.371	119.8
3152.533	136.8
3155.693	131.8
3158.85	134.8
3162.005	133.8
3165.157	128.8
3168.306	129.8
3171.453	130.8
3174.597	130.8
3177.739	135.8
3180.878	133.8
3184.014	133.8
3187.149	132.8
3190.28	131.8
3193.409	137.8
3196.536	138.8
3199.659	135.8
3202.781	133.8
3205.9	130.8
3209.016	126.8
3212.13	133.8
3215.241	133.8
3218.35	130.8
3221.456	130.8
3224.56	123.8
3227.661	121.8
3230.76	120.8
3233.856	110.8
3236.95	107.8
3240.041	112.8
3243.13	110.8
3246.216	110.8
3249.3	102.8
3252.382	103.8
3255.46	104.8
3258.537	100.8
3261.611	101.8
3264.682	93.8
3267.751	94.8
3270.818	92.8
3273.882	97.8
3276.943	96.8
3280.002	95.8
3283.059	86.8
3286.113	87.8
3289.165	86.8
3292.214	87.8
3295.261	91.8
3298.306	94.8
3301.348	90.8
3304.387	80.8
3307.425	82.8
3310.459	83.8
3313.492	86.8
3316.521	86.8
3319.549	92.8
3322.574	84.8
3325.597	84.8
3328.617	77.8
3331.635	92.8
3334.65	80.8
3337.663	78.8
3340.674	83.8
3343.682	82.8
3346.688	77.8
3349.691	90.8
3352.692	83.8
3355.691	84.8
3358.687	79.8
3361.681	80.8
3364.673	80.8
3367.662	86.8
3370.649	80.8
3373.633	75.8
3376.615	74.8
3379.595	66.8
3382.572	67.8
3385.547	73.8
3388.52	68.8
3391.49	64.8
3394.458	64.8
3397.424	64.8
3400.387	60.8
3403.348	53.8
3406.307	53.8
3409.263	61.8
3412.217	61.8
3415.168	64.8
3418.118	55.8
3421.065	47.8
3424.009	45.8
3426.951	48.8
3429.891	48.8
3432.829	46.8
3435.764	50.8
3438.697	45.8
3441.628	41.8
3444.557	35.8
3447.483	36.8
3450.407	28.8
3453.328	32.8
3456.247	26.8
3459.164	24.8
3462.079	21.8
3464.991	19.8
3467.902	22.8
3470.809	18.8
3473.715	13.8
3476.618	12.8
3479.519	12.8
3482.418	7.8
3485.315	13.8
3488.209	1.8
3491.101	4.8
3493.99	9.8
3496.878	3.8
3499.763	-8.2
3502.646	-4.2
3505.527	-2.2
3508.405	-3.2
3511.281	-1.2
3514.155	-4.2
3517.027	-19.2
3519.897	-10.2
3522.764	-16.2
3525.629	-11.2
3528.492	-15.2
3531.352	-21.2
3534.211	-17.2
3537.067	-16.2
3539.921	-18.2
3542.773	-23.2
3545.622	-24.2
3548.469	-22.2
3551.315	-22.2
3554.157	-23.2
3556.998	-25.2
3559.837	-23.2
3562.673	-25.2
3565.507	-28.2
3568.339	-23.2
3571.169	-30.2
3573.996	-23.2
3576.822	-37.2
3579.645	-30.2
3582.466	-25.2
3585.285	-33.2
3588.101	-40.2
3590.916	-28.2
3593.728	-38.2
3596.538	-41.2
3599.346	-31.2
3602.152	-33.2
3604.956	-34.2
3607.757	-30.2
3610.556	-34.2
3613.354	-43.2
3616.149	-38.2
3618.942	-40.2
3621.732	-35.2
3624.521	-32.2
3627.307	-38.2
3630.092	-38.2
3632.874	-43.2
3635.654	-41.2
3638.432	-42.2
3641.208	-37.2
3643.982	-35.2
3646.753	-39.2
3649.523	-39.2
3652.29	-44.2
3655.055	-38.2
3657.818	-44.2
3660.579	-46.2
3663.338	-41.2
3666.095	-44.2
3668.849	-45.2
3671.602	-41.2
3674.352	-39.2
3677.101	-44.2
3679.847	-44.2
3682.591	-47.2
3685.333	-49.2
3688.073	-50.2
3690.811	-41.2
3693.547	-45.2
3696.281	-38.2
3699.013	-42.2
3701.742	-51.2
3704.47	-42.2
3707.195	-52.2
3709.919	-47.2
3712.64	-51.2
3715.359	-43.2
3718.076	-50.2
3720.792	-46.2
3723.505	-50.2
3726.216	-49.2
3728.925	-52.2
3731.632	-52.2
3734.336	-46.2
3737.039	-43.2
3739.74	-46.2
3742.439	-51.2
3745.136	-49.2
3747.83	-47.2
3750.523	-57.2
3753.213	-63.2
3755.902	-52.2
3758.589	-51.2
3761.273	-49.2
3763.956	-48.2
3766.636	-48.2
3769.315	-47.2
3771.991	-50.2
3774.665	-56.2
3777.338	-47.2
3780.008	-55.2
3782.677	-56.2
3785.343	-49.2
3788.007	-53.2
3790.67	-50.2
3793.33	-51.2
3795.989	-56.2
3798.645	-55.2
3801.299	-52.2
3803.952	-54.2
3806.602	-47.2
3809.251	-50.2
3811.897	-57.2
3814.542	-55.2
3817.184	-54.2
3819.825	-44.2
3822.463	-55.2
3825.1	-50.2
3827.735	-52.2
3830.367	-46.2
3832.998	-57.2
3835.627	-50.2
3838.253	-49.2
3840.878	-47.2
3843.501	-48.2
3846.122	-60.2
3848.741	-58.2
3851.358	-52.2
3853.973	-48.2
3856.586	-45.2
3859.197	-50.2
3861.806	-52.2
3864.414	-57.2
3867.019	-51.2
3869.622	-51.2
3872.224	-47.2
3874.823	-41.2
3877.421	-34.2
3880.016	-20.2
3882.61	-12.2
3885.202	-10.2
3887.792	-14.2
3890.38	-29.2
3892.966	-44.2
3895.55	-49.2
3898.132	-54.2
3900.713	-51.2
3903.291	-56.2
3905.868	-51.2
3908.442	-56.2
3911.015	-54.2
3913.586	-57.2
3916.155	-56.2
3918.722	-53.2
3921.287	-56.2
3923.85	-43.2
3926.411	-52.2
3928.971	-61.2
3931.528	-56.2
3934.084	-56.2
3936.638	-50.2
3939.19	-59.2
3941.74	-52.2
3944.288	-54.2
3946.834	-51.2
3949.378	-49.2
3951.921	-60.2
3954.462	-58.2
3957	-46.2
3959.537	-45.2
3962.072	-50.2
3964.606	-50.2
3967.137	-48.2
3969.667	-57.2
3972.194	-51.2
3974.72	-47.2
3977.244	-54.2
3979.766	-54.2
3982.286	-57.2
3984.805	-59.2
3987.321	-51.2
3989.836	-45.2
3992.349	-47.2
3994.86	-56.2
3997.369	-56.2
3999.877	-54.2
4002.382	-51.2
4004.886	-48.2
4007.388	-52.2
4009.888	-47.2
4012.386	-52.2
4014.883	-53.2
4017.377	-50.2
4019.87	-52.2
4022.361	-52.2
4024.85	-51.2
4027.338	-52.2
4029.823	-52.2
4032.307	-54.2
4034.789	-48.2
4037.269	-51.2
4039.747	-53.2
4042.224	-53.2
4044.699	-56.2
4047.172	-57.2
4049.643	-52.2
4052.112	-52.2
4054.58	-48.2
4057.046	-42.2
4059.51	-52.2
4061.972	-56.2
4064.432	-52.2
4066.891	-55.2
4069.348	-53.2
4071.803	-45.2
4074.256	-50.2
4076.708	-45.2
4079.158	-56.2
4081.606	-56.2
4084.052	-51.2
4086.497	-51.2
4088.939	-52.2
4091.38	-52.2
4093.819	-54.2
4096.257	-53.2
4098.693	-54.2
4101.127	-49.2
4103.559	-58.2
4105.989	20.8
4108.418	6.8
4110.845	1.8
4113.27	4.8
4115.694	7.8
4118.115	10.8
4120.535	-50.2
4122.954	-50.2
4125.37	-53.2
4127.785	-51.2
4130.198	-49.2
4132.609	-60.2
4135.019	-54.2
4137.427	-59.2
4139.833	-56.2
4142.237	-54.2
