Data from 2018-3-7_conc=5_n=6_RamanShift_05.txt Node
Date: Wed Mar 07 12:42:22 IST 2018
User: aro
Spectrometer: QEPB0276
Trigger mode: 0
Integration Time (sec): 3.000000E1
Scans to average: 1
Electric dark correction enabled: true
Nonlinearity correction enabled: false
Boxcar width: 0
XAxis mode: Raman Shifts
Number of Pixels in Spectrum: 1044
>>>>>Begin Spectral Data<<<<<
160.701	1.6
166.742	17.6
172.777	58.6
178.805	188.6
184.826	491.6
190.841	1098.6
196.849	1836.6
202.85	2401.6
208.845	2664.6
214.833	2636.6
220.815	2608.6
226.789	2580.6
232.758	2595.6
238.719	2596.6
244.674	2589.6
250.623	2566.6
256.565	2523.6
262.5	2460.6
268.429	2414.6
274.351	2410.6
280.267	2397.6
286.176	2386.6
292.079	2380.6
297.975	2370.6
303.865	2367.6
309.748	2329.6
315.625	2333.6
321.495	2347.6
327.359	2323.6
333.217	2320.6
339.068	2332.6
344.912	2343.6
350.751	2336.6
356.583	2349.6
362.408	2328.6
368.227	2347.6
374.04	2323.6
379.847	2377.6
385.647	2349.6
391.44	2368.6
397.228	2381.6
403.009	2389.6
408.784	2397.6
414.553	2396.6
420.315	2398.6
426.071	2411.6
431.821	2400.6
437.565	2423.6
443.302	2413.6
449.033	2384.6
454.758	2390.6
460.477	2371.6
466.189	2374.6
471.896	2349.6
477.596	2337.6
483.29	2322.6
488.978	2340.6
494.66	2324.6
500.335	2306.6
506.005	2246.6
511.668	2185.6
517.325	2134.6
522.977	2081.6
528.622	2061.6
534.261	2011.6
539.894	2009.6
545.521	1980.6
551.141	1968.6
556.756	1982.6
562.365	1958.6
567.968	1959.6
573.565	1929.6
579.155	1910.6
584.74	1919.6
590.319	1892.6
595.892	1895.6
601.459	1878.6
607.02	1906.6
612.575	1879.6
618.124	1859.6
623.667	1834.6
629.204	1814.6
634.735	1810.6
640.261	1809.6
645.781	1793.6
651.294	1783.6
656.802	1772.6
662.304	1792.6
667.8	1794.6
673.29	1770.6
678.775	1767.6
684.254	1758.6
689.726	1747.6
695.193	1757.6
700.655	1750.6
706.11	1716.6
711.56	1711.6
717.004	1706.6
722.442	1672.6
727.874	1679.6
733.301	1690.6
738.722	1688.6
744.137	1679.6
749.547	1679.6
754.951	1667.6
760.349	1669.6
765.741	1667.6
771.128	1674.6
776.509	1693.6
781.885	1681.6
787.254	1687.6
792.618	1694.6
797.977	1694.6
803.33	1654.6
808.677	1643.6
814.019	1647.6
819.355	1653.6
824.686	1617.6
830.011	1634.6
835.33	1614.6
840.644	1609.6
845.952	1633.6
851.255	1617.6
856.552	1623.6
861.844	1601.6
867.13	1596.6
872.41	1567.6
877.686	1600.6
882.955	1559.6
888.219	1553.6
893.478	1529.6
898.731	1501.6
903.979	1482.6
909.221	1491.6
914.458	1485.6
919.69	1470.6
924.916	1495.6
930.136	1500.6
935.351	1489.6
940.561	1496.6
945.766	1491.6
950.965	1491.6
956.158	1465.6
961.347	1457.6
966.529	1451.6
971.707	1409.6
976.879	1396.6
982.046	1378.6
987.208	1393.6
992.364	1372.6
997.515	1386.6
1002.66	1401.6
1007.801	1397.6
1012.936	1416.6
1018.066	1441.6
1023.19	1414.6
1028.309	1435.6
1033.423	1404.6
1038.532	1398.6
1043.636	1390.6
1048.734	1387.6
1053.827	1365.6
1058.915	1341.6
1063.998	1348.6
1069.075	1336.6
1074.147	1334.6
1079.214	1351.6
1084.276	1353.6
1089.333	1337.6
1094.385	1354.6
1099.431	1341.6
1104.472	1351.6
1109.509	1331.6
1114.54	1333.6
1119.565	1315.6
1124.586	1301.6
1129.602	1296.6
1134.613	1285.6
1139.618	1273.6
1144.619	1264.6
1149.614	1266.6
1154.604	1263.6
1159.589	1267.6
1164.57	1283.6
1169.545	1258.6
1174.515	1287.6
1179.48	1276.6
1184.44	1247.6
1189.395	1242.6
1194.345	1237.6
1199.29	1234.6
1204.23	1231.6
1209.165	1231.6
1214.095	1238.6
1219.021	1257.6
1223.941	1252.6
1228.856	1262.6
1233.766	1266.6
1238.672	1259.6
1243.572	1258.6
1248.467	1263.6
1253.358	1241.6
1258.244	1226.6
1263.124	1186.6
1268	1176.6
1272.871	1171.6
1277.737	1149.6
1282.599	1167.6
1287.455	1137.6
1292.306	1162.6
1297.153	1154.6
1301.995	1170.6
1306.832	1179.6
1311.664	1175.6
1316.491	1193.6
1321.314	1179.6
1326.132	1191.6
1330.945	1149.6
1335.753	1133.6
1340.556	1118.6
1345.354	1081.6
1350.148	1085.6
1354.937	1058.6
1359.722	1024.6
1364.501	996.6
1369.276	980.6
1374.046	934.6
1378.811	940.6
1383.572	935.6
1388.327	939.6
1393.079	935.6
1397.825	957.6
1402.567	956.6
1407.304	965.6
1412.036	985.6
1416.764	979.6
1421.487	985.6
1426.205	978.6
1430.919	985.6
1435.628	974.6
1440.333	989.6
1445.032	992.6
1449.727	1014.6
1454.418	1018.6
1459.104	998.6
1463.785	978.6
1468.462	959.6
1473.134	947.6
1477.802	911.6
1482.465	897.6
1487.123	877.6
1491.777	858.6
1496.426	842.6
1501.071	835.6
1505.711	823.6
1510.347	818.6
1514.978	799.6
1519.604	809.6
1524.226	797.6
1528.844	807.6
1533.457	779.6
1538.065	795.6
1542.669	784.6
1547.269	787.6
1551.864	792.6
1556.454	814.6
1561.041	823.6
1565.622	827.6
1570.199	834.6
1574.772	837.6
1579.34	858.6
1583.904	856.6
1588.464	886.6
1593.019	886.6
1597.569	883.6
1602.115	881.6
1606.657	874.6
1611.195	881.6
1615.728	858.6
1620.256	870.6
1624.78	887.6
1629.3	858.6
1633.816	870.6
1638.327	880.6
1642.834	862.6
1647.336	884.6
1651.834	878.6
1656.328	873.6
1660.817	873.6
1665.302	852.6
1669.783	833.6
1674.259	819.6
1678.732	784.6
1683.199	763.6
1687.663	732.6
1692.122	696.6
1696.577	665.6
1701.028	625.6
1705.474	577.6
1709.917	578.6
1714.355	558.6
1718.788	565.6
1723.218	569.6
1727.643	576.6
1732.064	574.6
1736.481	576.6
1740.893	557.6
1745.301	550.6
1749.705	544.6
1754.105	522.6
1758.501	512.6
1762.893	499.6
1767.28	491.6
1771.663	490.6
1776.042	492.6
1780.417	467.6
1784.787	460.6
1789.154	444.6
1793.516	430.6
1797.874	436.6
1802.228	428.6
1806.578	415.6
1810.924	402.6
1815.266	417.6
1819.603	412.6
1823.937	428.6
1828.266	426.6
1832.591	432.6
1836.913	438.6
1841.23	439.6
1845.543	430.6
1849.852	442.6
1854.156	446.6
1858.457	442.6
1862.754	453.6
1867.047	447.6
1871.335	439.6
1875.62	441.6
1879.9	432.6
1884.177	429.6
1888.449	415.6
1892.718	417.6
1896.982	407.6
1901.243	399.6
1905.499	390.6
1909.752	382.6
1914	381.6
1918.245	368.6
1922.485	365.6
1926.722	359.6
1930.954	351.6
1935.183	351.6
1939.408	339.6
1943.628	332.6
1947.845	338.6
1952.058	338.6
1956.267	326.6
1960.472	329.6
1964.673	317.6
1968.87	324.6
1973.063	313.6
1977.252	320.6
1981.438	317.6
1985.619	316.6
1989.797	324.6
1993.971	333.6
1998.14	329.6
2002.306	337.6
2006.469	349.6
2010.627	338.6
2014.781	340.6
2018.932	336.6
2023.078	333.6
2027.221	339.6
2031.36	335.6
2035.495	329.6
2039.627	314.6
2043.754	325.6
2047.878	306.6
2051.998	315.6
2056.114	318.6
2060.226	306.6
2064.334	306.6
2068.439	295.6
2072.54	302.6
2076.637	301.6
2080.73	303.6
2084.82	292.6
2088.906	287.6
2092.988	282.6
2097.066	279.6
2101.14	282.6
2105.211	271.6
2109.278	260.6
2113.342	254.6
2117.401	258.6
2121.457	255.6
2125.509	260.6
2129.558	254.6
2133.602	258.6
2137.643	262.6
2141.681	256.6
2145.714	258.6
2149.744	263.6
2153.77	264.6
2157.793	262.6
2161.812	275.6
2165.827	263.6
2169.838	258.6
2173.846	256.6
2177.851	254.6
2181.851	256.6
2185.848	257.6
2189.841	253.6
2193.831	240.6
2197.817	251.6
2201.799	237.6
2205.778	243.6
2209.753	243.6
2213.725	241.6
2217.693	244.6
2221.657	248.6
2225.618	240.6
2229.575	239.6
2233.529	238.6
2237.479	239.6
2241.425	230.6
2245.368	236.6
2249.307	234.6
2253.243	224.6
2257.175	233.6
2261.104	223.6
2265.029	219.6
2268.95	224.6
2272.868	212.6
2276.783	210.6
2280.694	209.6
2284.601	200.6
2288.505	209.6
2292.405	198.6
2296.302	204.6
2300.195	204.6
2304.085	192.6
2307.971	199.6
2311.854	183.6
2315.734	188.6
2319.609	186.6
2323.482	188.6
2327.351	194.6
2331.216	194.6
2335.078	207.6
2338.937	200.6
2342.792	189.6
2346.643	189.6
2350.492	201.6
2354.336	196.6
2358.178	182.6
2362.015	188.6
2365.85	192.6
2369.681	192.6
2373.508	193.6
2377.333	197.6
2381.153	191.6
2384.971	188.6
2388.785	196.6
2392.595	188.6
2396.402	192.6
2400.206	193.6
2404.007	191.6
2407.804	185.6
2411.597	185.6
2415.388	183.6
2419.174	194.6
2422.958	194.6
2426.738	192.6
2430.515	186.6
2434.289	188.6
2438.059	177.6
2441.825	176.6
2445.589	178.6
2449.349	169.6
2453.106	173.6
2456.859	168.6
2460.61	172.6
2464.356	171.6
2468.1	161.6
2471.84	172.6
2475.577	164.6
2479.311	154.6
2483.041	168.6
2486.768	156.6
2490.492	157.6
2494.213	158.6
2497.93	157.6
2501.644	159.6
2505.355	148.6
2509.062	148.6
2512.766	152.6
2516.467	145.6
2520.165	145.6
2523.859	148.6
2527.551	138.6
2531.239	132.6
2534.923	138.6
2538.605	136.6
2542.283	129.6
2545.958	132.6
2549.63	140.6
2553.299	130.6
2556.964	119.6
2560.626	130.6
2564.285	124.6
2567.941	117.6
2571.594	124.6
2575.243	114.6
2578.89	109.6
2582.533	104.6
2586.173	103.6
2589.809	110.6
2593.443	119.6
2597.073	111.6
2600.701	112.6
2604.325	93.6
2607.946	100.6
2611.564	101.6
2615.178	110.6
2618.79	106.6
2622.398	103.6
2626.004	97.6
2629.606	106.6
2633.205	103.6
2636.801	102.6
2640.394	109.6
2643.983	100.6
2647.57	96.6
2651.153	94.6
2654.734	96.6
2658.311	98.6
2661.885	98.6
2665.456	99.6
2669.025	92.6
2672.589	93.6
2676.151	90.6
2679.71	79.6
2683.266	89.6
2686.819	97.6
2690.368	85.6
2693.915	87.6
2697.458	77.6
2700.999	84.6
2704.536	84.6
2708.071	83.6
2711.602	80.6
2715.13	78.6
2718.656	76.6
2722.178	62.6
2725.697	69.6
2729.214	72.6
2732.727	75.6
2736.237	76.6
2739.744	55.6
2743.249	57.6
2746.75	62.6
2750.248	56.6
2753.743	54.6
2757.236	49.6
2760.725	49.6
2764.211	41.6
2767.695	42.6
2771.175	43.6
2774.652	44.6
2778.127	46.6
2781.598	47.6
2785.067	45.6
2788.532	45.6
2791.995	56.6
2795.455	47.6
2798.911	51.6
2802.365	60.6
2805.816	51.6
2809.264	55.6
2812.709	50.6
2816.151	57.6
2819.59	68.6
2823.026	53.6
2826.46	59.6
2829.89	55.6
2833.318	49.6
2836.742	53.6
2840.164	49.6
2843.583	47.6
2846.999	58.6
2850.412	51.6
2853.822	55.6
2857.229	63.6
2860.634	50.6
2864.035	53.6
2867.434	59.6
2870.83	66.6
2874.223	61.6
2877.613	67.6
2881	73.6
2884.385	73.6
2887.766	81.6
2891.145	70.6
2894.521	76.6
2897.894	72.6
2901.264	72.6
2904.631	67.6
2907.996	72.6
2911.358	80.6
2914.717	78.6
2918.073	71.6
2921.426	77.6
2924.777	78.6
2928.124	81.6
2931.469	86.6
2934.811	96.6
2938.15	96.6
2941.487	108.6
2944.821	98.6
2948.152	99.6
2951.48	95.6
2954.805	97.6
2958.128	89.6
2961.447	90.6
2964.765	88.6
2968.079	82.6
2971.39	85.6
2974.699	84.6
2978.005	87.6
2981.308	81.6
2984.609	88.6
2987.907	85.6
2991.202	89.6
2994.494	88.6
2997.784	75.6
3001.07	93.6
3004.355	94.6
3007.636	92.6
3010.915	94.6
3014.191	93.6
3017.464	93.6
3020.734	93.6
3024.002	99.6
3027.267	99.6
3030.53	109.6
3033.789	113.6
3037.046	102.6
3040.301	113.6
3043.552	116.6
3046.801	118.6
3050.048	121.6
3053.291	122.6
3056.532	125.6
3059.771	135.6
3063.006	136.6
3066.239	144.6
3069.469	154.6
3072.697	155.6
3075.922	161.6
3079.144	167.6
3082.364	169.6
3085.581	176.6
3088.795	173.6
3092.007	186.6
3095.216	185.6
3098.423	187.6
3101.627	182.6
3104.828	197.6
3108.026	187.6
3111.222	191.6
3114.416	208.6
3117.607	210.6
3120.795	214.6
3123.98	220.6
3127.163	227.6
3130.344	233.6
3133.521	228.6
3136.696	242.6
3139.869	241.6
3143.039	245.6
3146.206	247.6
3149.371	250.6
3152.533	266.6
3155.693	260.6
3158.85	261.6
3162.005	262.6
3165.157	266.6
3168.306	263.6
3171.453	263.6
3174.597	269.6
3177.739	274.6
3180.878	265.6
3184.014	263.6
3187.149	275.6
3190.28	261.6
3193.409	272.6
3196.536	273.6
3199.659	275.6
3202.781	269.6
3205.9	263.6
3209.016	265.6
3212.13	274.6
3215.241	265.6
3218.35	278.6
3221.456	273.6
3224.56	267.6
3227.661	264.6
3230.76	245.6
3233.856	243.6
3236.95	240.6
3240.041	237.6
3243.13	242.6
3246.216	236.6
3249.3	234.6
3252.382	227.6
3255.46	223.6
3258.537	214.6
3261.611	215.6
3264.682	212.6
3267.751	210.6
3270.818	202.6
3273.882	203.6
3276.943	202.6
3280.002	208.6
3283.059	206.6
3286.113	202.6
3289.165	194.6
3292.214	197.6
3295.261	203.6
3298.306	192.6
3301.348	195.6
3304.387	196.6
3307.425	195.6
3310.459	187.6
3313.492	188.6
3316.521	186.6
3319.549	190.6
3322.574	190.6
3325.597	185.6
3328.617	194.6
3331.635	195.6
3334.65	195.6
3337.663	172.6
3340.674	189.6
3343.682	188.6
3346.688	188.6
3349.691	192.6
3352.692	191.6
3355.691	192.6
3358.687	185.6
3361.681	187.6
3364.673	185.6
3367.662	180.6
3370.649	183.6
3373.633	180.6
3376.615	172.6
3379.595	167.6
3382.572	162.6
3385.547	159.6
3388.52	161.6
3391.49	157.6
3394.458	145.6
3397.424	153.6
3400.387	145.6
3403.348	140.6
3406.307	142.6
3409.263	147.6
3412.217	142.6
3415.168	139.6
3418.118	141.6
3421.065	134.6
3424.009	127.6
3426.951	128.6
3429.891	123.6
3432.829	126.6
3435.764	118.6
3438.697	121.6
3441.628	108.6
3444.557	105.6
3447.483	98.6
3450.407	86.6
3453.328	95.6
3456.247	93.6
3459.164	88.6
3462.079	77.6
3464.991	81.6
3467.902	73.6
3470.809	73.6
3473.715	65.6
3476.618	63.6
3479.519	64.6
3482.418	54.6
3485.315	53.6
3488.209	44.6
3491.101	45.6
3493.99	45.6
3496.878	39.6
3499.763	34.6
3502.646	34.6
3505.527	37.6
3508.405	29.6
3511.281	20.6
3514.155	20.6
3517.027	15.6
3519.897	18.6
3522.764	21.6
3525.629	15.6
3528.492	8.6
3531.352	6.6
3534.211	3.6
3537.067	4.6
3539.921	1.6
3542.773	-5.4
3545.622	-1.4
3548.469	-0.4
3551.315	-3.4
3554.157	-10.4
3556.998	-14.4
3559.837	-13.4
3562.673	-11.4
3565.507	-14.4
3568.339	-16.4
3571.169	-19.4
3573.996	-14.4
3576.822	-26.4
3579.645	-21.4
3582.466	-24.4
3585.285	-26.4
3588.101	-30.4
3590.916	-20.4
3593.728	-28.4
3596.538	-27.4
3599.346	-29.4
3602.152	-33.4
3604.956	-29.4
3607.757	-31.4
3610.556	-34.4
3613.354	-39.4
3616.149	-38.4
3618.942	-35.4
3621.732	-41.4
3624.521	-34.4
3627.307	-37.4
3630.092	-44.4
3632.874	-43.4
3635.654	-43.4
3638.432	-41.4
3641.208	-38.4
3643.982	-34.4
3646.753	-51.4
3649.523	-40.4
3652.29	-45.4
3655.055	-42.4
3657.818	-48.4
3660.579	-47.4
3663.338	-44.4
3666.095	-46.4
3668.849	-52.4
3671.602	-47.4
3674.352	-47.4
3677.101	-47.4
3679.847	-54.4
3682.591	-52.4
3685.333	-48.4
3688.073	-55.4
3690.811	-49.4
3693.547	-54.4
3696.281	-52.4
3699.013	-50.4
3701.742	-52.4
3704.47	-48.4
3707.195	-50.4
3709.919	-48.4
3712.64	-54.4
3715.359	-57.4
3718.076	-57.4
3720.792	-55.4
3723.505	-60.4
3726.216	-51.4
3728.925	-58.4
3731.632	-54.4
3734.336	-60.4
3737.039	-56.4
3739.74	-62.4
3742.439	-66.4
3745.136	-59.4
3747.83	-60.4
3750.523	-63.4
3753.213	-55.4
3755.902	-56.4
3758.589	-54.4
3761.273	-51.4
3763.956	-61.4
3766.636	-61.4
3769.315	-50.4
3771.991	-57.4
3774.665	-61.4
3777.338	-60.4
3780.008	-59.4
3782.677	-62.4
3785.343	-63.4
3788.007	-63.4
3790.67	-62.4
3793.33	-63.4
3795.989	-65.4
3798.645	-65.4
3801.299	-58.4
3803.952	-56.4
3806.602	-60.4
3809.251	-62.4
3811.897	-66.4
3814.542	-65.4
3817.184	-57.4
3819.825	-53.4
3822.463	-59.4
3825.1	-60.4
3827.735	-65.4
3830.367	-62.4
3832.998	-62.4
3835.627	-60.4
3838.253	-61.4
3840.878	-63.4
3843.501	-59.4
3846.122	-62.4
3848.741	-64.4
3851.358	-63.4
3853.973	-61.4
3856.586	-62.4
3859.197	-64.4
3861.806	-61.4
3864.414	-63.4
3867.019	-59.4
3869.622	-56.4
3872.224	-51.4
3874.823	-43.4
3877.421	-44.4
3880.016	-37.4
3882.61	-15.4
3885.202	-16.4
3887.792	-19.4
3890.38	-38.4
3892.966	-51.4
3895.55	-57.4
3898.132	-63.4
3900.713	-65.4
3903.291	-63.4
3905.868	-61.4
3908.442	-65.4
3911.015	-58.4
3913.586	-64.4
3916.155	-65.4
3918.722	-66.4
3921.287	-62.4
3923.85	-58.4
3926.411	-65.4
3928.971	-70.4
3931.528	-63.4
3934.084	-56.4
3936.638	-58.4
3939.19	-71.4
3941.74	-60.4
3944.288	-63.4
3946.834	-62.4
3949.378	-64.4
3951.921	-65.4
3954.462	-67.4
3957	-58.4
3959.537	-57.4
3962.072	-62.4
3964.606	-64.4
3967.137	-65.4
3969.667	-66.4
3972.194	-61.4
3974.72	-63.4
3977.244	-58.4
3979.766	-62.4
3982.286	-61.4
3984.805	-68.4
3987.321	-58.4
3989.836	-56.4
3992.349	-59.4
3994.86	-61.4
3997.369	-60.4
3999.877	-61.4
4002.382	-65.4
4004.886	-57.4
4007.388	-63.4
4009.888	-60.4
4012.386	-63.4
4014.883	-61.4
4017.377	-61.4
4019.87	-62.4
4022.361	-62.4
4024.85	-57.4
4027.338	-65.4
4029.823	-66.4
4032.307	-62.4
4034.789	-58.4
4037.269	-60.4
4039.747	-64.4
4042.224	-59.4
4044.699	-58.4
4047.172	-63.4
4049.643	-64.4
4052.112	-63.4
4054.58	-56.4
4057.046	-57.4
4059.51	-58.4
4061.972	-66.4
4064.432	-60.4
4066.891	-58.4
4069.348	-61.4
4071.803	-54.4
4074.256	-62.4
4076.708	-63.4
4079.158	-64.4
4081.606	-62.4
4084.052	-61.4
4086.497	-63.4
4088.939	-55.4
4091.38	-64.4
4093.819	-58.4
4096.257	-65.4
4098.693	-61.4
4101.127	-57.4
4103.559	-69.4
4105.989	-0.4
4108.418	-8.4
4110.845	-10.4
4113.27	-13.4
4115.694	-2.4
4118.115	-0.4
4120.535	-61.4
4122.954	-56.4
4125.37	-55.4
4127.785	-57.4
4130.198	-56.4
4132.609	-62.4
4135.019	-68.4
4137.427	-68.4
4139.833	-65.4
4142.237	-64.4
