Data from 2018-3-7_conc=0_n=10_RamanShift_02.txt Node
Date: Wed Mar 07 10:36:22 IST 2018
User: aro
Spectrometer: QEPB0276
Trigger mode: 0
Integration Time (sec): 3.000000E1
Scans to average: 1
Electric dark correction enabled: true
Nonlinearity correction enabled: false
Boxcar width: 0
XAxis mode: Raman Shifts
Number of Pixels in Spectrum: 1044
>>>>>Begin Spectral Data<<<<<
160.701	8.5
166.742	18.5
172.777	52.5
178.805	144.5
184.826	364.5
190.841	760.5
196.849	1235.5
202.85	1615.5
208.845	1753.5
214.833	1758.5
220.815	1734.5
226.789	1746.5
232.758	1773.5
238.719	1764.5
244.674	1771.5
250.623	1763.5
256.565	1767.5
262.5	1737.5
268.429	1740.5
274.351	1736.5
280.267	1707.5
286.176	1708.5
292.079	1722.5
297.975	1713.5
303.865	1746.5
309.748	1711.5
315.625	1728.5
321.495	1743.5
327.359	1741.5
333.217	1733.5
339.068	1768.5
344.912	1775.5
350.751	1773.5
356.583	1761.5
362.408	1770.5
368.227	1795.5
374.04	1806.5
379.847	1806.5
385.647	1814.5
391.44	1807.5
397.228	1832.5
403.009	1857.5
408.784	1864.5
414.553	1862.5
420.315	1869.5
426.071	1858.5
431.821	1873.5
437.565	1871.5
443.302	1858.5
449.033	1865.5
454.758	1857.5
460.477	1839.5
466.189	1817.5
471.896	1795.5
477.596	1778.5
483.29	1781.5
488.978	1775.5
494.66	1758.5
500.335	1714.5
506.005	1643.5
511.668	1571.5
517.325	1490.5
522.977	1434.5
528.622	1378.5
534.261	1372.5
539.894	1331.5
545.521	1309.5
551.141	1277.5
556.756	1287.5
562.365	1276.5
567.968	1256.5
573.565	1244.5
579.155	1241.5
584.74	1240.5
590.319	1235.5
595.892	1249.5
601.459	1211.5
607.02	1228.5
612.575	1201.5
618.124	1203.5
623.667	1196.5
629.204	1166.5
634.735	1150.5
640.261	1140.5
645.781	1124.5
651.294	1127.5
656.802	1120.5
662.304	1122.5
667.8	1131.5
673.29	1125.5
678.775	1108.5
684.254	1113.5
689.726	1103.5
695.193	1100.5
700.655	1089.5
706.11	1080.5
711.56	1082.5
717.004	1068.5
722.442	1059.5
727.874	1043.5
733.301	1055.5
738.722	1040.5
744.137	1041.5
749.547	1042.5
754.951	1039.5
760.349	1044.5
765.741	1039.5
771.128	1054.5
776.509	1069.5
781.885	1090.5
787.254	1093.5
792.618	1088.5
797.977	1092.5
803.33	1091.5
808.677	1070.5
814.019	1073.5
819.355	1056.5
824.686	1059.5
830.011	1055.5
835.33	1041.5
840.644	1031.5
845.952	1034.5
851.255	1023.5
856.552	1027.5
861.844	997.5
867.13	996.5
872.41	1006.5
877.686	1020.5
882.955	1025.5
888.219	1023.5
893.478	991.5
898.731	958.5
903.979	932.5
909.221	908.5
914.458	906.5
919.69	902.5
924.916	908.5
930.136	913.5
935.351	910.5
940.561	919.5
945.766	922.5
950.965	909.5
956.158	892.5
961.347	891.5
966.529	876.5
971.707	849.5
976.879	846.5
982.046	833.5
987.208	847.5
992.364	839.5
997.515	848.5
1002.66	844.5
1007.801	859.5
1012.936	860.5
1018.066	879.5
1023.19	870.5
1028.309	867.5
1033.423	872.5
1038.532	870.5
1043.636	887.5
1048.734	882.5
1053.827	864.5
1058.915	851.5
1063.998	836.5
1069.075	827.5
1074.147	847.5
1079.214	837.5
1084.276	845.5
1089.333	856.5
1094.385	850.5
1099.431	844.5
1104.472	836.5
1109.509	827.5
1114.54	803.5
1119.565	805.5
1124.586	797.5
1129.602	779.5
1134.613	771.5
1139.618	759.5
1144.619	769.5
1149.614	771.5
1154.604	760.5
1159.589	778.5
1164.57	765.5
1169.545	779.5
1174.515	772.5
1179.48	767.5
1184.44	768.5
1189.395	751.5
1194.345	747.5
1199.29	752.5
1204.23	747.5
1209.165	742.5
1214.095	760.5
1219.021	746.5
1223.941	764.5
1228.856	770.5
1233.766	768.5
1238.672	767.5
1243.572	761.5
1248.467	755.5
1253.358	736.5
1258.244	747.5
1263.124	719.5
1268	712.5
1272.871	704.5
1277.737	701.5
1282.599	711.5
1287.455	693.5
1292.306	694.5
1297.153	697.5
1301.995	697.5
1306.832	694.5
1311.664	716.5
1316.491	705.5
1321.314	698.5
1326.132	686.5
1330.945	690.5
1335.753	666.5
1340.556	648.5
1345.354	650.5
1350.148	623.5
1354.937	612.5
1359.722	606.5
1364.501	595.5
1369.276	597.5
1374.046	587.5
1378.811	580.5
1383.572	576.5
1388.327	581.5
1393.079	561.5
1397.825	576.5
1402.567	581.5
1407.304	589.5
1412.036	595.5
1416.764	579.5
1421.487	582.5
1426.205	587.5
1430.919	584.5
1435.628	586.5
1440.333	600.5
1445.032	597.5
1449.727	623.5
1454.418	621.5
1459.104	615.5
1463.785	611.5
1468.462	595.5
1473.134	568.5
1477.802	541.5
1482.465	532.5
1487.123	526.5
1491.777	520.5
1496.426	507.5
1501.071	505.5
1505.711	489.5
1510.347	491.5
1514.978	480.5
1519.604	481.5
1524.226	479.5
1528.844	487.5
1533.457	464.5
1538.065	484.5
1542.669	476.5
1547.269	483.5
1551.864	483.5
1556.454	499.5
1561.041	502.5
1565.622	513.5
1570.199	505.5
1574.772	495.5
1579.34	514.5
1583.904	513.5
1588.464	536.5
1593.019	520.5
1597.569	526.5
1602.115	531.5
1606.657	524.5
1611.195	503.5
1615.728	508.5
1620.256	513.5
1624.78	510.5
1629.3	510.5
1633.816	506.5
1638.327	520.5
1642.834	510.5
1647.336	506.5
1651.834	500.5
1656.328	507.5
1660.817	509.5
1665.302	482.5
1669.783	471.5
1674.259	472.5
1678.732	466.5
1683.199	439.5
1687.663	432.5
1692.122	404.5
1696.577	393.5
1701.028	365.5
1705.474	349.5
1709.917	356.5
1714.355	347.5
1718.788	344.5
1723.218	348.5
1727.643	341.5
1732.064	345.5
1736.481	340.5
1740.893	344.5
1745.301	327.5
1749.705	332.5
1754.105	307.5
1758.501	296.5
1762.893	307.5
1767.28	290.5
1771.663	302.5
1776.042	288.5
1780.417	279.5
1784.787	275.5
1789.154	268.5
1793.516	257.5
1797.874	259.5
1802.228	259.5
1806.578	252.5
1810.924	255.5
1815.266	265.5
1819.603	251.5
1823.937	263.5
1828.266	255.5
1832.591	258.5
1836.913	270.5
1841.23	262.5
1845.543	251.5
1849.852	271.5
1854.156	264.5
1858.457	263.5
1862.754	269.5
1867.047	261.5
1871.335	263.5
1875.62	258.5
1879.9	259.5
1884.177	244.5
1888.449	251.5
1892.718	251.5
1896.982	251.5
1901.243	231.5
1905.499	229.5
1909.752	222.5
1914	220.5
1918.245	216.5
1922.485	219.5
1926.722	203.5
1930.954	205.5
1935.183	207.5
1939.408	207.5
1943.628	206.5
1947.845	205.5
1952.058	203.5
1956.267	200.5
1960.472	205.5
1964.673	195.5
1968.87	193.5
1973.063	201.5
1977.252	198.5
1981.438	204.5
1985.619	198.5
1989.797	204.5
1993.971	204.5
1998.14	198.5
2002.306	201.5
2006.469	201.5
2010.627	203.5
2014.781	202.5
2018.932	200.5
2023.078	202.5
2027.221	199.5
2031.36	203.5
2035.495	193.5
2039.627	181.5
2043.754	186.5
2047.878	185.5
2051.998	183.5
2056.114	176.5
2060.226	176.5
2064.334	168.5
2068.439	167.5
2072.54	169.5
2076.637	182.5
2080.73	170.5
2084.82	170.5
2088.906	161.5
2092.988	166.5
2097.066	157.5
2101.14	153.5
2105.211	158.5
2109.278	160.5
2113.342	151.5
2117.401	155.5
2121.457	157.5
2125.509	149.5
2129.558	154.5
2133.602	150.5
2137.643	155.5
2141.681	147.5
2145.714	152.5
2149.744	157.5
2153.77	155.5
2157.793	150.5
2161.812	159.5
2165.827	154.5
2169.838	148.5
2173.846	148.5
2177.851	145.5
2181.851	148.5
2185.848	137.5
2189.841	134.5
2193.831	140.5
2197.817	138.5
2201.799	143.5
2205.778	139.5
2209.753	139.5
2213.725	138.5
2217.693	142.5
2221.657	133.5
2225.618	136.5
2229.575	133.5
2233.529	130.5
2237.479	132.5
2241.425	134.5
2245.368	127.5
2249.307	128.5
2253.243	126.5
2257.175	127.5
2261.104	120.5
2265.029	123.5
2268.95	123.5
2272.868	113.5
2276.783	113.5
2280.694	111.5
2284.601	108.5
2288.505	110.5
2292.405	115.5
2296.302	122.5
2300.195	111.5
2304.085	117.5
2307.971	107.5
2311.854	102.5
2315.734	103.5
2319.609	105.5
2323.482	101.5
2327.351	104.5
2331.216	120.5
2335.078	131.5
2338.937	119.5
2342.792	110.5
2346.643	116.5
2350.492	104.5
2354.336	108.5
2358.178	96.5
2362.015	102.5
2365.85	100.5
2369.681	108.5
2373.508	107.5
2377.333	104.5
2381.153	109.5
2384.971	100.5
2388.785	97.5
2392.595	101.5
2396.402	106.5
2400.206	105.5
2404.007	96.5
2407.804	102.5
2411.597	97.5
2415.388	101.5
2419.174	105.5
2422.958	94.5
2426.738	101.5
2430.515	97.5
2434.289	98.5
2438.059	92.5
2441.825	87.5
2445.589	94.5
2449.349	88.5
2453.106	95.5
2456.859	86.5
2460.61	88.5
2464.356	88.5
2468.1	86.5
2471.84	77.5
2475.577	70.5
2479.311	78.5
2483.041	78.5
2486.768	82.5
2490.492	82.5
2494.213	77.5
2497.93	86.5
2501.644	87.5
2505.355	72.5
2509.062	72.5
2512.766	75.5
2516.467	67.5
2520.165	72.5
2523.859	70.5
2527.551	69.5
2531.239	67.5
2534.923	69.5
2538.605	63.5
2542.283	61.5
2545.958	59.5
2549.63	64.5
2553.299	58.5
2556.964	51.5
2560.626	56.5
2564.285	55.5
2567.941	63.5
2571.594	54.5
2575.243	54.5
2578.89	59.5
2582.533	51.5
2586.173	51.5
2589.809	55.5
2593.443	57.5
2597.073	54.5
2600.701	57.5
2604.325	47.5
2607.946	39.5
2611.564	53.5
2615.178	52.5
2618.79	53.5
2622.398	54.5
2626.004	48.5
2629.606	41.5
2633.205	43.5
2636.801	43.5
2640.394	50.5
2643.983	45.5
2647.57	43.5
2651.153	41.5
2654.734	45.5
2658.311	39.5
2661.885	45.5
2665.456	41.5
2669.025	42.5
2672.589	36.5
2676.151	41.5
2679.71	33.5
2683.266	34.5
2686.819	45.5
2690.368	42.5
2693.915	41.5
2697.458	33.5
2700.999	37.5
2704.536	42.5
2708.071	35.5
2711.602	27.5
2715.13	23.5
2718.656	30.5
2722.178	24.5
2725.697	33.5
2729.214	31.5
2732.727	38.5
2736.237	37.5
2739.744	25.5
2743.249	25.5
2746.75	23.5
2750.248	21.5
2753.743	20.5
2757.236	19.5
2760.725	22.5
2764.211	21.5
2767.695	16.5
2771.175	24.5
2774.652	10.5
2778.127	19.5
2781.598	15.5
2785.067	14.5
2788.532	18.5
2791.995	18.5
2795.455	11.5
2798.911	17.5
2802.365	20.5
2805.816	24.5
2809.264	23.5
2812.709	17.5
2816.151	17.5
2819.59	30.5
2823.026	22.5
2826.46	22.5
2829.89	24.5
2833.318	22.5
2836.742	28.5
2840.164	19.5
2843.583	25.5
2846.999	29.5
2850.412	24.5
2853.822	25.5
2857.229	28.5
2860.634	22.5
2864.035	29.5
2867.434	28.5
2870.83	41.5
2874.223	33.5
2877.613	40.5
2881	36.5
2884.385	42.5
2887.766	44.5
2891.145	43.5
2894.521	48.5
2897.894	37.5
2901.264	47.5
2904.631	38.5
2907.996	44.5
2911.358	45.5
2914.717	46.5
2918.073	40.5
2921.426	44.5
2924.777	50.5
2928.124	56.5
2931.469	52.5
2934.811	69.5
2938.15	69.5
2941.487	69.5
2944.821	65.5
2948.152	56.5
2951.48	56.5
2954.805	55.5
2958.128	45.5
2961.447	50.5
2964.765	40.5
2968.079	47.5
2971.39	46.5
2974.699	40.5
2978.005	52.5
2981.308	46.5
2984.609	45.5
2987.907	39.5
2991.202	38.5
2994.494	42.5
2997.784	33.5
3001.07	43.5
3004.355	43.5
3007.636	43.5
3010.915	43.5
3014.191	36.5
3017.464	36.5
3020.734	45.5
3024.002	42.5
3027.267	49.5
3030.53	45.5
3033.789	46.5
3037.046	47.5
3040.301	48.5
3043.552	56.5
3046.801	50.5
3050.048	52.5
3053.291	50.5
3056.532	52.5
3059.771	53.5
3063.006	61.5
3066.239	63.5
3069.469	73.5
3072.697	63.5
3075.922	80.5
3079.144	72.5
3082.364	69.5
3085.581	76.5
3088.795	80.5
3092.007	74.5
3095.216	82.5
3098.423	81.5
3101.627	87.5
3104.828	93.5
3108.026	98.5
3111.222	89.5
3114.416	95.5
3117.607	101.5
3120.795	100.5
3123.98	97.5
3127.163	114.5
3130.344	109.5
3133.521	113.5
3136.696	114.5
3139.869	117.5
3143.039	114.5
3146.206	129.5
3149.371	118.5
3152.533	120.5
3155.693	131.5
3158.85	127.5
3162.005	125.5
3165.157	126.5
3168.306	122.5
3171.453	120.5
3174.597	126.5
3177.739	138.5
3180.878	127.5
3184.014	118.5
3187.149	126.5
3190.28	122.5
3193.409	128.5
3196.536	131.5
3199.659	139.5
3202.781	124.5
3205.9	124.5
3209.016	122.5
3212.13	126.5
3215.241	120.5
3218.35	121.5
3221.456	125.5
3224.56	113.5
3227.661	117.5
3230.76	111.5
3233.856	112.5
3236.95	107.5
3240.041	103.5
3243.13	104.5
3246.216	101.5
3249.3	98.5
3252.382	100.5
3255.46	100.5
3258.537	101.5
3261.611	96.5
3264.682	89.5
3267.751	93.5
3270.818	80.5
3273.882	88.5
3276.943	90.5
3280.002	92.5
3283.059	87.5
3286.113	85.5
3289.165	85.5
3292.214	85.5
3295.261	94.5
3298.306	85.5
3301.348	86.5
3304.387	77.5
3307.425	79.5
3310.459	82.5
3313.492	77.5
3316.521	77.5
3319.549	88.5
3322.574	82.5
3325.597	76.5
3328.617	81.5
3331.635	77.5
3334.65	86.5
3337.663	67.5
3340.674	84.5
3343.682	75.5
3346.688	74.5
3349.691	77.5
3352.692	80.5
3355.691	83.5
3358.687	78.5
3361.681	71.5
3364.673	78.5
3367.662	73.5
3370.649	80.5
3373.633	78.5
3376.615	72.5
3379.595	65.5
3382.572	63.5
3385.547	72.5
3388.52	65.5
3391.49	61.5
3394.458	53.5
3397.424	60.5
3400.387	54.5
3403.348	55.5
3406.307	52.5
3409.263	57.5
3412.217	54.5
3415.168	55.5
3418.118	54.5
3421.065	49.5
3424.009	44.5
3426.951	46.5
3429.891	36.5
3432.829	38.5
3435.764	49.5
3438.697	44.5
3441.628	39.5
3444.557	33.5
3447.483	34.5
3450.407	29.5
3453.328	25.5
3456.247	27.5
3459.164	22.5
3462.079	19.5
3464.991	19.5
3467.902	18.5
3470.809	14.5
3473.715	16.5
3476.618	11.5
3479.519	9.5
3482.418	5.5
3485.315	6.5
3488.209	-2.5
3491.101	-2.5
3493.99	7.5
3496.878	4.5
3499.763	-3.5
3502.646	-5.5
3505.527	-3.5
3508.405	-4.5
3511.281	-8.5
3514.155	-9.5
3517.027	-17.5
3519.897	-9.5
3522.764	-12.5
3525.629	-11.5
3528.492	-16.5
3531.352	-14.5
3534.211	-23.5
3537.067	-20.5
3539.921	-15.5
3542.773	-27.5
3545.622	-25.5
3548.469	-24.5
3551.315	-18.5
3554.157	-24.5
3556.998	-29.5
3559.837	-30.5
3562.673	-27.5
3565.507	-25.5
3568.339	-23.5
3571.169	-30.5
3573.996	-22.5
3576.822	-36.5
3579.645	-28.5
3582.466	-32.5
3585.285	-31.5
3588.101	-37.5
3590.916	-31.5
3593.728	-36.5
3596.538	-41.5
3599.346	-39.5
3602.152	-40.5
3604.956	-36.5
3607.757	-32.5
3610.556	-39.5
3613.354	-44.5
3616.149	-46.5
3618.942	-42.5
3621.732	-42.5
3624.521	-37.5
3627.307	-42.5
3630.092	-39.5
3632.874	-42.5
3635.654	-45.5
3638.432	-40.5
3641.208	-44.5
3643.982	-43.5
3646.753	-42.5
3649.523	-47.5
3652.29	-40.5
3655.055	-41.5
3657.818	-46.5
3660.579	-48.5
3663.338	-41.5
3666.095	-49.5
3668.849	-52.5
3671.602	-46.5
3674.352	-43.5
3677.101	-47.5
3679.847	-45.5
3682.591	-49.5
3685.333	-47.5
3688.073	-48.5
3690.811	-46.5
3693.547	-52.5
3696.281	-45.5
3699.013	-48.5
3701.742	-54.5
3704.47	-45.5
3707.195	-48.5
3709.919	-51.5
3712.64	-49.5
3715.359	-49.5
3718.076	-52.5
3720.792	-54.5
3723.505	-53.5
3726.216	-52.5
3728.925	-56.5
3731.632	-50.5
3734.336	-49.5
3737.039	-48.5
3739.74	-50.5
3742.439	-58.5
3745.136	-52.5
3747.83	-50.5
3750.523	-51.5
3753.213	-53.5
3755.902	-54.5
3758.589	-56.5
3761.273	-48.5
3763.956	-54.5
3766.636	-45.5
3769.315	-45.5
3771.991	-53.5
3774.665	-55.5
3777.338	-45.5
3780.008	-58.5
3782.677	-56.5
3785.343	-56.5
3788.007	-56.5
3790.67	-57.5
3793.33	-51.5
3795.989	-56.5
3798.645	-51.5
3801.299	-46.5
3803.952	-50.5
3806.602	-57.5
3809.251	-57.5
3811.897	-55.5
3814.542	-61.5
3817.184	-56.5
3819.825	-49.5
3822.463	-54.5
3825.1	-49.5
3827.735	-56.5
3830.367	-59.5
3832.998	-55.5
3835.627	-52.5
3838.253	-53.5
3840.878	-53.5
3843.501	-52.5
3846.122	-57.5
3848.741	-52.5
3851.358	-49.5
3853.973	-52.5
3856.586	-53.5
3859.197	-55.5
3861.806	-54.5
3864.414	-51.5
3867.019	-54.5
3869.622	-47.5
3872.224	-39.5
3874.823	-37.5
3877.421	-31.5
3880.016	-12.5
3882.61	7.5
3885.202	7.5
3887.792	6.5
3890.38	-22.5
3892.966	-36.5
3895.55	-50.5
3898.132	-55.5
3900.713	-58.5
3903.291	-63.5
3905.868	-52.5
3908.442	-54.5
3911.015	-53.5
3913.586	-57.5
3916.155	-52.5
3918.722	-55.5
3921.287	-56.5
3923.85	-45.5
3926.411	-56.5
3928.971	-58.5
3931.528	-54.5
3934.084	-52.5
3936.638	-53.5
3939.19	-56.5
3941.74	-57.5
3944.288	-54.5
3946.834	-51.5
3949.378	-58.5
3951.921	-57.5
3954.462	-55.5
3957	-53.5
3959.537	-45.5
3962.072	-46.5
3964.606	-51.5
3967.137	-47.5
3969.667	-53.5
3972.194	-50.5
3974.72	-49.5
3977.244	-57.5
3979.766	-59.5
3982.286	-57.5
3984.805	-60.5
3987.321	-54.5
3989.836	-50.5
3992.349	-54.5
3994.86	-61.5
3997.369	-57.5
3999.877	-54.5
4002.382	-58.5
4004.886	-57.5
4007.388	-56.5
4009.888	-50.5
4012.386	-52.5
4014.883	-52.5
4017.377	-43.5
4019.87	-53.5
4022.361	-57.5
4024.85	-51.5
4027.338	-52.5
4029.823	-60.5
4032.307	-57.5
4034.789	-53.5
4037.269	-49.5
4039.747	-52.5
4042.224	-56.5
4044.699	-57.5
4047.172	-54.5
4049.643	-56.5
4052.112	-57.5
4054.58	-55.5
4057.046	-54.5
4059.51	-54.5
4061.972	-55.5
4064.432	-56.5
4066.891	-51.5
4069.348	-54.5
4071.803	-50.5
4074.256	-48.5
4076.708	-55.5
4079.158	-58.5
4081.606	-52.5
4084.052	-51.5
4086.497	-50.5
4088.939	-48.5
4091.38	-58.5
4093.819	-59.5
4096.257	-55.5
4098.693	-58.5
4101.127	-54.5
4103.559	-58.5
4105.989	25.5
4108.418	20.5
4110.845	12.5
4113.27	20.5
4115.694	16.5
4118.115	20.5
4120.535	-53.5
4122.954	-54.5
4125.37	-54.5
4127.785	-49.5
4130.198	-53.5
4132.609	-54.5
4135.019	-54.5
4137.427	-56.5
4139.833	-56.5
4142.237	-56.5
