Data from 2018-3-7_conc=5_n=6_RamanShift_02.txt Node
Date: Wed Mar 07 12:40:52 IST 2018
User: aro
Spectrometer: QEPB0276
Trigger mode: 0
Integration Time (sec): 3.000000E1
Scans to average: 1
Electric dark correction enabled: true
Nonlinearity correction enabled: false
Boxcar width: 0
XAxis mode: Raman Shifts
Number of Pixels in Spectrum: 1044
>>>>>Begin Spectral Data<<<<<
160.701	4.4
166.742	16.4
172.777	56.4
178.805	185.4
184.826	490.4
190.841	1063.4
196.849	1804.4
202.85	2370.4
208.845	2588.4
214.833	2592.4
220.815	2544.4
226.789	2560.4
232.758	2555.4
238.719	2550.4
244.674	2534.4
250.623	2508.4
256.565	2475.4
262.5	2441.4
268.429	2411.4
274.351	2398.4
280.267	2382.4
286.176	2368.4
292.079	2389.4
297.975	2344.4
303.865	2332.4
309.748	2330.4
315.625	2325.4
321.495	2318.4
327.359	2315.4
333.217	2324.4
339.068	2312.4
344.912	2324.4
350.751	2322.4
356.583	2312.4
362.408	2311.4
368.227	2324.4
374.04	2355.4
379.847	2352.4
385.647	2330.4
391.44	2350.4
397.228	2362.4
403.009	2346.4
408.784	2404.4
414.553	2411.4
420.315	2393.4
426.071	2388.4
431.821	2381.4
437.565	2404.4
443.302	2388.4
449.033	2395.4
454.758	2382.4
460.477	2360.4
466.189	2355.4
471.896	2331.4
477.596	2344.4
483.29	2317.4
488.978	2320.4
494.66	2319.4
500.335	2281.4
506.005	2227.4
511.668	2168.4
517.325	2119.4
522.977	2057.4
528.622	2040.4
534.261	2026.4
539.894	1979.4
545.521	1972.4
551.141	1966.4
556.756	1953.4
562.365	1924.4
567.968	1930.4
573.565	1897.4
579.155	1907.4
584.74	1896.4
590.319	1897.4
595.892	1869.4
601.459	1884.4
607.02	1877.4
612.575	1860.4
618.124	1842.4
623.667	1824.4
629.204	1821.4
634.735	1814.4
640.261	1778.4
645.781	1790.4
651.294	1787.4
656.802	1763.4
662.304	1763.4
667.8	1764.4
673.29	1773.4
678.775	1772.4
684.254	1757.4
689.726	1742.4
695.193	1726.4
700.655	1720.4
706.11	1722.4
711.56	1713.4
717.004	1690.4
722.442	1679.4
727.874	1667.4
733.301	1681.4
738.722	1663.4
744.137	1660.4
749.547	1665.4
754.951	1653.4
760.349	1645.4
765.741	1669.4
771.128	1649.4
776.509	1669.4
781.885	1680.4
787.254	1692.4
792.618	1700.4
797.977	1679.4
803.33	1644.4
808.677	1643.4
814.019	1646.4
819.355	1619.4
824.686	1610.4
830.011	1604.4
835.33	1608.4
840.644	1595.4
845.952	1622.4
851.255	1612.4
856.552	1612.4
861.844	1586.4
867.13	1594.4
872.41	1586.4
877.686	1556.4
882.955	1567.4
888.219	1539.4
893.478	1517.4
898.731	1491.4
903.979	1480.4
909.221	1465.4
914.458	1472.4
919.69	1466.4
924.916	1480.4
930.136	1485.4
935.351	1480.4
940.561	1478.4
945.766	1485.4
950.965	1463.4
956.158	1468.4
961.347	1439.4
966.529	1427.4
971.707	1397.4
976.879	1384.4
982.046	1383.4
987.208	1368.4
992.364	1365.4
997.515	1358.4
1002.66	1391.4
1007.801	1405.4
1012.936	1401.4
1018.066	1415.4
1023.19	1418.4
1028.309	1413.4
1033.423	1413.4
1038.532	1403.4
1043.636	1380.4
1048.734	1382.4
1053.827	1351.4
1058.915	1344.4
1063.998	1333.4
1069.075	1325.4
1074.147	1317.4
1079.214	1337.4
1084.276	1342.4
1089.333	1344.4
1094.385	1339.4
1099.431	1343.4
1104.472	1343.4
1109.509	1328.4
1114.54	1327.4
1119.565	1300.4
1124.586	1286.4
1129.602	1273.4
1134.613	1265.4
1139.618	1251.4
1144.619	1252.4
1149.614	1263.4
1154.604	1257.4
1159.589	1262.4
1164.57	1261.4
1169.545	1261.4
1174.515	1275.4
1179.48	1262.4
1184.44	1245.4
1189.395	1252.4
1194.345	1223.4
1199.29	1210.4
1204.23	1221.4
1209.165	1209.4
1214.095	1226.4
1219.021	1232.4
1223.941	1244.4
1228.856	1235.4
1233.766	1245.4
1238.672	1255.4
1243.572	1255.4
1248.467	1243.4
1253.358	1234.4
1258.244	1218.4
1263.124	1188.4
1268	1174.4
1272.871	1172.4
1277.737	1150.4
1282.599	1141.4
1287.455	1145.4
1292.306	1146.4
1297.153	1144.4
1301.995	1159.4
1306.832	1158.4
1311.664	1159.4
1316.491	1162.4
1321.314	1182.4
1326.132	1161.4
1330.945	1148.4
1335.753	1133.4
1340.556	1093.4
1345.354	1073.4
1350.148	1083.4
1354.937	1050.4
1359.722	1016.4
1364.501	988.4
1369.276	961.4
1374.046	949.4
1378.811	931.4
1383.572	937.4
1388.327	932.4
1393.079	932.4
1397.825	940.4
1402.567	959.4
1407.304	955.4
1412.036	968.4
1416.764	957.4
1421.487	959.4
1426.205	961.4
1430.919	966.4
1435.628	973.4
1440.333	990.4
1445.032	980.4
1449.727	1004.4
1454.418	996.4
1459.104	992.4
1463.785	967.4
1468.462	956.4
1473.134	946.4
1477.802	910.4
1482.465	891.4
1487.123	879.4
1491.777	858.4
1496.426	849.4
1501.071	825.4
1505.711	821.4
1510.347	813.4
1514.978	802.4
1519.604	796.4
1524.226	790.4
1528.844	781.4
1533.457	781.4
1538.065	780.4
1542.669	772.4
1547.269	771.4
1551.864	768.4
1556.454	789.4
1561.041	809.4
1565.622	819.4
1570.199	821.4
1574.772	836.4
1579.34	845.4
1583.904	855.4
1588.464	860.4
1593.019	872.4
1597.569	878.4
1602.115	872.4
1606.657	873.4
1611.195	879.4
1615.728	869.4
1620.256	859.4
1624.78	862.4
1629.3	861.4
1633.816	862.4
1638.327	868.4
1642.834	864.4
1647.336	865.4
1651.834	859.4
1656.328	861.4
1660.817	845.4
1665.302	837.4
1669.783	832.4
1674.259	805.4
1678.732	790.4
1683.199	766.4
1687.663	730.4
1692.122	695.4
1696.577	663.4
1701.028	627.4
1705.474	574.4
1709.917	573.4
1714.355	563.4
1718.788	541.4
1723.218	559.4
1727.643	558.4
1732.064	567.4
1736.481	556.4
1740.893	548.4
1745.301	531.4
1749.705	532.4
1754.105	514.4
1758.501	505.4
1762.893	502.4
1767.28	490.4
1771.663	485.4
1776.042	477.4
1780.417	473.4
1784.787	465.4
1789.154	455.4
1793.516	432.4
1797.874	434.4
1802.228	424.4
1806.578	408.4
1810.924	403.4
1815.266	405.4
1819.603	404.4
1823.937	419.4
1828.266	413.4
1832.591	420.4
1836.913	420.4
1841.23	441.4
1845.543	432.4
1849.852	438.4
1854.156	431.4
1858.457	433.4
1862.754	443.4
1867.047	428.4
1871.335	442.4
1875.62	432.4
1879.9	432.4
1884.177	426.4
1888.449	432.4
1892.718	411.4
1896.982	412.4
1901.243	389.4
1905.499	388.4
1909.752	379.4
1914	368.4
1918.245	361.4
1922.485	357.4
1926.722	349.4
1930.954	339.4
1935.183	341.4
1939.408	339.4
1943.628	334.4
1947.845	333.4
1952.058	324.4
1956.267	314.4
1960.472	317.4
1964.673	312.4
1968.87	312.4
1973.063	310.4
1977.252	315.4
1981.438	313.4
1985.619	309.4
1989.797	319.4
1993.971	322.4
1998.14	332.4
2002.306	319.4
2006.469	336.4
2010.627	333.4
2014.781	326.4
2018.932	329.4
2023.078	328.4
2027.221	332.4
2031.36	331.4
2035.495	329.4
2039.627	308.4
2043.754	313.4
2047.878	311.4
2051.998	302.4
2056.114	309.4
2060.226	295.4
2064.334	298.4
2068.439	292.4
2072.54	298.4
2076.637	298.4
2080.73	289.4
2084.82	293.4
2088.906	276.4
2092.988	285.4
2097.066	271.4
2101.14	275.4
2105.211	264.4
2109.278	262.4
2113.342	256.4
2117.401	253.4
2121.457	249.4
2125.509	249.4
2129.558	251.4
2133.602	249.4
2137.643	251.4
2141.681	248.4
2145.714	256.4
2149.744	263.4
2153.77	252.4
2157.793	257.4
2161.812	262.4
2165.827	257.4
2169.838	257.4
2173.846	250.4
2177.851	258.4
2181.851	249.4
2185.848	253.4
2189.841	245.4
2193.831	245.4
2197.817	241.4
2201.799	245.4
2205.778	244.4
2209.753	240.4
2213.725	242.4
2217.693	244.4
2221.657	236.4
2225.618	241.4
2229.575	232.4
2233.529	228.4
2237.479	235.4
2241.425	233.4
2245.368	226.4
2249.307	221.4
2253.243	227.4
2257.175	226.4
2261.104	213.4
2265.029	216.4
2268.95	216.4
2272.868	204.4
2276.783	203.4
2280.694	204.4
2284.601	195.4
2288.505	209.4
2292.405	195.4
2296.302	203.4
2300.195	195.4
2304.085	190.4
2307.971	190.4
2311.854	186.4
2315.734	183.4
2319.609	195.4
2323.482	179.4
2327.351	184.4
2331.216	205.4
2335.078	210.4
2338.937	209.4
2342.792	194.4
2346.643	192.4
2350.492	187.4
2354.336	184.4
2358.178	187.4
2362.015	193.4
2365.85	197.4
2369.681	193.4
2373.508	196.4
2377.333	193.4
2381.153	198.4
2384.971	191.4
2388.785	186.4
2392.595	189.4
2396.402	201.4
2400.206	190.4
2404.007	197.4
2407.804	188.4
2411.597	187.4
2415.388	187.4
2419.174	188.4
2422.958	185.4
2426.738	191.4
2430.515	186.4
2434.289	187.4
2438.059	182.4
2441.825	178.4
2445.589	174.4
2449.349	171.4
2453.106	172.4
2456.859	167.4
2460.61	167.4
2464.356	164.4
2468.1	167.4
2471.84	166.4
2475.577	156.4
2479.311	164.4
2483.041	161.4
2486.768	156.4
2490.492	155.4
2494.213	154.4
2497.93	160.4
2501.644	150.4
2505.355	151.4
2509.062	148.4
2512.766	143.4
2516.467	144.4
2520.165	145.4
2523.859	149.4
2527.551	129.4
2531.239	135.4
2534.923	137.4
2538.605	131.4
2542.283	124.4
2545.958	127.4
2549.63	130.4
2553.299	126.4
2556.964	117.4
2560.626	123.4
2564.285	120.4
2567.941	115.4
2571.594	114.4
2575.243	117.4
2578.89	111.4
2582.533	108.4
2586.173	106.4
2589.809	112.4
2593.443	110.4
2597.073	107.4
2600.701	110.4
2604.325	93.4
2607.946	95.4
2611.564	101.4
2615.178	107.4
2618.79	105.4
2622.398	108.4
2626.004	105.4
2629.606	97.4
2633.205	103.4
2636.801	92.4
2640.394	108.4
2643.983	99.4
2647.57	103.4
2651.153	87.4
2654.734	96.4
2658.311	97.4
2661.885	94.4
2665.456	97.4
2669.025	92.4
2672.589	94.4
2676.151	93.4
2679.71	82.4
2683.266	91.4
2686.819	94.4
2690.368	88.4
2693.915	89.4
2697.458	80.4
2700.999	84.4
2704.536	81.4
2708.071	79.4
2711.602	75.4
2715.13	67.4
2718.656	70.4
2722.178	69.4
2725.697	69.4
2729.214	63.4
2732.727	73.4
2736.237	71.4
2739.744	56.4
2743.249	58.4
2746.75	52.4
2750.248	57.4
2753.743	53.4
2757.236	54.4
2760.725	52.4
2764.211	45.4
2767.695	46.4
2771.175	51.4
2774.652	48.4
2778.127	57.4
2781.598	45.4
2785.067	46.4
2788.532	45.4
2791.995	48.4
2795.455	53.4
2798.911	48.4
2802.365	53.4
2805.816	48.4
2809.264	46.4
2812.709	43.4
2816.151	53.4
2819.59	67.4
2823.026	46.4
2826.46	51.4
2829.89	52.4
2833.318	49.4
2836.742	50.4
2840.164	47.4
2843.583	49.4
2846.999	57.4
2850.412	55.4
2853.822	55.4
2857.229	56.4
2860.634	52.4
2864.035	50.4
2867.434	55.4
2870.83	62.4
2874.223	60.4
2877.613	65.4
2881	63.4
2884.385	68.4
2887.766	64.4
2891.145	66.4
2894.521	73.4
2897.894	73.4
2901.264	69.4
2904.631	69.4
2907.996	72.4
2911.358	78.4
2914.717	76.4
2918.073	71.4
2921.426	71.4
2924.777	78.4
2928.124	75.4
2931.469	85.4
2934.811	91.4
2938.15	91.4
2941.487	98.4
2944.821	90.4
2948.152	95.4
2951.48	84.4
2954.805	89.4
2958.128	82.4
2961.447	90.4
2964.765	86.4
2968.079	79.4
2971.39	84.4
2974.699	80.4
2978.005	89.4
2981.308	79.4
2984.609	84.4
2987.907	83.4
2991.202	89.4
2994.494	79.4
2997.784	72.4
3001.07	80.4
3004.355	83.4
3007.636	87.4
3010.915	89.4
3014.191	80.4
3017.464	97.4
3020.734	91.4
3024.002	86.4
3027.267	93.4
3030.53	100.4
3033.789	97.4
3037.046	102.4
3040.301	105.4
3043.552	114.4
3046.801	110.4
3050.048	119.4
3053.291	117.4
3056.532	124.4
3059.771	127.4
3063.006	139.4
3066.239	142.4
3069.469	149.4
3072.697	148.4
3075.922	159.4
3079.144	157.4
3082.364	157.4
3085.581	166.4
3088.795	167.4
3092.007	174.4
3095.216	170.4
3098.423	178.4
3101.627	171.4
3104.828	189.4
3108.026	178.4
3111.222	186.4
3114.416	193.4
3117.607	204.4
3120.795	205.4
3123.98	209.4
3127.163	224.4
3130.344	216.4
3133.521	220.4
3136.696	234.4
3139.869	227.4
3143.039	233.4
3146.206	247.4
3149.371	248.4
3152.533	250.4
3155.693	260.4
3158.85	245.4
3162.005	246.4
3165.157	251.4
3168.306	240.4
3171.453	248.4
3174.597	244.4
3177.739	246.4
3180.878	254.4
3184.014	245.4
3187.149	246.4
3190.28	255.4
3193.409	258.4
3196.536	258.4
3199.659	257.4
3202.781	261.4
3205.9	255.4
3209.016	252.4
3212.13	254.4
3215.241	260.4
3218.35	249.4
3221.456	248.4
3224.56	247.4
3227.661	238.4
3230.76	236.4
3233.856	239.4
3236.95	228.4
3240.041	225.4
3243.13	229.4
3246.216	207.4
3249.3	207.4
3252.382	215.4
3255.46	209.4
3258.537	198.4
3261.611	200.4
3264.682	206.4
3267.751	207.4
3270.818	191.4
3273.882	195.4
3276.943	200.4
3280.002	199.4
3283.059	191.4
3286.113	185.4
3289.165	184.4
3292.214	189.4
3295.261	187.4
3298.306	181.4
3301.348	187.4
3304.387	181.4
3307.425	176.4
3310.459	172.4
3313.492	172.4
3316.521	175.4
3319.549	180.4
3322.574	180.4
3325.597	172.4
3328.617	180.4
3331.635	186.4
3334.65	186.4
3337.663	173.4
3340.674	181.4
3343.682	175.4
3346.688	179.4
3349.691	187.4
3352.692	179.4
3355.691	177.4
3358.687	176.4
3361.681	178.4
3364.673	165.4
3367.662	172.4
3370.649	164.4
3373.633	158.4
3376.615	158.4
3379.595	163.4
3382.572	152.4
3385.547	155.4
3388.52	151.4
3391.49	149.4
3394.458	137.4
3397.424	147.4
3400.387	150.4
3403.348	132.4
3406.307	132.4
3409.263	140.4
3412.217	134.4
3415.168	133.4
3418.118	131.4
3421.065	122.4
3424.009	125.4
3426.951	120.4
3429.891	123.4
3432.829	111.4
3435.764	115.4
3438.697	109.4
3441.628	104.4
3444.557	105.4
3447.483	104.4
3450.407	88.4
3453.328	94.4
3456.247	83.4
3459.164	77.4
3462.079	71.4
3464.991	75.4
3467.902	67.4
3470.809	65.4
3473.715	62.4
3476.618	54.4
3479.519	53.4
3482.418	50.4
3485.315	48.4
3488.209	38.4
3491.101	38.4
3493.99	42.4
3496.878	32.4
3499.763	31.4
3502.646	25.4
3505.527	31.4
3508.405	22.4
3511.281	22.4
3514.155	15.4
3517.027	14.4
3519.897	15.4
3522.764	9.4
3525.629	8.4
3528.492	6.4
3531.352	-0.6
3534.211	-0.6
3537.067	0.4
3539.921	-3.6
3542.773	-8.6
3545.622	-3.6
3548.469	-8.6
3551.315	-11.6
3554.157	-13.6
3556.998	-14.6
3559.837	-17.6
3562.673	-19.6
3565.507	-21.6
3568.339	-11.6
3571.169	-27.6
3573.996	-16.6
3576.822	-32.6
3579.645	-28.6
3582.466	-25.6
3585.285	-29.6
3588.101	-25.6
3590.916	-25.6
3593.728	-29.6
3596.538	-28.6
3599.346	-35.6
3602.152	-32.6
3604.956	-28.6
3607.757	-29.6
3610.556	-35.6
3613.354	-44.6
3616.149	-44.6
3618.942	-43.6
3621.732	-42.6
3624.521	-45.6
3627.307	-44.6
3630.092	-47.6
3632.874	-7.6
3635.654	-23.6
3638.432	-33.6
3641.208	-44.6
3643.982	-41.6
3646.753	-47.6
3649.523	-45.6
3652.29	-42.6
3655.055	-43.6
3657.818	-48.6
3660.579	-46.6
3663.338	-43.6
3666.095	-50.6
3668.849	-49.6
3671.602	-48.6
3674.352	-51.6
3677.101	-53.6
3679.847	-54.6
3682.591	-57.6
3685.333	-53.6
3688.073	-56.6
3690.811	-51.6
3693.547	-52.6
3696.281	-49.6
3699.013	-56.6
3701.742	-58.6
3704.47	-48.6
3707.195	-50.6
3709.919	-53.6
3712.64	-53.6
3715.359	-50.6
3718.076	-55.6
3720.792	-58.6
3723.505	-56.6
3726.216	-55.6
3728.925	-64.6
3731.632	-58.6
3734.336	-58.6
3737.039	-59.6
3739.74	-62.6
3742.439	-63.6
3745.136	-60.6
3747.83	-59.6
3750.523	-64.6
3753.213	-67.6
3755.902	-59.6
3758.589	-56.6
3761.273	-55.6
3763.956	-60.6
3766.636	-52.6
3769.315	-59.6
3771.991	-61.6
3774.665	-57.6
3777.338	-59.6
3780.008	-58.6
3782.677	-67.6
3785.343	-59.6
3788.007	-63.6
3790.67	-62.6
3793.33	-58.6
3795.989	-67.6
3798.645	-66.6
3801.299	-58.6
3803.952	-65.6
3806.602	-64.6
3809.251	-64.6
3811.897	-62.6
3814.542	-68.6
3817.184	-59.6
3819.825	-56.6
3822.463	-62.6
3825.1	-60.6
3827.735	-67.6
3830.367	-60.6
3832.998	-62.6
3835.627	-60.6
3838.253	-60.6
3840.878	-59.6
3843.501	-59.6
3846.122	-70.6
3848.741	-62.6
3851.358	-58.6
3853.973	-61.6
3856.586	-59.6
3859.197	-59.6
3861.806	-60.6
3864.414	-60.6
3867.019	-64.6
3869.622	-58.6
3872.224	-52.6
3874.823	-46.6
3877.421	-44.6
3880.016	-29.6
3882.61	-20.6
3885.202	-18.6
3887.792	-25.6
3890.38	-38.6
3892.966	-53.6
3895.55	-64.6
3898.132	-57.6
3900.713	-64.6
3903.291	-67.6
3905.868	-61.6
3908.442	-63.6
3911.015	-62.6
3913.586	-67.6
3916.155	-62.6
3918.722	-58.6
3921.287	-67.6
3923.85	-57.6
3926.411	-69.6
3928.971	-74.6
3931.528	-66.6
3934.084	-63.6
3936.638	-61.6
3939.19	-70.6
3941.74	-62.6
3944.288	-66.6
3946.834	-68.6
3949.378	-66.6
3951.921	-70.6
3954.462	-65.6
3957	-58.6
3959.537	-59.6
3962.072	-57.6
3964.606	-60.6
3967.137	-60.6
3969.667	-62.6
3972.194	-61.6
3974.72	-59.6
3977.244	-57.6
3979.766	-66.6
3982.286	-65.6
3984.805	-74.6
3987.321	-64.6
3989.836	-62.6
3992.349	-64.6
3994.86	-66.6
3997.369	-60.6
3999.877	-64.6
4002.382	-63.6
4004.886	-64.6
4007.388	-65.6
4009.888	-58.6
4012.386	-67.6
4014.883	-61.6
4017.377	-57.6
4019.87	-59.6
4022.361	-63.6
4024.85	-58.6
4027.338	-68.6
4029.823	-64.6
4032.307	-65.6
4034.789	-63.6
4037.269	-66.6
4039.747	-63.6
4042.224	-68.6
4044.699	-68.6
4047.172	-69.6
4049.643	-67.6
4052.112	-64.6
4054.58	-63.6
4057.046	-62.6
4059.51	-62.6
4061.972	-65.6
4064.432	-60.6
4066.891	-58.6
4069.348	-63.6
4071.803	-54.6
4074.256	-64.6
4076.708	-61.6
4079.158	-67.6
4081.606	-65.6
4084.052	-65.6
4086.497	-61.6
4088.939	-62.6
4091.38	-64.6
4093.819	-68.6
4096.257	-70.6
4098.693	-64.6
4101.127	-61.6
4103.559	-71.6
4105.989	-8.6
4108.418	-11.6
4110.845	-11.6
4113.27	-12.6
4115.694	-5.6
4118.115	-2.6
4120.535	-62.6
4122.954	-60.6
4125.37	-66.6
4127.785	-61.6
4130.198	-59.6
4132.609	-65.6
4135.019	-64.6
4137.427	-67.6
4139.833	-62.6
4142.237	-67.6
