Data from 2018-3-7_conc=4_n=1_RamanShift_05.txt Node
Date: Wed Mar 07 11:50:52 IST 2018
User: aro
Spectrometer: QEPB0276
Trigger mode: 0
Integration Time (sec): 3.000000E1
Scans to average: 1
Electric dark correction enabled: true
Nonlinearity correction enabled: false
Boxcar width: 0
XAxis mode: Raman Shifts
Number of Pixels in Spectrum: 1044
>>>>>Begin Spectral Data<<<<<
160.701	8.8
166.742	15.8
172.777	48.8
178.805	129.8
184.826	333.8
190.841	676.8
196.849	1144.8
202.85	1507.8
208.845	1645.8
214.833	1609.8
220.815	1611.8
226.789	1609.8
232.758	1607.8
238.719	1605.8
244.674	1581.8
250.623	1585.8
256.565	1587.8
262.5	1540.8
268.429	1535.8
274.351	1541.8
280.267	1549.8
286.176	1533.8
292.079	1539.8
297.975	1537.8
303.865	1526.8
309.748	1525.8
315.625	1525.8
321.495	1529.8
327.359	1537.8
333.217	1527.8
339.068	1536.8
344.912	1532.8
350.751	1523.8
356.583	1534.8
362.408	1557.8
368.227	1564.8
374.04	1568.8
379.847	1573.8
385.647	1588.8
391.44	1584.8
397.228	1590.8
403.009	1603.8
408.784	1595.8
414.553	1627.8
420.315	1604.8
426.071	1612.8
431.821	1621.8
437.565	1609.8
443.302	1598.8
449.033	1610.8
454.758	1590.8
460.477	1557.8
466.189	1561.8
471.896	1549.8
477.596	1538.8
483.29	1560.8
488.978	1536.8
494.66	1522.8
500.335	1489.8
506.005	1455.8
511.668	1386.8
517.325	1318.8
522.977	1271.8
528.622	1260.8
534.261	1236.8
539.894	1205.8
545.521	1209.8
551.141	1183.8
556.756	1176.8
562.365	1168.8
567.968	1161.8
573.565	1156.8
579.155	1134.8
584.74	1142.8
590.319	1127.8
595.892	1150.8
601.459	1131.8
607.02	1122.8
612.575	1112.8
618.124	1103.8
623.667	1091.8
629.204	1079.8
634.735	1047.8
640.261	1054.8
645.781	1067.8
651.294	1061.8
656.802	1047.8
662.304	1051.8
667.8	1048.8
673.29	1039.8
678.775	1038.8
684.254	1036.8
689.726	1036.8
695.193	1034.8
700.655	1024.8
706.11	1004.8
711.56	1009.8
717.004	996.8
722.442	969.8
727.874	963.8
733.301	979.8
738.722	986.8
744.137	971.8
749.547	981.8
754.951	979.8
760.349	964.8
765.741	965.8
771.128	981.8
776.509	997.8
781.885	995.8
787.254	1009.8
792.618	1018.8
797.977	995.8
803.33	988.8
808.677	1012.8
814.019	978.8
819.355	969.8
824.686	968.8
830.011	949.8
835.33	946.8
840.644	950.8
845.952	953.8
851.255	946.8
856.552	938.8
861.844	935.8
867.13	922.8
872.41	927.8
877.686	927.8
882.955	906.8
888.219	889.8
893.478	891.8
898.731	873.8
903.979	859.8
909.221	864.8
914.458	850.8
919.69	847.8
924.916	851.8
930.136	844.8
935.351	855.8
940.561	854.8
945.766	853.8
950.965	857.8
956.158	836.8
961.347	836.8
966.529	819.8
971.707	807.8
976.879	790.8
982.046	799.8
987.208	807.8
992.364	788.8
997.515	794.8
1002.66	793.8
1007.801	813.8
1012.936	804.8
1018.066	805.8
1023.19	809.8
1028.309	804.8
1033.423	797.8
1038.532	808.8
1043.636	810.8
1048.734	788.8
1053.827	792.8
1058.915	781.8
1063.998	777.8
1069.075	767.8
1074.147	771.8
1079.214	775.8
1084.276	782.8
1089.333	782.8
1094.385	771.8
1099.431	776.8
1104.472	767.8
1109.509	762.8
1114.54	746.8
1119.565	758.8
1124.586	739.8
1129.602	738.8
1134.613	717.8
1139.618	714.8
1144.619	706.8
1149.614	723.8
1154.604	721.8
1159.589	715.8
1164.57	718.8
1169.545	730.8
1174.515	727.8
1179.48	719.8
1184.44	721.8
1189.395	714.8
1194.345	696.8
1199.29	694.8
1204.23	702.8
1209.165	698.8
1214.095	695.8
1219.021	702.8
1223.941	713.8
1228.856	729.8
1233.766	718.8
1238.672	724.8
1243.572	714.8
1248.467	713.8
1253.358	701.8
1258.244	691.8
1263.124	678.8
1268	670.8
1272.871	662.8
1277.737	655.8
1282.599	653.8
1287.455	640.8
1292.306	660.8
1297.153	649.8
1301.995	655.8
1306.832	664.8
1311.664	658.8
1316.491	666.8
1321.314	654.8
1326.132	651.8
1330.945	644.8
1335.753	631.8
1340.556	611.8
1345.354	607.8
1350.148	600.8
1354.937	586.8
1359.722	564.8
1364.501	561.8
1369.276	553.8
1374.046	555.8
1378.811	552.8
1383.572	533.8
1388.327	535.8
1393.079	527.8
1397.825	536.8
1402.567	546.8
1407.304	547.8
1412.036	549.8
1416.764	543.8
1421.487	540.8
1426.205	543.8
1430.919	541.8
1435.628	547.8
1440.333	560.8
1445.032	559.8
1449.727	577.8
1454.418	572.8
1459.104	549.8
1463.785	549.8
1468.462	551.8
1473.134	525.8
1477.802	517.8
1482.465	500.8
1487.123	500.8
1491.777	482.8
1496.426	489.8
1501.071	483.8
1505.711	474.8
1510.347	468.8
1514.978	469.8
1519.604	459.8
1524.226	463.8
1528.844	469.8
1533.457	451.8
1538.065	457.8
1542.669	451.8
1547.269	444.8
1551.864	459.8
1556.454	463.8
1561.041	466.8
1565.622	479.8
1570.199	464.8
1574.772	474.8
1579.34	489.8
1583.904	487.8
1588.464	491.8
1593.019	497.8
1597.569	495.8
1602.115	492.8
1606.657	499.8
1611.195	498.8
1615.728	476.8
1620.256	484.8
1624.78	497.8
1629.3	489.8
1633.816	491.8
1638.327	491.8
1642.834	492.8
1647.336	488.8
1651.834	501.8
1656.328	489.8
1660.817	480.8
1665.302	477.8
1669.783	465.8
1674.259	450.8
1678.732	439.8
1683.199	431.8
1687.663	416.8
1692.122	395.8
1696.577	380.8
1701.028	364.8
1705.474	342.8
1709.917	344.8
1714.355	328.8
1718.788	327.8
1723.218	330.8
1727.643	330.8
1732.064	332.8
1736.481	331.8
1740.893	323.8
1745.301	316.8
1749.705	315.8
1754.105	309.8
1758.501	297.8
1762.893	285.8
1767.28	284.8
1771.663	292.8
1776.042	280.8
1780.417	274.8
1784.787	275.8
1789.154	265.8
1793.516	257.8
1797.874	250.8
1802.228	252.8
1806.578	250.8
1810.924	243.8
1815.266	247.8
1819.603	248.8
1823.937	245.8
1828.266	249.8
1832.591	253.8
1836.913	249.8
1841.23	251.8
1845.543	252.8
1849.852	248.8
1854.156	267.8
1858.457	255.8
1862.754	265.8
1867.047	246.8
1871.335	248.8
1875.62	249.8
1879.9	244.8
1884.177	236.8
1888.449	239.8
1892.718	239.8
1896.982	242.8
1901.243	231.8
1905.499	228.8
1909.752	224.8
1914	224.8
1918.245	214.8
1922.485	209.8
1926.722	211.8
1930.954	203.8
1935.183	210.8
1939.408	207.8
1943.628	195.8
1947.845	200.8
1952.058	197.8
1956.267	195.8
1960.472	200.8
1964.673	194.8
1968.87	193.8
1973.063	195.8
1977.252	194.8
1981.438	195.8
1985.619	191.8
1989.797	194.8
1993.971	197.8
1998.14	198.8
2002.306	193.8
2006.469	201.8
2010.627	191.8
2014.781	191.8
2018.932	183.8
2023.078	197.8
2027.221	194.8
2031.36	189.8
2035.495	185.8
2039.627	181.8
2043.754	183.8
2047.878	176.8
2051.998	184.8
2056.114	172.8
2060.226	176.8
2064.334	169.8
2068.439	167.8
2072.54	165.8
2076.637	171.8
2080.73	168.8
2084.82	168.8
2088.906	173.8
2092.988	163.8
2097.066	153.8
2101.14	163.8
2105.211	160.8
2109.278	161.8
2113.342	154.8
2117.401	152.8
2121.457	154.8
2125.509	156.8
2129.558	141.8
2133.602	154.8
2137.643	151.8
2141.681	142.8
2145.714	149.8
2149.744	155.8
2153.77	148.8
2157.793	149.8
2161.812	157.8
2165.827	152.8
2169.838	144.8
2173.846	149.8
2177.851	139.8
2181.851	140.8
2185.848	136.8
2189.841	137.8
2193.831	136.8
2197.817	131.8
2201.799	134.8
2205.778	134.8
2209.753	140.8
2213.725	134.8
2217.693	132.8
2221.657	128.8
2225.618	129.8
2229.575	135.8
2233.529	128.8
2237.479	131.8
2241.425	128.8
2245.368	125.8
2249.307	127.8
2253.243	117.8
2257.175	115.8
2261.104	118.8
2265.029	113.8
2268.95	119.8
2272.868	115.8
2276.783	108.8
2280.694	112.8
2284.601	104.8
2288.505	114.8
2292.405	102.8
2296.302	109.8
2300.195	108.8
2304.085	99.8
2307.971	95.8
2311.854	98.8
2315.734	98.8
2319.609	100.8
2323.482	96.8
2327.351	94.8
2331.216	108.8
2335.078	127.8
2338.937	111.8
2342.792	103.8
2346.643	99.8
2350.492	105.8
2354.336	102.8
2358.178	94.8
2362.015	98.8
2365.85	90.8
2369.681	105.8
2373.508	101.8
2377.333	98.8
2381.153	102.8
2384.971	91.8
2388.785	86.8
2392.595	89.8
2396.402	103.8
2400.206	97.8
2404.007	91.8
2407.804	92.8
2411.597	94.8
2415.388	92.8
2419.174	95.8
2422.958	94.8
2426.738	90.8
2430.515	85.8
2434.289	88.8
2438.059	88.8
2441.825	78.8
2445.589	87.8
2449.349	80.8
2453.106	80.8
2456.859	73.8
2460.61	82.8
2464.356	85.8
2468.1	80.8
2471.84	80.8
2475.577	76.8
2479.311	77.8
2483.041	80.8
2486.768	72.8
2490.492	78.8
2494.213	67.8
2497.93	73.8
2501.644	74.8
2505.355	68.8
2509.062	68.8
2512.766	67.8
2516.467	65.8
2520.165	66.8
2523.859	70.8
2527.551	64.8
2531.239	61.8
2534.923	60.8
2538.605	64.8
2542.283	62.8
2545.958	61.8
2549.63	57.8
2553.299	57.8
2556.964	53.8
2560.626	60.8
2564.285	57.8
2567.941	53.8
2571.594	48.8
2575.243	56.8
2578.89	51.8
2582.533	56.8
2586.173	55.8
2589.809	54.8
2593.443	58.8
2597.073	48.8
2600.701	58.8
2604.325	47.8
2607.946	40.8
2611.564	47.8
2615.178	45.8
2618.79	48.8
2622.398	49.8
2626.004	43.8
2629.606	38.8
2633.205	37.8
2636.801	36.8
2640.394	47.8
2643.983	44.8
2647.57	39.8
2651.153	35.8
2654.734	42.8
2658.311	38.8
2661.885	43.8
2665.456	49.8
2669.025	39.8
2672.589	32.8
2676.151	37.8
2679.71	29.8
2683.266	34.8
2686.819	39.8
2690.368	30.8
2693.915	35.8
2697.458	23.8
2700.999	35.8
2704.536	33.8
2708.071	29.8
2711.602	28.8
2715.13	20.8
2718.656	27.8
2722.178	22.8
2725.697	23.8
2729.214	23.8
2732.727	31.8
2736.237	29.8
2739.744	25.8
2743.249	26.8
2746.75	23.8
2750.248	19.8
2753.743	19.8
2757.236	16.8
2760.725	22.8
2764.211	12.8
2767.695	16.8
2771.175	19.8
2774.652	21.8
2778.127	18.8
2781.598	15.8
2785.067	18.8
2788.532	19.8
2791.995	22.8
2795.455	15.8
2798.911	12.8
2802.365	23.8
2805.816	15.8
2809.264	19.8
2812.709	12.8
2816.151	15.8
2819.59	24.8
2823.026	19.8
2826.46	13.8
2829.89	16.8
2833.318	15.8
2836.742	23.8
2840.164	15.8
2843.583	17.8
2846.999	20.8
2850.412	18.8
2853.822	18.8
2857.229	25.8
2860.634	16.8
2864.035	16.8
2867.434	19.8
2870.83	28.8
2874.223	22.8
2877.613	22.8
2881	28.8
2884.385	26.8
2887.766	30.8
2891.145	28.8
2894.521	33.8
2897.894	27.8
2901.264	31.8
2904.631	17.8
2907.996	29.8
2911.358	35.8
2914.717	29.8
2918.073	28.8
2921.426	27.8
2924.777	37.8
2928.124	37.8
2931.469	38.8
2934.811	39.8
2938.15	36.8
2941.487	47.8
2944.821	38.8
2948.152	45.8
2951.48	39.8
2954.805	35.8
2958.128	38.8
2961.447	41.8
2964.765	31.8
2968.079	34.8
2971.39	40.8
2974.699	30.8
2978.005	41.8
2981.308	34.8
2984.609	35.8
2987.907	35.8
2991.202	30.8
2994.494	31.8
2997.784	28.8
3001.07	36.8
3004.355	34.8
3007.636	38.8
3010.915	42.8
3014.191	34.8
3017.464	41.8
3020.734	39.8
3024.002	40.8
3027.267	46.8
3030.53	44.8
3033.789	42.8
3037.046	44.8
3040.301	40.8
3043.552	48.8
3046.801	51.8
3050.048	54.8
3053.291	52.8
3056.532	54.8
3059.771	59.8
3063.006	60.8
3066.239	67.8
3069.469	72.8
3072.697	73.8
3075.922	81.8
3079.144	70.8
3082.364	78.8
3085.581	76.8
3088.795	84.8
3092.007	85.8
3095.216	84.8
3098.423	86.8
3101.627	79.8
3104.828	93.8
3108.026	88.8
3111.222	93.8
3114.416	101.8
3117.607	99.8
3120.795	103.8
3123.98	103.8
3127.163	109.8
3130.344	112.8
3133.521	120.8
3136.696	112.8
3139.869	122.8
3143.039	118.8
3146.206	123.8
3149.371	116.8
3152.533	130.8
3155.693	129.8
3158.85	129.8
3162.005	130.8
3165.157	137.8
3168.306	132.8
3171.453	129.8
3174.597	133.8
3177.739	139.8
3180.878	129.8
3184.014	135.8
3187.149	128.8
3190.28	130.8
3193.409	141.8
3196.536	128.8
3199.659	140.8
3202.781	135.8
3205.9	127.8
3209.016	126.8
3212.13	137.8
3215.241	141.8
3218.35	136.8
3221.456	134.8
3224.56	128.8
3227.661	122.8
3230.76	126.8
3233.856	125.8
3236.95	120.8
3240.041	113.8
3243.13	120.8
3246.216	109.8
3249.3	100.8
3252.382	112.8
3255.46	110.8
3258.537	107.8
3261.611	102.8
3264.682	106.8
3267.751	111.8
3270.818	96.8
3273.882	101.8
3276.943	107.8
3280.002	109.8
3283.059	101.8
3286.113	91.8
3289.165	90.8
3292.214	92.8
3295.261	92.8
3298.306	98.8
3301.348	93.8
3304.387	88.8
3307.425	93.8
3310.459	84.8
3313.492	94.8
3316.521	87.8
3319.549	96.8
3322.574	81.8
3325.597	90.8
3328.617	84.8
3331.635	93.8
3334.65	97.8
3337.663	78.8
3340.674	82.8
3343.682	85.8
3346.688	87.8
3349.691	87.8
3352.692	80.8
3355.691	93.8
3358.687	83.8
3361.681	84.8
3364.673	88.8
3367.662	89.8
3370.649	87.8
3373.633	78.8
3376.615	78.8
3379.595	79.8
3382.572	67.8
3385.547	82.8
3388.52	69.8
3391.49	66.8
3394.458	59.8
3397.424	68.8
3400.387	59.8
3403.348	58.8
3406.307	59.8
3409.263	64.8
3412.217	63.8
3415.168	66.8
3418.118	59.8
3421.065	52.8
3424.009	61.8
3426.951	50.8
3429.891	50.8
3432.829	52.8
3435.764	53.8
3438.697	48.8
3441.628	38.8
3444.557	37.8
3447.483	37.8
3450.407	28.8
3453.328	38.8
3456.247	30.8
3459.164	29.8
3462.079	25.8
3464.991	26.8
3467.902	28.8
3470.809	20.8
3473.715	25.8
3476.618	23.8
3479.519	15.8
3482.418	6.8
3485.315	15.8
3488.209	5.8
3491.101	7.8
3493.99	7.8
3496.878	4.8
3499.763	1.8
3502.646	3.8
3505.527	5.8
3508.405	5.8
3511.281	-0.2
3514.155	-1.2
3517.027	-8.2
3519.897	-1.2
3522.764	-7.2
3525.629	-6.2
3528.492	-11.2
3531.352	-15.2
3534.211	-16.2
3537.067	-15.2
3539.921	-14.2
3542.773	-13.2
3545.622	-18.2
3548.469	-17.2
3551.315	-16.2
3554.157	-13.2
3556.998	-18.2
3559.837	-21.2
3562.673	-22.2
3565.507	-23.2
3568.339	-19.2
3571.169	-21.2
3573.996	-20.2
3576.822	-26.2
3579.645	-29.2
3582.466	-27.2
3585.285	-28.2
3588.101	-27.2
3590.916	-25.2
3593.728	-34.2
3596.538	-37.2
3599.346	-34.2
3602.152	-34.2
3604.956	-31.2
3607.757	-24.2
3610.556	-27.2
3613.354	-34.2
3616.149	-37.2
3618.942	-34.2
3621.732	-32.2
3624.521	-27.2
3627.307	-30.2
3630.092	-34.2
3632.874	-36.2
3635.654	-37.2
3638.432	-34.2
3641.208	-39.2
3643.982	-36.2
3646.753	-38.2
3649.523	-38.2
3652.29	-42.2
3655.055	-37.2
3657.818	-42.2
3660.579	-42.2
3663.338	-40.2
3666.095	-37.2
3668.849	-42.2
3671.602	-41.2
3674.352	-38.2
3677.101	-40.2
3679.847	-40.2
3682.591	-44.2
3685.333	-43.2
3688.073	-47.2
3690.811	-41.2
3693.547	-41.2
3696.281	-43.2
3699.013	-47.2
3701.742	-46.2
3704.47	-46.2
3707.195	-41.2
3709.919	-43.2
3712.64	-46.2
3715.359	-45.2
3718.076	-43.2
3720.792	-44.2
3723.505	-47.2
3726.216	-47.2
3728.925	-50.2
3731.632	-42.2
3734.336	-50.2
3737.039	-48.2
3739.74	-46.2
3742.439	-52.2
3745.136	-50.2
3747.83	-46.2
3750.523	-48.2
3753.213	-56.2
3755.902	-46.2
3758.589	-42.2
3761.273	-46.2
3763.956	-48.2
3766.636	-45.2
3769.315	-42.2
3771.991	-48.2
3774.665	-52.2
3777.338	-52.2
3780.008	-45.2
3782.677	-51.2
3785.343	-50.2
3788.007	-52.2
3790.67	-51.2
3793.33	-49.2
3795.989	-46.2
3798.645	-52.2
3801.299	-48.2
3803.952	-44.2
3806.602	-49.2
3809.251	-47.2
3811.897	-53.2
3814.542	-58.2
3817.184	-49.2
3819.825	-46.2
3822.463	-50.2
3825.1	-47.2
3827.735	-49.2
3830.367	-54.2
3832.998	-53.2
3835.627	-50.2
3838.253	-47.2
3840.878	-48.2
3843.501	-44.2
3846.122	-49.2
3848.741	-54.2
3851.358	-50.2
3853.973	-45.2
3856.586	-45.2
3859.197	-50.2
3861.806	-48.2
3864.414	-51.2
3867.019	-52.2
3869.622	-44.2
3872.224	-41.2
3874.823	-32.2
3877.421	-26.2
3880.016	-18.2
3882.61	-5.2
3885.202	-3.2
3887.792	-8.2
3890.38	-22.2
3892.966	-36.2
3895.55	-44.2
3898.132	-45.2
3900.713	-51.2
3903.291	-52.2
3905.868	-46.2
3908.442	-44.2
3911.015	-47.2
3913.586	-52.2
3916.155	-53.2
3918.722	-55.2
3921.287	-53.2
3923.85	-47.2
3926.411	-59.2
3928.971	-59.2
3931.528	-56.2
3934.084	-47.2
3936.638	-48.2
3939.19	-56.2
3941.74	-48.2
3944.288	-49.2
3946.834	-51.2
3949.378	-49.2
3951.921	-55.2
3954.462	-55.2
3957	-42.2
3959.537	-36.2
3962.072	-47.2
3964.606	-53.2
3967.137	-53.2
3969.667	-51.2
3972.194	-50.2
3974.72	-47.2
3977.244	-46.2
3979.766	-47.2
3982.286	-53.2
3984.805	-58.2
3987.321	-48.2
3989.836	-48.2
3992.349	-43.2
3994.86	-52.2
3997.369	-49.2
3999.877	-48.2
4002.382	-52.2
4004.886	-47.2
4007.388	-50.2
4009.888	-52.2
4012.386	-53.2
4014.883	-49.2
4017.377	-50.2
4019.87	-49.2
4022.361	-53.2
4024.85	-48.2
4027.338	-51.2
4029.823	-52.2
4032.307	-51.2
4034.789	-50.2
4037.269	-48.2
4039.747	-49.2
4042.224	-48.2
4044.699	-49.2
4047.172	-54.2
4049.643	-50.2
4052.112	-49.2
4054.58	-49.2
4057.046	-50.2
4059.51	-56.2
4061.972	-51.2
4064.432	-49.2
4066.891	-47.2
4069.348	-48.2
4071.803	-40.2
4074.256	-47.2
4076.708	-45.2
4079.158	-56.2
4081.606	-48.2
4084.052	-55.2
4086.497	-46.2
4088.939	-48.2
4091.38	-53.2
4093.819	-54.2
4096.257	-49.2
4098.693	-49.2
4101.127	-45.2
4103.559	-52.2
4105.989	19.8
4108.418	17.8
4110.845	12.8
4113.27	8.8
4115.694	18.8
4118.115	8.8
4120.535	-53.2
4122.954	-51.2
4125.37	-49.2
4127.785	-52.2
4130.198	-52.2
4132.609	-53.2
4135.019	-48.2
4137.427	-53.2
4139.833	-50.2
4142.237	-51.2
