Data from 2018-3-7_conc=0_n=9_RamanShift_02.txt Node
Date: Wed Mar 07 10:33:22 IST 2018
User: aro
Spectrometer: QEPB0276
Trigger mode: 0
Integration Time (sec): 3.000000E1
Scans to average: 1
Electric dark correction enabled: true
Nonlinearity correction enabled: false
Boxcar width: 0
XAxis mode: Raman Shifts
Number of Pixels in Spectrum: 1044
>>>>>Begin Spectral Data<<<<<
160.701	16.9
166.742	20.9
172.777	54.9
178.805	161.9
184.826	393.9
190.841	811.9
196.849	1334.9
202.85	1745.9
208.845	1902.9
214.833	1906.9
220.815	1881.9
226.789	1870.9
232.758	1903.9
238.719	1901.9
244.674	1899.9
250.623	1911.9
256.565	1895.9
262.5	1870.9
268.429	1858.9
274.351	1856.9
280.267	1839.9
286.176	1856.9
292.079	1863.9
297.975	1861.9
303.865	1857.9
309.748	1859.9
315.625	1858.9
321.495	1869.9
327.359	1866.9
333.217	1869.9
339.068	1881.9
344.912	1900.9
350.751	1895.9
356.583	1903.9
362.408	1909.9
368.227	1906.9
374.04	1921.9
379.847	1933.9
385.647	1940.9
391.44	1961.9
397.228	1969.9
403.009	1984.9
408.784	1992.9
414.553	1993.9
420.315	2015.9
426.071	2007.9
431.821	2013.9
437.565	2024.9
443.302	1997.9
449.033	2002.9
454.758	1982.9
460.477	1985.9
466.189	1959.9
471.896	1941.9
477.596	1911.9
483.29	1927.9
488.978	1916.9
494.66	1902.9
500.335	1860.9
506.005	1768.9
511.668	1685.9
517.325	1608.9
522.977	1530.9
528.622	1490.9
534.261	1453.9
539.894	1424.9
545.521	1410.9
551.141	1394.9
556.756	1378.9
562.365	1358.9
567.968	1336.9
573.565	1339.9
579.155	1318.9
584.74	1328.9
590.319	1319.9
595.892	1337.9
601.459	1311.9
607.02	1317.9
612.575	1306.9
618.124	1288.9
623.667	1262.9
629.204	1244.9
634.735	1238.9
640.261	1234.9
645.781	1227.9
651.294	1214.9
656.802	1220.9
662.304	1215.9
667.8	1202.9
673.29	1185.9
678.775	1200.9
684.254	1203.9
689.726	1191.9
695.193	1181.9
700.655	1177.9
706.11	1170.9
711.56	1150.9
717.004	1150.9
722.442	1131.9
727.874	1131.9
733.301	1131.9
738.722	1126.9
744.137	1124.9
749.547	1134.9
754.951	1114.9
760.349	1119.9
765.741	1127.9
771.128	1120.9
776.509	1159.9
781.885	1167.9
787.254	1166.9
792.618	1178.9
797.977	1163.9
803.33	1152.9
808.677	1172.9
814.019	1146.9
819.355	1128.9
824.686	1119.9
830.011	1120.9
835.33	1113.9
840.644	1104.9
845.952	1106.9
851.255	1087.9
856.552	1104.9
861.844	1083.9
867.13	1064.9
872.41	1082.9
877.686	1107.9
882.955	1116.9
888.219	1111.9
893.478	1073.9
898.731	1025.9
903.979	996.9
909.221	995.9
914.458	976.9
919.69	978.9
924.916	982.9
930.136	980.9
935.351	980.9
940.561	988.9
945.766	982.9
950.965	972.9
956.158	965.9
961.347	949.9
966.529	923.9
971.707	916.9
976.879	920.9
982.046	908.9
987.208	902.9
992.364	895.9
997.515	910.9
1002.66	909.9
1007.801	925.9
1012.936	928.9
1018.066	939.9
1023.19	929.9
1028.309	941.9
1033.423	931.9
1038.532	931.9
1043.636	964.9
1048.734	944.9
1053.827	926.9
1058.915	921.9
1063.998	911.9
1069.075	907.9
1074.147	899.9
1079.214	896.9
1084.276	921.9
1089.333	931.9
1094.385	916.9
1099.431	910.9
1104.472	901.9
1109.509	886.9
1114.54	867.9
1119.565	864.9
1124.586	847.9
1129.602	834.9
1134.613	850.9
1139.618	827.9
1144.619	815.9
1149.614	823.9
1154.604	818.9
1159.589	832.9
1164.57	822.9
1169.545	824.9
1174.515	842.9
1179.48	821.9
1184.44	824.9
1189.395	821.9
1194.345	818.9
1199.29	801.9
1204.23	807.9
1209.165	802.9
1214.095	797.9
1219.021	805.9
1223.941	821.9
1228.856	807.9
1233.766	815.9
1238.672	833.9
1243.572	821.9
1248.467	811.9
1253.358	800.9
1258.244	794.9
1263.124	777.9
1268	762.9
1272.871	754.9
1277.737	750.9
1282.599	750.9
1287.455	745.9
1292.306	753.9
1297.153	742.9
1301.995	757.9
1306.832	750.9
1311.664	759.9
1316.491	763.9
1321.314	757.9
1326.132	747.9
1330.945	731.9
1335.753	728.9
1340.556	705.9
1345.354	687.9
1350.148	673.9
1354.937	662.9
1359.722	649.9
1364.501	634.9
1369.276	629.9
1374.046	627.9
1378.811	613.9
1383.572	611.9
1388.327	618.9
1393.079	616.9
1397.825	621.9
1402.567	626.9
1407.304	625.9
1412.036	637.9
1416.764	627.9
1421.487	648.9
1426.205	636.9
1430.919	630.9
1435.628	634.9
1440.333	661.9
1445.032	649.9
1449.727	664.9
1454.418	667.9
1459.104	660.9
1463.785	649.9
1468.462	638.9
1473.134	616.9
1477.802	589.9
1482.465	576.9
1487.123	557.9
1491.777	547.9
1496.426	537.9
1501.071	533.9
1505.711	524.9
1510.347	525.9
1514.978	517.9
1519.604	522.9
1524.226	531.9
1528.844	509.9
1533.457	512.9
1538.065	511.9
1542.669	508.9
1547.269	505.9
1551.864	526.9
1556.454	542.9
1561.041	543.9
1565.622	555.9
1570.199	541.9
1574.772	536.9
1579.34	548.9
1583.904	553.9
1588.464	563.9
1593.019	551.9
1597.569	565.9
1602.115	547.9
1606.657	554.9
1611.195	539.9
1615.728	557.9
1620.256	537.9
1624.78	553.9
1629.3	533.9
1633.816	542.9
1638.327	544.9
1642.834	545.9
1647.336	540.9
1651.834	533.9
1656.328	535.9
1660.817	530.9
1665.302	520.9
1669.783	507.9
1674.259	503.9
1678.732	495.9
1683.199	471.9
1687.663	456.9
1692.122	438.9
1696.577	419.9
1701.028	397.9
1705.474	375.9
1709.917	367.9
1714.355	371.9
1718.788	361.9
1723.218	372.9
1727.643	370.9
1732.064	368.9
1736.481	362.9
1740.893	354.9
1745.301	342.9
1749.705	347.9
1754.105	328.9
1758.501	324.9
1762.893	323.9
1767.28	303.9
1771.663	315.9
1776.042	298.9
1780.417	299.9
1784.787	290.9
1789.154	277.9
1793.516	273.9
1797.874	263.9
1802.228	273.9
1806.578	273.9
1810.924	265.9
1815.266	268.9
1819.603	265.9
1823.937	277.9
1828.266	271.9
1832.591	280.9
1836.913	267.9
1841.23	270.9
1845.543	277.9
1849.852	275.9
1854.156	279.9
1858.457	273.9
1862.754	278.9
1867.047	275.9
1871.335	273.9
1875.62	274.9
1879.9	274.9
1884.177	263.9
1888.449	267.9
1892.718	262.9
1896.982	252.9
1901.243	246.9
1905.499	239.9
1909.752	237.9
1914	231.9
1918.245	224.9
1922.485	219.9
1926.722	212.9
1930.954	222.9
1935.183	215.9
1939.408	217.9
1943.628	218.9
1947.845	223.9
1952.058	208.9
1956.267	211.9
1960.472	211.9
1964.673	200.9
1968.87	196.9
1973.063	210.9
1977.252	208.9
1981.438	211.9
1985.619	206.9
1989.797	206.9
1993.971	205.9
1998.14	211.9
2002.306	217.9
2006.469	210.9
2010.627	204.9
2014.781	205.9
2018.932	203.9
2023.078	215.9
2027.221	214.9
2031.36	208.9
2035.495	206.9
2039.627	190.9
2043.754	191.9
2047.878	183.9
2051.998	193.9
2056.114	190.9
2060.226	181.9
2064.334	179.9
2068.439	181.9
2072.54	176.9
2076.637	187.9
2080.73	180.9
2084.82	181.9
2088.906	171.9
2092.988	174.9
2097.066	167.9
2101.14	172.9
2105.211	173.9
2109.278	162.9
2113.342	162.9
2117.401	161.9
2121.457	154.9
2125.509	161.9
2129.558	161.9
2133.602	147.9
2137.643	163.9
2141.681	166.9
2145.714	160.9
2149.744	159.9
2153.77	161.9
2157.793	165.9
2161.812	158.9
2165.827	162.9
2169.838	150.9
2173.846	162.9
2177.851	153.9
2181.851	153.9
2185.848	148.9
2189.841	147.9
2193.831	147.9
2197.817	147.9
2201.799	148.9
2205.778	145.9
2209.753	147.9
2213.725	144.9
2217.693	148.9
2221.657	149.9
2225.618	142.9
2229.575	143.9
2233.529	138.9
2237.479	140.9
2241.425	127.9
2245.368	139.9
2249.307	140.9
2253.243	131.9
2257.175	130.9
2261.104	122.9
2265.029	128.9
2268.95	138.9
2272.868	127.9
2276.783	114.9
2280.694	112.9
2284.601	116.9
2288.505	119.9
2292.405	125.9
2296.302	121.9
2300.195	118.9
2304.085	112.9
2307.971	115.9
2311.854	110.9
2315.734	106.9
2319.609	113.9
2323.482	106.9
2327.351	116.9
2331.216	125.9
2335.078	142.9
2338.937	127.9
2342.792	119.9
2346.643	115.9
2350.492	113.9
2354.336	110.9
2358.178	110.9
2362.015	115.9
2365.85	103.9
2369.681	115.9
2373.508	120.9
2377.333	109.9
2381.153	111.9
2384.971	111.9
2388.785	107.9
2392.595	110.9
2396.402	110.9
2400.206	105.9
2404.007	110.9
2407.804	105.9
2411.597	99.9
2415.388	99.9
2419.174	109.9
2422.958	106.9
2426.738	105.9
2430.515	110.9
2434.289	108.9
2438.059	98.9
2441.825	91.9
2445.589	98.9
2449.349	104.9
2453.106	97.9
2456.859	94.9
2460.61	92.9
2464.356	94.9
2468.1	85.9
2471.84	92.9
2475.577	79.9
2479.311	89.9
2483.041	80.9
2486.768	84.9
2490.492	87.9
2494.213	77.9
2497.93	84.9
2501.644	83.9
2505.355	79.9
2509.062	76.9
2512.766	76.9
2516.467	76.9
2520.165	71.9
2523.859	77.9
2527.551	67.9
2531.239	69.9
2534.923	70.9
2538.605	63.9
2542.283	57.9
2545.958	63.9
2549.63	61.9
2553.299	55.9
2556.964	56.9
2560.626	54.9
2564.285	67.9
2567.941	56.9
2571.594	53.9
2575.243	60.9
2578.89	53.9
2582.533	55.9
2586.173	58.9
2589.809	61.9
2593.443	55.9
2597.073	54.9
2600.701	57.9
2604.325	44.9
2607.946	48.9
2611.564	54.9
2615.178	57.9
2618.79	53.9
2622.398	55.9
2626.004	48.9
2629.606	40.9
2633.205	51.9
2636.801	46.9
2640.394	50.9
2643.983	45.9
2647.57	49.9
2651.153	47.9
2654.734	39.9
2658.311	47.9
2661.885	49.9
2665.456	51.9
2669.025	48.9
2672.589	38.9
2676.151	47.9
2679.71	37.9
2683.266	42.9
2686.819	47.9
2690.368	34.9
2693.915	38.9
2697.458	34.9
2700.999	35.9
2704.536	40.9
2708.071	39.9
2711.602	30.9
2715.13	31.9
2718.656	33.9
2722.178	24.9
2725.697	31.9
2729.214	27.9
2732.727	39.9
2736.237	34.9
2739.744	21.9
2743.249	27.9
2746.75	24.9
2750.248	26.9
2753.743	24.9
2757.236	19.9
2760.725	22.9
2764.211	20.9
2767.695	15.9
2771.175	13.9
2774.652	17.9
2778.127	21.9
2781.598	15.9
2785.067	17.9
2788.532	16.9
2791.995	25.9
2795.455	15.9
2798.911	23.9
2802.365	21.9
2805.816	19.9
2809.264	16.9
2812.709	13.9
2816.151	24.9
2819.59	34.9
2823.026	22.9
2826.46	23.9
2829.89	19.9
2833.318	18.9
2836.742	30.9
2840.164	22.9
2843.583	17.9
2846.999	28.9
2850.412	21.9
2853.822	24.9
2857.229	34.9
2860.634	27.9
2864.035	33.9
2867.434	31.9
2870.83	38.9
2874.223	37.9
2877.613	36.9
2881	40.9
2884.385	45.9
2887.766	50.9
2891.145	48.9
2894.521	54.9
2897.894	46.9
2901.264	48.9
2904.631	46.9
2907.996	47.9
2911.358	47.9
2914.717	43.9
2918.073	43.9
2921.426	49.9
2924.777	56.9
2928.124	54.9
2931.469	63.9
2934.811	77.9
2938.15	80.9
2941.487	78.9
2944.821	71.9
2948.152	71.9
2951.48	70.9
2954.805	69.9
2958.128	52.9
2961.447	57.9
2964.765	47.9
2968.079	48.9
2971.39	46.9
2974.699	41.9
2978.005	54.9
2981.308	46.9
2984.609	48.9
2987.907	46.9
2991.202	48.9
2994.494	45.9
2997.784	40.9
3001.07	47.9
3004.355	42.9
3007.636	42.9
3010.915	48.9
3014.191	36.9
3017.464	42.9
3020.734	48.9
3024.002	46.9
3027.267	48.9
3030.53	52.9
3033.789	49.9
3037.046	50.9
3040.301	43.9
3043.552	52.9
3046.801	57.9
3050.048	54.9
3053.291	58.9
3056.532	67.9
3059.771	64.9
3063.006	61.9
3066.239	65.9
3069.469	76.9
3072.697	69.9
3075.922	78.9
3079.144	70.9
3082.364	77.9
3085.581	87.9
3088.795	92.9
3092.007	90.9
3095.216	98.9
3098.423	90.9
3101.627	88.9
3104.828	99.9
3108.026	98.9
3111.222	99.9
3114.416	110.9
3117.607	111.9
3120.795	111.9
3123.98	102.9
3127.163	123.9
3130.344	113.9
3133.521	114.9
3136.696	122.9
3139.869	133.9
3143.039	121.9
3146.206	129.9
3149.371	130.9
3152.533	134.9
3155.693	138.9
3158.85	138.9
3162.005	130.9
3165.157	132.9
3168.306	143.9
3171.453	135.9
3174.597	130.9
3177.739	138.9
3180.878	139.9
3184.014	130.9
3187.149	135.9
3190.28	136.9
3193.409	136.9
3196.536	128.9
3199.659	144.9
3202.781	139.9
3205.9	133.9
3209.016	130.9
3212.13	140.9
3215.241	137.9
3218.35	128.9
3221.456	134.9
3224.56	128.9
3227.661	121.9
3230.76	120.9
3233.856	119.9
3236.95	117.9
3240.041	116.9
3243.13	108.9
3246.216	109.9
3249.3	108.9
3252.382	102.9
3255.46	114.9
3258.537	100.9
3261.611	103.9
3264.682	99.9
3267.751	105.9
3270.818	89.9
3273.882	95.9
3276.943	89.9
3280.002	98.9
3283.059	93.9
3286.113	91.9
3289.165	97.9
3292.214	93.9
3295.261	96.9
3298.306	91.9
3301.348	88.9
3304.387	93.9
3307.425	88.9
3310.459	86.9
3313.492	88.9
3316.521	85.9
3319.549	90.9
3322.574	88.9
3325.597	84.9
3328.617	87.9
3331.635	94.9
3334.65	93.9
3337.663	79.9
3340.674	83.9
3343.682	84.9
3346.688	83.9
3349.691	90.9
3352.692	89.9
3355.691	89.9
3358.687	81.9
3361.681	77.9
3364.673	83.9
3367.662	76.9
3370.649	85.9
3373.633	75.9
3376.615	78.9
3379.595	75.9
3382.572	68.9
3385.547	79.9
3388.52	71.9
3391.49	65.9
3394.458	66.9
3397.424	70.9
3400.387	68.9
3403.348	59.9
3406.307	57.9
3409.263	62.9
3412.217	56.9
3415.168	62.9
3418.118	51.9
3421.065	53.9
3424.009	49.9
3426.951	52.9
3429.891	51.9
3432.829	49.9
3435.764	48.9
3438.697	51.9
3441.628	34.9
3444.557	34.9
3447.483	31.9
3450.407	30.9
3453.328	39.9
3456.247	27.9
3459.164	24.9
3462.079	16.9
3464.991	28.9
3467.902	19.9
3470.809	22.9
3473.715	18.9
3476.618	12.9
3479.519	5.9
3482.418	5.9
3485.315	6.9
3488.209	-0.1
3491.101	0.9
3493.99	7.9
3496.878	6.9
3499.763	-6.1
3502.646	-3.1
3505.527	-0.1
3508.405	-6.1
3511.281	-11.1
3514.155	-6.1
3517.027	-13.1
3519.897	-7.1
3522.764	-12.1
3525.629	-16.1
3528.492	-17.1
3531.352	-27.1
3534.211	-22.1
3537.067	-22.1
3539.921	-18.1
3542.773	-30.1
3545.622	-27.1
3548.469	-23.1
3551.315	-23.1
3554.157	-23.1
3556.998	-25.1
3559.837	-31.1
3562.673	-30.1
3565.507	-29.1
3568.339	-33.1
3571.169	-33.1
3573.996	-27.1
3576.822	-31.1
3579.645	-36.1
3582.466	-29.1
3585.285	-36.1
3588.101	-40.1
3590.916	-36.1
3593.728	-40.1
3596.538	-40.1
3599.346	-42.1
3602.152	-41.1
3604.956	-36.1
3607.757	-34.1
3610.556	-42.1
3613.354	-43.1
3616.149	-44.1
3618.942	-43.1
3621.732	-42.1
3624.521	-42.1
3627.307	-44.1
3630.092	-43.1
3632.874	-49.1
3635.654	-44.1
3638.432	-43.1
3641.208	-47.1
3643.982	-43.1
3646.753	-51.1
3649.523	-44.1
3652.29	-50.1
3655.055	-43.1
3657.818	-50.1
3660.579	-50.1
3663.338	-43.1
3666.095	-50.1
3668.849	-57.1
3671.602	-51.1
3674.352	-45.1
3677.101	-51.1
3679.847	-45.1
3682.591	-55.1
3685.333	-50.1
3688.073	-56.1
3690.811	-51.1
3693.547	-53.1
3696.281	-48.1
3699.013	-52.1
3701.742	-54.1
3704.47	-53.1
3707.195	-54.1
3709.919	-53.1
3712.64	-52.1
3715.359	-58.1
3718.076	-55.1
3720.792	-52.1
3723.505	-57.1
3726.216	-48.1
3728.925	-55.1
3731.632	-54.1
3734.336	-55.1
3737.039	-52.1
3739.74	-56.1
3742.439	-61.1
3745.136	-58.1
3747.83	-54.1
3750.523	-59.1
3753.213	-56.1
3755.902	-58.1
3758.589	-55.1
3761.273	-50.1
3763.956	-63.1
3766.636	-49.1
3769.315	-51.1
3771.991	-57.1
3774.665	-61.1
3777.338	-54.1
3780.008	-58.1
3782.677	-65.1
3785.343	-58.1
3788.007	-60.1
3790.67	-60.1
3793.33	-53.1
3795.989	-62.1
3798.645	-59.1
3801.299	-55.1
3803.952	-57.1
3806.602	-52.1
3809.251	-58.1
3811.897	-60.1
3814.542	-62.1
3817.184	-61.1
3819.825	-50.1
3822.463	-51.1
3825.1	-54.1
3827.735	-64.1
3830.367	-58.1
3832.998	-59.1
3835.627	-57.1
3838.253	-54.1
3840.878	-56.1
3843.501	-58.1
3846.122	-58.1
3848.741	-55.1
3851.358	-57.1
3853.973	-54.1
3856.586	-58.1
3859.197	-55.1
3861.806	-59.1
3864.414	-57.1
3867.019	-54.1
3869.622	-52.1
3872.224	-45.1
3874.823	-34.1
3877.421	-31.1
3880.016	-12.1
3882.61	4.9
3885.202	7.9
3887.792	0.9
3890.38	-24.1
3892.966	-46.1
3895.55	-48.1
3898.132	-56.1
3900.713	-56.1
3903.291	-59.1
3905.868	-52.1
3908.442	-57.1
3911.015	-59.1
3913.586	-58.1
3916.155	-54.1
3918.722	-58.1
3921.287	-65.1
3923.85	-52.1
3926.411	-61.1
3928.971	-63.1
3931.528	-54.1
3934.084	-55.1
3936.638	-55.1
3939.19	-65.1
3941.74	-59.1
3944.288	-58.1
3946.834	-63.1
3949.378	-61.1
3951.921	-62.1
3954.462	-60.1
3957	-47.1
3959.537	-48.1
3962.072	-53.1
3964.606	-53.1
3967.137	-57.1
3969.667	-62.1
3972.194	-58.1
3974.72	-58.1
3977.244	-56.1
3979.766	-60.1
3982.286	-63.1
3984.805	-62.1
3987.321	-55.1
3989.836	-52.1
3992.349	-58.1
3994.86	-57.1
3997.369	-63.1
3999.877	-65.1
4002.382	-54.1
4004.886	-54.1
4007.388	-61.1
4009.888	-53.1
4012.386	-62.1
4014.883	-55.1
4017.377	-55.1
4019.87	-55.1
4022.361	-64.1
4024.85	-58.1
4027.338	-58.1
4029.823	-56.1
4032.307	-60.1
4034.789	-56.1
4037.269	-56.1
4039.747	-55.1
4042.224	-59.1
4044.699	-61.1
4047.172	-64.1
4049.643	-62.1
4052.112	-62.1
4054.58	-58.1
4057.046	-56.1
4059.51	-60.1
4061.972	-60.1
4064.432	-57.1
4066.891	-57.1
4069.348	-56.1
4071.803	-53.1
4074.256	-59.1
4076.708	-62.1
4079.158	-57.1
4081.606	-54.1
4084.052	-57.1
4086.497	-53.1
4088.939	-53.1
4091.38	-65.1
4093.819	-62.1
4096.257	-60.1
4098.693	-64.1
4101.127	-55.1
4103.559	-62.1
4105.989	20.9
4108.418	16.9
4110.845	12.9
4113.27	11.9
4115.694	14.9
4118.115	17.9
4120.535	-56.1
4122.954	-57.1
4125.37	-60.1
4127.785	-54.1
4130.198	-58.1
4132.609	-52.1
4135.019	-61.1
4137.427	-64.1
4139.833	-64.1
4142.237	-65.1
