Data from 2018-3-7_conc=4_n=1_RamanShift_04.txt Node
Date: Wed Mar 07 11:50:22 IST 2018
User: aro
Spectrometer: QEPB0276
Trigger mode: 0
Integration Time (sec): 3.000000E1
Scans to average: 1
Electric dark correction enabled: true
Nonlinearity correction enabled: false
Boxcar width: 0
XAxis mode: Raman Shifts
Number of Pixels in Spectrum: 1044
>>>>>Begin Spectral Data<<<<<
160.701	10.9
166.742	22.9
172.777	49.9
178.805	128.9
184.826	334.9
190.841	705.9
196.849	1158.9
202.85	1503.9
208.845	1644.9
214.833	1650.9
220.815	1625.9
226.789	1621.9
232.758	1639.9
238.719	1643.9
244.674	1625.9
250.623	1626.9
256.565	1613.9
262.5	1594.9
268.429	1567.9
274.351	1557.9
280.267	1543.9
286.176	1569.9
292.079	1552.9
297.975	1563.9
303.865	1555.9
309.748	1546.9
315.625	1542.9
321.495	1567.9
327.359	1541.9
333.217	1565.9
339.068	1558.9
344.912	1569.9
350.751	1556.9
356.583	1548.9
362.408	1577.9
368.227	1588.9
374.04	1579.9
379.847	1584.9
385.647	1604.9
391.44	1608.9
397.228	1608.9
403.009	1622.9
408.784	1630.9
414.553	1637.9
420.315	1626.9
426.071	1642.9
431.821	1633.9
437.565	1641.9
443.302	1628.9
449.033	1610.9
454.758	1614.9
460.477	1608.9
466.189	1587.9
471.896	1567.9
477.596	1567.9
483.29	1577.9
488.978	1561.9
494.66	1542.9
500.335	1505.9
506.005	1478.9
511.668	1396.9
517.325	1358.9
522.977	1307.9
528.622	1283.9
534.261	1244.9
539.894	1234.9
545.521	1232.9
551.141	1203.9
556.756	1207.9
562.365	1179.9
567.968	1168.9
573.565	1178.9
579.155	1160.9
584.74	1157.9
590.319	1162.9
595.892	1162.9
601.459	1158.9
607.02	1139.9
612.575	1134.9
618.124	1128.9
623.667	1117.9
629.204	1096.9
634.735	1092.9
640.261	1061.9
645.781	1064.9
651.294	1068.9
656.802	1066.9
662.304	1076.9
667.8	1071.9
673.29	1069.9
678.775	1070.9
684.254	1062.9
689.726	1045.9
695.193	1048.9
700.655	1032.9
706.11	1027.9
711.56	1005.9
717.004	1013.9
722.442	1002.9
727.874	1005.9
733.301	998.9
738.722	1003.9
744.137	987.9
749.547	1008.9
754.951	973.9
760.349	1006.9
765.741	998.9
771.128	994.9
776.509	1014.9
781.885	1014.9
787.254	1013.9
792.618	1032.9
797.977	1005.9
803.33	1013.9
808.677	1004.9
814.019	1016.9
819.355	983.9
824.686	972.9
830.011	996.9
835.33	971.9
840.644	966.9
845.952	964.9
851.255	965.9
856.552	963.9
861.844	946.9
867.13	936.9
872.41	926.9
877.686	925.9
882.955	927.9
888.219	914.9
893.478	902.9
898.731	880.9
903.979	865.9
909.221	868.9
914.458	862.9
919.69	872.9
924.916	862.9
930.136	868.9
935.351	861.9
940.561	874.9
945.766	867.9
950.965	877.9
956.158	868.9
961.347	844.9
966.529	847.9
971.707	805.9
976.879	807.9
982.046	795.9
987.208	810.9
992.364	799.9
997.515	794.9
1002.66	811.9
1007.801	821.9
1012.936	820.9
1018.066	834.9
1023.19	828.9
1028.309	826.9
1033.423	834.9
1038.532	829.9
1043.636	821.9
1048.734	806.9
1053.827	805.9
1058.915	805.9
1063.998	781.9
1069.075	766.9
1074.147	770.9
1079.214	780.9
1084.276	778.9
1089.333	792.9
1094.385	786.9
1099.431	782.9
1104.472	784.9
1109.509	780.9
1114.54	767.9
1119.565	763.9
1124.586	755.9
1129.602	743.9
1134.613	752.9
1139.618	738.9
1144.619	727.9
1149.614	740.9
1154.604	727.9
1159.589	738.9
1164.57	732.9
1169.545	729.9
1174.515	741.9
1179.48	728.9
1184.44	735.9
1189.395	719.9
1194.345	724.9
1199.29	702.9
1204.23	717.9
1209.165	704.9
1214.095	717.9
1219.021	718.9
1223.941	727.9
1228.856	721.9
1233.766	736.9
1238.672	728.9
1243.572	735.9
1248.467	728.9
1253.358	715.9
1258.244	716.9
1263.124	688.9
1268	678.9
1272.871	660.9
1277.737	658.9
1282.599	657.9
1287.455	666.9
1292.306	667.9
1297.153	663.9
1301.995	671.9
1306.832	686.9
1311.664	669.9
1316.491	673.9
1321.314	678.9
1326.132	673.9
1330.945	655.9
1335.753	642.9
1340.556	635.9
1345.354	611.9
1350.148	605.9
1354.937	600.9
1359.722	577.9
1364.501	576.9
1369.276	563.9
1374.046	552.9
1378.811	550.9
1383.572	542.9
1388.327	548.9
1393.079	538.9
1397.825	554.9
1402.567	560.9
1407.304	559.9
1412.036	566.9
1416.764	549.9
1421.487	552.9
1426.205	547.9
1430.919	552.9
1435.628	560.9
1440.333	569.9
1445.032	563.9
1449.727	590.9
1454.418	576.9
1459.104	571.9
1463.785	557.9
1468.462	554.9
1473.134	538.9
1477.802	522.9
1482.465	512.9
1487.123	505.9
1491.777	489.9
1496.426	487.9
1501.071	488.9
1505.711	470.9
1510.347	479.9
1514.978	458.9
1519.604	478.9
1524.226	467.9
1528.844	467.9
1533.457	459.9
1538.065	468.9
1542.669	462.9
1547.269	471.9
1551.864	469.9
1556.454	479.9
1561.041	485.9
1565.622	488.9
1570.199	486.9
1574.772	487.9
1579.34	489.9
1583.904	498.9
1588.464	504.9
1593.019	503.9
1597.569	509.9
1602.115	500.9
1606.657	493.9
1611.195	500.9
1615.728	500.9
1620.256	496.9
1624.78	495.9
1629.3	494.9
1633.816	497.9
1638.327	506.9
1642.834	489.9
1647.336	488.9
1651.834	498.9
1656.328	492.9
1660.817	489.9
1665.302	486.9
1669.783	470.9
1674.259	462.9
1678.732	453.9
1683.199	428.9
1687.663	425.9
1692.122	394.9
1696.577	384.9
1701.028	377.9
1705.474	346.9
1709.917	354.9
1714.355	343.9
1718.788	341.9
1723.218	345.9
1727.643	336.9
1732.064	342.9
1736.481	341.9
1740.893	320.9
1745.301	321.9
1749.705	309.9
1754.105	303.9
1758.501	293.9
1762.893	292.9
1767.28	276.9
1771.663	287.9
1776.042	285.9
1780.417	276.9
1784.787	272.9
1789.154	266.9
1793.516	263.9
1797.874	257.9
1802.228	257.9
1806.578	255.9
1810.924	253.9
1815.266	249.9
1819.603	244.9
1823.937	254.9
1828.266	247.9
1832.591	257.9
1836.913	250.9
1841.23	247.9
1845.543	247.9
1849.852	256.9
1854.156	255.9
1858.457	255.9
1862.754	255.9
1867.047	245.9
1871.335	246.9
1875.62	252.9
1879.9	255.9
1884.177	251.9
1888.449	243.9
1892.718	243.9
1896.982	248.9
1901.243	225.9
1905.499	222.9
1909.752	228.9
1914	221.9
1918.245	214.9
1922.485	205.9
1926.722	206.9
1930.954	209.9
1935.183	214.9
1939.408	217.9
1943.628	205.9
1947.845	210.9
1952.058	209.9
1956.267	203.9
1960.472	202.9
1964.673	202.9
1968.87	193.9
1973.063	194.9
1977.252	196.9
1981.438	199.9
1985.619	192.9
1989.797	199.9
1993.971	197.9
1998.14	191.9
2002.306	201.9
2006.469	201.9
2010.627	194.9
2014.781	199.9
2018.932	198.9
2023.078	198.9
2027.221	190.9
2031.36	193.9
2035.495	186.9
2039.627	181.9
2043.754	185.9
2047.878	176.9
2051.998	185.9
2056.114	170.9
2060.226	176.9
2064.334	179.9
2068.439	169.9
2072.54	165.9
2076.637	174.9
2080.73	178.9
2084.82	171.9
2088.906	169.9
2092.988	166.9
2097.066	161.9
2101.14	169.9
2105.211	159.9
2109.278	160.9
2113.342	149.9
2117.401	160.9
2121.457	156.9
2125.509	157.9
2129.558	150.9
2133.602	145.9
2137.643	157.9
2141.681	145.9
2145.714	153.9
2149.744	150.9
2153.77	149.9
2157.793	154.9
2161.812	150.9
2165.827	152.9
2169.838	150.9
2173.846	147.9
2177.851	137.9
2181.851	143.9
2185.848	138.9
2189.841	140.9
2193.831	137.9
2197.817	137.9
2201.799	131.9
2205.778	137.9
2209.753	135.9
2213.725	135.9
2217.693	133.9
2221.657	137.9
2225.618	133.9
2229.575	134.9
2233.529	132.9
2237.479	138.9
2241.425	125.9
2245.368	130.9
2249.307	129.9
2253.243	122.9
2257.175	124.9
2261.104	108.9
2265.029	119.9
2268.95	121.9
2272.868	116.9
2276.783	108.9
2280.694	106.9
2284.601	105.9
2288.505	108.9
2292.405	109.9
2296.302	115.9
2300.195	107.9
2304.085	102.9
2307.971	106.9
2311.854	101.9
2315.734	100.9
2319.609	97.9
2323.482	95.9
2327.351	103.9
2331.216	111.9
2335.078	122.9
2338.937	111.9
2342.792	101.9
2346.643	101.9
2350.492	106.9
2354.336	97.9
2358.178	96.9
2362.015	100.9
2365.85	95.9
2369.681	102.9
2373.508	108.9
2377.333	105.9
2381.153	96.9
2384.971	93.9
2388.785	90.9
2392.595	97.9
2396.402	91.9
2400.206	95.9
2404.007	95.9
2407.804	99.9
2411.597	93.9
2415.388	95.9
2419.174	108.9
2422.958	99.9
2426.738	93.9
2430.515	93.9
2434.289	96.9
2438.059	95.9
2441.825	87.9
2445.589	86.9
2449.349	79.9
2453.106	86.9
2456.859	75.9
2460.61	76.9
2464.356	78.9
2468.1	77.9
2471.84	77.9
2475.577	75.9
2479.311	79.9
2483.041	79.9
2486.768	75.9
2490.492	79.9
2494.213	76.9
2497.93	76.9
2501.644	77.9
2505.355	75.9
2509.062	67.9
2512.766	75.9
2516.467	65.9
2520.165	67.9
2523.859	65.9
2527.551	63.9
2531.239	62.9
2534.923	57.9
2538.605	59.9
2542.283	57.9
2545.958	74.9
2549.63	60.9
2553.299	59.9
2556.964	57.9
2560.626	63.9
2564.285	62.9
2567.941	57.9
2571.594	52.9
2575.243	57.9
2578.89	57.9
2582.533	51.9
2586.173	44.9
2589.809	51.9
2593.443	55.9
2597.073	51.9
2600.701	59.9
2604.325	44.9
2607.946	42.9
2611.564	53.9
2615.178	44.9
2618.79	50.9
2622.398	54.9
2626.004	43.9
2629.606	38.9
2633.205	40.9
2636.801	43.9
2640.394	46.9
2643.983	43.9
2647.57	41.9
2651.153	41.9
2654.734	42.9
2658.311	48.9
2661.885	46.9
2665.456	41.9
2669.025	43.9
2672.589	37.9
2676.151	35.9
2679.71	37.9
2683.266	33.9
2686.819	39.9
2690.368	34.9
2693.915	38.9
2697.458	29.9
2700.999	39.9
2704.536	35.9
2708.071	29.9
2711.602	31.9
2715.13	28.9
2718.656	36.9
2722.178	30.9
2725.697	31.9
2729.214	28.9
2732.727	31.9
2736.237	25.9
2739.744	20.9
2743.249	26.9
2746.75	20.9
2750.248	22.9
2753.743	18.9
2757.236	14.9
2760.725	20.9
2764.211	17.9
2767.695	16.9
2771.175	21.9
2774.652	11.9
2778.127	23.9
2781.598	19.9
2785.067	19.9
2788.532	19.9
2791.995	21.9
2795.455	18.9
2798.911	17.9
2802.365	24.9
2805.816	22.9
2809.264	22.9
2812.709	12.9
2816.151	23.9
2819.59	28.9
2823.026	15.9
2826.46	17.9
2829.89	19.9
2833.318	19.9
2836.742	25.9
2840.164	25.9
2843.583	17.9
2846.999	27.9
2850.412	23.9
2853.822	22.9
2857.229	23.9
2860.634	15.9
2864.035	20.9
2867.434	21.9
2870.83	22.9
2874.223	24.9
2877.613	28.9
2881	30.9
2884.385	27.9
2887.766	29.9
2891.145	27.9
2894.521	31.9
2897.894	27.9
2901.264	31.9
2904.631	28.9
2907.996	32.9
2911.358	35.9
2914.717	33.9
2918.073	27.9
2921.426	34.9
2924.777	34.9
2928.124	31.9
2931.469	35.9
2934.811	43.9
2938.15	41.9
2941.487	44.9
2944.821	40.9
2948.152	52.9
2951.48	40.9
2954.805	46.9
2958.128	36.9
2961.447	42.9
2964.765	37.9
2968.079	37.9
2971.39	31.9
2974.699	38.9
2978.005	38.9
2981.308	35.9
2984.609	34.9
2987.907	39.9
2991.202	42.9
2994.494	34.9
2997.784	32.9
3001.07	39.9
3004.355	36.9
3007.636	45.9
3010.915	38.9
3014.191	36.9
3017.464	43.9
3020.734	46.9
3024.002	46.9
3027.267	51.9
3030.53	51.9
3033.789	47.9
3037.046	41.9
3040.301	37.9
3043.552	51.9
3046.801	50.9
3050.048	50.9
3053.291	53.9
3056.532	54.9
3059.771	58.9
3063.006	66.9
3066.239	61.9
3069.469	70.9
3072.697	75.9
3075.922	80.9
3079.144	72.9
3082.364	81.9
3085.581	78.9
3088.795	90.9
3092.007	86.9
3095.216	92.9
3098.423	90.9
3101.627	94.9
3104.828	95.9
3108.026	97.9
3111.222	104.9
3114.416	103.9
3117.607	106.9
3120.795	104.9
3123.98	111.9
3127.163	118.9
3130.344	114.9
3133.521	120.9
3136.696	118.9
3139.869	122.9
3143.039	123.9
3146.206	129.9
3149.371	118.9
3152.533	130.9
3155.693	133.9
3158.85	144.9
3162.005	137.9
3165.157	130.9
3168.306	130.9
3171.453	128.9
3174.597	134.9
3177.739	130.9
3180.878	142.9
3184.014	137.9
3187.149	141.9
3190.28	133.9
3193.409	137.9
3196.536	137.9
3199.659	139.9
3202.781	141.9
3205.9	133.9
3209.016	130.9
3212.13	137.9
3215.241	140.9
3218.35	139.9
3221.456	133.9
3224.56	131.9
3227.661	127.9
3230.76	124.9
3233.856	124.9
3236.95	127.9
3240.041	116.9
3243.13	121.9
3246.216	114.9
3249.3	112.9
3252.382	118.9
3255.46	127.9
3258.537	106.9
3261.611	101.9
3264.682	101.9
3267.751	111.9
3270.818	96.9
3273.882	104.9
3276.943	100.9
3280.002	101.9
3283.059	93.9
3286.113	86.9
3289.165	95.9
3292.214	94.9
3295.261	95.9
3298.306	94.9
3301.348	93.9
3304.387	92.9
3307.425	93.9
3310.459	88.9
3313.492	90.9
3316.521	92.9
3319.549	96.9
3322.574	81.9
3325.597	87.9
3328.617	97.9
3331.635	94.9
3334.65	93.9
3337.663	81.9
3340.674	87.9
3343.682	84.9
3346.688	86.9
3349.691	83.9
3352.692	93.9
3355.691	94.9
3358.687	85.9
3361.681	87.9
3364.673	86.9
3367.662	89.9
3370.649	89.9
3373.633	81.9
3376.615	80.9
3379.595	73.9
3382.572	69.9
3385.547	76.9
3388.52	73.9
3391.49	65.9
3394.458	61.9
3397.424	71.9
3400.387	67.9
3403.348	58.9
3406.307	64.9
3409.263	65.9
3412.217	66.9
3415.168	73.9
3418.118	56.9
3421.065	57.9
3424.009	56.9
3426.951	54.9
3429.891	60.9
3432.829	48.9
3435.764	56.9
3438.697	53.9
3441.628	43.9
3444.557	44.9
3447.483	46.9
3450.407	43.9
3453.328	43.9
3456.247	37.9
3459.164	36.9
3462.079	28.9
3464.991	34.9
3467.902	32.9
3470.809	24.9
3473.715	23.9
3476.618	17.9
3479.519	15.9
3482.418	20.9
3485.315	16.9
3488.209	6.9
3491.101	6.9
3493.99	9.9
3496.878	10.9
3499.763	3.9
3502.646	2.9
3505.527	2.9
3508.405	3.9
3511.281	0.9
3514.155	-5.1
3517.027	-3.1
3519.897	-1.1
3522.764	-1.1
3525.629	-6.1
3528.492	-6.1
3531.352	-19.1
3534.211	-14.1
3537.067	-19.1
3539.921	-13.1
3542.773	-21.1
3545.622	-12.1
3548.469	-14.1
3551.315	-19.1
3554.157	-18.1
3556.998	-17.1
3559.837	-21.1
3562.673	-21.1
3565.507	-19.1
3568.339	-17.1
3571.169	-23.1
3573.996	-19.1
3576.822	-33.1
3579.645	-26.1
3582.466	-28.1
3585.285	-30.1
3588.101	-31.1
3590.916	-30.1
3593.728	-31.1
3596.538	-36.1
3599.346	-29.1
3602.152	-36.1
3604.956	-29.1
3607.757	-25.1
3610.556	-28.1
3613.354	-36.1
3616.149	-33.1
3618.942	-35.1
3621.732	-28.1
3624.521	-35.1
3627.307	-36.1
3630.092	-39.1
3632.874	-35.1
3635.654	-42.1
3638.432	-35.1
3641.208	-40.1
3643.982	-33.1
3646.753	-40.1
3649.523	-36.1
3652.29	-40.1
3655.055	-36.1
3657.818	-41.1
3660.579	-42.1
3663.338	-32.1
3666.095	-42.1
3668.849	-39.1
3671.602	-38.1
3674.352	-38.1
3677.101	-45.1
3679.847	-41.1
3682.591	-46.1
3685.333	-38.1
3688.073	-49.1
3690.811	-42.1
3693.547	-44.1
3696.281	-38.1
3699.013	-45.1
3701.742	-49.1
3704.47	-39.1
3707.195	-37.1
3709.919	-45.1
3712.64	-43.1
3715.359	-45.1
3718.076	-50.1
3720.792	-47.1
3723.505	-46.1
3726.216	-44.1
3728.925	-48.1
3731.632	-45.1
3734.336	-42.1
3737.039	-44.1
3739.74	-47.1
3742.439	-44.1
3745.136	-43.1
3747.83	-39.1
3750.523	-48.1
3753.213	-55.1
3755.902	-48.1
3758.589	-47.1
3761.273	-48.1
3763.956	-51.1
3766.636	-48.1
3769.315	-43.1
3771.991	-46.1
3774.665	-50.1
3777.338	-48.1
3780.008	-45.1
3782.677	-47.1
3785.343	-46.1
3788.007	-46.1
3790.67	-53.1
3793.33	-42.1
3795.989	-49.1
3798.645	-48.1
3801.299	-47.1
3803.952	-51.1
3806.602	-48.1
3809.251	-51.1
3811.897	-55.1
3814.542	-54.1
3817.184	-47.1
3819.825	-42.1
3822.463	-50.1
3825.1	-41.1
3827.735	-48.1
3830.367	-50.1
3832.998	-49.1
3835.627	-48.1
3838.253	-43.1
3840.878	-44.1
3843.501	-43.1
3846.122	-52.1
3848.741	-51.1
3851.358	-50.1
3853.973	-50.1
3856.586	-46.1
3859.197	-51.1
3861.806	-56.1
3864.414	-49.1
3867.019	-49.1
3869.622	-42.1
3872.224	-37.1
3874.823	-25.1
3877.421	-22.1
3880.016	-10.1
3882.61	9.9
3885.202	3.9
3887.792	-5.1
3890.38	-21.1
3892.966	-37.1
3895.55	-43.1
3898.132	-50.1
3900.713	-48.1
3903.291	-54.1
3905.868	-48.1
3908.442	-48.1
3911.015	-46.1
3913.586	-53.1
3916.155	-45.1
3918.722	-46.1
3921.287	-49.1
3923.85	-40.1
3926.411	-53.1
3928.971	-58.1
3931.528	-52.1
3934.084	-52.1
3936.638	-50.1
3939.19	-54.1
3941.74	-52.1
3944.288	-52.1
3946.834	-54.1
3949.378	-47.1
3951.921	-50.1
3954.462	-53.1
3957	-43.1
3959.537	-39.1
3962.072	-39.1
3964.606	-48.1
3967.137	-45.1
3969.667	-50.1
3972.194	-47.1
3974.72	-47.1
3977.244	-45.1
3979.766	-53.1
3982.286	-51.1
3984.805	-58.1
3987.321	-49.1
3989.836	-48.1
3992.349	-50.1
3994.86	-50.1
3997.369	-46.1
3999.877	-46.1
4002.382	-47.1
4004.886	-44.1
4007.388	-48.1
4009.888	-46.1
4012.386	-52.1
4014.883	-46.1
4017.377	-46.1
4019.87	-50.1
4022.361	-53.1
4024.85	-53.1
4027.338	-52.1
4029.823	-48.1
4032.307	-51.1
4034.789	-49.1
4037.269	-45.1
4039.747	-45.1
4042.224	-46.1
4044.699	-47.1
4047.172	-50.1
4049.643	-51.1
4052.112	-44.1
4054.58	-48.1
4057.046	-43.1
4059.51	-47.1
4061.972	-51.1
4064.432	-47.1
4066.891	-47.1
4069.348	-47.1
4071.803	-43.1
4074.256	-48.1
4076.708	-48.1
4079.158	-52.1
4081.606	-49.1
4084.052	-50.1
4086.497	-41.1
4088.939	-47.1
4091.38	-50.1
4093.819	-53.1
4096.257	-53.1
4098.693	-49.1
4101.127	-45.1
4103.559	-53.1
4105.989	22.9
4108.418	17.9
4110.845	14.9
4113.27	20.9
4115.694	20.9
4118.115	16.9
4120.535	-48.1
4122.954	-46.1
4125.37	-46.1
4127.785	-46.1
4130.198	-45.1
4132.609	-52.1
4135.019	-54.1
4137.427	-55.1
4139.833	-51.1
4142.237	-52.1
