Data from 2018-3-7_conc=3_n=10_RamanShift_02.txt Node
Date: Wed Mar 07 11:45:52 IST 2018
User: aro
Spectrometer: QEPB0276
Trigger mode: 0
Integration Time (sec): 3.000000E1
Scans to average: 1
Electric dark correction enabled: true
Nonlinearity correction enabled: false
Boxcar width: 0
XAxis mode: Raman Shifts
Number of Pixels in Spectrum: 1044
>>>>>Begin Spectral Data<<<<<
160.701	22.8
166.742	24.8
172.777	52.8
178.805	141.8
184.826	362.8
190.841	758.8
196.849	1275.8
202.85	1659.8
208.845	1808.8
214.833	1806.8
220.815	1790.8
226.789	1789.8
232.758	1794.8
238.719	1808.8
244.674	1779.8
250.623	1799.8
256.565	1765.8
262.5	1738.8
268.429	1723.8
274.351	1714.8
280.267	1692.8
286.176	1694.8
292.079	1695.8
297.975	1701.8
303.865	1691.8
309.748	1690.8
315.625	1693.8
321.495	1688.8
327.359	1677.8
333.217	1690.8
339.068	1696.8
344.912	1698.8
350.751	1707.8
356.583	1699.8
362.408	1709.8
368.227	1715.8
374.04	1721.8
379.847	1742.8
385.647	1737.8
391.44	1745.8
397.228	1735.8
403.009	1758.8
408.784	1747.8
414.553	1797.8
420.315	1784.8
426.071	1775.8
431.821	1773.8
437.565	1771.8
443.302	1773.8
449.033	1778.8
454.758	1757.8
460.477	1735.8
466.189	1728.8
471.896	1712.8
477.596	1697.8
483.29	1703.8
488.978	1679.8
494.66	1684.8
500.335	1661.8
506.005	1598.8
511.668	1536.8
517.325	1484.8
522.977	1421.8
528.622	1403.8
534.261	1382.8
539.894	1332.8
545.521	1323.8
551.141	1320.8
556.756	1319.8
562.365	1315.8
567.968	1294.8
573.565	1293.8
579.155	1282.8
584.74	1267.8
590.319	1265.8
595.892	1264.8
601.459	1262.8
607.02	1240.8
612.575	1261.8
618.124	1231.8
623.667	1226.8
629.204	1208.8
634.735	1189.8
640.261	1179.8
645.781	1182.8
651.294	1174.8
656.802	1169.8
662.304	1174.8
667.8	1164.8
673.29	1181.8
678.775	1155.8
684.254	1166.8
689.726	1150.8
695.193	1142.8
700.655	1115.8
706.11	1119.8
711.56	1119.8
717.004	1098.8
722.442	1105.8
727.874	1085.8
733.301	1106.8
738.722	1087.8
744.137	1085.8
749.547	1092.8
754.951	1085.8
760.349	1086.8
765.741	1089.8
771.128	1094.8
776.509	1104.8
781.885	1124.8
787.254	1120.8
792.618	1123.8
797.977	1100.8
803.33	1108.8
808.677	1112.8
814.019	1098.8
819.355	1083.8
824.686	1080.8
830.011	1074.8
835.33	1047.8
840.644	1068.8
845.952	1066.8
851.255	1064.8
856.552	1052.8
861.844	1038.8
867.13	1042.8
872.41	1041.8
877.686	1012.8
882.955	1012.8
888.219	997.8
893.478	982.8
898.731	971.8
903.979	962.8
909.221	961.8
914.458	951.8
919.69	949.8
924.916	965.8
930.136	954.8
935.351	967.8
940.561	961.8
945.766	950.8
950.965	959.8
956.158	944.8
961.347	926.8
966.529	919.8
971.707	905.8
976.879	901.8
982.046	885.8
987.208	878.8
992.364	865.8
997.515	872.8
1002.66	895.8
1007.801	894.8
1012.936	913.8
1018.066	908.8
1023.19	908.8
1028.309	903.8
1033.423	913.8
1038.532	907.8
1043.636	897.8
1048.734	898.8
1053.827	877.8
1058.915	882.8
1063.998	850.8
1069.075	854.8
1074.147	854.8
1079.214	857.8
1084.276	859.8
1089.333	870.8
1094.385	861.8
1099.431	845.8
1104.472	851.8
1109.509	846.8
1114.54	835.8
1119.565	845.8
1124.586	816.8
1129.602	795.8
1134.613	794.8
1139.618	805.8
1144.619	799.8
1149.614	807.8
1154.604	806.8
1159.589	805.8
1164.57	800.8
1169.545	811.8
1174.515	808.8
1179.48	805.8
1184.44	798.8
1189.395	790.8
1194.345	776.8
1199.29	763.8
1204.23	779.8
1209.165	781.8
1214.095	788.8
1219.021	774.8
1223.941	791.8
1228.856	808.8
1233.766	799.8
1238.672	793.8
1243.572	792.8
1248.467	802.8
1253.358	778.8
1258.244	753.8
1263.124	758.8
1268	746.8
1272.871	736.8
1277.737	724.8
1282.599	740.8
1287.455	711.8
1292.306	721.8
1297.153	734.8
1301.995	727.8
1306.832	740.8
1311.664	746.8
1316.491	751.8
1321.314	739.8
1326.132	718.8
1330.945	716.8
1335.753	717.8
1340.556	683.8
1345.354	679.8
1350.148	668.8
1354.937	647.8
1359.722	632.8
1364.501	627.8
1369.276	615.8
1374.046	600.8
1378.811	608.8
1383.572	613.8
1388.327	596.8
1393.079	594.8
1397.825	603.8
1402.567	606.8
1407.304	616.8
1412.036	606.8
1416.764	605.8
1421.487	611.8
1426.205	606.8
1430.919	605.8
1435.628	613.8
1440.333	614.8
1445.032	609.8
1449.727	629.8
1454.418	623.8
1459.104	620.8
1463.785	613.8
1468.462	592.8
1473.134	586.8
1477.802	564.8
1482.465	568.8
1487.123	551.8
1491.777	531.8
1496.426	535.8
1501.071	523.8
1505.711	521.8
1510.347	512.8
1514.978	507.8
1519.604	511.8
1524.226	503.8
1528.844	516.8
1533.457	490.8
1538.065	510.8
1542.669	511.8
1547.269	506.8
1551.864	501.8
1556.454	521.8
1561.041	533.8
1565.622	527.8
1570.199	540.8
1574.772	521.8
1579.34	529.8
1583.904	531.8
1588.464	547.8
1593.019	538.8
1597.569	556.8
1602.115	554.8
1606.657	545.8
1611.195	537.8
1615.728	544.8
1620.256	528.8
1624.78	538.8
1629.3	538.8
1633.816	537.8
1638.327	546.8
1642.834	542.8
1647.336	536.8
1651.834	551.8
1656.328	547.8
1660.817	540.8
1665.302	535.8
1669.783	520.8
1674.259	505.8
1678.732	487.8
1683.199	479.8
1687.663	461.8
1692.122	433.8
1696.577	413.8
1701.028	399.8
1705.474	382.8
1709.917	377.8
1714.355	375.8
1718.788	368.8
1723.218	364.8
1727.643	369.8
1732.064	359.8
1736.481	365.8
1740.893	355.8
1745.301	343.8
1749.705	333.8
1754.105	328.8
1758.501	322.8
1762.893	315.8
1767.28	311.8
1771.663	301.8
1776.042	299.8
1780.417	294.8
1784.787	295.8
1789.154	287.8
1793.516	271.8
1797.874	269.8
1802.228	279.8
1806.578	270.8
1810.924	271.8
1815.266	272.8
1819.603	265.8
1823.937	276.8
1828.266	268.8
1832.591	267.8
1836.913	267.8
1841.23	270.8
1845.543	267.8
1849.852	281.8
1854.156	274.8
1858.457	281.8
1862.754	281.8
1867.047	273.8
1871.335	274.8
1875.62	267.8
1879.9	270.8
1884.177	265.8
1888.449	267.8
1892.718	262.8
1896.982	260.8
1901.243	241.8
1905.499	239.8
1909.752	238.8
1914	238.8
1918.245	230.8
1922.485	222.8
1926.722	227.8
1930.954	223.8
1935.183	222.8
1939.408	226.8
1943.628	215.8
1947.845	221.8
1952.058	215.8
1956.267	210.8
1960.472	214.8
1964.673	200.8
1968.87	199.8
1973.063	204.8
1977.252	214.8
1981.438	197.8
1985.619	198.8
1989.797	197.8
1993.971	211.8
1998.14	211.8
2002.306	210.8
2006.469	211.8
2010.627	196.8
2014.781	212.8
2018.932	206.8
2023.078	210.8
2027.221	204.8
2031.36	201.8
2035.495	200.8
2039.627	195.8
2043.754	196.8
2047.878	193.8
2051.998	192.8
2056.114	185.8
2060.226	181.8
2064.334	187.8
2068.439	175.8
2072.54	189.8
2076.637	189.8
2080.73	182.8
2084.82	188.8
2088.906	175.8
2092.988	181.8
2097.066	172.8
2101.14	171.8
2105.211	175.8
2109.278	164.8
2113.342	155.8
2117.401	164.8
2121.457	158.8
2125.509	156.8
2129.558	157.8
2133.602	155.8
2137.643	161.8
2141.681	159.8
2145.714	159.8
2149.744	155.8
2153.77	161.8
2157.793	161.8
2161.812	165.8
2165.827	160.8
2169.838	151.8
2173.846	146.8
2177.851	145.8
2181.851	143.8
2185.848	148.8
2189.841	141.8
2193.831	141.8
2197.817	138.8
2201.799	144.8
2205.778	141.8
2209.753	149.8
2213.725	140.8
2217.693	146.8
2221.657	141.8
2225.618	137.8
2229.575	130.8
2233.529	133.8
2237.479	131.8
2241.425	137.8
2245.368	133.8
2249.307	130.8
2253.243	124.8
2257.175	123.8
2261.104	112.8
2265.029	118.8
2268.95	119.8
2272.868	128.8
2276.783	117.8
2280.694	111.8
2284.601	105.8
2288.505	113.8
2292.405	116.8
2296.302	110.8
2300.195	109.8
2304.085	105.8
2307.971	97.8
2311.854	100.8
2315.734	102.8
2319.609	109.8
2323.482	104.8
2327.351	106.8
2331.216	113.8
2335.078	122.8
2338.937	114.8
2342.792	101.8
2346.643	108.8
2350.492	101.8
2354.336	98.8
2358.178	94.8
2362.015	107.8
2365.85	99.8
2369.681	101.8
2373.508	105.8
2377.333	104.8
2381.153	93.8
2384.971	94.8
2388.785	97.8
2392.595	96.8
2396.402	101.8
2400.206	96.8
2404.007	97.8
2407.804	96.8
2411.597	90.8
2415.388	92.8
2419.174	97.8
2422.958	95.8
2426.738	94.8
2430.515	91.8
2434.289	94.8
2438.059	83.8
2441.825	85.8
2445.589	90.8
2449.349	91.8
2453.106	96.8
2456.859	87.8
2460.61	87.8
2464.356	85.8
2468.1	79.8
2471.84	85.8
2475.577	67.8
2479.311	75.8
2483.041	73.8
2486.768	75.8
2490.492	78.8
2494.213	76.8
2497.93	73.8
2501.644	73.8
2505.355	68.8
2509.062	80.8
2512.766	71.8
2516.467	66.8
2520.165	67.8
2523.859	77.8
2527.551	62.8
2531.239	61.8
2534.923	64.8
2538.605	60.8
2542.283	53.8
2545.958	57.8
2549.63	56.8
2553.299	57.8
2556.964	49.8
2560.626	61.8
2564.285	50.8
2567.941	51.8
2571.594	52.8
2575.243	56.8
2578.89	50.8
2582.533	46.8
2586.173	50.8
2589.809	63.8
2593.443	52.8
2597.073	46.8
2600.701	49.8
2604.325	35.8
2607.946	37.8
2611.564	40.8
2615.178	44.8
2618.79	42.8
2622.398	49.8
2626.004	45.8
2629.606	34.8
2633.205	42.8
2636.801	41.8
2640.394	48.8
2643.983	37.8
2647.57	39.8
2651.153	34.8
2654.734	37.8
2658.311	35.8
2661.885	34.8
2665.456	40.8
2669.025	40.8
2672.589	32.8
2676.151	30.8
2679.71	31.8
2683.266	34.8
2686.819	40.8
2690.368	36.8
2693.915	35.8
2697.458	31.8
2700.999	34.8
2704.536	39.8
2708.071	35.8
2711.602	27.8
2715.13	21.8
2718.656	22.8
2722.178	23.8
2725.697	18.8
2729.214	19.8
2732.727	27.8
2736.237	22.8
2739.744	12.8
2743.249	14.8
2746.75	18.8
2750.248	16.8
2753.743	21.8
2757.236	20.8
2760.725	15.8
2764.211	14.8
2767.695	15.8
2771.175	14.8
2774.652	9.8
2778.127	14.8
2781.598	11.8
2785.067	7.8
2788.532	10.8
2791.995	16.8
2795.455	7.8
2798.911	12.8
2802.365	14.8
2805.816	9.8
2809.264	11.8
2812.709	6.8
2816.151	16.8
2819.59	22.8
2823.026	13.8
2826.46	19.8
2829.89	15.8
2833.318	12.8
2836.742	21.8
2840.164	17.8
2843.583	17.8
2846.999	18.8
2850.412	13.8
2853.822	18.8
2857.229	14.8
2860.634	11.8
2864.035	19.8
2867.434	18.8
2870.83	18.8
2874.223	20.8
2877.613	17.8
2881	23.8
2884.385	21.8
2887.766	27.8
2891.145	27.8
2894.521	31.8
2897.894	26.8
2901.264	30.8
2904.631	19.8
2907.996	23.8
2911.358	36.8
2914.717	27.8
2918.073	27.8
2921.426	27.8
2924.777	29.8
2928.124	37.8
2931.469	33.8
2934.811	41.8
2938.15	39.8
2941.487	51.8
2944.821	39.8
2948.152	48.8
2951.48	41.8
2954.805	43.8
2958.128	40.8
2961.447	40.8
2964.765	36.8
2968.079	32.8
2971.39	37.8
2974.699	34.8
2978.005	46.8
2981.308	36.8
2984.609	38.8
2987.907	38.8
2991.202	37.8
2994.494	37.8
2997.784	33.8
3001.07	34.8
3004.355	38.8
3007.636	43.8
3010.915	37.8
3014.191	42.8
3017.464	40.8
3020.734	46.8
3024.002	44.8
3027.267	47.8
3030.53	44.8
3033.789	47.8
3037.046	52.8
3040.301	40.8
3043.552	51.8
3046.801	58.8
3050.048	61.8
3053.291	58.8
3056.532	62.8
3059.771	58.8
3063.006	69.8
3066.239	69.8
3069.469	79.8
3072.697	77.8
3075.922	83.8
3079.144	80.8
3082.364	85.8
3085.581	85.8
3088.795	92.8
3092.007	92.8
3095.216	99.8
3098.423	90.8
3101.627	94.8
3104.828	102.8
3108.026	98.8
3111.222	103.8
3114.416	107.8
3117.607	112.8
3120.795	118.8
3123.98	111.8
3127.163	121.8
3130.344	127.8
3133.521	125.8
3136.696	130.8
3139.869	134.8
3143.039	132.8
3146.206	139.8
3149.371	131.8
3152.533	146.8
3155.693	143.8
3158.85	149.8
3162.005	142.8
3165.157	140.8
3168.306	141.8
3171.453	149.8
3174.597	148.8
3177.739	153.8
3180.878	144.8
3184.014	143.8
3187.149	149.8
3190.28	144.8
3193.409	149.8
3196.536	145.8
3199.659	149.8
3202.781	151.8
3205.9	146.8
3209.016	144.8
3212.13	140.8
3215.241	145.8
3218.35	139.8
3221.456	144.8
3224.56	140.8
3227.661	142.8
3230.76	142.8
3233.856	128.8
3236.95	140.8
3240.041	123.8
3243.13	137.8
3246.216	123.8
3249.3	117.8
3252.382	120.8
3255.46	118.8
3258.537	126.8
3261.611	114.8
3264.682	115.8
3267.751	122.8
3270.818	106.8
3273.882	119.8
3276.943	108.8
3280.002	111.8
3283.059	106.8
3286.113	102.8
3289.165	109.8
3292.214	111.8
3295.261	107.8
3298.306	100.8
3301.348	105.8
3304.387	102.8
3307.425	94.8
3310.459	87.8
3313.492	90.8
3316.521	93.8
3319.549	103.8
3322.574	95.8
3325.597	93.8
3328.617	96.8
3331.635	100.8
3334.65	102.8
3337.663	87.8
3340.674	94.8
3343.682	94.8
3346.688	94.8
3349.691	97.8
3352.692	99.8
3355.691	98.8
3358.687	95.8
3361.681	93.8
3364.673	92.8
3367.662	93.8
3370.649	90.8
3373.633	87.8
3376.615	89.8
3379.595	82.8
3382.572	72.8
3385.547	86.8
3388.52	82.8
3391.49	72.8
3394.458	74.8
3397.424	73.8
3400.387	71.8
3403.348	67.8
3406.307	63.8
3409.263	71.8
3412.217	69.8
3415.168	68.8
3418.118	62.8
3421.065	56.8
3424.009	67.8
3426.951	52.8
3429.891	58.8
3432.829	58.8
3435.764	63.8
3438.697	58.8
3441.628	47.8
3444.557	51.8
3447.483	40.8
3450.407	34.8
3453.328	39.8
3456.247	37.8
3459.164	37.8
3462.079	25.8
3464.991	27.8
3467.902	27.8
3470.809	26.8
3473.715	24.8
3476.618	23.8
3479.519	17.8
3482.418	15.8
3485.315	10.8
3488.209	5.8
3491.101	5.8
3493.99	12.8
3496.878	8.8
3499.763	0.8
3502.646	0.8
3505.527	0.8
3508.405	-2.2
3511.281	2.8
3514.155	-8.2
3517.027	-11.2
3519.897	-3.2
3522.764	-6.2
3525.629	-9.2
3528.492	-10.2
3531.352	-18.2
3534.211	-18.2
3537.067	-17.2
3539.921	-21.2
3542.773	-25.2
3545.622	-24.2
3548.469	-23.2
3551.315	-24.2
3554.157	-27.2
3556.998	-25.2
3559.837	-25.2
3562.673	-31.2
3565.507	-26.2
3568.339	-23.2
3571.169	-32.2
3573.996	-24.2
3576.822	-35.2
3579.645	-36.2
3582.466	-31.2
3585.285	-34.2
3588.101	-34.2
3590.916	-34.2
3593.728	-37.2
3596.538	-44.2
3599.346	-41.2
3602.152	-41.2
3604.956	-37.2
3607.757	-36.2
3610.556	-36.2
3613.354	-44.2
3616.149	-40.2
3618.942	-43.2
3621.732	-40.2
3624.521	-40.2
3627.307	-42.2
3630.092	-47.2
3632.874	-45.2
3635.654	-50.2
3638.432	-43.2
3641.208	-48.2
3643.982	-42.2
3646.753	-49.2
3649.523	-46.2
3652.29	-50.2
3655.055	-44.2
3657.818	-50.2
3660.579	-50.2
3663.338	-46.2
3666.095	-49.2
3668.849	-50.2
3671.602	-50.2
3674.352	-47.2
3677.101	-49.2
3679.847	-49.2
3682.591	-53.2
3685.333	-52.2
3688.073	-57.2
3690.811	-49.2
3693.547	-57.2
3696.281	-49.2
3699.013	-50.2
3701.742	-58.2
3704.47	-52.2
3707.195	-51.2
3709.919	-51.2
3712.64	-53.2
3715.359	-53.2
3718.076	-55.2
3720.792	-57.2
3723.505	-54.2
3726.216	-54.2
3728.925	-64.2
3731.632	-53.2
3734.336	-58.2
3737.039	-50.2
3739.74	-59.2
3742.439	-61.2
3745.136	-58.2
3747.83	-54.2
3750.523	-57.2
3753.213	-61.2
3755.902	-62.2
3758.589	-57.2
3761.273	-56.2
3763.956	-55.2
3766.636	-56.2
3769.315	-52.2
3771.991	-57.2
3774.665	-62.2
3777.338	-61.2
3780.008	-61.2
3782.677	-61.2
3785.343	-56.2
3788.007	-58.2
3790.67	-56.2
3793.33	-60.2
3795.989	-61.2
3798.645	-58.2
3801.299	-58.2
3803.952	-57.2
3806.602	-60.2
3809.251	-45.2
3811.897	-7.2
3814.542	-60.2
3817.184	-56.2
3819.825	-52.2
3822.463	-57.2
3825.1	-57.2
3827.735	-67.2
3830.367	-66.2
3832.998	-61.2
3835.627	-54.2
3838.253	-55.2
3840.878	-56.2
3843.501	-47.2
3846.122	-64.2
3848.741	-56.2
3851.358	-52.2
3853.973	-53.2
3856.586	-60.2
3859.197	-57.2
3861.806	-60.2
3864.414	-63.2
3867.019	-60.2
3869.622	-58.2
3872.224	-43.2
3874.823	-34.2
3877.421	-28.2
3880.016	-11.2
3882.61	8.8
3885.202	6.8
3887.792	2.8
3890.38	-22.2
3892.966	-41.2
3895.55	-47.2
3898.132	-54.2
3900.713	-56.2
3903.291	-62.2
3905.868	-58.2
3908.442	-58.2
3911.015	-59.2
3913.586	-69.2
3916.155	-61.2
3918.722	-61.2
3921.287	-60.2
3923.85	-60.2
3926.411	-58.2
3928.971	-64.2
3931.528	-59.2
3934.084	-56.2
3936.638	-52.2
3939.19	-66.2
3941.74	-58.2
3944.288	-62.2
3946.834	-59.2
3949.378	-61.2
3951.921	-60.2
3954.462	-64.2
3957	-53.2
3959.537	-50.2
3962.072	-56.2
3964.606	-63.2
3967.137	-56.2
3969.667	-61.2
3972.194	-55.2
3974.72	-55.2
3977.244	-59.2
3979.766	-58.2
3982.286	-63.2
3984.805	-65.2
3987.321	-56.2
3989.836	-55.2
3992.349	-55.2
3994.86	-65.2
3997.369	-59.2
3999.877	-61.2
4002.382	-63.2
4004.886	-58.2
4007.388	-64.2
4009.888	-58.2
4012.386	-67.2
4014.883	-60.2
4017.377	-57.2
4019.87	-59.2
4022.361	-63.2
4024.85	-60.2
4027.338	-62.2
4029.823	-61.2
4032.307	-60.2
4034.789	-59.2
4037.269	-59.2
4039.747	-57.2
4042.224	-61.2
4044.699	-61.2
4047.172	-61.2
4049.643	-61.2
4052.112	-62.2
4054.58	-58.2
4057.046	-58.2
4059.51	-59.2
4061.972	-61.2
4064.432	-59.2
4066.891	-53.2
4069.348	-53.2
4071.803	-50.2
4074.256	-57.2
4076.708	-56.2
4079.158	-63.2
4081.606	-57.2
4084.052	-59.2
4086.497	-57.2
4088.939	-54.2
4091.38	-65.2
4093.819	-63.2
4096.257	-64.2
4098.693	-64.2
4101.127	-57.2
4103.559	-66.2
4105.989	30.8
4108.418	24.8
4110.845	14.8
4113.27	20.8
4115.694	18.8
4118.115	17.8
4120.535	-60.2
4122.954	-52.2
4125.37	-59.2
4127.785	-59.2
4130.198	-57.2
4132.609	-63.2
4135.019	-59.2
4137.427	-63.2
4139.833	-60.2
4142.237	-59.2
