Data from 2018-3-7_conc=4_n=5_RamanShift_01.txt Node
Date: Wed Mar 07 12:01:22 IST 2018
User: aro
Spectrometer: QEPB0276
Trigger mode: 0
Integration Time (sec): 3.000000E1
Scans to average: 1
Electric dark correction enabled: true
Nonlinearity correction enabled: false
Boxcar width: 0
XAxis mode: Raman Shifts
Number of Pixels in Spectrum: 1044
>>>>>Begin Spectral Data<<<<<
160.701	18.8
166.742	23.8
172.777	56.8
178.805	146.8
184.826	372.8
190.841	786.8
196.849	1293.8
202.85	1674.8
208.845	1845.8
214.833	1862.8
220.815	1794.8
226.789	1799.8
232.758	1820.8
238.719	1791.8
244.674	1787.8
250.623	1803.8
256.565	1762.8
262.5	1717.8
268.429	1720.8
274.351	1690.8
280.267	1694.8
286.176	1702.8
292.079	1695.8
297.975	1676.8
303.865	1665.8
309.748	1680.8
315.625	1660.8
321.495	1659.8
327.359	1680.8
333.217	1676.8
339.068	1686.8
344.912	1691.8
350.751	1692.8
356.583	1687.8
362.408	1683.8
368.227	1694.8
374.04	1709.8
379.847	1714.8
385.647	1715.8
391.44	1719.8
397.228	1736.8
403.009	1745.8
408.784	1756.8
414.553	1754.8
420.315	1756.8
426.071	1752.8
431.821	1752.8
437.565	1748.8
443.302	1754.8
449.033	1753.8
454.758	1757.8
460.477	1746.8
466.189	1709.8
471.896	1713.8
477.596	1701.8
483.29	1697.8
488.978	1677.8
494.66	1696.8
500.335	1639.8
506.005	1583.8
511.668	1534.8
517.325	1471.8
522.977	1422.8
528.622	1381.8
534.261	1369.8
539.894	1341.8
545.521	1335.8
551.141	1315.8
556.756	1298.8
562.365	1302.8
567.968	1288.8
573.565	1282.8
579.155	1277.8
584.74	1268.8
590.319	1255.8
595.892	1255.8
601.459	1239.8
607.02	1248.8
612.575	1233.8
618.124	1214.8
623.667	1194.8
629.204	1191.8
634.735	1173.8
640.261	1174.8
645.781	1181.8
651.294	1174.8
656.802	1157.8
662.304	1149.8
667.8	1172.8
673.29	1156.8
678.775	1146.8
684.254	1151.8
689.726	1147.8
695.193	1127.8
700.655	1128.8
706.11	1135.8
711.56	1118.8
717.004	1108.8
722.442	1078.8
727.874	1083.8
733.301	1093.8
738.722	1076.8
744.137	1091.8
749.547	1081.8
754.951	1088.8
760.349	1080.8
765.741	1084.8
771.128	1093.8
776.509	1100.8
781.885	1123.8
787.254	1121.8
792.618	1119.8
797.977	1106.8
803.33	1092.8
808.677	1100.8
814.019	1093.8
819.355	1082.8
824.686	1067.8
830.011	1047.8
835.33	1062.8
840.644	1053.8
845.952	1043.8
851.255	1039.8
856.552	1046.8
861.844	1034.8
867.13	1020.8
872.41	1034.8
877.686	1032.8
882.955	1011.8
888.219	1003.8
893.478	991.8
898.731	982.8
903.979	950.8
909.221	949.8
914.458	950.8
919.69	954.8
924.916	950.8
930.136	943.8
935.351	942.8
940.561	951.8
945.766	955.8
950.965	945.8
956.158	946.8
961.347	942.8
966.529	915.8
971.707	890.8
976.879	883.8
982.046	877.8
987.208	868.8
992.364	865.8
997.515	883.8
1002.66	886.8
1007.801	893.8
1012.936	907.8
1018.066	911.8
1023.19	909.8
1028.309	909.8
1033.423	893.8
1038.532	896.8
1043.636	882.8
1048.734	889.8
1053.827	879.8
1058.915	873.8
1063.998	852.8
1069.075	847.8
1074.147	851.8
1079.214	845.8
1084.276	853.8
1089.333	862.8
1094.385	859.8
1099.431	843.8
1104.472	855.8
1109.509	855.8
1114.54	847.8
1119.565	838.8
1124.586	815.8
1129.602	811.8
1134.613	807.8
1139.618	794.8
1144.619	787.8
1149.614	798.8
1154.604	806.8
1159.589	799.8
1164.57	803.8
1169.545	811.8
1174.515	787.8
1179.48	801.8
1184.44	798.8
1189.395	794.8
1194.345	779.8
1199.29	771.8
1204.23	786.8
1209.165	780.8
1214.095	787.8
1219.021	791.8
1223.941	791.8
1228.856	786.8
1233.766	797.8
1238.672	791.8
1243.572	792.8
1248.467	789.8
1253.358	775.8
1258.244	755.8
1263.124	764.8
1268	724.8
1272.871	734.8
1277.737	729.8
1282.599	731.8
1287.455	709.8
1292.306	730.8
1297.153	727.8
1301.995	745.8
1306.832	739.8
1311.664	738.8
1316.491	752.8
1321.314	738.8
1326.132	749.8
1330.945	709.8
1335.753	712.8
1340.556	677.8
1345.354	674.8
1350.148	669.8
1354.937	644.8
1359.722	634.8
1364.501	624.8
1369.276	626.8
1374.046	611.8
1378.811	593.8
1383.572	605.8
1388.327	605.8
1393.079	596.8
1397.825	608.8
1402.567	600.8
1407.304	617.8
1412.036	605.8
1416.764	602.8
1421.487	606.8
1426.205	617.8
1430.919	610.8
1435.628	616.8
1440.333	623.8
1445.032	617.8
1449.727	639.8
1454.418	642.8
1459.104	621.8
1463.785	615.8
1468.462	604.8
1473.134	599.8
1477.802	575.8
1482.465	558.8
1487.123	546.8
1491.777	529.8
1496.426	530.8
1501.071	521.8
1505.711	518.8
1510.347	522.8
1514.978	507.8
1519.604	514.8
1524.226	504.8
1528.844	514.8
1533.457	499.8
1538.065	501.8
1542.669	498.8
1547.269	492.8
1551.864	512.8
1556.454	508.8
1561.041	525.8
1565.622	525.8
1570.199	532.8
1574.772	518.8
1579.34	538.8
1583.904	541.8
1588.464	550.8
1593.019	549.8
1597.569	557.8
1602.115	559.8
1606.657	555.8
1611.195	556.8
1615.728	554.8
1620.256	540.8
1624.78	550.8
1629.3	560.8
1633.816	550.8
1638.327	555.8
1642.834	553.8
1647.336	542.8
1651.834	544.8
1656.328	544.8
1660.817	552.8
1665.302	540.8
1669.783	523.8
1674.259	512.8
1678.732	491.8
1683.199	486.8
1687.663	464.8
1692.122	434.8
1696.577	415.8
1701.028	405.8
1705.474	384.8
1709.917	381.8
1714.355	367.8
1718.788	369.8
1723.218	362.8
1727.643	369.8
1732.064	364.8
1736.481	362.8
1740.893	353.8
1745.301	351.8
1749.705	339.8
1754.105	325.8
1758.501	316.8
1762.893	318.8
1767.28	306.8
1771.663	300.8
1776.042	295.8
1780.417	296.8
1784.787	294.8
1789.154	276.8
1793.516	279.8
1797.874	266.8
1802.228	274.8
1806.578	275.8
1810.924	257.8
1815.266	267.8
1819.603	267.8
1823.937	261.8
1828.266	257.8
1832.591	272.8
1836.913	266.8
1841.23	273.8
1845.543	269.8
1849.852	271.8
1854.156	272.8
1858.457	282.8
1862.754	275.8
1867.047	276.8
1871.335	273.8
1875.62	276.8
1879.9	273.8
1884.177	261.8
1888.449	264.8
1892.718	267.8
1896.982	254.8
1901.243	250.8
1905.499	242.8
1909.752	243.8
1914	233.8
1918.245	228.8
1922.485	221.8
1926.722	219.8
1930.954	223.8
1935.183	213.8
1939.408	226.8
1943.628	210.8
1947.845	216.8
1952.058	207.8
1956.267	197.8
1960.472	213.8
1964.673	202.8
1968.87	205.8
1973.063	208.8
1977.252	210.8
1981.438	200.8
1985.619	194.8
1989.797	200.8
1993.971	202.8
1998.14	206.8
2002.306	214.8
2006.469	213.8
2010.627	207.8
2014.781	216.8
2018.932	200.8
2023.078	200.8
2027.221	200.8
2031.36	201.8
2035.495	205.8
2039.627	197.8
2043.754	202.8
2047.878	197.8
2051.998	194.8
2056.114	193.8
2060.226	183.8
2064.334	194.8
2068.439	182.8
2072.54	181.8
2076.637	182.8
2080.73	185.8
2084.82	181.8
2088.906	166.8
2092.988	183.8
2097.066	167.8
2101.14	165.8
2105.211	160.8
2109.278	166.8
2113.342	156.8
2117.401	161.8
2121.457	165.8
2125.509	162.8
2129.558	161.8
2133.602	160.8
2137.643	162.8
2141.681	155.8
2145.714	157.8
2149.744	158.8
2153.77	160.8
2157.793	159.8
2161.812	164.8
2165.827	158.8
2169.838	150.8
2173.846	154.8
2177.851	146.8
2181.851	150.8
2185.848	154.8
2189.841	147.8
2193.831	141.8
2197.817	144.8
2201.799	139.8
2205.778	144.8
2209.753	141.8
2213.725	145.8
2217.693	143.8
2221.657	143.8
2225.618	140.8
2229.575	127.8
2233.529	137.8
2237.479	143.8
2241.425	126.8
2245.368	134.8
2249.307	138.8
2253.243	133.8
2257.175	130.8
2261.104	123.8
2265.029	128.8
2268.95	125.8
2272.868	122.8
2276.783	118.8
2280.694	117.8
2284.601	111.8
2288.505	118.8
2292.405	115.8
2296.302	115.8
2300.195	113.8
2304.085	103.8
2307.971	108.8
2311.854	101.8
2315.734	109.8
2319.609	104.8
2323.482	107.8
2327.351	110.8
2331.216	115.8
2335.078	130.8
2338.937	115.8
2342.792	108.8
2346.643	106.8
2350.492	110.8
2354.336	111.8
2358.178	100.8
2362.015	103.8
2365.85	107.8
2369.681	105.8
2373.508	106.8
2377.333	101.8
2381.153	102.8
2384.971	100.8
2388.785	94.8
2392.595	103.8
2396.402	107.8
2400.206	106.8
2404.007	105.8
2407.804	94.8
2411.597	95.8
2415.388	92.8
2419.174	101.8
2422.958	99.8
2426.738	96.8
2430.515	96.8
2434.289	92.8
2438.059	87.8
2441.825	92.8
2445.589	95.8
2449.349	85.8
2453.106	93.8
2456.859	82.8
2460.61	88.8
2464.356	84.8
2468.1	87.8
2471.84	85.8
2475.577	83.8
2479.311	86.8
2483.041	83.8
2486.768	84.8
2490.492	78.8
2494.213	72.8
2497.93	82.8
2501.644	73.8
2505.355	67.8
2509.062	70.8
2512.766	68.8
2516.467	68.8
2520.165	72.8
2523.859	70.8
2527.551	73.8
2531.239	66.8
2534.923	66.8
2538.605	61.8
2542.283	59.8
2545.958	67.8
2549.63	62.8
2553.299	68.8
2556.964	56.8
2560.626	57.8
2564.285	59.8
2567.941	62.8
2571.594	58.8
2575.243	57.8
2578.89	46.8
2582.533	49.8
2586.173	52.8
2589.809	51.8
2593.443	62.8
2597.073	53.8
2600.701	56.8
2604.325	45.8
2607.946	38.8
2611.564	51.8
2615.178	50.8
2618.79	51.8
2622.398	51.8
2626.004	43.8
2629.606	40.8
2633.205	35.8
2636.801	44.8
2640.394	48.8
2643.983	44.8
2647.57	39.8
2651.153	42.8
2654.734	41.8
2658.311	43.8
2661.885	46.8
2665.456	42.8
2669.025	37.8
2672.589	36.8
2676.151	31.8
2679.71	25.8
2683.266	31.8
2686.819	37.8
2690.368	35.8
2693.915	38.8
2697.458	28.8
2700.999	38.8
2704.536	31.8
2708.071	32.8
2711.602	28.8
2715.13	25.8
2718.656	28.8
2722.178	27.8
2725.697	28.8
2729.214	27.8
2732.727	27.8
2736.237	30.8
2739.744	21.8
2743.249	18.8
2746.75	18.8
2750.248	20.8
2753.743	17.8
2757.236	20.8
2760.725	20.8
2764.211	9.8
2767.695	9.8
2771.175	17.8
2774.652	16.8
2778.127	12.8
2781.598	11.8
2785.067	13.8
2788.532	12.8
2791.995	19.8
2795.455	9.8
2798.911	10.8
2802.365	12.8
2805.816	9.8
2809.264	9.8
2812.709	1.8
2816.151	19.8
2819.59	28.8
2823.026	15.8
2826.46	22.8
2829.89	21.8
2833.318	17.8
2836.742	23.8
2840.164	20.8
2843.583	12.8
2846.999	26.8
2850.412	17.8
2853.822	15.8
2857.229	20.8
2860.634	15.8
2864.035	16.8
2867.434	16.8
2870.83	22.8
2874.223	18.8
2877.613	20.8
2881	30.8
2884.385	29.8
2887.766	36.8
2891.145	28.8
2894.521	31.8
2897.894	34.8
2901.264	25.8
2904.631	21.8
2907.996	33.8
2911.358	36.8
2914.717	29.8
2918.073	37.8
2921.426	33.8
2924.777	37.8
2928.124	35.8
2931.469	32.8
2934.811	45.8
2938.15	43.8
2941.487	55.8
2944.821	45.8
2948.152	53.8
2951.48	46.8
2954.805	45.8
2958.128	41.8
2961.447	46.8
2964.765	34.8
2968.079	37.8
2971.39	39.8
2974.699	39.8
2978.005	44.8
2981.308	36.8
2984.609	35.8
2987.907	38.8
2991.202	42.8
2994.494	37.8
2997.784	34.8
3001.07	41.8
3004.355	48.8
3007.636	52.8
3010.915	40.8
3014.191	44.8
3017.464	48.8
3020.734	48.8
3024.002	51.8
3027.267	52.8
3030.53	48.8
3033.789	54.8
3037.046	49.8
3040.301	51.8
3043.552	55.8
3046.801	58.8
3050.048	63.8
3053.291	64.8
3056.532	69.8
3059.771	76.8
3063.006	78.8
3066.239	78.8
3069.469	75.8
3072.697	83.8
3075.922	86.8
3079.144	93.8
3082.364	93.8
3085.581	88.8
3088.795	98.8
3092.007	95.8
3095.216	100.8
3098.423	101.8
3101.627	100.8
3104.828	109.8
3108.026	114.8
3111.222	110.8
3114.416	114.8
3117.607	123.8
3120.795	124.8
3123.98	127.8
3127.163	133.8
3130.344	131.8
3133.521	132.8
3136.696	146.8
3139.869	139.8
3143.039	141.8
3146.206	145.8
3149.371	150.8
3152.533	156.8
3155.693	157.8
3158.85	156.8
3162.005	149.8
3165.157	155.8
3168.306	156.8
3171.453	144.8
3174.597	148.8
3177.739	156.8
3180.878	163.8
3184.014	157.8
3187.149	157.8
3190.28	159.8
3193.409	160.8
3196.536	157.8
3199.659	161.8
3202.781	160.8
3205.9	160.8
3209.016	154.8
3212.13	164.8
3215.241	159.8
3218.35	143.8
3221.456	152.8
3224.56	147.8
3227.661	152.8
3230.76	142.8
3233.856	142.8
3236.95	142.8
3240.041	140.8
3243.13	144.8
3246.216	137.8
3249.3	128.8
3252.382	134.8
3255.46	132.8
3258.537	130.8
3261.611	120.8
3264.682	124.8
3267.751	129.8
3270.818	110.8
3273.882	122.8
3276.943	120.8
3280.002	117.8
3283.059	119.8
3286.113	119.8
3289.165	104.8
3292.214	114.8
3295.261	113.8
3298.306	115.8
3301.348	111.8
3304.387	111.8
3307.425	108.8
3310.459	108.8
3313.492	108.8
3316.521	107.8
3319.549	107.8
3322.574	98.8
3325.597	99.8
3328.617	98.8
3331.635	104.8
3334.65	108.8
3337.663	94.8
3340.674	103.8
3343.682	98.8
3346.688	98.8
3349.691	102.8
3352.692	104.8
3355.691	110.8
3358.687	101.8
3361.681	97.8
3364.673	103.8
3367.662	99.8
3370.649	96.8
3373.633	96.8
3376.615	92.8
3379.595	88.8
3382.572	85.8
3385.547	87.8
3388.52	84.8
3391.49	79.8
3394.458	77.8
3397.424	83.8
3400.387	85.8
3403.348	75.8
3406.307	71.8
3409.263	78.8
3412.217	72.8
3415.168	76.8
3418.118	68.8
3421.065	62.8
3424.009	69.8
3426.951	64.8
3429.891	67.8
3432.829	63.8
3435.764	66.8
3438.697	58.8
3441.628	49.8
3444.557	54.8
3447.483	49.8
3450.407	44.8
3453.328	48.8
3456.247	41.8
3459.164	37.8
3462.079	31.8
3464.991	36.8
3467.902	31.8
3470.809	33.8
3473.715	25.8
3476.618	20.8
3479.519	22.8
3482.418	20.8
3485.315	11.8
3488.209	8.8
3491.101	7.8
3493.99	7.8
3496.878	0.8
3499.763	4.8
3502.646	5.8
3505.527	7.8
3508.405	3.8
3511.281	3.8
3514.155	-2.2
3517.027	-13.2
3519.897	-1.2
3522.764	-2.2
3525.629	-6.2
3528.492	-10.2
3531.352	-17.2
3534.211	-16.2
3537.067	-19.2
3539.921	-18.2
3542.773	-27.2
3545.622	-17.2
3548.469	-22.2
3551.315	-20.2
3554.157	-23.2
3556.998	-23.2
3559.837	-24.2
3562.673	-24.2
3565.507	-30.2
3568.339	-23.2
3571.169	-31.2
3573.996	-25.2
3576.822	-37.2
3579.645	-31.2
3582.466	-31.2
3585.285	-30.2
3588.101	-36.2
3590.916	-37.2
3593.728	-41.2
3596.538	-42.2
3599.346	-44.2
3602.152	-42.2
3604.956	-38.2
3607.757	-29.2
3610.556	-34.2
3613.354	-44.2
3616.149	-42.2
3618.942	-36.2
3621.732	-42.2
3624.521	-40.2
3627.307	-41.2
3630.092	-44.2
3632.874	-43.2
3635.654	-47.2
3638.432	-43.2
3641.208	-45.2
3643.982	-46.2
3646.753	-47.2
3649.523	-44.2
3652.29	-52.2
3655.055	-40.2
3657.818	-52.2
3660.579	-53.2
3663.338	-44.2
3666.095	-46.2
3668.849	-51.2
3671.602	-45.2
3674.352	-47.2
3677.101	-49.2
3679.847	-49.2
3682.591	-56.2
3685.333	-52.2
3688.073	-56.2
3690.811	-49.2
3693.547	-59.2
3696.281	-49.2
3699.013	-53.2
3701.742	-54.2
3704.47	-51.2
3707.195	-54.2
3709.919	-54.2
3712.64	-53.2
3715.359	-50.2
3718.076	-55.2
3720.792	-52.2
3723.505	-52.2
3726.216	-47.2
3728.925	-61.2
3731.632	-52.2
3734.336	-59.2
3737.039	-57.2
3739.74	-61.2
3742.439	-68.2
3745.136	-62.2
3747.83	-56.2
3750.523	-60.2
3753.213	-71.2
3755.902	-58.2
3758.589	-59.2
3761.273	-52.2
3763.956	-61.2
3766.636	-53.2
3769.315	-52.2
3771.991	-51.2
3774.665	-65.2
3777.338	-61.2
3780.008	-60.2
3782.677	-63.2
3785.343	-59.2
3788.007	-58.2
3790.67	-57.2
3793.33	-61.2
3795.989	-60.2
3798.645	-63.2
3801.299	-59.2
3803.952	-58.2
3806.602	-60.2
3809.251	-57.2
3811.897	-58.2
3814.542	-62.2
3817.184	-59.2
3819.825	-51.2
3822.463	-51.2
3825.1	-55.2
3827.735	-65.2
3830.367	-63.2
3832.998	-64.2
3835.627	-58.2
3838.253	-59.2
3840.878	-51.2
3843.501	-56.2
3846.122	-60.2
3848.741	-59.2
3851.358	-54.2
3853.973	-56.2
3856.586	-52.2
3859.197	-55.2
3861.806	-60.2
3864.414	-60.2
3867.019	-57.2
3869.622	-52.2
3872.224	-45.2
3874.823	-38.2
3877.421	-29.2
3880.016	-16.2
3882.61	9.8
3885.202	-0.2
3887.792	-2.2
3890.38	-26.2
3892.966	-45.2
3895.55	-53.2
3898.132	-56.2
3900.713	-56.2
3903.291	-61.2
3905.868	-51.2
3908.442	-56.2
3911.015	-57.2
3913.586	-65.2
3916.155	-63.2
3918.722	-59.2
3921.287	-60.2
3923.85	-53.2
3926.411	-61.2
3928.971	-70.2
3931.528	-61.2
3934.084	-55.2
3936.638	-57.2
3939.19	-60.2
3941.74	-59.2
3944.288	-57.2
3946.834	-57.2
3949.378	-62.2
3951.921	-61.2
3954.462	-59.2
3957	-57.2
3959.537	-55.2
3962.072	-56.2
3964.606	-56.2
3967.137	-62.2
3969.667	-64.2
3972.194	-57.2
3974.72	-58.2
3977.244	-55.2
3979.766	-59.2
3982.286	-57.2
3984.805	-65.2
3987.321	-59.2
3989.836	-56.2
3992.349	-57.2
3994.86	-65.2
3997.369	-59.2
3999.877	-57.2
4002.382	-60.2
4004.886	-56.2
4007.388	-62.2
4009.888	-62.2
4012.386	-62.2
4014.883	-56.2
4017.377	-53.2
4019.87	-57.2
4022.361	-62.2
4024.85	-59.2
4027.338	-63.2
4029.823	-60.2
4032.307	-62.2
4034.789	-59.2
4037.269	-55.2
4039.747	-59.2
4042.224	-61.2
4044.699	-64.2
4047.172	-63.2
4049.643	-63.2
4052.112	-62.2
4054.58	-61.2
4057.046	-57.2
4059.51	-62.2
4061.972	-64.2
4064.432	-54.2
4066.891	-53.2
4069.348	-53.2
4071.803	-56.2
4074.256	-54.2
4076.708	-57.2
4079.158	-62.2
4081.606	-58.2
4084.052	-57.2
4086.497	-53.2
4088.939	-60.2
4091.38	-64.2
4093.819	-63.2
4096.257	-59.2
4098.693	-61.2
4101.127	-56.2
4103.559	-64.2
4105.989	31.8
4108.418	23.8
4110.845	21.8
4113.27	20.8
4115.694	20.8
4118.115	16.8
4120.535	-60.2
4122.954	-57.2
4125.37	-61.2
4127.785	-56.2
4130.198	-57.2
4132.609	-61.2
4135.019	-59.2
4137.427	-64.2
4139.833	-60.2
4142.237	-62.2
