Data from 2018-3-7 Ethanol_RamanShift_03.txt Node
Date: Wed Mar 07 09:57:23 IST 2018
User: aro
Spectrometer: QEPB0276
Trigger mode: 0
Integration Time (sec): 3.000000E1
Scans to average: 1
Electric dark correction enabled: true
Nonlinearity correction enabled: false
Boxcar width: 0
XAxis mode: Raman Shifts
Number of Pixels in Spectrum: 1044
>>>>>Begin Spectral Data<<<<<
160.701	13.8
166.742	37.8
172.777	86.8
178.805	269.8
184.826	712.8
190.841	1513.8
196.849	2509.8
202.85	3265.8
208.845	3524.8
214.833	3489.8
220.815	3385.8
226.789	3333.8
232.758	3313.8
238.719	3274.8
244.674	3238.8
250.623	3172.8
256.565	3138.8
262.5	3078.8
268.429	3046.8
274.351	3021.8
280.267	2987.8
286.176	2939.8
292.079	2894.8
297.975	2808.8
303.865	2773.8
309.748	2673.8
315.625	2658.8
321.495	2635.8
327.359	2614.8
333.217	2587.8
339.068	2582.8
344.912	2580.8
350.751	2605.8
356.583	2618.8
362.408	2615.8
368.227	2666.8
374.04	2697.8
379.847	2738.8
385.647	2807.8
391.44	2875.8
397.228	2926.8
403.009	3044.8
408.784	3208.8
414.553	3436.8
420.315	3772.8
426.071	4313.8
431.821	4956.8
437.565	5530.8
443.302	5674.8
449.033	5339.8
454.758	4668.8
460.477	4105.8
466.189	3640.8
471.896	3336.8
477.596	3142.8
483.29	2971.8
488.978	2885.8
494.66	2813.8
500.335	2709.8
506.005	2575.8
511.668	2419.8
517.325	2299.8
522.977	2156.8
528.622	2075.8
534.261	2003.8
539.894	1947.8
545.521	1916.8
551.141	1891.8
556.756	1847.8
562.365	1816.8
567.968	1798.8
573.565	1798.8
579.155	1780.8
584.74	1748.8
590.319	1734.8
595.892	1746.8
601.459	1731.8
607.02	1740.8
612.575	1717.8
618.124	1665.8
623.667	1656.8
629.204	1637.8
634.735	1607.8
640.261	1585.8
645.781	1592.8
651.294	1584.8
656.802	1542.8
662.304	1554.8
667.8	1560.8
673.29	1570.8
678.775	1557.8
684.254	1549.8
689.726	1518.8
695.193	1512.8
700.655	1515.8
706.11	1501.8
711.56	1499.8
717.004	1499.8
722.442	1497.8
727.874	1483.8
733.301	1496.8
738.722	1487.8
744.137	1499.8
749.547	1497.8
754.951	1506.8
760.349	1533.8
765.741	1560.8
771.128	1563.8
776.509	1611.8
781.885	1667.8
787.254	1708.8
792.618	1753.8
797.977	1778.8
803.33	1837.8
808.677	1896.8
814.019	1947.8
819.355	1978.8
824.686	1968.8
830.011	2012.8
835.33	2084.8
840.644	2171.8
845.952	2323.8
851.255	2546.8
856.552	2951.8
861.844	3643.8
867.13	5097.8
872.41	8214.8
877.686	13860.8
882.955	20958.8
888.219	24637.8
893.478	21054.8
898.731	13216.8
903.979	7291.8
909.221	4418.8
914.458	3181.8
919.69	2606.8
924.916	2273.8
930.136	2050.8
935.351	1906.8
940.561	1813.8
945.766	1744.8
950.965	1694.8
956.158	1644.8
961.347	1600.8
966.529	1577.8
971.707	1567.8
976.879	1551.8
982.046	1561.8
987.208	1609.8
992.364	1669.8
997.515	1769.8
1002.66	1884.8
1007.801	2123.8
1012.936	2430.8
1018.066	2831.8
1023.19	3326.8
1028.309	3842.8
1033.423	4436.8
1038.532	5277.8
1043.636	6456.8
1048.734	8042.8
1053.827	9242.8
1058.915	9128.8
1063.998	7883.8
1069.075	6539.8
1074.147	5906.8
1079.214	6077.8
1084.276	6988.8
1089.333	8218.8
1094.385	9290.8
1099.431	9351.8
1104.472	8195.8
1109.509	6407.8
1114.54	5002.8
1119.565	4206.8
1124.586	3795.8
1129.602	3458.8
1134.613	3139.8
1139.618	2760.8
1144.619	2415.8
1149.614	2185.8
1154.604	2000.8
1159.589	1897.8
1164.57	1797.8
1169.545	1705.8
1174.515	1606.8
1179.48	1510.8
1184.44	1443.8
1189.395	1409.8
1194.345	1367.8
1199.29	1337.8
1204.23	1334.8
1209.165	1328.8
1214.095	1345.8
1219.021	1383.8
1223.941	1402.8
1228.856	1462.8
1233.766	1520.8
1238.672	1607.8
1243.572	1699.8
1248.467	1798.8
1253.358	1899.8
1258.244	2063.8
1263.124	2285.8
1268	2708.8
1272.871	3363.8
1277.737	4152.8
1282.599	4683.8
1287.455	4553.8
1292.306	3855.8
1297.153	3084.8
1301.995	2585.8
1306.832	2294.8
1311.664	2112.8
1316.491	2002.8
1321.314	1931.8
1326.132	1883.8
1330.945	1822.8
1335.753	1786.8
1340.556	1747.8
1345.354	1721.8
1350.148	1695.8
1354.937	1701.8
1359.722	1701.8
1364.501	1701.8
1369.276	1751.8
1374.046	1827.8
1378.811	1955.8
1383.572	2135.8
1388.327	2326.8
1393.079	2483.8
1397.825	2554.8
1402.567	2622.8
1407.304	2733.8
1412.036	2939.8
1416.764	3140.8
1421.487	3406.8
1426.205	3725.8
1430.919	4087.8
1435.628	4521.8
1440.333	5194.8
1445.032	6229.8
1449.727	7884.8
1454.418	9974.8
1459.104	11583.8
1463.785	11356.8
1468.462	9402.8
1473.134	7104.8
1477.802	5660.8
1482.465	5045.8
1487.123	4801.8
1491.777	4501.8
1496.426	3962.8
1501.071	3243.8
1505.711	2684.8
1510.347	2297.8
1514.978	2017.8
1519.604	1833.8
1524.226	1694.8
1528.844	1601.8
1533.457	1507.8
1538.065	1415.8
1542.669	1348.8
1547.269	1274.8
1551.864	1230.8
1556.454	1196.8
1561.041	1156.8
1565.622	1118.8
1570.199	1084.8
1574.772	1043.8
1579.34	1042.8
1583.904	1018.8
1588.464	990.8
1593.019	965.8
1597.569	931.8
1602.115	931.8
1606.657	911.8
1611.195	905.8
1615.728	891.8
1620.256	888.8
1624.78	896.8
1629.3	889.8
1633.816	868.8
1638.327	851.8
1642.834	820.8
1647.336	801.8
1651.834	776.8
1656.328	775.8
1660.817	745.8
1665.302	741.8
1669.783	706.8
1674.259	681.8
1678.732	662.8
1683.199	647.8
1687.663	627.8
1692.122	584.8
1696.577	558.8
1701.028	525.8
1705.474	482.8
1709.917	467.8
1714.355	458.8
1718.788	463.8
1723.218	467.8
1727.643	450.8
1732.064	448.8
1736.481	453.8
1740.893	425.8
1745.301	400.8
1749.705	400.8
1754.105	388.8
1758.501	364.8
1762.893	368.8
1767.28	341.8
1771.663	332.8
1776.042	326.8
1780.417	309.8
1784.787	300.8
1789.154	287.8
1793.516	276.8
1797.874	257.8
1802.228	270.8
1806.578	251.8
1810.924	258.8
1815.266	256.8
1819.603	254.8
1823.937	261.8
1828.266	263.8
1832.591	267.8
1836.913	272.8
1841.23	270.8
1845.543	262.8
1849.852	266.8
1854.156	264.8
1858.457	264.8
1862.754	271.8
1867.047	259.8
1871.335	261.8
1875.62	269.8
1879.9	260.8
1884.177	254.8
1888.449	253.8
1892.718	253.8
1896.982	247.8
1901.243	236.8
1905.499	234.8
1909.752	235.8
1914	218.8
1918.245	208.8
1922.485	213.8
1926.722	201.8
1930.954	201.8
1935.183	197.8
1939.408	193.8
1943.628	184.8
1947.845	193.8
1952.058	191.8
1956.267	194.8
1960.472	190.8
1964.673	188.8
1968.87	194.8
1973.063	197.8
1977.252	201.8
1981.438	199.8
1985.619	187.8
1989.797	198.8
1993.971	199.8
1998.14	198.8
2002.306	200.8
2006.469	204.8
2010.627	203.8
2014.781	204.8
2018.932	201.8
2023.078	196.8
2027.221	200.8
2031.36	196.8
2035.495	195.8
2039.627	186.8
2043.754	191.8
2047.878	184.8
2051.998	191.8
2056.114	176.8
2060.226	188.8
2064.334	186.8
2068.439	175.8
2072.54	182.8
2076.637	185.8
2080.73	189.8
2084.82	194.8
2088.906	196.8
2092.988	202.8
2097.066	188.8
2101.14	192.8
2105.211	189.8
2109.278	174.8
2113.342	169.8
2117.401	168.8
2121.457	167.8
2125.509	173.8
2129.558	166.8
2133.602	165.8
2137.643	169.8
2141.681	165.8
2145.714	173.8
2149.744	182.8
2153.77	177.8
2157.793	181.8
2161.812	184.8
2165.827	183.8
2169.838	180.8
2173.846	180.8
2177.851	176.8
2181.851	189.8
2185.848	171.8
2189.841	175.8
2193.831	179.8
2197.817	183.8
2201.799	177.8
2205.778	171.8
2209.753	179.8
2213.725	172.8
2217.693	176.8
2221.657	177.8
2225.618	171.8
2229.575	178.8
2233.529	179.8
2237.479	191.8
2241.425	183.8
2245.368	194.8
2249.307	195.8
2253.243	190.8
2257.175	194.8
2261.104	199.8
2265.029	196.8
2268.95	190.8
2272.868	191.8
2276.783	196.8
2280.694	189.8
2284.601	190.8
2288.505	206.8
2292.405	204.8
2296.302	188.8
2300.195	187.8
2304.085	180.8
2307.971	181.8
2311.854	171.8
2315.734	162.8
2319.609	166.8
2323.482	163.8
2327.351	160.8
2331.216	180.8
2335.078	191.8
2338.937	185.8
2342.792	160.8
2346.643	158.8
2350.492	155.8
2354.336	146.8
2358.178	153.8
2362.015	145.8
2365.85	144.8
2369.681	149.8
2373.508	149.8
2377.333	152.8
2381.153	140.8
2384.971	138.8
2388.785	137.8
2392.595	148.8
2396.402	145.8
2400.206	154.8
2404.007	138.8
2407.804	141.8
2411.597	142.8
2415.388	154.8
2419.174	150.8
2422.958	153.8
2426.738	159.8
2430.515	154.8
2434.289	164.8
2438.059	165.8
2441.825	159.8
2445.589	166.8
2449.349	174.8
2453.106	165.8
2456.859	175.8
2460.61	173.8
2464.356	176.8
2468.1	175.8
2471.84	173.8
2475.577	164.8
2479.311	173.8
2483.041	166.8
2486.768	158.8
2490.492	166.8
2494.213	169.8
2497.93	168.8
2501.644	174.8
2505.355	159.8
2509.062	167.8
2512.766	171.8
2516.467	168.8
2520.165	175.8
2523.859	179.8
2527.551	178.8
2531.239	193.8
2534.923	188.8
2538.605	201.8
2542.283	211.8
2545.958	233.8
2549.63	241.8
2553.299	242.8
2556.964	234.8
2560.626	229.8
2564.285	228.8
2567.941	219.8
2571.594	208.8
2575.243	217.8
2578.89	217.8
2582.533	212.8
2586.173	211.8
2589.809	214.8
2593.443	215.8
2597.073	215.8
2600.701	220.8
2604.325	214.8
2607.946	216.8
2611.564	223.8
2615.178	228.8
2618.79	226.8
2622.398	222.8
2626.004	225.8
2629.606	224.8
2633.205	234.8
2636.801	232.8
2640.394	241.8
2643.983	241.8
2647.57	252.8
2651.153	250.8
2654.734	265.8
2658.311	277.8
2661.885	283.8
2665.456	293.8
2669.025	310.8
2672.589	309.8
2676.151	335.8
2679.71	344.8
2683.266	364.8
2686.819	397.8
2690.368	424.8
2693.915	455.8
2697.458	521.8
2700.999	573.8
2704.536	638.8
2708.071	709.8
2711.602	784.8
2715.13	837.8
2718.656	901.8
2722.178	927.8
2725.697	955.8
2729.214	946.8
2732.727	920.8
2736.237	882.8
2739.744	839.8
2743.249	779.8
2746.75	746.8
2750.248	740.8
2753.743	725.8
2757.236	716.8
2760.725	688.8
2764.211	676.8
2767.695	641.8
2771.175	625.8
2774.652	620.8
2778.127	626.8
2781.598	615.8
2785.067	625.8
2788.532	648.8
2791.995	677.8
2795.455	706.8
2798.911	751.8
2802.365	800.8
2805.816	845.8
2809.264	912.8
2812.709	960.8
2816.151	1068.8
2819.59	1156.8
2823.026	1265.8
2826.46	1380.8
2829.89	1524.8
2833.318	1658.8
2836.742	1865.8
2840.164	2000.8
2843.583	2156.8
2846.999	2267.8
2850.412	2386.8
2853.822	2513.8
2857.229	2668.8
2860.634	2912.8
2864.035	3187.8
2867.434	3546.8
2870.83	3993.8
2874.223	4545.8
2877.613	5137.8
2881	5726.8
2884.385	6068.8
2887.766	6226.8
2891.145	6220.8
2894.521	6103.8
2897.894	5982.8
2901.264	5851.8
2904.631	5739.8
2907.996	5620.8
2911.358	5563.8
2914.717	5571.8
2918.073	5774.8
2921.426	6112.8
2924.777	6689.8
2928.124	7527.8
2931.469	8355.8
2934.811	8886.8
2938.15	8815.8
2941.487	8227.8
2944.821	7346.8
2948.152	6532.8
2951.48	5784.8
2954.805	5078.8
2958.128	4563.8
2961.447	4172.8
2964.765	3913.8
2968.079	3815.8
2971.39	3768.8
2974.699	3779.8
2978.005	3800.8
2981.308	3699.8
2984.609	3468.8
2987.907	3145.8
2991.202	2803.8
2994.494	2444.8
2997.784	2111.8
3001.07	1850.8
3004.355	1653.8
3007.636	1454.8
3010.915	1310.8
3014.191	1182.8
3017.464	1094.8
3020.734	1002.8
3024.002	923.8
3027.267	876.8
3030.53	806.8
3033.789	752.8
3037.046	716.8
3040.301	686.8
3043.552	644.8
3046.801	627.8
3050.048	586.8
3053.291	568.8
3056.532	550.8
3059.771	534.8
3063.006	512.8
3066.239	504.8
3069.469	487.8
3072.697	474.8
3075.922	460.8
3079.144	456.8
3082.364	445.8
3085.581	435.8
3088.795	422.8
3092.007	409.8
3095.216	415.8
3098.423	394.8
3101.627	384.8
3104.828	381.8
3108.026	379.8
3111.222	364.8
3114.416	362.8
3117.607	365.8
3120.795	362.8
3123.98	349.8
3127.163	370.8
3130.344	363.8
3133.521	352.8
3136.696	361.8
3139.869	369.8
3143.039	368.8
3146.206	372.8
3149.371	368.8
3152.533	375.8
3155.693	367.8
3158.85	369.8
3162.005	378.8
3165.157	363.8
3168.306	374.8
3171.453	374.8
3174.597	364.8
3177.739	378.8
3180.878	375.8
3184.014	371.8
3187.149	364.8
3190.28	370.8
3193.409	379.8
3196.536	371.8
3199.659	375.8
3202.781	368.8
3205.9	382.8
3209.016	371.8
3212.13	380.8
3215.241	371.8
3218.35	366.8
3221.456	362.8
3224.56	351.8
3227.661	351.8
3230.76	347.8
3233.856	336.8
3236.95	326.8
3240.041	328.8
3243.13	313.8
3246.216	306.8
3249.3	308.8
3252.382	302.8
3255.46	300.8
3258.537	287.8
3261.611	296.8
3264.682	285.8
3267.751	288.8
3270.818	271.8
3273.882	274.8
3276.943	281.8
3280.002	279.8
3283.059	282.8
3286.113	274.8
3289.165	272.8
3292.214	279.8
3295.261	266.8
3298.306	267.8
3301.348	265.8
3304.387	265.8
3307.425	260.8
3310.459	255.8
3313.492	257.8
3316.521	261.8
3319.549	269.8
3322.574	258.8
3325.597	252.8
3328.617	246.8
3331.635	256.8
3334.65	269.8
3337.663	255.8
3340.674	255.8
3343.682	252.8
3346.688	251.8
3349.691	249.8
3352.692	258.8
3355.691	260.8
3358.687	257.8
3361.681	259.8
3364.673	250.8
3367.662	244.8
3370.649	249.8
3373.633	225.8
3376.615	225.8
3379.595	222.8
3382.572	216.8
3385.547	221.8
3388.52	212.8
3391.49	213.8
3394.458	205.8
3397.424	209.8
3400.387	197.8
3403.348	191.8
3406.307	196.8
3409.263	183.8
3412.217	189.8
3415.168	198.8
3418.118	184.8
3421.065	174.8
3424.009	179.8
3426.951	166.8
3429.891	165.8
3432.829	157.8
3435.764	160.8
3438.697	156.8
3441.628	136.8
3444.557	133.8
3447.483	134.8
3450.407	115.8
3453.328	117.8
3456.247	117.8
3459.164	112.8
3462.079	87.8
3464.991	91.8
3467.902	80.8
3470.809	86.8
3473.715	76.8
3476.618	74.8
3479.519	67.8
3482.418	55.8
3485.315	58.8
3488.209	46.8
3491.101	39.8
3493.99	45.8
3496.878	36.8
3499.763	28.8
3502.646	28.8
3505.527	25.8
3508.405	16.8
3511.281	15.8
3514.155	12.8
3517.027	8.8
3519.897	6.8
3522.764	-2.2
3525.629	-8.2
3528.492	-13.2
3531.352	-16.2
3534.211	-15.2
3537.067	-18.2
3539.921	-20.2
3542.773	-28.2
3545.622	-30.2
3548.469	-30.2
3551.315	-25.2
3554.157	-29.2
3556.998	-29.2
3559.837	-41.2
3562.673	-40.2
3565.507	-45.2
3568.339	-42.2
3571.169	-46.2
3573.996	-42.2
3576.822	-49.2
3579.645	-53.2
3582.466	-44.2
3585.285	-56.2
3588.101	-58.2
3590.916	-53.2
3593.728	-67.2
3596.538	-59.2
3599.346	-62.2
3602.152	-64.2
3604.956	-61.2
3607.757	-57.2
3610.556	-67.2
3613.354	-75.2
3616.149	-72.2
3618.942	-65.2
3621.732	-70.2
3624.521	-72.2
3627.307	-73.2
3630.092	-77.2
3632.874	-71.2
3635.654	-72.2
3638.432	-75.2
3641.208	-71.2
3643.982	-71.2
3646.753	-74.2
3649.523	-76.2
3652.29	-71.2
3655.055	-75.2
3657.818	-81.2
3660.579	-82.2
3663.338	-76.2
3666.095	-84.2
3668.849	-81.2
3671.602	-78.2
3674.352	-72.2
3677.101	-80.2
3679.847	-82.2
3682.591	-85.2
3685.333	-83.2
3688.073	-88.2
3690.811	-79.2
3693.547	-84.2
3696.281	-78.2
3699.013	-88.2
3701.742	-91.2
3704.47	-81.2
3707.195	-84.2
3709.919	-81.2
3712.64	-87.2
3715.359	-87.2
3718.076	-92.2
3720.792	-90.2
3723.505	-90.2
3726.216	-87.2
3728.925	-92.2
3731.632	-88.2
3734.336	-85.2
3737.039	-89.2
3739.74	-91.2
3742.439	-94.2
3745.136	-97.2
3747.83	-88.2
3750.523	-93.2
3753.213	-105.2
3755.902	-90.2
3758.589	-88.2
3761.273	-86.2
3763.956	-94.2
3766.636	-90.2
3769.315	-85.2
3771.991	-90.2
3774.665	-95.2
3777.338	-87.2
3780.008	-96.2
3782.677	-99.2
3785.343	-93.2
3788.007	-94.2
3790.67	-98.2
3793.33	-94.2
3795.989	-94.2
3798.645	-101.2
3801.299	-92.2
3803.952	-93.2
3806.602	-96.2
3809.251	-96.2
3811.897	-96.2
3814.542	-100.2
3817.184	-97.2
3819.825	-94.2
3822.463	-94.2
3825.1	-90.2
3827.735	-94.2
3830.367	-101.2
3832.998	-97.2
3835.627	-100.2
3838.253	-94.2
3840.878	-90.2
3843.501	-91.2
3846.122	-98.2
3848.741	-99.2
3851.358	-97.2
3853.973	-91.2
3856.586	-92.2
3859.197	-91.2
3861.806	-91.2
3864.414	-99.2
3867.019	-94.2
3869.622	-88.2
3872.224	-82.2
3874.823	-73.2
3877.421	-67.2
3880.016	-54.2
3882.61	-28.2
3885.202	-34.2
3887.792	-42.2
3890.38	-60.2
3892.966	-75.2
3895.55	-80.2
3898.132	-93.2
3900.713	-96.2
3903.291	-93.2
3905.868	-95.2
3908.442	-94.2
3911.015	-95.2
3913.586	-100.2
3916.155	-96.2
3918.722	-97.2
3921.287	-98.2
3923.85	-90.2
3926.411	-99.2
3928.971	-97.2
3931.528	-93.2
3934.084	-96.2
3936.638	-98.2
3939.19	-104.2
3941.74	-97.2
3944.288	-97.2
3946.834	-93.2
3949.378	-97.2
3951.921	-100.2
3954.462	-100.2
3957	-88.2
3959.537	-88.2
3962.072	-89.2
3964.606	-91.2
3967.137	-91.2
3969.667	-96.2
3972.194	-97.2
3974.72	-92.2
3977.244	-95.2
3979.766	-94.2
3982.286	-99.2
3984.805	-101.2
3987.321	-92.2
3989.836	-94.2
3992.349	-101.2
3994.86	-96.2
3997.369	-97.2
3999.877	-97.2
4002.382	-97.2
4004.886	-94.2
4007.388	-98.2
4009.888	-93.2
4012.386	-95.2
4014.883	-95.2
4017.377	-92.2
4019.87	-93.2
4022.361	-94.2
4024.85	-91.2
4027.338	-96.2
4029.823	-98.2
4032.307	-98.2
4034.789	-92.2
4037.269	-96.2
4039.747	-98.2
4042.224	-99.2
4044.699	-100.2
4047.172	-97.2
4049.643	-94.2
4052.112	-94.2
4054.58	-96.2
4057.046	-95.2
4059.51	-102.2
4061.972	-102.2
4064.432	-93.2
4066.891	-94.2
4069.348	-91.2
4071.803	-90.2
4074.256	-93.2
4076.708	-94.2
4079.158	-96.2
4081.606	-93.2
4084.052	-92.2
4086.497	-87.2
4088.939	-92.2
4091.38	-100.2
4093.819	-102.2
4096.257	-99.2
4098.693	-103.2
4101.127	-99.2
4103.559	-105.2
4105.989	23.8
4108.418	18.8
4110.845	6.8
4113.27	6.8
4115.694	13.8
4118.115	4.8
4120.535	-93.2
4122.954	-95.2
4125.37	-94.2
4127.785	-84.2
4130.198	-90.2
4132.609	-96.2
4135.019	-102.2
4137.427	-105.2
4139.833	-99.2
4142.237	-101.2
