Data from 2018-3-7_conc=5_n=7_RamanShift_05.txt Node
Date: Wed Mar 07 12:45:22 IST 2018
User: aro
Spectrometer: QEPB0276
Trigger mode: 0
Integration Time (sec): 3.000000E1
Scans to average: 1
Electric dark correction enabled: true
Nonlinearity correction enabled: false
Boxcar width: 0
XAxis mode: Raman Shifts
Number of Pixels in Spectrum: 1044
>>>>>Begin Spectral Data<<<<<
160.701	2.2
166.742	15.2
172.777	63.2
178.805	191.2
184.826	523.2
190.841	1133.2
196.849	1918.2
202.85	2559.2
208.845	2790.2
214.833	2801.2
220.815	2744.2
226.789	2741.2
232.758	2728.2
238.719	2728.2
244.674	2700.2
250.623	2692.2
256.565	2649.2
262.5	2618.2
268.429	2580.2
274.351	2540.2
280.267	2525.2
286.176	2505.2
292.079	2519.2
297.975	2505.2
303.865	2478.2
309.748	2485.2
315.625	2484.2
321.495	2475.2
327.359	2457.2
333.217	2464.2
339.068	2481.2
344.912	2477.2
350.751	2474.2
356.583	2484.2
362.408	2470.2
368.227	2484.2
374.04	2475.2
379.847	2486.2
385.647	2492.2
391.44	2507.2
397.228	2505.2
403.009	2532.2
408.784	2529.2
414.553	2560.2
420.315	2556.2
426.071	2548.2
431.821	2564.2
437.565	2544.2
443.302	2530.2
449.033	2526.2
454.758	2521.2
460.477	2525.2
466.189	2507.2
471.896	2496.2
477.596	2498.2
483.29	2466.2
488.978	2453.2
494.66	2464.2
500.335	2422.2
506.005	2346.2
511.668	2301.2
517.325	2263.2
522.977	2202.2
528.622	2176.2
534.261	2138.2
539.894	2131.2
545.521	2100.2
551.141	2105.2
556.756	2095.2
562.365	2097.2
567.968	2060.2
573.565	2032.2
579.155	2048.2
584.74	2045.2
590.319	2039.2
595.892	2036.2
601.459	2016.2
607.02	2003.2
612.575	1996.2
618.124	1967.2
623.667	1972.2
629.204	1951.2
634.735	1928.2
640.261	1943.2
645.781	1903.2
651.294	1921.2
656.802	1891.2
662.304	1906.2
667.8	1896.2
673.29	1905.2
678.775	1901.2
684.254	1877.2
689.726	1858.2
695.193	1858.2
700.655	1832.2
706.11	1851.2
711.56	1828.2
717.004	1819.2
722.442	1807.2
727.874	1808.2
733.301	1806.2
738.722	1777.2
744.137	1780.2
749.547	1788.2
754.951	1753.2
760.349	1787.2
765.741	1786.2
771.128	1783.2
776.509	1810.2
781.885	1830.2
787.254	1801.2
792.618	1792.2
797.977	1792.2
803.33	1778.2
808.677	1766.2
814.019	1741.2
819.355	1738.2
824.686	1733.2
830.011	1731.2
835.33	1713.2
840.644	1706.2
845.952	1729.2
851.255	1732.2
856.552	1706.2
861.844	1697.2
867.13	1699.2
872.41	1699.2
877.686	1680.2
882.955	1684.2
888.219	1647.2
893.478	1645.2
898.731	1611.2
903.979	1596.2
909.221	1582.2
914.458	1573.2
919.69	1586.2
924.916	1591.2
930.136	1588.2
935.351	1603.2
940.561	1579.2
945.766	1576.2
950.965	1595.2
956.158	1569.2
961.347	1546.2
966.529	1541.2
971.707	1504.2
976.879	1480.2
982.046	1475.2
987.208	1475.2
992.364	1468.2
997.515	1459.2
1002.66	1496.2
1007.801	1491.2
1012.936	1503.2
1018.066	1519.2
1023.19	1506.2
1028.309	1494.2
1033.423	1517.2
1038.532	1503.2
1043.636	1495.2
1048.734	1471.2
1053.827	1449.2
1058.915	1445.2
1063.998	1423.2
1069.075	1409.2
1074.147	1412.2
1079.214	1425.2
1084.276	1408.2
1089.333	1446.2
1094.385	1416.2
1099.431	1435.2
1104.472	1428.2
1109.509	1421.2
1114.54	1417.2
1119.565	1391.2
1124.586	1367.2
1129.602	1371.2
1134.613	1358.2
1139.618	1347.2
1144.619	1343.2
1149.614	1350.2
1154.604	1340.2
1159.589	1337.2
1164.57	1360.2
1169.545	1340.2
1174.515	1356.2
1179.48	1341.2
1184.44	1340.2
1189.395	1322.2
1194.345	1311.2
1199.29	1307.2
1204.23	1304.2
1209.165	1300.2
1214.095	1316.2
1219.021	1319.2
1223.941	1329.2
1228.856	1325.2
1233.766	1332.2
1238.672	1350.2
1243.572	1343.2
1248.467	1321.2
1253.358	1300.2
1258.244	1296.2
1263.124	1277.2
1268	1256.2
1272.871	1241.2
1277.737	1225.2
1282.599	1217.2
1287.455	1216.2
1292.306	1222.2
1297.153	1227.2
1301.995	1246.2
1306.832	1249.2
1311.664	1253.2
1316.491	1249.2
1321.314	1239.2
1326.132	1247.2
1330.945	1233.2
1335.753	1205.2
1340.556	1180.2
1345.354	1165.2
1350.148	1137.2
1354.937	1109.2
1359.722	1082.2
1364.501	1055.2
1369.276	1032.2
1374.046	1012.2
1378.811	993.2
1383.572	993.2
1388.327	992.2
1393.079	988.2
1397.825	1003.2
1402.567	1006.2
1407.304	1002.2
1412.036	1019.2
1416.764	1021.2
1421.487	1035.2
1426.205	1025.2
1430.919	1032.2
1435.628	1054.2
1440.333	1052.2
1445.032	1050.2
1449.727	1061.2
1454.418	1059.2
1459.104	1063.2
1463.785	1036.2
1468.462	1025.2
1473.134	1009.2
1477.802	967.2
1482.465	941.2
1487.123	930.2
1491.777	924.2
1496.426	904.2
1501.071	888.2
1505.711	886.2
1510.347	857.2
1514.978	868.2
1519.604	847.2
1524.226	843.2
1528.844	840.2
1533.457	835.2
1538.065	837.2
1542.669	831.2
1547.269	814.2
1551.864	829.2
1556.454	870.2
1561.041	870.2
1565.622	881.2
1570.199	879.2
1574.772	877.2
1579.34	894.2
1583.904	916.2
1588.464	914.2
1593.019	928.2
1597.569	951.2
1602.115	919.2
1606.657	922.2
1611.195	919.2
1615.728	914.2
1620.256	917.2
1624.78	921.2
1629.3	915.2
1633.816	920.2
1638.327	927.2
1642.834	918.2
1647.336	922.2
1651.834	927.2
1656.328	921.2
1660.817	920.2
1665.302	889.2
1669.783	886.2
1674.259	867.2
1678.732	848.2
1683.199	792.2
1687.663	794.2
1692.122	745.2
1696.577	709.2
1701.028	666.2
1705.474	624.2
1709.917	615.2
1714.355	588.2
1718.788	596.2
1723.218	601.2
1727.643	607.2
1732.064	613.2
1736.481	596.2
1740.893	585.2
1745.301	574.2
1749.705	570.2
1754.105	562.2
1758.501	547.2
1762.893	534.2
1767.28	533.2
1771.663	521.2
1776.042	514.2
1780.417	507.2
1784.787	491.2
1789.154	486.2
1793.516	455.2
1797.874	459.2
1802.228	449.2
1806.578	443.2
1810.924	442.2
1815.266	435.2
1819.603	440.2
1823.937	447.2
1828.266	447.2
1832.591	463.2
1836.913	453.2
1841.23	476.2
1845.543	456.2
1849.852	463.2
1854.156	473.2
1858.457	472.2
1862.754	468.2
1867.047	463.2
1871.335	469.2
1875.62	462.2
1879.9	465.2
1884.177	447.2
1888.449	444.2
1892.718	444.2
1896.982	431.2
1901.243	420.2
1905.499	419.2
1909.752	399.2
1914	401.2
1918.245	399.2
1922.485	389.2
1926.722	386.2
1930.954	377.2
1935.183	374.2
1939.408	367.2
1943.628	362.2
1947.845	350.2
1952.058	338.2
1956.267	345.2
1960.472	340.2
1964.673	333.2
1968.87	339.2
1973.063	337.2
1977.252	351.2
1981.438	344.2
1985.619	350.2
1989.797	347.2
1993.971	355.2
1998.14	359.2
2002.306	355.2
2006.469	356.2
2010.627	368.2
2014.781	367.2
2018.932	359.2
2023.078	366.2
2027.221	366.2
2031.36	355.2
2035.495	346.2
2039.627	341.2
2043.754	334.2
2047.878	329.2
2051.998	327.2
2056.114	332.2
2060.226	321.2
2064.334	322.2
2068.439	313.2
2072.54	317.2
2076.637	325.2
2080.73	322.2
2084.82	311.2
2088.906	313.2
2092.988	306.2
2097.066	306.2
2101.14	296.2
2105.211	288.2
2109.278	284.2
2113.342	277.2
2117.401	285.2
2121.457	274.2
2125.509	284.2
2129.558	264.2
2133.602	277.2
2137.643	275.2
2141.681	274.2
2145.714	269.2
2149.744	276.2
2153.77	279.2
2157.793	277.2
2161.812	291.2
2165.827	280.2
2169.838	276.2
2173.846	273.2
2177.851	266.2
2181.851	271.2
2185.848	270.2
2189.841	266.2
2193.831	256.2
2197.817	263.2
2201.799	267.2
2205.778	262.2
2209.753	260.2
2213.725	265.2
2217.693	260.2
2221.657	263.2
2225.618	251.2
2229.575	254.2
2233.529	250.2
2237.479	261.2
2241.425	241.2
2245.368	242.2
2249.307	241.2
2253.243	242.2
2257.175	238.2
2261.104	228.2
2265.029	224.2
2268.95	234.2
2272.868	223.2
2276.783	222.2
2280.694	213.2
2284.601	211.2
2288.505	216.2
2292.405	215.2
2296.302	224.2
2300.195	210.2
2304.085	203.2
2307.971	203.2
2311.854	197.2
2315.734	191.2
2319.609	199.2
2323.482	189.2
2327.351	198.2
2331.216	203.2
2335.078	214.2
2338.937	205.2
2342.792	202.2
2346.643	195.2
2350.492	191.2
2354.336	201.2
2358.178	193.2
2362.015	210.2
2365.85	200.2
2369.681	198.2
2373.508	207.2
2377.333	199.2
2381.153	204.2
2384.971	196.2
2388.785	205.2
2392.595	204.2
2396.402	203.2
2400.206	203.2
2404.007	192.2
2407.804	203.2
2411.597	195.2
2415.388	191.2
2419.174	204.2
2422.958	183.2
2426.738	190.2
2430.515	194.2
2434.289	187.2
2438.059	184.2
2441.825	188.2
2445.589	190.2
2449.349	177.2
2453.106	186.2
2456.859	180.2
2460.61	174.2
2464.356	176.2
2468.1	174.2
2471.84	173.2
2475.577	167.2
2479.311	169.2
2483.041	167.2
2486.768	166.2
2490.492	161.2
2494.213	159.2
2497.93	163.2
2501.644	164.2
2505.355	146.2
2509.062	155.2
2512.766	158.2
2516.467	156.2
2520.165	149.2
2523.859	159.2
2527.551	144.2
2531.239	139.2
2534.923	136.2
2538.605	142.2
2542.283	135.2
2545.958	132.2
2549.63	138.2
2553.299	131.2
2556.964	125.2
2560.626	127.2
2564.285	128.2
2567.941	121.2
2571.594	127.2
2575.243	120.2
2578.89	110.2
2582.533	115.2
2586.173	110.2
2589.809	112.2
2593.443	120.2
2597.073	108.2
2600.701	114.2
2604.325	100.2
2607.946	100.2
2611.564	110.2
2615.178	102.2
2618.79	105.2
2622.398	113.2
2626.004	103.2
2629.606	107.2
2633.205	105.2
2636.801	101.2
2640.394	111.2
2643.983	102.2
2647.57	97.2
2651.153	104.2
2654.734	97.2
2658.311	97.2
2661.885	97.2
2665.456	98.2
2669.025	97.2
2672.589	94.2
2676.151	89.2
2679.71	85.2
2683.266	87.2
2686.819	95.2
2690.368	98.2
2693.915	95.2
2697.458	84.2
2700.999	90.2
2704.536	90.2
2708.071	90.2
2711.602	82.2
2715.13	80.2
2718.656	81.2
2722.178	69.2
2725.697	72.2
2729.214	69.2
2732.727	76.2
2736.237	75.2
2739.744	64.2
2743.249	64.2
2746.75	64.2
2750.248	59.2
2753.743	56.2
2757.236	51.2
2760.725	53.2
2764.211	45.2
2767.695	47.2
2771.175	48.2
2774.652	47.2
2778.127	51.2
2781.598	47.2
2785.067	57.2
2788.532	44.2
2791.995	57.2
2795.455	52.2
2798.911	57.2
2802.365	55.2
2805.816	52.2
2809.264	48.2
2812.709	56.2
2816.151	54.2
2819.59	62.2
2823.026	57.2
2826.46	59.2
2829.89	54.2
2833.318	49.2
2836.742	64.2
2840.164	55.2
2843.583	52.2
2846.999	58.2
2850.412	61.2
2853.822	58.2
2857.229	65.2
2860.634	54.2
2864.035	55.2
2867.434	61.2
2870.83	71.2
2874.223	71.2
2877.613	71.2
2881	70.2
2884.385	72.2
2887.766	75.2
2891.145	75.2
2894.521	77.2
2897.894	74.2
2901.264	71.2
2904.631	72.2
2907.996	79.2
2911.358	84.2
2914.717	80.2
2918.073	82.2
2921.426	83.2
2924.777	88.2
2928.124	91.2
2931.469	96.2
2934.811	99.2
2938.15	96.2
2941.487	108.2
2944.821	94.2
2948.152	99.2
2951.48	96.2
2954.805	106.2
2958.128	94.2
2961.447	99.2
2964.765	93.2
2968.079	88.2
2971.39	85.2
2974.699	89.2
2978.005	96.2
2981.308	84.2
2984.609	92.2
2987.907	94.2
2991.202	85.2
2994.494	95.2
2997.784	89.2
3001.07	90.2
3004.355	100.2
3007.636	101.2
3010.915	98.2
3014.191	95.2
3017.464	92.2
3020.734	102.2
3024.002	100.2
3027.267	109.2
3030.53	105.2
3033.789	104.2
3037.046	108.2
3040.301	116.2
3043.552	121.2
3046.801	129.2
3050.048	127.2
3053.291	133.2
3056.532	142.2
3059.771	137.2
3063.006	154.2
3066.239	154.2
3069.469	161.2
3072.697	158.2
3075.922	176.2
3079.144	182.2
3082.364	180.2
3085.581	178.2
3088.795	182.2
3092.007	193.2
3095.216	196.2
3098.423	190.2
3101.627	193.2
3104.828	202.2
3108.026	206.2
3111.222	216.2
3114.416	222.2
3117.607	214.2
3120.795	224.2
3123.98	224.2
3127.163	244.2
3130.344	233.2
3133.521	251.2
3136.696	253.2
3139.869	258.2
3143.039	259.2
3146.206	268.2
3149.371	268.2
3152.533	274.2
3155.693	269.2
3158.85	271.2
3162.005	274.2
3165.157	269.2
3168.306	276.2
3171.453	277.2
3174.597	279.2
3177.739	282.2
3180.878	291.2
3184.014	292.2
3187.149	288.2
3190.28	286.2
3193.409	284.2
3196.536	290.2
3199.659	291.2
3202.781	301.2
3205.9	279.2
3209.016	286.2
3212.13	290.2
3215.241	283.2
3218.35	283.2
3221.456	284.2
3224.56	281.2
3227.661	274.2
3230.76	267.2
3233.856	261.2
3236.95	255.2
3240.041	251.2
3243.13	247.2
3246.216	246.2
3249.3	235.2
3252.382	241.2
3255.46	237.2
3258.537	240.2
3261.611	231.2
3264.682	224.2
3267.751	234.2
3270.818	219.2
3273.882	219.2
3276.943	216.2
3280.002	215.2
3283.059	217.2
3286.113	221.2
3289.165	208.2
3292.214	208.2
3295.261	210.2
3298.306	210.2
3301.348	212.2
3304.387	206.2
3307.425	191.2
3310.459	198.2
3313.492	203.2
3316.521	204.2
3319.549	212.2
3322.574	199.2
3325.597	194.2
3328.617	197.2
3331.635	204.2
3334.65	207.2
3337.663	196.2
3340.674	204.2
3343.682	201.2
3346.688	198.2
3349.691	196.2
3352.692	196.2
3355.691	194.2
3358.687	202.2
3361.681	191.2
3364.673	200.2
3367.662	188.2
3370.649	189.2
3373.633	185.2
3376.615	185.2
3379.595	171.2
3382.572	170.2
3385.547	186.2
3388.52	170.2
3391.49	167.2
3394.458	161.2
3397.424	164.2
3400.387	158.2
3403.348	151.2
3406.307	143.2
3409.263	148.2
3412.217	148.2
3415.168	151.2
3418.118	135.2
3421.065	143.2
3424.009	144.2
3426.951	130.2
3429.891	130.2
3432.829	126.2
3435.764	135.2
3438.697	129.2
3441.628	114.2
3444.557	119.2
3447.483	112.2
3450.407	101.2
3453.328	98.2
3456.247	93.2
3459.164	95.2
3462.079	86.2
3464.991	87.2
3467.902	80.2
3470.809	78.2
3473.715	67.2
3476.618	68.2
3479.519	58.2
3482.418	58.2
3485.315	59.2
3488.209	50.2
3491.101	47.2
3493.99	51.2
3496.878	41.2
3499.763	33.2
3502.646	41.2
3505.527	42.2
3508.405	40.2
3511.281	33.2
3514.155	28.2
3517.027	20.2
3519.897	24.2
3522.764	16.2
3525.629	19.2
3528.492	13.2
3531.352	6.2
3534.211	4.2
3537.067	-6.8
3539.921	2.2
3542.773	-6.8
3545.622	-7.8
3548.469	-8.8
3551.315	-3.8
3554.157	-7.8
3556.998	-7.8
3559.837	-7.8
3562.673	-13.8
3565.507	-15.8
3568.339	-7.8
3571.169	-16.8
3573.996	-13.8
3576.822	-20.8
3579.645	-26.8
3582.466	-19.8
3585.285	-23.8
3588.101	-28.8
3590.916	-18.8
3593.728	-28.8
3596.538	-34.8
3599.346	-34.8
3602.152	-28.8
3604.956	-33.8
3607.757	-32.8
3610.556	-33.8
3613.354	-43.8
3616.149	-38.8
3618.942	-38.8
3621.732	-37.8
3624.521	-35.8
3627.307	-39.8
3630.092	-39.8
3632.874	-44.8
3635.654	-39.8
3638.432	-38.8
3641.208	-37.8
3643.982	-42.8
3646.753	-44.8
3649.523	-47.8
3652.29	-47.8
3655.055	-42.8
3657.818	-46.8
3660.579	-47.8
3663.338	-45.8
3666.095	-49.8
3668.849	-52.8
3671.602	-49.8
3674.352	-49.8
3677.101	-52.8
3679.847	-51.8
3682.591	-54.8
3685.333	-49.8
3688.073	-57.8
3690.811	-50.8
3693.547	-51.8
3696.281	-45.8
3699.013	-52.8
3701.742	-54.8
3704.47	-53.8
3707.195	-48.8
3709.919	-56.8
3712.64	-58.8
3715.359	-55.8
3718.076	-60.8
3720.792	-59.8
3723.505	-59.8
3726.216	-55.8
3728.925	-59.8
3731.632	-58.8
3734.336	-58.8
3737.039	-54.8
3739.74	-63.8
3742.439	-68.8
3745.136	-59.8
3747.83	-57.8
3750.523	-61.8
3753.213	-58.8
3755.902	-61.8
3758.589	-60.8
3761.273	-58.8
3763.956	-59.8
3766.636	-55.8
3769.315	-53.8
3771.991	-62.8
3774.665	-64.8
3777.338	-64.8
3780.008	-64.8
3782.677	-64.8
3785.343	-64.8
3788.007	-62.8
3790.67	-64.8
3793.33	-63.8
3795.989	-65.8
3798.645	-64.8
3801.299	-57.8
3803.952	-58.8
3806.602	-62.8
3809.251	-65.8
3811.897	-66.8
3814.542	-67.8
3817.184	-61.8
3819.825	-56.8
3822.463	-58.8
3825.1	-60.8
3827.735	-66.8
3830.367	-60.8
3832.998	-60.8
3835.627	-64.8
3838.253	-57.8
3840.878	-59.8
3843.501	-58.8
3846.122	-68.8
3848.741	-63.8
3851.358	-66.8
3853.973	-58.8
3856.586	-62.8
3859.197	-58.8
3861.806	-57.8
3864.414	-63.8
3867.019	-64.8
3869.622	-53.8
3872.224	-49.8
3874.823	-42.8
3877.421	-42.8
3880.016	-26.8
3882.61	-11.8
3885.202	-16.8
3887.792	-16.8
3890.38	-39.8
3892.966	-51.8
3895.55	-57.8
3898.132	-54.8
3900.713	-63.8
3903.291	-68.8
3905.868	-62.8
3908.442	-62.8
3911.015	-63.8
3913.586	-69.8
3916.155	-65.8
3918.722	-62.8
3921.287	-66.8
3923.85	-55.8
3926.411	-65.8
3928.971	-70.8
3931.528	-63.8
3934.084	-60.8
3936.638	-60.8
3939.19	-69.8
3941.74	-58.8
3944.288	-64.8
3946.834	-63.8
3949.378	-60.8
3951.921	-72.8
3954.462	-69.8
3957	-61.8
3959.537	-59.8
3962.072	-64.8
3964.606	-67.8
3967.137	-61.8
3969.667	-68.8
3972.194	-62.8
3974.72	-62.8
3977.244	-54.8
3979.766	-64.8
3982.286	-63.8
3984.805	-67.8
3987.321	-62.8
3989.836	-61.8
3992.349	-62.8
3994.86	-61.8
3997.369	-66.8
3999.877	-62.8
4002.382	-68.8
4004.886	-61.8
4007.388	-64.8
4009.888	-62.8
4012.386	-64.8
4014.883	-62.8
4017.377	-59.8
4019.87	-65.8
4022.361	-70.8
4024.85	-65.8
4027.338	-67.8
4029.823	-63.8
4032.307	-64.8
4034.789	-60.8
4037.269	-61.8
4039.747	-62.8
4042.224	-63.8
4044.699	-62.8
4047.172	-69.8
4049.643	-65.8
4052.112	-63.8
4054.58	-62.8
4057.046	-60.8
4059.51	-67.8
4061.972	-71.8
4064.432	-60.8
4066.891	-64.8
4069.348	-61.8
4071.803	-60.8
4074.256	-64.8
4076.708	-63.8
4079.158	-67.8
4081.606	-64.8
4084.052	-65.8
4086.497	-56.8
4088.939	-62.8
4091.38	-67.8
4093.819	-63.8
4096.257	-67.8
4098.693	-67.8
4101.127	-59.8
4103.559	-66.8
4105.989	-5.8
4108.418	-11.8
4110.845	-12.8
4113.27	-10.8
4115.694	-0.8
4118.115	-0.8
4120.535	-63.8
4122.954	-61.8
4125.37	-62.8
4127.785	-58.8
4130.198	-60.8
4132.609	-61.8
4135.019	-65.8
4137.427	-67.8
4139.833	-70.8
4142.237	-67.8
