Data from 2018-3-7_conc=5_n=2_RamanShift_05.txt Node
Date: Wed Mar 07 12:27:52 IST 2018
User: aro
Spectrometer: QEPB0276
Trigger mode: 0
Integration Time (sec): 3.000000E1
Scans to average: 1
Electric dark correction enabled: true
Nonlinearity correction enabled: false
Boxcar width: 0
XAxis mode: Raman Shifts
Number of Pixels in Spectrum: 1044
>>>>>Begin Spectral Data<<<<<
160.701	2.8
166.742	17.8
172.777	50.8
178.805	158.8
184.826	420.8
190.841	908.8
196.849	1502.8
202.85	1986.8
208.845	2175.8
214.833	2203.8
220.815	2147.8
226.789	2143.8
232.758	2163.8
238.719	2161.8
244.674	2138.8
250.623	2120.8
256.565	2099.8
262.5	2071.8
268.429	2061.8
274.351	2028.8
280.267	2017.8
286.176	2002.8
292.079	2011.8
297.975	1983.8
303.865	1986.8
309.748	1994.8
315.625	2006.8
321.495	2007.8
327.359	1976.8
333.217	1983.8
339.068	2000.8
344.912	1987.8
350.751	2007.8
356.583	1989.8
362.408	1986.8
368.227	2002.8
374.04	1998.8
379.847	2000.8
385.647	2023.8
391.44	2016.8
397.228	2011.8
403.009	2046.8
408.784	2043.8
414.553	2066.8
420.315	2066.8
426.071	2067.8
431.821	2065.8
437.565	2055.8
443.302	2056.8
449.033	2042.8
454.758	2048.8
460.477	2035.8
466.189	2035.8
471.896	1978.8
477.596	2019.8
483.29	2002.8
488.978	1962.8
494.66	1989.8
500.335	1956.8
506.005	1896.8
511.668	1828.8
517.325	1792.8
522.977	1733.8
528.622	1774.8
534.261	1827.8
539.894	1711.8
545.521	1663.8
551.141	1640.8
556.756	1626.8
562.365	1616.8
567.968	1600.8
573.565	1602.8
579.155	1589.8
584.74	1592.8
590.319	1564.8
595.892	1588.8
601.459	1566.8
607.02	1559.8
612.575	1541.8
618.124	1533.8
623.667	1520.8
629.204	1506.8
634.735	1487.8
640.261	1470.8
645.781	1472.8
651.294	1479.8
656.802	1463.8
662.304	1454.8
667.8	1451.8
673.29	1471.8
678.775	1466.8
684.254	1467.8
689.726	1443.8
695.193	1429.8
700.655	1413.8
706.11	1422.8
711.56	1417.8
717.004	1408.8
722.442	1391.8
727.874	1383.8
733.301	1397.8
738.722	1391.8
744.137	1380.8
749.547	1371.8
754.951	1365.8
760.349	1365.8
765.741	1368.8
771.128	1375.8
776.509	1393.8
781.885	1400.8
787.254	1399.8
792.618	1411.8
797.977	1391.8
803.33	1380.8
808.677	1363.8
814.019	1376.8
819.355	1350.8
824.686	1342.8
830.011	1341.8
835.33	1333.8
840.644	1325.8
845.952	1333.8
851.255	1323.8
856.552	1329.8
861.844	1327.8
867.13	1326.8
872.41	1314.8
877.686	1303.8
882.955	1278.8
888.219	1265.8
893.478	1278.8
898.731	1235.8
903.979	1218.8
909.221	1232.8
914.458	1201.8
919.69	1224.8
924.916	1222.8
930.136	1221.8
935.351	1242.8
940.561	1233.8
945.766	1215.8
950.965	1221.8
956.158	1205.8
961.347	1183.8
966.529	1167.8
971.707	1155.8
976.879	1138.8
982.046	1147.8
987.208	1117.8
992.364	1111.8
997.515	1134.8
1002.66	1127.8
1007.801	1153.8
1012.936	1152.8
1018.066	1163.8
1023.19	1178.8
1028.309	1165.8
1033.423	1166.8
1038.532	1156.8
1043.636	1155.8
1048.734	1145.8
1053.827	1122.8
1058.915	1099.8
1063.998	1102.8
1069.075	1093.8
1074.147	1090.8
1079.214	1101.8
1084.276	1106.8
1089.333	1106.8
1094.385	1108.8
1099.431	1098.8
1104.472	1092.8
1109.509	1098.8
1114.54	1080.8
1119.565	1073.8
1124.586	1046.8
1129.602	1045.8
1134.613	1039.8
1139.618	1035.8
1144.619	1023.8
1149.614	1034.8
1154.604	1034.8
1159.589	1038.8
1164.57	1037.8
1169.545	1043.8
1174.515	1041.8
1179.48	1038.8
1184.44	1027.8
1189.395	1016.8
1194.345	1012.8
1199.29	988.8
1204.23	992.8
1209.165	1003.8
1214.095	997.8
1219.021	1003.8
1223.941	1019.8
1228.856	1026.8
1233.766	1031.8
1238.672	1026.8
1243.572	1029.8
1248.467	1022.8
1253.358	1016.8
1258.244	989.8
1263.124	981.8
1268	960.8
1272.871	949.8
1277.737	950.8
1282.599	935.8
1287.455	915.8
1292.306	940.8
1297.153	943.8
1301.995	956.8
1306.832	944.8
1311.664	957.8
1316.491	966.8
1321.314	954.8
1326.132	954.8
1330.945	941.8
1335.753	912.8
1340.556	895.8
1345.354	894.8
1350.148	864.8
1354.937	846.8
1359.722	838.8
1364.501	813.8
1369.276	799.8
1374.046	777.8
1378.811	766.8
1383.572	765.8
1388.327	760.8
1393.079	765.8
1397.825	788.8
1402.567	768.8
1407.304	780.8
1412.036	785.8
1416.764	781.8
1421.487	789.8
1426.205	786.8
1430.919	796.8
1435.628	803.8
1440.333	815.8
1445.032	793.8
1449.727	821.8
1454.418	824.8
1459.104	817.8
1463.785	801.8
1468.462	790.8
1473.134	773.8
1477.802	740.8
1482.465	730.8
1487.123	710.8
1491.777	688.8
1496.426	688.8
1501.071	681.8
1505.711	674.8
1510.347	668.8
1514.978	655.8
1519.604	647.8
1524.226	644.8
1528.844	650.8
1533.457	633.8
1538.065	637.8
1542.669	637.8
1547.269	638.8
1551.864	655.8
1556.454	657.8
1561.041	662.8
1565.622	689.8
1570.199	686.8
1574.772	684.8
1579.34	705.8
1583.904	701.8
1588.464	707.8
1593.019	720.8
1597.569	713.8
1602.115	706.8
1606.657	704.8
1611.195	718.8
1615.728	702.8
1620.256	702.8
1624.78	715.8
1629.3	700.8
1633.816	704.8
1638.327	713.8
1642.834	690.8
1647.336	692.8
1651.834	696.8
1656.328	704.8
1660.817	705.8
1665.302	685.8
1669.783	672.8
1674.259	669.8
1678.732	648.8
1683.199	613.8
1687.663	600.8
1692.122	564.8
1696.577	543.8
1701.028	528.8
1705.474	485.8
1709.917	475.8
1714.355	462.8
1718.788	453.8
1723.218	462.8
1727.643	457.8
1732.064	471.8
1736.481	455.8
1740.893	463.8
1745.301	441.8
1749.705	436.8
1754.105	422.8
1758.501	415.8
1762.893	421.8
1767.28	404.8
1771.663	403.8
1776.042	403.8
1780.417	394.8
1784.787	381.8
1789.154	369.8
1793.516	355.8
1797.874	348.8
1802.228	341.8
1806.578	342.8
1810.924	338.8
1815.266	329.8
1819.603	337.8
1823.937	345.8
1828.266	355.8
1832.591	357.8
1836.913	356.8
1841.23	348.8
1845.543	354.8
1849.852	365.8
1854.156	356.8
1858.457	364.8
1862.754	369.8
1867.047	355.8
1871.335	364.8
1875.62	349.8
1879.9	345.8
1884.177	351.8
1888.449	346.8
1892.718	347.8
1896.982	333.8
1901.243	320.8
1905.499	320.8
1909.752	315.8
1914	305.8
1918.245	306.8
1922.485	297.8
1926.722	291.8
1930.954	287.8
1935.183	291.8
1939.408	288.8
1943.628	269.8
1947.845	277.8
1952.058	275.8
1956.267	267.8
1960.472	263.8
1964.673	261.8
1968.87	257.8
1973.063	267.8
1977.252	266.8
1981.438	262.8
1985.619	263.8
1989.797	263.8
1993.971	271.8
1998.14	272.8
2002.306	278.8
2006.469	273.8
2010.627	270.8
2014.781	272.8
2018.932	277.8
2023.078	278.8
2027.221	276.8
2031.36	273.8
2035.495	274.8
2039.627	254.8
2043.754	256.8
2047.878	252.8
2051.998	257.8
2056.114	250.8
2060.226	244.8
2064.334	244.8
2068.439	237.8
2072.54	237.8
2076.637	241.8
2080.73	242.8
2084.82	239.8
2088.906	236.8
2092.988	230.8
2097.066	227.8
2101.14	230.8
2105.211	228.8
2109.278	215.8
2113.342	212.8
2117.401	210.8
2121.457	215.8
2125.509	206.8
2129.558	210.8
2133.602	208.8
2137.643	209.8
2141.681	207.8
2145.714	212.8
2149.744	210.8
2153.77	217.8
2157.793	212.8
2161.812	218.8
2165.827	216.8
2169.838	205.8
2173.846	214.8
2177.851	204.8
2181.851	211.8
2185.848	202.8
2189.841	206.8
2193.831	198.8
2197.817	196.8
2201.799	197.8
2205.778	192.8
2209.753	205.8
2213.725	197.8
2217.693	211.8
2221.657	195.8
2225.618	188.8
2229.575	191.8
2233.529	195.8
2237.479	197.8
2241.425	181.8
2245.368	188.8
2249.307	183.8
2253.243	182.8
2257.175	186.8
2261.104	173.8
2265.029	172.8
2268.95	183.8
2272.868	174.8
2276.783	168.8
2280.694	162.8
2284.601	168.8
2288.505	168.8
2292.405	166.8
2296.302	165.8
2300.195	162.8
2304.085	152.8
2307.971	162.8
2311.854	148.8
2315.734	149.8
2319.609	151.8
2323.482	154.8
2327.351	155.8
2331.216	159.8
2335.078	175.8
2338.937	165.8
2342.792	166.8
2346.643	164.8
2350.492	160.8
2354.336	155.8
2358.178	150.8
2362.015	158.8
2365.85	151.8
2369.681	157.8
2373.508	157.8
2377.333	160.8
2381.153	154.8
2384.971	156.8
2388.785	151.8
2392.595	152.8
2396.402	157.8
2400.206	155.8
2404.007	156.8
2407.804	150.8
2411.597	152.8
2415.388	156.8
2419.174	148.8
2422.958	149.8
2426.738	148.8
2430.515	150.8
2434.289	156.8
2438.059	135.8
2441.825	140.8
2445.589	131.8
2449.349	140.8
2453.106	144.8
2456.859	133.8
2460.61	145.8
2464.356	133.8
2468.1	136.8
2471.84	131.8
2475.577	125.8
2479.311	129.8
2483.041	128.8
2486.768	122.8
2490.492	126.8
2494.213	125.8
2497.93	129.8
2501.644	129.8
2505.355	115.8
2509.062	119.8
2512.766	110.8
2516.467	116.8
2520.165	111.8
2523.859	118.8
2527.551	109.8
2531.239	110.8
2534.923	101.8
2538.605	108.8
2542.283	100.8
2545.958	103.8
2549.63	111.8
2553.299	100.8
2556.964	91.8
2560.626	101.8
2564.285	97.8
2567.941	94.8
2571.594	98.8
2575.243	100.8
2578.89	94.8
2582.533	87.8
2586.173	85.8
2589.809	86.8
2593.443	90.8
2597.073	82.8
2600.701	82.8
2604.325	77.8
2607.946	70.8
2611.564	93.8
2615.178	83.8
2618.79	79.8
2622.398	83.8
2626.004	82.8
2629.606	78.8
2633.205	78.8
2636.801	80.8
2640.394	86.8
2643.983	81.8
2647.57	79.8
2651.153	65.8
2654.734	71.8
2658.311	73.8
2661.885	77.8
2665.456	67.8
2669.025	70.8
2672.589	67.8
2676.151	69.8
2679.71	65.8
2683.266	67.8
2686.819	74.8
2690.368	69.8
2693.915	69.8
2697.458	63.8
2700.999	66.8
2704.536	66.8
2708.071	67.8
2711.602	59.8
2715.13	52.8
2718.656	55.8
2722.178	54.8
2725.697	49.8
2729.214	52.8
2732.727	59.8
2736.237	52.8
2739.744	42.8
2743.249	45.8
2746.75	40.8
2750.248	46.8
2753.743	43.8
2757.236	42.8
2760.725	40.8
2764.211	37.8
2767.695	36.8
2771.175	37.8
2774.652	36.8
2778.127	39.8
2781.598	33.8
2785.067	35.8
2788.532	34.8
2791.995	36.8
2795.455	38.8
2798.911	34.8
2802.365	38.8
2805.816	38.8
2809.264	39.8
2812.709	37.8
2816.151	42.8
2819.59	49.8
2823.026	41.8
2826.46	40.8
2829.89	34.8
2833.318	36.8
2836.742	46.8
2840.164	37.8
2843.583	46.8
2846.999	50.8
2850.412	39.8
2853.822	43.8
2857.229	43.8
2860.634	48.8
2864.035	34.8
2867.434	49.8
2870.83	50.8
2874.223	49.8
2877.613	47.8
2881	55.8
2884.385	50.8
2887.766	58.8
2891.145	57.8
2894.521	54.8
2897.894	52.8
2901.264	57.8
2904.631	45.8
2907.996	53.8
2911.358	63.8
2914.717	63.8
2918.073	57.8
2921.426	58.8
2924.777	64.8
2928.124	58.8
2931.469	69.8
2934.811	74.8
2938.15	77.8
2941.487	82.8
2944.821	74.8
2948.152	75.8
2951.48	69.8
2954.805	75.8
2958.128	70.8
2961.447	70.8
2964.765	63.8
2968.079	64.8
2971.39	64.8
2974.699	68.8
2978.005	67.8
2981.308	61.8
2984.609	65.8
2987.907	65.8
2991.202	65.8
2994.494	65.8
2997.784	65.8
3001.07	69.8
3004.355	67.8
3007.636	68.8
3010.915	72.8
3014.191	64.8
3017.464	68.8
3020.734	77.8
3024.002	76.8
3027.267	69.8
3030.53	82.8
3033.789	74.8
3037.046	75.8
3040.301	71.8
3043.552	84.8
3046.801	87.8
3050.048	91.8
3053.291	90.8
3056.532	96.8
3059.771	101.8
3063.006	108.8
3066.239	116.8
3069.469	118.8
3072.697	122.8
3075.922	127.8
3079.144	125.8
3082.364	130.8
3085.581	122.8
3088.795	137.8
3092.007	139.8
3095.216	135.8
3098.423	142.8
3101.627	142.8
3104.828	151.8
3108.026	154.8
3111.222	148.8
3114.416	165.8
3117.607	156.8
3120.795	161.8
3123.98	163.8
3127.163	173.8
3130.344	168.8
3133.521	179.8
3136.696	186.8
3139.869	187.8
3143.039	188.8
3146.206	201.8
3149.371	183.8
3152.533	204.8
3155.693	202.8
3158.85	202.8
3162.005	202.8
3165.157	203.8
3168.306	200.8
3171.453	199.8
3174.597	199.8
3177.739	203.8
3180.878	207.8
3184.014	202.8
3187.149	201.8
3190.28	206.8
3193.409	214.8
3196.536	207.8
3199.659	215.8
3202.781	214.8
3205.9	209.8
3209.016	202.8
3212.13	208.8
3215.241	218.8
3218.35	202.8
3221.456	211.8
3224.56	197.8
3227.661	198.8
3230.76	189.8
3233.856	190.8
3236.95	189.8
3240.041	176.8
3243.13	185.8
3246.216	174.8
3249.3	172.8
3252.382	174.8
3255.46	174.8
3258.537	167.8
3261.611	164.8
3264.682	165.8
3267.751	167.8
3270.818	157.8
3273.882	164.8
3276.943	166.8
3280.002	164.8
3283.059	153.8
3286.113	156.8
3289.165	153.8
3292.214	150.8
3295.261	154.8
3298.306	147.8
3301.348	143.8
3304.387	143.8
3307.425	144.8
3310.459	142.8
3313.492	142.8
3316.521	141.8
3319.549	146.8
3322.574	139.8
3325.597	142.8
3328.617	140.8
3331.635	135.8
3334.65	149.8
3337.663	138.8
3340.674	138.8
3343.682	141.8
3346.688	147.8
3349.691	139.8
3352.692	139.8
3355.691	147.8
3358.687	137.8
3361.681	131.8
3364.673	133.8
3367.662	135.8
3370.649	135.8
3373.633	131.8
3376.615	125.8
3379.595	120.8
3382.572	119.8
3385.547	128.8
3388.52	118.8
3391.49	119.8
3394.458	111.8
3397.424	115.8
3400.387	111.8
3403.348	109.8
3406.307	98.8
3409.263	109.8
3412.217	100.8
3415.168	109.8
3418.118	101.8
3421.065	100.8
3424.009	96.8
3426.951	97.8
3429.891	94.8
3432.829	88.8
3435.764	88.8
3438.697	89.8
3441.628	79.8
3444.557	86.8
3447.483	81.8
3450.407	72.8
3453.328	76.8
3456.247	61.8
3459.164	60.8
3462.079	57.8
3464.991	57.8
3467.902	51.8
3470.809	48.8
3473.715	47.8
3476.618	43.8
3479.519	41.8
3482.418	40.8
3485.315	30.8
3488.209	23.8
3491.101	27.8
3493.99	30.8
3496.878	20.8
3499.763	20.8
3502.646	22.8
3505.527	21.8
3508.405	21.8
3511.281	23.8
3514.155	13.8
3517.027	4.8
3519.897	15.8
3522.764	9.8
3525.629	5.8
3528.492	2.8
3531.352	-0.2
3534.211	-6.2
3537.067	-7.2
3539.921	-1.2
3542.773	-15.2
3545.622	-7.2
3548.469	-8.2
3551.315	-10.2
3554.157	-9.2
3556.998	-11.2
3559.837	-14.2
3562.673	-13.2
3565.507	-10.2
3568.339	-11.2
3571.169	-19.2
3573.996	-18.2
3576.822	-25.2
3579.645	-25.2
3582.466	-22.2
3585.285	-22.2
3588.101	-35.2
3590.916	-22.2
3593.728	-27.2
3596.538	-29.2
3599.346	-32.2
3602.152	-36.2
3604.956	-28.2
3607.757	-27.2
3610.556	-25.2
3613.354	-35.2
3616.149	-33.2
3618.942	-36.2
3621.732	-35.2
3624.521	-35.2
3627.307	-34.2
3630.092	-33.2
3632.874	-38.2
3635.654	-34.2
3638.432	-32.2
3641.208	-39.2
3643.982	-36.2
3646.753	-44.2
3649.523	-39.2
3652.29	-40.2
3655.055	-35.2
3657.818	-45.2
3660.579	-42.2
3663.338	-36.2
3666.095	-41.2
3668.849	-46.2
3671.602	-43.2
3674.352	-39.2
3677.101	-48.2
3679.847	-43.2
3682.591	-43.2
3685.333	-46.2
3688.073	-49.2
3690.811	-46.2
3693.547	-45.2
3696.281	-49.2
3699.013	-48.2
3701.742	-57.2
3704.47	-48.2
3707.195	-45.2
3709.919	-50.2
3712.64	-48.2
3715.359	-50.2
3718.076	-49.2
3720.792	-47.2
3723.505	-50.2
3726.216	-45.2
3728.925	-52.2
3731.632	-47.2
3734.336	-47.2
3737.039	-50.2
3739.74	-52.2
3742.439	-64.2
3745.136	-53.2
3747.83	-50.2
3750.523	-57.2
3753.213	-56.2
3755.902	-52.2
3758.589	-53.2
3761.273	-51.2
3763.956	-53.2
3766.636	-49.2
3769.315	-47.2
3771.991	-49.2
3774.665	-54.2
3777.338	-53.2
3780.008	-55.2
3782.677	-56.2
3785.343	-57.2
3788.007	-51.2
3790.67	-53.2
3793.33	-53.2
3795.989	-54.2
3798.645	-55.2
3801.299	-53.2
3803.952	-57.2
3806.602	-56.2
3809.251	-59.2
3811.897	-59.2
3814.542	-63.2
3817.184	-51.2
3819.825	-45.2
3822.463	-49.2
3825.1	-52.2
3827.735	-55.2
3830.367	-54.2
3832.998	-54.2
3835.627	-54.2
3838.253	-48.2
3840.878	-48.2
3843.501	-51.2
3846.122	-58.2
3848.741	-58.2
3851.358	-52.2
3853.973	-54.2
3856.586	-53.2
3859.197	-52.2
3861.806	-57.2
3864.414	-56.2
3867.019	-55.2
3869.622	-49.2
3872.224	-50.2
3874.823	-34.2
3877.421	-36.2
3880.016	-15.2
3882.61	-6.2
3885.202	-6.2
3887.792	-13.2
3890.38	-26.2
3892.966	-41.2
3895.55	-52.2
3898.132	-54.2
3900.713	-56.2
3903.291	-56.2
3905.868	-52.2
3908.442	-57.2
3911.015	-55.2
3913.586	-59.2
3916.155	-57.2
3918.722	-53.2
3921.287	-56.2
3923.85	-52.2
3926.411	-56.2
3928.971	-61.2
3931.528	-55.2
3934.084	-51.2
3936.638	-50.2
3939.19	-56.2
3941.74	-55.2
3944.288	-55.2
3946.834	-58.2
3949.378	-54.2
3951.921	-58.2
3954.462	-60.2
3957	-51.2
3959.537	-51.2
3962.072	-57.2
3964.606	-55.2
3967.137	-53.2
3969.667	-57.2
3972.194	-49.2
3974.72	-45.2
3977.244	-53.2
3979.766	-53.2
3982.286	-52.2
3984.805	-60.2
3987.321	-50.2
3989.836	-50.2
3992.349	-56.2
3994.86	-57.2
3997.369	-51.2
3999.877	-55.2
4002.382	-48.2
4004.886	-56.2
4007.388	-58.2
4009.888	-56.2
4012.386	-56.2
4014.883	-52.2
4017.377	-53.2
4019.87	-54.2
4022.361	-62.2
4024.85	-52.2
4027.338	-54.2
4029.823	-53.2
4032.307	-52.2
4034.789	-49.2
4037.269	-52.2
4039.747	-52.2
4042.224	-52.2
4044.699	-59.2
4047.172	-56.2
4049.643	-56.2
4052.112	-54.2
4054.58	-50.2
4057.046	-54.2
4059.51	-56.2
4061.972	-56.2
4064.432	-55.2
4066.891	-52.2
4069.348	-51.2
4071.803	-52.2
4074.256	-57.2
4076.708	-52.2
4079.158	-59.2
4081.606	-54.2
4084.052	-55.2
4086.497	-51.2
4088.939	-55.2
4091.38	-57.2
4093.819	-56.2
4096.257	-58.2
4098.693	-53.2
4101.127	-53.2
4103.559	-58.2
4105.989	-0.2
4108.418	1.8
4110.845	-0.2
4113.27	-0.2
4115.694	1.8
4118.115	2.8
4120.535	-53.2
4122.954	-48.2
4125.37	-56.2
4127.785	-49.2
4130.198	-53.2
4132.609	-57.2
4135.019	-58.2
4137.427	-57.2
4139.833	-57.2
4142.237	-57.2
