Data from 2018-3-7_conc=3_n=7_RamanShift_03.txt Node
Date: Wed Mar 07 11:35:52 IST 2018
User: aro
Spectrometer: QEPB0276
Trigger mode: 0
Integration Time (sec): 3.000000E1
Scans to average: 1
Electric dark correction enabled: true
Nonlinearity correction enabled: false
Boxcar width: 0
XAxis mode: Raman Shifts
Number of Pixels in Spectrum: 1044
>>>>>Begin Spectral Data<<<<<
160.701	16.8
166.742	18.8
172.777	47.8
178.805	136.8
184.826	339.8
190.841	702.8
196.849	1150.8
202.85	1496.8
208.845	1643.8
214.833	1656.8
220.815	1631.8
226.789	1633.8
232.758	1629.8
238.719	1645.8
244.674	1639.8
250.623	1633.8
256.565	1609.8
262.5	1590.8
268.429	1582.8
274.351	1582.8
280.267	1551.8
286.176	1546.8
292.079	1546.8
297.975	1554.8
303.865	1566.8
309.748	1551.8
315.625	1569.8
321.495	1571.8
327.359	1567.8
333.217	1561.8
339.068	1571.8
344.912	1586.8
350.751	1575.8
356.583	1566.8
362.408	1581.8
368.227	1585.8
374.04	1615.8
379.847	1590.8
385.647	1602.8
391.44	1621.8
397.228	1619.8
403.009	1650.8
408.784	1661.8
414.553	1662.8
420.315	1648.8
426.071	1659.8
431.821	1661.8
437.565	1655.8
443.302	1653.8
449.033	1644.8
454.758	1631.8
460.477	1618.8
466.189	1598.8
471.896	1599.8
477.596	1587.8
483.29	1579.8
488.978	1570.8
494.66	1569.8
500.335	1544.8
506.005	1469.8
511.668	1417.8
517.325	1351.8
522.977	1312.8
528.622	1294.8
534.261	1263.8
539.894	1218.8
545.521	1222.8
551.141	1206.8
556.756	1191.8
562.365	1177.8
567.968	1179.8
573.565	1161.8
579.155	1158.8
584.74	1158.8
590.319	1140.8
595.892	1160.8
601.459	1140.8
607.02	1137.8
612.575	1133.8
618.124	1118.8
623.667	1108.8
629.204	1096.8
634.735	1087.8
640.261	1076.8
645.781	1077.8
651.294	1063.8
656.802	1059.8
662.304	1057.8
667.8	1064.8
673.29	1058.8
678.775	1047.8
684.254	1045.8
689.726	1033.8
695.193	1026.8
700.655	1030.8
706.11	1020.8
711.56	1018.8
717.004	1012.8
722.442	1000.8
727.874	994.8
733.301	996.8
738.722	989.8
744.137	983.8
749.547	990.8
754.951	979.8
760.349	980.8
765.741	983.8
771.128	986.8
776.509	998.8
781.885	1017.8
787.254	1015.8
792.618	1015.8
797.977	1010.8
803.33	1004.8
808.677	1010.8
814.019	995.8
819.355	1006.8
824.686	977.8
830.011	970.8
835.33	992.8
840.644	974.8
845.952	948.8
851.255	957.8
856.552	957.8
861.844	945.8
867.13	921.8
872.41	924.8
877.686	922.8
882.955	920.8
888.219	918.8
893.478	891.8
898.731	890.8
903.979	874.8
909.221	863.8
914.458	857.8
919.69	853.8
924.916	863.8
930.136	876.8
935.351	874.8
940.561	853.8
945.766	855.8
950.965	873.8
956.158	854.8
961.347	842.8
966.529	829.8
971.707	809.8
976.879	813.8
982.046	800.8
987.208	790.8
992.364	793.8
997.515	788.8
1002.66	814.8
1007.801	819.8
1012.936	822.8
1018.066	819.8
1023.19	817.8
1028.309	821.8
1033.423	830.8
1038.532	811.8
1043.636	799.8
1048.734	804.8
1053.827	805.8
1058.915	786.8
1063.998	776.8
1069.075	783.8
1074.147	777.8
1079.214	769.8
1084.276	780.8
1089.333	783.8
1094.385	784.8
1099.431	773.8
1104.472	778.8
1109.509	774.8
1114.54	744.8
1119.565	747.8
1124.586	744.8
1129.602	739.8
1134.613	733.8
1139.618	728.8
1144.619	722.8
1149.614	721.8
1154.604	717.8
1159.589	727.8
1164.57	721.8
1169.545	728.8
1174.515	724.8
1179.48	730.8
1184.44	722.8
1189.395	706.8
1194.345	722.8
1199.29	688.8
1204.23	704.8
1209.165	705.8
1214.095	710.8
1219.021	714.8
1223.941	722.8
1228.856	712.8
1233.766	718.8
1238.672	721.8
1243.572	713.8
1248.467	722.8
1253.358	695.8
1258.244	693.8
1263.124	673.8
1268	682.8
1272.871	665.8
1277.737	650.8
1282.599	665.8
1287.455	650.8
1292.306	654.8
1297.153	643.8
1301.995	658.8
1306.832	660.8
1311.664	662.8
1316.491	662.8
1321.314	663.8
1326.132	657.8
1330.945	649.8
1335.753	640.8
1340.556	619.8
1345.354	605.8
1350.148	597.8
1354.937	586.8
1359.722	581.8
1364.501	552.8
1369.276	560.8
1374.046	547.8
1378.811	551.8
1383.572	546.8
1388.327	531.8
1393.079	529.8
1397.825	535.8
1402.567	544.8
1407.304	548.8
1412.036	550.8
1416.764	547.8
1421.487	550.8
1426.205	546.8
1430.919	547.8
1435.628	547.8
1440.333	567.8
1445.032	557.8
1449.727	562.8
1454.418	572.8
1459.104	570.8
1463.785	560.8
1468.462	544.8
1473.134	532.8
1477.802	510.8
1482.465	503.8
1487.123	498.8
1491.777	476.8
1496.426	473.8
1501.071	477.8
1505.711	458.8
1510.347	469.8
1514.978	460.8
1519.604	462.8
1524.226	461.8
1528.844	465.8
1533.457	447.8
1538.065	460.8
1542.669	444.8
1547.269	447.8
1551.864	457.8
1556.454	465.8
1561.041	462.8
1565.622	472.8
1570.199	473.8
1574.772	463.8
1579.34	481.8
1583.904	493.8
1588.464	497.8
1593.019	504.8
1597.569	497.8
1602.115	499.8
1606.657	489.8
1611.195	486.8
1615.728	494.8
1620.256	483.8
1624.78	483.8
1629.3	490.8
1633.816	479.8
1638.327	487.8
1642.834	481.8
1647.336	488.8
1651.834	488.8
1656.328	486.8
1660.817	494.8
1665.302	480.8
1669.783	467.8
1674.259	446.8
1678.732	451.8
1683.199	423.8
1687.663	415.8
1692.122	395.8
1696.577	373.8
1701.028	367.8
1705.474	341.8
1709.917	347.8
1714.355	335.8
1718.788	328.8
1723.218	331.8
1727.643	330.8
1732.064	335.8
1736.481	327.8
1740.893	310.8
1745.301	317.8
1749.705	308.8
1754.105	299.8
1758.501	293.8
1762.893	287.8
1767.28	289.8
1771.663	277.8
1776.042	276.8
1780.417	277.8
1784.787	267.8
1789.154	256.8
1793.516	254.8
1797.874	246.8
1802.228	259.8
1806.578	247.8
1810.924	248.8
1815.266	244.8
1819.603	250.8
1823.937	241.8
1828.266	244.8
1832.591	253.8
1836.913	236.8
1841.23	251.8
1845.543	245.8
1849.852	247.8
1854.156	252.8
1858.457	253.8
1862.754	254.8
1867.047	253.8
1871.335	242.8
1875.62	247.8
1879.9	257.8
1884.177	239.8
1888.449	246.8
1892.718	243.8
1896.982	229.8
1901.243	231.8
1905.499	223.8
1909.752	212.8
1914	212.8
1918.245	213.8
1922.485	211.8
1926.722	196.8
1930.954	204.8
1935.183	205.8
1939.408	209.8
1943.628	205.8
1947.845	205.8
1952.058	202.8
1956.267	191.8
1960.472	190.8
1964.673	187.8
1968.87	178.8
1973.063	192.8
1977.252	188.8
1981.438	189.8
1985.619	174.8
1989.797	184.8
1993.971	188.8
1998.14	192.8
2002.306	192.8
2006.469	195.8
2010.627	189.8
2014.781	189.8
2018.932	187.8
2023.078	187.8
2027.221	195.8
2031.36	183.8
2035.495	186.8
2039.627	169.8
2043.754	167.8
2047.878	167.8
2051.998	178.8
2056.114	171.8
2060.226	161.8
2064.334	166.8
2068.439	166.8
2072.54	167.8
2076.637	172.8
2080.73	169.8
2084.82	164.8
2088.906	162.8
2092.988	165.8
2097.066	161.8
2101.14	161.8
2105.211	156.8
2109.278	154.8
2113.342	148.8
2117.401	141.8
2121.457	148.8
2125.509	145.8
2129.558	149.8
2133.602	138.8
2137.643	143.8
2141.681	145.8
2145.714	144.8
2149.744	153.8
2153.77	144.8
2157.793	152.8
2161.812	156.8
2165.827	151.8
2169.838	140.8
2173.846	147.8
2177.851	133.8
2181.851	137.8
2185.848	138.8
2189.841	134.8
2193.831	127.8
2197.817	128.8
2201.799	128.8
2205.778	123.8
2209.753	128.8
2213.725	123.8
2217.693	135.8
2221.657	126.8
2225.618	129.8
2229.575	127.8
2233.529	124.8
2237.479	132.8
2241.425	120.8
2245.368	123.8
2249.307	124.8
2253.243	114.8
2257.175	120.8
2261.104	109.8
2265.029	106.8
2268.95	116.8
2272.868	111.8
2276.783	106.8
2280.694	106.8
2284.601	105.8
2288.505	107.8
2292.405	104.8
2296.302	112.8
2300.195	99.8
2304.085	96.8
2307.971	96.8
2311.854	95.8
2315.734	88.8
2319.609	105.8
2323.482	94.8
2327.351	94.8
2331.216	103.8
2335.078	116.8
2338.937	106.8
2342.792	100.8
2346.643	96.8
2350.492	96.8
2354.336	94.8
2358.178	90.8
2362.015	96.8
2365.85	87.8
2369.681	104.8
2373.508	102.8
2377.333	97.8
2381.153	94.8
2384.971	89.8
2388.785	92.8
2392.595	94.8
2396.402	93.8
2400.206	89.8
2404.007	92.8
2407.804	88.8
2411.597	86.8
2415.388	87.8
2419.174	98.8
2422.958	90.8
2426.738	98.8
2430.515	85.8
2434.289	87.8
2438.059	87.8
2441.825	79.8
2445.589	81.8
2449.349	79.8
2453.106	77.8
2456.859	72.8
2460.61	74.8
2464.356	69.8
2468.1	76.8
2471.84	75.8
2475.577	66.8
2479.311	68.8
2483.041	83.8
2486.768	70.8
2490.492	75.8
2494.213	67.8
2497.93	71.8
2501.644	74.8
2505.355	65.8
2509.062	65.8
2512.766	61.8
2516.467	60.8
2520.165	64.8
2523.859	62.8
2527.551	56.8
2531.239	56.8
2534.923	61.8
2538.605	54.8
2542.283	55.8
2545.958	55.8
2549.63	58.8
2553.299	57.8
2556.964	54.8
2560.626	58.8
2564.285	55.8
2567.941	50.8
2571.594	49.8
2575.243	57.8
2578.89	48.8
2582.533	46.8
2586.173	44.8
2589.809	52.8
2593.443	51.8
2597.073	46.8
2600.701	47.8
2604.325	42.8
2607.946	35.8
2611.564	48.8
2615.178	48.8
2618.79	41.8
2622.398	42.8
2626.004	40.8
2629.606	37.8
2633.205	42.8
2636.801	33.8
2640.394	43.8
2643.983	34.8
2647.57	33.8
2651.153	32.8
2654.734	36.8
2658.311	34.8
2661.885	39.8
2665.456	37.8
2669.025	38.8
2672.589	31.8
2676.151	34.8
2679.71	35.8
2683.266	38.8
2686.819	35.8
2690.368	37.8
2693.915	28.8
2697.458	24.8
2700.999	27.8
2704.536	31.8
2708.071	32.8
2711.602	24.8
2715.13	19.8
2718.656	27.8
2722.178	25.8
2725.697	20.8
2729.214	21.8
2732.727	26.8
2736.237	26.8
2739.744	20.8
2743.249	18.8
2746.75	20.8
2750.248	16.8
2753.743	15.8
2757.236	9.8
2760.725	9.8
2764.211	10.8
2767.695	4.8
2771.175	9.8
2774.652	10.8
2778.127	24.8
2781.598	10.8
2785.067	12.8
2788.532	8.8
2791.995	17.8
2795.455	11.8
2798.911	13.8
2802.365	14.8
2805.816	13.8
2809.264	9.8
2812.709	5.8
2816.151	15.8
2819.59	24.8
2823.026	20.8
2826.46	23.8
2829.89	11.8
2833.318	11.8
2836.742	19.8
2840.164	17.8
2843.583	17.8
2846.999	19.8
2850.412	15.8
2853.822	11.8
2857.229	14.8
2860.634	10.8
2864.035	15.8
2867.434	17.8
2870.83	22.8
2874.223	18.8
2877.613	21.8
2881	24.8
2884.385	22.8
2887.766	26.8
2891.145	22.8
2894.521	23.8
2897.894	24.8
2901.264	24.8
2904.631	20.8
2907.996	28.8
2911.358	29.8
2914.717	23.8
2918.073	26.8
2921.426	22.8
2924.777	28.8
2928.124	22.8
2931.469	31.8
2934.811	38.8
2938.15	37.8
2941.487	43.8
2944.821	41.8
2948.152	41.8
2951.48	37.8
2954.805	43.8
2958.128	34.8
2961.447	34.8
2964.765	31.8
2968.079	31.8
2971.39	31.8
2974.699	30.8
2978.005	36.8
2981.308	31.8
2984.609	34.8
2987.907	33.8
2991.202	32.8
2994.494	30.8
2997.784	35.8
3001.07	34.8
3004.355	32.8
3007.636	35.8
3010.915	35.8
3014.191	33.8
3017.464	34.8
3020.734	38.8
3024.002	38.8
3027.267	42.8
3030.53	40.8
3033.789	43.8
3037.046	39.8
3040.301	33.8
3043.552	48.8
3046.801	49.8
3050.048	47.8
3053.291	54.8
3056.532	53.8
3059.771	49.8
3063.006	58.8
3066.239	66.8
3069.469	69.8
3072.697	57.8
3075.922	77.8
3079.144	73.8
3082.364	72.8
3085.581	74.8
3088.795	77.8
3092.007	85.8
3095.216	80.8
3098.423	78.8
3101.627	85.8
3104.828	91.8
3108.026	94.8
3111.222	90.8
3114.416	94.8
3117.607	98.8
3120.795	98.8
3123.98	99.8
3127.163	106.8
3130.344	101.8
3133.521	112.8
3136.696	111.8
3139.869	118.8
3143.039	117.8
3146.206	123.8
3149.371	116.8
3152.533	122.8
3155.693	126.8
3158.85	120.8
3162.005	127.8
3165.157	125.8
3168.306	123.8
3171.453	124.8
3174.597	124.8
3177.739	127.8
3180.878	123.8
3184.014	125.8
3187.149	125.8
3190.28	127.8
3193.409	132.8
3196.536	129.8
3199.659	132.8
3202.781	134.8
3205.9	123.8
3209.016	127.8
3212.13	127.8
3215.241	133.8
3218.35	121.8
3221.456	125.8
3224.56	121.8
3227.661	116.8
3230.76	120.8
3233.856	121.8
3236.95	112.8
3240.041	103.8
3243.13	115.8
3246.216	109.8
3249.3	109.8
3252.382	111.8
3255.46	105.8
3258.537	103.8
3261.611	102.8
3264.682	105.8
3267.751	99.8
3270.818	101.8
3273.882	95.8
3276.943	92.8
3280.002	97.8
3283.059	89.8
3286.113	91.8
3289.165	88.8
3292.214	92.8
3295.261	94.8
3298.306	90.8
3301.348	89.8
3304.387	87.8
3307.425	84.8
3310.459	81.8
3313.492	86.8
3316.521	76.8
3319.549	93.8
3322.574	79.8
3325.597	73.8
3328.617	77.8
3331.635	89.8
3334.65	93.8
3337.663	81.8
3340.674	81.8
3343.682	85.8
3346.688	84.8
3349.691	90.8
3352.692	81.8
3355.691	85.8
3358.687	84.8
3361.681	76.8
3364.673	78.8
3367.662	76.8
3370.649	80.8
3373.633	64.8
3376.615	70.8
3379.595	70.8
3382.572	69.8
3385.547	72.8
3388.52	64.8
3391.49	66.8
3394.458	57.8
3397.424	64.8
3400.387	54.8
3403.348	57.8
3406.307	55.8
3409.263	59.8
3412.217	59.8
3415.168	58.8
3418.118	55.8
3421.065	50.8
3424.009	51.8
3426.951	48.8
3429.891	50.8
3432.829	49.8
3435.764	50.8
3438.697	53.8
3441.628	36.8
3444.557	42.8
3447.483	41.8
3450.407	27.8
3453.328	28.8
3456.247	30.8
3459.164	24.8
3462.079	28.8
3464.991	21.8
3467.902	21.8
3470.809	19.8
3473.715	25.8
3476.618	16.8
3479.519	12.8
3482.418	11.8
3485.315	14.8
3488.209	5.8
3491.101	5.8
3493.99	7.8
3496.878	3.8
3499.763	-0.2
3502.646	-0.2
3505.527	3.8
3508.405	-7.2
3511.281	-4.2
3514.155	-7.2
3517.027	-12.2
3519.897	-9.2
3522.764	-9.2
3525.629	-12.2
3528.492	-15.2
3531.352	-16.2
3534.211	-16.2
3537.067	-20.2
3539.921	-18.2
3542.773	-19.2
3545.622	-14.2
3548.469	-17.2
3551.315	-18.2
3554.157	-19.2
3556.998	-26.2
3559.837	-26.2
3562.673	-32.2
3565.507	-28.2
3568.339	-23.2
3571.169	-31.2
3573.996	-25.2
3576.822	-40.2
3579.645	-30.2
3582.466	-29.2
3585.285	-29.2
3588.101	-30.2
3590.916	-27.2
3593.728	-30.2
3596.538	-33.2
3599.346	-35.2
3602.152	-37.2
3604.956	-35.2
3607.757	-30.2
3610.556	-35.2
3613.354	-41.2
3616.149	-43.2
3618.942	-41.2
3621.732	-40.2
3624.521	-41.2
3627.307	-38.2
3630.092	-39.2
3632.874	-42.2
3635.654	-44.2
3638.432	-40.2
3641.208	-40.2
3643.982	-41.2
3646.753	-42.2
3649.523	-43.2
3652.29	-41.2
3655.055	-38.2
3657.818	-49.2
3660.579	-46.2
3663.338	-44.2
3666.095	-47.2
3668.849	-51.2
3671.602	-46.2
3674.352	-40.2
3677.101	-43.2
3679.847	-45.2
3682.591	-46.2
3685.333	-42.2
3688.073	-48.2
3690.811	-45.2
3693.547	-52.2
3696.281	-45.2
3699.013	-47.2
3701.742	-57.2
3704.47	-52.2
3707.195	-51.2
3709.919	-54.2
3712.64	-49.2
3715.359	-56.2
3718.076	-54.2
3720.792	-49.2
3723.505	-50.2
3726.216	-43.2
3728.925	-53.2
3731.632	-44.2
3734.336	-44.2
3737.039	-48.2
3739.74	-52.2
3742.439	-53.2
3745.136	-54.2
3747.83	-50.2
3750.523	-57.2
3753.213	-59.2
3755.902	-56.2
3758.589	-53.2
3761.273	-57.2
3763.956	-54.2
3766.636	-51.2
3769.315	-50.2
3771.991	-50.2
3774.665	-53.2
3777.338	-50.2
3780.008	-50.2
3782.677	-55.2
3785.343	-56.2
3788.007	-54.2
3790.67	-59.2
3793.33	-54.2
3795.989	-53.2
3798.645	-53.2
3801.299	-53.2
3803.952	-52.2
3806.602	-52.2
3809.251	-58.2
3811.897	-58.2
3814.542	-59.2
3817.184	-53.2
3819.825	-52.2
3822.463	-53.2
3825.1	-47.2
3827.735	-58.2
3830.367	-54.2
3832.998	-55.2
3835.627	-56.2
3838.253	-49.2
3840.878	-51.2
3843.501	-51.2
3846.122	-56.2
3848.741	-56.2
3851.358	-53.2
3853.973	-52.2
3856.586	-47.2
3859.197	-50.2
3861.806	-53.2
3864.414	-56.2
3867.019	-51.2
3869.622	-41.2
3872.224	-42.2
3874.823	-32.2
3877.421	-28.2
3880.016	-20.2
3882.61	3.8
3885.202	2.8
3887.792	-7.2
3890.38	-25.2
3892.966	-35.2
3895.55	-48.2
3898.132	-47.2
3900.713	-51.2
3903.291	-52.2
3905.868	-51.2
3908.442	-50.2
3911.015	-53.2
3913.586	-56.2
3916.155	-55.2
3918.722	-50.2
3921.287	-57.2
3923.85	-51.2
3926.411	-59.2
3928.971	-63.2
3931.528	-52.2
3934.084	-53.2
3936.638	-54.2
3939.19	-59.2
3941.74	-53.2
3944.288	-53.2
3946.834	-54.2
3949.378	-54.2
3951.921	-56.2
3954.462	-56.2
3957	-44.2
3959.537	-47.2
3962.072	-50.2
3964.606	-49.2
3967.137	-50.2
3969.667	-57.2
3972.194	-55.2
3974.72	-53.2
3977.244	-56.2
3979.766	-54.2
3982.286	-54.2
3984.805	-62.2
3987.321	-54.2
3989.836	-48.2
3992.349	-51.2
3994.86	-54.2
3997.369	-54.2
3999.877	-59.2
4002.382	-53.2
4004.886	-48.2
4007.388	-60.2
4009.888	-55.2
4012.386	-57.2
4014.883	-54.2
4017.377	-51.2
4019.87	-47.2
4022.361	-56.2
4024.85	-52.2
4027.338	-53.2
4029.823	-50.2
4032.307	-56.2
4034.789	-52.2
4037.269	-52.2
4039.747	-56.2
4042.224	-56.2
4044.699	-58.2
4047.172	-62.2
4049.643	-59.2
4052.112	-52.2
4054.58	-52.2
4057.046	-45.2
4059.51	-57.2
4061.972	-56.2
4064.432	-52.2
4066.891	-49.2
4069.348	-48.2
4071.803	-48.2
4074.256	-53.2
4076.708	-53.2
4079.158	-62.2
4081.606	-52.2
4084.052	-57.2
4086.497	-51.2
4088.939	-50.2
4091.38	-57.2
4093.819	-59.2
4096.257	-56.2
4098.693	-57.2
4101.127	-53.2
4103.559	-62.2
4105.989	17.8
4108.418	9.8
4110.845	4.8
4113.27	10.8
4115.694	13.8
4118.115	10.8
4120.535	-53.2
4122.954	-50.2
4125.37	-53.2
4127.785	-48.2
4130.198	-52.2
4132.609	-53.2
4135.019	-54.2
4137.427	-58.2
4139.833	-53.2
4142.237	-54.2
