Data from 2018-3-7_conc=0_n=1_RamanShift_02.txt Node
Date: Wed Mar 07 10:04:23 IST 2018
User: aro
Spectrometer: QEPB0276
Trigger mode: 0
Integration Time (sec): 3.000000E1
Scans to average: 1
Electric dark correction enabled: true
Nonlinearity correction enabled: false
Boxcar width: 0
XAxis mode: Raman Shifts
Number of Pixels in Spectrum: 1044
>>>>>Begin Spectral Data<<<<<
160.701	16.9
166.742	25.9
172.777	59.9
178.805	193.9
184.826	511.9
190.841	1078.9
196.849	1811.9
202.85	2368.9
208.845	2596.9
214.833	2618.9
220.815	2566.9
226.789	2587.9
232.758	2616.9
238.719	2623.9
244.674	2632.9
250.623	2599.9
256.565	2564.9
262.5	2536.9
268.429	2513.9
274.351	2537.9
280.267	2534.9
286.176	2510.9
292.079	2524.9
297.975	2517.9
303.865	2512.9
309.748	2524.9
315.625	2498.9
321.495	2520.9
327.359	2519.9
333.217	2529.9
339.068	2529.9
344.912	2533.9
350.751	2556.9
356.583	2550.9
362.408	2574.9
368.227	2593.9
374.04	2593.9
379.847	2623.9
385.647	2629.9
391.44	2663.9
397.228	2663.9
403.009	2692.9
408.784	2704.9
414.553	2712.9
420.315	2723.9
426.071	2755.9
431.821	2759.9
437.565	2793.9
443.302	2767.9
449.033	2779.9
454.758	2735.9
460.477	2711.9
466.189	2672.9
471.896	2645.9
477.596	2617.9
483.29	2598.9
488.978	2603.9
494.66	2566.9
500.335	2546.9
506.005	2432.9
511.668	2327.9
517.325	2220.9
522.977	2120.9
528.622	2067.9
534.261	2003.9
539.894	1962.9
545.521	1936.9
551.141	1911.9
556.756	1911.9
562.365	1877.9
567.968	1845.9
573.565	1835.9
579.155	1827.9
584.74	1830.9
590.319	1815.9
595.892	1814.9
601.459	1807.9
607.02	1791.9
612.575	1807.9
618.124	1776.9
623.667	1761.9
629.204	1727.9
634.735	1709.9
640.261	1699.9
645.781	1679.9
651.294	1680.9
656.802	1674.9
662.304	1674.9
667.8	1667.9
673.29	1660.9
678.775	1641.9
684.254	1650.9
689.726	1632.9
695.193	1614.9
700.655	1616.9
706.11	1588.9
711.56	1588.9
717.004	1578.9
722.442	1565.9
727.874	1549.9
733.301	1562.9
738.722	1574.9
744.137	1550.9
749.547	1552.9
754.951	1537.9
760.349	1558.9
765.741	1549.9
771.128	1576.9
776.509	1598.9
781.885	1608.9
787.254	1627.9
792.618	1644.9
797.977	1622.9
803.33	1604.9
808.677	1612.9
814.019	1590.9
819.355	1587.9
824.686	1572.9
830.011	1559.9
835.33	1559.9
840.644	1557.9
845.952	1578.9
851.255	1568.9
856.552	1570.9
861.844	1561.9
867.13	1596.9
872.41	1679.9
877.686	1824.9
882.955	1960.9
888.219	2014.9
893.478	1820.9
898.731	1608.9
903.979	1483.9
909.221	1436.9
914.458	1387.9
919.69	1389.9
924.916	1387.9
930.136	1393.9
935.351	1380.9
940.561	1373.9
945.766	1361.9
950.965	1360.9
956.158	1350.9
961.347	1327.9
966.529	1330.9
971.707	1279.9
976.879	1281.9
982.046	1269.9
987.208	1256.9
992.364	1270.9
997.515	1277.9
1002.66	1284.9
1007.801	1312.9
1012.936	1324.9
1018.066	1364.9
1023.19	1374.9
1028.309	1371.9
1033.423	1387.9
1038.532	1405.9
1043.636	1425.9
1048.734	1467.9
1053.827	1460.9
1058.915	1423.9
1063.998	1378.9
1069.075	1344.9
1074.147	1349.9
1079.214	1369.9
1084.276	1404.9
1089.333	1436.9
1094.385	1452.9
1099.431	1408.9
1104.472	1383.9
1109.509	1329.9
1114.54	1270.9
1119.565	1247.9
1124.586	1235.9
1129.602	1204.9
1134.613	1200.9
1139.618	1178.9
1144.619	1178.9
1149.614	1171.9
1154.604	1166.9
1159.589	1168.9
1164.57	1191.9
1169.545	1157.9
1174.515	1183.9
1179.48	1157.9
1184.44	1165.9
1189.395	1142.9
1194.345	1125.9
1199.29	1108.9
1204.23	1120.9
1209.165	1132.9
1214.095	1141.9
1219.021	1136.9
1223.941	1134.9
1228.856	1152.9
1233.766	1161.9
1238.672	1156.9
1243.572	1143.9
1248.467	1167.9
1253.358	1128.9
1258.244	1126.9
1263.124	1117.9
1268	1102.9
1272.871	1105.9
1277.737	1108.9
1282.599	1118.9
1287.455	1127.9
1292.306	1098.9
1297.153	1099.9
1301.995	1086.9
1306.832	1076.9
1311.664	1076.9
1316.491	1084.9
1321.314	1078.9
1326.132	1059.9
1330.945	1042.9
1335.753	1027.9
1340.556	994.9
1345.354	992.9
1350.148	960.9
1354.937	934.9
1359.722	916.9
1364.501	901.9
1369.276	893.9
1374.046	874.9
1378.811	874.9
1383.572	878.9
1388.327	879.9
1393.079	880.9
1397.825	900.9
1402.567	893.9
1407.304	897.9
1412.036	914.9
1416.764	918.9
1421.487	933.9
1426.205	940.9
1430.919	942.9
1435.628	957.9
1440.333	967.9
1445.032	993.9
1449.727	1050.9
1454.418	1105.9
1459.104	1147.9
1463.785	1103.9
1468.462	1053.9
1473.134	970.9
1477.802	903.9
1482.465	862.9
1487.123	840.9
1491.777	829.9
1496.426	809.9
1501.071	778.9
1505.711	754.9
1510.347	730.9
1514.978	716.9
1519.604	722.9
1524.226	720.9
1528.844	715.9
1533.457	697.9
1538.065	708.9
1542.669	704.9
1547.269	699.9
1551.864	716.9
1556.454	730.9
1561.041	754.9
1565.622	743.9
1570.199	735.9
1574.772	739.9
1579.34	769.9
1583.904	767.9
1588.464	773.9
1593.019	784.9
1597.569	773.9
1602.115	767.9
1606.657	761.9
1611.195	775.9
1615.728	759.9
1620.256	751.9
1624.78	751.9
1629.3	749.9
1633.816	748.9
1638.327	749.9
1642.834	738.9
1647.336	741.9
1651.834	741.9
1656.328	725.9
1660.817	732.9
1665.302	711.9
1669.783	687.9
1674.259	673.9
1678.732	653.9
1683.199	621.9
1687.663	606.9
1692.122	568.9
1696.577	545.9
1701.028	524.9
1705.474	491.9
1709.917	486.9
1714.355	471.9
1718.788	470.9
1723.218	473.9
1727.643	469.9
1732.064	477.9
1736.481	478.9
1740.893	473.9
1745.301	476.9
1749.705	461.9
1754.105	435.9
1758.501	424.9
1762.893	415.9
1767.28	408.9
1771.663	406.9
1776.042	395.9
1780.417	381.9
1784.787	376.9
1789.154	363.9
1793.516	351.9
1797.874	350.9
1802.228	356.9
1806.578	349.9
1810.924	335.9
1815.266	344.9
1819.603	350.9
1823.937	352.9
1828.266	354.9
1832.591	362.9
1836.913	358.9
1841.23	363.9
1845.543	364.9
1849.852	357.9
1854.156	360.9
1858.457	361.9
1862.754	373.9
1867.047	368.9
1871.335	362.9
1875.62	354.9
1879.9	355.9
1884.177	342.9
1888.449	334.9
1892.718	333.9
1896.982	338.9
1901.243	306.9
1905.499	313.9
1909.752	297.9
1914	290.9
1918.245	297.9
1922.485	278.9
1926.722	264.9
1930.954	266.9
1935.183	263.9
1939.408	265.9
1943.628	260.9
1947.845	266.9
1952.058	259.9
1956.267	261.9
1960.472	262.9
1964.673	249.9
1968.87	258.9
1973.063	260.9
1977.252	262.9
1981.438	263.9
1985.619	262.9
1989.797	262.9
1993.971	267.9
1998.14	262.9
2002.306	275.9
2006.469	279.9
2010.627	278.9
2014.781	278.9
2018.932	267.9
2023.078	270.9
2027.221	274.9
2031.36	268.9
2035.495	254.9
2039.627	249.9
2043.754	251.9
2047.878	250.9
2051.998	245.9
2056.114	238.9
2060.226	238.9
2064.334	247.9
2068.439	227.9
2072.54	235.9
2076.637	231.9
2080.73	232.9
2084.82	224.9
2088.906	222.9
2092.988	226.9
2097.066	220.9
2101.14	214.9
2105.211	211.9
2109.278	207.9
2113.342	202.9
2117.401	201.9
2121.457	208.9
2125.509	201.9
2129.558	201.9
2133.602	199.9
2137.643	208.9
2141.681	199.9
2145.714	216.9
2149.744	216.9
2153.77	220.9
2157.793	212.9
2161.812	224.9
2165.827	214.9
2169.838	207.9
2173.846	203.9
2177.851	206.9
2181.851	201.9
2185.848	205.9
2189.841	194.9
2193.831	192.9
2197.817	204.9
2201.799	205.9
2205.778	194.9
2209.753	200.9
2213.725	200.9
2217.693	191.9
2221.657	192.9
2225.618	194.9
2229.575	192.9
2233.529	190.9
2237.479	197.9
2241.425	182.9
2245.368	184.9
2249.307	177.9
2253.243	185.9
2257.175	179.9
2261.104	179.9
2265.029	176.9
2268.95	179.9
2272.868	170.9
2276.783	169.9
2280.694	161.9
2284.601	164.9
2288.505	173.9
2292.405	174.9
2296.302	176.9
2300.195	161.9
2304.085	159.9
2307.971	156.9
2311.854	161.9
2315.734	161.9
2319.609	163.9
2323.482	150.9
2327.351	156.9
2331.216	177.9
2335.078	191.9
2338.937	175.9
2342.792	168.9
2346.643	161.9
2350.492	164.9
2354.336	160.9
2358.178	153.9
2362.015	167.9
2365.85	161.9
2369.681	168.9
2373.508	158.9
2377.333	164.9
2381.153	162.9
2384.971	150.9
2388.785	152.9
2392.595	153.9
2396.402	163.9
2400.206	163.9
2404.007	158.9
2407.804	159.9
2411.597	147.9
2415.388	156.9
2419.174	156.9
2422.958	153.9
2426.738	150.9
2430.515	148.9
2434.289	148.9
2438.059	140.9
2441.825	148.9
2445.589	149.9
2449.349	149.9
2453.106	143.9
2456.859	141.9
2460.61	138.9
2464.356	136.9
2468.1	133.9
2471.84	125.9
2475.577	127.9
2479.311	131.9
2483.041	127.9
2486.768	129.9
2490.492	123.9
2494.213	121.9
2497.93	120.9
2501.644	119.9
2505.355	119.9
2509.062	120.9
2512.766	115.9
2516.467	113.9
2520.165	114.9
2523.859	111.9
2527.551	111.9
2531.239	111.9
2534.923	102.9
2538.605	95.9
2542.283	99.9
2545.958	96.9
2549.63	102.9
2553.299	100.9
2556.964	93.9
2560.626	91.9
2564.285	93.9
2567.941	80.9
2571.594	87.9
2575.243	87.9
2578.89	89.9
2582.533	80.9
2586.173	80.9
2589.809	83.9
2593.443	86.9
2597.073	88.9
2600.701	81.9
2604.325	76.9
2607.946	71.9
2611.564	80.9
2615.178	77.9
2618.79	78.9
2622.398	79.9
2626.004	72.9
2629.606	79.9
2633.205	71.9
2636.801	79.9
2640.394	74.9
2643.983	77.9
2647.57	78.9
2651.153	77.9
2654.734	76.9
2658.311	77.9
2661.885	78.9
2665.456	76.9
2669.025	71.9
2672.589	70.9
2676.151	66.9
2679.71	61.9
2683.266	72.9
2686.819	65.9
2690.368	65.9
2693.915	64.9
2697.458	64.9
2700.999	62.9
2704.536	68.9
2708.071	78.9
2711.602	61.9
2715.13	50.9
2718.656	66.9
2722.178	70.9
2725.697	68.9
2729.214	68.9
2732.727	71.9
2736.237	67.9
2739.744	51.9
2743.249	56.9
2746.75	58.9
2750.248	50.9
2753.743	52.9
2757.236	51.9
2760.725	44.9
2764.211	30.9
2767.695	36.9
2771.175	34.9
2774.652	44.9
2778.127	44.9
2781.598	36.9
2785.067	44.9
2788.532	36.9
2791.995	42.9
2795.455	45.9
2798.911	42.9
2802.365	46.9
2805.816	44.9
2809.264	52.9
2812.709	43.9
2816.151	52.9
2819.59	60.9
2823.026	51.9
2826.46	65.9
2829.89	60.9
2833.318	64.9
2836.742	70.9
2840.164	68.9
2843.583	74.9
2846.999	91.9
2850.412	90.9
2853.822	86.9
2857.229	91.9
2860.634	89.9
2864.035	101.9
2867.434	112.9
2870.83	121.9
2874.223	134.9
2877.613	146.9
2881	166.9
2884.385	182.9
2887.766	194.9
2891.145	192.9
2894.521	187.9
2897.894	187.9
2901.264	190.9
2904.631	174.9
2907.996	181.9
2911.358	178.9
2914.717	178.9
2918.073	188.9
2921.426	190.9
2924.777	198.9
2928.124	216.9
2931.469	239.9
2934.811	266.9
2938.15	286.9
2941.487	285.9
2944.821	258.9
2948.152	244.9
2951.48	221.9
2954.805	208.9
2958.128	184.9
2961.447	175.9
2964.765	158.9
2968.079	152.9
2971.39	156.9
2974.699	152.9
2978.005	160.9
2981.308	151.9
2984.609	154.9
2987.907	143.9
2991.202	138.9
2994.494	134.9
2997.784	122.9
3001.07	117.9
3004.355	113.9
3007.636	110.9
3010.915	101.9
3014.191	98.9
3017.464	93.9
3020.734	95.9
3024.002	94.9
3027.267	92.9
3030.53	95.9
3033.789	93.9
3037.046	99.9
3040.301	82.9
3043.552	96.9
3046.801	100.9
3050.048	95.9
3053.291	102.9
3056.532	101.9
3059.771	111.9
3063.006	116.9
3066.239	118.9
3069.469	123.9
3072.697	125.9
3075.922	122.9
3079.144	132.9
3082.364	139.9
3085.581	133.9
3088.795	133.9
3092.007	136.9
3095.216	142.9
3098.423	136.9
3101.627	146.9
3104.828	161.9
3108.026	155.9
3111.222	155.9
3114.416	150.9
3117.607	162.9
3120.795	164.9
3123.98	166.9
3127.163	177.9
3130.344	182.9
3133.521	175.9
3136.696	185.9
3139.869	189.9
3143.039	181.9
3146.206	196.9
3149.371	203.9
3152.533	201.9
3155.693	198.9
3158.85	201.9
3162.005	205.9
3165.157	196.9
3168.306	194.9
3171.453	211.9
3174.597	207.9
3177.739	209.9
3180.878	211.9
3184.014	198.9
3187.149	197.9
3190.28	200.9
3193.409	212.9
3196.536	201.9
3199.659	202.9
3202.781	205.9
3205.9	201.9
3209.016	202.9
3212.13	205.9
3215.241	201.9
3218.35	193.9
3221.456	199.9
3224.56	185.9
3227.661	178.9
3230.76	187.9
3233.856	180.9
3236.95	178.9
3240.041	168.9
3243.13	175.9
3246.216	155.9
3249.3	156.9
3252.382	154.9
3255.46	149.9
3258.537	155.9
3261.611	150.9
3264.682	149.9
3267.751	145.9
3270.818	125.9
3273.882	146.9
3276.943	141.9
3280.002	147.9
3283.059	151.9
3286.113	135.9
3289.165	134.9
3292.214	136.9
3295.261	134.9
3298.306	132.9
3301.348	144.9
3304.387	131.9
3307.425	136.9
3310.459	130.9
3313.492	131.9
3316.521	137.9
3319.549	140.9
3322.574	139.9
3325.597	132.9
3328.617	133.9
3331.635	134.9
3334.65	131.9
3337.663	134.9
3340.674	137.9
3343.682	132.9
3346.688	129.9
3349.691	136.9
3352.692	134.9
3355.691	135.9
3358.687	129.9
3361.681	126.9
3364.673	133.9
3367.662	132.9
3370.649	126.9
3373.633	121.9
3376.615	119.9
3379.595	110.9
3382.572	109.9
3385.547	113.9
3388.52	104.9
3391.49	101.9
3394.458	95.9
3397.424	102.9
3400.387	98.9
3403.348	87.9
3406.307	93.9
3409.263	95.9
3412.217	90.9
3415.168	93.9
3418.118	83.9
3421.065	76.9
3424.009	81.9
3426.951	80.9
3429.891	79.9
3432.829	82.9
3435.764	77.9
3438.697	78.9
3441.628	55.9
3444.557	59.9
3447.483	64.9
3450.407	48.9
3453.328	58.9
3456.247	45.9
3459.164	45.9
3462.079	38.9
3464.991	38.9
3467.902	34.9
3470.809	31.9
3473.715	33.9
3476.618	27.9
3479.519	18.9
3482.418	16.9
3485.315	16.9
3488.209	9.9
3491.101	15.9
3493.99	15.9
3496.878	5.9
3499.763	2.9
3502.646	-2.1
3505.527	-0.1
3508.405	-3.1
3511.281	0.9
3514.155	-4.1
3517.027	-12.1
3519.897	-8.1
3522.764	-13.1
3525.629	-18.1
3528.492	-21.1
3531.352	-20.1
3534.211	-20.1
3537.067	-23.1
3539.921	-21.1
3542.773	-32.1
3545.622	-20.1
3548.469	-29.1
3551.315	-22.1
3554.157	-29.1
3556.998	-29.1
3559.837	-32.1
3562.673	-33.1
3565.507	-33.1
3568.339	-33.1
3571.169	-40.1
3573.996	-34.1
3576.822	-41.1
3579.645	-42.1
3582.466	-43.1
3585.285	-43.1
3588.101	-44.1
3590.916	-39.1
3593.728	-41.1
3596.538	-43.1
3599.346	-49.1
3602.152	-50.1
3604.956	-45.1
3607.757	-42.1
3610.556	-48.1
3613.354	-47.1
3616.149	-50.1
3618.942	-52.1
3621.732	-54.1
3624.521	-46.1
3627.307	-52.1
3630.092	-52.1
3632.874	-54.1
3635.654	-54.1
3638.432	-51.1
3641.208	-55.1
3643.982	-47.1
3646.753	-57.1
3649.523	-49.1
3652.29	-57.1
3655.055	-57.1
3657.818	-60.1
3660.579	-62.1
3663.338	-56.1
3666.095	-59.1
3668.849	-56.1
3671.602	-54.1
3674.352	-53.1
3677.101	-59.1
3679.847	-61.1
3682.591	-63.1
3685.333	-58.1
3688.073	-67.1
3690.811	-59.1
3693.547	-67.1
3696.281	-58.1
3699.013	-68.1
3701.742	-65.1
3704.47	-62.1
3707.195	-62.1
3709.919	-63.1
3712.64	-56.1
3715.359	-63.1
3718.076	-67.1
3720.792	-63.1
3723.505	-64.1
3726.216	-68.1
3728.925	-70.1
3731.632	-64.1
3734.336	-64.1
3737.039	-66.1
3739.74	-71.1
3742.439	-71.1
3745.136	-67.1
3747.83	-62.1
3750.523	-67.1
3753.213	-76.1
3755.902	-71.1
3758.589	-68.1
3761.273	-64.1
3763.956	-66.1
3766.636	-59.1
3769.315	-64.1
3771.991	-71.1
3774.665	-77.1
3777.338	-71.1
3780.008	-68.1
3782.677	-70.1
3785.343	-67.1
3788.007	-71.1
3790.67	-73.1
3793.33	-70.1
3795.989	-71.1
3798.645	-68.1
3801.299	-65.1
3803.952	-69.1
3806.602	-67.1
3809.251	-71.1
3811.897	-74.1
3814.542	-71.1
3817.184	-68.1
3819.825	-58.1
3822.463	-71.1
3825.1	-65.1
3827.735	-71.1
3830.367	-76.1
3832.998	-72.1
3835.627	-69.1
3838.253	-68.1
3840.878	-65.1
3843.501	-67.1
3846.122	-74.1
3848.741	-68.1
3851.358	-68.1
3853.973	-67.1
3856.586	-64.1
3859.197	-66.1
3861.806	-71.1
3864.414	-75.1
3867.019	-67.1
3869.622	-63.1
3872.224	-56.1
3874.823	-53.1
3877.421	-51.1
3880.016	-45.1
3882.61	-25.1
3885.202	-29.1
3887.792	-24.1
3890.38	-42.1
3892.966	-58.1
3895.55	-67.1
3898.132	-71.1
3900.713	-74.1
3903.291	-72.1
3905.868	-68.1
3908.442	-69.1
3911.015	-71.1
3913.586	-71.1
3916.155	-70.1
3918.722	-71.1
3921.287	-75.1
3923.85	-64.1
3926.411	-73.1
3928.971	-74.1
3931.528	-73.1
3934.084	-68.1
3936.638	-66.1
3939.19	-80.1
3941.74	-66.1
3944.288	-64.1
3946.834	-66.1
3949.378	-74.1
3951.921	-77.1
3954.462	-74.1
3957	-66.1
3959.537	-63.1
3962.072	-65.1
3964.606	-67.1
3967.137	-66.1
3969.667	-71.1
3972.194	-68.1
3974.72	-68.1
3977.244	-70.1
3979.766	-69.1
3982.286	-70.1
3984.805	-79.1
3987.321	-70.1
3989.836	-70.1
3992.349	-75.1
3994.86	-73.1
3997.369	-68.1
3999.877	-66.1
4002.382	-68.1
4004.886	-65.1
4007.388	-72.1
4009.888	-70.1
4012.386	-75.1
4014.883	-65.1
4017.377	-66.1
4019.87	-67.1
4022.361	-70.1
4024.85	-65.1
4027.338	-72.1
4029.823	-72.1
4032.307	-65.1
4034.789	-64.1
4037.269	-69.1
4039.747	-72.1
4042.224	-72.1
4044.699	-74.1
4047.172	-75.1
4049.643	-68.1
4052.112	-67.1
4054.58	-65.1
4057.046	-63.1
4059.51	-71.1
4061.972	-73.1
4064.432	-68.1
4066.891	-67.1
4069.348	-66.1
4071.803	-64.1
4074.256	-68.1
4076.708	-70.1
4079.158	-67.1
4081.606	-70.1
4084.052	-68.1
4086.497	-64.1
4088.939	-64.1
4091.38	-75.1
4093.819	-74.1
4096.257	-74.1
4098.693	-74.1
4101.127	-65.1
4103.559	-77.1
4105.989	11.9
4108.418	14.9
4110.845	9.9
4113.27	9.9
4115.694	10.9
4118.115	6.9
4120.535	-72.1
4122.954	-69.1
4125.37	-71.1
4127.785	-64.1
4130.198	-69.1
4132.609	-70.1
4135.019	-72.1
4137.427	-74.1
4139.833	-75.1
4142.237	-75.1
