Data from 2018-3-7_conc=5_n=10_RamanShift_05.txt Node
Date: Wed Mar 07 12:55:22 IST 2018
User: aro
Spectrometer: QEPB0276
Trigger mode: 0
Integration Time (sec): 3.000000E1
Scans to average: 1
Electric dark correction enabled: true
Nonlinearity correction enabled: false
Boxcar width: 0
XAxis mode: Raman Shifts
Number of Pixels in Spectrum: 1044
>>>>>Begin Spectral Data<<<<<
160.701	0.9
166.742	19.9
172.777	70.9
178.805	235.9
184.826	667.9
190.841	1440.9
196.849	2411.9
202.85	3187.9
208.845	3492.9
214.833	3511.9
220.815	3433.9
226.789	3428.9
232.758	3422.9
238.719	3429.9
244.674	3373.9
250.623	3341.9
256.565	3267.9
262.5	3237.9
268.429	3187.9
274.351	3150.9
280.267	3128.9
286.176	3112.9
292.079	3100.9
297.975	3092.9
303.865	3060.9
309.748	3051.9
315.625	3058.9
321.495	3036.9
327.359	3028.9
333.217	3031.9
339.068	3021.9
344.912	3018.9
350.751	3015.9
356.583	3014.9
362.408	2995.9
368.227	3008.9
374.04	3017.9
379.847	3053.9
385.647	3012.9
391.44	3038.9
397.228	3042.9
403.009	3054.9
408.784	3087.9
414.553	3099.9
420.315	3138.9
426.071	3099.9
431.821	3093.9
437.565	3085.9
443.302	3084.9
449.033	3077.9
454.758	3085.9
460.477	3056.9
466.189	3051.9
471.896	3007.9
477.596	3018.9
483.29	3022.9
488.978	3009.9
494.66	2983.9
500.335	2945.9
506.005	2916.9
511.668	2855.9
517.325	2794.9
522.977	2730.9
528.622	2713.9
534.261	2697.9
539.894	2667.9
545.521	2627.9
551.141	2639.9
556.756	2599.9
562.365	2590.9
567.968	2589.9
573.565	2596.9
579.155	2558.9
584.74	2548.9
590.319	2534.9
595.892	2532.9
601.459	2527.9
607.02	2508.9
612.575	2498.9
618.124	2488.9
623.667	2465.9
629.204	2454.9
634.735	2428.9
640.261	2418.9
645.781	2401.9
651.294	2409.9
656.802	2395.9
662.304	2377.9
667.8	2375.9
673.29	2376.9
678.775	2362.9
684.254	2350.9
689.726	2361.9
695.193	2345.9
700.655	2332.9
706.11	2334.9
711.56	2310.9
717.004	2304.9
722.442	2271.9
727.874	2262.9
733.301	2274.9
738.722	2265.9
744.137	2255.9
749.547	2250.9
754.951	2255.9
760.349	2259.9
765.741	2253.9
771.128	2256.9
776.509	2252.9
781.885	2272.9
787.254	2280.9
792.618	2257.9
797.977	2254.9
803.33	2237.9
808.677	2228.9
814.019	2206.9
819.355	2178.9
824.686	2181.9
830.011	2193.9
835.33	2171.9
840.644	2166.9
845.952	2159.9
851.255	2157.9
856.552	2173.9
861.844	2167.9
867.13	2158.9
872.41	2147.9
877.686	2140.9
882.955	2120.9
888.219	2091.9
893.478	2087.9
898.731	2046.9
903.979	2017.9
909.221	1997.9
914.458	2011.9
919.69	2005.9
924.916	2019.9
930.136	2006.9
935.351	2029.9
940.561	2032.9
945.766	2016.9
950.965	2007.9
956.158	1996.9
961.347	1978.9
966.529	1955.9
971.707	1906.9
976.879	1912.9
982.046	1876.9
987.208	1865.9
992.364	1860.9
997.515	1865.9
1002.66	1877.9
1007.801	1894.9
1012.936	1928.9
1018.066	1913.9
1023.19	1923.9
1028.309	1910.9
1033.423	1906.9
1038.532	1879.9
1043.636	1869.9
1048.734	1865.9
1053.827	1825.9
1058.915	1831.9
1063.998	1798.9
1069.075	1829.9
1074.147	1803.9
1079.214	1820.9
1084.276	1838.9
1089.333	1829.9
1094.385	1823.9
1099.431	1812.9
1104.472	1811.9
1109.509	1813.9
1114.54	1797.9
1119.565	1773.9
1124.586	1750.9
1129.602	1738.9
1134.613	1733.9
1139.618	1708.9
1144.619	1715.9
1149.614	1717.9
1154.604	1709.9
1159.589	1725.9
1164.57	1718.9
1169.545	1724.9
1174.515	1733.9
1179.48	1723.9
1184.44	1702.9
1189.395	1694.9
1194.345	1682.9
1199.29	1653.9
1204.23	1667.9
1209.165	1664.9
1214.095	1675.9
1219.021	1695.9
1223.941	1697.9
1228.856	1719.9
1233.766	1720.9
1238.672	1730.9
1243.572	1699.9
1248.467	1701.9
1253.358	1676.9
1258.244	1653.9
1263.124	1626.9
1268	1607.9
1272.871	1590.9
1277.737	1568.9
1282.599	1577.9
1287.455	1563.9
1292.306	1574.9
1297.153	1590.9
1301.995	1593.9
1306.832	1611.9
1311.664	1608.9
1316.491	1611.9
1321.314	1587.9
1326.132	1601.9
1330.945	1561.9
1335.753	1549.9
1340.556	1500.9
1345.354	1485.9
1350.148	1439.9
1354.937	1394.9
1359.722	1365.9
1364.501	1320.9
1369.276	1298.9
1374.046	1257.9
1378.811	1253.9
1383.572	1259.9
1388.327	1251.9
1393.079	1277.9
1397.825	1287.9
1402.567	1306.9
1407.304	1332.9
1412.036	1330.9
1416.764	1327.9
1421.487	1341.9
1426.205	1325.9
1430.919	1326.9
1435.628	1319.9
1440.333	1347.9
1445.032	1330.9
1449.727	1368.9
1454.418	1370.9
1459.104	1354.9
1463.785	1311.9
1468.462	1298.9
1473.134	1270.9
1477.802	1217.9
1482.465	1198.9
1487.123	1168.9
1491.777	1130.9
1496.426	1121.9
1501.071	1101.9
1505.711	1088.9
1510.347	1079.9
1514.978	1062.9
1519.604	1048.9
1524.226	1060.9
1528.844	1046.9
1533.457	1052.9
1538.065	1065.9
1542.669	1045.9
1547.269	1054.9
1551.864	1057.9
1556.454	1075.9
1561.041	1095.9
1565.622	1111.9
1570.199	1121.9
1574.772	1143.9
1579.34	1166.9
1583.904	1166.9
1588.464	1192.9
1593.019	1205.9
1597.569	1204.9
1602.115	1200.9
1606.657	1195.9
1611.195	1188.9
1615.728	1180.9
1620.256	1170.9
1624.78	1161.9
1629.3	1177.9
1633.816	1154.9
1638.327	1179.9
1642.834	1163.9
1647.336	1161.9
1651.834	1171.9
1656.328	1164.9
1660.817	1150.9
1665.302	1129.9
1669.783	1102.9
1674.259	1070.9
1678.732	1048.9
1683.199	997.9
1687.663	960.9
1692.122	889.9
1696.577	841.9
1701.028	802.9
1705.474	742.9
1709.917	713.9
1714.355	724.9
1718.788	736.9
1723.218	745.9
1727.643	745.9
1732.064	748.9
1736.481	754.9
1740.893	733.9
1745.301	717.9
1749.705	706.9
1754.105	705.9
1758.501	668.9
1762.893	661.9
1767.28	647.9
1771.663	648.9
1776.042	636.9
1780.417	609.9
1784.787	596.9
1789.154	576.9
1793.516	560.9
1797.874	544.9
1802.228	532.9
1806.578	533.9
1810.924	525.9
1815.266	526.9
1819.603	535.9
1823.937	545.9
1828.266	557.9
1832.591	571.9
1836.913	567.9
1841.23	566.9
1845.543	566.9
1849.852	573.9
1854.156	578.9
1858.457	583.9
1862.754	595.9
1867.047	576.9
1871.335	579.9
1875.62	571.9
1879.9	561.9
1884.177	549.9
1888.449	535.9
1892.718	541.9
1896.982	521.9
1901.243	506.9
1905.499	492.9
1909.752	480.9
1914	458.9
1918.245	456.9
1922.485	437.9
1926.722	430.9
1930.954	426.9
1935.183	419.9
1939.408	430.9
1943.628	420.9
1947.845	419.9
1952.058	404.9
1956.267	394.9
1960.472	407.9
1964.673	402.9
1968.87	401.9
1973.063	411.9
1977.252	411.9
1981.438	422.9
1985.619	420.9
1989.797	433.9
1993.971	434.9
1998.14	444.9
2002.306	439.9
2006.469	450.9
2010.627	447.9
2014.781	445.9
2018.932	445.9
2023.078	435.9
2027.221	437.9
2031.36	441.9
2035.495	433.9
2039.627	421.9
2043.754	422.9
2047.878	407.9
2051.998	411.9
2056.114	404.9
2060.226	400.9
2064.334	392.9
2068.439	378.9
2072.54	382.9
2076.637	372.9
2080.73	374.9
2084.82	371.9
2088.906	366.9
2092.988	350.9
2097.066	352.9
2101.14	337.9
2105.211	338.9
2109.278	339.9
2113.342	326.9
2117.401	335.9
2121.457	334.9
2125.509	332.9
2129.558	331.9
2133.602	334.9
2137.643	334.9
2141.681	332.9
2145.714	342.9
2149.744	353.9
2153.77	347.9
2157.793	350.9
2161.812	358.9
2165.827	349.9
2169.838	342.9
2173.846	336.9
2177.851	332.9
2181.851	337.9
2185.848	334.9
2189.841	324.9
2193.831	331.9
2197.817	330.9
2201.799	330.9
2205.778	339.9
2209.753	333.9
2213.725	330.9
2217.693	329.9
2221.657	320.9
2225.618	328.9
2229.575	318.9
2233.529	316.9
2237.479	330.9
2241.425	306.9
2245.368	318.9
2249.307	309.9
2253.243	302.9
2257.175	304.9
2261.104	293.9
2265.029	289.9
2268.95	287.9
2272.868	292.9
2276.783	278.9
2280.694	280.9
2284.601	279.9
2288.505	279.9
2292.405	283.9
2296.302	284.9
2300.195	283.9
2304.085	263.9
2307.971	271.9
2311.854	264.9
2315.734	254.9
2319.609	266.9
2323.482	263.9
2327.351	260.9
2331.216	262.9
2335.078	266.9
2338.937	264.9
2342.792	262.9
2346.643	259.9
2350.492	256.9
2354.336	259.9
2358.178	252.9
2362.015	262.9
2365.85	256.9
2369.681	269.9
2373.508	270.9
2377.333	272.9
2381.153	279.9
2384.971	272.9
2388.785	271.9
2392.595	275.9
2396.402	275.9
2400.206	270.9
2404.007	268.9
2407.804	271.9
2411.597	271.9
2415.388	269.9
2419.174	268.9
2422.958	260.9
2426.738	265.9
2430.515	264.9
2434.289	261.9
2438.059	256.9
2441.825	246.9
2445.589	253.9
2449.349	249.9
2453.106	250.9
2456.859	232.9
2460.61	241.9
2464.356	241.9
2468.1	231.9
2471.84	230.9
2475.577	231.9
2479.311	222.9
2483.041	228.9
2486.768	227.9
2490.492	223.9
2494.213	220.9
2497.93	226.9
2501.644	217.9
2505.355	218.9
2509.062	205.9
2512.766	213.9
2516.467	205.9
2520.165	205.9
2523.859	200.9
2527.551	189.9
2531.239	190.9
2534.923	184.9
2538.605	184.9
2542.283	181.9
2545.958	178.9
2549.63	174.9
2553.299	178.9
2556.964	166.9
2560.626	168.9
2564.285	170.9
2567.941	167.9
2571.594	164.9
2575.243	174.9
2578.89	154.9
2582.533	158.9
2586.173	145.9
2589.809	158.9
2593.443	159.9
2597.073	147.9
2600.701	147.9
2604.325	134.9
2607.946	143.9
2611.564	147.9
2615.178	145.9
2618.79	148.9
2622.398	147.9
2626.004	148.9
2629.606	136.9
2633.205	143.9
2636.801	141.9
2640.394	149.9
2643.983	140.9
2647.57	152.9
2651.153	136.9
2654.734	137.9
2658.311	136.9
2661.885	132.9
2665.456	142.9
2669.025	136.9
2672.589	135.9
2676.151	132.9
2679.71	130.9
2683.266	126.9
2686.819	129.9
2690.368	123.9
2693.915	127.9
2697.458	111.9
2700.999	122.9
2704.536	119.9
2708.071	111.9
2711.602	111.9
2715.13	105.9
2718.656	103.9
2722.178	101.9
2725.697	93.9
2729.214	97.9
2732.727	101.9
2736.237	96.9
2739.744	88.9
2743.249	90.9
2746.75	86.9
2750.248	82.9
2753.743	83.9
2757.236	73.9
2760.725	69.9
2764.211	74.9
2767.695	67.9
2771.175	62.9
2774.652	60.9
2778.127	64.9
2781.598	65.9
2785.067	61.9
2788.532	69.9
2791.995	77.9
2795.455	70.9
2798.911	76.9
2802.365	75.9
2805.816	71.9
2809.264	77.9
2812.709	79.9
2816.151	73.9
2819.59	89.9
2823.026	77.9
2826.46	76.9
2829.89	77.9
2833.318	71.9
2836.742	77.9
2840.164	75.9
2843.583	79.9
2846.999	83.9
2850.412	76.9
2853.822	79.9
2857.229	85.9
2860.634	85.9
2864.035	75.9
2867.434	88.9
2870.83	90.9
2874.223	93.9
2877.613	90.9
2881	93.9
2884.385	101.9
2887.766	102.9
2891.145	109.9
2894.521	109.9
2897.894	96.9
2901.264	106.9
2904.631	107.9
2907.996	107.9
2911.358	112.9
2914.717	112.9
2918.073	108.9
2921.426	117.9
2924.777	116.9
2928.124	122.9
2931.469	127.9
2934.811	128.9
2938.15	131.9
2941.487	142.9
2944.821	129.9
2948.152	139.9
2951.48	133.9
2954.805	132.9
2958.128	122.9
2961.447	128.9
2964.765	120.9
2968.079	120.9
2971.39	121.9
2974.699	120.9
2978.005	126.9
2981.308	117.9
2984.609	118.9
2987.907	120.9
2991.202	119.9
2994.494	118.9
2997.784	108.9
3001.07	111.9
3004.355	118.9
3007.636	124.9
3010.915	126.9
3014.191	126.9
3017.464	127.9
3020.734	134.9
3024.002	136.9
3027.267	139.9
3030.53	150.9
3033.789	153.9
3037.046	151.9
3040.301	155.9
3043.552	167.9
3046.801	175.9
3050.048	167.9
3053.291	177.9
3056.532	190.9
3059.771	192.9
3063.006	203.9
3066.239	205.9
3069.469	213.9
3072.697	210.9
3075.922	217.9
3079.144	215.9
3082.364	221.9
3085.581	237.9
3088.795	245.9
3092.007	247.9
3095.216	249.9
3098.423	245.9
3101.627	249.9
3104.828	265.9
3108.026	270.9
3111.222	268.9
3114.416	277.9
3117.607	283.9
3120.795	288.9
3123.98	281.9
3127.163	311.9
3130.344	303.9
3133.521	305.9
3136.696	321.9
3139.869	325.9
3143.039	326.9
3146.206	331.9
3149.371	334.9
3152.533	344.9
3155.693	344.9
3158.85	348.9
3162.005	345.9
3165.157	349.9
3168.306	342.9
3171.453	358.9
3174.597	345.9
3177.739	359.9
3180.878	358.9
3184.014	355.9
3187.149	362.9
3190.28	362.9
3193.409	373.9
3196.536	365.9
3199.659	364.9
3202.781	366.9
3205.9	360.9
3209.016	352.9
3212.13	380.9
3215.241	357.9
3218.35	355.9
3221.456	361.9
3224.56	346.9
3227.661	343.9
3230.76	340.9
3233.856	337.9
3236.95	315.9
3240.041	306.9
3243.13	310.9
3246.216	301.9
3249.3	297.9
3252.382	302.9
3255.46	297.9
3258.537	292.9
3261.611	285.9
3264.682	280.9
3267.751	281.9
3270.818	264.9
3273.882	282.9
3276.943	263.9
3280.002	282.9
3283.059	271.9
3286.113	278.9
3289.165	278.9
3292.214	272.9
3295.261	270.9
3298.306	273.9
3301.348	275.9
3304.387	262.9
3307.425	260.9
3310.459	261.9
3313.492	261.9
3316.521	264.9
3319.549	264.9
3322.574	251.9
3325.597	255.9
3328.617	260.9
3331.635	264.9
3334.65	261.9
3337.663	239.9
3340.674	263.9
3343.682	252.9
3346.688	249.9
3349.691	258.9
3352.692	259.9
3355.691	265.9
3358.687	256.9
3361.681	249.9
3364.673	248.9
3367.662	243.9
3370.649	240.9
3373.633	240.9
3376.615	233.9
3379.595	233.9
3382.572	222.9
3385.547	218.9
3388.52	216.9
3391.49	201.9
3394.458	204.9
3397.424	204.9
3400.387	201.9
3403.348	200.9
3406.307	197.9
3409.263	202.9
3412.217	197.9
3415.168	191.9
3418.118	188.9
3421.065	187.9
3424.009	178.9
3426.951	170.9
3429.891	169.9
3432.829	171.9
3435.764	170.9
3438.697	158.9
3441.628	153.9
3444.557	146.9
3447.483	142.9
3450.407	132.9
3453.328	128.9
3456.247	118.9
3459.164	114.9
3462.079	105.9
3464.991	106.9
3467.902	100.9
3470.809	99.9
3473.715	95.9
3476.618	85.9
3479.519	78.9
3482.418	76.9
3485.315	78.9
3488.209	64.9
3491.101	65.9
3493.99	63.9
3496.878	54.9
3499.763	49.9
3502.646	53.9
3505.527	45.9
3508.405	42.9
3511.281	39.9
3514.155	31.9
3517.027	22.9
3519.897	28.9
3522.764	25.9
3525.629	22.9
3528.492	17.9
3531.352	13.9
3534.211	9.9
3537.067	3.9
3539.921	10.9
3542.773	-4.1
3545.622	6.9
3548.469	-1.1
3551.315	-6.1
3554.157	-4.1
3556.998	-8.1
3559.837	-19.1
3562.673	-9.1
3565.507	-16.1
3568.339	-14.1
3571.169	-21.1
3573.996	-15.1
3576.822	-30.1
3579.645	-31.1
3582.466	-27.1
3585.285	-28.1
3588.101	-29.1
3590.916	-30.1
3593.728	-32.1
3596.538	-30.1
3599.346	-31.1
3602.152	-35.1
3604.956	-32.1
3607.757	-36.1
3610.556	-36.1
3613.354	-46.1
3616.149	-47.1
3618.942	-45.1
3621.732	-49.1
3624.521	-39.1
3627.307	-46.1
3630.092	-49.1
3632.874	-51.1
3635.654	-53.1
3638.432	-48.1
3641.208	-54.1
3643.982	-48.1
3646.753	-48.1
3649.523	-46.1
3652.29	-51.1
3655.055	-46.1
3657.818	-57.1
3660.579	-55.1
3663.338	-49.1
3666.095	-53.1
3668.849	-55.1
3671.602	-54.1
3674.352	-55.1
3677.101	-61.1
3679.847	-60.1
3682.591	-60.1
3685.333	-62.1
3688.073	-66.1
3690.811	-61.1
3693.547	-69.1
3696.281	-60.1
3699.013	-65.1
3701.742	-66.1
3704.47	-63.1
3707.195	-67.1
3709.919	-64.1
3712.64	-63.1
3715.359	-64.1
3718.076	-67.1
3720.792	-63.1
3723.505	-66.1
3726.216	-60.1
3728.925	-70.1
3731.632	-64.1
3734.336	-65.1
3737.039	-62.1
3739.74	-67.1
3742.439	-73.1
3745.136	-72.1
3747.83	-75.1
3750.523	-73.1
3753.213	-81.1
3755.902	-72.1
3758.589	-68.1
3761.273	-73.1
3763.956	-76.1
3766.636	-67.1
3769.315	-67.1
3771.991	-69.1
3774.665	-72.1
3777.338	-72.1
3780.008	-75.1
3782.677	-77.1
3785.343	-73.1
3788.007	-75.1
3790.67	-74.1
3793.33	-67.1
3795.989	-71.1
3798.645	-74.1
3801.299	-69.1
3803.952	-71.1
3806.602	-76.1
3809.251	-75.1
3811.897	-76.1
3814.542	-74.1
3817.184	-75.1
3819.825	-69.1
3822.463	-73.1
3825.1	-73.1
3827.735	-81.1
3830.367	-78.1
3832.998	-77.1
3835.627	-77.1
3838.253	-75.1
3840.878	-65.1
3843.501	-73.1
3846.122	-78.1
3848.741	-72.1
3851.358	-73.1
3853.973	-69.1
3856.586	-70.1
3859.197	-73.1
3861.806	-76.1
3864.414	-73.1
3867.019	-71.1
3869.622	-71.1
3872.224	-68.1
3874.823	-63.1
3877.421	-60.1
3880.016	-51.1
3882.61	-36.1
3885.202	-36.1
3887.792	-39.1
3890.38	-53.1
3892.966	-68.1
3895.55	-72.1
3898.132	-72.1
3900.713	-75.1
3903.291	-77.1
3905.868	-74.1
3908.442	-73.1
3911.015	-74.1
3913.586	-78.1
3916.155	-80.1
3918.722	-76.1
3921.287	-78.1
3923.85	-72.1
3926.411	-79.1
3928.971	-82.1
3931.528	-77.1
3934.084	-76.1
3936.638	-77.1
3939.19	-83.1
3941.74	-76.1
3944.288	-78.1
3946.834	-74.1
3949.378	-79.1
3951.921	-79.1
3954.462	-77.1
3957	-71.1
3959.537	-69.1
3962.072	-75.1
3964.606	-74.1
3967.137	-73.1
3969.667	-77.1
3972.194	-72.1
3974.72	-74.1
3977.244	-70.1
3979.766	-77.1
3982.286	-80.1
3984.805	-80.1
3987.321	-75.1
3989.836	-72.1
3992.349	-75.1
3994.86	-74.1
3997.369	-77.1
3999.877	-76.1
4002.382	-75.1
4004.886	-75.1
4007.388	-79.1
4009.888	-74.1
4012.386	-79.1
4014.883	-76.1
4017.377	-70.1
4019.87	-76.1
4022.361	-72.1
4024.85	-71.1
4027.338	-77.1
4029.823	-79.1
4032.307	-74.1
4034.789	-69.1
4037.269	-78.1
4039.747	-75.1
4042.224	-70.1
4044.699	-79.1
4047.172	-75.1
4049.643	-76.1
4052.112	-80.1
4054.58	-76.1
4057.046	-73.1
4059.51	-82.1
4061.972	-79.1
4064.432	-72.1
4066.891	-70.1
4069.348	-73.1
4071.803	-71.1
4074.256	-73.1
4076.708	-71.1
4079.158	-78.1
4081.606	-74.1
4084.052	-73.1
4086.497	-71.1
4088.939	-73.1
4091.38	-79.1
4093.819	-73.1
4096.257	-75.1
4098.693	-78.1
4101.127	-74.1
4103.559	-81.1
4105.989	-17.1
4108.418	-18.1
4110.845	-15.1
4113.27	-15.1
4115.694	-6.1
4118.115	-3.1
4120.535	-76.1
4122.954	-71.1
4125.37	-73.1
4127.785	-74.1
4130.198	-74.1
4132.609	-80.1
4135.019	-80.1
4137.427	-83.1
4139.833	-82.1
4142.237	-82.1
