Data from 2018-3-7_conc=5_n=1_RamanShift_03.txt Node
Date: Wed Mar 07 12:23:52 IST 2018
User: aro
Spectrometer: QEPB0276
Trigger mode: 0
Integration Time (sec): 3.000000E1
Scans to average: 1
Electric dark correction enabled: true
Nonlinearity correction enabled: false
Boxcar width: 0
XAxis mode: Raman Shifts
Number of Pixels in Spectrum: 1044
>>>>>Begin Spectral Data<<<<<
160.701	11.2
166.742	20.2
172.777	54.2
178.805	152.2
184.826	409.2
190.841	872.2
196.849	1432.2
202.85	1889.2
208.845	2057.2
214.833	2075.2
220.815	2018.2
226.789	2015.2
232.758	2032.2
238.719	2035.2
244.674	2011.2
250.623	1997.2
256.565	1977.2
262.5	1934.2
268.429	1919.2
274.351	1907.2
280.267	1897.2
286.176	1879.2
292.079	1884.2
297.975	1885.2
303.865	1887.2
309.748	1860.2
315.625	1875.2
321.495	1868.2
327.359	1877.2
333.217	1863.2
339.068	1876.2
344.912	1885.2
350.751	1872.2
356.583	1865.2
362.408	1889.2
368.227	1877.2
374.04	1911.2
379.847	1902.2
385.647	1887.2
391.44	1908.2
397.228	1928.2
403.009	1937.2
408.784	1942.2
414.553	1938.2
420.315	1952.2
426.071	1951.2
431.821	1950.2
437.565	1968.2
443.302	1938.2
449.033	1947.2
454.758	1947.2
460.477	1926.2
466.189	1909.2
471.896	1895.2
477.596	1881.2
483.29	1871.2
488.978	1868.2
494.66	1852.2
500.335	1835.2
506.005	1764.2
511.668	1708.2
517.325	1662.2
522.977	1611.2
528.622	1577.2
534.261	1550.2
539.894	1508.2
545.521	1513.2
551.141	1505.2
556.756	1498.2
562.365	1471.2
567.968	1477.2
573.565	1465.2
579.155	1455.2
584.74	1459.2
590.319	1435.2
595.892	1455.2
601.459	1443.2
607.02	1429.2
612.575	1422.2
618.124	1401.2
623.667	1398.2
629.204	1375.2
634.735	1345.2
640.261	1354.2
645.781	1356.2
651.294	1340.2
656.802	1322.2
662.304	1332.2
667.8	1323.2
673.29	1313.2
678.775	1338.2
684.254	1319.2
689.726	1308.2
695.193	1306.2
700.655	1306.2
706.11	1322.2
711.56	1278.2
717.004	1262.2
722.442	1257.2
727.874	1271.2
733.301	1258.2
738.722	1249.2
744.137	1238.2
749.547	1254.2
754.951	1219.2
760.349	1245.2
765.741	1262.2
771.128	1246.2
776.509	1270.2
781.885	1280.2
787.254	1267.2
792.618	1270.2
797.977	1266.2
803.33	1248.2
808.677	1250.2
814.019	1247.2
819.355	1233.2
824.686	1229.2
830.011	1217.2
835.33	1221.2
840.644	1218.2
845.952	1199.2
851.255	1189.2
856.552	1213.2
861.844	1207.2
867.13	1177.2
872.41	1176.2
877.686	1180.2
882.955	1158.2
888.219	1141.2
893.478	1132.2
898.731	1100.2
903.979	1100.2
909.221	1090.2
914.458	1101.2
919.69	1089.2
924.916	1113.2
930.136	1099.2
935.351	1115.2
940.561	1104.2
945.766	1093.2
950.965	1094.2
956.158	1093.2
961.347	1079.2
966.529	1065.2
971.707	1042.2
976.879	1027.2
982.046	1019.2
987.208	1016.2
992.364	999.2
997.515	1024.2
1002.66	1019.2
1007.801	1049.2
1012.936	1047.2
1018.066	1053.2
1023.19	1050.2
1028.309	1046.2
1033.423	1039.2
1038.532	1046.2
1043.636	1037.2
1048.734	1035.2
1053.827	1008.2
1058.915	999.2
1063.998	999.2
1069.075	978.2
1074.147	993.2
1079.214	983.2
1084.276	1000.2
1089.333	998.2
1094.385	997.2
1099.431	1000.2
1104.472	993.2
1109.509	986.2
1114.54	961.2
1119.565	964.2
1124.586	946.2
1129.602	943.2
1134.613	931.2
1139.618	934.2
1144.619	920.2
1149.614	939.2
1154.604	921.2
1159.589	933.2
1164.57	937.2
1169.545	927.2
1174.515	949.2
1179.48	938.2
1184.44	923.2
1189.395	922.2
1194.345	918.2
1199.29	901.2
1204.23	906.2
1209.165	902.2
1214.095	902.2
1219.021	914.2
1223.941	913.2
1228.856	932.2
1233.766	942.2
1238.672	936.2
1243.572	913.2
1248.467	916.2
1253.358	905.2
1258.244	901.2
1263.124	879.2
1268	865.2
1272.871	844.2
1277.737	841.2
1282.599	848.2
1287.455	826.2
1292.306	845.2
1297.153	842.2
1301.995	851.2
1306.832	865.2
1311.664	878.2
1316.491	873.2
1321.314	850.2
1326.132	863.2
1330.945	828.2
1335.753	816.2
1340.556	811.2
1345.354	788.2
1350.148	780.2
1354.937	745.2
1359.722	738.2
1364.501	730.2
1369.276	718.2
1374.046	706.2
1378.811	691.2
1383.572	689.2
1388.327	694.2
1393.079	690.2
1397.825	698.2
1402.567	705.2
1407.304	701.2
1412.036	710.2
1416.764	712.2
1421.487	705.2
1426.205	701.2
1430.919	718.2
1435.628	713.2
1440.333	734.2
1445.032	715.2
1449.727	729.2
1454.418	736.2
1459.104	728.2
1463.785	720.2
1468.462	704.2
1473.134	692.2
1477.802	668.2
1482.465	654.2
1487.123	631.2
1491.777	622.2
1496.426	625.2
1501.071	608.2
1505.711	596.2
1510.347	593.2
1514.978	599.2
1519.604	573.2
1524.226	578.2
1528.844	583.2
1533.457	568.2
1538.065	572.2
1542.669	575.2
1547.269	566.2
1551.864	570.2
1556.454	593.2
1561.041	604.2
1565.622	603.2
1570.199	598.2
1574.772	606.2
1579.34	616.2
1583.904	633.2
1588.464	646.2
1593.019	646.2
1597.569	649.2
1602.115	638.2
1606.657	639.2
1611.195	638.2
1615.728	622.2
1620.256	633.2
1624.78	629.2
1629.3	632.2
1633.816	626.2
1638.327	640.2
1642.834	632.2
1647.336	626.2
1651.834	628.2
1656.328	641.2
1660.817	631.2
1665.302	618.2
1669.783	607.2
1674.259	596.2
1678.732	573.2
1683.199	552.2
1687.663	533.2
1692.122	509.2
1696.577	478.2
1701.028	466.2
1705.474	433.2
1709.917	429.2
1714.355	421.2
1718.788	416.2
1723.218	415.2
1727.643	421.2
1732.064	409.2
1736.481	417.2
1740.893	392.2
1745.301	396.2
1749.705	389.2
1754.105	374.2
1758.501	369.2
1762.893	375.2
1767.28	356.2
1771.663	355.2
1776.042	356.2
1780.417	345.2
1784.787	341.2
1789.154	329.2
1793.516	318.2
1797.874	309.2
1802.228	318.2
1806.578	307.2
1810.924	298.2
1815.266	305.2
1819.603	307.2
1823.937	310.2
1828.266	305.2
1832.591	314.2
1836.913	310.2
1841.23	320.2
1845.543	311.2
1849.852	307.2
1854.156	321.2
1858.457	314.2
1862.754	323.2
1867.047	314.2
1871.335	318.2
1875.62	317.2
1879.9	319.2
1884.177	300.2
1888.449	305.2
1892.718	304.2
1896.982	297.2
1901.243	277.2
1905.499	290.2
1909.752	272.2
1914	280.2
1918.245	338.2
1922.485	277.2
1926.722	250.2
1930.954	251.2
1935.183	263.2
1939.408	253.2
1943.628	251.2
1947.845	247.2
1952.058	247.2
1956.267	237.2
1960.472	247.2
1964.673	236.2
1968.87	238.2
1973.063	238.2
1977.252	234.2
1981.438	231.2
1985.619	223.2
1989.797	234.2
1993.971	232.2
1998.14	238.2
2002.306	238.2
2006.469	251.2
2010.627	242.2
2014.781	234.2
2018.932	251.2
2023.078	250.2
2027.221	239.2
2031.36	247.2
2035.495	234.2
2039.627	218.2
2043.754	223.2
2047.878	220.2
2051.998	229.2
2056.114	220.2
2060.226	215.2
2064.334	214.2
2068.439	208.2
2072.54	212.2
2076.637	214.2
2080.73	213.2
2084.82	211.2
2088.906	199.2
2092.988	206.2
2097.066	195.2
2101.14	201.2
2105.211	198.2
2109.278	193.2
2113.342	190.2
2117.401	195.2
2121.457	184.2
2125.509	183.2
2129.558	185.2
2133.602	185.2
2137.643	186.2
2141.681	182.2
2145.714	184.2
2149.744	192.2
2153.77	187.2
2157.793	185.2
2161.812	191.2
2165.827	182.2
2169.838	184.2
2173.846	180.2
2177.851	171.2
2181.851	176.2
2185.848	175.2
2189.841	173.2
2193.831	175.2
2197.817	173.2
2201.799	173.2
2205.778	165.2
2209.753	171.2
2213.725	169.2
2217.693	178.2
2221.657	172.2
2225.618	166.2
2229.575	167.2
2233.529	166.2
2237.479	168.2
2241.425	160.2
2245.368	169.2
2249.307	159.2
2253.243	156.2
2257.175	150.2
2261.104	143.2
2265.029	141.2
2268.95	148.2
2272.868	140.2
2276.783	141.2
2280.694	128.2
2284.601	136.2
2288.505	140.2
2292.405	141.2
2296.302	145.2
2300.195	132.2
2304.085	129.2
2307.971	134.2
2311.854	129.2
2315.734	122.2
2319.609	132.2
2323.482	126.2
2327.351	134.2
2331.216	133.2
2335.078	144.2
2338.937	133.2
2342.792	127.2
2346.643	130.2
2350.492	136.2
2354.336	124.2
2358.178	123.2
2362.015	130.2
2365.85	125.2
2369.681	135.2
2373.508	131.2
2377.333	137.2
2381.153	126.2
2384.971	132.2
2388.785	128.2
2392.595	131.2
2396.402	132.2
2400.206	128.2
2404.007	123.2
2407.804	126.2
2411.597	124.2
2415.388	123.2
2419.174	127.2
2422.958	125.2
2426.738	124.2
2430.515	115.2
2434.289	115.2
2438.059	121.2
2441.825	116.2
2445.589	125.2
2449.349	112.2
2453.106	122.2
2456.859	107.2
2460.61	107.2
2464.356	114.2
2468.1	109.2
2471.84	115.2
2475.577	105.2
2479.311	101.2
2483.041	100.2
2486.768	99.2
2490.492	99.2
2494.213	95.2
2497.93	101.2
2501.644	109.2
2505.355	93.2
2509.062	92.2
2512.766	92.2
2516.467	90.2
2520.165	90.2
2523.859	95.2
2527.551	92.2
2531.239	83.2
2534.923	83.2
2538.605	84.2
2542.283	77.2
2545.958	86.2
2549.63	78.2
2553.299	76.2
2556.964	75.2
2560.626	72.2
2564.285	71.2
2567.941	73.2
2571.594	70.2
2575.243	73.2
2578.89	72.2
2582.533	67.2
2586.173	66.2
2589.809	71.2
2593.443	71.2
2597.073	67.2
2600.701	66.2
2604.325	63.2
2607.946	55.2
2611.564	65.2
2615.178	66.2
2618.79	65.2
2622.398	64.2
2626.004	60.2
2629.606	58.2
2633.205	59.2
2636.801	59.2
2640.394	63.2
2643.983	56.2
2647.57	60.2
2651.153	54.2
2654.734	56.2
2658.311	52.2
2661.885	54.2
2665.456	57.2
2669.025	60.2
2672.589	54.2
2676.151	53.2
2679.71	51.2
2683.266	52.2
2686.819	51.2
2690.368	53.2
2693.915	48.2
2697.458	51.2
2700.999	49.2
2704.536	47.2
2708.071	48.2
2711.602	42.2
2715.13	34.2
2718.656	38.2
2722.178	33.2
2725.697	36.2
2729.214	35.2
2732.727	43.2
2736.237	40.2
2739.744	36.2
2743.249	35.2
2746.75	29.2
2750.248	36.2
2753.743	30.2
2757.236	27.2
2760.725	30.2
2764.211	22.2
2767.695	21.2
2771.175	19.2
2774.652	21.2
2778.127	25.2
2781.598	23.2
2785.067	26.2
2788.532	20.2
2791.995	25.2
2795.455	29.2
2798.911	22.2
2802.365	28.2
2805.816	27.2
2809.264	28.2
2812.709	30.2
2816.151	29.2
2819.59	34.2
2823.026	34.2
2826.46	34.2
2829.89	28.2
2833.318	25.2
2836.742	32.2
2840.164	28.2
2843.583	28.2
2846.999	33.2
2850.412	33.2
2853.822	25.2
2857.229	29.2
2860.634	26.2
2864.035	27.2
2867.434	27.2
2870.83	33.2
2874.223	33.2
2877.613	39.2
2881	39.2
2884.385	40.2
2887.766	42.2
2891.145	52.2
2894.521	46.2
2897.894	44.2
2901.264	38.2
2904.631	35.2
2907.996	44.2
2911.358	48.2
2914.717	44.2
2918.073	42.2
2921.426	39.2
2924.777	52.2
2928.124	40.2
2931.469	54.2
2934.811	60.2
2938.15	58.2
2941.487	64.2
2944.821	53.2
2948.152	66.2
2951.48	55.2
2954.805	58.2
2958.128	53.2
2961.447	62.2
2964.765	54.2
2968.079	49.2
2971.39	49.2
2974.699	51.2
2978.005	58.2
2981.308	52.2
2984.609	50.2
2987.907	58.2
2991.202	51.2
2994.494	53.2
2997.784	48.2
3001.07	60.2
3004.355	52.2
3007.636	57.2
3010.915	60.2
3014.191	57.2
3017.464	61.2
3020.734	67.2
3024.002	67.2
3027.267	66.2
3030.53	63.2
3033.789	65.2
3037.046	67.2
3040.301	66.2
3043.552	80.2
3046.801	78.2
3050.048	71.2
3053.291	83.2
3056.532	84.2
3059.771	79.2
3063.006	92.2
3066.239	98.2
3069.469	99.2
3072.697	103.2
3075.922	115.2
3079.144	116.2
3082.364	110.2
3085.581	117.2
3088.795	117.2
3092.007	126.2
3095.216	127.2
3098.423	129.2
3101.627	122.2
3104.828	137.2
3108.026	136.2
3111.222	132.2
3114.416	134.2
3117.607	146.2
3120.795	142.2
3123.98	150.2
3127.163	159.2
3130.344	160.2
3133.521	156.2
3136.696	166.2
3139.869	175.2
3143.039	168.2
3146.206	178.2
3149.371	174.2
3152.533	187.2
3155.693	186.2
3158.85	187.2
3162.005	183.2
3165.157	189.2
3168.306	182.2
3171.453	181.2
3174.597	186.2
3177.739	185.2
3180.878	188.2
3184.014	184.2
3187.149	187.2
3190.28	189.2
3193.409	188.2
3196.536	192.2
3199.659	192.2
3202.781	195.2
3205.9	191.2
3209.016	189.2
3212.13	185.2
3215.241	184.2
3218.35	187.2
3221.456	185.2
3224.56	182.2
3227.661	176.2
3230.76	166.2
3233.856	175.2
3236.95	158.2
3240.041	163.2
3243.13	161.2
3246.216	158.2
3249.3	150.2
3252.382	159.2
3255.46	155.2
3258.537	150.2
3261.611	150.2
3264.682	147.2
3267.751	154.2
3270.818	136.2
3273.882	147.2
3276.943	143.2
3280.002	150.2
3283.059	141.2
3286.113	132.2
3289.165	132.2
3292.214	131.2
3295.261	140.2
3298.306	132.2
3301.348	136.2
3304.387	129.2
3307.425	130.2
3310.459	125.2
3313.492	126.2
3316.521	126.2
3319.549	143.2
3322.574	118.2
3325.597	123.2
3328.617	124.2
3331.635	135.2
3334.65	133.2
3337.663	128.2
3340.674	131.2
3343.682	128.2
3346.688	122.2
3349.691	129.2
3352.692	126.2
3355.691	132.2
3358.687	123.2
3361.681	124.2
3364.673	120.2
3367.662	127.2
3370.649	122.2
3373.633	118.2
3376.615	118.2
3379.595	106.2
3382.572	107.2
3385.547	112.2
3388.52	110.2
3391.49	106.2
3394.458	100.2
3397.424	101.2
3400.387	105.2
3403.348	95.2
3406.307	95.2
3409.263	98.2
3412.217	88.2
3415.168	97.2
3418.118	82.2
3421.065	94.2
3424.009	80.2
3426.951	83.2
3429.891	87.2
3432.829	78.2
3435.764	83.2
3438.697	78.2
3441.628	71.2
3444.557	75.2
3447.483	67.2
3450.407	59.2
3453.328	67.2
3456.247	58.2
3459.164	57.2
3462.079	48.2
3464.991	48.2
3467.902	44.2
3470.809	41.2
3473.715	38.2
3476.618	36.2
3479.519	30.2
3482.418	26.2
3485.315	27.2
3488.209	18.2
3491.101	16.2
3493.99	22.2
3496.878	12.2
3499.763	9.2
3502.646	20.2
3505.527	14.2
3508.405	4.2
3511.281	8.2
3514.155	9.2
3517.027	-0.8
3519.897	9.2
3522.764	3.2
3525.629	0.2
3528.492	-1.8
3531.352	-12.8
3534.211	-10.8
3537.067	-14.8
3539.921	-8.8
3542.773	-20.8
3545.622	-14.8
3548.469	-13.8
3551.315	-15.8
3554.157	-19.8
3556.998	-17.8
3559.837	-22.8
3562.673	-22.8
3565.507	-21.8
3568.339	-18.8
3571.169	-27.8
3573.996	-26.8
3576.822	-28.8
3579.645	-32.8
3582.466	-31.8
3585.285	-28.8
3588.101	-33.8
3590.916	-30.8
3593.728	-31.8
3596.538	-36.8
3599.346	-30.8
3602.152	-31.8
3604.956	-34.8
3607.757	-29.8
3610.556	-28.8
3613.354	-46.8
3616.149	-40.8
3618.942	-40.8
3621.732	-38.8
3624.521	-35.8
3627.307	-34.8
3630.092	-45.8
3632.874	-42.8
3635.654	-36.8
3638.432	-42.8
3641.208	-38.8
3643.982	-38.8
3646.753	-43.8
3649.523	-40.8
3652.29	-45.8
3655.055	-41.8
3657.818	-47.8
3660.579	-49.8
3663.338	-44.8
3666.095	-49.8
3668.849	-50.8
3671.602	-45.8
3674.352	-43.8
3677.101	-47.8
3679.847	-47.8
3682.591	-59.8
3685.333	-44.8
3688.073	-51.8
3690.811	-46.8
3693.547	-52.8
3696.281	-47.8
3699.013	-51.8
3701.742	-52.8
3704.47	-42.8
3707.195	-49.8
3709.919	-49.8
3712.64	-55.8
3715.359	-50.8
3718.076	-55.8
3720.792	-48.8
3723.505	-54.8
3726.216	-55.8
3728.925	-58.8
3731.632	-54.8
3734.336	-57.8
3737.039	-52.8
3739.74	-59.8
3742.439	-62.8
3745.136	-56.8
3747.83	-59.8
3750.523	-53.8
3753.213	-65.8
3755.902	-58.8
3758.589	-54.8
3761.273	-48.8
3763.956	-57.8
3766.636	-53.8
3769.315	-53.8
3771.991	-53.8
3774.665	-58.8
3777.338	-50.8
3780.008	-53.8
3782.677	-63.8
3785.343	-56.8
3788.007	-63.8
3790.67	-58.8
3793.33	-57.8
3795.989	-53.8
3798.645	-56.8
3801.299	-53.8
3803.952	-54.8
3806.602	-56.8
3809.251	-53.8
3811.897	-56.8
3814.542	-61.8
3817.184	-60.8
3819.825	-51.8
3822.463	-55.8
3825.1	-54.8
3827.735	-59.8
3830.367	-55.8
3832.998	-57.8
3835.627	-54.8
3838.253	-52.8
3840.878	-53.8
3843.501	-51.8
3846.122	-60.8
3848.741	-64.8
3851.358	-60.8
3853.973	-52.8
3856.586	-51.8
3859.197	-53.8
3861.806	-54.8
3864.414	-55.8
3867.019	-52.8
3869.622	-50.8
3872.224	-44.8
3874.823	-35.8
3877.421	-27.8
3880.016	-17.8
3882.61	-1.8
3885.202	-3.8
3887.792	-11.8
3890.38	-27.8
3892.966	-44.8
3895.55	-55.8
3898.132	-58.8
3900.713	-54.8
3903.291	-60.8
3905.868	-60.8
3908.442	-58.8
3911.015	-53.8
3913.586	-59.8
3916.155	-56.8
3918.722	-56.8
3921.287	-57.8
3923.85	-51.8
3926.411	-62.8
3928.971	-65.8
3931.528	-60.8
3934.084	-58.8
3936.638	-53.8
3939.19	-67.8
3941.74	-54.8
3944.288	-59.8
3946.834	-59.8
3949.378	-59.8
3951.921	-63.8
3954.462	-61.8
3957	-53.8
3959.537	-48.8
3962.072	-56.8
3964.606	-53.8
3967.137	-51.8
3969.667	-60.8
3972.194	-61.8
3974.72	-50.8
3977.244	-52.8
3979.766	-57.8
3982.286	-57.8
3984.805	-70.8
3987.321	-55.8
3989.836	-56.8
3992.349	-60.8
3994.86	-59.8
3997.369	-61.8
3999.877	-62.8
4002.382	-59.8
4004.886	-53.8
4007.388	-61.8
4009.888	-54.8
4012.386	-60.8
4014.883	-55.8
4017.377	-51.8
4019.87	-57.8
4022.361	-54.8
4024.85	-56.8
4027.338	-58.8
4029.823	-60.8
4032.307	-57.8
4034.789	-58.8
4037.269	-61.8
4039.747	-61.8
4042.224	-64.8
4044.699	-61.8
4047.172	-59.8
4049.643	-60.8
4052.112	-58.8
4054.58	-54.8
4057.046	-55.8
4059.51	-57.8
4061.972	-60.8
4064.432	-57.8
4066.891	-53.8
4069.348	-52.8
4071.803	-49.8
4074.256	-54.8
4076.708	-58.8
4079.158	-66.8
4081.606	-55.8
4084.052	-54.8
4086.497	-53.8
4088.939	-59.8
4091.38	-65.8
4093.819	-62.8
4096.257	-62.8
4098.693	-59.8
4101.127	-57.8
4103.559	-63.8
4105.989	13.2
4108.418	8.2
4110.845	3.2
4113.27	8.2
4115.694	14.2
4118.115	9.2
4120.535	-56.8
4122.954	-58.8
4125.37	-59.8
4127.785	-53.8
4130.198	-54.8
4132.609	-54.8
4135.019	-57.8
4137.427	-62.8
4139.833	-58.8
4142.237	-58.8
