Data from 2018-3-7_conc=6_n=1_RamanShift_02.txt Node
Date: Wed Mar 07 12:57:22 IST 2018
User: aro
Spectrometer: QEPB0276
Trigger mode: 0
Integration Time (sec): 3.000000E1
Scans to average: 1
Electric dark correction enabled: true
Nonlinearity correction enabled: false
Boxcar width: 0
XAxis mode: Raman Shifts
Number of Pixels in Spectrum: 1044
>>>>>Begin Spectral Data<<<<<
160.701	4.8
166.742	17.8
172.777	58.8
178.805	184.8
184.826	500.8
190.841	1090.8
196.849	1829.8
202.85	2392.8
208.845	2612.8
214.833	2614.8
220.815	2575.8
226.789	2539.8
232.758	2564.8
238.719	2567.8
244.674	2531.8
250.623	2527.8
256.565	2482.8
262.5	2448.8
268.429	2416.8
274.351	2403.8
280.267	2364.8
286.176	2342.8
292.079	2342.8
297.975	2323.8
303.865	2323.8
309.748	2318.8
315.625	2318.8
321.495	2306.8
327.359	2307.8
333.217	2301.8
339.068	2303.8
344.912	2291.8
350.751	2305.8
356.583	2303.8
362.408	2299.8
368.227	2323.8
374.04	2299.8
379.847	2315.8
385.647	2312.8
391.44	2328.8
397.228	2336.8
403.009	2353.8
408.784	2382.8
414.553	2372.8
420.315	2393.8
426.071	2384.8
431.821	2386.8
437.565	2377.8
443.302	2373.8
449.033	2360.8
454.758	2375.8
460.477	2345.8
466.189	2338.8
471.896	2312.8
477.596	2304.8
483.29	2301.8
488.978	2288.8
494.66	2300.8
500.335	2247.8
506.005	2202.8
511.668	2144.8
517.325	2115.8
522.977	2061.8
528.622	2028.8
534.261	2004.8
539.894	1978.8
545.521	1971.8
551.141	1946.8
556.756	1936.8
562.365	1936.8
567.968	1919.8
573.565	1898.8
579.155	1899.8
584.74	1896.8
590.319	1881.8
595.892	1875.8
601.459	1889.8
607.02	1868.8
612.575	1845.8
618.124	1841.8
623.667	1808.8
629.204	1817.8
634.735	1791.8
640.261	1761.8
645.781	1779.8
651.294	1759.8
656.802	1760.8
662.304	1756.8
667.8	1763.8
673.29	1763.8
678.775	1763.8
684.254	1743.8
689.726	1740.8
695.193	1729.8
700.655	1720.8
706.11	1705.8
711.56	1692.8
717.004	1686.8
722.442	1681.8
727.874	1678.8
733.301	1668.8
738.722	1675.8
744.137	1647.8
749.547	1666.8
754.951	1644.8
760.349	1658.8
765.741	1674.8
771.128	1657.8
776.509	1660.8
781.885	1681.8
787.254	1661.8
792.618	1685.8
797.977	1643.8
803.33	1646.8
808.677	1629.8
814.019	1630.8
819.355	1625.8
824.686	1604.8
830.011	1598.8
835.33	1587.8
840.644	1601.8
845.952	1601.8
851.255	1592.8
856.552	1602.8
861.844	1578.8
867.13	1572.8
872.41	1555.8
877.686	1555.8
882.955	1559.8
888.219	1547.8
893.478	1524.8
898.731	1490.8
903.979	1480.8
909.221	1480.8
914.458	1465.8
919.69	1480.8
924.916	1471.8
930.136	1464.8
935.351	1476.8
940.561	1485.8
945.766	1465.8
950.965	1457.8
956.158	1471.8
961.347	1452.8
966.529	1417.8
971.707	1396.8
976.879	1376.8
982.046	1379.8
987.208	1366.8
992.364	1355.8
997.515	1380.8
1002.66	1390.8
1007.801	1383.8
1012.936	1402.8
1018.066	1421.8
1023.19	1393.8
1028.309	1399.8
1033.423	1402.8
1038.532	1411.8
1043.636	1392.8
1048.734	1385.8
1053.827	1347.8
1058.915	1345.8
1063.998	1330.8
1069.075	1296.8
1074.147	1327.8
1079.214	1316.8
1084.276	1338.8
1089.333	1336.8
1094.385	1347.8
1099.431	1317.8
1104.472	1342.8
1109.509	1334.8
1114.54	1301.8
1119.565	1309.8
1124.586	1278.8
1129.602	1263.8
1134.613	1253.8
1139.618	1240.8
1144.619	1239.8
1149.614	1258.8
1154.604	1244.8
1159.589	1265.8
1164.57	1262.8
1169.545	1249.8
1174.515	1250.8
1179.48	1244.8
1184.44	1237.8
1189.395	1231.8
1194.345	1216.8
1199.29	1215.8
1204.23	1221.8
1209.165	1222.8
1214.095	1229.8
1219.021	1230.8
1223.941	1235.8
1228.856	1235.8
1233.766	1250.8
1238.672	1246.8
1243.572	1255.8
1248.467	1238.8
1253.358	1224.8
1258.244	1220.8
1263.124	1190.8
1268	1169.8
1272.871	1156.8
1277.737	1145.8
1282.599	1145.8
1287.455	1136.8
1292.306	1143.8
1297.153	1152.8
1301.995	1157.8
1306.832	1159.8
1311.664	1154.8
1316.491	1167.8
1321.314	1165.8
1326.132	1146.8
1330.945	1146.8
1335.753	1109.8
1340.556	1086.8
1345.354	1071.8
1350.148	1048.8
1354.937	1016.8
1359.722	985.8
1364.501	955.8
1369.276	950.8
1374.046	917.8
1378.811	918.8
1383.572	915.8
1388.327	919.8
1393.079	907.8
1397.825	940.8
1402.567	954.8
1407.304	949.8
1412.036	958.8
1416.764	958.8
1421.487	957.8
1426.205	956.8
1430.919	949.8
1435.628	965.8
1440.333	976.8
1445.032	989.8
1449.727	990.8
1454.418	985.8
1459.104	970.8
1463.785	966.8
1468.462	938.8
1473.134	919.8
1477.802	891.8
1482.465	854.8
1487.123	857.8
1491.777	819.8
1496.426	811.8
1501.071	804.8
1505.711	789.8
1510.347	785.8
1514.978	775.8
1519.604	772.8
1524.226	749.8
1528.844	762.8
1533.457	761.8
1538.065	748.8
1542.669	740.8
1547.269	758.8
1551.864	776.8
1556.454	782.8
1561.041	799.8
1565.622	803.8
1570.199	810.8
1574.772	823.8
1579.34	837.8
1583.904	841.8
1588.464	867.8
1593.019	876.8
1597.569	849.8
1602.115	872.8
1606.657	857.8
1611.195	863.8
1615.728	859.8
1620.256	844.8
1624.78	843.8
1629.3	844.8
1633.816	844.8
1638.327	867.8
1642.834	838.8
1647.336	847.8
1651.834	848.8
1656.328	838.8
1660.817	825.8
1665.302	826.8
1669.783	801.8
1674.259	781.8
1678.732	758.8
1683.199	721.8
1687.663	681.8
1692.122	649.8
1696.577	620.8
1701.028	583.8
1705.474	533.8
1709.917	537.8
1714.355	528.8
1718.788	508.8
1723.218	534.8
1727.643	536.8
1732.064	529.8
1736.481	528.8
1740.893	525.8
1745.301	509.8
1749.705	512.8
1754.105	490.8
1758.501	483.8
1762.893	462.8
1767.28	466.8
1771.663	460.8
1776.042	442.8
1780.417	453.8
1784.787	416.8
1789.154	408.8
1793.516	405.8
1797.874	385.8
1802.228	382.8
1806.578	376.8
1810.924	376.8
1815.266	373.8
1819.603	385.8
1823.937	399.8
1828.266	396.8
1832.591	404.8
1836.913	416.8
1841.23	409.8
1845.543	394.8
1849.852	413.8
1854.156	417.8
1858.457	405.8
1862.754	423.8
1867.047	412.8
1871.335	410.8
1875.62	411.8
1879.9	405.8
1884.177	391.8
1888.449	391.8
1892.718	390.8
1896.982	369.8
1901.243	358.8
1905.499	354.8
1909.752	343.8
1914	340.8
1918.245	319.8
1922.485	317.8
1926.722	304.8
1930.954	306.8
1935.183	303.8
1939.408	303.8
1943.628	285.8
1947.845	296.8
1952.058	284.8
1956.267	285.8
1960.472	290.8
1964.673	279.8
1968.87	286.8
1973.063	293.8
1977.252	298.8
1981.438	297.8
1985.619	295.8
1989.797	301.8
1993.971	310.8
1998.14	314.8
2002.306	320.8
2006.469	328.8
2010.627	318.8
2014.781	319.8
2018.932	309.8
2023.078	318.8
2027.221	315.8
2031.36	307.8
2035.495	297.8
2039.627	294.8
2043.754	293.8
2047.878	293.8
2051.998	291.8
2056.114	287.8
2060.226	273.8
2064.334	279.8
2068.439	263.8
2072.54	277.8
2076.637	267.8
2080.73	266.8
2084.82	267.8
2088.906	251.8
2092.988	253.8
2097.066	253.8
2101.14	246.8
2105.211	240.8
2109.278	238.8
2113.342	231.8
2117.401	236.8
2121.457	229.8
2125.509	227.8
2129.558	234.8
2133.602	230.8
2137.643	241.8
2141.681	236.8
2145.714	246.8
2149.744	246.8
2153.77	250.8
2157.793	245.8
2161.812	252.8
2165.827	244.8
2169.838	239.8
2173.846	241.8
2177.851	234.8
2181.851	235.8
2185.848	228.8
2189.841	231.8
2193.831	225.8
2197.817	229.8
2201.799	225.8
2205.778	222.8
2209.753	229.8
2213.725	223.8
2217.693	235.8
2221.657	223.8
2225.618	224.8
2229.575	220.8
2233.529	220.8
2237.479	223.8
2241.425	213.8
2245.368	215.8
2249.307	218.8
2253.243	207.8
2257.175	201.8
2261.104	205.8
2265.029	206.8
2268.95	198.8
2272.868	197.8
2276.783	192.8
2280.694	186.8
2284.601	187.8
2288.505	189.8
2292.405	189.8
2296.302	190.8
2300.195	189.8
2304.085	188.8
2307.971	188.8
2311.854	183.8
2315.734	180.8
2319.609	193.8
2323.482	187.8
2327.351	183.8
2331.216	186.8
2335.078	199.8
2338.937	190.8
2342.792	185.8
2346.643	185.8
2350.492	184.8
2354.336	184.8
2358.178	182.8
2362.015	182.8
2365.85	183.8
2369.681	192.8
2373.508	191.8
2377.333	189.8
2381.153	195.8
2384.971	190.8
2388.785	188.8
2392.595	192.8
2396.402	183.8
2400.206	195.8
2404.007	182.8
2407.804	183.8
2411.597	180.8
2415.388	186.8
2419.174	187.8
2422.958	192.8
2426.738	185.8
2430.515	181.8
2434.289	182.8
2438.059	174.8
2441.825	171.8
2445.589	174.8
2449.349	167.8
2453.106	175.8
2456.859	163.8
2460.61	169.8
2464.356	172.8
2468.1	159.8
2471.84	157.8
2475.577	149.8
2479.311	152.8
2483.041	156.8
2486.768	158.8
2490.492	154.8
2494.213	157.8
2497.93	151.8
2501.644	151.8
2505.355	143.8
2509.062	148.8
2512.766	136.8
2516.467	126.8
2520.165	134.8
2523.859	131.8
2527.551	125.8
2531.239	130.8
2534.923	122.8
2538.605	123.8
2542.283	120.8
2545.958	120.8
2549.63	122.8
2553.299	124.8
2556.964	120.8
2560.626	111.8
2564.285	116.8
2567.941	114.8
2571.594	107.8
2575.243	115.8
2578.89	111.8
2582.533	106.8
2586.173	104.8
2589.809	102.8
2593.443	110.8
2597.073	104.8
2600.701	100.8
2604.325	95.8
2607.946	85.8
2611.564	99.8
2615.178	101.8
2618.79	95.8
2622.398	100.8
2626.004	96.8
2629.606	97.8
2633.205	97.8
2636.801	98.8
2640.394	106.8
2643.983	100.8
2647.57	89.8
2651.153	91.8
2654.734	91.8
2658.311	92.8
2661.885	94.8
2665.456	95.8
2669.025	90.8
2672.589	88.8
2676.151	86.8
2679.71	84.8
2683.266	90.8
2686.819	86.8
2690.368	87.8
2693.915	87.8
2697.458	80.8
2700.999	88.8
2704.536	78.8
2708.071	77.8
2711.602	69.8
2715.13	63.8
2718.656	66.8
2722.178	61.8
2725.697	62.8
2729.214	65.8
2732.727	69.8
2736.237	68.8
2739.744	56.8
2743.249	59.8
2746.75	49.8
2750.248	50.8
2753.743	45.8
2757.236	43.8
2760.725	43.8
2764.211	38.8
2767.695	38.8
2771.175	39.8
2774.652	37.8
2778.127	37.8
2781.598	36.8
2785.067	36.8
2788.532	46.8
2791.995	48.8
2795.455	43.8
2798.911	45.8
2802.365	49.8
2805.816	50.8
2809.264	49.8
2812.709	47.8
2816.151	48.8
2819.59	53.8
2823.026	46.8
2826.46	45.8
2829.89	48.8
2833.318	49.8
2836.742	49.8
2840.164	47.8
2843.583	50.8
2846.999	51.8
2850.412	47.8
2853.822	49.8
2857.229	53.8
2860.634	44.8
2864.035	49.8
2867.434	52.8
2870.83	56.8
2874.223	64.8
2877.613	61.8
2881	60.8
2884.385	71.8
2887.766	67.8
2891.145	74.8
2894.521	66.8
2897.894	63.8
2901.264	65.8
2904.631	65.8
2907.996	70.8
2911.358	75.8
2914.717	73.8
2918.073	75.8
2921.426	73.8
2924.777	79.8
2928.124	82.8
2931.469	80.8
2934.811	86.8
2938.15	85.8
2941.487	91.8
2944.821	83.8
2948.152	90.8
2951.48	85.8
2954.805	96.8
2958.128	84.8
2961.447	97.8
2964.765	82.8
2968.079	83.8
2971.39	79.8
2974.699	77.8
2978.005	92.8
2981.308	76.8
2984.609	79.8
2987.907	83.8
2991.202	79.8
2994.494	78.8
2997.784	68.8
3001.07	76.8
3004.355	82.8
3007.636	84.8
3010.915	87.8
3014.191	81.8
3017.464	89.8
3020.734	92.8
3024.002	90.8
3027.267	93.8
3030.53	95.8
3033.789	102.8
3037.046	103.8
3040.301	100.8
3043.552	105.8
3046.801	112.8
3050.048	118.8
3053.291	123.8
3056.532	124.8
3059.771	128.8
3063.006	134.8
3066.239	146.8
3069.469	145.8
3072.697	148.8
3075.922	155.8
3079.144	150.8
3082.364	163.8
3085.581	161.8
3088.795	167.8
3092.007	167.8
3095.216	174.8
3098.423	168.8
3101.627	171.8
3104.828	181.8
3108.026	184.8
3111.222	188.8
3114.416	195.8
3117.607	203.8
3120.795	200.8
3123.98	207.8
3127.163	215.8
3130.344	210.8
3133.521	220.8
3136.696	231.8
3139.869	229.8
3143.039	235.8
3146.206	231.8
3149.371	227.8
3152.533	243.8
3155.693	248.8
3158.85	246.8
3162.005	248.8
3165.157	259.8
3168.306	240.8
3171.453	259.8
3174.597	252.8
3177.739	254.8
3180.878	255.8
3184.014	245.8
3187.149	251.8
3190.28	258.8
3193.409	256.8
3196.536	256.8
3199.659	263.8
3202.781	260.8
3205.9	260.8
3209.016	258.8
3212.13	263.8
3215.241	250.8
3218.35	256.8
3221.456	248.8
3224.56	234.8
3227.661	236.8
3230.76	241.8
3233.856	231.8
3236.95	227.8
3240.041	220.8
3243.13	220.8
3246.216	213.8
3249.3	210.8
3252.382	212.8
3255.46	209.8
3258.537	202.8
3261.611	198.8
3264.682	201.8
3267.751	206.8
3270.818	187.8
3273.882	196.8
3276.943	190.8
3280.002	181.8
3283.059	186.8
3286.113	179.8
3289.165	188.8
3292.214	182.8
3295.261	185.8
3298.306	178.8
3301.348	179.8
3304.387	180.8
3307.425	175.8
3310.459	174.8
3313.492	181.8
3316.521	179.8
3319.549	193.8
3322.574	178.8
3325.597	179.8
3328.617	175.8
3331.635	186.8
3334.65	192.8
3337.663	171.8
3340.674	183.8
3343.682	178.8
3346.688	177.8
3349.691	187.8
3352.692	175.8
3355.691	188.8
3358.687	166.8
3361.681	167.8
3364.673	178.8
3367.662	176.8
3370.649	170.8
3373.633	164.8
3376.615	170.8
3379.595	160.8
3382.572	160.8
3385.547	156.8
3388.52	151.8
3391.49	152.8
3394.458	139.8
3397.424	149.8
3400.387	146.8
3403.348	135.8
3406.307	129.8
3409.263	129.8
3412.217	128.8
3415.168	133.8
3418.118	129.8
3421.065	123.8
3424.009	115.8
3426.951	118.8
3429.891	113.8
3432.829	112.8
3435.764	117.8
3438.697	107.8
3441.628	103.8
3444.557	101.8
3447.483	91.8
3450.407	82.8
3453.328	87.8
3456.247	83.8
3459.164	78.8
3462.079	76.8
3464.991	73.8
3467.902	67.8
3470.809	58.8
3473.715	54.8
3476.618	55.8
3479.519	47.8
3482.418	50.8
3485.315	45.8
3488.209	37.8
3491.101	35.8
3493.99	42.8
3496.878	34.8
3499.763	30.8
3502.646	30.8
3505.527	31.8
3508.405	29.8
3511.281	29.8
3514.155	23.8
3517.027	10.8
3519.897	16.8
3522.764	8.8
3525.629	2.8
3528.492	1.8
3531.352	-1.2
3534.211	-1.2
3537.067	-7.2
3539.921	-3.2
3542.773	-14.2
3545.622	-6.2
3548.469	-6.2
3551.315	-2.2
3554.157	-12.2
3556.998	-17.2
3559.837	-13.2
3562.673	-9.2
3565.507	-15.2
3568.339	-10.2
3571.169	-20.2
3573.996	-17.2
3576.822	-31.2
3579.645	-26.2
3582.466	-25.2
3585.285	-31.2
3588.101	-29.2
3590.916	-22.2
3593.728	-32.2
3596.538	-32.2
3599.346	-33.2
3602.152	-33.2
3604.956	-31.2
3607.757	-24.2
3610.556	-29.2
3613.354	-36.2
3616.149	-41.2
3618.942	-38.2
3621.732	-43.2
3624.521	-32.2
3627.307	-39.2
3630.092	-34.2
3632.874	-40.2
3635.654	-48.2
3638.432	-39.2
3641.208	-43.2
3643.982	-41.2
3646.753	-45.2
3649.523	-40.2
3652.29	-46.2
3655.055	-41.2
3657.818	-50.2
3660.579	-49.2
3663.338	-44.2
3666.095	-50.2
3668.849	-50.2
3671.602	-45.2
3674.352	-47.2
3677.101	-51.2
3679.847	-46.2
3682.591	-53.2
3685.333	-49.2
3688.073	-53.2
3690.811	-52.2
3693.547	-52.2
3696.281	-47.2
3699.013	-58.2
3701.742	-57.2
3704.47	-51.2
3707.195	-54.2
3709.919	-54.2
3712.64	-55.2
3715.359	-54.2
3718.076	-53.2
3720.792	-55.2
3723.505	-57.2
3726.216	-53.2
3728.925	-55.2
3731.632	-52.2
3734.336	-54.2
3737.039	-51.2
3739.74	-56.2
3742.439	-67.2
3745.136	-57.2
3747.83	-60.2
3750.523	-57.2
3753.213	-67.2
3755.902	-57.2
3758.589	-60.2
3761.273	-55.2
3763.956	-58.2
3766.636	-58.2
3769.315	-55.2
3771.991	-56.2
3774.665	-61.2
3777.338	-61.2
3780.008	-57.2
3782.677	-60.2
3785.343	-58.2
3788.007	-57.2
3790.67	-54.2
3793.33	-54.2
3795.989	-57.2
3798.645	-61.2
3801.299	-64.2
3803.952	-56.2
3806.602	-59.2
3809.251	-60.2
3811.897	-64.2
3814.542	-63.2
3817.184	-64.2
3819.825	-58.2
3822.463	-63.2
3825.1	-57.2
3827.735	-68.2
3830.367	-61.2
3832.998	-65.2
3835.627	-63.2
3838.253	-59.2
3840.878	-57.2
3843.501	-58.2
3846.122	-64.2
3848.741	-64.2
3851.358	-60.2
3853.973	-53.2
3856.586	-59.2
3859.197	-59.2
3861.806	-58.2
3864.414	-64.2
3867.019	-62.2
3869.622	-54.2
3872.224	-48.2
3874.823	-45.2
3877.421	-38.2
3880.016	-31.2
3882.61	-11.2
3885.202	-14.2
3887.792	-18.2
3890.38	-35.2
3892.966	-47.2
3895.55	-59.2
3898.132	-62.2
3900.713	-63.2
3903.291	-63.2
3905.868	-60.2
3908.442	-58.2
3911.015	-61.2
3913.586	-60.2
3916.155	-58.2
3918.722	-61.2
3921.287	-62.2
3923.85	-53.2
3926.411	-61.2
3928.971	-72.2
3931.528	-61.2
3934.084	-59.2
3936.638	-60.2
3939.19	-63.2
3941.74	-58.2
3944.288	-60.2
3946.834	-60.2
3949.378	-63.2
3951.921	-67.2
3954.462	-62.2
3957	-60.2
3959.537	-54.2
3962.072	-59.2
3964.606	-59.2
3967.137	-62.2
3969.667	-65.2
3972.194	-60.2
3974.72	-60.2
3977.244	-56.2
3979.766	-60.2
3982.286	-59.2
3984.805	-68.2
3987.321	-61.2
3989.836	-58.2
3992.349	-63.2
3994.86	-64.2
3997.369	-61.2
3999.877	-63.2
4002.382	-62.2
4004.886	-58.2
4007.388	-60.2
4009.888	-59.2
4012.386	-64.2
4014.883	-57.2
4017.377	-57.2
4019.87	-60.2
4022.361	-64.2
4024.85	-57.2
4027.338	-64.2
4029.823	-59.2
4032.307	-60.2
4034.789	-57.2
4037.269	-59.2
4039.747	-65.2
4042.224	-59.2
4044.699	-60.2
4047.172	-64.2
4049.643	-67.2
4052.112	-64.2
4054.58	-66.2
4057.046	-61.2
4059.51	-62.2
4061.972	-66.2
4064.432	-61.2
4066.891	-59.2
4069.348	-57.2
4071.803	-54.2
4074.256	-65.2
4076.708	-62.2
4079.158	-61.2
4081.606	-59.2
4084.052	-59.2
4086.497	-53.2
4088.939	-59.2
4091.38	-67.2
4093.819	-59.2
4096.257	-64.2
4098.693	-61.2
4101.127	-58.2
4103.559	-64.2
4105.989	6.8
4108.418	-2.2
4110.845	-7.2
4113.27	-6.2
4115.694	2.8
4118.115	0.8
4120.535	-64.2
4122.954	-56.2
4125.37	-59.2
4127.785	-60.2
4130.198	-58.2
4132.609	-66.2
4135.019	-68.2
4137.427	-65.2
4139.833	-67.2
4142.237	-65.2
