Data from 2018-3-7_conc=0_n=6_RamanShift_02.txt Node
Date: Wed Mar 07 10:23:22 IST 2018
User: aro
Spectrometer: QEPB0276
Trigger mode: 0
Integration Time (sec): 3.000000E1
Scans to average: 1
Electric dark correction enabled: true
Nonlinearity correction enabled: false
Boxcar width: 0
XAxis mode: Raman Shifts
Number of Pixels in Spectrum: 1044
>>>>>Begin Spectral Data<<<<<
160.701	6.5
166.742	20.5
172.777	52.5
178.805	159.5
184.826	402.5
190.841	821.5
196.849	1356.5
202.85	1751.5
208.845	1938.5
214.833	1921.5
220.815	1902.5
226.789	1923.5
232.758	1909.5
238.719	1948.5
244.674	1944.5
250.623	1923.5
256.565	1933.5
262.5	1903.5
268.429	1903.5
274.351	1903.5
280.267	1892.5
286.176	1912.5
292.079	1900.5
297.975	1896.5
303.865	1916.5
309.748	1895.5
315.625	1924.5
321.495	1903.5
327.359	1929.5
333.217	1938.5
339.068	1947.5
344.912	1945.5
350.751	1960.5
356.583	1954.5
362.408	1956.5
368.227	1982.5
374.04	2008.5
379.847	1993.5
385.647	2004.5
391.44	2029.5
397.228	2026.5
403.009	2041.5
408.784	2074.5
414.553	2088.5
420.315	2067.5
426.071	2089.5
431.821	2075.5
437.565	2089.5
443.302	2073.5
449.033	2068.5
454.758	2051.5
460.477	2033.5
466.189	2015.5
471.896	1991.5
477.596	1981.5
483.29	1960.5
488.978	1974.5
494.66	1942.5
500.335	1892.5
506.005	1802.5
511.668	1715.5
517.325	1657.5
522.977	1567.5
528.622	1513.5
534.261	1484.5
539.894	1445.5
545.521	1428.5
551.141	1419.5
556.756	1402.5
562.365	1375.5
567.968	1361.5
573.565	1355.5
579.155	1354.5
584.74	1337.5
590.319	1333.5
595.892	1344.5
601.459	1312.5
607.02	1351.5
612.575	1332.5
618.124	1316.5
623.667	1288.5
629.204	1264.5
634.735	1267.5
640.261	1242.5
645.781	1235.5
651.294	1242.5
656.802	1231.5
662.304	1217.5
667.8	1194.5
673.29	1207.5
678.775	1213.5
684.254	1204.5
689.726	1187.5
695.193	1191.5
700.655	1175.5
706.11	1178.5
711.56	1156.5
717.004	1157.5
722.442	1151.5
727.874	1148.5
733.301	1156.5
738.722	1144.5
744.137	1140.5
749.547	1144.5
754.951	1122.5
760.349	1155.5
765.741	1141.5
771.128	1152.5
776.509	1167.5
781.885	1179.5
787.254	1185.5
792.618	1205.5
797.977	1198.5
803.33	1185.5
808.677	1165.5
814.019	1174.5
819.355	1154.5
824.686	1151.5
830.011	1152.5
835.33	1148.5
840.644	1140.5
845.952	1130.5
851.255	1093.5
856.552	1120.5
861.844	1102.5
867.13	1115.5
872.41	1127.5
877.686	1156.5
882.955	1192.5
888.219	1179.5
893.478	1127.5
898.731	1054.5
903.979	1023.5
909.221	999.5
914.458	986.5
919.69	999.5
924.916	993.5
930.136	994.5
935.351	997.5
940.561	982.5
945.766	979.5
950.965	994.5
956.158	981.5
961.347	971.5
966.529	961.5
971.707	937.5
976.879	925.5
982.046	921.5
987.208	919.5
992.364	919.5
997.515	922.5
1002.66	927.5
1007.801	939.5
1012.936	954.5
1018.066	956.5
1023.19	964.5
1028.309	965.5
1033.423	946.5
1038.532	967.5
1043.636	960.5
1048.734	959.5
1053.827	981.5
1058.915	958.5
1063.998	926.5
1069.075	928.5
1074.147	941.5
1079.214	938.5
1084.276	953.5
1089.333	961.5
1094.385	964.5
1099.431	950.5
1104.472	926.5
1109.509	907.5
1114.54	884.5
1119.565	871.5
1124.586	871.5
1129.602	852.5
1134.613	847.5
1139.618	837.5
1144.619	839.5
1149.614	840.5
1154.604	848.5
1159.589	837.5
1164.57	841.5
1169.545	842.5
1174.515	857.5
1179.48	849.5
1184.44	845.5
1189.395	831.5
1194.345	812.5
1199.29	789.5
1204.23	815.5
1209.165	812.5
1214.095	830.5
1219.021	817.5
1223.941	832.5
1228.856	832.5
1233.766	835.5
1238.672	837.5
1243.572	832.5
1248.467	823.5
1253.358	810.5
1258.244	818.5
1263.124	789.5
1268	774.5
1272.871	779.5
1277.737	777.5
1282.599	775.5
1287.455	761.5
1292.306	754.5
1297.153	777.5
1301.995	770.5
1306.832	763.5
1311.664	774.5
1316.491	770.5
1321.314	773.5
1326.132	757.5
1330.945	749.5
1335.753	731.5
1340.556	713.5
1345.354	714.5
1350.148	684.5
1354.937	666.5
1359.722	649.5
1364.501	651.5
1369.276	639.5
1374.046	643.5
1378.811	623.5
1383.572	626.5
1388.327	631.5
1393.079	627.5
1397.825	639.5
1402.567	646.5
1407.304	640.5
1412.036	647.5
1416.764	639.5
1421.487	657.5
1426.205	640.5
1430.919	637.5
1435.628	656.5
1440.333	664.5
1445.032	669.5
1449.727	693.5
1454.418	696.5
1459.104	717.5
1463.785	687.5
1468.462	668.5
1473.134	633.5
1477.802	604.5
1482.465	590.5
1487.123	573.5
1491.777	564.5
1496.426	562.5
1501.071	547.5
1505.711	531.5
1510.347	524.5
1514.978	512.5
1519.604	517.5
1524.226	519.5
1528.844	520.5
1533.457	517.5
1538.065	516.5
1542.669	503.5
1547.269	519.5
1551.864	528.5
1556.454	537.5
1561.041	551.5
1565.622	551.5
1570.199	535.5
1574.772	541.5
1579.34	553.5
1583.904	555.5
1588.464	556.5
1593.019	572.5
1597.569	563.5
1602.115	557.5
1606.657	558.5
1611.195	567.5
1615.728	533.5
1620.256	550.5
1624.78	549.5
1629.3	541.5
1633.816	535.5
1638.327	558.5
1642.834	541.5
1647.336	540.5
1651.834	535.5
1656.328	543.5
1660.817	536.5
1665.302	536.5
1669.783	516.5
1674.259	501.5
1678.732	497.5
1683.199	466.5
1687.663	459.5
1692.122	430.5
1696.577	411.5
1701.028	407.5
1705.474	382.5
1709.917	371.5
1714.355	367.5
1718.788	365.5
1723.218	369.5
1727.643	366.5
1732.064	371.5
1736.481	363.5
1740.893	352.5
1745.301	360.5
1749.705	347.5
1754.105	340.5
1758.501	328.5
1762.893	324.5
1767.28	311.5
1771.663	314.5
1776.042	314.5
1780.417	296.5
1784.787	287.5
1789.154	289.5
1793.516	282.5
1797.874	270.5
1802.228	277.5
1806.578	272.5
1810.924	266.5
1815.266	267.5
1819.603	258.5
1823.937	282.5
1828.266	276.5
1832.591	270.5
1836.913	272.5
1841.23	287.5
1845.543	270.5
1849.852	282.5
1854.156	286.5
1858.457	287.5
1862.754	282.5
1867.047	279.5
1871.335	275.5
1875.62	271.5
1879.9	280.5
1884.177	263.5
1888.449	259.5
1892.718	267.5
1896.982	249.5
1901.243	246.5
1905.499	243.5
1909.752	226.5
1914	227.5
1918.245	229.5
1922.485	230.5
1926.722	220.5
1930.954	212.5
1935.183	215.5
1939.408	221.5
1943.628	214.5
1947.845	214.5
1952.058	217.5
1956.267	211.5
1960.472	211.5
1964.673	205.5
1968.87	201.5
1973.063	209.5
1977.252	210.5
1981.438	210.5
1985.619	198.5
1989.797	203.5
1993.971	204.5
1998.14	209.5
2002.306	217.5
2006.469	223.5
2010.627	208.5
2014.781	218.5
2018.932	214.5
2023.078	207.5
2027.221	211.5
2031.36	207.5
2035.495	200.5
2039.627	194.5
2043.754	195.5
2047.878	194.5
2051.998	197.5
2056.114	193.5
2060.226	188.5
2064.334	183.5
2068.439	181.5
2072.54	182.5
2076.637	179.5
2080.73	177.5
2084.82	183.5
2088.906	173.5
2092.988	169.5
2097.066	180.5
2101.14	169.5
2105.211	162.5
2109.278	164.5
2113.342	165.5
2117.401	168.5
2121.457	168.5
2125.509	164.5
2129.558	165.5
2133.602	162.5
2137.643	165.5
2141.681	159.5
2145.714	170.5
2149.744	168.5
2153.77	171.5
2157.793	166.5
2161.812	170.5
2165.827	166.5
2169.838	154.5
2173.846	155.5
2177.851	152.5
2181.851	168.5
2185.848	148.5
2189.841	150.5
2193.831	154.5
2197.817	146.5
2201.799	148.5
2205.778	143.5
2209.753	147.5
2213.725	154.5
2217.693	153.5
2221.657	153.5
2225.618	148.5
2229.575	136.5
2233.529	145.5
2237.479	148.5
2241.425	142.5
2245.368	142.5
2249.307	143.5
2253.243	130.5
2257.175	138.5
2261.104	134.5
2265.029	136.5
2268.95	130.5
2272.868	131.5
2276.783	134.5
2280.694	122.5
2284.601	120.5
2288.505	127.5
2292.405	130.5
2296.302	129.5
2300.195	126.5
2304.085	120.5
2307.971	113.5
2311.854	120.5
2315.734	118.5
2319.609	119.5
2323.482	121.5
2327.351	120.5
2331.216	135.5
2335.078	148.5
2338.937	129.5
2342.792	114.5
2346.643	124.5
2350.492	117.5
2354.336	123.5
2358.178	112.5
2362.015	107.5
2365.85	111.5
2369.681	122.5
2373.508	125.5
2377.333	122.5
2381.153	114.5
2384.971	113.5
2388.785	112.5
2392.595	113.5
2396.402	124.5
2400.206	114.5
2404.007	109.5
2407.804	116.5
2411.597	103.5
2415.388	113.5
2419.174	116.5
2422.958	110.5
2426.738	115.5
2430.515	105.5
2434.289	105.5
2438.059	100.5
2441.825	107.5
2445.589	104.5
2449.349	97.5
2453.106	105.5
2456.859	95.5
2460.61	103.5
2464.356	95.5
2468.1	93.5
2471.84	95.5
2475.577	87.5
2479.311	94.5
2483.041	90.5
2486.768	90.5
2490.492	90.5
2494.213	89.5
2497.93	86.5
2501.644	90.5
2505.355	75.5
2509.062	85.5
2512.766	85.5
2516.467	85.5
2520.165	82.5
2523.859	82.5
2527.551	79.5
2531.239	80.5
2534.923	73.5
2538.605	76.5
2542.283	67.5
2545.958	75.5
2549.63	72.5
2553.299	68.5
2556.964	68.5
2560.626	68.5
2564.285	70.5
2567.941	57.5
2571.594	65.5
2575.243	70.5
2578.89	57.5
2582.533	56.5
2586.173	62.5
2589.809	65.5
2593.443	63.5
2597.073	58.5
2600.701	63.5
2604.325	55.5
2607.946	56.5
2611.564	51.5
2615.178	55.5
2618.79	53.5
2622.398	49.5
2626.004	52.5
2629.606	62.5
2633.205	54.5
2636.801	83.5
2640.394	79.5
2643.983	50.5
2647.57	46.5
2651.153	46.5
2654.734	51.5
2658.311	52.5
2661.885	55.5
2665.456	52.5
2669.025	51.5
2672.589	47.5
2676.151	50.5
2679.71	42.5
2683.266	44.5
2686.819	58.5
2690.368	48.5
2693.915	49.5
2697.458	41.5
2700.999	49.5
2704.536	48.5
2708.071	41.5
2711.602	37.5
2715.13	36.5
2718.656	42.5
2722.178	41.5
2725.697	31.5
2729.214	40.5
2732.727	42.5
2736.237	34.5
2739.744	28.5
2743.249	34.5
2746.75	36.5
2750.248	33.5
2753.743	29.5
2757.236	30.5
2760.725	21.5
2764.211	24.5
2767.695	17.5
2771.175	27.5
2774.652	26.5
2778.127	25.5
2781.598	27.5
2785.067	22.5
2788.532	23.5
2791.995	25.5
2795.455	24.5
2798.911	24.5
2802.365	32.5
2805.816	21.5
2809.264	24.5
2812.709	21.5
2816.151	40.5
2819.59	153.5
2823.026	41.5
2826.46	27.5
2829.89	29.5
2833.318	28.5
2836.742	36.5
2840.164	31.5
2843.583	32.5
2846.999	32.5
2850.412	33.5
2853.822	32.5
2857.229	36.5
2860.634	36.5
2864.035	38.5
2867.434	42.5
2870.83	48.5
2874.223	48.5
2877.613	52.5
2881	65.5
2884.385	62.5
2887.766	64.5
2891.145	64.5
2894.521	72.5
2897.894	61.5
2901.264	65.5
2904.631	53.5
2907.996	60.5
2911.358	67.5
2914.717	67.5
2918.073	61.5
2921.426	65.5
2924.777	73.5
2928.124	79.5
2931.469	85.5
2934.811	100.5
2938.15	97.5
2941.487	104.5
2944.821	92.5
2948.152	86.5
2951.48	86.5
2954.805	78.5
2958.128	76.5
2961.447	64.5
2964.765	65.5
2968.079	62.5
2971.39	61.5
2974.699	68.5
2978.005	66.5
2981.308	63.5
2984.609	61.5
2987.907	57.5
2991.202	64.5
2994.494	59.5
2997.784	51.5
3001.07	51.5
3004.355	56.5
3007.636	52.5
3010.915	49.5
3014.191	52.5
3017.464	54.5
3020.734	57.5
3024.002	53.5
3027.267	52.5
3030.53	53.5
3033.789	58.5
3037.046	53.5
3040.301	55.5
3043.552	57.5
3046.801	70.5
3050.048	62.5
3053.291	65.5
3056.532	66.5
3059.771	70.5
3063.006	70.5
3066.239	70.5
3069.469	76.5
3072.697	81.5
3075.922	87.5
3079.144	80.5
3082.364	87.5
3085.581	86.5
3088.795	93.5
3092.007	91.5
3095.216	88.5
3098.423	98.5
3101.627	95.5
3104.828	109.5
3108.026	101.5
3111.222	104.5
3114.416	96.5
3117.607	106.5
3120.795	106.5
3123.98	107.5
3127.163	122.5
3130.344	122.5
3133.521	117.5
3136.696	123.5
3139.869	125.5
3143.039	123.5
3146.206	136.5
3149.371	126.5
3152.533	139.5
3155.693	145.5
3158.85	139.5
3162.005	139.5
3165.157	141.5
3168.306	135.5
3171.453	139.5
3174.597	135.5
3177.739	144.5
3180.878	143.5
3184.014	136.5
3187.149	142.5
3190.28	135.5
3193.409	134.5
3196.536	137.5
3199.659	143.5
3202.781	144.5
3205.9	144.5
3209.016	132.5
3212.13	136.5
3215.241	139.5
3218.35	135.5
3221.456	132.5
3224.56	119.5
3227.661	125.5
3230.76	123.5
3233.856	127.5
3236.95	119.5
3240.041	112.5
3243.13	124.5
3246.216	104.5
3249.3	107.5
3252.382	109.5
3255.46	106.5
3258.537	105.5
3261.611	101.5
3264.682	101.5
3267.751	99.5
3270.818	89.5
3273.882	100.5
3276.943	91.5
3280.002	102.5
3283.059	97.5
3286.113	94.5
3289.165	90.5
3292.214	100.5
3295.261	95.5
3298.306	97.5
3301.348	95.5
3304.387	88.5
3307.425	91.5
3310.459	91.5
3313.492	91.5
3316.521	85.5
3319.549	93.5
3322.574	92.5
3325.597	93.5
3328.617	90.5
3331.635	94.5
3334.65	103.5
3337.663	82.5
3340.674	90.5
3343.682	83.5
3346.688	81.5
3349.691	87.5
3352.692	88.5
3355.691	93.5
3358.687	90.5
3361.681	87.5
3364.673	86.5
3367.662	85.5
3370.649	91.5
3373.633	76.5
3376.615	79.5
3379.595	70.5
3382.572	73.5
3385.547	80.5
3388.52	69.5
3391.49	79.5
3394.458	71.5
3397.424	67.5
3400.387	65.5
3403.348	56.5
3406.307	55.5
3409.263	55.5
3412.217	61.5
3415.168	64.5
3418.118	62.5
3421.065	56.5
3424.009	56.5
3426.951	50.5
3429.891	49.5
3432.829	51.5
3435.764	53.5
3438.697	52.5
3441.628	40.5
3444.557	38.5
3447.483	36.5
3450.407	30.5
3453.328	33.5
3456.247	33.5
3459.164	29.5
3462.079	22.5
3464.991	19.5
3467.902	21.5
3470.809	26.5
3473.715	15.5
3476.618	10.5
3479.519	11.5
3482.418	9.5
3485.315	9.5
3488.209	1.5
3491.101	5.5
3493.99	6.5
3496.878	2.5
3499.763	-8.5
3502.646	-3.5
3505.527	-0.5
3508.405	-0.5
3511.281	0.5
3514.155	-4.5
3517.027	-14.5
3519.897	-6.5
3522.764	-12.5
3525.629	-13.5
3528.492	-12.5
3531.352	-15.5
3534.211	-18.5
3537.067	-18.5
3539.921	-15.5
3542.773	-28.5
3545.622	-19.5
3548.469	-18.5
3551.315	-23.5
3554.157	-24.5
3556.998	-24.5
3559.837	-25.5
3562.673	-24.5
3565.507	-24.5
3568.339	-23.5
3571.169	-30.5
3573.996	-23.5
3576.822	-35.5
3579.645	-32.5
3582.466	-30.5
3585.285	-31.5
3588.101	-33.5
3590.916	-22.5
3593.728	-37.5
3596.538	-39.5
3599.346	-37.5
3602.152	-33.5
3604.956	-33.5
3607.757	-28.5
3610.556	-34.5
3613.354	-39.5
3616.149	-42.5
3618.942	-38.5
3621.732	-43.5
3624.521	-36.5
3627.307	-38.5
3630.092	-38.5
3632.874	-42.5
3635.654	-38.5
3638.432	-39.5
3641.208	-41.5
3643.982	-37.5
3646.753	-42.5
3649.523	-43.5
3652.29	-42.5
3655.055	-37.5
3657.818	-45.5
3660.579	-43.5
3663.338	-42.5
3666.095	-43.5
3668.849	-42.5
3671.602	-46.5
3674.352	-45.5
3677.101	-46.5
3679.847	-39.5
3682.591	-44.5
3685.333	-44.5
3688.073	-53.5
3690.811	-47.5
3693.547	-52.5
3696.281	-47.5
3699.013	-48.5
3701.742	-46.5
3704.47	-44.5
3707.195	-45.5
3709.919	-47.5
3712.64	-46.5
3715.359	-48.5
3718.076	-51.5
3720.792	-47.5
3723.505	-54.5
3726.216	-44.5
3728.925	-51.5
3731.632	-51.5
3734.336	-50.5
3737.039	-49.5
3739.74	-52.5
3742.439	-57.5
3745.136	-51.5
3747.83	-46.5
3750.523	-52.5
3753.213	-60.5
3755.902	-48.5
3758.589	-46.5
3761.273	-51.5
3763.956	-56.5
3766.636	-48.5
3769.315	-46.5
3771.991	-50.5
3774.665	-49.5
3777.338	-49.5
3780.008	-50.5
3782.677	-56.5
3785.343	-52.5
3788.007	-55.5
3790.67	-53.5
3793.33	-53.5
3795.989	-53.5
3798.645	-54.5
3801.299	-52.5
3803.952	-52.5
3806.602	-60.5
3809.251	-50.5
3811.897	-54.5
3814.542	-55.5
3817.184	-53.5
3819.825	-48.5
3822.463	-50.5
3825.1	-45.5
3827.735	-61.5
3830.367	-59.5
3832.998	-55.5
3835.627	-52.5
3838.253	-49.5
3840.878	-46.5
3843.501	-46.5
3846.122	-55.5
3848.741	-55.5
3851.358	-55.5
3853.973	-54.5
3856.586	-49.5
3859.197	-51.5
3861.806	-50.5
3864.414	-55.5
3867.019	-52.5
3869.622	-45.5
3872.224	-43.5
3874.823	-41.5
3877.421	-33.5
3880.016	-23.5
3882.61	-9.5
3885.202	-8.5
3887.792	-17.5
3890.38	-30.5
3892.966	-47.5
3895.55	-49.5
3898.132	-50.5
3900.713	-53.5
3903.291	-53.5
3905.868	-50.5
3908.442	-49.5
3911.015	-56.5
3913.586	-55.5
3916.155	-54.5
3918.722	-57.5
3921.287	-59.5
3923.85	-48.5
3926.411	-53.5
3928.971	-58.5
3931.528	-57.5
3934.084	-57.5
3936.638	-50.5
3939.19	-61.5
3941.74	-55.5
3944.288	-52.5
3946.834	-53.5
3949.378	-55.5
3951.921	-54.5
3954.462	-56.5
3957	-46.5
3959.537	-43.5
3962.072	-48.5
3964.606	-51.5
3967.137	-49.5
3969.667	-52.5
3972.194	-51.5
3974.72	-54.5
3977.244	-53.5
3979.766	-54.5
3982.286	-58.5
3984.805	-60.5
3987.321	-51.5
3989.836	-47.5
3992.349	-52.5
3994.86	-55.5
3997.369	-56.5
3999.877	-53.5
4002.382	-53.5
4004.886	-47.5
4007.388	-55.5
4009.888	-49.5
4012.386	-55.5
4014.883	-53.5
4017.377	-49.5
4019.87	-54.5
4022.361	-57.5
4024.85	-50.5
4027.338	-56.5
4029.823	-57.5
4032.307	-53.5
4034.789	-51.5
4037.269	-54.5
4039.747	-54.5
4042.224	-54.5
4044.699	-59.5
4047.172	-55.5
4049.643	-56.5
4052.112	-55.5
4054.58	-52.5
4057.046	-50.5
4059.51	-58.5
4061.972	-55.5
4064.432	-50.5
4066.891	-48.5
4069.348	-48.5
4071.803	-52.5
4074.256	-54.5
4076.708	-54.5
4079.158	-52.5
4081.606	-48.5
4084.052	-47.5
4086.497	-49.5
4088.939	-47.5
4091.38	-59.5
4093.819	-59.5
4096.257	-56.5
4098.693	-58.5
4101.127	-52.5
4103.559	-59.5
4105.989	18.5
4108.418	16.5
4110.845	11.5
4113.27	4.5
4115.694	11.5
4118.115	10.5
4120.535	-53.5
4122.954	-52.5
4125.37	-53.5
4127.785	-48.5
4130.198	-47.5
4132.609	-55.5
4135.019	-58.5
4137.427	-61.5
4139.833	-59.5
4142.237	-59.5
