Data from 2018-3-7_conc=2_n=4_RamanShift_02.txt Node
Date: Wed Mar 07 10:48:52 IST 2018
User: aro
Spectrometer: QEPB0276
Trigger mode: 0
Integration Time (sec): 3.000000E1
Scans to average: 1
Electric dark correction enabled: true
Nonlinearity correction enabled: false
Boxcar width: 0
XAxis mode: Raman Shifts
Number of Pixels in Spectrum: 1044
>>>>>Begin Spectral Data<<<<<
160.701	22.2
166.742	29.2
172.777	59.2
178.805	159.2
184.826	398.2
190.841	833.2
196.849	1381.2
202.85	1797.2
208.845	1983.2
214.833	1960.2
220.815	1947.2
226.789	1957.2
232.758	1979.2
238.719	1958.2
244.674	1952.2
250.623	1962.2
256.565	1935.2
262.5	1915.2
268.429	1894.2
274.351	1893.2
280.267	1888.2
286.176	1900.2
292.079	1870.2
297.975	1885.2
303.865	1883.2
309.748	1873.2
315.625	1871.2
321.495	1880.2
327.359	1889.2
333.217	1891.2
339.068	1894.2
344.912	1908.2
350.751	1912.2
356.583	1909.2
362.408	1912.2
368.227	1923.2
374.04	1942.2
379.847	1914.2
385.647	1947.2
391.44	1972.2
397.228	1958.2
403.009	1994.2
408.784	1999.2
414.553	2007.2
420.315	2002.2
426.071	1991.2
431.821	1991.2
437.565	2000.2
443.302	2001.2
449.033	2006.2
454.758	1986.2
460.477	1965.2
466.189	1946.2
471.896	1925.2
477.596	1920.2
483.29	1921.2
488.978	1907.2
494.66	1907.2
500.335	1868.2
506.005	1794.2
511.668	1712.2
517.325	1643.2
522.977	1587.2
528.622	1545.2
534.261	1516.2
539.894	1478.2
545.521	1470.2
551.141	1452.2
556.756	1430.2
562.365	1416.2
567.968	1415.2
573.565	1403.2
579.155	1403.2
584.74	1392.2
590.319	1373.2
595.892	1388.2
601.459	1399.2
607.02	1378.2
612.575	1367.2
618.124	1353.2
623.667	1338.2
629.204	1310.2
634.735	1316.2
640.261	1311.2
645.781	1280.2
651.294	1278.2
656.802	1265.2
662.304	1285.2
667.8	1259.2
673.29	1258.2
678.775	1261.2
684.254	1253.2
689.726	1261.2
695.193	1239.2
700.655	1231.2
706.11	1214.2
711.56	1221.2
717.004	1210.2
722.442	1203.2
727.874	1184.2
733.301	1196.2
738.722	1182.2
744.137	1180.2
749.547	1176.2
754.951	1179.2
760.349	1181.2
765.741	1184.2
771.128	1173.2
776.509	1199.2
781.885	1231.2
787.254	1224.2
792.618	1221.2
797.977	1227.2
803.33	1217.2
808.677	1198.2
814.019	1184.2
819.355	1201.2
824.686	1178.2
830.011	1173.2
835.33	1164.2
840.644	1146.2
845.952	1167.2
851.255	1156.2
856.552	1146.2
861.844	1132.2
867.13	1120.2
872.41	1116.2
877.686	1108.2
882.955	1106.2
888.219	1095.2
893.478	1087.2
898.731	1052.2
903.979	1040.2
909.221	1046.2
914.458	1026.2
919.69	1021.2
924.916	1032.2
930.136	1026.2
935.351	1037.2
940.561	1023.2
945.766	1037.2
950.965	1025.2
956.158	1025.2
961.347	1008.2
966.529	1002.2
971.707	969.2
976.879	963.2
982.046	957.2
987.208	953.2
992.364	938.2
997.515	953.2
1002.66	964.2
1007.801	980.2
1012.936	988.2
1018.066	989.2
1023.19	981.2
1028.309	988.2
1033.423	988.2
1038.532	979.2
1043.636	970.2
1048.734	970.2
1053.827	961.2
1058.915	942.2
1063.998	940.2
1069.075	935.2
1074.147	925.2
1079.214	932.2
1084.276	941.2
1089.333	961.2
1094.385	958.2
1099.431	928.2
1104.472	941.2
1109.509	934.2
1114.54	903.2
1119.565	901.2
1124.586	894.2
1129.602	882.2
1134.613	870.2
1139.618	869.2
1144.619	862.2
1149.614	876.2
1154.604	871.2
1159.589	880.2
1164.57	875.2
1169.545	864.2
1174.515	885.2
1179.48	861.2
1184.44	859.2
1189.395	857.2
1194.345	834.2
1199.29	846.2
1204.23	840.2
1209.165	844.2
1214.095	845.2
1219.021	858.2
1223.941	864.2
1228.856	855.2
1233.766	867.2
1238.672	858.2
1243.572	851.2
1248.467	855.2
1253.358	851.2
1258.244	846.2
1263.124	818.2
1268	797.2
1272.871	783.2
1277.737	787.2
1282.599	782.2
1287.455	793.2
1292.306	780.2
1297.153	781.2
1301.995	789.2
1306.832	786.2
1311.664	802.2
1316.491	810.2
1321.314	790.2
1326.132	786.2
1330.945	769.2
1335.753	763.2
1340.556	738.2
1345.354	717.2
1350.148	708.2
1354.937	696.2
1359.722	683.2
1364.501	671.2
1369.276	675.2
1374.046	643.2
1378.811	645.2
1383.572	648.2
1388.327	645.2
1393.079	645.2
1397.825	644.2
1402.567	655.2
1407.304	646.2
1412.036	662.2
1416.764	657.2
1421.487	658.2
1426.205	649.2
1430.919	651.2
1435.628	654.2
1440.333	668.2
1445.032	660.2
1449.727	686.2
1454.418	681.2
1459.104	674.2
1463.785	656.2
1468.462	647.2
1473.134	635.2
1477.802	616.2
1482.465	589.2
1487.123	578.2
1491.777	573.2
1496.426	563.2
1501.071	562.2
1505.711	548.2
1510.347	542.2
1514.978	532.2
1519.604	534.2
1524.226	537.2
1528.844	542.2
1533.457	531.2
1538.065	532.2
1542.669	548.2
1547.269	534.2
1551.864	539.2
1556.454	556.2
1561.041	565.2
1565.622	563.2
1570.199	551.2
1574.772	563.2
1579.34	560.2
1583.904	576.2
1588.464	578.2
1593.019	593.2
1597.569	590.2
1602.115	577.2
1606.657	585.2
1611.195	586.2
1615.728	580.2
1620.256	572.2
1624.78	570.2
1629.3	576.2
1633.816	573.2
1638.327	583.2
1642.834	570.2
1647.336	579.2
1651.834	568.2
1656.328	569.2
1660.817	560.2
1665.302	552.2
1669.783	536.2
1674.259	538.2
1678.732	508.2
1683.199	497.2
1687.663	483.2
1692.122	458.2
1696.577	445.2
1701.028	423.2
1705.474	401.2
1709.917	400.2
1714.355	391.2
1718.788	388.2
1723.218	389.2
1727.643	387.2
1732.064	382.2
1736.481	379.2
1740.893	379.2
1745.301	372.2
1749.705	370.2
1754.105	348.2
1758.501	337.2
1762.893	339.2
1767.28	328.2
1771.663	331.2
1776.042	324.2
1780.417	315.2
1784.787	305.2
1789.154	295.2
1793.516	293.2
1797.874	286.2
1802.228	299.2
1806.578	291.2
1810.924	292.2
1815.266	283.2
1819.603	288.2
1823.937	293.2
1828.266	285.2
1832.591	297.2
1836.913	291.2
1841.23	291.2
1845.543	289.2
1849.852	293.2
1854.156	295.2
1858.457	287.2
1862.754	305.2
1867.047	296.2
1871.335	291.2
1875.62	284.2
1879.9	290.2
1884.177	279.2
1888.449	276.2
1892.718	278.2
1896.982	269.2
1901.243	261.2
1905.499	254.2
1909.752	251.2
1914	250.2
1918.245	244.2
1922.485	243.2
1926.722	233.2
1930.954	230.2
1935.183	232.2
1939.408	238.2
1943.628	225.2
1947.845	233.2
1952.058	221.2
1956.267	231.2
1960.472	230.2
1964.673	224.2
1968.87	222.2
1973.063	226.2
1977.252	218.2
1981.438	225.2
1985.619	225.2
1989.797	217.2
1993.971	226.2
1998.14	225.2
2002.306	228.2
2006.469	230.2
2010.627	222.2
2014.781	224.2
2018.932	219.2
2023.078	227.2
2027.221	213.2
2031.36	216.2
2035.495	212.2
2039.627	203.2
2043.754	200.2
2047.878	200.2
2051.998	206.2
2056.114	198.2
2060.226	193.2
2064.334	194.2
2068.439	192.2
2072.54	183.2
2076.637	189.2
2080.73	183.2
2084.82	188.2
2088.906	188.2
2092.988	184.2
2097.066	184.2
2101.14	186.2
2105.211	178.2
2109.278	179.2
2113.342	169.2
2117.401	176.2
2121.457	172.2
2125.509	171.2
2129.558	169.2
2133.602	170.2
2137.643	168.2
2141.681	168.2
2145.714	168.2
2149.744	169.2
2153.77	174.2
2157.793	169.2
2161.812	174.2
2165.827	168.2
2169.838	163.2
2173.846	151.2
2177.851	153.2
2181.851	159.2
2185.848	156.2
2189.841	157.2
2193.831	151.2
2197.817	160.2
2201.799	160.2
2205.778	144.2
2209.753	152.2
2213.725	148.2
2217.693	155.2
2221.657	149.2
2225.618	146.2
2229.575	136.2
2233.529	144.2
2237.479	147.2
2241.425	140.2
2245.368	142.2
2249.307	143.2
2253.243	138.2
2257.175	135.2
2261.104	128.2
2265.029	124.2
2268.95	129.2
2272.868	132.2
2276.783	125.2
2280.694	120.2
2284.601	118.2
2288.505	130.2
2292.405	126.2
2296.302	129.2
2300.195	119.2
2304.085	114.2
2307.971	111.2
2311.854	104.2
2315.734	105.2
2319.609	118.2
2323.482	108.2
2327.351	124.2
2331.216	131.2
2335.078	139.2
2338.937	126.2
2342.792	122.2
2346.643	115.2
2350.492	117.2
2354.336	112.2
2358.178	103.2
2362.015	110.2
2365.85	110.2
2369.681	111.2
2373.508	117.2
2377.333	121.2
2381.153	112.2
2384.971	104.2
2388.785	111.2
2392.595	106.2
2396.402	107.2
2400.206	109.2
2404.007	107.2
2407.804	105.2
2411.597	104.2
2415.388	104.2
2419.174	110.2
2422.958	109.2
2426.738	108.2
2430.515	100.2
2434.289	108.2
2438.059	99.2
2441.825	100.2
2445.589	88.2
2449.349	95.2
2453.106	95.2
2456.859	92.2
2460.61	92.2
2464.356	95.2
2468.1	90.2
2471.84	89.2
2475.577	78.2
2479.311	87.2
2483.041	89.2
2486.768	83.2
2490.492	89.2
2494.213	81.2
2497.93	84.2
2501.644	79.2
2505.355	70.2
2509.062	77.2
2512.766	75.2
2516.467	70.2
2520.165	78.2
2523.859	83.2
2527.551	68.2
2531.239	58.2
2534.923	62.2
2538.605	65.2
2542.283	62.2
2545.958	62.2
2549.63	63.2
2553.299	65.2
2556.964	64.2
2560.626	67.2
2564.285	59.2
2567.941	59.2
2571.594	57.2
2575.243	59.2
2578.89	52.2
2582.533	55.2
2586.173	52.2
2589.809	53.2
2593.443	58.2
2597.073	51.2
2600.701	58.2
2604.325	50.2
2607.946	45.2
2611.564	53.2
2615.178	52.2
2618.79	43.2
2622.398	44.2
2626.004	44.2
2629.606	42.2
2633.205	44.2
2636.801	44.2
2640.394	55.2
2643.983	44.2
2647.57	45.2
2651.153	39.2
2654.734	47.2
2658.311	47.2
2661.885	44.2
2665.456	44.2
2669.025	47.2
2672.589	38.2
2676.151	44.2
2679.71	32.2
2683.266	39.2
2686.819	46.2
2690.368	43.2
2693.915	43.2
2697.458	30.2
2700.999	40.2
2704.536	38.2
2708.071	33.2
2711.602	34.2
2715.13	24.2
2718.656	29.2
2722.178	27.2
2725.697	25.2
2729.214	34.2
2732.727	33.2
2736.237	30.2
2739.744	22.2
2743.249	22.2
2746.75	24.2
2750.248	23.2
2753.743	20.2
2757.236	17.2
2760.725	14.2
2764.211	16.2
2767.695	12.2
2771.175	17.2
2774.652	18.2
2778.127	14.2
2781.598	14.2
2785.067	16.2
2788.532	17.2
2791.995	22.2
2795.455	17.2
2798.911	16.2
2802.365	14.2
2805.816	13.2
2809.264	15.2
2812.709	10.2
2816.151	23.2
2819.59	31.2
2823.026	22.2
2826.46	27.2
2829.89	19.2
2833.318	19.2
2836.742	25.2
2840.164	15.2
2843.583	16.2
2846.999	15.2
2850.412	21.2
2853.822	17.2
2857.229	15.2
2860.634	18.2
2864.035	20.2
2867.434	20.2
2870.83	29.2
2874.223	29.2
2877.613	32.2
2881	31.2
2884.385	29.2
2887.766	25.2
2891.145	29.2
2894.521	33.2
2897.894	38.2
2901.264	35.2
2904.631	28.2
2907.996	35.2
2911.358	38.2
2914.717	35.2
2918.073	31.2
2921.426	34.2
2924.777	41.2
2928.124	41.2
2931.469	45.2
2934.811	52.2
2938.15	47.2
2941.487	55.2
2944.821	48.2
2948.152	52.2
2951.48	41.2
2954.805	38.2
2958.128	47.2
2961.447	44.2
2964.765	37.2
2968.079	35.2
2971.39	43.2
2974.699	38.2
2978.005	49.2
2981.308	39.2
2984.609	35.2
2987.907	38.2
2991.202	44.2
2994.494	44.2
2997.784	35.2
3001.07	45.2
3004.355	38.2
3007.636	45.2
3010.915	42.2
3014.191	38.2
3017.464	47.2
3020.734	50.2
3024.002	50.2
3027.267	51.2
3030.53	52.2
3033.789	53.2
3037.046	50.2
3040.301	44.2
3043.552	55.2
3046.801	56.2
3050.048	57.2
3053.291	53.2
3056.532	61.2
3059.771	62.2
3063.006	69.2
3066.239	76.2
3069.469	78.2
3072.697	81.2
3075.922	82.2
3079.144	81.2
3082.364	91.2
3085.581	87.2
3088.795	88.2
3092.007	94.2
3095.216	100.2
3098.423	95.2
3101.627	99.2
3104.828	106.2
3108.026	106.2
3111.222	102.2
3114.416	110.2
3117.607	119.2
3120.795	110.2
3123.98	113.2
3127.163	125.2
3130.344	110.2
3133.521	118.2
3136.696	126.2
3139.869	135.2
3143.039	138.2
3146.206	144.2
3149.371	135.2
3152.533	138.2
3155.693	147.2
3158.85	146.2
3162.005	143.2
3165.157	141.2
3168.306	145.2
3171.453	143.2
3174.597	151.2
3177.739	150.2
3180.878	144.2
3184.014	138.2
3187.149	150.2
3190.28	152.2
3193.409	144.2
3196.536	145.2
3199.659	152.2
3202.781	150.2
3205.9	146.2
3209.016	145.2
3212.13	150.2
3215.241	146.2
3218.35	138.2
3221.456	154.2
3224.56	132.2
3227.661	142.2
3230.76	133.2
3233.856	138.2
3236.95	133.2
3240.041	127.2
3243.13	129.2
3246.216	121.2
3249.3	118.2
3252.382	124.2
3255.46	116.2
3258.537	120.2
3261.611	111.2
3264.682	114.2
3267.751	113.2
3270.818	99.2
3273.882	112.2
3276.943	106.2
3280.002	114.2
3283.059	112.2
3286.113	107.2
3289.165	107.2
3292.214	107.2
3295.261	103.2
3298.306	100.2
3301.348	101.2
3304.387	100.2
3307.425	101.2
3310.459	91.2
3313.492	97.2
3316.521	98.2
3319.549	98.2
3322.574	89.2
3325.597	96.2
3328.617	102.2
3331.635	100.2
3334.65	97.2
3337.663	81.2
3340.674	89.2
3343.682	93.2
3346.688	85.2
3349.691	98.2
3352.692	95.2
3355.691	103.2
3358.687	94.2
3361.681	88.2
3364.673	89.2
3367.662	81.2
3370.649	88.2
3373.633	84.2
3376.615	79.2
3379.595	78.2
3382.572	77.2
3385.547	83.2
3388.52	78.2
3391.49	73.2
3394.458	66.2
3397.424	74.2
3400.387	72.2
3403.348	59.2
3406.307	60.2
3409.263	60.2
3412.217	66.2
3415.168	67.2
3418.118	65.2
3421.065	60.2
3424.009	55.2
3426.951	53.2
3429.891	53.2
3432.829	59.2
3435.764	52.2
3438.697	50.2
3441.628	35.2
3444.557	43.2
3447.483	47.2
3450.407	39.2
3453.328	35.2
3456.247	30.2
3459.164	29.2
3462.079	29.2
3464.991	22.2
3467.902	24.2
3470.809	19.2
3473.715	18.2
3476.618	15.2
3479.519	15.2
3482.418	7.2
3485.315	13.2
3488.209	5.2
3491.101	3.2
3493.99	0.2
3496.878	1.2
3499.763	-4.8
3502.646	-5.8
3505.527	-1.8
3508.405	-5.8
3511.281	-2.8
3514.155	-8.8
3517.027	-11.8
3519.897	-7.8
3522.764	-4.8
3525.629	-11.8
3528.492	-14.8
3531.352	-18.8
3534.211	-25.8
3537.067	-25.8
3539.921	-22.8
3542.773	-27.8
3545.622	-26.8
3548.469	-21.8
3551.315	-20.8
3554.157	-24.8
3556.998	-24.8
3559.837	-33.8
3562.673	-29.8
3565.507	-34.8
3568.339	-27.8
3571.169	-42.8
3573.996	-28.8
3576.822	-35.8
3579.645	-37.8
3582.466	-31.8
3585.285	-34.8
3588.101	-35.8
3590.916	-39.8
3593.728	-43.8
3596.538	-41.8
3599.346	-41.8
3602.152	-43.8
3604.956	-40.8
3607.757	-35.8
3610.556	-39.8
3613.354	-45.8
3616.149	-43.8
3618.942	-47.8
3621.732	-44.8
3624.521	-43.8
3627.307	-47.8
3630.092	-47.8
3632.874	-49.8
3635.654	-52.8
3638.432	-47.8
3641.208	-42.8
3643.982	-45.8
3646.753	-50.8
3649.523	-49.8
3652.29	-52.8
3655.055	-45.8
3657.818	-52.8
3660.579	-52.8
3663.338	-43.8
3666.095	-53.8
3668.849	-59.8
3671.602	-50.8
3674.352	-47.8
3677.101	-47.8
3679.847	-48.8
3682.591	-57.8
3685.333	-50.8
3688.073	-63.8
3690.811	-51.8
3693.547	-52.8
3696.281	-51.8
3699.013	-57.8
3701.742	-62.8
3704.47	-53.8
3707.195	-55.8
3709.919	-56.8
3712.64	-53.8
3715.359	-51.8
3718.076	-62.8
3720.792	-58.8
3723.505	-57.8
3726.216	-54.8
3728.925	-62.8
3731.632	-58.8
3734.336	-62.8
3737.039	-53.8
3739.74	-60.8
3742.439	-64.8
3745.136	-60.8
3747.83	-54.8
3750.523	-60.8
3753.213	-68.8
3755.902	-57.8
3758.589	-60.8
3761.273	-58.8
3763.956	-63.8
3766.636	-53.8
3769.315	-53.8
3771.991	-62.8
3774.665	-61.8
3777.338	-60.8
3780.008	-62.8
3782.677	-59.8
3785.343	-57.8
3788.007	-62.8
3790.67	-62.8
3793.33	-57.8
3795.989	-62.8
3798.645	-66.8
3801.299	-59.8
3803.952	-60.8
3806.602	-60.8
3809.251	-65.8
3811.897	-62.8
3814.542	-65.8
3817.184	-58.8
3819.825	-56.8
3822.463	-60.8
3825.1	-59.8
3827.735	-64.8
3830.367	-64.8
3832.998	-67.8
3835.627	-66.8
3838.253	-56.8
3840.878	-55.8
3843.501	-56.8
3846.122	-62.8
3848.741	-59.8
3851.358	-56.8
3853.973	-56.8
3856.586	-62.8
3859.197	-58.8
3861.806	-61.8
3864.414	-62.8
3867.019	-65.8
3869.622	-59.8
3872.224	-49.8
3874.823	-37.8
3877.421	-30.8
3880.016	-12.8
3882.61	5.2
3885.202	7.2
3887.792	-10.8
3890.38	-22.8
3892.966	-45.8
3895.55	-55.8
3898.132	-58.8
3900.713	-63.8
3903.291	-65.8
3905.868	-57.8
3908.442	-57.8
3911.015	-55.8
3913.586	-67.8
3916.155	-58.8
3918.722	-65.8
3921.287	-67.8
3923.85	-56.8
3926.411	-63.8
3928.971	-68.8
3931.528	-64.8
3934.084	-60.8
3936.638	-58.8
3939.19	-67.8
3941.74	-58.8
3944.288	-64.8
3946.834	-60.8
3949.378	-60.8
3951.921	-62.8
3954.462	-63.8
3957	-60.8
3959.537	-52.8
3962.072	-55.8
3964.606	-54.8
3967.137	-53.8
3969.667	-60.8
3972.194	-58.8
3974.72	-53.8
3977.244	-56.8
3979.766	-64.8
3982.286	-63.8
3984.805	-70.8
3987.321	-59.8
3989.836	-58.8
3992.349	-61.8
3994.86	-65.8
3997.369	-63.8
3999.877	-60.8
4002.382	-57.8
4004.886	-58.8
4007.388	-65.8
4009.888	-63.8
4012.386	-54.8
4014.883	-62.8
4017.377	-56.8
4019.87	-61.8
4022.361	-63.8
4024.85	-56.8
4027.338	-62.8
4029.823	-60.8
4032.307	-60.8
4034.789	-60.8
4037.269	-60.8
4039.747	-57.8
4042.224	-62.8
4044.699	-61.8
4047.172	-66.8
4049.643	-65.8
4052.112	-59.8
4054.58	-62.8
4057.046	-56.8
4059.51	-63.8
4061.972	-63.8
4064.432	-58.8
4066.891	-55.8
4069.348	-54.8
4071.803	-55.8
4074.256	-62.8
4076.708	-64.8
4079.158	-67.8
4081.606	-61.8
4084.052	-61.8
4086.497	-59.8
4088.939	-62.8
4091.38	-61.8
4093.819	-63.8
4096.257	-64.8
4098.693	-64.8
4101.127	-59.8
4103.559	-67.8
4105.989	28.2
4108.418	24.2
4110.845	23.2
4113.27	19.2
4115.694	21.2
4118.115	15.2
4120.535	-56.8
4122.954	-60.8
4125.37	-61.8
4127.785	-59.8
4130.198	-60.8
4132.609	-63.8
4135.019	-65.8
4137.427	-68.8
4139.833	-64.8
4142.237	-70.8
