Data from 2018-3-7_conc=4_n=7_RamanShift_01.txt Node
Date: Wed Mar 07 12:08:22 IST 2018
User: aro
Spectrometer: QEPB0276
Trigger mode: 0
Integration Time (sec): 3.000000E1
Scans to average: 1
Electric dark correction enabled: true
Nonlinearity correction enabled: false
Boxcar width: 0
XAxis mode: Raman Shifts
Number of Pixels in Spectrum: 1044
>>>>>Begin Spectral Data<<<<<
160.701	9.5
166.742	21.5
172.777	53.5
178.805	148.5
184.826	393.5
190.841	849.5
196.849	1395.5
202.85	1808.5
208.845	2004.5
214.833	1998.5
220.815	1966.5
226.789	1959.5
232.758	1969.5
238.719	1967.5
244.674	1959.5
250.623	1947.5
256.565	1907.5
262.5	1886.5
268.429	1861.5
274.351	1860.5
280.267	1839.5
286.176	1816.5
292.079	1826.5
297.975	1814.5
303.865	1844.5
309.748	1828.5
315.625	1830.5
321.495	1836.5
327.359	1816.5
333.217	1820.5
339.068	1836.5
344.912	1830.5
350.751	1848.5
356.583	1830.5
362.408	1819.5
368.227	1850.5
374.04	1849.5
379.847	1844.5
385.647	1856.5
391.44	1862.5
397.228	1858.5
403.009	1878.5
408.784	1892.5
414.553	1907.5
420.315	1911.5
426.071	1888.5
431.821	1904.5
437.565	1901.5
443.302	1880.5
449.033	1895.5
454.758	1871.5
460.477	1866.5
466.189	1873.5
471.896	1843.5
477.596	1835.5
483.29	1828.5
488.978	1846.5
494.66	1827.5
500.335	1771.5
506.005	1726.5
511.668	1689.5
517.325	1629.5
522.977	1585.5
528.622	1545.5
534.261	1520.5
539.894	1496.5
545.521	1484.5
551.141	1459.5
556.756	1463.5
562.365	1446.5
567.968	1428.5
573.565	1440.5
579.155	1420.5
584.74	1424.5
590.319	1409.5
595.892	1420.5
601.459	1401.5
607.02	1396.5
612.575	1384.5
618.124	1369.5
623.667	1373.5
629.204	1347.5
634.735	1323.5
640.261	1324.5
645.781	1322.5
651.294	1322.5
656.802	1304.5
662.304	1308.5
667.8	1309.5
673.29	1308.5
678.775	1295.5
684.254	1292.5
689.726	1282.5
695.193	1288.5
700.655	1272.5
706.11	1271.5
711.56	1260.5
717.004	1251.5
722.442	1234.5
727.874	1232.5
733.301	1232.5
738.722	1220.5
744.137	1231.5
749.547	1235.5
754.951	1221.5
760.349	1218.5
765.741	1223.5
771.128	1242.5
776.509	1235.5
781.885	1242.5
787.254	1249.5
792.618	1254.5
797.977	1240.5
803.33	1221.5
808.677	1227.5
814.019	1215.5
819.355	1194.5
824.686	1202.5
830.011	1199.5
835.33	1193.5
840.644	1196.5
845.952	1183.5
851.255	1202.5
856.552	1192.5
861.844	1176.5
867.13	1170.5
872.41	1166.5
877.686	1160.5
882.955	1144.5
888.219	1136.5
893.478	1124.5
898.731	1094.5
903.979	1092.5
909.221	1078.5
914.458	1058.5
919.69	1063.5
924.916	1081.5
930.136	1079.5
935.351	1082.5
940.561	1072.5
945.766	1090.5
950.965	1076.5
956.158	1066.5
961.347	1071.5
966.529	1028.5
971.707	1023.5
976.879	1015.5
982.046	1002.5
987.208	1007.5
992.364	1012.5
997.515	1011.5
1002.66	1020.5
1007.801	1017.5
1012.936	1026.5
1018.066	1038.5
1023.19	1025.5
1028.309	1028.5
1033.423	1005.5
1038.532	1025.5
1043.636	1021.5
1048.734	997.5
1053.827	992.5
1058.915	994.5
1063.998	970.5
1069.075	967.5
1074.147	971.5
1079.214	955.5
1084.276	976.5
1089.333	973.5
1094.385	971.5
1099.431	979.5
1104.472	986.5
1109.509	970.5
1114.54	954.5
1119.565	947.5
1124.586	931.5
1129.602	926.5
1134.613	913.5
1139.618	908.5
1144.619	908.5
1149.614	923.5
1154.604	906.5
1159.589	910.5
1164.57	911.5
1169.545	903.5
1174.515	918.5
1179.48	903.5
1184.44	907.5
1189.395	905.5
1194.345	886.5
1199.29	871.5
1204.23	887.5
1209.165	882.5
1214.095	884.5
1219.021	892.5
1223.941	900.5
1228.856	912.5
1233.766	895.5
1238.672	905.5
1243.572	903.5
1248.467	903.5
1253.358	895.5
1258.244	881.5
1263.124	862.5
1268	847.5
1272.871	821.5
1277.737	826.5
1282.599	817.5
1287.455	839.5
1292.306	835.5
1297.153	837.5
1301.995	848.5
1306.832	850.5
1311.664	839.5
1316.491	844.5
1321.314	827.5
1326.132	833.5
1330.945	823.5
1335.753	797.5
1340.556	793.5
1345.354	772.5
1350.148	767.5
1354.937	742.5
1359.722	721.5
1364.501	711.5
1369.276	706.5
1374.046	686.5
1378.811	681.5
1383.572	671.5
1388.327	677.5
1393.079	655.5
1397.825	687.5
1402.567	680.5
1407.304	688.5
1412.036	693.5
1416.764	704.5
1421.487	706.5
1426.205	693.5
1430.919	692.5
1435.628	702.5
1440.333	712.5
1445.032	703.5
1449.727	708.5
1454.418	726.5
1459.104	731.5
1463.785	705.5
1468.462	688.5
1473.134	676.5
1477.802	651.5
1482.465	631.5
1487.123	620.5
1491.777	599.5
1496.426	616.5
1501.071	598.5
1505.711	583.5
1510.347	584.5
1514.978	573.5
1519.604	574.5
1524.226	580.5
1528.844	582.5
1533.457	567.5
1538.065	564.5
1542.669	560.5
1547.269	569.5
1551.864	575.5
1556.454	583.5
1561.041	584.5
1565.622	604.5
1570.199	588.5
1574.772	597.5
1579.34	605.5
1583.904	618.5
1588.464	631.5
1593.019	631.5
1597.569	634.5
1602.115	640.5
1606.657	634.5
1611.195	625.5
1615.728	622.5
1620.256	616.5
1624.78	639.5
1629.3	614.5
1633.816	618.5
1638.327	623.5
1642.834	609.5
1647.336	604.5
1651.834	613.5
1656.328	616.5
1660.817	608.5
1665.302	615.5
1669.783	589.5
1674.259	577.5
1678.732	568.5
1683.199	541.5
1687.663	528.5
1692.122	496.5
1696.577	483.5
1701.028	450.5
1705.474	422.5
1709.917	419.5
1714.355	416.5
1718.788	405.5
1723.218	415.5
1727.643	415.5
1732.064	407.5
1736.481	414.5
1740.893	401.5
1745.301	393.5
1749.705	396.5
1754.105	375.5
1758.501	366.5
1762.893	361.5
1767.28	354.5
1771.663	350.5
1776.042	336.5
1780.417	344.5
1784.787	335.5
1789.154	329.5
1793.516	316.5
1797.874	305.5
1802.228	299.5
1806.578	294.5
1810.924	296.5
1815.266	289.5
1819.603	303.5
1823.937	302.5
1828.266	297.5
1832.591	306.5
1836.913	306.5
1841.23	316.5
1845.543	306.5
1849.852	307.5
1854.156	310.5
1858.457	317.5
1862.754	317.5
1867.047	307.5
1871.335	312.5
1875.62	314.5
1879.9	302.5
1884.177	305.5
1888.449	301.5
1892.718	294.5
1896.982	282.5
1901.243	275.5
1905.499	285.5
1909.752	266.5
1914	265.5
1918.245	258.5
1922.485	247.5
1926.722	253.5
1930.954	253.5
1935.183	248.5
1939.408	253.5
1943.628	246.5
1947.845	241.5
1952.058	249.5
1956.267	233.5
1960.472	240.5
1964.673	223.5
1968.87	227.5
1973.063	223.5
1977.252	237.5
1981.438	226.5
1985.619	224.5
1989.797	230.5
1993.971	237.5
1998.14	238.5
2002.306	244.5
2006.469	240.5
2010.627	240.5
2014.781	238.5
2018.932	240.5
2023.078	243.5
2027.221	236.5
2031.36	229.5
2035.495	229.5
2039.627	216.5
2043.754	221.5
2047.878	219.5
2051.998	224.5
2056.114	213.5
2060.226	214.5
2064.334	207.5
2068.439	209.5
2072.54	216.5
2076.637	216.5
2080.73	208.5
2084.82	208.5
2088.906	201.5
2092.988	200.5
2097.066	205.5
2101.14	195.5
2105.211	197.5
2109.278	188.5
2113.342	182.5
2117.401	182.5
2121.457	179.5
2125.509	189.5
2129.558	184.5
2133.602	180.5
2137.643	186.5
2141.681	179.5
2145.714	188.5
2149.744	184.5
2153.77	189.5
2157.793	187.5
2161.812	192.5
2165.827	190.5
2169.838	180.5
2173.846	178.5
2177.851	170.5
2181.851	173.5
2185.848	168.5
2189.841	174.5
2193.831	169.5
2197.817	167.5
2201.799	164.5
2205.778	167.5
2209.753	172.5
2213.725	166.5
2217.693	173.5
2221.657	169.5
2225.618	160.5
2229.575	161.5
2233.529	160.5
2237.479	159.5
2241.425	158.5
2245.368	163.5
2249.307	159.5
2253.243	151.5
2257.175	149.5
2261.104	139.5
2265.029	145.5
2268.95	152.5
2272.868	140.5
2276.783	139.5
2280.694	137.5
2284.601	131.5
2288.505	140.5
2292.405	143.5
2296.302	147.5
2300.195	135.5
2304.085	130.5
2307.971	127.5
2311.854	125.5
2315.734	122.5
2319.609	136.5
2323.482	124.5
2327.351	124.5
2331.216	143.5
2335.078	150.5
2338.937	138.5
2342.792	129.5
2346.643	126.5
2350.492	130.5
2354.336	133.5
2358.178	115.5
2362.015	123.5
2365.85	126.5
2369.681	132.5
2373.508	131.5
2377.333	131.5
2381.153	133.5
2384.971	127.5
2388.785	126.5
2392.595	133.5
2396.402	127.5
2400.206	124.5
2404.007	122.5
2407.804	126.5
2411.597	127.5
2415.388	122.5
2419.174	129.5
2422.958	125.5
2426.738	117.5
2430.515	117.5
2434.289	128.5
2438.059	116.5
2441.825	111.5
2445.589	110.5
2449.349	112.5
2453.106	121.5
2456.859	107.5
2460.61	107.5
2464.356	107.5
2468.1	110.5
2471.84	102.5
2475.577	98.5
2479.311	96.5
2483.041	93.5
2486.768	100.5
2490.492	102.5
2494.213	97.5
2497.93	95.5
2501.644	95.5
2505.355	92.5
2509.062	93.5
2512.766	90.5
2516.467	90.5
2520.165	99.5
2523.859	95.5
2527.551	81.5
2531.239	89.5
2534.923	83.5
2538.605	83.5
2542.283	79.5
2545.958	86.5
2549.63	79.5
2553.299	83.5
2556.964	69.5
2560.626	74.5
2564.285	73.5
2567.941	65.5
2571.594	69.5
2575.243	71.5
2578.89	73.5
2582.533	71.5
2586.173	67.5
2589.809	67.5
2593.443	66.5
2597.073	66.5
2600.701	72.5
2604.325	61.5
2607.946	55.5
2611.564	62.5
2615.178	64.5
2618.79	63.5
2622.398	63.5
2626.004	63.5
2629.606	59.5
2633.205	64.5
2636.801	59.5
2640.394	64.5
2643.983	57.5
2647.57	58.5
2651.153	51.5
2654.734	55.5
2658.311	54.5
2661.885	62.5
2665.456	59.5
2669.025	58.5
2672.589	52.5
2676.151	53.5
2679.71	47.5
2683.266	54.5
2686.819	53.5
2690.368	50.5
2693.915	53.5
2697.458	40.5
2700.999	52.5
2704.536	48.5
2708.071	45.5
2711.602	42.5
2715.13	32.5
2718.656	37.5
2722.178	40.5
2725.697	33.5
2729.214	42.5
2732.727	38.5
2736.237	41.5
2739.744	35.5
2743.249	33.5
2746.75	34.5
2750.248	35.5
2753.743	29.5
2757.236	33.5
2760.725	32.5
2764.211	27.5
2767.695	22.5
2771.175	21.5
2774.652	24.5
2778.127	26.5
2781.598	19.5
2785.067	23.5
2788.532	22.5
2791.995	27.5
2795.455	25.5
2798.911	28.5
2802.365	28.5
2805.816	21.5
2809.264	25.5
2812.709	27.5
2816.151	29.5
2819.59	41.5
2823.026	32.5
2826.46	32.5
2829.89	26.5
2833.318	27.5
2836.742	33.5
2840.164	26.5
2843.583	23.5
2846.999	30.5
2850.412	29.5
2853.822	27.5
2857.229	34.5
2860.634	26.5
2864.035	26.5
2867.434	29.5
2870.83	35.5
2874.223	40.5
2877.613	36.5
2881	40.5
2884.385	43.5
2887.766	45.5
2891.145	40.5
2894.521	46.5
2897.894	38.5
2901.264	48.5
2904.631	35.5
2907.996	42.5
2911.358	47.5
2914.717	39.5
2918.073	43.5
2921.426	40.5
2924.777	48.5
2928.124	48.5
2931.469	55.5
2934.811	61.5
2938.15	59.5
2941.487	62.5
2944.821	59.5
2948.152	63.5
2951.48	59.5
2954.805	59.5
2958.128	58.5
2961.447	52.5
2964.765	50.5
2968.079	53.5
2971.39	51.5
2974.699	51.5
2978.005	56.5
2981.308	53.5
2984.609	51.5
2987.907	55.5
2991.202	49.5
2994.494	53.5
2997.784	47.5
3001.07	57.5
3004.355	54.5
3007.636	58.5
3010.915	55.5
3014.191	55.5
3017.464	55.5
3020.734	57.5
3024.002	68.5
3027.267	63.5
3030.53	71.5
3033.789	60.5
3037.046	65.5
3040.301	64.5
3043.552	65.5
3046.801	72.5
3050.048	81.5
3053.291	78.5
3056.532	74.5
3059.771	90.5
3063.006	93.5
3066.239	94.5
3069.469	98.5
3072.697	100.5
3075.922	106.5
3079.144	104.5
3082.364	110.5
3085.581	104.5
3088.795	112.5
3092.007	121.5
3095.216	122.5
3098.423	114.5
3101.627	118.5
3104.828	131.5
3108.026	131.5
3111.222	129.5
3114.416	139.5
3117.607	137.5
3120.795	137.5
3123.98	143.5
3127.163	156.5
3130.344	157.5
3133.521	160.5
3136.696	155.5
3139.869	160.5
3143.039	164.5
3146.206	163.5
3149.371	165.5
3152.533	173.5
3155.693	176.5
3158.85	188.5
3162.005	176.5
3165.157	181.5
3168.306	179.5
3171.453	177.5
3174.597	180.5
3177.739	179.5
3180.878	192.5
3184.014	177.5
3187.149	179.5
3190.28	178.5
3193.409	180.5
3196.536	177.5
3199.659	183.5
3202.781	179.5
3205.9	185.5
3209.016	178.5
3212.13	183.5
3215.241	181.5
3218.35	177.5
3221.456	180.5
3224.56	175.5
3227.661	174.5
3230.76	170.5
3233.856	163.5
3236.95	161.5
3240.041	158.5
3243.13	158.5
3246.216	145.5
3249.3	143.5
3252.382	145.5
3255.46	151.5
3258.537	146.5
3261.611	140.5
3264.682	142.5
3267.751	141.5
3270.818	127.5
3273.882	135.5
3276.943	134.5
3280.002	143.5
3283.059	130.5
3286.113	133.5
3289.165	128.5
3292.214	127.5
3295.261	133.5
3298.306	127.5
3301.348	126.5
3304.387	125.5
3307.425	123.5
3310.459	123.5
3313.492	125.5
3316.521	121.5
3319.549	130.5
3322.574	120.5
3325.597	116.5
3328.617	123.5
3331.635	130.5
3334.65	128.5
3337.663	117.5
3340.674	124.5
3343.682	130.5
3346.688	118.5
3349.691	120.5
3352.692	122.5
3355.691	126.5
3358.687	121.5
3361.681	114.5
3364.673	117.5
3367.662	118.5
3370.649	113.5
3373.633	104.5
3376.615	114.5
3379.595	110.5
3382.572	113.5
3385.547	108.5
3388.52	100.5
3391.49	98.5
3394.458	95.5
3397.424	98.5
3400.387	104.5
3403.348	91.5
3406.307	89.5
3409.263	89.5
3412.217	90.5
3415.168	96.5
3418.118	76.5
3421.065	75.5
3424.009	84.5
3426.951	81.5
3429.891	79.5
3432.829	72.5
3435.764	82.5
3438.697	80.5
3441.628	64.5
3444.557	66.5
3447.483	64.5
3450.407	55.5
3453.328	64.5
3456.247	52.5
3459.164	50.5
3462.079	43.5
3464.991	37.5
3467.902	33.5
3470.809	34.5
3473.715	30.5
3476.618	36.5
3479.519	26.5
3482.418	24.5
3485.315	23.5
3488.209	19.5
3491.101	19.5
3493.99	23.5
3496.878	17.5
3499.763	12.5
3502.646	13.5
3505.527	14.5
3508.405	9.5
3511.281	10.5
3514.155	4.5
3517.027	-4.5
3519.897	6.5
3522.764	-4.5
3525.629	-0.5
3528.492	-4.5
3531.352	-9.5
3534.211	-14.5
3537.067	-12.5
3539.921	-7.5
3542.773	-16.5
3545.622	-11.5
3548.469	-17.5
3551.315	-9.5
3554.157	-17.5
3556.998	-18.5
3559.837	-16.5
3562.673	-21.5
3565.507	-21.5
3568.339	-17.5
3571.169	-28.5
3573.996	-24.5
3576.822	-32.5
3579.645	-30.5
3582.466	-30.5
3585.285	-31.5
3588.101	-34.5
3590.916	-26.5
3593.728	-32.5
3596.538	-36.5
3599.346	-33.5
3602.152	-33.5
3604.956	-28.5
3607.757	-27.5
3610.556	-30.5
3613.354	-39.5
3616.149	-38.5
3618.942	-37.5
3621.732	-37.5
3624.521	-35.5
3627.307	-36.5
3630.092	-40.5
3632.874	-43.5
3635.654	-40.5
3638.432	-40.5
3641.208	-40.5
3643.982	-38.5
3646.753	-41.5
3649.523	-39.5
3652.29	-47.5
3655.055	-41.5
3657.818	-48.5
3660.579	-42.5
3663.338	-41.5
3666.095	-43.5
3668.849	-43.5
3671.602	-45.5
3674.352	-43.5
3677.101	-41.5
3679.847	-43.5
3682.591	-53.5
3685.333	-41.5
3688.073	-52.5
3690.811	-50.5
3693.547	-53.5
3696.281	-44.5
3699.013	-48.5
3701.742	-54.5
3704.47	-42.5
3707.195	-49.5
3709.919	-49.5
3712.64	-49.5
3715.359	-51.5
3718.076	-47.5
3720.792	-50.5
3723.505	-48.5
3726.216	-45.5
3728.925	-50.5
3731.632	-48.5
3734.336	-46.5
3737.039	-46.5
3739.74	-52.5
3742.439	-53.5
3745.136	-56.5
3747.83	-55.5
3750.523	-57.5
3753.213	-51.5
3755.902	-52.5
3758.589	-53.5
3761.273	-52.5
3763.956	-56.5
3766.636	-48.5
3769.315	-45.5
3771.991	-52.5
3774.665	-54.5
3777.338	-49.5
3780.008	-51.5
3782.677	-60.5
3785.343	-54.5
3788.007	-58.5
3790.67	-57.5
3793.33	-56.5
3795.989	-57.5
3798.645	-60.5
3801.299	-55.5
3803.952	-55.5
3806.602	-58.5
3809.251	-58.5
3811.897	-57.5
3814.542	-55.5
3817.184	-56.5
3819.825	-51.5
3822.463	-51.5
3825.1	-50.5
3827.735	-58.5
3830.367	-58.5
3832.998	-52.5
3835.627	-59.5
3838.253	-52.5
3840.878	-49.5
3843.501	-50.5
3846.122	-59.5
3848.741	-57.5
3851.358	-54.5
3853.973	-57.5
3856.586	-54.5
3859.197	-56.5
3861.806	-54.5
3864.414	-58.5
3867.019	-54.5
3869.622	-49.5
3872.224	-43.5
3874.823	-36.5
3877.421	-28.5
3880.016	-12.5
3882.61	-1.5
3885.202	-3.5
3887.792	-9.5
3890.38	-25.5
3892.966	-43.5
3895.55	-47.5
3898.132	-55.5
3900.713	-55.5
3903.291	-57.5
3905.868	-59.5
3908.442	-57.5
3911.015	-55.5
3913.586	-63.5
3916.155	-56.5
3918.722	-56.5
3921.287	-58.5
3923.85	-51.5
3926.411	-54.5
3928.971	-63.5
3931.528	-54.5
3934.084	-49.5
3936.638	-54.5
3939.19	-59.5
3941.74	-50.5
3944.288	-54.5
3946.834	-59.5
3949.378	-55.5
3951.921	-56.5
3954.462	-59.5
3957	-49.5
3959.537	-49.5
3962.072	-52.5
3964.606	-55.5
3967.137	-54.5
3969.667	-56.5
3972.194	-53.5
3974.72	-49.5
3977.244	-51.5
3979.766	-56.5
3982.286	-58.5
3984.805	-62.5
3987.321	-52.5
3989.836	-50.5
3992.349	-56.5
3994.86	-57.5
3997.369	-55.5
3999.877	-57.5
4002.382	-60.5
4004.886	-53.5
4007.388	-58.5
4009.888	-56.5
4012.386	-58.5
4014.883	-50.5
4017.377	-51.5
4019.87	-54.5
4022.361	-57.5
4024.85	-51.5
4027.338	-53.5
4029.823	-52.5
4032.307	-60.5
4034.789	-56.5
4037.269	-57.5
4039.747	-52.5
4042.224	-57.5
4044.699	-58.5
4047.172	-59.5
4049.643	-57.5
4052.112	-64.5
4054.58	-57.5
4057.046	-53.5
4059.51	-58.5
4061.972	-61.5
4064.432	-56.5
4066.891	-50.5
4069.348	-53.5
4071.803	-55.5
4074.256	-53.5
4076.708	-54.5
4079.158	-59.5
4081.606	-57.5
4084.052	-56.5
4086.497	-52.5
4088.939	-55.5
4091.38	-60.5
4093.819	-60.5
4096.257	-58.5
4098.693	-55.5
4101.127	-52.5
4103.559	-60.5
4105.989	17.5
4108.418	13.5
4110.845	4.5
4113.27	6.5
4115.694	14.5
4118.115	11.5
4120.535	-48.5
4122.954	-52.5
4125.37	-57.5
4127.785	-53.5
4130.198	-54.5
4132.609	-57.5
4135.019	-57.5
4137.427	-62.5
4139.833	-57.5
4142.237	-55.5
