Data from 2018-3-7_conc=2_n=5_RamanShift_03.txt Node
Date: Wed Mar 07 10:52:22 IST 2018
User: aro
Spectrometer: QEPB0276
Trigger mode: 0
Integration Time (sec): 3.000000E1
Scans to average: 1
Electric dark correction enabled: true
Nonlinearity correction enabled: false
Boxcar width: 0
XAxis mode: Raman Shifts
Number of Pixels in Spectrum: 1044
>>>>>Begin Spectral Data<<<<<
160.701	17.8
166.742	25.8
172.777	43.8
178.805	140.8
184.826	372.8
190.841	766.8
196.849	1255.8
202.85	1629.8
208.845	1803.8
214.833	1780.8
220.815	1760.8
226.789	1767.8
232.758	1784.8
238.719	1782.8
244.674	1778.8
250.623	1764.8
256.565	1751.8
262.5	1748.8
268.429	1723.8
274.351	1726.8
280.267	1700.8
286.176	1702.8
292.079	1715.8
297.975	1702.8
303.865	1714.8
309.748	1713.8
315.625	1712.8
321.495	1720.8
327.359	1723.8
333.217	1708.8
339.068	1748.8
344.912	1738.8
350.751	1742.8
356.583	1751.8
362.408	1756.8
368.227	1748.8
374.04	1766.8
379.847	1783.8
385.647	1779.8
391.44	1788.8
397.228	1801.8
403.009	1814.8
408.784	1840.8
414.553	1821.8
420.315	1829.8
426.071	1840.8
431.821	1856.8
437.565	1831.8
443.302	1845.8
449.033	1813.8
454.758	1804.8
460.477	1803.8
466.189	1803.8
471.896	1763.8
477.596	1758.8
483.29	1743.8
488.978	1757.8
494.66	1735.8
500.335	1691.8
506.005	1629.8
511.668	1560.8
517.325	1466.8
522.977	1431.8
528.622	1390.8
534.261	1354.8
539.894	1317.8
545.521	1311.8
551.141	1306.8
556.756	1293.8
562.365	1289.8
567.968	1258.8
573.565	1270.8
579.155	1250.8
584.74	1251.8
590.319	1230.8
595.892	1230.8
601.459	1241.8
607.02	1238.8
612.575	1212.8
618.124	1208.8
623.667	1182.8
629.204	1174.8
634.735	1170.8
640.261	1153.8
645.781	1153.8
651.294	1160.8
656.802	1127.8
662.304	1132.8
667.8	1133.8
673.29	1132.8
678.775	1117.8
684.254	1115.8
689.726	1110.8
695.193	1108.8
700.655	1106.8
706.11	1088.8
711.56	1090.8
717.004	1076.8
722.442	1074.8
727.874	1079.8
733.301	1074.8
738.722	1061.8
744.137	1049.8
749.547	1058.8
754.951	1048.8
760.349	1055.8
765.741	1064.8
771.128	1051.8
776.509	1068.8
781.885	1094.8
787.254	1089.8
792.618	1107.8
797.977	1088.8
803.33	1098.8
808.677	1092.8
814.019	1075.8
819.355	1057.8
824.686	1055.8
830.011	1053.8
835.33	1045.8
840.644	1053.8
845.952	1022.8
851.255	1025.8
856.552	1032.8
861.844	1014.8
867.13	996.8
872.41	998.8
877.686	1007.8
882.955	1012.8
888.219	981.8
893.478	960.8
898.731	941.8
903.979	934.8
909.221	904.8
914.458	920.8
919.69	915.8
924.916	913.8
930.136	925.8
935.351	899.8
940.561	926.8
945.766	924.8
950.965	921.8
956.158	904.8
961.347	892.8
966.529	883.8
971.707	877.8
976.879	867.8
982.046	857.8
987.208	840.8
992.364	846.8
997.515	853.8
1002.66	861.8
1007.801	881.8
1012.936	880.8
1018.066	884.8
1023.19	880.8
1028.309	884.8
1033.423	867.8
1038.532	875.8
1043.636	864.8
1048.734	864.8
1053.827	855.8
1058.915	858.8
1063.998	849.8
1069.075	824.8
1074.147	828.8
1079.214	840.8
1084.276	847.8
1089.333	846.8
1094.385	849.8
1099.431	825.8
1104.472	831.8
1109.509	810.8
1114.54	806.8
1119.565	814.8
1124.586	810.8
1129.602	779.8
1134.613	788.8
1139.618	754.8
1144.619	764.8
1149.614	776.8
1154.604	784.8
1159.589	776.8
1164.57	771.8
1169.545	777.8
1174.515	785.8
1179.48	788.8
1184.44	775.8
1189.395	759.8
1194.345	758.8
1199.29	744.8
1204.23	747.8
1209.165	749.8
1214.095	756.8
1219.021	775.8
1223.941	753.8
1228.856	768.8
1233.766	764.8
1238.672	776.8
1243.572	773.8
1248.467	771.8
1253.358	752.8
1258.244	740.8
1263.124	731.8
1268	706.8
1272.871	702.8
1277.737	697.8
1282.599	707.8
1287.455	693.8
1292.306	692.8
1297.153	703.8
1301.995	699.8
1306.832	702.8
1311.664	715.8
1316.491	717.8
1321.314	712.8
1326.132	700.8
1330.945	695.8
1335.753	682.8
1340.556	654.8
1345.354	643.8
1350.148	639.8
1354.937	622.8
1359.722	604.8
1364.501	601.8
1369.276	593.8
1374.046	581.8
1378.811	578.8
1383.572	585.8
1388.327	571.8
1393.079	578.8
1397.825	579.8
1402.567	580.8
1407.304	575.8
1412.036	582.8
1416.764	580.8
1421.487	590.8
1426.205	579.8
1430.919	584.8
1435.628	590.8
1440.333	592.8
1445.032	587.8
1449.727	607.8
1454.418	608.8
1459.104	587.8
1463.785	591.8
1468.462	575.8
1473.134	557.8
1477.802	545.8
1482.465	532.8
1487.123	525.8
1491.777	507.8
1496.426	513.8
1501.071	507.8
1505.711	500.8
1510.347	493.8
1514.978	484.8
1519.604	483.8
1524.226	490.8
1528.844	489.8
1533.457	484.8
1538.065	487.8
1542.669	481.8
1547.269	470.8
1551.864	484.8
1556.454	501.8
1561.041	515.8
1565.622	510.8
1570.199	501.8
1574.772	508.8
1579.34	516.8
1583.904	520.8
1588.464	533.8
1593.019	524.8
1597.569	516.8
1602.115	519.8
1606.657	521.8
1611.195	519.8
1615.728	516.8
1620.256	511.8
1624.78	510.8
1629.3	511.8
1633.816	514.8
1638.327	531.8
1642.834	510.8
1647.336	516.8
1651.834	514.8
1656.328	519.8
1660.817	518.8
1665.302	501.8
1669.783	496.8
1674.259	473.8
1678.732	469.8
1683.199	454.8
1687.663	432.8
1692.122	419.8
1696.577	406.8
1701.028	384.8
1705.474	362.8
1709.917	369.8
1714.355	346.8
1718.788	347.8
1723.218	356.8
1727.643	352.8
1732.064	353.8
1736.481	357.8
1740.893	339.8
1745.301	338.8
1749.705	327.8
1754.105	321.8
1758.501	310.8
1762.893	306.8
1767.28	299.8
1771.663	295.8
1776.042	291.8
1780.417	287.8
1784.787	287.8
1789.154	280.8
1793.516	266.8
1797.874	266.8
1802.228	270.8
1806.578	264.8
1810.924	259.8
1815.266	254.8
1819.603	263.8
1823.937	262.8
1828.266	266.8
1832.591	277.8
1836.913	266.8
1841.23	271.8
1845.543	258.8
1849.852	262.8
1854.156	269.8
1858.457	264.8
1862.754	267.8
1867.047	268.8
1871.335	267.8
1875.62	259.8
1879.9	267.8
1884.177	255.8
1888.449	256.8
1892.718	256.8
1896.982	241.8
1901.243	234.8
1905.499	240.8
1909.752	230.8
1914	228.8
1918.245	225.8
1922.485	216.8
1926.722	220.8
1930.954	213.8
1935.183	218.8
1939.408	224.8
1943.628	214.8
1947.845	218.8
1952.058	220.8
1956.267	211.8
1960.472	212.8
1964.673	196.8
1968.87	202.8
1973.063	204.8
1977.252	203.8
1981.438	201.8
1985.619	203.8
1989.797	210.8
1993.971	208.8
1998.14	208.8
2002.306	204.8
2006.469	208.8
2010.627	200.8
2014.781	205.8
2018.932	204.8
2023.078	200.8
2027.221	198.8
2031.36	196.8
2035.495	192.8
2039.627	191.8
2043.754	194.8
2047.878	188.8
2051.998	202.8
2056.114	189.8
2060.226	182.8
2064.334	183.8
2068.439	183.8
2072.54	180.8
2076.637	179.8
2080.73	180.8
2084.82	182.8
2088.906	172.8
2092.988	178.8
2097.066	172.8
2101.14	171.8
2105.211	171.8
2109.278	167.8
2113.342	161.8
2117.401	161.8
2121.457	161.8
2125.509	160.8
2129.558	152.8
2133.602	153.8
2137.643	160.8
2141.681	155.8
2145.714	153.8
2149.744	155.8
2153.77	157.8
2157.793	158.8
2161.812	166.8
2165.827	157.8
2169.838	149.8
2173.846	149.8
2177.851	142.8
2181.851	146.8
2185.848	153.8
2189.841	139.8
2193.831	144.8
2197.817	146.8
2201.799	136.8
2205.778	141.8
2209.753	145.8
2213.725	144.8
2217.693	139.8
2221.657	142.8
2225.618	130.8
2229.575	131.8
2233.529	129.8
2237.479	133.8
2241.425	135.8
2245.368	135.8
2249.307	126.8
2253.243	125.8
2257.175	131.8
2261.104	121.8
2265.029	124.8
2268.95	123.8
2272.868	123.8
2276.783	114.8
2280.694	109.8
2284.601	112.8
2288.505	113.8
2292.405	116.8
2296.302	112.8
2300.195	109.8
2304.085	111.8
2307.971	110.8
2311.854	105.8
2315.734	100.8
2319.609	111.8
2323.482	106.8
2327.351	104.8
2331.216	116.8
2335.078	126.8
2338.937	115.8
2342.792	101.8
2346.643	108.8
2350.492	107.8
2354.336	106.8
2358.178	99.8
2362.015	102.8
2365.85	102.8
2369.681	109.8
2373.508	105.8
2377.333	105.8
2381.153	100.8
2384.971	97.8
2388.785	108.8
2392.595	98.8
2396.402	107.8
2400.206	101.8
2404.007	102.8
2407.804	99.8
2411.597	90.8
2415.388	96.8
2419.174	102.8
2422.958	93.8
2426.738	99.8
2430.515	101.8
2434.289	96.8
2438.059	87.8
2441.825	88.8
2445.589	91.8
2449.349	84.8
2453.106	87.8
2456.859	85.8
2460.61	79.8
2464.356	85.8
2468.1	84.8
2471.84	81.8
2475.577	79.8
2479.311	81.8
2483.041	82.8
2486.768	76.8
2490.492	76.8
2494.213	75.8
2497.93	79.8
2501.644	82.8
2505.355	71.8
2509.062	60.8
2512.766	73.8
2516.467	59.8
2520.165	73.8
2523.859	69.8
2527.551	66.8
2531.239	64.8
2534.923	61.8
2538.605	61.8
2542.283	56.8
2545.958	61.8
2549.63	63.8
2553.299	62.8
2556.964	53.8
2560.626	58.8
2564.285	59.8
2567.941	58.8
2571.594	60.8
2575.243	55.8
2578.89	60.8
2582.533	52.8
2586.173	56.8
2589.809	56.8
2593.443	55.8
2597.073	47.8
2600.701	48.8
2604.325	50.8
2607.946	43.8
2611.564	52.8
2615.178	48.8
2618.79	54.8
2622.398	45.8
2626.004	41.8
2629.606	48.8
2633.205	40.8
2636.801	40.8
2640.394	48.8
2643.983	42.8
2647.57	38.8
2651.153	41.8
2654.734	40.8
2658.311	44.8
2661.885	43.8
2665.456	49.8
2669.025	41.8
2672.589	38.8
2676.151	40.8
2679.71	31.8
2683.266	31.8
2686.819	40.8
2690.368	29.8
2693.915	43.8
2697.458	28.8
2700.999	37.8
2704.536	40.8
2708.071	36.8
2711.602	26.8
2715.13	26.8
2718.656	32.8
2722.178	23.8
2725.697	28.8
2729.214	23.8
2732.727	36.8
2736.237	32.8
2739.744	25.8
2743.249	32.8
2746.75	25.8
2750.248	24.8
2753.743	21.8
2757.236	18.8
2760.725	22.8
2764.211	21.8
2767.695	11.8
2771.175	18.8
2774.652	23.8
2778.127	18.8
2781.598	14.8
2785.067	23.8
2788.532	20.8
2791.995	19.8
2795.455	15.8
2798.911	15.8
2802.365	21.8
2805.816	11.8
2809.264	19.8
2812.709	18.8
2816.151	21.8
2819.59	30.8
2823.026	22.8
2826.46	18.8
2829.89	17.8
2833.318	22.8
2836.742	22.8
2840.164	15.8
2843.583	17.8
2846.999	22.8
2850.412	18.8
2853.822	19.8
2857.229	28.8
2860.634	22.8
2864.035	20.8
2867.434	25.8
2870.83	28.8
2874.223	26.8
2877.613	27.8
2881	30.8
2884.385	34.8
2887.766	31.8
2891.145	26.8
2894.521	32.8
2897.894	29.8
2901.264	30.8
2904.631	26.8
2907.996	33.8
2911.358	41.8
2914.717	28.8
2918.073	27.8
2921.426	32.8
2924.777	34.8
2928.124	37.8
2931.469	39.8
2934.811	53.8
2938.15	52.8
2941.487	52.8
2944.821	41.8
2948.152	48.8
2951.48	42.8
2954.805	44.8
2958.128	40.8
2961.447	50.8
2964.765	34.8
2968.079	34.8
2971.39	38.8
2974.699	32.8
2978.005	43.8
2981.308	40.8
2984.609	39.8
2987.907	36.8
2991.202	47.8
2994.494	37.8
2997.784	36.8
3001.07	39.8
3004.355	38.8
3007.636	42.8
3010.915	49.8
3014.191	42.8
3017.464	45.8
3020.734	41.8
3024.002	55.8
3027.267	52.8
3030.53	52.8
3033.789	46.8
3037.046	48.8
3040.301	45.8
3043.552	57.8
3046.801	51.8
3050.048	53.8
3053.291	54.8
3056.532	55.8
3059.771	57.8
3063.006	65.8
3066.239	65.8
3069.469	78.8
3072.697	76.8
3075.922	80.8
3079.144	80.8
3082.364	80.8
3085.581	85.8
3088.795	87.8
3092.007	87.8
3095.216	86.8
3098.423	90.8
3101.627	96.8
3104.828	89.8
3108.026	100.8
3111.222	99.8
3114.416	102.8
3117.607	108.8
3120.795	108.8
3123.98	113.8
3127.163	123.8
3130.344	114.8
3133.521	113.8
3136.696	121.8
3139.869	122.8
3143.039	135.8
3146.206	133.8
3149.371	123.8
3152.533	138.8
3155.693	136.8
3158.85	133.8
3162.005	138.8
3165.157	132.8
3168.306	135.8
3171.453	136.8
3174.597	131.8
3177.739	143.8
3180.878	142.8
3184.014	132.8
3187.149	137.8
3190.28	145.8
3193.409	142.8
3196.536	134.8
3199.659	146.8
3202.781	143.8
3205.9	137.8
3209.016	139.8
3212.13	136.8
3215.241	134.8
3218.35	130.8
3221.456	136.8
3224.56	133.8
3227.661	130.8
3230.76	125.8
3233.856	132.8
3236.95	125.8
3240.041	118.8
3243.13	119.8
3246.216	111.8
3249.3	111.8
3252.382	111.8
3255.46	117.8
3258.537	114.8
3261.611	110.8
3264.682	110.8
3267.751	118.8
3270.818	102.8
3273.882	106.8
3276.943	102.8
3280.002	101.8
3283.059	106.8
3286.113	98.8
3289.165	101.8
3292.214	104.8
3295.261	99.8
3298.306	96.8
3301.348	101.8
3304.387	93.8
3307.425	94.8
3310.459	92.8
3313.492	99.8
3316.521	91.8
3319.549	95.8
3322.574	93.8
3325.597	83.8
3328.617	91.8
3331.635	96.8
3334.65	95.8
3337.663	79.8
3340.674	84.8
3343.682	94.8
3346.688	89.8
3349.691	93.8
3352.692	97.8
3355.691	94.8
3358.687	88.8
3361.681	82.8
3364.673	87.8
3367.662	82.8
3370.649	86.8
3373.633	76.8
3376.615	77.8
3379.595	76.8
3382.572	74.8
3385.547	77.8
3388.52	70.8
3391.49	76.8
3394.458	70.8
3397.424	71.8
3400.387	67.8
3403.348	62.8
3406.307	57.8
3409.263	66.8
3412.217	60.8
3415.168	62.8
3418.118	56.8
3421.065	50.8
3424.009	59.8
3426.951	55.8
3429.891	58.8
3432.829	48.8
3435.764	51.8
3438.697	50.8
3441.628	37.8
3444.557	41.8
3447.483	42.8
3450.407	32.8
3453.328	38.8
3456.247	31.8
3459.164	32.8
3462.079	27.8
3464.991	29.8
3467.902	25.8
3470.809	22.8
3473.715	22.8
3476.618	18.8
3479.519	14.8
3482.418	11.8
3485.315	7.8
3488.209	4.8
3491.101	2.8
3493.99	10.8
3496.878	3.8
3499.763	0.8
3502.646	1.8
3505.527	4.8
3508.405	1.8
3511.281	-1.2
3514.155	-3.2
3517.027	-10.2
3519.897	-4.2
3522.764	-10.2
3525.629	-11.2
3528.492	-9.2
3531.352	-18.2
3534.211	-15.2
3537.067	-12.2
3539.921	-10.2
3542.773	-22.2
3545.622	-23.2
3548.469	-19.2
3551.315	-19.2
3554.157	-24.2
3556.998	-25.2
3559.837	-27.2
3562.673	-23.2
3565.507	-23.2
3568.339	-18.2
3571.169	-30.2
3573.996	-22.2
3576.822	-34.2
3579.645	-29.2
3582.466	-28.2
3585.285	-29.2
3588.101	-33.2
3590.916	-32.2
3593.728	-36.2
3596.538	-32.2
3599.346	-28.2
3602.152	-34.2
3604.956	-24.2
3607.757	-33.2
3610.556	-32.2
3613.354	-41.2
3616.149	-44.2
3618.942	-39.2
3621.732	-36.2
3624.521	-38.2
3627.307	-38.2
3630.092	-34.2
3632.874	-40.2
3635.654	-37.2
3638.432	-37.2
3641.208	-42.2
3643.982	-39.2
3646.753	-46.2
3649.523	-42.2
3652.29	-46.2
3655.055	-39.2
3657.818	-47.2
3660.579	-43.2
3663.338	-40.2
3666.095	-41.2
3668.849	-42.2
3671.602	-46.2
3674.352	-35.2
3677.101	-41.2
3679.847	-43.2
3682.591	-48.2
3685.333	-44.2
3688.073	-50.2
3690.811	-47.2
3693.547	-49.2
3696.281	-39.2
3699.013	-43.2
3701.742	-47.2
3704.47	-40.2
3707.195	-51.2
3709.919	-51.2
3712.64	-50.2
3715.359	-49.2
3718.076	-54.2
3720.792	-54.2
3723.505	-52.2
3726.216	-42.2
3728.925	-46.2
3731.632	-44.2
3734.336	-51.2
3737.039	-44.2
3739.74	-50.2
3742.439	-52.2
3745.136	-51.2
3747.83	-51.2
3750.523	-56.2
3753.213	-59.2
3755.902	-52.2
3758.589	-44.2
3761.273	-49.2
3763.956	-50.2
3766.636	-49.2
3769.315	-43.2
3771.991	-48.2
3774.665	-52.2
3777.338	-49.2
3780.008	-54.2
3782.677	-57.2
3785.343	-54.2
3788.007	-53.2
3790.67	-50.2
3793.33	-49.2
3795.989	-51.2
3798.645	-53.2
3801.299	-49.2
3803.952	-55.2
3806.602	-56.2
3809.251	-54.2
3811.897	-59.2
3814.542	-55.2
3817.184	-54.2
3819.825	-50.2
3822.463	-51.2
3825.1	-48.2
3827.735	-52.2
3830.367	-49.2
3832.998	-52.2
3835.627	-52.2
3838.253	-48.2
3840.878	-48.2
3843.501	-50.2
3846.122	-52.2
3848.741	-52.2
3851.358	-56.2
3853.973	-50.2
3856.586	-47.2
3859.197	-49.2
3861.806	-53.2
3864.414	-54.2
3867.019	-51.2
3869.622	-44.2
3872.224	-39.2
3874.823	-30.2
3877.421	-26.2
3880.016	-21.2
3882.61	1.8
3885.202	7.8
3887.792	-2.2
3890.38	-23.2
3892.966	-39.2
3895.55	-44.2
3898.132	-51.2
3900.713	-52.2
3903.291	-56.2
3905.868	-47.2
3908.442	-54.2
3911.015	-49.2
3913.586	-61.2
3916.155	-52.2
3918.722	-55.2
3921.287	-58.2
3923.85	-47.2
3926.411	-54.2
3928.971	-55.2
3931.528	-54.2
3934.084	-51.2
3936.638	-49.2
3939.19	-56.2
3941.74	-56.2
3944.288	-51.2
3946.834	-50.2
3949.378	-50.2
3951.921	-55.2
3954.462	-47.2
3957	-46.2
3959.537	-38.2
3962.072	-49.2
3964.606	-49.2
3967.137	-52.2
3969.667	-55.2
3972.194	-50.2
3974.72	-50.2
3977.244	-48.2
3979.766	-50.2
3982.286	-52.2
3984.805	-59.2
3987.321	-51.2
3989.836	-46.2
3992.349	-51.2
3994.86	-59.2
3997.369	-54.2
3999.877	-50.2
4002.382	-50.2
4004.886	-46.2
4007.388	-52.2
4009.888	-50.2
4012.386	-52.2
4014.883	-47.2
4017.377	-45.2
4019.87	-47.2
4022.361	-57.2
4024.85	-52.2
4027.338	-56.2
4029.823	-59.2
4032.307	-54.2
4034.789	-48.2
4037.269	-53.2
4039.747	-51.2
4042.224	-52.2
4044.699	-50.2
4047.172	-52.2
4049.643	-52.2
4052.112	-51.2
4054.58	-57.2
4057.046	-51.2
4059.51	-59.2
4061.972	-52.2
4064.432	-53.2
4066.891	-48.2
4069.348	-47.2
4071.803	-46.2
4074.256	-50.2
4076.708	-48.2
4079.158	-53.2
4081.606	-53.2
4084.052	-52.2
4086.497	-50.2
4088.939	-48.2
4091.38	-52.2
4093.819	-52.2
4096.257	-56.2
4098.693	-52.2
4101.127	-49.2
4103.559	-59.2
4105.989	26.8
4108.418	20.8
4110.845	13.8
4113.27	17.8
4115.694	19.8
4118.115	20.8
4120.535	-51.2
4122.954	-46.2
4125.37	-53.2
4127.785	-47.2
4130.198	-49.2
4132.609	-54.2
4135.019	-55.2
4137.427	-61.2
4139.833	-55.2
4142.237	-56.2
