Data from 2018-3-7_conc=5_n=2_RamanShift_04.txt Node
Date: Wed Mar 07 12:27:22 IST 2018
User: aro
Spectrometer: QEPB0276
Trigger mode: 0
Integration Time (sec): 3.000000E1
Scans to average: 1
Electric dark correction enabled: true
Nonlinearity correction enabled: false
Boxcar width: 0
XAxis mode: Raman Shifts
Number of Pixels in Spectrum: 1044
>>>>>Begin Spectral Data<<<<<
160.701	9.9
166.742	16.9
172.777	49.9
178.805	155.9
184.826	407.9
190.841	888.9
196.849	1459.9
202.85	1920.9
208.845	2109.9
214.833	2123.9
220.815	2048.9
226.789	2054.9
232.758	2078.9
238.719	2069.9
244.674	2049.9
250.623	2019.9
256.565	1995.9
262.5	1965.9
268.429	1952.9
274.351	1932.9
280.267	1907.9
286.176	1897.9
292.079	1897.9
297.975	1891.9
303.865	1884.9
309.748	1878.9
315.625	1873.9
321.495	1890.9
327.359	1886.9
333.217	1883.9
339.068	1890.9
344.912	1880.9
350.751	1862.9
356.583	1883.9
362.408	1889.9
368.227	1900.9
374.04	1891.9
379.847	1907.9
385.647	1909.9
391.44	1923.9
397.228	1932.9
403.009	1932.9
408.784	1935.9
414.553	1952.9
420.315	1963.9
426.071	1955.9
431.821	1963.9
437.565	1951.9
443.302	1959.9
449.033	1941.9
454.758	1937.9
460.477	1911.9
466.189	1922.9
471.896	1888.9
477.596	1884.9
483.29	1878.9
488.978	1891.9
494.66	1873.9
500.335	1840.9
506.005	1790.9
511.668	1735.9
517.325	1686.9
522.977	1625.9
528.622	1603.9
534.261	1564.9
539.894	1562.9
545.521	1539.9
551.141	1542.9
556.756	1511.9
562.365	1511.9
567.968	1505.9
573.565	1461.9
579.155	1480.9
584.74	1455.9
590.319	1468.9
595.892	1468.9
601.459	1457.9
607.02	1455.9
612.575	1453.9
618.124	1434.9
623.667	1413.9
629.204	1405.9
634.735	1390.9
640.261	1373.9
645.781	1372.9
651.294	1360.9
656.802	1365.9
662.304	1358.9
667.8	1358.9
673.29	1371.9
678.775	1351.9
684.254	1355.9
689.726	1326.9
695.193	1337.9
700.655	1326.9
706.11	1321.9
711.56	1300.9
717.004	1295.9
722.442	1296.9
727.874	1293.9
733.301	1295.9
738.722	1290.9
744.137	1279.9
749.547	1290.9
754.951	1267.9
760.349	1291.9
765.741	1274.9
771.128	1278.9
776.509	1300.9
781.885	1304.9
787.254	1306.9
792.618	1302.9
797.977	1302.9
803.33	1280.9
808.677	1265.9
814.019	1283.9
819.355	1249.9
824.686	1240.9
830.011	1264.9
835.33	1236.9
840.644	1247.9
845.952	1240.9
851.255	1235.9
856.552	1247.9
861.844	1232.9
867.13	1211.9
872.41	1227.9
877.686	1200.9
882.955	1182.9
888.219	1174.9
893.478	1167.9
898.731	1143.9
903.979	1144.9
909.221	1127.9
914.458	1120.9
919.69	1122.9
924.916	1117.9
930.136	1121.9
935.351	1140.9
940.561	1134.9
945.766	1144.9
950.965	1139.9
956.158	1114.9
961.347	1112.9
966.529	1087.9
971.707	1086.9
976.879	1055.9
982.046	1053.9
987.208	1064.9
992.364	1045.9
997.515	1041.9
1002.66	1058.9
1007.801	1075.9
1012.936	1065.9
1018.066	1081.9
1023.19	1090.9
1028.309	1083.9
1033.423	1085.9
1038.532	1062.9
1043.636	1068.9
1048.734	1061.9
1053.827	1023.9
1058.915	1029.9
1063.998	1013.9
1069.075	1002.9
1074.147	1019.9
1079.214	1012.9
1084.276	1027.9
1089.333	1030.9
1094.385	1038.9
1099.431	1020.9
1104.472	1024.9
1109.509	1013.9
1114.54	996.9
1119.565	991.9
1124.586	985.9
1129.602	969.9
1134.613	963.9
1139.618	946.9
1144.619	948.9
1149.614	966.9
1154.604	950.9
1159.589	942.9
1164.57	956.9
1169.545	954.9
1174.515	958.9
1179.48	956.9
1184.44	945.9
1189.395	937.9
1194.345	936.9
1199.29	927.9
1204.23	926.9
1209.165	929.9
1214.095	937.9
1219.021	941.9
1223.941	939.9
1228.856	956.9
1233.766	955.9
1238.672	942.9
1243.572	952.9
1248.467	950.9
1253.358	932.9
1258.244	920.9
1263.124	894.9
1268	892.9
1272.871	884.9
1277.737	872.9
1282.599	872.9
1287.455	864.9
1292.306	863.9
1297.153	879.9
1301.995	898.9
1306.832	887.9
1311.664	885.9
1316.491	902.9
1321.314	888.9
1326.132	883.9
1330.945	867.9
1335.753	845.9
1340.556	838.9
1345.354	814.9
1350.148	806.9
1354.937	783.9
1359.722	766.9
1364.501	751.9
1369.276	748.9
1374.046	731.9
1378.811	721.9
1383.572	715.9
1388.327	715.9
1393.079	708.9
1397.825	730.9
1402.567	718.9
1407.304	727.9
1412.036	741.9
1416.764	722.9
1421.487	735.9
1426.205	720.9
1430.919	732.9
1435.628	738.9
1440.333	763.9
1445.032	757.9
1449.727	765.9
1454.418	761.9
1459.104	755.9
1463.785	745.9
1468.462	724.9
1473.134	727.9
1477.802	700.9
1482.465	662.9
1487.123	666.9
1491.777	640.9
1496.426	648.9
1501.071	638.9
1505.711	617.9
1510.347	621.9
1514.978	595.9
1519.604	605.9
1524.226	612.9
1528.844	595.9
1533.457	594.9
1538.065	608.9
1542.669	598.9
1547.269	599.9
1551.864	613.9
1556.454	618.9
1561.041	623.9
1565.622	642.9
1570.199	633.9
1574.772	638.9
1579.34	645.9
1583.904	650.9
1588.464	672.9
1593.019	674.9
1597.569	656.9
1602.115	669.9
1606.657	668.9
1611.195	655.9
1615.728	661.9
1620.256	660.9
1624.78	660.9
1629.3	659.9
1633.816	662.9
1638.327	670.9
1642.834	658.9
1647.336	657.9
1651.834	663.9
1656.328	659.9
1660.817	658.9
1665.302	654.9
1669.783	640.9
1674.259	614.9
1678.732	618.9
1683.199	572.9
1687.663	547.9
1692.122	532.9
1696.577	508.9
1701.028	491.9
1705.474	453.9
1709.917	440.9
1714.355	440.9
1718.788	427.9
1723.218	430.9
1727.643	435.9
1732.064	440.9
1736.481	438.9
1740.893	429.9
1745.301	419.9
1749.705	415.9
1754.105	399.9
1758.501	381.9
1762.893	386.9
1767.28	367.9
1771.663	365.9
1776.042	355.9
1780.417	349.9
1784.787	345.9
1789.154	343.9
1793.516	331.9
1797.874	327.9
1802.228	328.9
1806.578	325.9
1810.924	313.9
1815.266	314.9
1819.603	316.9
1823.937	328.9
1828.266	325.9
1832.591	330.9
1836.913	322.9
1841.23	327.9
1845.543	325.9
1849.852	336.9
1854.156	330.9
1858.457	333.9
1862.754	343.9
1867.047	322.9
1871.335	331.9
1875.62	331.9
1879.9	324.9
1884.177	320.9
1888.449	322.9
1892.718	320.9
1896.982	311.9
1901.243	304.9
1905.499	299.9
1909.752	296.9
1914	290.9
1918.245	286.9
1922.485	277.9
1926.722	262.9
1930.954	259.9
1935.183	267.9
1939.408	261.9
1943.628	259.9
1947.845	253.9
1952.058	258.9
1956.267	248.9
1960.472	256.9
1964.673	239.9
1968.87	245.9
1973.063	240.9
1977.252	243.9
1981.438	251.9
1985.619	247.9
1989.797	246.9
1993.971	250.9
1998.14	251.9
2002.306	262.9
2006.469	259.9
2010.627	257.9
2014.781	265.9
2018.932	257.9
2023.078	255.9
2027.221	248.9
2031.36	252.9
2035.495	246.9
2039.627	246.9
2043.754	238.9
2047.878	230.9
2051.998	237.9
2056.114	227.9
2060.226	230.9
2064.334	226.9
2068.439	221.9
2072.54	219.9
2076.637	228.9
2080.73	226.9
2084.82	221.9
2088.906	221.9
2092.988	209.9
2097.066	215.9
2101.14	206.9
2105.211	211.9
2109.278	198.9
2113.342	195.9
2117.401	192.9
2121.457	197.9
2125.509	193.9
2129.558	197.9
2133.602	185.9
2137.643	192.9
2141.681	192.9
2145.714	193.9
2149.744	202.9
2153.77	202.9
2157.793	201.9
2161.812	208.9
2165.827	206.9
2169.838	198.9
2173.846	192.9
2177.851	189.9
2181.851	191.9
2185.848	185.9
2189.841	182.9
2193.831	187.9
2197.817	183.9
2201.799	184.9
2205.778	181.9
2209.753	183.9
2213.725	187.9
2217.693	182.9
2221.657	172.9
2225.618	181.9
2229.575	182.9
2233.529	175.9
2237.479	173.9
2241.425	171.9
2245.368	175.9
2249.307	175.9
2253.243	167.9
2257.175	166.9
2261.104	151.9
2265.029	160.9
2268.95	167.9
2272.868	161.9
2276.783	155.9
2280.694	152.9
2284.601	149.9
2288.505	157.9
2292.405	151.9
2296.302	157.9
2300.195	142.9
2304.085	140.9
2307.971	144.9
2311.854	140.9
2315.734	131.9
2319.609	140.9
2323.482	141.9
2327.351	153.9
2331.216	145.9
2335.078	160.9
2338.937	145.9
2342.792	143.9
2346.643	147.9
2350.492	140.9
2354.336	144.9
2358.178	139.9
2362.015	138.9
2365.85	134.9
2369.681	144.9
2373.508	140.9
2377.333	144.9
2381.153	137.9
2384.971	131.9
2388.785	138.9
2392.595	138.9
2396.402	141.9
2400.206	140.9
2404.007	140.9
2407.804	143.9
2411.597	140.9
2415.388	137.9
2419.174	146.9
2422.958	140.9
2426.738	141.9
2430.515	132.9
2434.289	133.9
2438.059	127.9
2441.825	134.9
2445.589	123.9
2449.349	125.9
2453.106	129.9
2456.859	125.9
2460.61	127.9
2464.356	120.9
2468.1	115.9
2471.84	123.9
2475.577	115.9
2479.311	114.9
2483.041	114.9
2486.768	118.9
2490.492	110.9
2494.213	113.9
2497.93	110.9
2501.644	112.9
2505.355	104.9
2509.062	105.9
2512.766	104.9
2516.467	105.9
2520.165	100.9
2523.859	108.9
2527.551	103.9
2531.239	96.9
2534.923	92.9
2538.605	85.9
2542.283	85.9
2545.958	100.9
2549.63	94.9
2553.299	95.9
2556.964	88.9
2560.626	83.9
2564.285	89.9
2567.941	82.9
2571.594	86.9
2575.243	82.9
2578.89	87.9
2582.533	76.9
2586.173	81.9
2589.809	86.9
2593.443	84.9
2597.073	79.9
2600.701	81.9
2604.325	66.9
2607.946	68.9
2611.564	76.9
2615.178	75.9
2618.79	71.9
2622.398	84.9
2626.004	69.9
2629.606	63.9
2633.205	74.9
2636.801	65.9
2640.394	72.9
2643.983	65.9
2647.57	72.9
2651.153	68.9
2654.734	70.9
2658.311	65.9
2661.885	69.9
2665.456	66.9
2669.025	66.9
2672.589	64.9
2676.151	66.9
2679.71	57.9
2683.266	57.9
2686.819	65.9
2690.368	56.9
2693.915	57.9
2697.458	56.9
2700.999	55.9
2704.536	63.9
2708.071	58.9
2711.602	52.9
2715.13	47.9
2718.656	48.9
2722.178	51.9
2725.697	44.9
2729.214	46.9
2732.727	60.9
2736.237	49.9
2739.744	41.9
2743.249	48.9
2746.75	44.9
2750.248	40.9
2753.743	38.9
2757.236	33.9
2760.725	32.9
2764.211	27.9
2767.695	26.9
2771.175	28.9
2774.652	29.9
2778.127	32.9
2781.598	30.9
2785.067	32.9
2788.532	29.9
2791.995	35.9
2795.455	33.9
2798.911	37.9
2802.365	44.9
2805.816	33.9
2809.264	35.9
2812.709	32.9
2816.151	36.9
2819.59	43.9
2823.026	40.9
2826.46	36.9
2829.89	32.9
2833.318	31.9
2836.742	38.9
2840.164	35.9
2843.583	32.9
2846.999	42.9
2850.412	37.9
2853.822	43.9
2857.229	44.9
2860.634	36.9
2864.035	40.9
2867.434	42.9
2870.83	46.9
2874.223	43.9
2877.613	47.9
2881	48.9
2884.385	53.9
2887.766	54.9
2891.145	49.9
2894.521	51.9
2897.894	51.9
2901.264	46.9
2904.631	44.9
2907.996	55.9
2911.358	62.9
2914.717	49.9
2918.073	58.9
2921.426	57.9
2924.777	59.9
2928.124	62.9
2931.469	68.9
2934.811	70.9
2938.15	68.9
2941.487	71.9
2944.821	69.9
2948.152	78.9
2951.48	67.9
2954.805	63.9
2958.128	67.9
2961.447	68.9
2964.765	55.9
2968.079	57.9
2971.39	64.9
2974.699	60.9
2978.005	65.9
2981.308	60.9
2984.609	61.9
2987.907	68.9
2991.202	63.9
2994.494	64.9
2997.784	62.9
3001.07	69.9
3004.355	64.9
3007.636	73.9
3010.915	66.9
3014.191	68.9
3017.464	69.9
3020.734	74.9
3024.002	76.9
3027.267	74.9
3030.53	73.9
3033.789	75.9
3037.046	75.9
3040.301	76.9
3043.552	83.9
3046.801	83.9
3050.048	84.9
3053.291	93.9
3056.532	99.9
3059.771	98.9
3063.006	104.9
3066.239	109.9
3069.469	119.9
3072.697	113.9
3075.922	117.9
3079.144	119.9
3082.364	122.9
3085.581	127.9
3088.795	126.9
3092.007	138.9
3095.216	137.9
3098.423	140.9
3101.627	135.9
3104.828	156.9
3108.026	153.9
3111.222	151.9
3114.416	163.9
3117.607	159.9
3120.795	165.9
3123.98	170.9
3127.163	184.9
3130.344	177.9
3133.521	181.9
3136.696	182.9
3139.869	189.9
3143.039	182.9
3146.206	187.9
3149.371	193.9
3152.533	205.9
3155.693	200.9
3158.85	202.9
3162.005	206.9
3165.157	197.9
3168.306	198.9
3171.453	204.9
3174.597	202.9
3177.739	199.9
3180.878	214.9
3184.014	203.9
3187.149	202.9
3190.28	212.9
3193.409	214.9
3196.536	207.9
3199.659	212.9
3202.781	218.9
3205.9	207.9
3209.016	201.9
3212.13	211.9
3215.241	199.9
3218.35	205.9
3221.456	201.9
3224.56	201.9
3227.661	200.9
3230.76	189.9
3233.856	198.9
3236.95	184.9
3240.041	189.9
3243.13	193.9
3246.216	172.9
3249.3	162.9
3252.382	177.9
3255.46	166.9
3258.537	173.9
3261.611	162.9
3264.682	161.9
3267.751	159.9
3270.818	153.9
3273.882	159.9
3276.943	155.9
3280.002	160.9
3283.059	156.9
3286.113	154.9
3289.165	145.9
3292.214	161.9
3295.261	156.9
3298.306	145.9
3301.348	145.9
3304.387	159.9
3307.425	148.9
3310.459	146.9
3313.492	142.9
3316.521	146.9
3319.549	149.9
3322.574	142.9
3325.597	140.9
3328.617	140.9
3331.635	150.9
3334.65	153.9
3337.663	130.9
3340.674	144.9
3343.682	142.9
3346.688	141.9
3349.691	140.9
3352.692	145.9
3355.691	146.9
3358.687	142.9
3361.681	147.9
3364.673	138.9
3367.662	142.9
3370.649	136.9
3373.633	131.9
3376.615	127.9
3379.595	126.9
3382.572	121.9
3385.547	121.9
3388.52	123.9
3391.49	123.9
3394.458	107.9
3397.424	115.9
3400.387	113.9
3403.348	109.9
3406.307	103.9
3409.263	102.9
3412.217	108.9
3415.168	110.9
3418.118	107.9
3421.065	103.9
3424.009	104.9
3426.951	92.9
3429.891	100.9
3432.829	101.9
3435.764	97.9
3438.697	90.9
3441.628	82.9
3444.557	82.9
3447.483	86.9
3450.407	67.9
3453.328	73.9
3456.247	67.9
3459.164	61.9
3462.079	53.9
3464.991	55.9
3467.902	54.9
3470.809	56.9
3473.715	49.9
3476.618	50.9
3479.519	42.9
3482.418	40.9
3485.315	36.9
3488.209	33.9
3491.101	25.9
3493.99	36.9
3496.878	21.9
3499.763	17.9
3502.646	26.9
3505.527	23.9
3508.405	20.9
3511.281	17.9
3514.155	7.9
3517.027	8.9
3519.897	8.9
3522.764	8.9
3525.629	-0.1
3528.492	-1.1
3531.352	2.9
3534.211	-0.1
3537.067	-5.1
3539.921	-2.1
3542.773	-9.1
3545.622	-2.1
3548.469	-9.1
3551.315	-7.1
3554.157	-14.1
3556.998	-8.1
3559.837	-15.1
3562.673	-15.1
3565.507	-14.1
3568.339	-15.1
3571.169	-25.1
3573.996	-18.1
3576.822	-27.1
3579.645	-26.1
3582.466	-25.1
3585.285	-25.1
3588.101	-30.1
3590.916	-23.1
3593.728	-26.1
3596.538	-32.1
3599.346	-31.1
3602.152	-28.1
3604.956	-28.1
3607.757	-20.1
3610.556	-31.1
3613.354	-36.1
3616.149	-31.1
3618.942	-33.1
3621.732	-35.1
3624.521	-31.1
3627.307	-36.1
3630.092	-36.1
3632.874	-35.1
3635.654	-39.1
3638.432	-40.1
3641.208	-36.1
3643.982	-38.1
3646.753	-41.1
3649.523	-34.1
3652.29	-39.1
3655.055	-35.1
3657.818	-38.1
3660.579	-45.1
3663.338	-37.1
3666.095	-40.1
3668.849	-42.1
3671.602	-37.1
3674.352	-43.1
3677.101	-43.1
3679.847	-42.1
3682.591	-48.1
3685.333	-45.1
3688.073	-55.1
3690.811	-48.1
3693.547	-52.1
3696.281	-44.1
3699.013	-46.1
3701.742	-50.1
3704.47	-41.1
3707.195	-45.1
3709.919	-50.1
3712.64	-47.1
3715.359	-45.1
3718.076	-51.1
3720.792	-45.1
3723.505	-42.1
3726.216	-44.1
3728.925	-51.1
3731.632	-48.1
3734.336	-49.1
3737.039	-44.1
3739.74	-54.1
3742.439	-55.1
3745.136	-48.1
3747.83	-49.1
3750.523	-53.1
3753.213	-56.1
3755.902	-57.1
3758.589	-55.1
3761.273	-52.1
3763.956	-59.1
3766.636	-46.1
3769.315	-40.1
3771.991	-49.1
3774.665	-55.1
3777.338	-53.1
3780.008	-49.1
3782.677	-53.1
3785.343	-48.1
3788.007	-51.1
3790.67	-49.1
3793.33	-53.1
3795.989	-51.1
3798.645	-54.1
3801.299	-52.1
3803.952	-51.1
3806.602	-56.1
3809.251	-59.1
3811.897	-56.1
3814.542	-63.1
3817.184	-53.1
3819.825	-52.1
3822.463	-48.1
3825.1	-46.1
3827.735	-58.1
3830.367	-53.1
3832.998	-55.1
3835.627	-53.1
3838.253	-48.1
3840.878	-52.1
3843.501	-50.1
3846.122	-55.1
3848.741	-54.1
3851.358	-52.1
3853.973	-51.1
3856.586	-47.1
3859.197	-50.1
3861.806	-56.1
3864.414	-58.1
3867.019	-58.1
3869.622	-52.1
3872.224	-42.1
3874.823	-37.1
3877.421	-33.1
3880.016	-17.1
3882.61	-7.1
3885.202	-6.1
3887.792	-8.1
3890.38	-29.1
3892.966	-38.1
3895.55	-47.1
3898.132	-50.1
3900.713	-53.1
3903.291	-53.1
3905.868	-53.1
3908.442	-50.1
3911.015	-53.1
3913.586	-62.1
3916.155	-53.1
3918.722	-57.1
3921.287	-55.1
3923.85	-49.1
3926.411	-58.1
3928.971	-65.1
3931.528	-60.1
3934.084	-53.1
3936.638	-51.1
3939.19	-55.1
3941.74	-50.1
3944.288	-53.1
3946.834	-51.1
3949.378	-55.1
3951.921	-51.1
3954.462	-55.1
3957	-49.1
3959.537	-44.1
3962.072	-50.1
3964.606	-53.1
3967.137	-50.1
3969.667	-58.1
3972.194	-54.1
3974.72	-53.1
3977.244	-49.1
3979.766	-51.1
3982.286	-57.1
3984.805	-58.1
3987.321	-50.1
3989.836	-50.1
3992.349	-50.1
3994.86	-52.1
3997.369	-53.1
3999.877	-53.1
4002.382	-51.1
4004.886	-52.1
4007.388	-56.1
4009.888	-52.1
4012.386	-54.1
4014.883	-52.1
4017.377	-50.1
4019.87	-52.1
4022.361	-57.1
4024.85	-55.1
4027.338	-58.1
4029.823	-55.1
4032.307	-57.1
4034.789	-51.1
4037.269	-53.1
4039.747	-54.1
4042.224	-51.1
4044.699	-52.1
4047.172	-55.1
4049.643	-53.1
4052.112	-55.1
4054.58	-55.1
4057.046	-50.1
4059.51	-59.1
4061.972	-60.1
4064.432	-54.1
4066.891	-47.1
4069.348	-54.1
4071.803	-50.1
4074.256	-54.1
4076.708	-53.1
4079.158	-58.1
4081.606	-53.1
4084.052	-55.1
4086.497	-48.1
4088.939	-52.1
4091.38	-53.1
4093.819	-56.1
4096.257	-53.1
4098.693	-53.1
4101.127	-51.1
4103.559	-62.1
4105.989	6.9
4108.418	2.9
4110.845	0.9
4113.27	7.9
4115.694	3.9
4118.115	7.9
4120.535	-50.1
4122.954	-50.1
4125.37	-53.1
4127.785	-49.1
4130.198	-52.1
4132.609	-53.1
4135.019	-56.1
4137.427	-61.1
4139.833	-56.1
4142.237	-59.1
