Data from 2018-3-7_conc=2_n=3_RamanShift_05.txt Node
Date: Wed Mar 07 10:47:22 IST 2018
User: aro
Spectrometer: QEPB0276
Trigger mode: 0
Integration Time (sec): 3.000000E1
Scans to average: 1
Electric dark correction enabled: true
Nonlinearity correction enabled: false
Boxcar width: 0
XAxis mode: Raman Shifts
Number of Pixels in Spectrum: 1044
>>>>>Begin Spectral Data<<<<<
160.701	4.4
166.742	21.4
172.777	71.4
178.805	213.4
184.826	547.4
190.841	1168.4
196.849	1928.4
202.85	2527.4
208.845	2760.4
214.833	2769.4
220.815	2739.4
226.789	2749.4
232.758	2740.4
238.719	2754.4
244.674	2725.4
250.623	2721.4
256.565	2705.4
262.5	2652.4
268.429	2632.4
274.351	2639.4
280.267	2617.4
286.176	2604.4
292.079	2590.4
297.975	2574.4
303.865	2611.4
309.748	2572.4
315.625	2550.4
321.495	2565.4
327.359	2571.4
333.217	2580.4
339.068	2583.4
344.912	2598.4
350.751	2599.4
356.583	2612.4
362.408	2602.4
368.227	2576.4
374.04	2616.4
379.847	2638.4
385.647	2623.4
391.44	2655.4
397.228	2646.4
403.009	2666.4
408.784	2670.4
414.553	2708.4
420.315	2681.4
426.071	2680.4
431.821	2697.4
437.565	2686.4
443.302	2701.4
449.033	2694.4
454.758	2675.4
460.477	2660.4
466.189	2639.4
471.896	2630.4
477.596	2607.4
483.29	2574.4
488.978	2589.4
494.66	2573.4
500.335	2542.4
506.005	2471.4
511.668	2398.4
517.325	2307.4
522.977	2252.4
528.622	2199.4
534.261	2142.4
539.894	2114.4
545.521	2091.4
551.141	2087.4
556.756	2058.4
562.365	2068.4
567.968	2039.4
573.565	2019.4
579.155	2010.4
584.74	2027.4
590.319	1994.4
595.892	2021.4
601.459	2005.4
607.02	1981.4
612.575	1983.4
618.124	1949.4
623.667	1940.4
629.204	1927.4
634.735	1896.4
640.261	1878.4
645.781	1873.4
651.294	1855.4
656.802	1851.4
662.304	1858.4
667.8	1868.4
673.29	1847.4
678.775	1826.4
684.254	1834.4
689.726	1826.4
695.193	1807.4
700.655	1802.4
706.11	1807.4
711.56	1803.4
717.004	1772.4
722.442	1762.4
727.874	1780.4
733.301	1749.4
738.722	1735.4
744.137	1747.4
749.547	1747.4
754.951	1723.4
760.349	1721.4
765.741	1753.4
771.128	1750.4
776.509	1749.4
781.885	1783.4
787.254	1788.4
792.618	1793.4
797.977	1779.4
803.33	1753.4
808.677	1741.4
814.019	1750.4
819.355	1699.4
824.686	1687.4
830.011	1691.4
835.33	1689.4
840.644	1691.4
845.952	1682.4
851.255	1674.4
856.552	1694.4
861.844	1659.4
867.13	1671.4
872.41	1644.4
877.686	1659.4
882.955	1629.4
888.219	1622.4
893.478	1610.4
898.731	1578.4
903.979	1532.4
909.221	1548.4
914.458	1513.4
919.69	1522.4
924.916	1543.4
930.136	1519.4
935.351	1537.4
940.561	1538.4
945.766	1535.4
950.965	1541.4
956.158	1509.4
961.347	1495.4
966.529	1472.4
971.707	1446.4
976.879	1437.4
982.046	1436.4
987.208	1421.4
992.364	1410.4
997.515	1412.4
1002.66	1437.4
1007.801	1444.4
1012.936	1468.4
1018.066	1459.4
1023.19	1481.4
1028.309	1460.4
1033.423	1456.4
1038.532	1457.4
1043.636	1441.4
1048.734	1423.4
1053.827	1400.4
1058.915	1411.4
1063.998	1386.4
1069.075	1381.4
1074.147	1372.4
1079.214	1383.4
1084.276	1391.4
1089.333	1401.4
1094.385	1399.4
1099.431	1403.4
1104.472	1391.4
1109.509	1384.4
1114.54	1352.4
1119.565	1361.4
1124.586	1327.4
1129.602	1315.4
1134.613	1306.4
1139.618	1290.4
1144.619	1297.4
1149.614	1301.4
1154.604	1300.4
1159.589	1308.4
1164.57	1304.4
1169.545	1293.4
1174.515	1300.4
1179.48	1309.4
1184.44	1283.4
1189.395	1283.4
1194.345	1262.4
1199.29	1254.4
1204.23	1267.4
1209.165	1253.4
1214.095	1261.4
1219.021	1275.4
1223.941	1276.4
1228.856	1283.4
1233.766	1283.4
1238.672	1301.4
1243.572	1285.4
1248.467	1297.4
1253.358	1253.4
1258.244	1258.4
1263.124	1219.4
1268	1184.4
1272.871	1193.4
1277.737	1182.4
1282.599	1180.4
1287.455	1170.4
1292.306	1163.4
1297.153	1184.4
1301.995	1193.4
1306.832	1194.4
1311.664	1183.4
1316.491	1188.4
1321.314	1186.4
1326.132	1187.4
1330.945	1168.4
1335.753	1120.4
1340.556	1108.4
1345.354	1094.4
1350.148	1054.4
1354.937	1020.4
1359.722	1004.4
1364.501	975.4
1369.276	970.4
1374.046	967.4
1378.811	954.4
1383.572	961.4
1388.327	951.4
1393.079	939.4
1397.825	958.4
1402.567	963.4
1407.304	970.4
1412.036	982.4
1416.764	977.4
1421.487	976.4
1426.205	973.4
1430.919	986.4
1435.628	999.4
1440.333	1000.4
1445.032	998.4
1449.727	1009.4
1454.418	1014.4
1459.104	1014.4
1463.785	978.4
1468.462	946.4
1473.134	948.4
1477.802	914.4
1482.465	869.4
1487.123	855.4
1491.777	826.4
1496.426	832.4
1501.071	805.4
1505.711	797.4
1510.347	792.4
1514.978	792.4
1519.604	776.4
1524.226	782.4
1528.844	781.4
1533.457	767.4
1538.065	784.4
1542.669	792.4
1547.269	773.4
1551.864	792.4
1556.454	808.4
1561.041	814.4
1565.622	829.4
1570.199	824.4
1574.772	835.4
1579.34	843.4
1583.904	857.4
1588.464	870.4
1593.019	865.4
1597.569	880.4
1602.115	864.4
1606.657	871.4
1611.195	860.4
1615.728	850.4
1620.256	845.4
1624.78	840.4
1629.3	853.4
1633.816	843.4
1638.327	845.4
1642.834	840.4
1647.336	848.4
1651.834	849.4
1656.328	831.4
1660.817	837.4
1665.302	815.4
1669.783	801.4
1674.259	765.4
1678.732	745.4
1683.199	724.4
1687.663	684.4
1692.122	648.4
1696.577	622.4
1701.028	595.4
1705.474	560.4
1709.917	544.4
1714.355	542.4
1718.788	542.4
1723.218	548.4
1727.643	560.4
1732.064	548.4
1736.481	562.4
1740.893	525.4
1745.301	531.4
1749.705	528.4
1754.105	499.4
1758.501	483.4
1762.893	473.4
1767.28	474.4
1771.663	472.4
1776.042	459.4
1780.417	441.4
1784.787	427.4
1789.154	422.4
1793.516	407.4
1797.874	397.4
1802.228	396.4
1806.578	385.4
1810.924	392.4
1815.266	407.4
1819.603	398.4
1823.937	409.4
1828.266	407.4
1832.591	413.4
1836.913	417.4
1841.23	423.4
1845.543	402.4
1849.852	412.4
1854.156	425.4
1858.457	420.4
1862.754	428.4
1867.047	415.4
1871.335	418.4
1875.62	403.4
1879.9	411.4
1884.177	398.4
1888.449	398.4
1892.718	386.4
1896.982	373.4
1901.243	361.4
1905.499	360.4
1909.752	353.4
1914	344.4
1918.245	332.4
1922.485	320.4
1926.722	308.4
1930.954	306.4
1935.183	307.4
1939.408	305.4
1943.628	303.4
1947.845	300.4
1952.058	298.4
1956.267	293.4
1960.472	303.4
1964.673	283.4
1968.87	296.4
1973.063	296.4
1977.252	304.4
1981.438	308.4
1985.619	307.4
1989.797	305.4
1993.971	314.4
1998.14	312.4
2002.306	322.4
2006.469	320.4
2010.627	313.4
2014.781	316.4
2018.932	312.4
2023.078	315.4
2027.221	323.4
2031.36	312.4
2035.495	307.4
2039.627	294.4
2043.754	290.4
2047.878	285.4
2051.998	298.4
2056.114	285.4
2060.226	279.4
2064.334	271.4
2068.439	262.4
2072.54	254.4
2076.637	272.4
2080.73	268.4
2084.82	260.4
2088.906	252.4
2092.988	254.4
2097.066	251.4
2101.14	240.4
2105.211	239.4
2109.278	239.4
2113.342	226.4
2117.401	244.4
2121.457	232.4
2125.509	231.4
2129.558	233.4
2133.602	243.4
2137.643	239.4
2141.681	240.4
2145.714	237.4
2149.744	247.4
2153.77	248.4
2157.793	240.4
2161.812	243.4
2165.827	243.4
2169.838	238.4
2173.846	234.4
2177.851	244.4
2181.851	236.4
2185.848	233.4
2189.841	231.4
2193.831	224.4
2197.817	229.4
2201.799	222.4
2205.778	226.4
2209.753	228.4
2213.725	220.4
2217.693	230.4
2221.657	212.4
2225.618	219.4
2229.575	217.4
2233.529	213.4
2237.479	222.4
2241.425	214.4
2245.368	218.4
2249.307	214.4
2253.243	199.4
2257.175	211.4
2261.104	197.4
2265.029	205.4
2268.95	204.4
2272.868	198.4
2276.783	198.4
2280.694	187.4
2284.601	185.4
2288.505	189.4
2292.405	188.4
2296.302	191.4
2300.195	181.4
2304.085	182.4
2307.971	179.4
2311.854	177.4
2315.734	174.4
2319.609	183.4
2323.482	175.4
2327.351	178.4
2331.216	186.4
2335.078	196.4
2338.937	186.4
2342.792	177.4
2346.643	183.4
2350.492	174.4
2354.336	179.4
2358.178	171.4
2362.015	183.4
2365.85	174.4
2369.681	195.4
2373.508	186.4
2377.333	186.4
2381.153	183.4
2384.971	176.4
2388.785	176.4
2392.595	182.4
2396.402	180.4
2400.206	176.4
2404.007	176.4
2407.804	179.4
2411.597	175.4
2415.388	175.4
2419.174	179.4
2422.958	175.4
2426.738	177.4
2430.515	164.4
2434.289	167.4
2438.059	165.4
2441.825	157.4
2445.589	168.4
2449.349	167.4
2453.106	163.4
2456.859	154.4
2460.61	157.4
2464.356	153.4
2468.1	153.4
2471.84	150.4
2475.577	135.4
2479.311	138.4
2483.041	144.4
2486.768	137.4
2490.492	143.4
2494.213	148.4
2497.93	138.4
2501.644	141.4
2505.355	129.4
2509.062	135.4
2512.766	134.4
2516.467	123.4
2520.165	122.4
2523.859	131.4
2527.551	120.4
2531.239	115.4
2534.923	114.4
2538.605	105.4
2542.283	105.4
2545.958	116.4
2549.63	108.4
2553.299	100.4
2556.964	106.4
2560.626	108.4
2564.285	101.4
2567.941	95.4
2571.594	97.4
2575.243	99.4
2578.89	99.4
2582.533	92.4
2586.173	99.4
2589.809	92.4
2593.443	91.4
2597.073	94.4
2600.701	93.4
2604.325	79.4
2607.946	81.4
2611.564	89.4
2615.178	93.4
2618.79	93.4
2622.398	95.4
2626.004	87.4
2629.606	81.4
2633.205	87.4
2636.801	89.4
2640.394	86.4
2643.983	90.4
2647.57	82.4
2651.153	86.4
2654.734	82.4
2658.311	78.4
2661.885	84.4
2665.456	91.4
2669.025	79.4
2672.589	71.4
2676.151	76.4
2679.71	74.4
2683.266	76.4
2686.819	79.4
2690.368	70.4
2693.915	75.4
2697.458	66.4
2700.999	73.4
2704.536	73.4
2708.071	68.4
2711.602	67.4
2715.13	56.4
2718.656	55.4
2722.178	53.4
2725.697	55.4
2729.214	51.4
2732.727	54.4
2736.237	54.4
2739.744	46.4
2743.249	51.4
2746.75	42.4
2750.248	36.4
2753.743	39.4
2757.236	32.4
2760.725	36.4
2764.211	29.4
2767.695	28.4
2771.175	34.4
2774.652	32.4
2778.127	36.4
2781.598	34.4
2785.067	34.4
2788.532	28.4
2791.995	40.4
2795.455	38.4
2798.911	34.4
2802.365	36.4
2805.816	35.4
2809.264	34.4
2812.709	31.4
2816.151	38.4
2819.59	44.4
2823.026	39.4
2826.46	40.4
2829.89	33.4
2833.318	33.4
2836.742	34.4
2840.164	37.4
2843.583	28.4
2846.999	41.4
2850.412	37.4
2853.822	39.4
2857.229	44.4
2860.634	43.4
2864.035	45.4
2867.434	52.4
2870.83	52.4
2874.223	50.4
2877.613	47.4
2881	54.4
2884.385	58.4
2887.766	62.4
2891.145	58.4
2894.521	64.4
2897.894	60.4
2901.264	60.4
2904.631	52.4
2907.996	57.4
2911.358	69.4
2914.717	60.4
2918.073	55.4
2921.426	69.4
2924.777	70.4
2928.124	71.4
2931.469	76.4
2934.811	82.4
2938.15	81.4
2941.487	87.4
2944.821	77.4
2948.152	91.4
2951.48	82.4
2954.805	79.4
2958.128	69.4
2961.447	76.4
2964.765	67.4
2968.079	70.4
2971.39	72.4
2974.699	68.4
2978.005	71.4
2981.308	70.4
2984.609	66.4
2987.907	70.4
2991.202	66.4
2994.494	69.4
2997.784	66.4
3001.07	66.4
3004.355	68.4
3007.636	75.4
3010.915	72.4
3014.191	73.4
3017.464	74.4
3020.734	74.4
3024.002	81.4
3027.267	82.4
3030.53	82.4
3033.789	89.4
3037.046	90.4
3040.301	88.4
3043.552	92.4
3046.801	99.4
3050.048	108.4
3053.291	99.4
3056.532	109.4
3059.771	114.4
3063.006	111.4
3066.239	123.4
3069.469	134.4
3072.697	136.4
3075.922	144.4
3079.144	131.4
3082.364	141.4
3085.581	137.4
3088.795	145.4
3092.007	149.4
3095.216	149.4
3098.423	153.4
3101.627	157.4
3104.828	171.4
3108.026	172.4
3111.222	170.4
3114.416	175.4
3117.607	175.4
3120.795	180.4
3123.98	179.4
3127.163	197.4
3130.344	189.4
3133.521	199.4
3136.696	202.4
3139.869	214.4
3143.039	213.4
3146.206	217.4
3149.371	215.4
3152.533	232.4
3155.693	224.4
3158.85	227.4
3162.005	221.4
3165.157	220.4
3168.306	229.4
3171.453	220.4
3174.597	227.4
3177.739	233.4
3180.878	231.4
3184.014	230.4
3187.149	223.4
3190.28	224.4
3193.409	232.4
3196.536	219.4
3199.659	234.4
3202.781	236.4
3205.9	225.4
3209.016	222.4
3212.13	230.4
3215.241	230.4
3218.35	224.4
3221.456	225.4
3224.56	216.4
3227.661	208.4
3230.76	208.4
3233.856	204.4
3236.95	194.4
3240.041	191.4
3243.13	195.4
3246.216	183.4
3249.3	189.4
3252.382	184.4
3255.46	176.4
3258.537	177.4
3261.611	171.4
3264.682	169.4
3267.751	173.4
3270.818	164.4
3273.882	170.4
3276.943	158.4
3280.002	173.4
3283.059	167.4
3286.113	160.4
3289.165	162.4
3292.214	169.4
3295.261	167.4
3298.306	157.4
3301.348	161.4
3304.387	157.4
3307.425	157.4
3310.459	154.4
3313.492	154.4
3316.521	157.4
3319.549	166.4
3322.574	154.4
3325.597	152.4
3328.617	147.4
3331.635	159.4
3334.65	163.4
3337.663	146.4
3340.674	149.4
3343.682	154.4
3346.688	151.4
3349.691	157.4
3352.692	150.4
3355.691	152.4
3358.687	150.4
3361.681	155.4
3364.673	151.4
3367.662	150.4
3370.649	146.4
3373.633	134.4
3376.615	132.4
3379.595	127.4
3382.572	125.4
3385.547	132.4
3388.52	125.4
3391.49	123.4
3394.458	116.4
3397.424	119.4
3400.387	118.4
3403.348	115.4
3406.307	112.4
3409.263	108.4
3412.217	114.4
3415.168	108.4
3418.118	95.4
3421.065	97.4
3424.009	106.4
3426.951	97.4
3429.891	99.4
3432.829	89.4
3435.764	93.4
3438.697	88.4
3441.628	83.4
3444.557	76.4
3447.483	76.4
3450.407	61.4
3453.328	69.4
3456.247	62.4
3459.164	55.4
3462.079	48.4
3464.991	50.4
3467.902	49.4
3470.809	45.4
3473.715	44.4
3476.618	38.4
3479.519	29.4
3482.418	33.4
3485.315	25.4
3488.209	17.4
3491.101	22.4
3493.99	23.4
3496.878	19.4
3499.763	13.4
3502.646	16.4
3505.527	13.4
3508.405	11.4
3511.281	5.4
3514.155	0.4
3517.027	-2.6
3519.897	-4.6
3522.764	-5.6
3525.629	-10.6
3528.492	-10.6
3531.352	-22.6
3534.211	-14.6
3537.067	-18.6
3539.921	-16.6
3542.773	-22.6
3545.622	-21.6
3548.469	-21.6
3551.315	-21.6
3554.157	-27.6
3556.998	-29.6
3559.837	-31.6
3562.673	-31.6
3565.507	-32.6
3568.339	-28.6
3571.169	-34.6
3573.996	-31.6
3576.822	-41.6
3579.645	-38.6
3582.466	-37.6
3585.285	-41.6
3588.101	-43.6
3590.916	-41.6
3593.728	-44.6
3596.538	-45.6
3599.346	-47.6
3602.152	-47.6
3604.956	-38.6
3607.757	-38.6
3610.556	-42.6
3613.354	-51.6
3616.149	-47.6
3618.942	-52.6
3621.732	-57.6
3624.521	-49.6
3627.307	-53.6
3630.092	-55.6
3632.874	-56.6
3635.654	-57.6
3638.432	-48.6
3641.208	-55.6
3643.982	-46.6
3646.753	-58.6
3649.523	-57.6
3652.29	-59.6
3655.055	-56.6
3657.818	-59.6
3660.579	-62.6
3663.338	-59.6
3666.095	-58.6
3668.849	-58.6
3671.602	-62.6
3674.352	-57.6
3677.101	-58.6
3679.847	-57.6
3682.591	-64.6
3685.333	-63.6
3688.073	-70.6
3690.811	-60.6
3693.547	-65.6
3696.281	-59.6
3699.013	-66.6
3701.742	-67.6
3704.47	-61.6
3707.195	-66.6
3709.919	-63.6
3712.64	-61.6
3715.359	-69.6
3718.076	-68.6
3720.792	-67.6
3723.505	-68.6
3726.216	-63.6
3728.925	-69.6
3731.632	-63.6
3734.336	-64.6
3737.039	-64.6
3739.74	-71.6
3742.439	-74.6
3745.136	-70.6
3747.83	-72.6
3750.523	-74.6
3753.213	-82.6
3755.902	-67.6
3758.589	-73.6
3761.273	-66.6
3763.956	-67.6
3766.636	-63.6
3769.315	-64.6
3771.991	-72.6
3774.665	-72.6
3777.338	-69.6
3780.008	-74.6
3782.677	-77.6
3785.343	-68.6
3788.007	-69.6
3790.67	-74.6
3793.33	-67.6
3795.989	-74.6
3798.645	-70.6
3801.299	-68.6
3803.952	-66.6
3806.602	-73.6
3809.251	-76.6
3811.897	-72.6
3814.542	-76.6
3817.184	-72.6
3819.825	-66.6
3822.463	-65.6
3825.1	-68.6
3827.735	-72.6
3830.367	-79.6
3832.998	-72.6
3835.627	-68.6
3838.253	-67.6
3840.878	-71.6
3843.501	-66.6
3846.122	-78.6
3848.741	-73.6
3851.358	-68.6
3853.973	-64.6
3856.586	-72.6
3859.197	-72.6
3861.806	-73.6
3864.414	-75.6
3867.019	-69.6
3869.622	-68.6
3872.224	-66.6
3874.823	-56.6
3877.421	-50.6
3880.016	-42.6
3882.61	-25.6
3885.202	-31.6
3887.792	-33.6
3890.38	-46.6
3892.966	-58.6
3895.55	-66.6
3898.132	-69.6
3900.713	-74.6
3903.291	-79.6
3905.868	-69.6
3908.442	-69.6
3911.015	-72.6
3913.586	-72.6
3916.155	-77.6
3918.722	-71.6
3921.287	-76.6
3923.85	-69.6
3926.411	-78.6
3928.971	-79.6
3931.528	-78.6
3934.084	-71.6
3936.638	-70.6
3939.19	-77.6
3941.74	-69.6
3944.288	-74.6
3946.834	-69.6
3949.378	-70.6
3951.921	-75.6
3954.462	-76.6
3957	-66.6
3959.537	-65.6
3962.072	-72.6
3964.606	-71.6
3967.137	-69.6
3969.667	-74.6
3972.194	-69.6
3974.72	-70.6
3977.244	-69.6
3979.766	-72.6
3982.286	-77.6
3984.805	-84.6
3987.321	-72.6
3989.836	-68.6
3992.349	-74.6
3994.86	-70.6
3997.369	-74.6
3999.877	-71.6
4002.382	-66.6
4004.886	-72.6
4007.388	-78.6
4009.888	-72.6
4012.386	-71.6
4014.883	-70.6
4017.377	-70.6
4019.87	-71.6
4022.361	-70.6
4024.85	-70.6
4027.338	-71.6
4029.823	-73.6
4032.307	-77.6
4034.789	-73.6
4037.269	-73.6
4039.747	-74.6
4042.224	-75.6
4044.699	-79.6
4047.172	-76.6
4049.643	-74.6
4052.112	-69.6
4054.58	-67.6
4057.046	-67.6
4059.51	-75.6
4061.972	-80.6
4064.432	-70.6
4066.891	-74.6
4069.348	-71.6
4071.803	-66.6
4074.256	-68.6
4076.708	-71.6
4079.158	-76.6
4081.606	-67.6
4084.052	-68.6
4086.497	-66.6
4088.939	-71.6
4091.38	-79.6
4093.819	-77.6
4096.257	-73.6
4098.693	-76.6
4101.127	-69.6
4103.559	-81.6
4105.989	-0.6
4108.418	-7.6
4110.845	-7.6
4113.27	0.4
4115.694	-1.6
4118.115	9.4
4120.535	-74.6
4122.954	-73.6
4125.37	-71.6
4127.785	-70.6
4130.198	-71.6
4132.609	-74.6
4135.019	-76.6
4137.427	-77.6
4139.833	-79.6
4142.237	-76.6
