Data from 2018-3-7_conc=0_n=10_RamanShift_01.txt Node
Date: Wed Mar 07 10:35:52 IST 2018
User: aro
Spectrometer: QEPB0276
Trigger mode: 0
Integration Time (sec): 3.000000E1
Scans to average: 1
Electric dark correction enabled: true
Nonlinearity correction enabled: false
Boxcar width: 0
XAxis mode: Raman Shifts
Number of Pixels in Spectrum: 1044
>>>>>Begin Spectral Data<<<<<
160.701	13.4
166.742	24.4
172.777	55.4
178.805	151.4
184.826	374.4
190.841	786.4
196.849	1288.4
202.85	1688.4
208.845	1859.4
214.833	1835.4
220.815	1824.4
226.789	1843.4
232.758	1865.4
238.719	1857.4
244.674	1855.4
250.623	1859.4
256.565	1829.4
262.5	1804.4
268.429	1806.4
274.351	1808.4
280.267	1790.4
286.176	1782.4
292.079	1794.4
297.975	1793.4
303.865	1802.4
309.748	1801.4
315.625	1811.4
321.495	1798.4
327.359	1822.4
333.217	1828.4
339.068	1836.4
344.912	1828.4
350.751	1836.4
356.583	1843.4
362.408	1833.4
368.227	1861.4
374.04	1858.4
379.847	1883.4
385.647	1881.4
391.44	1883.4
397.228	1889.4
403.009	1923.4
408.784	1926.4
414.553	1928.4
420.315	1950.4
426.071	1965.4
431.821	1947.4
437.565	1945.4
443.302	1956.4
449.033	1930.4
454.758	1913.4
460.477	1918.4
466.189	1893.4
471.896	1874.4
477.596	1862.4
483.29	1868.4
488.978	1847.4
494.66	1835.4
500.335	1789.4
506.005	1716.4
511.668	1630.4
517.325	1571.4
522.977	1481.4
528.622	1455.4
534.261	1415.4
539.894	1374.4
545.521	1362.4
551.141	1337.4
556.756	1334.4
562.365	1318.4
567.968	1306.4
573.565	1288.4
579.155	1290.4
584.74	1298.4
590.319	1277.4
595.892	1295.4
601.459	1274.4
607.02	1271.4
612.575	1270.4
618.124	1250.4
623.667	1227.4
629.204	1226.4
634.735	1207.4
640.261	1179.4
645.781	1189.4
651.294	1179.4
656.802	1172.4
662.304	1165.4
667.8	1170.4
673.29	1154.4
678.775	1157.4
684.254	1162.4
689.726	1152.4
695.193	1149.4
700.655	1137.4
706.11	1128.4
711.56	1125.4
717.004	1104.4
722.442	1099.4
727.874	1108.4
733.301	1095.4
738.722	1100.4
744.137	1085.4
749.547	1084.4
754.951	1067.4
760.349	1097.4
765.741	1098.4
771.128	1088.4
776.509	1114.4
781.885	1136.4
787.254	1147.4
792.618	1139.4
797.977	1153.4
803.33	1123.4
808.677	1122.4
814.019	1139.4
819.355	1097.4
824.686	1103.4
830.011	1087.4
835.33	1085.4
840.644	1074.4
845.952	1072.4
851.255	1064.4
856.552	1073.4
861.844	1037.4
867.13	1047.4
872.41	1057.4
877.686	1064.4
882.955	1074.4
888.219	1070.4
893.478	1032.4
898.731	998.4
903.979	966.4
909.221	940.4
914.458	958.4
919.69	953.4
924.916	949.4
930.136	956.4
935.351	958.4
940.561	959.4
945.766	957.4
950.965	943.4
956.158	939.4
961.347	925.4
966.529	923.4
971.707	892.4
976.879	882.4
982.046	880.4
987.208	884.4
992.364	871.4
997.515	871.4
1002.66	895.4
1007.801	898.4
1012.936	908.4
1018.066	917.4
1023.19	918.4
1028.309	917.4
1033.423	922.4
1038.532	910.4
1043.636	905.4
1048.734	911.4
1053.827	906.4
1058.915	892.4
1063.998	879.4
1069.075	869.4
1074.147	881.4
1079.214	877.4
1084.276	895.4
1089.333	904.4
1094.385	888.4
1099.431	883.4
1104.472	875.4
1109.509	860.4
1114.54	850.4
1119.565	834.4
1124.586	830.4
1129.602	823.4
1134.613	816.4
1139.618	804.4
1144.619	803.4
1149.614	807.4
1154.604	795.4
1159.589	804.4
1164.57	808.4
1169.545	808.4
1174.515	807.4
1179.48	807.4
1184.44	785.4
1189.395	786.4
1194.345	784.4
1199.29	769.4
1204.23	774.4
1209.165	775.4
1214.095	786.4
1219.021	789.4
1223.941	787.4
1228.856	795.4
1233.766	810.4
1238.672	792.4
1243.572	792.4
1248.467	791.4
1253.358	777.4
1258.244	773.4
1263.124	752.4
1268	744.4
1272.871	728.4
1277.737	723.4
1282.599	731.4
1287.455	727.4
1292.306	740.4
1297.153	734.4
1301.995	734.4
1306.832	737.4
1311.664	734.4
1316.491	744.4
1321.314	734.4
1326.132	727.4
1330.945	721.4
1335.753	696.4
1340.556	688.4
1345.354	669.4
1350.148	664.4
1354.937	648.4
1359.722	631.4
1364.501	630.4
1369.276	622.4
1374.046	617.4
1378.811	607.4
1383.572	615.4
1388.327	602.4
1393.079	607.4
1397.825	603.4
1402.567	604.4
1407.304	603.4
1412.036	606.4
1416.764	624.4
1421.487	618.4
1426.205	601.4
1430.919	606.4
1435.628	609.4
1440.333	633.4
1445.032	630.4
1449.727	653.4
1454.418	655.4
1459.104	652.4
1463.785	636.4
1468.462	623.4
1473.134	597.4
1477.802	568.4
1482.465	553.4
1487.123	557.4
1491.777	531.4
1496.426	529.4
1501.071	526.4
1505.711	518.4
1510.347	521.4
1514.978	509.4
1519.604	509.4
1524.226	507.4
1528.844	503.4
1533.457	501.4
1538.065	501.4
1542.669	504.4
1547.269	499.4
1551.864	508.4
1556.454	520.4
1561.041	532.4
1565.622	535.4
1570.199	521.4
1574.772	532.4
1579.34	530.4
1583.904	536.4
1588.464	556.4
1593.019	549.4
1597.569	542.4
1602.115	532.4
1606.657	540.4
1611.195	530.4
1615.728	535.4
1620.256	534.4
1624.78	525.4
1629.3	533.4
1633.816	526.4
1638.327	545.4
1642.834	526.4
1647.336	529.4
1651.834	531.4
1656.328	531.4
1660.817	534.4
1665.302	520.4
1669.783	504.4
1674.259	485.4
1678.732	484.4
1683.199	449.4
1687.663	440.4
1692.122	426.4
1696.577	411.4
1701.028	397.4
1705.474	376.4
1709.917	382.4
1714.355	365.4
1718.788	354.4
1723.218	361.4
1727.643	354.4
1732.064	356.4
1736.481	363.4
1740.893	353.4
1745.301	353.4
1749.705	341.4
1754.105	323.4
1758.501	314.4
1762.893	323.4
1767.28	307.4
1771.663	304.4
1776.042	297.4
1780.417	287.4
1784.787	292.4
1789.154	273.4
1793.516	273.4
1797.874	268.4
1802.228	273.4
1806.578	270.4
1810.924	259.4
1815.266	276.4
1819.603	271.4
1823.937	272.4
1828.266	267.4
1832.591	279.4
1836.913	268.4
1841.23	268.4
1845.543	271.4
1849.852	271.4
1854.156	272.4
1858.457	274.4
1862.754	275.4
1867.047	270.4
1871.335	275.4
1875.62	277.4
1879.9	275.4
1884.177	259.4
1888.449	260.4
1892.718	258.4
1896.982	255.4
1901.243	239.4
1905.499	245.4
1909.752	231.4
1914	232.4
1918.245	225.4
1922.485	228.4
1926.722	213.4
1930.954	216.4
1935.183	214.4
1939.408	216.4
1943.628	210.4
1947.845	214.4
1952.058	200.4
1956.267	209.4
1960.472	211.4
1964.673	207.4
1968.87	206.4
1973.063	212.4
1977.252	218.4
1981.438	209.4
1985.619	202.4
1989.797	206.4
1993.971	207.4
1998.14	213.4
2002.306	210.4
2006.469	214.4
2010.627	208.4
2014.781	212.4
2018.932	206.4
2023.078	212.4
2027.221	203.4
2031.36	202.4
2035.495	193.4
2039.627	194.4
2043.754	190.4
2047.878	185.4
2051.998	190.4
2056.114	187.4
2060.226	184.4
2064.334	186.4
2068.439	178.4
2072.54	187.4
2076.637	178.4
2080.73	176.4
2084.82	180.4
2088.906	173.4
2092.988	169.4
2097.066	167.4
2101.14	170.4
2105.211	164.4
2109.278	170.4
2113.342	164.4
2117.401	157.4
2121.457	155.4
2125.509	157.4
2129.558	161.4
2133.602	153.4
2137.643	157.4
2141.681	156.4
2145.714	162.4
2149.744	160.4
2153.77	168.4
2157.793	160.4
2161.812	166.4
2165.827	154.4
2169.838	158.4
2173.846	157.4
2177.851	143.4
2181.851	151.4
2185.848	148.4
2189.841	148.4
2193.831	150.4
2197.817	144.4
2201.799	155.4
2205.778	143.4
2209.753	136.4
2213.725	143.4
2217.693	143.4
2221.657	139.4
2225.618	138.4
2229.575	136.4
2233.529	132.4
2237.479	137.4
2241.425	133.4
2245.368	136.4
2249.307	138.4
2253.243	128.4
2257.175	124.4
2261.104	117.4
2265.029	128.4
2268.95	129.4
2272.868	129.4
2276.783	116.4
2280.694	116.4
2284.601	116.4
2288.505	124.4
2292.405	108.4
2296.302	117.4
2300.195	112.4
2304.085	114.4
2307.971	112.4
2311.854	116.4
2315.734	101.4
2319.609	114.4
2323.482	116.4
2327.351	111.4
2331.216	119.4
2335.078	144.4
2338.937	125.4
2342.792	111.4
2346.643	110.4
2350.492	114.4
2354.336	113.4
2358.178	108.4
2362.015	105.4
2365.85	105.4
2369.681	118.4
2373.508	113.4
2377.333	114.4
2381.153	108.4
2384.971	102.4
2388.785	101.4
2392.595	111.4
2396.402	107.4
2400.206	113.4
2404.007	107.4
2407.804	104.4
2411.597	106.4
2415.388	107.4
2419.174	111.4
2422.958	101.4
2426.738	104.4
2430.515	95.4
2434.289	101.4
2438.059	98.4
2441.825	100.4
2445.589	102.4
2449.349	97.4
2453.106	95.4
2456.859	92.4
2460.61	92.4
2464.356	88.4
2468.1	88.4
2471.84	78.4
2475.577	86.4
2479.311	83.4
2483.041	86.4
2486.768	85.4
2490.492	83.4
2494.213	84.4
2497.93	85.4
2501.644	85.4
2505.355	75.4
2509.062	81.4
2512.766	76.4
2516.467	82.4
2520.165	77.4
2523.859	79.4
2527.551	70.4
2531.239	70.4
2534.923	68.4
2538.605	67.4
2542.283	59.4
2545.958	68.4
2549.63	68.4
2553.299	69.4
2556.964	62.4
2560.626	61.4
2564.285	64.4
2567.941	58.4
2571.594	56.4
2575.243	59.4
2578.89	50.4
2582.533	54.4
2586.173	53.4
2589.809	55.4
2593.443	57.4
2597.073	56.4
2600.701	60.4
2604.325	53.4
2607.946	43.4
2611.564	57.4
2615.178	46.4
2618.79	55.4
2622.398	46.4
2626.004	46.4
2629.606	49.4
2633.205	47.4
2636.801	49.4
2640.394	55.4
2643.983	43.4
2647.57	45.4
2651.153	39.4
2654.734	44.4
2658.311	47.4
2661.885	50.4
2665.456	49.4
2669.025	51.4
2672.589	35.4
2676.151	46.4
2679.71	40.4
2683.266	38.4
2686.819	46.4
2690.368	35.4
2693.915	40.4
2697.458	35.4
2700.999	41.4
2704.536	41.4
2708.071	37.4
2711.602	34.4
2715.13	29.4
2718.656	35.4
2722.178	33.4
2725.697	24.4
2729.214	27.4
2732.727	32.4
2736.237	38.4
2739.744	24.4
2743.249	26.4
2746.75	27.4
2750.248	16.4
2753.743	19.4
2757.236	19.4
2760.725	20.4
2764.211	17.4
2767.695	16.4
2771.175	25.4
2774.652	20.4
2778.127	18.4
2781.598	18.4
2785.067	19.4
2788.532	14.4
2791.995	18.4
2795.455	11.4
2798.911	16.4
2802.365	30.4
2805.816	17.4
2809.264	24.4
2812.709	22.4
2816.151	21.4
2819.59	34.4
2823.026	21.4
2826.46	18.4
2829.89	22.4
2833.318	15.4
2836.742	26.4
2840.164	20.4
2843.583	20.4
2846.999	30.4
2850.412	23.4
2853.822	27.4
2857.229	24.4
2860.634	19.4
2864.035	27.4
2867.434	29.4
2870.83	33.4
2874.223	30.4
2877.613	40.4
2881	43.4
2884.385	43.4
2887.766	51.4
2891.145	40.4
2894.521	48.4
2897.894	39.4
2901.264	43.4
2904.631	40.4
2907.996	43.4
2911.358	52.4
2914.717	41.4
2918.073	45.4
2921.426	45.4
2924.777	49.4
2928.124	49.4
2931.469	59.4
2934.811	62.4
2938.15	65.4
2941.487	76.4
2944.821	62.4
2948.152	73.4
2951.48	60.4
2954.805	59.4
2958.128	47.4
2961.447	55.4
2964.765	48.4
2968.079	48.4
2971.39	48.4
2974.699	44.4
2978.005	49.4
2981.308	43.4
2984.609	47.4
2987.907	49.4
2991.202	46.4
2994.494	43.4
2997.784	38.4
3001.07	41.4
3004.355	46.4
3007.636	50.4
3010.915	47.4
3014.191	38.4
3017.464	48.4
3020.734	45.4
3024.002	40.4
3027.267	48.4
3030.53	46.4
3033.789	53.4
3037.046	52.4
3040.301	43.4
3043.552	54.4
3046.801	56.4
3050.048	55.4
3053.291	52.4
3056.532	56.4
3059.771	58.4
3063.006	61.4
3066.239	68.4
3069.469	79.4
3072.697	74.4
3075.922	79.4
3079.144	77.4
3082.364	77.4
3085.581	84.4
3088.795	86.4
3092.007	88.4
3095.216	84.4
3098.423	96.4
3101.627	93.4
3104.828	102.4
3108.026	96.4
3111.222	105.4
3114.416	97.4
3117.607	102.4
3120.795	101.4
3123.98	101.4
3127.163	117.4
3130.344	117.4
3133.521	113.4
3136.696	119.4
3139.869	124.4
3143.039	125.4
3146.206	131.4
3149.371	123.4
3152.533	139.4
3155.693	132.4
3158.85	128.4
3162.005	134.4
3165.157	137.4
3168.306	127.4
3171.453	129.4
3174.597	126.4
3177.739	140.4
3180.878	134.4
3184.014	131.4
3187.149	132.4
3190.28	138.4
3193.409	136.4
3196.536	130.4
3199.659	134.4
3202.781	139.4
3205.9	130.4
3209.016	134.4
3212.13	140.4
3215.241	130.4
3218.35	130.4
3221.456	133.4
3224.56	114.4
3227.661	129.4
3230.76	117.4
3233.856	123.4
3236.95	111.4
3240.041	104.4
3243.13	112.4
3246.216	109.4
3249.3	104.4
3252.382	105.4
3255.46	110.4
3258.537	104.4
3261.611	99.4
3264.682	99.4
3267.751	110.4
3270.818	88.4
3273.882	96.4
3276.943	90.4
3280.002	89.4
3283.059	96.4
3286.113	90.4
3289.165	88.4
3292.214	98.4
3295.261	93.4
3298.306	91.4
3301.348	88.4
3304.387	86.4
3307.425	85.4
3310.459	74.4
3313.492	84.4
3316.521	81.4
3319.549	94.4
3322.574	87.4
3325.597	91.4
3328.617	80.4
3331.635	91.4
3334.65	94.4
3337.663	73.4
3340.674	82.4
3343.682	76.4
3346.688	79.4
3349.691	87.4
3352.692	85.4
3355.691	91.4
3358.687	81.4
3361.681	81.4
3364.673	81.4
3367.662	77.4
3370.649	84.4
3373.633	74.4
3376.615	75.4
3379.595	69.4
3382.572	65.4
3385.547	76.4
3388.52	70.4
3391.49	64.4
3394.458	60.4
3397.424	66.4
3400.387	69.4
3403.348	55.4
3406.307	58.4
3409.263	57.4
3412.217	57.4
3415.168	61.4
3418.118	55.4
3421.065	46.4
3424.009	53.4
3426.951	56.4
3429.891	47.4
3432.829	45.4
3435.764	50.4
3438.697	40.4
3441.628	33.4
3444.557	34.4
3447.483	37.4
3450.407	29.4
3453.328	34.4
3456.247	31.4
3459.164	27.4
3462.079	23.4
3464.991	14.4
3467.902	20.4
3470.809	18.4
3473.715	18.4
3476.618	11.4
3479.519	7.4
3482.418	15.4
3485.315	6.4
3488.209	-0.6
3491.101	5.4
3493.99	7.4
3496.878	2.4
3499.763	-6.6
3502.646	-2.6
3505.527	-8.6
3508.405	-8.6
3511.281	-3.6
3514.155	-3.6
3517.027	-10.6
3519.897	-10.6
3522.764	-8.6
3525.629	-14.6
3528.492	-13.6
3531.352	-21.6
3534.211	-24.6
3537.067	-22.6
3539.921	-17.6
3542.773	-30.6
3545.622	-24.6
3548.469	-23.6
3551.315	-22.6
3554.157	-27.6
3556.998	-30.6
3559.837	-33.6
3562.673	-31.6
3565.507	-34.6
3568.339	-25.6
3571.169	-31.6
3573.996	-30.6
3576.822	-40.6
3579.645	-35.6
3582.466	-32.6
3585.285	-38.6
3588.101	-39.6
3590.916	-35.6
3593.728	-40.6
3596.538	-41.6
3599.346	-39.6
3602.152	-41.6
3604.956	-36.6
3607.757	-36.6
3610.556	-32.6
3613.354	-41.6
3616.149	-42.6
3618.942	-46.6
3621.732	-44.6
3624.521	-38.6
3627.307	-41.6
3630.092	-45.6
3632.874	-44.6
3635.654	-44.6
3638.432	-41.6
3641.208	-43.6
3643.982	-44.6
3646.753	-49.6
3649.523	-47.6
3652.29	-50.6
3655.055	-44.6
3657.818	-54.6
3660.579	-45.6
3663.338	-46.6
3666.095	-49.6
3668.849	-45.6
3671.602	-47.6
3674.352	-47.6
3677.101	-50.6
3679.847	-50.6
3682.591	-53.6
3685.333	-47.6
3688.073	-55.6
3690.811	-47.6
3693.547	-52.6
3696.281	-47.6
3699.013	-49.6
3701.742	-53.6
3704.47	-48.6
3707.195	-55.6
3709.919	-53.6
3712.64	-48.6
3715.359	-52.6
3718.076	-56.6
3720.792	-53.6
3723.505	-54.6
3726.216	-50.6
3728.925	-56.6
3731.632	-51.6
3734.336	-57.6
3737.039	-56.6
3739.74	-59.6
3742.439	-57.6
3745.136	-55.6
3747.83	-56.6
3750.523	-56.6
3753.213	-54.6
3755.902	-52.6
3758.589	-61.6
3761.273	-51.6
3763.956	-59.6
3766.636	-60.6
3769.315	-53.6
3771.991	-54.6
3774.665	-59.6
3777.338	-54.6
3780.008	-58.6
3782.677	-58.6
3785.343	-54.6
3788.007	-58.6
3790.67	-55.6
3793.33	-58.6
3795.989	-64.6
3798.645	-58.6
3801.299	-55.6
3803.952	-57.6
3806.602	-58.6
3809.251	-55.6
3811.897	-64.6
3814.542	-63.6
3817.184	-59.6
3819.825	-57.6
3822.463	-59.6
3825.1	-56.6
3827.735	-60.6
3830.367	-61.6
3832.998	-61.6
3835.627	-58.6
3838.253	-56.6
3840.878	-54.6
3843.501	-53.6
3846.122	-64.6
3848.741	-62.6
3851.358	-58.6
3853.973	-54.6
3856.586	-58.6
3859.197	-62.6
3861.806	-56.6
3864.414	-60.6
3867.019	-61.6
3869.622	-53.6
3872.224	-48.6
3874.823	-40.6
3877.421	-30.6
3880.016	-15.6
3882.61	2.4
3885.202	1.4
3887.792	-1.6
3890.38	-21.6
3892.966	-40.6
3895.55	-49.6
3898.132	-57.6
3900.713	-63.6
3903.291	-61.6
3905.868	-54.6
3908.442	-59.6
3911.015	-56.6
3913.586	-56.6
3916.155	-57.6
3918.722	-62.6
3921.287	-60.6
3923.85	-54.6
3926.411	-63.6
3928.971	-67.6
3931.528	-59.6
3934.084	-55.6
3936.638	-54.6
3939.19	-63.6
3941.74	-60.6
3944.288	-60.6
3946.834	-59.6
3949.378	-60.6
3951.921	-64.6
3954.462	-63.6
3957	-53.6
3959.537	-49.6
3962.072	-51.6
3964.606	-58.6
3967.137	-53.6
3969.667	-58.6
3972.194	-55.6
3974.72	-54.6
3977.244	-53.6
3979.766	-65.6
3982.286	-54.6
3984.805	-61.6
3987.321	-53.6
3989.836	-50.6
3992.349	-55.6
3994.86	-62.6
3997.369	-56.6
3999.877	-59.6
4002.382	-62.6
4004.886	-56.6
4007.388	-60.6
4009.888	-58.6
4012.386	-58.6
4014.883	-56.6
4017.377	-60.6
4019.87	-56.6
4022.361	-63.6
4024.85	-54.6
4027.338	-61.6
4029.823	-61.6
4032.307	-61.6
4034.789	-52.6
4037.269	-57.6
4039.747	-58.6
4042.224	-54.6
4044.699	-61.6
4047.172	-60.6
4049.643	-60.6
4052.112	-59.6
4054.58	-56.6
4057.046	-54.6
4059.51	-59.6
4061.972	-60.6
4064.432	-53.6
4066.891	-53.6
4069.348	-57.6
4071.803	-55.6
4074.256	-61.6
4076.708	-58.6
4079.158	-62.6
4081.606	-58.6
4084.052	-57.6
4086.497	-56.6
4088.939	-55.6
4091.38	-58.6
4093.819	-67.6
4096.257	-58.6
4098.693	-55.6
4101.127	-52.6
4103.559	-64.6
4105.989	19.4
4108.418	8.4
4110.845	4.4
4113.27	4.4
4115.694	9.4
4118.115	10.4
4120.535	-59.6
4122.954	-56.6
4125.37	-61.6
4127.785	-51.6
4130.198	-56.6
4132.609	-61.6
4135.019	-60.6
4137.427	-62.6
4139.833	-60.6
4142.237	-60.6
