Data from 2018-3-7_conc=0_n=6_RamanShift_05.txt Node
Date: Wed Mar 07 10:24:22 IST 2018
User: aro
Spectrometer: QEPB0276
Trigger mode: 0
Integration Time (sec): 3.000000E1
Scans to average: 1
Electric dark correction enabled: true
Nonlinearity correction enabled: false
Boxcar width: 0
XAxis mode: Raman Shifts
Number of Pixels in Spectrum: 1044
>>>>>Begin Spectral Data<<<<<
160.701	6.9
166.742	20.9
172.777	53.9
178.805	149.9
184.826	388.9
190.841	814.9
196.849	1330.9
202.85	1720.9
208.845	1895.9
214.833	1887.9
220.815	1877.9
226.789	1888.9
232.758	1887.9
238.719	1899.9
244.674	1889.9
250.623	1895.9
256.565	1901.9
262.5	1857.9
268.429	1872.9
274.351	1878.9
280.267	1855.9
286.176	1865.9
292.079	1883.9
297.975	1884.9
303.865	1871.9
309.748	1864.9
315.625	1866.9
321.495	1883.9
327.359	1909.9
333.217	1905.9
339.068	1901.9
344.912	1933.9
350.751	1916.9
356.583	1942.9
362.408	1939.9
368.227	1939.9
374.04	1959.9
379.847	1978.9
385.647	1984.9
391.44	1987.9
397.228	1985.9
403.009	2023.9
408.784	2044.9
414.553	2047.9
420.315	2057.9
426.071	2052.9
431.821	2055.9
437.565	2072.9
443.302	2041.9
449.033	2049.9
454.758	2038.9
460.477	2002.9
466.189	1984.9
471.896	1966.9
477.596	1959.9
483.29	1941.9
488.978	1930.9
494.66	1934.9
500.335	1877.9
506.005	1795.9
511.668	1678.9
517.325	1608.9
522.977	1551.9
528.622	1477.9
534.261	1448.9
539.894	1411.9
545.521	1394.9
551.141	1367.9
556.756	1356.9
562.365	1341.9
567.968	1323.9
573.565	1306.9
579.155	1317.9
584.74	1302.9
590.319	1305.9
595.892	1317.9
601.459	1302.9
607.02	1281.9
612.575	1276.9
618.124	1265.9
623.667	1243.9
629.204	1232.9
634.735	1206.9
640.261	1208.9
645.781	1200.9
651.294	1196.9
656.802	1177.9
662.304	1171.9
667.8	1171.9
673.29	1175.9
678.775	1164.9
684.254	1165.9
689.726	1152.9
695.193	1147.9
700.655	1151.9
706.11	1138.9
711.56	1129.9
717.004	1128.9
722.442	1110.9
727.874	1118.9
733.301	1109.9
738.722	1105.9
744.137	1111.9
749.547	1109.9
754.951	1096.9
760.349	1099.9
765.741	1115.9
771.128	1114.9
776.509	1123.9
781.885	1149.9
787.254	1163.9
792.618	1146.9
797.977	1159.9
803.33	1147.9
808.677	1142.9
814.019	1143.9
819.355	1118.9
824.686	1112.9
830.011	1102.9
835.33	1108.9
840.644	1111.9
845.952	1087.9
851.255	1089.9
856.552	1090.9
861.844	1065.9
867.13	1068.9
872.41	1086.9
877.686	1121.9
882.955	1141.9
888.219	1132.9
893.478	1090.9
898.731	1020.9
903.979	981.9
909.221	971.9
914.458	964.9
919.69	962.9
924.916	976.9
930.136	961.9
935.351	947.9
940.561	946.9
945.766	962.9
950.965	944.9
956.158	934.9
961.347	932.9
966.529	923.9
971.707	897.9
976.879	905.9
982.046	877.9
987.208	880.9
992.364	872.9
997.515	892.9
1002.66	886.9
1007.801	905.9
1012.936	919.9
1018.066	911.9
1023.19	920.9
1028.309	928.9
1033.423	938.9
1038.532	936.9
1043.636	949.9
1048.734	930.9
1053.827	942.9
1058.915	930.9
1063.998	912.9
1069.075	882.9
1074.147	893.9
1079.214	902.9
1084.276	923.9
1089.333	931.9
1094.385	931.9
1099.431	912.9
1104.472	898.9
1109.509	885.9
1114.54	856.9
1119.565	847.9
1124.586	824.9
1129.602	817.9
1134.613	815.9
1139.618	806.9
1144.619	801.9
1149.614	817.9
1154.604	813.9
1159.589	798.9
1164.57	817.9
1169.545	808.9
1174.515	825.9
1179.48	814.9
1184.44	810.9
1189.395	798.9
1194.345	799.9
1199.29	781.9
1204.23	790.9
1209.165	786.9
1214.095	791.9
1219.021	802.9
1223.941	800.9
1228.856	808.9
1233.766	789.9
1238.672	804.9
1243.572	778.9
1248.467	787.9
1253.358	777.9
1258.244	773.9
1263.124	757.9
1268	756.9
1272.871	734.9
1277.737	730.9
1282.599	741.9
1287.455	737.9
1292.306	747.9
1297.153	739.9
1301.995	736.9
1306.832	730.9
1311.664	742.9
1316.491	741.9
1321.314	732.9
1326.132	735.9
1330.945	709.9
1335.753	702.9
1340.556	691.9
1345.354	670.9
1350.148	647.9
1354.937	659.9
1359.722	631.9
1364.501	624.9
1369.276	610.9
1374.046	605.9
1378.811	598.9
1383.572	610.9
1388.327	607.9
1393.079	602.9
1397.825	608.9
1402.567	608.9
1407.304	616.9
1412.036	622.9
1416.764	609.9
1421.487	617.9
1426.205	614.9
1430.919	610.9
1435.628	626.9
1440.333	637.9
1445.032	627.9
1449.727	664.9
1454.418	678.9
1459.104	685.9
1463.785	663.9
1468.462	643.9
1473.134	620.9
1477.802	585.9
1482.465	561.9
1487.123	558.9
1491.777	541.9
1496.426	532.9
1501.071	522.9
1505.711	503.9
1510.347	511.9
1514.978	498.9
1519.604	499.9
1524.226	493.9
1528.844	499.9
1533.457	486.9
1538.065	505.9
1542.669	499.9
1547.269	485.9
1551.864	492.9
1556.454	505.9
1561.041	521.9
1565.622	527.9
1570.199	515.9
1574.772	512.9
1579.34	531.9
1583.904	535.9
1588.464	542.9
1593.019	534.9
1597.569	542.9
1602.115	527.9
1606.657	539.9
1611.195	530.9
1615.728	524.9
1620.256	530.9
1624.78	516.9
1629.3	515.9
1633.816	523.9
1638.327	533.9
1642.834	525.9
1647.336	520.9
1651.834	515.9
1656.328	525.9
1660.817	500.9
1665.302	498.9
1669.783	494.9
1674.259	479.9
1678.732	467.9
1683.199	451.9
1687.663	443.9
1692.122	416.9
1696.577	398.9
1701.028	374.9
1705.474	357.9
1709.917	352.9
1714.355	348.9
1718.788	347.9
1723.218	359.9
1727.643	354.9
1732.064	354.9
1736.481	346.9
1740.893	340.9
1745.301	337.9
1749.705	328.9
1754.105	322.9
1758.501	315.9
1762.893	313.9
1767.28	305.9
1771.663	299.9
1776.042	292.9
1780.417	282.9
1784.787	281.9
1789.154	276.9
1793.516	260.9
1797.874	255.9
1802.228	268.9
1806.578	257.9
1810.924	251.9
1815.266	255.9
1819.603	258.9
1823.937	262.9
1828.266	264.9
1832.591	269.9
1836.913	266.9
1841.23	259.9
1845.543	265.9
1849.852	270.9
1854.156	269.9
1858.457	261.9
1862.754	267.9
1867.047	262.9
1871.335	264.9
1875.62	259.9
1879.9	260.9
1884.177	243.9
1888.449	247.9
1892.718	244.9
1896.982	238.9
1901.243	227.9
1905.499	234.9
1909.752	234.9
1914	224.9
1918.245	226.9
1922.485	210.9
1926.722	201.9
1930.954	201.9
1935.183	207.9
1939.408	206.9
1943.628	208.9
1947.845	201.9
1952.058	200.9
1956.267	203.9
1960.472	200.9
1964.673	191.9
1968.87	199.9
1973.063	198.9
1977.252	202.9
1981.438	199.9
1985.619	196.9
1989.797	199.9
1993.971	195.9
1998.14	198.9
2002.306	206.9
2006.469	198.9
2010.627	207.9
2014.781	200.9
2018.932	204.9
2023.078	204.9
2027.221	200.9
2031.36	192.9
2035.495	188.9
2039.627	188.9
2043.754	189.9
2047.878	183.9
2051.998	179.9
2056.114	178.9
2060.226	175.9
2064.334	173.9
2068.439	168.9
2072.54	168.9
2076.637	173.9
2080.73	170.9
2084.82	175.9
2088.906	166.9
2092.988	163.9
2097.066	156.9
2101.14	166.9
2105.211	168.9
2109.278	155.9
2113.342	148.9
2117.401	154.9
2121.457	149.9
2125.509	154.9
2129.558	154.9
2133.602	153.9
2137.643	162.9
2141.681	157.9
2145.714	157.9
2149.744	153.9
2153.77	160.9
2157.793	156.9
2161.812	159.9
2165.827	162.9
2169.838	155.9
2173.846	146.9
2177.851	146.9
2181.851	146.9
2185.848	143.9
2189.841	141.9
2193.831	138.9
2197.817	138.9
2201.799	137.9
2205.778	139.9
2209.753	146.9
2213.725	143.9
2217.693	144.9
2221.657	142.9
2225.618	133.9
2229.575	134.9
2233.529	132.9
2237.479	143.9
2241.425	136.9
2245.368	137.9
2249.307	142.9
2253.243	130.9
2257.175	128.9
2261.104	123.9
2265.029	131.9
2268.95	126.9
2272.868	118.9
2276.783	119.9
2280.694	117.9
2284.601	112.9
2288.505	120.9
2292.405	125.9
2296.302	117.9
2300.195	111.9
2304.085	105.9
2307.971	109.9
2311.854	107.9
2315.734	103.9
2319.609	116.9
2323.482	112.9
2327.351	114.9
2331.216	122.9
2335.078	137.9
2338.937	128.9
2342.792	115.9
2346.643	118.9
2350.492	115.9
2354.336	116.9
2358.178	97.9
2362.015	103.9
2365.85	108.9
2369.681	109.9
2373.508	111.9
2377.333	103.9
2381.153	106.9
2384.971	105.9
2388.785	107.9
2392.595	115.9
2396.402	109.9
2400.206	107.9
2404.007	104.9
2407.804	108.9
2411.597	109.9
2415.388	106.9
2419.174	113.9
2422.958	108.9
2426.738	104.9
2430.515	106.9
2434.289	102.9
2438.059	99.9
2441.825	96.9
2445.589	96.9
2449.349	95.9
2453.106	94.9
2456.859	93.9
2460.61	89.9
2464.356	87.9
2468.1	88.9
2471.84	86.9
2475.577	87.9
2479.311	87.9
2483.041	87.9
2486.768	81.9
2490.492	86.9
2494.213	78.9
2497.93	80.9
2501.644	81.9
2505.355	80.9
2509.062	77.9
2512.766	78.9
2516.467	73.9
2520.165	75.9
2523.859	77.9
2527.551	70.9
2531.239	64.9
2534.923	67.9
2538.605	61.9
2542.283	63.9
2545.958	69.9
2549.63	62.9
2553.299	71.9
2556.964	59.9
2560.626	65.9
2564.285	55.9
2567.941	53.9
2571.594	53.9
2575.243	59.9
2578.89	57.9
2582.533	56.9
2586.173	56.9
2589.809	60.9
2593.443	57.9
2597.073	51.9
2600.701	64.9
2604.325	51.9
2607.946	52.9
2611.564	51.9
2615.178	56.9
2618.79	47.9
2622.398	46.9
2626.004	43.9
2629.606	42.9
2633.205	48.9
2636.801	50.9
2640.394	49.9
2643.983	50.9
2647.57	45.9
2651.153	46.9
2654.734	42.9
2658.311	47.9
2661.885	46.9
2665.456	49.9
2669.025	46.9
2672.589	42.9
2676.151	42.9
2679.71	32.9
2683.266	39.9
2686.819	44.9
2690.368	45.9
2693.915	40.9
2697.458	41.9
2700.999	43.9
2704.536	45.9
2708.071	40.9
2711.602	36.9
2715.13	27.9
2718.656	34.9
2722.178	32.9
2725.697	29.9
2729.214	31.9
2732.727	39.9
2736.237	39.9
2739.744	31.9
2743.249	26.9
2746.75	25.9
2750.248	22.9
2753.743	25.9
2757.236	20.9
2760.725	24.9
2764.211	20.9
2767.695	17.9
2771.175	21.9
2774.652	18.9
2778.127	16.9
2781.598	13.9
2785.067	19.9
2788.532	16.9
2791.995	22.9
2795.455	15.9
2798.911	21.9
2802.365	18.9
2805.816	22.9
2809.264	15.9
2812.709	15.9
2816.151	22.9
2819.59	29.9
2823.026	27.9
2826.46	27.9
2829.89	22.9
2833.318	19.9
2836.742	32.9
2840.164	26.9
2843.583	23.9
2846.999	35.9
2850.412	30.9
2853.822	34.9
2857.229	36.9
2860.634	33.9
2864.035	36.9
2867.434	34.9
2870.83	43.9
2874.223	43.9
2877.613	48.9
2881	52.9
2884.385	62.9
2887.766	60.9
2891.145	53.9
2894.521	62.9
2897.894	57.9
2901.264	62.9
2904.631	52.9
2907.996	55.9
2911.358	69.9
2914.717	65.9
2918.073	59.9
2921.426	57.9
2924.777	66.9
2928.124	71.9
2931.469	76.9
2934.811	89.9
2938.15	93.9
2941.487	98.9
2944.821	84.9
2948.152	84.9
2951.48	72.9
2954.805	76.9
2958.128	63.9
2961.447	70.9
2964.765	54.9
2968.079	54.9
2971.39	53.9
2974.699	49.9
2978.005	58.9
2981.308	51.9
2984.609	56.9
2987.907	54.9
2991.202	56.9
2994.494	61.9
2997.784	44.9
3001.07	49.9
3004.355	48.9
3007.636	46.9
3010.915	43.9
3014.191	44.9
3017.464	46.9
3020.734	47.9
3024.002	55.9
3027.267	48.9
3030.53	47.9
3033.789	52.9
3037.046	42.9
3040.301	49.9
3043.552	57.9
3046.801	57.9
3050.048	55.9
3053.291	51.9
3056.532	60.9
3059.771	61.9
3063.006	61.9
3066.239	73.9
3069.469	77.9
3072.697	75.9
3075.922	72.9
3079.144	76.9
3082.364	82.9
3085.581	70.9
3088.795	83.9
3092.007	87.9
3095.216	88.9
3098.423	86.9
3101.627	87.9
3104.828	93.9
3108.026	94.9
3111.222	93.9
3114.416	94.9
3117.607	96.9
3120.795	101.9
3123.98	98.9
3127.163	114.9
3130.344	111.9
3133.521	114.9
3136.696	118.9
3139.869	118.9
3143.039	122.9
3146.206	126.9
3149.371	122.9
3152.533	131.9
3155.693	131.9
3158.85	127.9
3162.005	121.9
3165.157	127.9
3168.306	130.9
3171.453	126.9
3174.597	128.9
3177.739	131.9
3180.878	135.9
3184.014	126.9
3187.149	131.9
3190.28	132.9
3193.409	132.9
3196.536	126.9
3199.659	135.9
3202.781	134.9
3205.9	126.9
3209.016	123.9
3212.13	134.9
3215.241	124.9
3218.35	123.9
3221.456	133.9
3224.56	119.9
3227.661	131.9
3230.76	122.9
3233.856	117.9
3236.95	109.9
3240.041	103.9
3243.13	113.9
3246.216	101.9
3249.3	97.9
3252.382	102.9
3255.46	105.9
3258.537	102.9
3261.611	93.9
3264.682	90.9
3267.751	100.9
3270.818	90.9
3273.882	94.9
3276.943	96.9
3280.002	91.9
3283.059	94.9
3286.113	83.9
3289.165	89.9
3292.214	88.9
3295.261	88.9
3298.306	86.9
3301.348	89.9
3304.387	86.9
3307.425	83.9
3310.459	83.9
3313.492	87.9
3316.521	84.9
3319.549	86.9
3322.574	80.9
3325.597	83.9
3328.617	83.9
3331.635	82.9
3334.65	85.9
3337.663	67.9
3340.674	81.9
3343.682	81.9
3346.688	80.9
3349.691	89.9
3352.692	82.9
3355.691	87.9
3358.687	76.9
3361.681	76.9
3364.673	75.9
3367.662	80.9
3370.649	75.9
3373.633	73.9
3376.615	72.9
3379.595	75.9
3382.572	107.9
3385.547	177.9
3388.52	177.9
3391.49	121.9
3394.458	75.9
3397.424	66.9
3400.387	66.9
3403.348	59.9
3406.307	45.9
3409.263	55.9
3412.217	54.9
3415.168	61.9
3418.118	55.9
3421.065	50.9
3424.009	49.9
3426.951	48.9
3429.891	44.9
3432.829	45.9
3435.764	40.9
3438.697	43.9
3441.628	32.9
3444.557	37.9
3447.483	35.9
3450.407	28.9
3453.328	32.9
3456.247	25.9
3459.164	25.9
3462.079	19.9
3464.991	15.9
3467.902	16.9
3470.809	19.9
3473.715	10.9
3476.618	12.9
3479.519	8.9
3482.418	0.9
3485.315	5.9
3488.209	-5.1
3491.101	-2.1
3493.99	5.9
3496.878	1.9
3499.763	-0.1
3502.646	-1.1
3505.527	-2.1
3508.405	-0.1
3511.281	-12.1
3514.155	-13.1
3517.027	-11.1
3519.897	-7.1
3522.764	-11.1
3525.629	-9.1
3528.492	-15.1
3531.352	-22.1
3534.211	-25.1
3537.067	-26.1
3539.921	-18.1
3542.773	-27.1
3545.622	-23.1
3548.469	-29.1
3551.315	-20.1
3554.157	-25.1
3556.998	-20.1
3559.837	-31.1
3562.673	-26.1
3565.507	-30.1
3568.339	-27.1
3571.169	-30.1
3573.996	-30.1
3576.822	-38.1
3579.645	-32.1
3582.466	-33.1
3585.285	-39.1
3588.101	-41.1
3590.916	-31.1
3593.728	-41.1
3596.538	-34.1
3599.346	-35.1
3602.152	-36.1
3604.956	-35.1
3607.757	-30.1
3610.556	-39.1
3613.354	-50.1
3616.149	-45.1
3618.942	-36.1
3621.732	-41.1
3624.521	-42.1
3627.307	-38.1
3630.092	-44.1
3632.874	-44.1
3635.654	-45.1
3638.432	-43.1
3641.208	-48.1
3643.982	-40.1
3646.753	-46.1
3649.523	-39.1
3652.29	-43.1
3655.055	-47.1
3657.818	-45.1
3660.579	-51.1
3663.338	-45.1
3666.095	-50.1
3668.849	-48.1
3671.602	-46.1
3674.352	-41.1
3677.101	-46.1
3679.847	-45.1
3682.591	-49.1
3685.333	-45.1
3688.073	-58.1
3690.811	-51.1
3693.547	-48.1
3696.281	-45.1
3699.013	-53.1
3701.742	-51.1
3704.47	-49.1
3707.195	-52.1
3709.919	-47.1
3712.64	-47.1
3715.359	-48.1
3718.076	-51.1
3720.792	-48.1
3723.505	-50.1
3726.216	-50.1
3728.925	-58.1
3731.632	-53.1
3734.336	-55.1
3737.039	-50.1
3739.74	-51.1
3742.439	-54.1
3745.136	-54.1
3747.83	-51.1
3750.523	-57.1
3753.213	-66.1
3755.902	-56.1
3758.589	-56.1
3761.273	-51.1
3763.956	-56.1
3766.636	-44.1
3769.315	-50.1
3771.991	-56.1
3774.665	-57.1
3777.338	-52.1
3780.008	-59.1
3782.677	-58.1
3785.343	-49.1
3788.007	-57.1
3790.67	-50.1
3793.33	-55.1
3795.989	-59.1
3798.645	-57.1
3801.299	-51.1
3803.952	-52.1
3806.602	-56.1
3809.251	-56.1
3811.897	-57.1
3814.542	-59.1
3817.184	-53.1
3819.825	-52.1
3822.463	-50.1
3825.1	-49.1
3827.735	-63.1
3830.367	-53.1
3832.998	-59.1
3835.627	-56.1
3838.253	-52.1
3840.878	-50.1
3843.501	-52.1
3846.122	-57.1
3848.741	-55.1
3851.358	-59.1
3853.973	-53.1
3856.586	-52.1
3859.197	-50.1
3861.806	-55.1
3864.414	-58.1
3867.019	-56.1
3869.622	-47.1
3872.224	-45.1
3874.823	-38.1
3877.421	-35.1
3880.016	-29.1
3882.61	-12.1
3885.202	-18.1
3887.792	-15.1
3890.38	-27.1
3892.966	-45.1
3895.55	-48.1
3898.132	-53.1
3900.713	-54.1
3903.291	-56.1
3905.868	-55.1
3908.442	-52.1
3911.015	-55.1
3913.586	-62.1
3916.155	-58.1
3918.722	-58.1
3921.287	-61.1
3923.85	-49.1
3926.411	-61.1
3928.971	-61.1
3931.528	-58.1
3934.084	-56.1
3936.638	-56.1
3939.19	-65.1
3941.74	-52.1
3944.288	-58.1
3946.834	-53.1
3949.378	-58.1
3951.921	-61.1
3954.462	-56.1
3957	-51.1
3959.537	-49.1
3962.072	-54.1
3964.606	-54.1
3967.137	-55.1
3969.667	-59.1
3972.194	-48.1
3974.72	-50.1
3977.244	-53.1
3979.766	-57.1
3982.286	-59.1
3984.805	-59.1
3987.321	-55.1
3989.836	-50.1
3992.349	-56.1
3994.86	-54.1
3997.369	-60.1
3999.877	-59.1
4002.382	-56.1
4004.886	-58.1
4007.388	-58.1
4009.888	-54.1
4012.386	-56.1
4014.883	-53.1
4017.377	-53.1
4019.87	-53.1
4022.361	-62.1
4024.85	-55.1
4027.338	-56.1
4029.823	-53.1
4032.307	-58.1
4034.789	-52.1
4037.269	-54.1
4039.747	-58.1
4042.224	-57.1
4044.699	-63.1
4047.172	-60.1
4049.643	-54.1
4052.112	-56.1
4054.58	-53.1
4057.046	-53.1
4059.51	-60.1
4061.972	-56.1
4064.432	-53.1
4066.891	-52.1
4069.348	-51.1
4071.803	-50.1
4074.256	-53.1
4076.708	-53.1
4079.158	-54.1
4081.606	-55.1
4084.052	-60.1
4086.497	-52.1
4088.939	-53.1
4091.38	-57.1
4093.819	-58.1
4096.257	-55.1
4098.693	-58.1
4101.127	-51.1
4103.559	-57.1
4105.989	7.9
4108.418	4.9
4110.845	4.9
4113.27	5.9
4115.694	4.9
4118.115	5.9
4120.535	-53.1
4122.954	-50.1
4125.37	-55.1
4127.785	-48.1
4130.198	-51.1
4132.609	-57.1
4135.019	-57.1
4137.427	-59.1
4139.833	-57.1
4142.237	-58.1
