Data from 2018-3-7_conc=4_n=9_RamanShift_05.txt Node
Date: Wed Mar 07 12:17:22 IST 2018
User: aro
Spectrometer: QEPB0276
Trigger mode: 0
Integration Time (sec): 3.000000E1
Scans to average: 1
Electric dark correction enabled: true
Nonlinearity correction enabled: false
Boxcar width: 0
XAxis mode: Raman Shifts
Number of Pixels in Spectrum: 1044
>>>>>Begin Spectral Data<<<<<
160.701	8.8
166.742	13.8
172.777	44.8
178.805	139.8
184.826	358.8
190.841	785.8
196.849	1280.8
202.85	1684.8
208.845	1844.8
214.833	1854.8
220.815	1837.8
226.789	1821.8
232.758	1827.8
238.719	1813.8
244.674	1804.8
250.623	1793.8
256.565	1775.8
262.5	1734.8
268.429	1717.8
274.351	1708.8
280.267	1701.8
286.176	1675.8
292.079	1693.8
297.975	1672.8
303.865	1686.8
309.748	1679.8
315.625	1678.8
321.495	1661.8
327.359	1664.8
333.217	1664.8
339.068	1682.8
344.912	1679.8
350.751	1682.8
356.583	1665.8
362.408	1671.8
368.227	1695.8
374.04	1684.8
379.847	1700.8
385.647	1699.8
391.44	1707.8
397.228	1713.8
403.009	1731.8
408.784	1728.8
414.553	1750.8
420.315	1732.8
426.071	1732.8
431.821	1741.8
437.565	1726.8
443.302	1716.8
449.033	1741.8
454.758	1726.8
460.477	1692.8
466.189	1712.8
471.896	1688.8
477.596	1682.8
483.29	1674.8
488.978	1683.8
494.66	1669.8
500.335	1641.8
506.005	1592.8
511.668	1512.8
517.325	1474.8
522.977	1440.8
528.622	1392.8
534.261	1382.8
539.894	1355.8
545.521	1358.8
551.141	1318.8
556.756	1308.8
562.365	1308.8
567.968	1315.8
573.565	1301.8
579.155	1280.8
584.74	1280.8
590.319	1286.8
595.892	1283.8
601.459	1268.8
607.02	1264.8
612.575	1266.8
618.124	1232.8
623.667	1223.8
629.204	1216.8
634.735	1212.8
640.261	1188.8
645.781	1179.8
651.294	1195.8
656.802	1185.8
662.304	1188.8
667.8	1186.8
673.29	1171.8
678.775	1179.8
684.254	1167.8
689.726	1156.8
695.193	1164.8
700.655	1146.8
706.11	1127.8
711.56	1139.8
717.004	1141.8
722.442	1110.8
727.874	1112.8
733.301	1123.8
738.722	1108.8
744.137	1097.8
749.547	1095.8
754.951	1098.8
760.349	1105.8
765.741	1092.8
771.128	1115.8
776.509	1120.8
781.885	1141.8
787.254	1124.8
792.618	1117.8
797.977	1119.8
803.33	1113.8
808.677	1099.8
814.019	1097.8
819.355	1081.8
824.686	1077.8
830.011	1077.8
835.33	1084.8
840.644	1072.8
845.952	1069.8
851.255	1064.8
856.552	1064.8
861.844	1061.8
867.13	1041.8
872.41	1033.8
877.686	1042.8
882.955	1038.8
888.219	1006.8
893.478	996.8
898.731	988.8
903.979	975.8
909.221	997.8
914.458	978.8
919.69	962.8
924.916	980.8
930.136	980.8
935.351	975.8
940.561	970.8
945.766	966.8
950.965	956.8
956.158	962.8
961.347	953.8
966.529	928.8
971.707	911.8
976.879	906.8
982.046	901.8
987.208	905.8
992.364	889.8
997.515	898.8
1002.66	903.8
1007.801	921.8
1012.936	922.8
1018.066	930.8
1023.19	931.8
1028.309	931.8
1033.423	928.8
1038.532	927.8
1043.636	914.8
1048.734	903.8
1053.827	896.8
1058.915	873.8
1063.998	863.8
1069.075	869.8
1074.147	876.8
1079.214	876.8
1084.276	889.8
1089.333	889.8
1094.385	884.8
1099.431	882.8
1104.472	877.8
1109.509	867.8
1114.54	867.8
1119.565	852.8
1124.586	845.8
1129.602	823.8
1134.613	820.8
1139.618	818.8
1144.619	812.8
1149.614	826.8
1154.604	823.8
1159.589	831.8
1164.57	821.8
1169.545	831.8
1174.515	827.8
1179.48	822.8
1184.44	806.8
1189.395	811.8
1194.345	814.8
1199.29	792.8
1204.23	806.8
1209.165	806.8
1214.095	815.8
1219.021	805.8
1223.941	812.8
1228.856	828.8
1233.766	825.8
1238.672	825.8
1243.572	803.8
1248.467	821.8
1253.358	806.8
1258.244	797.8
1263.124	767.8
1268	757.8
1272.871	759.8
1277.737	743.8
1282.599	748.8
1287.455	747.8
1292.306	738.8
1297.153	761.8
1301.995	750.8
1306.832	763.8
1311.664	776.8
1316.491	767.8
1321.314	752.8
1326.132	756.8
1330.945	744.8
1335.753	735.8
1340.556	704.8
1345.354	684.8
1350.148	696.8
1354.937	673.8
1359.722	656.8
1364.501	642.8
1369.276	622.8
1374.046	616.8
1378.811	602.8
1383.572	623.8
1388.327	607.8
1393.079	615.8
1397.825	617.8
1402.567	628.8
1407.304	633.8
1412.036	632.8
1416.764	625.8
1421.487	622.8
1426.205	629.8
1430.919	616.8
1435.628	635.8
1440.333	638.8
1445.032	647.8
1449.727	653.8
1454.418	652.8
1459.104	651.8
1463.785	625.8
1468.462	609.8
1473.134	613.8
1477.802	591.8
1482.465	573.8
1487.123	560.8
1491.777	559.8
1496.426	543.8
1501.071	544.8
1505.711	534.8
1510.347	521.8
1514.978	533.8
1519.604	526.8
1524.226	535.8
1528.844	528.8
1533.457	527.8
1538.065	508.8
1542.669	519.8
1547.269	509.8
1551.864	521.8
1556.454	526.8
1561.041	532.8
1565.622	538.8
1570.199	534.8
1574.772	532.8
1579.34	559.8
1583.904	557.8
1588.464	574.8
1593.019	569.8
1597.569	573.8
1602.115	561.8
1606.657	572.8
1611.195	562.8
1615.728	560.8
1620.256	564.8
1624.78	568.8
1629.3	571.8
1633.816	567.8
1638.327	572.8
1642.834	558.8
1647.336	560.8
1651.834	562.8
1656.328	567.8
1660.817	555.8
1665.302	541.8
1669.783	534.8
1674.259	531.8
1678.732	530.8
1683.199	491.8
1687.663	483.8
1692.122	453.8
1696.577	450.8
1701.028	412.8
1705.474	401.8
1709.917	385.8
1714.355	373.8
1718.788	372.8
1723.218	374.8
1727.643	380.8
1732.064	378.8
1736.481	379.8
1740.893	362.8
1745.301	353.8
1749.705	354.8
1754.105	347.8
1758.501	320.8
1762.893	329.8
1767.28	317.8
1771.663	320.8
1776.042	314.8
1780.417	309.8
1784.787	302.8
1789.154	298.8
1793.516	284.8
1797.874	283.8
1802.228	280.8
1806.578	281.8
1810.924	277.8
1815.266	272.8
1819.603	279.8
1823.937	273.8
1828.266	272.8
1832.591	281.8
1836.913	278.8
1841.23	284.8
1845.543	278.8
1849.852	284.8
1854.156	289.8
1858.457	289.8
1862.754	293.8
1867.047	285.8
1871.335	290.8
1875.62	287.8
1879.9	281.8
1884.177	279.8
1888.449	278.8
1892.718	277.8
1896.982	268.8
1901.243	259.8
1905.499	252.8
1909.752	251.8
1914	248.8
1918.245	236.8
1922.485	232.8
1926.722	228.8
1930.954	232.8
1935.183	232.8
1939.408	232.8
1943.628	220.8
1947.845	223.8
1952.058	226.8
1956.267	213.8
1960.472	223.8
1964.673	205.8
1968.87	213.8
1973.063	214.8
1977.252	221.8
1981.438	219.8
1985.619	207.8
1989.797	211.8
1993.971	215.8
1998.14	213.8
2002.306	224.8
2006.469	228.8
2010.627	216.8
2014.781	220.8
2018.932	217.8
2023.078	221.8
2027.221	216.8
2031.36	224.8
2035.495	209.8
2039.627	197.8
2043.754	212.8
2047.878	204.8
2051.998	205.8
2056.114	201.8
2060.226	200.8
2064.334	191.8
2068.439	189.8
2072.54	189.8
2076.637	193.8
2080.73	194.8
2084.82	190.8
2088.906	183.8
2092.988	179.8
2097.066	181.8
2101.14	184.8
2105.211	192.8
2109.278	174.8
2113.342	170.8
2117.401	170.8
2121.457	180.8
2125.509	171.8
2129.558	174.8
2133.602	177.8
2137.643	163.8
2141.681	162.8
2145.714	170.8
2149.744	170.8
2153.77	174.8
2157.793	171.8
2161.812	182.8
2165.827	169.8
2169.838	168.8
2173.846	171.8
2177.851	163.8
2181.851	165.8
2185.848	153.8
2189.841	161.8
2193.831	162.8
2197.817	159.8
2201.799	157.8
2205.778	150.8
2209.753	159.8
2213.725	153.8
2217.693	153.8
2221.657	155.8
2225.618	145.8
2229.575	153.8
2233.529	151.8
2237.479	152.8
2241.425	141.8
2245.368	152.8
2249.307	146.8
2253.243	142.8
2257.175	141.8
2261.104	137.8
2265.029	139.8
2268.95	143.8
2272.868	138.8
2276.783	133.8
2280.694	127.8
2284.601	122.8
2288.505	125.8
2292.405	128.8
2296.302	130.8
2300.195	122.8
2304.085	117.8
2307.971	126.8
2311.854	116.8
2315.734	113.8
2319.609	121.8
2323.482	121.8
2327.351	121.8
2331.216	129.8
2335.078	141.8
2338.937	129.8
2342.792	122.8
2346.643	118.8
2350.492	117.8
2354.336	117.8
2358.178	111.8
2362.015	116.8
2365.85	113.8
2369.681	121.8
2373.508	119.8
2377.333	115.8
2381.153	115.8
2384.971	113.8
2388.785	111.8
2392.595	125.8
2396.402	120.8
2400.206	127.8
2404.007	120.8
2407.804	114.8
2411.597	119.8
2415.388	112.8
2419.174	114.8
2422.958	110.8
2426.738	108.8
2430.515	103.8
2434.289	105.8
2438.059	104.8
2441.825	104.8
2445.589	104.8
2449.349	98.8
2453.106	103.8
2456.859	101.8
2460.61	97.8
2464.356	99.8
2468.1	99.8
2471.84	94.8
2475.577	91.8
2479.311	96.8
2483.041	95.8
2486.768	87.8
2490.492	88.8
2494.213	88.8
2497.93	93.8
2501.644	85.8
2505.355	79.8
2509.062	84.8
2512.766	93.8
2516.467	84.8
2520.165	80.8
2523.859	89.8
2527.551	79.8
2531.239	80.8
2534.923	72.8
2538.605	71.8
2542.283	73.8
2545.958	79.8
2549.63	81.8
2553.299	70.8
2556.964	71.8
2560.626	66.8
2564.285	67.8
2567.941	62.8
2571.594	65.8
2575.243	72.8
2578.89	68.8
2582.533	57.8
2586.173	67.8
2589.809	65.8
2593.443	67.8
2597.073	64.8
2600.701	66.8
2604.325	58.8
2607.946	57.8
2611.564	62.8
2615.178	65.8
2618.79	54.8
2622.398	58.8
2626.004	52.8
2629.606	50.8
2633.205	57.8
2636.801	58.8
2640.394	56.8
2643.983	54.8
2647.57	51.8
2651.153	48.8
2654.734	51.8
2658.311	50.8
2661.885	58.8
2665.456	61.8
2669.025	55.8
2672.589	47.8
2676.151	51.8
2679.71	44.8
2683.266	50.8
2686.819	53.8
2690.368	48.8
2693.915	48.8
2697.458	40.8
2700.999	55.8
2704.536	42.8
2708.071	43.8
2711.602	38.8
2715.13	32.8
2718.656	38.8
2722.178	36.8
2725.697	33.8
2729.214	40.8
2732.727	37.8
2736.237	37.8
2739.744	34.8
2743.249	32.8
2746.75	29.8
2750.248	33.8
2753.743	26.8
2757.236	22.8
2760.725	27.8
2764.211	24.8
2767.695	21.8
2771.175	21.8
2774.652	20.8
2778.127	23.8
2781.598	20.8
2785.067	20.8
2788.532	24.8
2791.995	25.8
2795.455	21.8
2798.911	17.8
2802.365	27.8
2805.816	25.8
2809.264	27.8
2812.709	17.8
2816.151	28.8
2819.59	35.8
2823.026	26.8
2826.46	27.8
2829.89	23.8
2833.318	27.8
2836.742	33.8
2840.164	27.8
2843.583	27.8
2846.999	35.8
2850.412	28.8
2853.822	30.8
2857.229	27.8
2860.634	20.8
2864.035	30.8
2867.434	32.8
2870.83	37.8
2874.223	33.8
2877.613	33.8
2881	33.8
2884.385	40.8
2887.766	42.8
2891.145	36.8
2894.521	43.8
2897.894	36.8
2901.264	46.8
2904.631	40.8
2907.996	45.8
2911.358	46.8
2914.717	43.8
2918.073	40.8
2921.426	43.8
2924.777	46.8
2928.124	48.8
2931.469	44.8
2934.811	58.8
2938.15	60.8
2941.487	64.8
2944.821	57.8
2948.152	63.8
2951.48	59.8
2954.805	59.8
2958.128	51.8
2961.447	52.8
2964.765	54.8
2968.079	48.8
2971.39	47.8
2974.699	43.8
2978.005	57.8
2981.308	52.8
2984.609	42.8
2987.907	54.8
2991.202	50.8
2994.494	51.8
2997.784	40.8
3001.07	53.8
3004.355	52.8
3007.636	58.8
3010.915	55.8
3014.191	46.8
3017.464	56.8
3020.734	58.8
3024.002	59.8
3027.267	63.8
3030.53	64.8
3033.789	63.8
3037.046	67.8
3040.301	63.8
3043.552	71.8
3046.801	72.8
3050.048	73.8
3053.291	69.8
3056.532	78.8
3059.771	80.8
3063.006	85.8
3066.239	86.8
3069.469	93.8
3072.697	91.8
3075.922	95.8
3079.144	97.8
3082.364	100.8
3085.581	107.8
3088.795	112.8
3092.007	108.8
3095.216	114.8
3098.423	115.8
3101.627	113.8
3104.828	120.8
3108.026	125.8
3111.222	121.8
3114.416	120.8
3117.607	135.8
3120.795	127.8
3123.98	137.8
3127.163	148.8
3130.344	142.8
3133.521	144.8
3136.696	151.8
3139.869	149.8
3143.039	158.8
3146.206	158.8
3149.371	164.8
3152.533	172.8
3155.693	168.8
3158.85	165.8
3162.005	164.8
3165.157	169.8
3168.306	161.8
3171.453	174.8
3174.597	164.8
3177.739	179.8
3180.878	164.8
3184.014	161.8
3187.149	177.8
3190.28	166.8
3193.409	169.8
3196.536	175.8
3199.659	176.8
3202.781	175.8
3205.9	177.8
3209.016	165.8
3212.13	178.8
3215.241	174.8
3218.35	170.8
3221.456	170.8
3224.56	163.8
3227.661	163.8
3230.76	164.8
3233.856	146.8
3236.95	144.8
3240.041	145.8
3243.13	152.8
3246.216	133.8
3249.3	137.8
3252.382	136.8
3255.46	138.8
3258.537	135.8
3261.611	134.8
3264.682	135.8
3267.751	137.8
3270.818	123.8
3273.882	136.8
3276.943	129.8
3280.002	142.8
3283.059	131.8
3286.113	129.8
3289.165	128.8
3292.214	123.8
3295.261	126.8
3298.306	124.8
3301.348	123.8
3304.387	120.8
3307.425	120.8
3310.459	109.8
3313.492	119.8
3316.521	117.8
3319.549	121.8
3322.574	118.8
3325.597	123.8
3328.617	115.8
3331.635	126.8
3334.65	124.8
3337.663	109.8
3340.674	118.8
3343.682	115.8
3346.688	118.8
3349.691	116.8
3352.692	124.8
3355.691	122.8
3358.687	113.8
3361.681	115.8
3364.673	109.8
3367.662	104.8
3370.649	111.8
3373.633	106.8
3376.615	100.8
3379.595	98.8
3382.572	101.8
3385.547	108.8
3388.52	105.8
3391.49	90.8
3394.458	90.8
3397.424	96.8
3400.387	89.8
3403.348	83.8
3406.307	80.8
3409.263	89.8
3412.217	77.8
3415.168	83.8
3418.118	75.8
3421.065	78.8
3424.009	81.8
3426.951	76.8
3429.891	70.8
3432.829	71.8
3435.764	75.8
3438.697	73.8
3441.628	62.8
3444.557	62.8
3447.483	63.8
3450.407	52.8
3453.328	58.8
3456.247	53.8
3459.164	52.8
3462.079	42.8
3464.991	46.8
3467.902	36.8
3470.809	37.8
3473.715	37.8
3476.618	30.8
3479.519	29.8
3482.418	23.8
3485.315	26.8
3488.209	20.8
3491.101	23.8
3493.99	27.8
3496.878	14.8
3499.763	19.8
3502.646	15.8
3505.527	15.8
3508.405	10.8
3511.281	16.8
3514.155	6.8
3517.027	-1.2
3519.897	7.8
3522.764	3.8
3525.629	-0.2
3528.492	-2.2
3531.352	-4.2
3534.211	-9.2
3537.067	-8.2
3539.921	-7.2
3542.773	-14.2
3545.622	-7.2
3548.469	-10.2
3551.315	-10.2
3554.157	-15.2
3556.998	-17.2
3559.837	-16.2
3562.673	-18.2
3565.507	-24.2
3568.339	-16.2
3571.169	-24.2
3573.996	-17.2
3576.822	-26.2
3579.645	-31.2
3582.466	-24.2
3585.285	-27.2
3588.101	-29.2
3590.916	-28.2
3593.728	-27.2
3596.538	-30.2
3599.346	-30.2
3602.152	-28.2
3604.956	-29.2
3607.757	-22.2
3610.556	-25.2
3613.354	-35.2
3616.149	-34.2
3618.942	-33.2
3621.732	-35.2
3624.521	-35.2
3627.307	-34.2
3630.092	-35.2
3632.874	-40.2
3635.654	-34.2
3638.432	-31.2
3641.208	-38.2
3643.982	-39.2
3646.753	-38.2
3649.523	-34.2
3652.29	-41.2
3655.055	-40.2
3657.818	-39.2
3660.579	-43.2
3663.338	-31.2
3666.095	-41.2
3668.849	-41.2
3671.602	-42.2
3674.352	-42.2
3677.101	-37.2
3679.847	-43.2
3682.591	-46.2
3685.333	-45.2
3688.073	-47.2
3690.811	-47.2
3693.547	-41.2
3696.281	-43.2
3699.013	-42.2
3701.742	-44.2
3704.47	-41.2
3707.195	-39.2
3709.919	-45.2
3712.64	-43.2
3715.359	-47.2
3718.076	-48.2
3720.792	-49.2
3723.505	-42.2
3726.216	-42.2
3728.925	-47.2
3731.632	-46.2
3734.336	-46.2
3737.039	-43.2
3739.74	-53.2
3742.439	-50.2
3745.136	-47.2
3747.83	-45.2
3750.523	-52.2
3753.213	-62.2
3755.902	-52.2
3758.589	-48.2
3761.273	-43.2
3763.956	-46.2
3766.636	-46.2
3769.315	-41.2
3771.991	-48.2
3774.665	-56.2
3777.338	-51.2
3780.008	-45.2
3782.677	-53.2
3785.343	-50.2
3788.007	-50.2
3790.67	-49.2
3793.33	-47.2
3795.989	-50.2
3798.645	-55.2
3801.299	-50.2
3803.952	-46.2
3806.602	-50.2
3809.251	-51.2
3811.897	-53.2
3814.542	-54.2
3817.184	-48.2
3819.825	-42.2
3822.463	-50.2
3825.1	-47.2
3827.735	-61.2
3830.367	-53.2
3832.998	-58.2
3835.627	-51.2
3838.253	-47.2
3840.878	-46.2
3843.501	-47.2
3846.122	-53.2
3848.741	-47.2
3851.358	-44.2
3853.973	-47.2
3856.586	-46.2
3859.197	-46.2
3861.806	-51.2
3864.414	-51.2
3867.019	-46.2
3869.622	-44.2
3872.224	-43.2
3874.823	-30.2
3877.421	-29.2
3880.016	-22.2
3882.61	1.8
3885.202	-3.2
3887.792	-12.2
3890.38	-29.2
3892.966	-34.2
3895.55	-45.2
3898.132	-49.2
3900.713	-51.2
3903.291	-51.2
3905.868	-48.2
3908.442	-47.2
3911.015	-48.2
3913.586	-51.2
3916.155	-49.2
3918.722	-53.2
3921.287	-52.2
3923.85	-44.2
3926.411	-52.2
3928.971	-61.2
3931.528	-54.2
3934.084	-50.2
3936.638	-49.2
3939.19	-60.2
3941.74	-52.2
3944.288	-52.2
3946.834	-53.2
3949.378	-54.2
3951.921	-51.2
3954.462	-50.2
3957	-43.2
3959.537	-41.2
3962.072	-51.2
3964.606	-46.2
3967.137	-42.2
3969.667	-51.2
3972.194	-48.2
3974.72	-47.2
3977.244	-48.2
3979.766	-53.2
3982.286	-52.2
3984.805	-58.2
3987.321	-50.2
3989.836	-48.2
3992.349	-54.2
3994.86	-53.2
3997.369	-54.2
3999.877	-49.2
4002.382	-47.2
4004.886	-47.2
4007.388	-51.2
4009.888	-50.2
4012.386	-55.2
4014.883	-44.2
4017.377	-47.2
4019.87	-49.2
4022.361	-52.2
4024.85	-48.2
4027.338	-51.2
4029.823	-52.2
4032.307	-53.2
4034.789	-50.2
4037.269	-50.2
4039.747	-48.2
4042.224	-52.2
4044.699	-56.2
4047.172	-56.2
4049.643	-50.2
4052.112	-50.2
4054.58	-51.2
4057.046	-46.2
4059.51	-53.2
4061.972	-52.2
4064.432	-53.2
4066.891	-45.2
4069.348	-51.2
4071.803	-50.2
4074.256	-50.2
4076.708	-50.2
4079.158	-57.2
4081.606	-53.2
4084.052	-53.2
4086.497	-45.2
4088.939	-50.2
4091.38	-54.2
4093.819	-54.2
4096.257	-52.2
4098.693	-50.2
4101.127	-45.2
4103.559	-54.2
4105.989	10.8
4108.418	9.8
4110.845	8.8
4113.27	9.8
4115.694	6.8
4118.115	2.8
4120.535	-54.2
4122.954	-48.2
4125.37	-50.2
4127.785	-44.2
4130.198	-47.2
4132.609	-49.2
4135.019	-48.2
4137.427	-52.2
4139.833	-50.2
4142.237	-56.2
