Data from 2018-3-7_conc=3_n=9_RamanShift_03.txt Node
Date: Wed Mar 07 11:41:52 IST 2018
User: aro
Spectrometer: QEPB0276
Trigger mode: 0
Integration Time (sec): 3.000000E1
Scans to average: 1
Electric dark correction enabled: true
Nonlinearity correction enabled: false
Boxcar width: 0
XAxis mode: Raman Shifts
Number of Pixels in Spectrum: 1044
>>>>>Begin Spectral Data<<<<<
160.701	18.4
166.742	24.4
172.777	51.4
178.805	145.4
184.826	360.4
190.841	750.4
196.849	1246.4
202.85	1614.4
208.845	1780.4
214.833	1768.4
220.815	1755.4
226.789	1743.4
232.758	1761.4
238.719	1761.4
244.674	1735.4
250.623	1727.4
256.565	1717.4
262.5	1695.4
268.429	1689.4
274.351	1662.4
280.267	1660.4
286.176	1647.4
292.079	1644.4
297.975	1652.4
303.865	1659.4
309.748	1640.4
315.625	1659.4
321.495	1648.4
327.359	1646.4
333.217	1669.4
339.068	1666.4
344.912	1671.4
350.751	1671.4
356.583	1682.4
362.408	1678.4
368.227	1683.4
374.04	1693.4
379.847	1700.4
385.647	1689.4
391.44	1698.4
397.228	1699.4
403.009	1724.4
408.784	1722.4
414.553	1721.4
420.315	1742.4
426.071	1742.4
431.821	1733.4
437.565	1739.4
443.302	1743.4
449.033	1739.4
454.758	1736.4
460.477	1707.4
466.189	1700.4
471.896	1681.4
477.596	1671.4
483.29	1650.4
488.978	1662.4
494.66	1648.4
500.335	1611.4
506.005	1554.4
511.668	1495.4
517.325	1456.4
522.977	1377.4
528.622	1361.4
534.261	1344.4
539.894	1325.4
545.521	1307.4
551.141	1289.4
556.756	1284.4
562.365	1267.4
567.968	1256.4
573.565	1242.4
579.155	1252.4
584.74	1240.4
590.319	1226.4
595.892	1244.4
601.459	1226.4
607.02	1223.4
612.575	1199.4
618.124	1191.4
623.667	1186.4
629.204	1172.4
634.735	1172.4
640.261	1161.4
645.781	1163.4
651.294	1151.4
656.802	1139.4
662.304	1135.4
667.8	1119.4
673.29	1134.4
678.775	1136.4
684.254	1135.4
689.726	1113.4
695.193	1102.4
700.655	1099.4
706.11	1094.4
711.56	1088.4
717.004	1083.4
722.442	1070.4
727.874	1062.4
733.301	1069.4
738.722	1055.4
744.137	1049.4
749.547	1062.4
754.951	1068.4
760.349	1075.4
765.741	1054.4
771.128	1054.4
776.509	1078.4
781.885	1087.4
787.254	1090.4
792.618	1098.4
797.977	1093.4
803.33	1072.4
808.677	1092.4
814.019	1080.4
819.355	1059.4
824.686	1039.4
830.011	1041.4
835.33	1024.4
840.644	1036.4
845.952	1041.4
851.255	1035.4
856.552	1019.4
861.844	1013.4
867.13	1000.4
872.41	1002.4
877.686	995.4
882.955	992.4
888.219	980.4
893.478	974.4
898.731	946.4
903.979	931.4
909.221	933.4
914.458	928.4
919.69	924.4
924.916	929.4
930.136	936.4
935.351	930.4
940.561	926.4
945.766	944.4
950.965	931.4
956.158	911.4
961.347	901.4
966.529	897.4
971.707	873.4
976.879	866.4
982.046	852.4
987.208	864.4
992.364	850.4
997.515	860.4
1002.66	865.4
1007.801	878.4
1012.936	876.4
1018.066	886.4
1023.19	900.4
1028.309	887.4
1033.423	882.4
1038.532	886.4
1043.636	872.4
1048.734	878.4
1053.827	864.4
1058.915	845.4
1063.998	853.4
1069.075	828.4
1074.147	828.4
1079.214	833.4
1084.276	830.4
1089.333	853.4
1094.385	840.4
1099.431	845.4
1104.472	827.4
1109.509	832.4
1114.54	813.4
1119.565	821.4
1124.586	790.4
1129.602	792.4
1134.613	793.4
1139.618	776.4
1144.619	774.4
1149.614	790.4
1154.604	780.4
1159.589	782.4
1164.57	784.4
1169.545	778.4
1174.515	792.4
1179.48	775.4
1184.44	779.4
1189.395	769.4
1194.345	763.4
1199.29	757.4
1204.23	758.4
1209.165	757.4
1214.095	773.4
1219.021	774.4
1223.941	771.4
1228.856	788.4
1233.766	770.4
1238.672	778.4
1243.572	772.4
1248.467	780.4
1253.358	774.4
1258.244	750.4
1263.124	733.4
1268	717.4
1272.871	719.4
1277.737	704.4
1282.599	709.4
1287.455	712.4
1292.306	708.4
1297.153	711.4
1301.995	732.4
1306.832	708.4
1311.664	715.4
1316.491	714.4
1321.314	715.4
1326.132	718.4
1330.945	707.4
1335.753	689.4
1340.556	681.4
1345.354	662.4
1350.148	647.4
1354.937	628.4
1359.722	616.4
1364.501	614.4
1369.276	608.4
1374.046	602.4
1378.811	592.4
1383.572	591.4
1388.327	592.4
1393.079	588.4
1397.825	577.4
1402.567	591.4
1407.304	581.4
1412.036	596.4
1416.764	597.4
1421.487	595.4
1426.205	591.4
1430.919	600.4
1435.628	585.4
1440.333	617.4
1445.032	598.4
1449.727	612.4
1454.418	615.4
1459.104	621.4
1463.785	597.4
1468.462	588.4
1473.134	581.4
1477.802	555.4
1482.465	547.4
1487.123	539.4
1491.777	523.4
1496.426	524.4
1501.071	514.4
1505.711	515.4
1510.347	497.4
1514.978	501.4
1519.604	500.4
1524.226	503.4
1528.844	495.4
1533.457	496.4
1538.065	488.4
1542.669	490.4
1547.269	487.4
1551.864	495.4
1556.454	513.4
1561.041	517.4
1565.622	514.4
1570.199	513.4
1574.772	515.4
1579.34	531.4
1583.904	518.4
1588.464	542.4
1593.019	538.4
1597.569	536.4
1602.115	548.4
1606.657	537.4
1611.195	535.4
1615.728	533.4
1620.256	530.4
1624.78	531.4
1629.3	538.4
1633.816	531.4
1638.327	537.4
1642.834	531.4
1647.336	525.4
1651.834	523.4
1656.328	533.4
1660.817	531.4
1665.302	512.4
1669.783	496.4
1674.259	489.4
1678.732	486.4
1683.199	462.4
1687.663	451.4
1692.122	427.4
1696.577	403.4
1701.028	399.4
1705.474	377.4
1709.917	367.4
1714.355	352.4
1718.788	350.4
1723.218	360.4
1727.643	354.4
1732.064	361.4
1736.481	351.4
1740.893	345.4
1745.301	334.4
1749.705	337.4
1754.105	333.4
1758.501	314.4
1762.893	317.4
1767.28	304.4
1771.663	305.4
1776.042	292.4
1780.417	290.4
1784.787	292.4
1789.154	274.4
1793.516	264.4
1797.874	278.4
1802.228	273.4
1806.578	268.4
1810.924	262.4
1815.266	251.4
1819.603	265.4
1823.937	268.4
1828.266	264.4
1832.591	274.4
1836.913	269.4
1841.23	268.4
1845.543	272.4
1849.852	279.4
1854.156	277.4
1858.457	272.4
1862.754	277.4
1867.047	264.4
1871.335	260.4
1875.62	270.4
1879.9	269.4
1884.177	257.4
1888.449	265.4
1892.718	269.4
1896.982	249.4
1901.243	238.4
1905.499	251.4
1909.752	237.4
1914	243.4
1918.245	228.4
1922.485	222.4
1926.722	216.4
1930.954	219.4
1935.183	215.4
1939.408	220.4
1943.628	210.4
1947.845	211.4
1952.058	215.4
1956.267	202.4
1960.472	216.4
1964.673	204.4
1968.87	203.4
1973.063	207.4
1977.252	202.4
1981.438	206.4
1985.619	201.4
1989.797	202.4
1993.971	206.4
1998.14	208.4
2002.306	205.4
2006.469	216.4
2010.627	203.4
2014.781	212.4
2018.932	200.4
2023.078	212.4
2027.221	205.4
2031.36	207.4
2035.495	194.4
2039.627	190.4
2043.754	189.4
2047.878	188.4
2051.998	192.4
2056.114	188.4
2060.226	179.4
2064.334	183.4
2068.439	182.4
2072.54	182.4
2076.637	185.4
2080.73	180.4
2084.82	180.4
2088.906	179.4
2092.988	179.4
2097.066	173.4
2101.14	165.4
2105.211	176.4
2109.278	163.4
2113.342	172.4
2117.401	162.4
2121.457	159.4
2125.509	162.4
2129.558	161.4
2133.602	152.4
2137.643	161.4
2141.681	154.4
2145.714	154.4
2149.744	167.4
2153.77	157.4
2157.793	164.4
2161.812	164.4
2165.827	163.4
2169.838	156.4
2173.846	154.4
2177.851	151.4
2181.851	158.4
2185.848	148.4
2189.841	143.4
2193.831	141.4
2197.817	147.4
2201.799	141.4
2205.778	137.4
2209.753	144.4
2213.725	135.4
2217.693	145.4
2221.657	139.4
2225.618	132.4
2229.575	140.4
2233.529	133.4
2237.479	134.4
2241.425	137.4
2245.368	136.4
2249.307	136.4
2253.243	129.4
2257.175	131.4
2261.104	118.4
2265.029	120.4
2268.95	121.4
2272.868	115.4
2276.783	113.4
2280.694	117.4
2284.601	110.4
2288.505	114.4
2292.405	115.4
2296.302	120.4
2300.195	115.4
2304.085	109.4
2307.971	104.4
2311.854	102.4
2315.734	97.4
2319.609	104.4
2323.482	99.4
2327.351	109.4
2331.216	115.4
2335.078	131.4
2338.937	114.4
2342.792	104.4
2346.643	106.4
2350.492	106.4
2354.336	103.4
2358.178	95.4
2362.015	100.4
2365.85	96.4
2369.681	102.4
2373.508	109.4
2377.333	105.4
2381.153	100.4
2384.971	102.4
2388.785	101.4
2392.595	101.4
2396.402	106.4
2400.206	107.4
2404.007	94.4
2407.804	92.4
2411.597	93.4
2415.388	95.4
2419.174	101.4
2422.958	95.4
2426.738	100.4
2430.515	96.4
2434.289	96.4
2438.059	98.4
2441.825	93.4
2445.589	93.4
2449.349	92.4
2453.106	88.4
2456.859	85.4
2460.61	88.4
2464.356	81.4
2468.1	86.4
2471.84	72.4
2475.577	79.4
2479.311	77.4
2483.041	78.4
2486.768	82.4
2490.492	82.4
2494.213	72.4
2497.93	82.4
2501.644	78.4
2505.355	68.4
2509.062	76.4
2512.766	69.4
2516.467	70.4
2520.165	71.4
2523.859	70.4
2527.551	65.4
2531.239	65.4
2534.923	63.4
2538.605	64.4
2542.283	58.4
2545.958	59.4
2549.63	59.4
2553.299	58.4
2556.964	53.4
2560.626	58.4
2564.285	59.4
2567.941	51.4
2571.594	54.4
2575.243	63.4
2578.89	63.4
2582.533	56.4
2586.173	52.4
2589.809	60.4
2593.443	59.4
2597.073	53.4
2600.701	47.4
2604.325	43.4
2607.946	39.4
2611.564	48.4
2615.178	50.4
2618.79	47.4
2622.398	46.4
2626.004	51.4
2629.606	42.4
2633.205	49.4
2636.801	43.4
2640.394	54.4
2643.983	46.4
2647.57	43.4
2651.153	45.4
2654.734	41.4
2658.311	41.4
2661.885	46.4
2665.456	42.4
2669.025	39.4
2672.589	32.4
2676.151	32.4
2679.71	31.4
2683.266	34.4
2686.819	42.4
2690.368	39.4
2693.915	41.4
2697.458	29.4
2700.999	38.4
2704.536	36.4
2708.071	33.4
2711.602	26.4
2715.13	21.4
2718.656	27.4
2722.178	25.4
2725.697	28.4
2729.214	23.4
2732.727	29.4
2736.237	30.4
2739.744	21.4
2743.249	30.4
2746.75	24.4
2750.248	18.4
2753.743	19.4
2757.236	19.4
2760.725	24.4
2764.211	17.4
2767.695	15.4
2771.175	16.4
2774.652	12.4
2778.127	16.4
2781.598	11.4
2785.067	13.4
2788.532	13.4
2791.995	22.4
2795.455	13.4
2798.911	21.4
2802.365	21.4
2805.816	16.4
2809.264	18.4
2812.709	17.4
2816.151	19.4
2819.59	27.4
2823.026	20.4
2826.46	19.4
2829.89	24.4
2833.318	17.4
2836.742	23.4
2840.164	18.4
2843.583	17.4
2846.999	22.4
2850.412	18.4
2853.822	22.4
2857.229	21.4
2860.634	18.4
2864.035	19.4
2867.434	17.4
2870.83	30.4
2874.223	22.4
2877.613	26.4
2881	26.4
2884.385	25.4
2887.766	29.4
2891.145	29.4
2894.521	35.4
2897.894	28.4
2901.264	30.4
2904.631	26.4
2907.996	28.4
2911.358	32.4
2914.717	24.4
2918.073	28.4
2921.426	25.4
2924.777	35.4
2928.124	43.4
2931.469	39.4
2934.811	42.4
2938.15	44.4
2941.487	51.4
2944.821	45.4
2948.152	46.4
2951.48	43.4
2954.805	45.4
2958.128	40.4
2961.447	38.4
2964.765	31.4
2968.079	28.4
2971.39	33.4
2974.699	36.4
2978.005	41.4
2981.308	38.4
2984.609	37.4
2987.907	45.4
2991.202	40.4
2994.494	37.4
2997.784	39.4
3001.07	39.4
3004.355	44.4
3007.636	42.4
3010.915	43.4
3014.191	38.4
3017.464	37.4
3020.734	46.4
3024.002	49.4
3027.267	48.4
3030.53	48.4
3033.789	52.4
3037.046	47.4
3040.301	46.4
3043.552	50.4
3046.801	64.4
3050.048	58.4
3053.291	59.4
3056.532	60.4
3059.771	60.4
3063.006	63.4
3066.239	68.4
3069.469	82.4
3072.697	74.4
3075.922	76.4
3079.144	78.4
3082.364	85.4
3085.581	77.4
3088.795	95.4
3092.007	97.4
3095.216	93.4
3098.423	90.4
3101.627	89.4
3104.828	107.4
3108.026	99.4
3111.222	106.4
3114.416	110.4
3117.607	112.4
3120.795	108.4
3123.98	106.4
3127.163	127.4
3130.344	116.4
3133.521	125.4
3136.696	125.4
3139.869	139.4
3143.039	129.4
3146.206	130.4
3149.371	135.4
3152.533	149.4
3155.693	146.4
3158.85	139.4
3162.005	150.4
3165.157	139.4
3168.306	136.4
3171.453	136.4
3174.597	137.4
3177.739	147.4
3180.878	145.4
3184.014	136.4
3187.149	146.4
3190.28	146.4
3193.409	143.4
3196.536	145.4
3199.659	152.4
3202.781	153.4
3205.9	148.4
3209.016	139.4
3212.13	147.4
3215.241	138.4
3218.35	139.4
3221.456	142.4
3224.56	135.4
3227.661	139.4
3230.76	135.4
3233.856	134.4
3236.95	130.4
3240.041	124.4
3243.13	125.4
3246.216	122.4
3249.3	119.4
3252.382	119.4
3255.46	127.4
3258.537	117.4
3261.611	117.4
3264.682	121.4
3267.751	114.4
3270.818	108.4
3273.882	109.4
3276.943	109.4
3280.002	109.4
3283.059	107.4
3286.113	98.4
3289.165	103.4
3292.214	102.4
3295.261	104.4
3298.306	104.4
3301.348	107.4
3304.387	97.4
3307.425	103.4
3310.459	93.4
3313.492	99.4
3316.521	97.4
3319.549	102.4
3322.574	92.4
3325.597	92.4
3328.617	88.4
3331.635	99.4
3334.65	103.4
3337.663	86.4
3340.674	93.4
3343.682	91.4
3346.688	95.4
3349.691	104.4
3352.692	102.4
3355.691	104.4
3358.687	94.4
3361.681	101.4
3364.673	98.4
3367.662	93.4
3370.649	88.4
3373.633	89.4
3376.615	84.4
3379.595	81.4
3382.572	72.4
3385.547	84.4
3388.52	84.4
3391.49	77.4
3394.458	68.4
3397.424	81.4
3400.387	77.4
3403.348	67.4
3406.307	65.4
3409.263	69.4
3412.217	72.4
3415.168	65.4
3418.118	64.4
3421.065	57.4
3424.009	56.4
3426.951	54.4
3429.891	56.4
3432.829	51.4
3435.764	54.4
3438.697	58.4
3441.628	47.4
3444.557	50.4
3447.483	54.4
3450.407	39.4
3453.328	40.4
3456.247	36.4
3459.164	38.4
3462.079	26.4
3464.991	35.4
3467.902	25.4
3470.809	29.4
3473.715	22.4
3476.618	20.4
3479.519	17.4
3482.418	17.4
3485.315	14.4
3488.209	13.4
3491.101	14.4
3493.99	13.4
3496.878	10.4
3499.763	0.4
3502.646	7.4
3505.527	-0.6
3508.405	-4.6
3511.281	1.4
3514.155	-0.6
3517.027	-13.6
3519.897	-9.6
3522.764	-4.6
3525.629	-4.6
3528.492	-10.6
3531.352	-15.6
3534.211	-12.6
3537.067	-19.6
3539.921	-17.6
3542.773	-18.6
3545.622	-17.6
3548.469	-22.6
3551.315	-22.6
3554.157	-24.6
3556.998	-23.6
3559.837	-29.6
3562.673	-24.6
3565.507	-27.6
3568.339	-22.6
3571.169	-30.6
3573.996	-22.6
3576.822	-38.6
3579.645	-28.6
3582.466	-27.6
3585.285	-26.6
3588.101	-32.6
3590.916	-30.6
3593.728	-33.6
3596.538	-35.6
3599.346	-37.6
3602.152	-37.6
3604.956	-37.6
3607.757	-30.6
3610.556	-35.6
3613.354	-41.6
3616.149	-41.6
3618.942	-34.6
3621.732	-42.6
3624.521	-42.6
3627.307	-37.6
3630.092	-39.6
3632.874	-38.6
3635.654	-43.6
3638.432	-41.6
3641.208	-38.6
3643.982	-37.6
3646.753	-41.6
3649.523	-38.6
3652.29	-42.6
3655.055	-46.6
3657.818	-47.6
3660.579	-49.6
3663.338	-44.6
3666.095	-45.6
3668.849	-45.6
3671.602	-50.6
3674.352	-39.6
3677.101	-45.6
3679.847	-43.6
3682.591	-48.6
3685.333	-43.6
3688.073	-51.6
3690.811	-46.6
3693.547	-45.6
3696.281	-49.6
3699.013	-50.6
3701.742	-55.6
3704.47	-46.6
3707.195	-51.6
3709.919	-53.6
3712.64	-52.6
3715.359	-52.6
3718.076	-54.6
3720.792	-53.6
3723.505	-49.6
3726.216	-46.6
3728.925	-55.6
3731.632	-49.6
3734.336	-50.6
3737.039	-46.6
3739.74	-55.6
3742.439	-57.6
3745.136	-58.6
3747.83	-52.6
3750.523	-56.6
3753.213	-67.6
3755.902	-54.6
3758.589	-52.6
3761.273	-47.6
3763.956	-53.6
3766.636	-55.6
3769.315	-45.6
3771.991	-54.6
3774.665	-57.6
3777.338	-54.6
3780.008	-50.6
3782.677	-56.6
3785.343	-52.6
3788.007	-53.6
3790.67	-56.6
3793.33	-55.6
3795.989	-53.6
3798.645	-54.6
3801.299	-54.6
3803.952	-52.6
3806.602	-59.6
3809.251	-58.6
3811.897	-58.6
3814.542	-61.6
3817.184	-54.6
3819.825	-45.6
3822.463	-51.6
3825.1	-50.6
3827.735	-58.6
3830.367	-52.6
3832.998	-56.6
3835.627	-56.6
3838.253	-53.6
3840.878	-50.6
3843.501	-48.6
3846.122	-54.6
3848.741	-59.6
3851.358	-56.6
3853.973	-53.6
3856.586	-53.6
3859.197	-54.6
3861.806	-54.6
3864.414	-57.6
3867.019	-52.6
3869.622	-48.6
3872.224	-39.6
3874.823	-28.6
3877.421	-19.6
3880.016	-11.6
3882.61	9.4
3885.202	7.4
3887.792	-5.6
3890.38	-20.6
3892.966	-40.6
3895.55	-50.6
3898.132	-46.6
3900.713	-49.6
3903.291	-54.6
3905.868	-50.6
3908.442	-53.6
3911.015	-48.6
3913.586	-60.6
3916.155	-55.6
3918.722	-57.6
3921.287	-60.6
3923.85	-50.6
3926.411	-57.6
3928.971	-70.6
3931.528	-59.6
3934.084	-52.6
3936.638	-55.6
3939.19	-61.6
3941.74	-59.6
3944.288	-53.6
3946.834	-55.6
3949.378	-54.6
3951.921	-53.6
3954.462	-50.6
3957	-49.6
3959.537	-45.6
3962.072	-47.6
3964.606	-49.6
3967.137	-49.6
3969.667	-57.6
3972.194	-51.6
3974.72	-53.6
3977.244	-51.6
3979.766	-56.6
3982.286	-61.6
3984.805	-67.6
3987.321	-50.6
3989.836	-50.6
3992.349	-59.6
3994.86	-54.6
3997.369	-53.6
3999.877	-52.6
4002.382	-54.6
4004.886	-51.6
4007.388	-53.6
4009.888	-54.6
4012.386	-54.6
4014.883	-52.6
4017.377	-52.6
4019.87	-52.6
4022.361	-57.6
4024.85	-53.6
4027.338	-56.6
4029.823	-59.6
4032.307	-58.6
4034.789	-51.6
4037.269	-56.6
4039.747	-55.6
4042.224	-54.6
4044.699	-54.6
4047.172	-59.6
4049.643	-53.6
4052.112	-54.6
4054.58	-51.6
4057.046	-52.6
4059.51	-55.6
4061.972	-55.6
4064.432	-53.6
4066.891	-55.6
4069.348	-52.6
4071.803	-49.6
4074.256	-52.6
4076.708	-54.6
4079.158	-60.6
4081.606	-56.6
4084.052	-56.6
4086.497	-51.6
4088.939	-53.6
4091.38	-55.6
4093.819	-59.6
4096.257	-55.6
4098.693	-55.6
4101.127	-47.6
4103.559	-57.6
4105.989	35.4
4108.418	18.4
4110.845	24.4
4113.27	17.4
4115.694	22.4
4118.115	22.4
4120.535	-55.6
4122.954	-54.6
4125.37	-53.6
4127.785	-53.6
4130.198	-56.6
4132.609	-57.6
4135.019	-58.6
4137.427	-63.6
4139.833	-59.6
4142.237	-57.6
