Data from 2018-3-7_conc=5_n=3_RamanShift_04.txt Node
Date: Wed Mar 07 12:31:22 IST 2018
User: aro
Spectrometer: QEPB0276
Trigger mode: 0
Integration Time (sec): 3.000000E1
Scans to average: 1
Electric dark correction enabled: true
Nonlinearity correction enabled: false
Boxcar width: 0
XAxis mode: Raman Shifts
Number of Pixels in Spectrum: 1044
>>>>>Begin Spectral Data<<<<<
160.701	3.5
166.742	13.5
172.777	57.5
178.805	171.5
184.826	451.5
190.841	988.5
196.849	1639.5
202.85	2168.5
208.845	2365.5
214.833	2356.5
220.815	2342.5
226.789	2340.5
232.758	2344.5
238.719	2338.5
244.674	2326.5
250.623	2313.5
256.565	2299.5
262.5	2260.5
268.429	2233.5
274.351	2220.5
280.267	2198.5
286.176	2206.5
292.079	2199.5
297.975	2170.5
303.865	2179.5
309.748	2169.5
315.625	2155.5
321.495	2166.5
327.359	2161.5
333.217	2162.5
339.068	2154.5
344.912	2162.5
350.751	2158.5
356.583	2155.5
362.408	2163.5
368.227	2168.5
374.04	2187.5
379.847	2182.5
385.647	2189.5
391.44	2206.5
397.228	2199.5
403.009	2219.5
408.784	2236.5
414.553	2224.5
420.315	2247.5
426.071	2232.5
431.821	2228.5
437.565	2241.5
443.302	2236.5
449.033	2226.5
454.758	2216.5
460.477	2209.5
466.189	2189.5
471.896	2163.5
477.596	2162.5
483.29	2145.5
488.978	2134.5
494.66	2137.5
500.335	2114.5
506.005	2053.5
511.668	1987.5
517.325	1944.5
522.977	1888.5
528.622	1868.5
534.261	1847.5
539.894	1815.5
545.521	1814.5
551.141	1798.5
556.756	1765.5
562.365	1759.5
567.968	1759.5
573.565	1742.5
579.155	1749.5
584.74	1730.5
590.319	1714.5
595.892	1716.5
601.459	1717.5
607.02	1704.5
612.575	1701.5
618.124	1675.5
623.667	1664.5
629.204	1651.5
634.735	1632.5
640.261	1607.5
645.781	1629.5
651.294	1624.5
656.802	1624.5
662.304	1615.5
667.8	1618.5
673.29	1609.5
678.775	1587.5
684.254	1604.5
689.726	1589.5
695.193	1573.5
700.655	1585.5
706.11	1560.5
711.56	1557.5
717.004	1536.5
722.442	1521.5
727.874	1523.5
733.301	1527.5
738.722	1507.5
744.137	1511.5
749.547	1503.5
754.951	1498.5
760.349	1512.5
765.741	1521.5
771.128	1499.5
776.509	1549.5
781.885	1539.5
787.254	1555.5
792.618	1537.5
797.977	1532.5
803.33	1510.5
808.677	1504.5
814.019	1513.5
819.355	1483.5
824.686	1469.5
830.011	1457.5
835.33	1471.5
840.644	1457.5
845.952	1467.5
851.255	1448.5
856.552	1459.5
861.844	1453.5
867.13	1429.5
872.41	1440.5
877.686	1431.5
882.955	1436.5
888.219	1420.5
893.478	1392.5
898.731	1357.5
903.979	1366.5
909.221	1365.5
914.458	1339.5
919.69	1327.5
924.916	1334.5
930.136	1353.5
935.351	1348.5
940.561	1341.5
945.766	1329.5
950.965	1326.5
956.158	1325.5
961.347	1303.5
966.529	1303.5
971.707	1267.5
976.879	1245.5
982.046	1227.5
987.208	1239.5
992.364	1243.5
997.515	1237.5
1002.66	1251.5
1007.801	1264.5
1012.936	1263.5
1018.066	1276.5
1023.19	1279.5
1028.309	1288.5
1033.423	1279.5
1038.532	1270.5
1043.636	1247.5
1048.734	1240.5
1053.827	1240.5
1058.915	1226.5
1063.998	1197.5
1069.075	1187.5
1074.147	1197.5
1079.214	1204.5
1084.276	1205.5
1089.333	1230.5
1094.385	1212.5
1099.431	1224.5
1104.472	1226.5
1109.509	1207.5
1114.54	1194.5
1119.565	1172.5
1124.586	1167.5
1129.602	1138.5
1134.613	1140.5
1139.618	1135.5
1144.619	1133.5
1149.614	1140.5
1154.604	1142.5
1159.589	1146.5
1164.57	1158.5
1169.545	1156.5
1174.515	1150.5
1179.48	1131.5
1184.44	1127.5
1189.395	1119.5
1194.345	1115.5
1199.29	1095.5
1204.23	1097.5
1209.165	1102.5
1214.095	1107.5
1219.021	1113.5
1223.941	1115.5
1228.856	1125.5
1233.766	1134.5
1238.672	1138.5
1243.572	1148.5
1248.467	1117.5
1253.358	1100.5
1258.244	1098.5
1263.124	1076.5
1268	1063.5
1272.871	1039.5
1277.737	1037.5
1282.599	1028.5
1287.455	1026.5
1292.306	1044.5
1297.153	1049.5
1301.995	1053.5
1306.832	1050.5
1311.664	1063.5
1316.491	1055.5
1321.314	1062.5
1326.132	1047.5
1330.945	1015.5
1335.753	1020.5
1340.556	997.5
1345.354	971.5
1350.148	955.5
1354.937	949.5
1359.722	911.5
1364.501	901.5
1369.276	869.5
1374.046	864.5
1378.811	852.5
1383.572	844.5
1388.327	850.5
1393.079	841.5
1397.825	858.5
1402.567	870.5
1407.304	871.5
1412.036	856.5
1416.764	861.5
1421.487	866.5
1426.205	866.5
1430.919	867.5
1435.628	886.5
1440.333	897.5
1445.032	877.5
1449.727	903.5
1454.418	897.5
1459.104	890.5
1463.785	882.5
1468.462	850.5
1473.134	840.5
1477.802	817.5
1482.465	797.5
1487.123	785.5
1491.777	763.5
1496.426	759.5
1501.071	754.5
1505.711	748.5
1510.347	746.5
1514.978	731.5
1519.604	723.5
1524.226	725.5
1528.844	719.5
1533.457	715.5
1538.065	705.5
1542.669	705.5
1547.269	707.5
1551.864	714.5
1556.454	723.5
1561.041	733.5
1565.622	741.5
1570.199	747.5
1574.772	737.5
1579.34	769.5
1583.904	774.5
1588.464	781.5
1593.019	785.5
1597.569	787.5
1602.115	775.5
1606.657	776.5
1611.195	774.5
1615.728	774.5
1620.256	767.5
1624.78	779.5
1629.3	776.5
1633.816	769.5
1638.327	789.5
1642.834	784.5
1647.336	780.5
1651.834	767.5
1656.328	776.5
1660.817	760.5
1665.302	760.5
1669.783	757.5
1674.259	732.5
1678.732	708.5
1683.199	676.5
1687.663	661.5
1692.122	626.5
1696.577	592.5
1701.028	569.5
1705.474	536.5
1709.917	520.5
1714.355	506.5
1718.788	497.5
1723.218	517.5
1727.643	508.5
1732.064	516.5
1736.481	519.5
1740.893	501.5
1745.301	501.5
1749.705	483.5
1754.105	476.5
1758.501	462.5
1762.893	457.5
1767.28	443.5
1771.663	443.5
1776.042	427.5
1780.417	420.5
1784.787	418.5
1789.154	412.5
1793.516	400.5
1797.874	386.5
1802.228	375.5
1806.578	368.5
1810.924	367.5
1815.266	365.5
1819.603	369.5
1823.937	376.5
1828.266	377.5
1832.591	376.5
1836.913	380.5
1841.23	398.5
1845.543	371.5
1849.852	402.5
1854.156	384.5
1858.457	399.5
1862.754	401.5
1867.047	385.5
1871.335	393.5
1875.62	393.5
1879.9	383.5
1884.177	381.5
1888.449	384.5
1892.718	378.5
1896.982	367.5
1901.243	356.5
1905.499	353.5
1909.752	345.5
1914	345.5
1918.245	330.5
1922.485	319.5
1926.722	313.5
1930.954	312.5
1935.183	311.5
1939.408	298.5
1943.628	302.5
1947.845	300.5
1952.058	290.5
1956.267	283.5
1960.472	292.5
1964.673	282.5
1968.87	286.5
1973.063	277.5
1977.252	284.5
1981.438	283.5
1985.619	291.5
1989.797	275.5
1993.971	297.5
1998.14	296.5
2002.306	300.5
2006.469	302.5
2010.627	298.5
2014.781	299.5
2018.932	295.5
2023.078	304.5
2027.221	287.5
2031.36	291.5
2035.495	284.5
2039.627	286.5
2043.754	276.5
2047.878	269.5
2051.998	275.5
2056.114	274.5
2060.226	275.5
2064.334	269.5
2068.439	264.5
2072.54	263.5
2076.637	272.5
2080.73	259.5
2084.82	259.5
2088.906	260.5
2092.988	253.5
2097.066	234.5
2101.14	249.5
2105.211	241.5
2109.278	239.5
2113.342	226.5
2117.401	232.5
2121.457	223.5
2125.509	227.5
2129.558	220.5
2133.602	228.5
2137.643	227.5
2141.681	224.5
2145.714	242.5
2149.744	236.5
2153.77	238.5
2157.793	236.5
2161.812	240.5
2165.827	228.5
2169.838	226.5
2173.846	232.5
2177.851	225.5
2181.851	222.5
2185.848	216.5
2189.841	215.5
2193.831	218.5
2197.817	218.5
2201.799	207.5
2205.778	219.5
2209.753	221.5
2213.725	209.5
2217.693	220.5
2221.657	218.5
2225.618	212.5
2229.575	205.5
2233.529	210.5
2237.479	208.5
2241.425	197.5
2245.368	209.5
2249.307	202.5
2253.243	195.5
2257.175	193.5
2261.104	186.5
2265.029	188.5
2268.95	189.5
2272.868	182.5
2276.783	178.5
2280.694	180.5
2284.601	172.5
2288.505	173.5
2292.405	181.5
2296.302	179.5
2300.195	170.5
2304.085	168.5
2307.971	166.5
2311.854	162.5
2315.734	161.5
2319.609	167.5
2323.482	158.5
2327.351	169.5
2331.216	174.5
2335.078	181.5
2338.937	170.5
2342.792	170.5
2346.643	166.5
2350.492	169.5
2354.336	169.5
2358.178	163.5
2362.015	158.5
2365.85	163.5
2369.681	163.5
2373.508	173.5
2377.333	173.5
2381.153	174.5
2384.971	175.5
2388.785	167.5
2392.595	160.5
2396.402	172.5
2400.206	163.5
2404.007	161.5
2407.804	171.5
2411.597	161.5
2415.388	158.5
2419.174	170.5
2422.958	164.5
2426.738	159.5
2430.515	155.5
2434.289	166.5
2438.059	154.5
2441.825	150.5
2445.589	155.5
2449.349	156.5
2453.106	157.5
2456.859	152.5
2460.61	150.5
2464.356	145.5
2468.1	143.5
2471.84	146.5
2475.577	134.5
2479.311	136.5
2483.041	130.5
2486.768	130.5
2490.492	136.5
2494.213	134.5
2497.93	139.5
2501.644	131.5
2505.355	124.5
2509.062	125.5
2512.766	131.5
2516.467	125.5
2520.165	122.5
2523.859	128.5
2527.551	122.5
2531.239	122.5
2534.923	120.5
2538.605	118.5
2542.283	112.5
2545.958	110.5
2549.63	106.5
2553.299	107.5
2556.964	98.5
2560.626	114.5
2564.285	108.5
2567.941	101.5
2571.594	97.5
2575.243	98.5
2578.89	100.5
2582.533	92.5
2586.173	93.5
2589.809	103.5
2593.443	97.5
2597.073	91.5
2600.701	99.5
2604.325	86.5
2607.946	84.5
2611.564	97.5
2615.178	94.5
2618.79	87.5
2622.398	94.5
2626.004	84.5
2629.606	84.5
2633.205	88.5
2636.801	84.5
2640.394	93.5
2643.983	79.5
2647.57	86.5
2651.153	68.5
2654.734	82.5
2658.311	77.5
2661.885	81.5
2665.456	89.5
2669.025	82.5
2672.589	75.5
2676.151	79.5
2679.71	72.5
2683.266	76.5
2686.819	83.5
2690.368	67.5
2693.915	69.5
2697.458	70.5
2700.999	71.5
2704.536	74.5
2708.071	71.5
2711.602	63.5
2715.13	59.5
2718.656	64.5
2722.178	56.5
2725.697	51.5
2729.214	58.5
2732.727	59.5
2736.237	54.5
2739.744	49.5
2743.249	55.5
2746.75	47.5
2750.248	46.5
2753.743	44.5
2757.236	43.5
2760.725	40.5
2764.211	37.5
2767.695	33.5
2771.175	37.5
2774.652	32.5
2778.127	37.5
2781.598	34.5
2785.067	34.5
2788.532	37.5
2791.995	42.5
2795.455	34.5
2798.911	40.5
2802.365	40.5
2805.816	34.5
2809.264	44.5
2812.709	37.5
2816.151	42.5
2819.59	55.5
2823.026	46.5
2826.46	50.5
2829.89	42.5
2833.318	43.5
2836.742	48.5
2840.164	40.5
2843.583	48.5
2846.999	48.5
2850.412	48.5
2853.822	48.5
2857.229	48.5
2860.634	43.5
2864.035	44.5
2867.434	49.5
2870.83	55.5
2874.223	48.5
2877.613	55.5
2881	51.5
2884.385	54.5
2887.766	66.5
2891.145	53.5
2894.521	61.5
2897.894	59.5
2901.264	56.5
2904.631	58.5
2907.996	64.5
2911.358	67.5
2914.717	66.5
2918.073	61.5
2921.426	62.5
2924.777	67.5
2928.124	67.5
2931.469	74.5
2934.811	78.5
2938.15	85.5
2941.487	78.5
2944.821	66.5
2948.152	78.5
2951.48	71.5
2954.805	82.5
2958.128	68.5
2961.447	76.5
2964.765	70.5
2968.079	72.5
2971.39	69.5
2974.699	66.5
2978.005	77.5
2981.308	71.5
2984.609	65.5
2987.907	67.5
2991.202	69.5
2994.494	64.5
2997.784	64.5
3001.07	67.5
3004.355	72.5
3007.636	70.5
3010.915	72.5
3014.191	68.5
3017.464	73.5
3020.734	77.5
3024.002	81.5
3027.267	82.5
3030.53	83.5
3033.789	83.5
3037.046	86.5
3040.301	93.5
3043.552	96.5
3046.801	96.5
3050.048	101.5
3053.291	110.5
3056.532	111.5
3059.771	118.5
3063.006	112.5
3066.239	121.5
3069.469	130.5
3072.697	122.5
3075.922	138.5
3079.144	127.5
3082.364	134.5
3085.581	140.5
3088.795	144.5
3092.007	154.5
3095.216	153.5
3098.423	146.5
3101.627	146.5
3104.828	173.5
3108.026	166.5
3111.222	165.5
3114.416	181.5
3117.607	182.5
3120.795	180.5
3123.98	181.5
3127.163	199.5
3130.344	196.5
3133.521	197.5
3136.696	200.5
3139.869	213.5
3143.039	211.5
3146.206	209.5
3149.371	214.5
3152.533	219.5
3155.693	225.5
3158.85	224.5
3162.005	224.5
3165.157	213.5
3168.306	214.5
3171.453	220.5
3174.597	227.5
3177.739	232.5
3180.878	232.5
3184.014	234.5
3187.149	221.5
3190.28	226.5
3193.409	235.5
3196.536	220.5
3199.659	223.5
3202.781	232.5
3205.9	228.5
3209.016	222.5
3212.13	225.5
3215.241	225.5
3218.35	223.5
3221.456	227.5
3224.56	213.5
3227.661	211.5
3230.76	204.5
3233.856	194.5
3236.95	195.5
3240.041	189.5
3243.13	203.5
3246.216	188.5
3249.3	185.5
3252.382	190.5
3255.46	186.5
3258.537	187.5
3261.611	178.5
3264.682	177.5
3267.751	185.5
3270.818	166.5
3273.882	169.5
3276.943	163.5
3280.002	168.5
3283.059	167.5
3286.113	165.5
3289.165	154.5
3292.214	162.5
3295.261	166.5
3298.306	165.5
3301.348	162.5
3304.387	152.5
3307.425	165.5
3310.459	154.5
3313.492	158.5
3316.521	151.5
3319.549	154.5
3322.574	159.5
3325.597	153.5
3328.617	163.5
3331.635	160.5
3334.65	159.5
3337.663	143.5
3340.674	159.5
3343.682	156.5
3346.688	147.5
3349.691	151.5
3352.692	152.5
3355.691	165.5
3358.687	156.5
3361.681	145.5
3364.673	152.5
3367.662	147.5
3370.649	145.5
3373.633	143.5
3376.615	141.5
3379.595	134.5
3382.572	135.5
3385.547	142.5
3388.52	127.5
3391.49	121.5
3394.458	124.5
3397.424	123.5
3400.387	115.5
3403.348	116.5
3406.307	112.5
3409.263	115.5
3412.217	122.5
3415.168	120.5
3418.118	116.5
3421.065	105.5
3424.009	107.5
3426.951	101.5
3429.891	102.5
3432.829	100.5
3435.764	96.5
3438.697	99.5
3441.628	92.5
3444.557	87.5
3447.483	79.5
3450.407	79.5
3453.328	77.5
3456.247	67.5
3459.164	68.5
3462.079	121.5
3464.991	67.5
3467.902	60.5
3470.809	54.5
3473.715	52.5
3476.618	50.5
3479.519	45.5
3482.418	39.5
3485.315	44.5
3488.209	38.5
3491.101	26.5
3493.99	35.5
3496.878	24.5
3499.763	20.5
3502.646	20.5
3505.527	20.5
3508.405	20.5
3511.281	19.5
3514.155	7.5
3517.027	2.5
3519.897	11.5
3522.764	6.5
3525.629	12.5
3528.492	1.5
3531.352	0.5
3534.211	-7.5
3537.067	-4.5
3539.921	-2.5
3542.773	-12.5
3545.622	-9.5
3548.469	-11.5
3551.315	-10.5
3554.157	-13.5
3556.998	-11.5
3559.837	-19.5
3562.673	-24.5
3565.507	-24.5
3568.339	-12.5
3571.169	-26.5
3573.996	-21.5
3576.822	-32.5
3579.645	-26.5
3582.466	-26.5
3585.285	-30.5
3588.101	-24.5
3590.916	-27.5
3593.728	-29.5
3596.538	-33.5
3599.346	-37.5
3602.152	-33.5
3604.956	-31.5
3607.757	-31.5
3610.556	-35.5
3613.354	-43.5
3616.149	-39.5
3618.942	-37.5
3621.732	-39.5
3624.521	-37.5
3627.307	-38.5
3630.092	-40.5
3632.874	-42.5
3635.654	-43.5
3638.432	-42.5
3641.208	-35.5
3643.982	-42.5
3646.753	-44.5
3649.523	-37.5
3652.29	-43.5
3655.055	-41.5
3657.818	-50.5
3660.579	-44.5
3663.338	-39.5
3666.095	-52.5
3668.849	-50.5
3671.602	-48.5
3674.352	-48.5
3677.101	-49.5
3679.847	-48.5
3682.591	-54.5
3685.333	-45.5
3688.073	-52.5
3690.811	-43.5
3693.547	-53.5
3696.281	-44.5
3699.013	-55.5
3701.742	-55.5
3704.47	-50.5
3707.195	-52.5
3709.919	-53.5
3712.64	-54.5
3715.359	-53.5
3718.076	-60.5
3720.792	-57.5
3723.505	-56.5
3726.216	-51.5
3728.925	-60.5
3731.632	-57.5
3734.336	-57.5
3737.039	-51.5
3739.74	-55.5
3742.439	-62.5
3745.136	-58.5
3747.83	-52.5
3750.523	-58.5
3753.213	-55.5
3755.902	-57.5
3758.589	-54.5
3761.273	-52.5
3763.956	-59.5
3766.636	-61.5
3769.315	-53.5
3771.991	-59.5
3774.665	-62.5
3777.338	-59.5
3780.008	-57.5
3782.677	-60.5
3785.343	-59.5
3788.007	-57.5
3790.67	-59.5
3793.33	-55.5
3795.989	-61.5
3798.645	-61.5
3801.299	-60.5
3803.952	-58.5
3806.602	-60.5
3809.251	-64.5
3811.897	-65.5
3814.542	-71.5
3817.184	-62.5
3819.825	-55.5
3822.463	-61.5
3825.1	-57.5
3827.735	-63.5
3830.367	-63.5
3832.998	-67.5
3835.627	-60.5
3838.253	-59.5
3840.878	-54.5
3843.501	-52.5
3846.122	-59.5
3848.741	-62.5
3851.358	-60.5
3853.973	-59.5
3856.586	-59.5
3859.197	-61.5
3861.806	-61.5
3864.414	-66.5
3867.019	-61.5
3869.622	-57.5
3872.224	-46.5
3874.823	-42.5
3877.421	-37.5
3880.016	-25.5
3882.61	-11.5
3885.202	-8.5
3887.792	-11.5
3890.38	-35.5
3892.966	-48.5
3895.55	-54.5
3898.132	-53.5
3900.713	-57.5
3903.291	-56.5
3905.868	-52.5
3908.442	-59.5
3911.015	-59.5
3913.586	-65.5
3916.155	-61.5
3918.722	-66.5
3921.287	-61.5
3923.85	-58.5
3926.411	-65.5
3928.971	-69.5
3931.528	-66.5
3934.084	-58.5
3936.638	-57.5
3939.19	-67.5
3941.74	-56.5
3944.288	-61.5
3946.834	-60.5
3949.378	-61.5
3951.921	-62.5
3954.462	-59.5
3957	-57.5
3959.537	-50.5
3962.072	-57.5
3964.606	-59.5
3967.137	-58.5
3969.667	-64.5
3972.194	-61.5
3974.72	-55.5
3977.244	-52.5
3979.766	-60.5
3982.286	-64.5
3984.805	-69.5
3987.321	-60.5
3989.836	-57.5
3992.349	-61.5
3994.86	-62.5
3997.369	-60.5
3999.877	-58.5
4002.382	-60.5
4004.886	-56.5
4007.388	-60.5
4009.888	-57.5
4012.386	-60.5
4014.883	-53.5
4017.377	-54.5
4019.87	-57.5
4022.361	-64.5
4024.85	-57.5
4027.338	-63.5
4029.823	-62.5
4032.307	-65.5
4034.789	-57.5
4037.269	-62.5
4039.747	-60.5
4042.224	-59.5
4044.699	-62.5
4047.172	-61.5
4049.643	-59.5
4052.112	-64.5
4054.58	-58.5
4057.046	-53.5
4059.51	-63.5
4061.972	-59.5
4064.432	-60.5
4066.891	-51.5
4069.348	-60.5
4071.803	-58.5
4074.256	-60.5
4076.708	-59.5
4079.158	-61.5
4081.606	-59.5
4084.052	-64.5
4086.497	-57.5
4088.939	-65.5
4091.38	-66.5
4093.819	-63.5
4096.257	-62.5
4098.693	-64.5
4101.127	-57.5
4103.559	-63.5
4105.989	-5.5
4108.418	-0.5
4110.845	-5.5
4113.27	-4.5
4115.694	-1.5
4118.115	5.5
4120.535	-58.5
4122.954	-50.5
4125.37	-60.5
4127.785	-52.5
4130.198	-57.5
4132.609	-61.5
4135.019	-62.5
4137.427	-64.5
4139.833	-59.5
4142.237	-59.5
