Data from 2018-3-7_conc=5_n=4_RamanShift_04.txt Node
Date: Wed Mar 07 12:35:52 IST 2018
User: aro
Spectrometer: QEPB0276
Trigger mode: 0
Integration Time (sec): 3.000000E1
Scans to average: 1
Electric dark correction enabled: true
Nonlinearity correction enabled: false
Boxcar width: 0
XAxis mode: Raman Shifts
Number of Pixels in Spectrum: 1044
>>>>>Begin Spectral Data<<<<<
160.701	6.9
166.742	21.9
172.777	51.9
178.805	168.9
184.826	449.9
190.841	961.9
196.849	1640.9
202.85	2162.9
208.845	2365.9
214.833	2358.9
220.815	2328.9
226.789	2318.9
232.758	2349.9
238.719	2333.9
244.674	2322.9
250.623	2287.9
256.565	2273.9
262.5	2234.9
268.429	2215.9
274.351	2198.9
280.267	2185.9
286.176	2171.9
292.079	2161.9
297.975	2149.9
303.865	2138.9
309.748	2134.9
315.625	2132.9
321.495	2125.9
327.359	2114.9
333.217	2114.9
339.068	2154.9
344.912	2135.9
350.751	2149.9
356.583	2130.9
362.408	2139.9
368.227	2147.9
374.04	2153.9
379.847	2166.9
385.647	2156.9
391.44	2189.9
397.228	2174.9
403.009	2175.9
408.784	2201.9
414.553	2206.9
420.315	2199.9
426.071	2191.9
431.821	2201.9
437.565	2198.9
443.302	2206.9
449.033	2210.9
454.758	2189.9
460.477	2176.9
466.189	2153.9
471.896	2149.9
477.596	2128.9
483.29	2124.9
488.978	2143.9
494.66	2110.9
500.335	2088.9
506.005	2046.9
511.668	1988.9
517.325	1925.9
522.977	1880.9
528.622	1846.9
534.261	1819.9
539.894	1801.9
545.521	1788.9
551.141	1763.9
556.756	1768.9
562.365	1768.9
567.968	1745.9
573.565	1731.9
579.155	1728.9
584.74	1721.9
590.319	1711.9
595.892	1724.9
601.459	1693.9
607.02	1692.9
612.575	1676.9
618.124	1685.9
623.667	1665.9
629.204	1632.9
634.735	1638.9
640.261	1622.9
645.781	1615.9
651.294	1607.9
656.802	1604.9
662.304	1589.9
667.8	1602.9
673.29	1594.9
678.775	1594.9
684.254	1580.9
689.726	1571.9
695.193	1580.9
700.655	1541.9
706.11	1551.9
711.56	1546.9
717.004	1528.9
722.442	1513.9
727.874	1506.9
733.301	1507.9
738.722	1513.9
744.137	1491.9
749.547	1495.9
754.951	1508.9
760.349	1495.9
765.741	1507.9
771.128	1508.9
776.509	1517.9
781.885	1536.9
787.254	1519.9
792.618	1524.9
797.977	1502.9
803.33	1499.9
808.677	1491.9
814.019	1504.9
819.355	1470.9
824.686	1463.9
830.011	1470.9
835.33	1446.9
840.644	1450.9
845.952	1455.9
851.255	1445.9
856.552	1455.9
861.844	1446.9
867.13	1430.9
872.41	1430.9
877.686	1418.9
882.955	1418.9
888.219	1392.9
893.478	1380.9
898.731	1349.9
903.979	1332.9
909.221	1321.9
914.458	1333.9
919.69	1335.9
924.916	1323.9
930.136	1338.9
935.351	1346.9
940.561	1332.9
945.766	1348.9
950.965	1338.9
956.158	1317.9
961.347	1309.9
966.529	1292.9
971.707	1260.9
976.879	1240.9
982.046	1246.9
987.208	1221.9
992.364	1226.9
997.515	1249.9
1002.66	1232.9
1007.801	1264.9
1012.936	1272.9
1018.066	1269.9
1023.19	1261.9
1028.309	1267.9
1033.423	1255.9
1038.532	1269.9
1043.636	1247.9
1048.734	1255.9
1053.827	1216.9
1058.915	1211.9
1063.998	1192.9
1069.075	1197.9
1074.147	1197.9
1079.214	1201.9
1084.276	1202.9
1089.333	1195.9
1094.385	1214.9
1099.431	1200.9
1104.472	1217.9
1109.509	1199.9
1114.54	1176.9
1119.565	1166.9
1124.586	1165.9
1129.602	1133.9
1134.613	1121.9
1139.618	1117.9
1144.619	1123.9
1149.614	1118.9
1154.604	1123.9
1159.589	1133.9
1164.57	1137.9
1169.545	1123.9
1174.515	1134.9
1179.48	1126.9
1184.44	1129.9
1189.395	1107.9
1194.345	1101.9
1199.29	1084.9
1204.23	1095.9
1209.165	1089.9
1214.095	1099.9
1219.021	1106.9
1223.941	1105.9
1228.856	1108.9
1233.766	1110.9
1238.672	1117.9
1243.572	1124.9
1248.467	1118.9
1253.358	1099.9
1258.244	1080.9
1263.124	1054.9
1268	1058.9
1272.871	1038.9
1277.737	1030.9
1282.599	1031.9
1287.455	1020.9
1292.306	1029.9
1297.153	1034.9
1301.995	1033.9
1306.832	1037.9
1311.664	1040.9
1316.491	1045.9
1321.314	1052.9
1326.132	1038.9
1330.945	1026.9
1335.753	1005.9
1340.556	986.9
1345.354	970.9
1350.148	946.9
1354.937	933.9
1359.722	896.9
1364.501	888.9
1369.276	886.9
1374.046	854.9
1378.811	848.9
1383.572	829.9
1388.327	840.9
1393.079	834.9
1397.825	842.9
1402.567	841.9
1407.304	861.9
1412.036	855.9
1416.764	854.9
1421.487	861.9
1426.205	864.9
1430.919	861.9
1435.628	873.9
1440.333	885.9
1445.032	885.9
1449.727	901.9
1454.418	891.9
1459.104	880.9
1463.785	881.9
1468.462	855.9
1473.134	865.9
1477.802	820.9
1482.465	799.9
1487.123	784.9
1491.777	754.9
1496.426	751.9
1501.071	752.9
1505.711	733.9
1510.347	733.9
1514.978	725.9
1519.604	723.9
1524.226	721.9
1528.844	702.9
1533.457	702.9
1538.065	693.9
1542.669	686.9
1547.269	690.9
1551.864	698.9
1556.454	720.9
1561.041	720.9
1565.622	738.9
1570.199	723.9
1574.772	744.9
1579.34	756.9
1583.904	757.9
1588.464	776.9
1593.019	791.9
1597.569	782.9
1602.115	775.9
1606.657	778.9
1611.195	778.9
1615.728	774.9
1620.256	756.9
1624.78	766.9
1629.3	775.9
1633.816	767.9
1638.327	777.9
1642.834	774.9
1647.336	758.9
1651.834	769.9
1656.328	775.9
1660.817	767.9
1665.302	755.9
1669.783	736.9
1674.259	718.9
1678.732	702.9
1683.199	661.9
1687.663	647.9
1692.122	624.9
1696.577	590.9
1701.028	561.9
1705.474	533.9
1709.917	518.9
1714.355	509.9
1718.788	495.9
1723.218	513.9
1727.643	503.9
1732.064	510.9
1736.481	516.9
1740.893	492.9
1745.301	481.9
1749.705	472.9
1754.105	461.9
1758.501	441.9
1762.893	439.9
1767.28	434.9
1771.663	428.9
1776.042	426.9
1780.417	403.9
1784.787	409.9
1789.154	404.9
1793.516	381.9
1797.874	377.9
1802.228	373.9
1806.578	363.9
1810.924	362.9
1815.266	366.9
1819.603	361.9
1823.937	367.9
1828.266	361.9
1832.591	381.9
1836.913	381.9
1841.23	375.9
1845.543	390.9
1849.852	384.9
1854.156	399.9
1858.457	389.9
1862.754	405.9
1867.047	385.9
1871.335	388.9
1875.62	380.9
1879.9	387.9
1884.177	377.9
1888.449	376.9
1892.718	368.9
1896.982	366.9
1901.243	345.9
1905.499	349.9
1909.752	332.9
1914	331.9
1918.245	324.9
1922.485	316.9
1926.722	304.9
1930.954	299.9
1935.183	296.9
1939.408	303.9
1943.628	296.9
1947.845	292.9
1952.058	283.9
1956.267	288.9
1960.472	288.9
1964.673	276.9
1968.87	282.9
1973.063	278.9
1977.252	283.9
1981.438	285.9
1985.619	282.9
1989.797	282.9
1993.971	291.9
1998.14	291.9
2002.306	289.9
2006.469	297.9
2010.627	290.9
2014.781	299.9
2018.932	284.9
2023.078	299.9
2027.221	288.9
2031.36	296.9
2035.495	286.9
2039.627	279.9
2043.754	270.9
2047.878	285.9
2051.998	274.9
2056.114	267.9
2060.226	268.9
2064.334	267.9
2068.439	252.9
2072.54	263.9
2076.637	258.9
2080.73	253.9
2084.82	258.9
2088.906	245.9
2092.988	248.9
2097.066	239.9
2101.14	236.9
2105.211	237.9
2109.278	227.9
2113.342	217.9
2117.401	217.9
2121.457	221.9
2125.509	216.9
2129.558	218.9
2133.602	218.9
2137.643	227.9
2141.681	223.9
2145.714	235.9
2149.744	222.9
2153.77	232.9
2157.793	236.9
2161.812	237.9
2165.827	233.9
2169.838	229.9
2173.846	226.9
2177.851	221.9
2181.851	219.9
2185.848	218.9
2189.841	211.9
2193.831	218.9
2197.817	215.9
2201.799	208.9
2205.778	199.9
2209.753	216.9
2213.725	214.9
2217.693	217.9
2221.657	215.9
2225.618	205.9
2229.575	207.9
2233.529	199.9
2237.479	210.9
2241.425	197.9
2245.368	203.9
2249.307	196.9
2253.243	187.9
2257.175	195.9
2261.104	184.9
2265.029	178.9
2268.95	184.9
2272.868	178.9
2276.783	179.9
2280.694	173.9
2284.601	179.9
2288.505	172.9
2292.405	172.9
2296.302	176.9
2300.195	175.9
2304.085	170.9
2307.971	166.9
2311.854	166.9
2315.734	160.9
2319.609	166.9
2323.482	163.9
2327.351	163.9
2331.216	164.9
2335.078	178.9
2338.937	170.9
2342.792	167.9
2346.643	163.9
2350.492	162.9
2354.336	161.9
2358.178	151.9
2362.015	157.9
2365.85	161.9
2369.681	174.9
2373.508	164.9
2377.333	169.9
2381.153	164.9
2384.971	168.9
2388.785	161.9
2392.595	162.9
2396.402	162.9
2400.206	169.9
2404.007	165.9
2407.804	161.9
2411.597	155.9
2415.388	162.9
2419.174	171.9
2422.958	149.9
2426.738	160.9
2430.515	162.9
2434.289	166.9
2438.059	148.9
2441.825	154.9
2445.589	152.9
2449.349	149.9
2453.106	159.9
2456.859	141.9
2460.61	147.9
2464.356	148.9
2468.1	146.9
2471.84	136.9
2475.577	137.9
2479.311	136.9
2483.041	137.9
2486.768	134.9
2490.492	136.9
2494.213	132.9
2497.93	130.9
2501.644	136.9
2505.355	131.9
2509.062	127.9
2512.766	127.9
2516.467	115.9
2520.165	121.9
2523.859	128.9
2527.551	119.9
2531.239	117.9
2534.923	120.9
2538.605	115.9
2542.283	112.9
2545.958	113.9
2549.63	106.9
2553.299	112.9
2556.964	96.9
2560.626	101.9
2564.285	101.9
2567.941	93.9
2571.594	98.9
2575.243	94.9
2578.89	92.9
2582.533	87.9
2586.173	91.9
2589.809	95.9
2593.443	97.9
2597.073	89.9
2600.701	97.9
2604.325	81.9
2607.946	81.9
2611.564	90.9
2615.178	86.9
2618.79	83.9
2622.398	88.9
2626.004	85.9
2629.606	84.9
2633.205	87.9
2636.801	80.9
2640.394	91.9
2643.983	77.9
2647.57	82.9
2651.153	74.9
2654.734	74.9
2658.311	81.9
2661.885	76.9
2665.456	81.9
2669.025	81.9
2672.589	72.9
2676.151	70.9
2679.71	67.9
2683.266	76.9
2686.819	75.9
2690.368	70.9
2693.915	70.9
2697.458	65.9
2700.999	68.9
2704.536	72.9
2708.071	74.9
2711.602	62.9
2715.13	50.9
2718.656	58.9
2722.178	59.9
2725.697	50.9
2729.214	51.9
2732.727	54.9
2736.237	56.9
2739.744	42.9
2743.249	47.9
2746.75	47.9
2750.248	45.9
2753.743	42.9
2757.236	43.9
2760.725	45.9
2764.211	30.9
2767.695	32.9
2771.175	36.9
2774.652	33.9
2778.127	37.9
2781.598	36.9
2785.067	31.9
2788.532	36.9
2791.995	45.9
2795.455	34.9
2798.911	37.9
2802.365	38.9
2805.816	41.9
2809.264	42.9
2812.709	36.9
2816.151	43.9
2819.59	54.9
2823.026	39.9
2826.46	44.9
2829.89	43.9
2833.318	36.9
2836.742	47.9
2840.164	42.9
2843.583	41.9
2846.999	45.9
2850.412	37.9
2853.822	42.9
2857.229	52.9
2860.634	50.9
2864.035	41.9
2867.434	46.9
2870.83	56.9
2874.223	46.9
2877.613	49.9
2881	52.9
2884.385	56.9
2887.766	58.9
2891.145	53.9
2894.521	56.9
2897.894	55.9
2901.264	54.9
2904.631	55.9
2907.996	59.9
2911.358	64.9
2914.717	67.9
2918.073	60.9
2921.426	60.9
2924.777	70.9
2928.124	67.9
2931.469	72.9
2934.811	73.9
2938.15	77.9
2941.487	86.9
2944.821	75.9
2948.152	82.9
2951.48	72.9
2954.805	79.9
2958.128	75.9
2961.447	69.9
2964.765	68.9
2968.079	71.9
2971.39	74.9
2974.699	67.9
2978.005	75.9
2981.308	69.9
2984.609	71.9
2987.907	70.9
2991.202	72.9
2994.494	68.9
2997.784	63.9
3001.07	75.9
3004.355	71.9
3007.636	71.9
3010.915	76.9
3014.191	69.9
3017.464	78.9
3020.734	76.9
3024.002	82.9
3027.267	81.9
3030.53	84.9
3033.789	75.9
3037.046	81.9
3040.301	78.9
3043.552	96.9
3046.801	94.9
3050.048	95.9
3053.291	100.9
3056.532	109.9
3059.771	115.9
3063.006	114.9
3066.239	120.9
3069.469	134.9
3072.697	130.9
3075.922	137.9
3079.144	130.9
3082.364	139.9
3085.581	136.9
3088.795	152.9
3092.007	161.9
3095.216	157.9
3098.423	158.9
3101.627	147.9
3104.828	161.9
3108.026	158.9
3111.222	167.9
3114.416	178.9
3117.607	179.9
3120.795	176.9
3123.98	182.9
3127.163	194.9
3130.344	190.9
3133.521	195.9
3136.696	208.9
3139.869	206.9
3143.039	210.9
3146.206	220.9
3149.371	207.9
3152.533	225.9
3155.693	224.9
3158.85	226.9
3162.005	222.9
3165.157	225.9
3168.306	222.9
3171.453	224.9
3174.597	217.9
3177.739	230.9
3180.878	227.9
3184.014	225.9
3187.149	227.9
3190.28	220.9
3193.409	227.9
3196.536	228.9
3199.659	234.9
3202.781	230.9
3205.9	226.9
3209.016	225.9
3212.13	232.9
3215.241	230.9
3218.35	227.9
3221.456	223.9
3224.56	218.9
3227.661	217.9
3230.76	208.9
3233.856	207.9
3236.95	198.9
3240.041	196.9
3243.13	203.9
3246.216	198.9
3249.3	191.9
3252.382	187.9
3255.46	188.9
3258.537	178.9
3261.611	177.9
3264.682	176.9
3267.751	183.9
3270.818	172.9
3273.882	174.9
3276.943	167.9
3280.002	176.9
3283.059	168.9
3286.113	159.9
3289.165	172.9
3292.214	163.9
3295.261	166.9
3298.306	161.9
3301.348	163.9
3304.387	159.9
3307.425	161.9
3310.459	154.9
3313.492	152.9
3316.521	150.9
3319.549	160.9
3322.574	147.9
3325.597	153.9
3328.617	155.9
3331.635	155.9
3334.65	164.9
3337.663	151.9
3340.674	158.9
3343.682	155.9
3346.688	160.9
3349.691	155.9
3352.692	161.9
3355.691	165.9
3358.687	145.9
3361.681	150.9
3364.673	157.9
3367.662	152.9
3370.649	152.9
3373.633	145.9
3376.615	144.9
3379.595	139.9
3382.572	132.9
3385.547	131.9
3388.52	135.9
3391.49	129.9
3394.458	126.9
3397.424	125.9
3400.387	130.9
3403.348	111.9
3406.307	115.9
3409.263	123.9
3412.217	126.9
3415.168	118.9
3418.118	110.9
3421.065	109.9
3424.009	108.9
3426.951	108.9
3429.891	102.9
3432.829	99.9
3435.764	99.9
3438.697	90.9
3441.628	82.9
3444.557	83.9
3447.483	87.9
3450.407	72.9
3453.328	81.9
3456.247	77.9
3459.164	75.9
3462.079	62.9
3464.991	63.9
3467.902	52.9
3470.809	54.9
3473.715	51.9
3476.618	50.9
3479.519	44.9
3482.418	37.9
3485.315	38.9
3488.209	32.9
3491.101	30.9
3493.99	37.9
3496.878	20.9
3499.763	19.9
3502.646	23.9
3505.527	23.9
3508.405	17.9
3511.281	13.9
3514.155	10.9
3517.027	9.9
3519.897	13.9
3522.764	7.9
3525.629	8.9
3528.492	0.9
3531.352	1.9
3534.211	-2.1
3537.067	-7.1
3539.921	-1.1
3542.773	-11.1
3545.622	-6.1
3548.469	-12.1
3551.315	-12.1
3554.157	-13.1
3556.998	-18.1
3559.837	-16.1
3562.673	-14.1
3565.507	-19.1
3568.339	-14.1
3571.169	-22.1
3573.996	-20.1
3576.822	-31.1
3579.645	-28.1
3582.466	-20.1
3585.285	-28.1
3588.101	-32.1
3590.916	-25.1
3593.728	-34.1
3596.538	-27.1
3599.346	-34.1
3602.152	-36.1
3604.956	-29.1
3607.757	-33.1
3610.556	-36.1
3613.354	-38.1
3616.149	-44.1
3618.942	-40.1
3621.732	-38.1
3624.521	-37.1
3627.307	-34.1
3630.092	-41.1
3632.874	-42.1
3635.654	-41.1
3638.432	-40.1
3641.208	-39.1
3643.982	-40.1
3646.753	-47.1
3649.523	-39.1
3652.29	-47.1
3655.055	-46.1
3657.818	-49.1
3660.579	-45.1
3663.338	-45.1
3666.095	-45.1
3668.849	-50.1
3671.602	-51.1
3674.352	-47.1
3677.101	-50.1
3679.847	-43.1
3682.591	-51.1
3685.333	-44.1
3688.073	-52.1
3690.811	-50.1
3693.547	-53.1
3696.281	-48.1
3699.013	-47.1
3701.742	-56.1
3704.47	-48.1
3707.195	-56.1
3709.919	-55.1
3712.64	-57.1
3715.359	-52.1
3718.076	-59.1
3720.792	-60.1
3723.505	-60.1
3726.216	-51.1
3728.925	-59.1
3731.632	-54.1
3734.336	-55.1
3737.039	-53.1
3739.74	-55.1
3742.439	-62.1
3745.136	-59.1
3747.83	-57.1
3750.523	-56.1
3753.213	-57.1
3755.902	-54.1
3758.589	-59.1
3761.273	-58.1
3763.956	-61.1
3766.636	-56.1
3769.315	-51.1
3771.991	-59.1
3774.665	-62.1
3777.338	-59.1
3780.008	-60.1
3782.677	-63.1
3785.343	-57.1
3788.007	-62.1
3790.67	-61.1
3793.33	-51.1
3795.989	-60.1
3798.645	-62.1
3801.299	-50.1
3803.952	-58.1
3806.602	-60.1
3809.251	-59.1
3811.897	-65.1
3814.542	-71.1
3817.184	-62.1
3819.825	-54.1
3822.463	-66.1
3825.1	-59.1
3827.735	-62.1
3830.367	-62.1
3832.998	-60.1
3835.627	-59.1
3838.253	-57.1
3840.878	-57.1
3843.501	-55.1
3846.122	-62.1
3848.741	-57.1
3851.358	-60.1
3853.973	-59.1
3856.586	-53.1
3859.197	-53.1
3861.806	-60.1
3864.414	-58.1
3867.019	-60.1
3869.622	-58.1
3872.224	-48.1
3874.823	-39.1
3877.421	-40.1
3880.016	-28.1
3882.61	-12.1
3885.202	-12.1
3887.792	-16.1
3890.38	-34.1
3892.966	-47.1
3895.55	-53.1
3898.132	-56.1
3900.713	-57.1
3903.291	-63.1
3905.868	-62.1
3908.442	-64.1
3911.015	-61.1
3913.586	-66.1
3916.155	-59.1
3918.722	-61.1
3921.287	-64.1
3923.85	-55.1
3926.411	-64.1
3928.971	-69.1
3931.528	-65.1
3934.084	-62.1
3936.638	-59.1
3939.19	-69.1
3941.74	-61.1
3944.288	-63.1
3946.834	-60.1
3949.378	-60.1
3951.921	-60.1
3954.462	-60.1
3957	-52.1
3959.537	-54.1
3962.072	-60.1
3964.606	-57.1
3967.137	-55.1
3969.667	-63.1
3972.194	-60.1
3974.72	-54.1
3977.244	-58.1
3979.766	-61.1
3982.286	-59.1
3984.805	-67.1
3987.321	-60.1
3989.836	-59.1
3992.349	-63.1
3994.86	-62.1
3997.369	-64.1
3999.877	-63.1
4002.382	-60.1
4004.886	-58.1
4007.388	-65.1
4009.888	-62.1
4012.386	-56.1
4014.883	-56.1
4017.377	-55.1
4019.87	-56.1
4022.361	-62.1
4024.85	-57.1
4027.338	-59.1
4029.823	-60.1
4032.307	-57.1
4034.789	-57.1
4037.269	-58.1
4039.747	-60.1
4042.224	-59.1
4044.699	-61.1
4047.172	-60.1
4049.643	-61.1
4052.112	-61.1
4054.58	-59.1
4057.046	-60.1
4059.51	-62.1
4061.972	-63.1
4064.432	-60.1
4066.891	-60.1
4069.348	-56.1
4071.803	-55.1
4074.256	-61.1
4076.708	-59.1
4079.158	-58.1
4081.606	-56.1
4084.052	-61.1
4086.497	-51.1
4088.939	-55.1
4091.38	-62.1
4093.819	-61.1
4096.257	-63.1
4098.693	-62.1
4101.127	-56.1
4103.559	-70.1
4105.989	-1.1
4108.418	-4.1
4110.845	-7.1
4113.27	-6.1
4115.694	-4.1
4118.115	4.9
4120.535	-61.1
4122.954	-60.1
4125.37	-62.1
4127.785	-59.1
4130.198	-62.1
4132.609	-63.1
4135.019	-60.1
4137.427	-64.1
4139.833	-60.1
4142.237	-65.1
