Data from 2018-3-7_conc=2_n=1_RamanShift_04.txt Node
Date: Wed Mar 07 10:40:52 IST 2018
User: aro
Spectrometer: QEPB0276
Trigger mode: 0
Integration Time (sec): 3.000000E1
Scans to average: 1
Electric dark correction enabled: true
Nonlinearity correction enabled: false
Boxcar width: 0
XAxis mode: Raman Shifts
Number of Pixels in Spectrum: 1044
>>>>>Begin Spectral Data<<<<<
160.701	7.4
166.742	23.4
172.777	60.4
178.805	170.4
184.826	427.4
190.841	896.4
196.849	1482.4
202.85	1916.4
208.845	2111.4
214.833	2114.4
220.815	2086.4
226.789	2089.4
232.758	2113.4
238.719	2111.4
244.674	2134.4
250.623	2109.4
256.565	2078.4
262.5	2047.4
268.429	2058.4
274.351	2048.4
280.267	2037.4
286.176	2025.4
292.079	2027.4
297.975	2038.4
303.865	2056.4
309.748	2037.4
315.625	2049.4
321.495	2040.4
327.359	2044.4
333.217	2048.4
339.068	2072.4
344.912	2067.4
350.751	2076.4
356.583	2084.4
362.408	2100.4
368.227	2092.4
374.04	2115.4
379.847	2129.4
385.647	2129.4
391.44	2148.4
397.228	2112.4
403.009	2142.4
408.784	2181.4
414.553	2189.4
420.315	2180.4
426.071	2193.4
431.821	2190.4
437.565	2190.4
443.302	2206.4
449.033	2166.4
454.758	2162.4
460.477	2144.4
466.189	2133.4
471.896	2107.4
477.596	2092.4
483.29	2081.4
488.978	2083.4
494.66	2073.4
500.335	2009.4
506.005	1957.4
511.668	1858.4
517.325	1770.4
522.977	1708.4
528.622	1662.4
534.261	1605.4
539.894	1590.4
545.521	1590.4
551.141	1557.4
556.756	1546.4
562.365	1527.4
567.968	1517.4
573.565	1501.4
579.155	1495.4
584.74	1471.4
590.319	1484.4
595.892	1484.4
601.459	1481.4
607.02	1461.4
612.575	1466.4
618.124	1452.4
623.667	1420.4
629.204	1399.4
634.735	1398.4
640.261	1376.4
645.781	1371.4
651.294	1382.4
656.802	1348.4
662.304	1352.4
667.8	1363.4
673.29	1366.4
678.775	1348.4
684.254	1340.4
689.726	1344.4
695.193	1308.4
700.655	1321.4
706.11	1307.4
711.56	1296.4
717.004	1289.4
722.442	1291.4
727.874	1282.4
733.301	1275.4
738.722	1267.4
744.137	1271.4
749.547	1266.4
754.951	1253.4
760.349	1267.4
765.741	1266.4
771.128	1273.4
776.509	1311.4
781.885	1312.4
787.254	1320.4
792.618	1325.4
797.977	1323.4
803.33	1297.4
808.677	1296.4
814.019	1288.4
819.355	1264.4
824.686	1271.4
830.011	1263.4
835.33	1234.4
840.644	1262.4
845.952	1236.4
851.255	1219.4
856.552	1228.4
861.844	1215.4
867.13	1189.4
872.41	1195.4
877.686	1209.4
882.955	1203.4
888.219	1179.4
893.478	1167.4
898.731	1136.4
903.979	1110.4
909.221	1120.4
914.458	1125.4
919.69	1103.4
924.916	1109.4
930.136	1103.4
935.351	1112.4
940.561	1103.4
945.766	1102.4
950.965	1108.4
956.158	1090.4
961.347	1068.4
966.529	1060.4
971.707	1045.4
976.879	1022.4
982.046	1024.4
987.208	1023.4
992.364	1006.4
997.515	1020.4
1002.66	1020.4
1007.801	1046.4
1012.936	1056.4
1018.066	1055.4
1023.19	1067.4
1028.309	1061.4
1033.423	1063.4
1038.532	1057.4
1043.636	1043.4
1048.734	1047.4
1053.827	1024.4
1058.915	1038.4
1063.998	1008.4
1069.075	1012.4
1074.147	1014.4
1079.214	1005.4
1084.276	1022.4
1089.333	1008.4
1094.385	1010.4
1099.431	1004.4
1104.472	1004.4
1109.509	1004.4
1114.54	996.4
1119.565	964.4
1124.586	965.4
1129.602	953.4
1134.613	928.4
1139.618	937.4
1144.619	927.4
1149.614	942.4
1154.604	927.4
1159.589	933.4
1164.57	937.4
1169.545	936.4
1174.515	945.4
1179.48	935.4
1184.44	938.4
1189.395	925.4
1194.345	910.4
1199.29	895.4
1204.23	915.4
1209.165	909.4
1214.095	923.4
1219.021	925.4
1223.941	910.4
1228.856	919.4
1233.766	947.4
1238.672	935.4
1243.572	924.4
1248.467	922.4
1253.358	899.4
1258.244	906.4
1263.124	866.4
1268	858.4
1272.871	850.4
1277.737	852.4
1282.599	840.4
1287.455	843.4
1292.306	852.4
1297.153	845.4
1301.995	855.4
1306.832	845.4
1311.664	856.4
1316.491	860.4
1321.314	860.4
1326.132	838.4
1330.945	844.4
1335.753	809.4
1340.556	776.4
1345.354	780.4
1350.148	770.4
1354.937	744.4
1359.722	729.4
1364.501	723.4
1369.276	716.4
1374.046	706.4
1378.811	693.4
1383.572	689.4
1388.327	690.4
1393.079	688.4
1397.825	699.4
1402.567	702.4
1407.304	703.4
1412.036	715.4
1416.764	687.4
1421.487	709.4
1426.205	704.4
1430.919	704.4
1435.628	717.4
1440.333	720.4
1445.032	710.4
1449.727	736.4
1454.418	728.4
1459.104	732.4
1463.785	728.4
1468.462	695.4
1473.134	668.4
1477.802	652.4
1482.465	655.4
1487.123	633.4
1491.777	612.4
1496.426	610.4
1501.071	594.4
1505.711	587.4
1510.347	588.4
1514.978	585.4
1519.604	576.4
1524.226	578.4
1528.844	579.4
1533.457	554.4
1538.065	569.4
1542.669	571.4
1547.269	572.4
1551.864	577.4
1556.454	589.4
1561.041	608.4
1565.622	608.4
1570.199	610.4
1574.772	618.4
1579.34	612.4
1583.904	621.4
1588.464	633.4
1593.019	624.4
1597.569	622.4
1602.115	632.4
1606.657	630.4
1611.195	636.4
1615.728	628.4
1620.256	616.4
1624.78	612.4
1629.3	616.4
1633.816	613.4
1638.327	626.4
1642.834	621.4
1647.336	619.4
1651.834	616.4
1656.328	614.4
1660.817	602.4
1665.302	598.4
1669.783	587.4
1674.259	569.4
1678.732	546.4
1683.199	527.4
1687.663	521.4
1692.122	482.4
1696.577	463.4
1701.028	453.4
1705.474	424.4
1709.917	418.4
1714.355	409.4
1718.788	403.4
1723.218	412.4
1727.643	417.4
1732.064	415.4
1736.481	402.4
1740.893	398.4
1745.301	399.4
1749.705	387.4
1754.105	374.4
1758.501	361.4
1762.893	357.4
1767.28	347.4
1771.663	339.4
1776.042	338.4
1780.417	335.4
1784.787	320.4
1789.154	311.4
1793.516	305.4
1797.874	301.4
1802.228	315.4
1806.578	298.4
1810.924	300.4
1815.266	297.4
1819.603	307.4
1823.937	296.4
1828.266	306.4
1832.591	307.4
1836.913	308.4
1841.23	304.4
1845.543	307.4
1849.852	311.4
1854.156	311.4
1858.457	319.4
1862.754	306.4
1867.047	313.4
1871.335	307.4
1875.62	302.4
1879.9	313.4
1884.177	291.4
1888.449	289.4
1892.718	290.4
1896.982	282.4
1901.243	277.4
1905.499	269.4
1909.752	266.4
1914	264.4
1918.245	261.4
1922.485	252.4
1926.722	238.4
1930.954	244.4
1935.183	234.4
1939.408	243.4
1943.628	238.4
1947.845	236.4
1952.058	235.4
1956.267	241.4
1960.472	235.4
1964.673	225.4
1968.87	224.4
1973.063	224.4
1977.252	234.4
1981.438	228.4
1985.619	224.4
1989.797	229.4
1993.971	232.4
1998.14	234.4
2002.306	241.4
2006.469	245.4
2010.627	230.4
2014.781	237.4
2018.932	234.4
2023.078	237.4
2027.221	226.4
2031.36	224.4
2035.495	233.4
2039.627	223.4
2043.754	219.4
2047.878	217.4
2051.998	222.4
2056.114	208.4
2060.226	214.4
2064.334	213.4
2068.439	198.4
2072.54	204.4
2076.637	207.4
2080.73	192.4
2084.82	200.4
2088.906	187.4
2092.988	194.4
2097.066	191.4
2101.14	192.4
2105.211	184.4
2109.278	184.4
2113.342	184.4
2117.401	176.4
2121.457	175.4
2125.509	179.4
2129.558	177.4
2133.602	181.4
2137.643	185.4
2141.681	175.4
2145.714	193.4
2149.744	181.4
2153.77	182.4
2157.793	176.4
2161.812	186.4
2165.827	176.4
2169.838	178.4
2173.846	173.4
2177.851	174.4
2181.851	175.4
2185.848	169.4
2189.841	165.4
2193.831	169.4
2197.817	169.4
2201.799	161.4
2205.778	156.4
2209.753	163.4
2213.725	162.4
2217.693	168.4
2221.657	159.4
2225.618	153.4
2229.575	161.4
2233.529	161.4
2237.479	153.4
2241.425	149.4
2245.368	155.4
2249.307	150.4
2253.243	147.4
2257.175	146.4
2261.104	134.4
2265.029	137.4
2268.95	145.4
2272.868	140.4
2276.783	141.4
2280.694	136.4
2284.601	124.4
2288.505	134.4
2292.405	138.4
2296.302	139.4
2300.195	130.4
2304.085	130.4
2307.971	119.4
2311.854	124.4
2315.734	122.4
2319.609	122.4
2323.482	115.4
2327.351	121.4
2331.216	138.4
2335.078	151.4
2338.937	140.4
2342.792	129.4
2346.643	124.4
2350.492	122.4
2354.336	126.4
2358.178	119.4
2362.015	123.4
2365.85	120.4
2369.681	121.4
2373.508	127.4
2377.333	128.4
2381.153	122.4
2384.971	120.4
2388.785	119.4
2392.595	124.4
2396.402	124.4
2400.206	130.4
2404.007	123.4
2407.804	120.4
2411.597	120.4
2415.388	116.4
2419.174	122.4
2422.958	118.4
2426.738	112.4
2430.515	113.4
2434.289	118.4
2438.059	116.4
2441.825	111.4
2445.589	108.4
2449.349	103.4
2453.106	106.4
2456.859	102.4
2460.61	101.4
2464.356	104.4
2468.1	102.4
2471.84	100.4
2475.577	100.4
2479.311	96.4
2483.041	98.4
2486.768	92.4
2490.492	92.4
2494.213	94.4
2497.93	95.4
2501.644	96.4
2505.355	83.4
2509.062	84.4
2512.766	91.4
2516.467	84.4
2520.165	88.4
2523.859	93.4
2527.551	86.4
2531.239	72.4
2534.923	75.4
2538.605	72.4
2542.283	70.4
2545.958	74.4
2549.63	74.4
2553.299	75.4
2556.964	74.4
2560.626	70.4
2564.285	64.4
2567.941	61.4
2571.594	63.4
2575.243	66.4
2578.89	69.4
2582.533	64.4
2586.173	62.4
2589.809	64.4
2593.443	69.4
2597.073	68.4
2600.701	69.4
2604.325	60.4
2607.946	53.4
2611.564	58.4
2615.178	59.4
2618.79	54.4
2622.398	54.4
2626.004	61.4
2629.606	59.4
2633.205	58.4
2636.801	54.4
2640.394	61.4
2643.983	55.4
2647.57	51.4
2651.153	42.4
2654.734	53.4
2658.311	50.4
2661.885	48.4
2665.456	55.4
2669.025	56.4
2672.589	47.4
2676.151	46.4
2679.71	41.4
2683.266	43.4
2686.819	47.4
2690.368	51.4
2693.915	44.4
2697.458	44.4
2700.999	49.4
2704.536	44.4
2708.071	44.4
2711.602	40.4
2715.13	38.4
2718.656	35.4
2722.178	33.4
2725.697	28.4
2729.214	29.4
2732.727	36.4
2736.237	39.4
2739.744	25.4
2743.249	32.4
2746.75	34.4
2750.248	23.4
2753.743	21.4
2757.236	23.4
2760.725	21.4
2764.211	21.4
2767.695	15.4
2771.175	17.4
2774.652	17.4
2778.127	22.4
2781.598	16.4
2785.067	24.4
2788.532	18.4
2791.995	25.4
2795.455	21.4
2798.911	21.4
2802.365	22.4
2805.816	14.4
2809.264	21.4
2812.709	21.4
2816.151	17.4
2819.59	31.4
2823.026	21.4
2826.46	26.4
2829.89	18.4
2833.318	23.4
2836.742	28.4
2840.164	19.4
2843.583	16.4
2846.999	23.4
2850.412	26.4
2853.822	29.4
2857.229	28.4
2860.634	29.4
2864.035	22.4
2867.434	31.4
2870.83	27.4
2874.223	32.4
2877.613	29.4
2881	36.4
2884.385	46.4
2887.766	39.4
2891.145	42.4
2894.521	38.4
2897.894	47.4
2901.264	36.4
2904.631	37.4
2907.996	38.4
2911.358	43.4
2914.717	37.4
2918.073	38.4
2921.426	40.4
2924.777	48.4
2928.124	44.4
2931.469	53.4
2934.811	57.4
2938.15	57.4
2941.487	56.4
2944.821	58.4
2948.152	57.4
2951.48	53.4
2954.805	51.4
2958.128	50.4
2961.447	56.4
2964.765	46.4
2968.079	48.4
2971.39	51.4
2974.699	43.4
2978.005	49.4
2981.308	39.4
2984.609	48.4
2987.907	45.4
2991.202	51.4
2994.494	44.4
2997.784	37.4
3001.07	49.4
3004.355	48.4
3007.636	51.4
3010.915	54.4
3014.191	49.4
3017.464	46.4
3020.734	48.4
3024.002	58.4
3027.267	52.4
3030.53	59.4
3033.789	53.4
3037.046	52.4
3040.301	61.4
3043.552	63.4
3046.801	68.4
3050.048	65.4
3053.291	76.4
3056.532	70.4
3059.771	70.4
3063.006	73.4
3066.239	77.4
3069.469	88.4
3072.697	87.4
3075.922	97.4
3079.144	97.4
3082.364	99.4
3085.581	100.4
3088.795	104.4
3092.007	109.4
3095.216	104.4
3098.423	101.4
3101.627	105.4
3104.828	123.4
3108.026	114.4
3111.222	117.4
3114.416	130.4
3117.607	124.4
3120.795	121.4
3123.98	132.4
3127.163	142.4
3130.344	139.4
3133.521	137.4
3136.696	142.4
3139.869	148.4
3143.039	148.4
3146.206	153.4
3149.371	150.4
3152.533	166.4
3155.693	162.4
3158.85	160.4
3162.005	163.4
3165.157	159.4
3168.306	164.4
3171.453	158.4
3174.597	164.4
3177.739	159.4
3180.878	166.4
3184.014	166.4
3187.149	162.4
3190.28	164.4
3193.409	172.4
3196.536	166.4
3199.659	161.4
3202.781	163.4
3205.9	160.4
3209.016	161.4
3212.13	155.4
3215.241	162.4
3218.35	159.4
3221.456	155.4
3224.56	140.4
3227.661	143.4
3230.76	143.4
3233.856	149.4
3236.95	135.4
3240.041	132.4
3243.13	136.4
3246.216	131.4
3249.3	121.4
3252.382	132.4
3255.46	130.4
3258.537	122.4
3261.611	127.4
3264.682	121.4
3267.751	120.4
3270.818	114.4
3273.882	121.4
3276.943	119.4
3280.002	116.4
3283.059	120.4
3286.113	119.4
3289.165	115.4
3292.214	113.4
3295.261	116.4
3298.306	105.4
3301.348	114.4
3304.387	109.4
3307.425	104.4
3310.459	103.4
3313.492	109.4
3316.521	102.4
3319.549	109.4
3322.574	105.4
3325.597	106.4
3328.617	103.4
3331.635	110.4
3334.65	108.4
3337.663	93.4
3340.674	106.4
3343.682	109.4
3346.688	102.4
3349.691	110.4
3352.692	105.4
3355.691	106.4
3358.687	107.4
3361.681	106.4
3364.673	105.4
3367.662	95.4
3370.649	93.4
3373.633	87.4
3376.615	100.4
3379.595	87.4
3382.572	78.4
3385.547	88.4
3388.52	84.4
3391.49	87.4
3394.458	80.4
3397.424	81.4
3400.387	83.4
3403.348	75.4
3406.307	66.4
3409.263	74.4
3412.217	72.4
3415.168	68.4
3418.118	65.4
3421.065	61.4
3424.009	70.4
3426.951	68.4
3429.891	63.4
3432.829	64.4
3435.764	64.4
3438.697	60.4
3441.628	47.4
3444.557	51.4
3447.483	48.4
3450.407	35.4
3453.328	43.4
3456.247	39.4
3459.164	39.4
3462.079	25.4
3464.991	31.4
3467.902	28.4
3470.809	24.4
3473.715	23.4
3476.618	19.4
3479.519	10.4
3482.418	14.4
3485.315	12.4
3488.209	7.4
3491.101	6.4
3493.99	8.4
3496.878	5.4
3499.763	-1.6
3502.646	-1.6
3505.527	-2.6
3508.405	-2.6
3511.281	-2.6
3514.155	-11.6
3517.027	-12.6
3519.897	-6.6
3522.764	-10.6
3525.629	-5.6
3528.492	-16.6
3531.352	-17.6
3534.211	-16.6
3537.067	-20.6
3539.921	-18.6
3542.773	-24.6
3545.622	-25.6
3548.469	-29.6
3551.315	-25.6
3554.157	-24.6
3556.998	-21.6
3559.837	-31.6
3562.673	-27.6
3565.507	-30.6
3568.339	-33.6
3571.169	-36.6
3573.996	-31.6
3576.822	-40.6
3579.645	-37.6
3582.466	-30.6
3585.285	-35.6
3588.101	-37.6
3590.916	-36.6
3593.728	-42.6
3596.538	-42.6
3599.346	-38.6
3602.152	-44.6
3604.956	-37.6
3607.757	-37.6
3610.556	-36.6
3613.354	-44.6
3616.149	-46.6
3618.942	-44.6
3621.732	-46.6
3624.521	-41.6
3627.307	-48.6
3630.092	-47.6
3632.874	-49.6
3635.654	-48.6
3638.432	-49.6
3641.208	-49.6
3643.982	-42.6
3646.753	-49.6
3649.523	-44.6
3652.29	-53.6
3655.055	-44.6
3657.818	-54.6
3660.579	-51.6
3663.338	-50.6
3666.095	-50.6
3668.849	-51.6
3671.602	-50.6
3674.352	-50.6
3677.101	-53.6
3679.847	-52.6
3682.591	-55.6
3685.333	-52.6
3688.073	-57.6
3690.811	-51.6
3693.547	-62.6
3696.281	-55.6
3699.013	-58.6
3701.742	-56.6
3704.47	-46.6
3707.195	-56.6
3709.919	-59.6
3712.64	-53.6
3715.359	-55.6
3718.076	-59.6
3720.792	-56.6
3723.505	-60.6
3726.216	-56.6
3728.925	-63.6
3731.632	-56.6
3734.336	-59.6
3737.039	-50.6
3739.74	-60.6
3742.439	-57.6
3745.136	-59.6
3747.83	-64.6
3750.523	-63.6
3753.213	-62.6
3755.902	-60.6
3758.589	-56.6
3761.273	-57.6
3763.956	-59.6
3766.636	-53.6
3769.315	-53.6
3771.991	-58.6
3774.665	-67.6
3777.338	-67.6
3780.008	-57.6
3782.677	-67.6
3785.343	-56.6
3788.007	-60.6
3790.67	-56.6
3793.33	-56.6
3795.989	-57.6
3798.645	-63.6
3801.299	-60.6
3803.952	-62.6
3806.602	-63.6
3809.251	-61.6
3811.897	-66.6
3814.542	-66.6
3817.184	-63.6
3819.825	-55.6
3822.463	-61.6
3825.1	-59.6
3827.735	-65.6
3830.367	-68.6
3832.998	-65.6
3835.627	-63.6
3838.253	-58.6
3840.878	-55.6
3843.501	-61.6
3846.122	-62.6
3848.741	-61.6
3851.358	-59.6
3853.973	-60.6
3856.586	-60.6
3859.197	-62.6
3861.806	-66.6
3864.414	-65.6
3867.019	-63.6
3869.622	-56.6
3872.224	-51.6
3874.823	-37.6
3877.421	-35.6
3880.016	-23.6
3882.61	-11.6
3885.202	-13.6
3887.792	-20.6
3890.38	-31.6
3892.966	-47.6
3895.55	-56.6
3898.132	-57.6
3900.713	-56.6
3903.291	-58.6
3905.868	-58.6
3908.442	-59.6
3911.015	-58.6
3913.586	-71.6
3916.155	-65.6
3918.722	-62.6
3921.287	-66.6
3923.85	-59.6
3926.411	-60.6
3928.971	-67.6
3931.528	-64.6
3934.084	-61.6
3936.638	-61.6
3939.19	-68.6
3941.74	-59.6
3944.288	-62.6
3946.834	-59.6
3949.378	-61.6
3951.921	-60.6
3954.462	-66.6
3957	-53.6
3959.537	-55.6
3962.072	-61.6
3964.606	-61.6
3967.137	-61.6
3969.667	-65.6
3972.194	-59.6
3974.72	-58.6
3977.244	-56.6
3979.766	-56.6
3982.286	-61.6
3984.805	-64.6
3987.321	-60.6
3989.836	-59.6
3992.349	-62.6
3994.86	-63.6
3997.369	-62.6
3999.877	-65.6
4002.382	-64.6
4004.886	-60.6
4007.388	-62.6
4009.888	-60.6
4012.386	-61.6
4014.883	-57.6
4017.377	-57.6
4019.87	-65.6
4022.361	-61.6
4024.85	-63.6
4027.338	-66.6
4029.823	-64.6
4032.307	-61.6
4034.789	-59.6
4037.269	-60.6
4039.747	-60.6
4042.224	-62.6
4044.699	-65.6
4047.172	-69.6
4049.643	-64.6
4052.112	-60.6
4054.58	-63.6
4057.046	-64.6
4059.51	-64.6
4061.972	-63.6
4064.432	-62.6
4066.891	-54.6
4069.348	-61.6
4071.803	-53.6
4074.256	-64.6
4076.708	-58.6
4079.158	-66.6
4081.606	-63.6
4084.052	-58.6
4086.497	-58.6
4088.939	-57.6
4091.38	-62.6
4093.819	-67.6
4096.257	-67.6
4098.693	-65.6
4101.127	-58.6
4103.559	-69.6
4105.989	14.4
4108.418	5.4
4110.845	2.4
4113.27	0.4
4115.694	-3.6
4118.115	1.4
4120.535	-62.6
4122.954	-59.6
4125.37	-59.6
4127.785	-61.6
4130.198	-64.6
4132.609	-63.6
4135.019	-64.6
4137.427	-67.6
4139.833	-63.6
4142.237	-65.6
