Data from 2018-3-7_conc=4_n=2_RamanShift_03.txt Node
Date: Wed Mar 07 11:52:52 IST 2018
User: aro
Spectrometer: QEPB0276
Trigger mode: 0
Integration Time (sec): 3.000000E1
Scans to average: 1
Electric dark correction enabled: true
Nonlinearity correction enabled: false
Boxcar width: 0
XAxis mode: Raman Shifts
Number of Pixels in Spectrum: 1044
>>>>>Begin Spectral Data<<<<<
160.701	23.8
166.742	29.8
172.777	50.8
178.805	128.8
184.826	304.8
190.841	638.8
196.849	1059.8
202.85	1374.8
208.845	1499.8
214.833	1507.8
220.815	1495.8
226.789	1486.8
232.758	1498.8
238.719	1510.8
244.674	1487.8
250.623	1487.8
256.565	1487.8
262.5	1459.8
268.429	1447.8
274.351	1437.8
280.267	1437.8
286.176	1439.8
292.079	1432.8
297.975	1444.8
303.865	1448.8
309.748	1426.8
315.625	1436.8
321.495	1437.8
327.359	1440.8
333.217	1447.8
339.068	1449.8
344.912	1453.8
350.751	1449.8
356.583	1448.8
362.408	1447.8
368.227	1465.8
374.04	1455.8
379.847	1472.8
385.647	1459.8
391.44	1484.8
397.228	1483.8
403.009	1489.8
408.784	1494.8
414.553	1514.8
420.315	1518.8
426.071	1513.8
431.821	1506.8
437.565	1511.8
443.302	1503.8
449.033	1500.8
454.758	1502.8
460.477	1486.8
466.189	1451.8
471.896	1460.8
477.596	1443.8
483.29	1432.8
488.978	1433.8
494.66	1413.8
500.335	1401.8
506.005	1352.8
511.668	1294.8
517.325	1244.8
522.977	1190.8
528.622	1161.8
534.261	1138.8
539.894	1113.8
545.521	1102.8
551.141	1083.8
556.756	1082.8
562.365	1072.8
567.968	1047.8
573.565	1056.8
579.155	1051.8
584.74	1059.8
590.319	1044.8
595.892	1049.8
601.459	1028.8
607.02	1045.8
612.575	1026.8
618.124	1024.8
623.667	1012.8
629.204	999.8
634.735	972.8
640.261	971.8
645.781	976.8
651.294	976.8
656.802	950.8
662.304	953.8
667.8	947.8
673.29	962.8
678.775	944.8
684.254	946.8
689.726	934.8
695.193	929.8
700.655	934.8
706.11	922.8
711.56	896.8
717.004	908.8
722.442	896.8
727.874	903.8
733.301	889.8
738.722	880.8
744.137	888.8
749.547	897.8
754.951	892.8
760.349	877.8
765.741	894.8
771.128	880.8
776.509	907.8
781.885	915.8
787.254	932.8
792.618	923.8
797.977	928.8
803.33	911.8
808.677	917.8
814.019	890.8
819.355	891.8
824.686	881.8
830.011	878.8
835.33	874.8
840.644	866.8
845.952	877.8
851.255	865.8
856.552	870.8
861.844	843.8
867.13	838.8
872.41	835.8
877.686	829.8
882.955	830.8
888.219	810.8
893.478	811.8
898.731	799.8
903.979	784.8
909.221	784.8
914.458	783.8
919.69	779.8
924.916	770.8
930.136	786.8
935.351	761.8
940.561	773.8
945.766	772.8
950.965	770.8
956.158	756.8
961.347	747.8
966.529	755.8
971.707	730.8
976.879	730.8
982.046	714.8
987.208	714.8
992.364	708.8
997.515	724.8
1002.66	717.8
1007.801	737.8
1012.936	746.8
1018.066	744.8
1023.19	730.8
1028.309	727.8
1033.423	730.8
1038.532	730.8
1043.636	731.8
1048.734	719.8
1053.827	719.8
1058.915	714.8
1063.998	700.8
1069.075	703.8
1074.147	700.8
1079.214	698.8
1084.276	702.8
1089.333	720.8
1094.385	716.8
1099.431	699.8
1104.472	711.8
1109.509	690.8
1114.54	676.8
1119.565	684.8
1124.586	659.8
1129.602	654.8
1134.613	654.8
1139.618	659.8
1144.619	645.8
1149.614	656.8
1154.604	642.8
1159.589	657.8
1164.57	659.8
1169.545	649.8
1174.515	660.8
1179.48	652.8
1184.44	640.8
1189.395	645.8
1194.345	635.8
1199.29	628.8
1204.23	641.8
1209.165	641.8
1214.095	632.8
1219.021	642.8
1223.941	634.8
1228.856	639.8
1233.766	659.8
1238.672	647.8
1243.572	658.8
1248.467	645.8
1253.358	635.8
1258.244	630.8
1263.124	603.8
1268	609.8
1272.871	586.8
1277.737	585.8
1282.599	588.8
1287.455	577.8
1292.306	594.8
1297.153	583.8
1301.995	575.8
1306.832	597.8
1311.664	586.8
1316.491	612.8
1321.314	601.8
1326.132	599.8
1330.945	566.8
1335.753	580.8
1340.556	547.8
1345.354	541.8
1350.148	542.8
1354.937	521.8
1359.722	512.8
1364.501	502.8
1369.276	505.8
1374.046	492.8
1378.811	480.8
1383.572	494.8
1388.327	483.8
1393.079	479.8
1397.825	487.8
1402.567	494.8
1407.304	497.8
1412.036	485.8
1416.764	487.8
1421.487	486.8
1426.205	489.8
1430.919	483.8
1435.628	494.8
1440.333	501.8
1445.032	491.8
1449.727	517.8
1454.418	508.8
1459.104	507.8
1463.785	492.8
1468.462	488.8
1473.134	475.8
1477.802	467.8
1482.465	456.8
1487.123	441.8
1491.777	443.8
1496.426	428.8
1501.071	434.8
1505.711	431.8
1510.347	416.8
1514.978	414.8
1519.604	419.8
1524.226	422.8
1528.844	423.8
1533.457	409.8
1538.065	416.8
1542.669	411.8
1547.269	402.8
1551.864	421.8
1556.454	420.8
1561.041	429.8
1565.622	432.8
1570.199	424.8
1574.772	416.8
1579.34	429.8
1583.904	438.8
1588.464	450.8
1593.019	435.8
1597.569	447.8
1602.115	444.8
1606.657	450.8
1611.195	448.8
1615.728	441.8
1620.256	432.8
1624.78	435.8
1629.3	442.8
1633.816	437.8
1638.327	448.8
1642.834	440.8
1647.336	434.8
1651.834	439.8
1656.328	443.8
1660.817	440.8
1665.302	434.8
1669.783	427.8
1674.259	411.8
1678.732	402.8
1683.199	382.8
1687.663	372.8
1692.122	353.8
1696.577	343.8
1701.028	339.8
1705.474	321.8
1709.917	326.8
1714.355	313.8
1718.788	298.8
1723.218	313.8
1727.643	302.8
1732.064	308.8
1736.481	302.8
1740.893	285.8
1745.301	288.8
1749.705	286.8
1754.105	281.8
1758.501	259.8
1762.893	266.8
1767.28	246.8
1771.663	252.8
1776.042	243.8
1780.417	246.8
1784.787	251.8
1789.154	243.8
1793.516	240.8
1797.874	229.8
1802.228	234.8
1806.578	228.8
1810.924	229.8
1815.266	228.8
1819.603	217.8
1823.937	229.8
1828.266	224.8
1832.591	234.8
1836.913	225.8
1841.23	224.8
1845.543	221.8
1849.852	223.8
1854.156	227.8
1858.457	233.8
1862.754	228.8
1867.047	227.8
1871.335	234.8
1875.62	229.8
1879.9	228.8
1884.177	222.8
1888.449	216.8
1892.718	216.8
1896.982	217.8
1901.243	199.8
1905.499	196.8
1909.752	200.8
1914	193.8
1918.245	197.8
1922.485	188.8
1926.722	191.8
1930.954	188.8
1935.183	195.8
1939.408	190.8
1943.628	187.8
1947.845	198.8
1952.058	179.8
1956.267	190.8
1960.472	194.8
1964.673	179.8
1968.87	174.8
1973.063	186.8
1977.252	176.8
1981.438	169.8
1985.619	172.8
1989.797	169.8
1993.971	174.8
1998.14	173.8
2002.306	173.8
2006.469	180.8
2010.627	170.8
2014.781	175.8
2018.932	174.8
2023.078	177.8
2027.221	170.8
2031.36	167.8
2035.495	163.8
2039.627	155.8
2043.754	162.8
2047.878	164.8
2051.998	158.8
2056.114	151.8
2060.226	149.8
2064.334	152.8
2068.439	150.8
2072.54	150.8
2076.637	159.8
2080.73	149.8
2084.82	155.8
2088.906	152.8
2092.988	152.8
2097.066	153.8
2101.14	148.8
2105.211	148.8
2109.278	139.8
2113.342	134.8
2117.401	141.8
2121.457	133.8
2125.509	124.8
2129.558	137.8
2133.602	127.8
2137.643	138.8
2141.681	133.8
2145.714	134.8
2149.744	136.8
2153.77	133.8
2157.793	130.8
2161.812	135.8
2165.827	130.8
2169.838	126.8
2173.846	125.8
2177.851	127.8
2181.851	127.8
2185.848	122.8
2189.841	118.8
2193.831	116.8
2197.817	123.8
2201.799	115.8
2205.778	116.8
2209.753	119.8
2213.725	116.8
2217.693	121.8
2221.657	113.8
2225.618	113.8
2229.575	105.8
2233.529	102.8
2237.479	117.8
2241.425	107.8
2245.368	116.8
2249.307	108.8
2253.243	103.8
2257.175	105.8
2261.104	91.8
2265.029	102.8
2268.95	102.8
2272.868	101.8
2276.783	95.8
2280.694	90.8
2284.601	93.8
2288.505	94.8
2292.405	89.8
2296.302	98.8
2300.195	91.8
2304.085	90.8
2307.971	83.8
2311.854	84.8
2315.734	76.8
2319.609	90.8
2323.482	84.8
2327.351	89.8
2331.216	89.8
2335.078	99.8
2338.937	89.8
2342.792	82.8
2346.643	84.8
2350.492	87.8
2354.336	74.8
2358.178	76.8
2362.015	71.8
2365.85	81.8
2369.681	87.8
2373.508	88.8
2377.333	90.8
2381.153	82.8
2384.971	84.8
2388.785	76.8
2392.595	83.8
2396.402	82.8
2400.206	78.8
2404.007	76.8
2407.804	83.8
2411.597	69.8
2415.388	73.8
2419.174	82.8
2422.958	74.8
2426.738	78.8
2430.515	72.8
2434.289	78.8
2438.059	71.8
2441.825	67.8
2445.589	68.8
2449.349	64.8
2453.106	72.8
2456.859	66.8
2460.61	68.8
2464.356	63.8
2468.1	64.8
2471.84	59.8
2475.577	59.8
2479.311	62.8
2483.041	56.8
2486.768	59.8
2490.492	59.8
2494.213	60.8
2497.93	62.8
2501.644	59.8
2505.355	56.8
2509.062	57.8
2512.766	59.8
2516.467	52.8
2520.165	45.8
2523.859	60.8
2527.551	45.8
2531.239	48.8
2534.923	43.8
2538.605	43.8
2542.283	42.8
2545.958	45.8
2549.63	49.8
2553.299	46.8
2556.964	38.8
2560.626	45.8
2564.285	55.8
2567.941	42.8
2571.594	37.8
2575.243	46.8
2578.89	43.8
2582.533	39.8
2586.173	37.8
2589.809	43.8
2593.443	43.8
2597.073	43.8
2600.701	39.8
2604.325	32.8
2607.946	27.8
2611.564	39.8
2615.178	32.8
2618.79	31.8
2622.398	37.8
2626.004	32.8
2629.606	29.8
2633.205	38.8
2636.801	30.8
2640.394	35.8
2643.983	37.8
2647.57	29.8
2651.153	23.8
2654.734	20.8
2658.311	22.8
2661.885	31.8
2665.456	32.8
2669.025	29.8
2672.589	18.8
2676.151	30.8
2679.71	21.8
2683.266	27.8
2686.819	29.8
2690.368	25.8
2693.915	25.8
2697.458	15.8
2700.999	26.8
2704.536	25.8
2708.071	22.8
2711.602	20.8
2715.13	10.8
2718.656	8.8
2722.178	13.8
2725.697	14.8
2729.214	15.8
2732.727	16.8
2736.237	21.8
2739.744	11.8
2743.249	13.8
2746.75	21.8
2750.248	13.8
2753.743	15.8
2757.236	11.8
2760.725	9.8
2764.211	3.8
2767.695	4.8
2771.175	7.8
2774.652	5.8
2778.127	9.8
2781.598	5.8
2785.067	5.8
2788.532	6.8
2791.995	12.8
2795.455	8.8
2798.911	12.8
2802.365	13.8
2805.816	3.8
2809.264	8.8
2812.709	3.8
2816.151	9.8
2819.59	14.8
2823.026	11.8
2826.46	10.8
2829.89	10.8
2833.318	3.8
2836.742	14.8
2840.164	5.8
2843.583	10.8
2846.999	12.8
2850.412	13.8
2853.822	15.8
2857.229	17.8
2860.634	7.8
2864.035	13.8
2867.434	13.8
2870.83	18.8
2874.223	16.8
2877.613	16.8
2881	14.8
2884.385	14.8
2887.766	20.8
2891.145	16.8
2894.521	24.8
2897.894	18.8
2901.264	21.8
2904.631	15.8
2907.996	16.8
2911.358	20.8
2914.717	19.8
2918.073	21.8
2921.426	16.8
2924.777	24.8
2928.124	26.8
2931.469	23.8
2934.811	23.8
2938.15	19.8
2941.487	31.8
2944.821	24.8
2948.152	28.8
2951.48	23.8
2954.805	29.8
2958.128	27.8
2961.447	31.8
2964.765	27.8
2968.079	31.8
2971.39	26.8
2974.699	21.8
2978.005	29.8
2981.308	30.8
2984.609	24.8
2987.907	26.8
2991.202	22.8
2994.494	21.8
2997.784	15.8
3001.07	22.8
3004.355	25.8
3007.636	26.8
3010.915	25.8
3014.191	32.8
3017.464	30.8
3020.734	36.8
3024.002	35.8
3027.267	34.8
3030.53	39.8
3033.789	35.8
3037.046	34.8
3040.301	30.8
3043.552	34.8
3046.801	42.8
3050.048	37.8
3053.291	37.8
3056.532	42.8
3059.771	41.8
3063.006	55.8
3066.239	49.8
3069.469	60.8
3072.697	61.8
3075.922	61.8
3079.144	57.8
3082.364	60.8
3085.581	66.8
3088.795	66.8
3092.007	71.8
3095.216	68.8
3098.423	70.8
3101.627	69.8
3104.828	76.8
3108.026	74.8
3111.222	82.8
3114.416	81.8
3117.607	77.8
3120.795	85.8
3123.98	85.8
3127.163	97.8
3130.344	95.8
3133.521	97.8
3136.696	94.8
3139.869	103.8
3143.039	98.8
3146.206	105.8
3149.371	101.8
3152.533	115.8
3155.693	109.8
3158.85	109.8
3162.005	107.8
3165.157	114.8
3168.306	113.8
3171.453	115.8
3174.597	111.8
3177.739	108.8
3180.878	118.8
3184.014	107.8
3187.149	109.8
3190.28	120.8
3193.409	116.8
3196.536	109.8
3199.659	116.8
3202.781	116.8
3205.9	109.8
3209.016	102.8
3212.13	110.8
3215.241	109.8
3218.35	105.8
3221.456	113.8
3224.56	106.8
3227.661	109.8
3230.76	108.8
3233.856	103.8
3236.95	95.8
3240.041	101.8
3243.13	100.8
3246.216	95.8
3249.3	89.8
3252.382	86.8
3255.46	90.8
3258.537	90.8
3261.611	82.8
3264.682	84.8
3267.751	87.8
3270.818	79.8
3273.882	83.8
3276.943	82.8
3280.002	82.8
3283.059	76.8
3286.113	79.8
3289.165	84.8
3292.214	76.8
3295.261	80.8
3298.306	75.8
3301.348	80.8
3304.387	76.8
3307.425	73.8
3310.459	77.8
3313.492	74.8
3316.521	73.8
3319.549	83.8
3322.574	72.8
3325.597	68.8
3328.617	63.8
3331.635	76.8
3334.65	82.8
3337.663	57.8
3340.674	70.8
3343.682	73.8
3346.688	62.8
3349.691	77.8
3352.692	75.8
3355.691	77.8
3358.687	72.8
3361.681	68.8
3364.673	73.8
3367.662	68.8
3370.649	67.8
3373.633	65.8
3376.615	64.8
3379.595	61.8
3382.572	56.8
3385.547	66.8
3388.52	54.8
3391.49	48.8
3394.458	48.8
3397.424	51.8
3400.387	55.8
3403.348	46.8
3406.307	42.8
3409.263	51.8
3412.217	53.8
3415.168	53.8
3418.118	44.8
3421.065	41.8
3424.009	38.8
3426.951	39.8
3429.891	35.8
3432.829	30.8
3435.764	37.8
3438.697	40.8
3441.628	24.8
3444.557	28.8
3447.483	32.8
3450.407	26.8
3453.328	27.8
3456.247	25.8
3459.164	27.8
3462.079	9.8
3464.991	16.8
3467.902	12.8
3470.809	17.8
3473.715	11.8
3476.618	6.8
3479.519	4.8
3482.418	1.8
3485.315	5.8
3488.209	-1.2
3491.101	-1.2
3493.99	6.8
3496.878	-1.2
3499.763	-8.2
3502.646	-2.2
3505.527	-5.2
3508.405	2.8
3511.281	-3.2
3514.155	-6.2
3517.027	-11.2
3519.897	-3.2
3522.764	-8.2
3525.629	-17.2
3528.492	-16.2
3531.352	-21.2
3534.211	-17.2
3537.067	-20.2
3539.921	-20.2
3542.773	-28.2
3545.622	-23.2
3548.469	-23.2
3551.315	-21.2
3554.157	-26.2
3556.998	-24.2
3559.837	-27.2
3562.673	-27.2
3565.507	-24.2
3568.339	-30.2
3571.169	-29.2
3573.996	-20.2
3576.822	-32.2
3579.645	-38.2
3582.466	-31.2
3585.285	-37.2
3588.101	-36.2
3590.916	-34.2
3593.728	-40.2
3596.538	-38.2
3599.346	-41.2
3602.152	-37.2
3604.956	-37.2
3607.757	-31.2
3610.556	-36.2
3613.354	-41.2
3616.149	-45.2
3618.942	-36.2
3621.732	-41.2
3624.521	-37.2
3627.307	-37.2
3630.092	-44.2
3632.874	-39.2
3635.654	-50.2
3638.432	-43.2
3641.208	-42.2
3643.982	-44.2
3646.753	-49.2
3649.523	-41.2
3652.29	-43.2
3655.055	-37.2
3657.818	-47.2
3660.579	-42.2
3663.338	-42.2
3666.095	-49.2
3668.849	-46.2
3671.602	-46.2
3674.352	-42.2
3677.101	-44.2
3679.847	-48.2
3682.591	-49.2
3685.333	-44.2
3688.073	-55.2
3690.811	-50.2
3693.547	-50.2
3696.281	-47.2
3699.013	-48.2
3701.742	-53.2
3704.47	-43.2
3707.195	-49.2
3709.919	-52.2
3712.64	-48.2
3715.359	-47.2
3718.076	-50.2
3720.792	-50.2
3723.505	-48.2
3726.216	-52.2
3728.925	-55.2
3731.632	-52.2
3734.336	-57.2
3737.039	-48.2
3739.74	-54.2
3742.439	-48.2
3745.136	-52.2
3747.83	-47.2
3750.523	-54.2
3753.213	-53.2
3755.902	-51.2
3758.589	-50.2
3761.273	-49.2
3763.956	-52.2
3766.636	-48.2
3769.315	-47.2
3771.991	-52.2
3774.665	-58.2
3777.338	-57.2
3780.008	-56.2
3782.677	-59.2
3785.343	-53.2
3788.007	-56.2
3790.67	-53.2
3793.33	-54.2
3795.989	-49.2
3798.645	-52.2
3801.299	-48.2
3803.952	-52.2
3806.602	-54.2
3809.251	-54.2
3811.897	-56.2
3814.542	-59.2
3817.184	-57.2
3819.825	-50.2
3822.463	-55.2
3825.1	-50.2
3827.735	-58.2
3830.367	-50.2
3832.998	-52.2
3835.627	-56.2
3838.253	-50.2
3840.878	-45.2
3843.501	-45.2
3846.122	-49.2
3848.741	-52.2
3851.358	-51.2
3853.973	-49.2
3856.586	-49.2
3859.197	-56.2
3861.806	-55.2
3864.414	-56.2
3867.019	-58.2
3869.622	-49.2
3872.224	-45.2
3874.823	-30.2
3877.421	-25.2
3880.016	-6.2
3882.61	15.8
3885.202	12.8
3887.792	10.8
3890.38	-16.2
3892.966	-34.2
3895.55	-43.2
3898.132	-49.2
3900.713	-52.2
3903.291	-58.2
3905.868	-55.2
3908.442	-57.2
3911.015	-54.2
3913.586	-61.2
3916.155	-55.2
3918.722	-55.2
3921.287	-54.2
3923.85	-51.2
3926.411	-54.2
3928.971	-60.2
3931.528	-56.2
3934.084	-52.2
3936.638	-48.2
3939.19	-60.2
3941.74	-50.2
3944.288	-56.2
3946.834	-57.2
3949.378	-58.2
3951.921	-55.2
3954.462	-54.2
3957	-48.2
3959.537	-43.2
3962.072	-49.2
3964.606	-50.2
3967.137	-51.2
3969.667	-52.2
3972.194	-53.2
3974.72	-51.2
3977.244	-44.2
3979.766	-49.2
3982.286	-56.2
3984.805	-61.2
3987.321	-53.2
3989.836	-51.2
3992.349	-49.2
3994.86	-54.2
3997.369	-57.2
3999.877	-55.2
4002.382	-52.2
4004.886	-51.2
4007.388	-54.2
4009.888	-50.2
4012.386	-55.2
4014.883	-52.2
4017.377	-52.2
4019.87	-54.2
4022.361	-54.2
4024.85	-52.2
4027.338	-58.2
4029.823	-57.2
4032.307	-57.2
4034.789	-51.2
4037.269	-55.2
4039.747	-59.2
4042.224	-52.2
4044.699	-49.2
4047.172	-49.2
4049.643	-56.2
4052.112	-55.2
4054.58	-53.2
4057.046	-50.2
4059.51	-55.2
4061.972	-55.2
4064.432	-52.2
4066.891	-48.2
4069.348	-51.2
4071.803	-48.2
4074.256	-53.2
4076.708	-55.2
4079.158	-58.2
4081.606	-56.2
4084.052	-52.2
4086.497	-45.2
4088.939	-48.2
4091.38	-58.2
4093.819	-57.2
4096.257	-58.2
4098.693	-58.2
4101.127	-51.2
4103.559	-59.2
4105.989	38.8
4108.418	25.8
4110.845	24.8
4113.27	17.8
4115.694	26.8
4118.115	28.8
4120.535	-50.2
4122.954	-51.2
4125.37	-54.2
4127.785	-50.2
4130.198	-56.2
4132.609	-56.2
4135.019	-58.2
4137.427	-60.2
4139.833	-58.2
4142.237	-56.2
