Data from 2018-3-7_conc=2_n=5_RamanShift_01.txt Node
Date: Wed Mar 07 10:51:22 IST 2018
User: aro
Spectrometer: QEPB0276
Trigger mode: 0
Integration Time (sec): 3.000000E1
Scans to average: 1
Electric dark correction enabled: true
Nonlinearity correction enabled: false
Boxcar width: 0
XAxis mode: Raman Shifts
Number of Pixels in Spectrum: 1044
>>>>>Begin Spectral Data<<<<<
160.701	18.5
166.742	22.5
172.777	54.5
178.805	140.5
184.826	363.5
190.841	767.5
196.849	1260.5
202.85	1630.5
208.845	1773.5
214.833	1784.5
220.815	1764.5
226.789	1771.5
232.758	1757.5
238.719	1787.5
244.674	1767.5
250.623	1774.5
256.565	1765.5
262.5	1726.5
268.429	1737.5
274.351	1727.5
280.267	1710.5
286.176	1722.5
292.079	1697.5
297.975	1729.5
303.865	1725.5
309.748	1732.5
315.625	1733.5
321.495	1724.5
327.359	1745.5
333.217	1734.5
339.068	1733.5
344.912	1750.5
350.751	1768.5
356.583	1755.5
362.408	1764.5
368.227	1764.5
374.04	1795.5
379.847	1783.5
385.647	1789.5
391.44	1807.5
397.228	1811.5
403.009	1810.5
408.784	1835.5
414.553	1855.5
420.315	1855.5
426.071	1839.5
431.821	1860.5
437.565	1856.5
443.302	1848.5
449.033	1849.5
454.758	1835.5
460.477	1816.5
466.189	1807.5
471.896	1765.5
477.596	1777.5
483.29	1746.5
488.978	1755.5
494.66	1744.5
500.335	1706.5
506.005	1644.5
511.668	1551.5
517.325	1488.5
522.977	1423.5
528.622	1379.5
534.261	1353.5
539.894	1328.5
545.521	1308.5
551.141	1291.5
556.756	1276.5
562.365	1270.5
567.968	1244.5
573.565	1262.5
579.155	1243.5
584.74	1241.5
590.319	1234.5
595.892	1239.5
601.459	1244.5
607.02	1237.5
612.575	1228.5
618.124	1206.5
623.667	1186.5
629.204	1166.5
634.735	1151.5
640.261	1142.5
645.781	1142.5
651.294	1133.5
656.802	1122.5
662.304	1125.5
667.8	1141.5
673.29	1129.5
678.775	1116.5
684.254	1117.5
689.726	1113.5
695.193	1102.5
700.655	1100.5
706.11	1078.5
711.56	1079.5
717.004	1070.5
722.442	1073.5
727.874	1068.5
733.301	1057.5
738.722	1046.5
744.137	1064.5
749.547	1048.5
754.951	1043.5
760.349	1053.5
765.741	1056.5
771.128	1053.5
776.509	1063.5
781.885	1085.5
787.254	1093.5
792.618	1099.5
797.977	1096.5
803.33	1075.5
808.677	1071.5
814.019	1076.5
819.355	1068.5
824.686	1041.5
830.011	1040.5
835.33	1029.5
840.644	1026.5
845.952	1022.5
851.255	1016.5
856.552	1002.5
861.844	997.5
867.13	988.5
872.41	995.5
877.686	990.5
882.955	986.5
888.219	970.5
893.478	965.5
898.731	932.5
903.979	921.5
909.221	919.5
914.458	912.5
919.69	909.5
924.916	916.5
930.136	918.5
935.351	913.5
940.561	902.5
945.766	915.5
950.965	911.5
956.158	908.5
961.347	896.5
966.529	888.5
971.707	851.5
976.879	850.5
982.046	844.5
987.208	847.5
992.364	844.5
997.515	853.5
1002.66	850.5
1007.801	859.5
1012.936	874.5
1018.066	875.5
1023.19	861.5
1028.309	867.5
1033.423	872.5
1038.532	872.5
1043.636	864.5
1048.734	863.5
1053.827	846.5
1058.915	845.5
1063.998	829.5
1069.075	834.5
1074.147	827.5
1079.214	840.5
1084.276	829.5
1089.333	847.5
1094.385	853.5
1099.431	827.5
1104.472	825.5
1109.509	812.5
1114.54	812.5
1119.565	799.5
1124.586	791.5
1129.602	783.5
1134.613	775.5
1139.618	768.5
1144.619	768.5
1149.614	775.5
1154.604	777.5
1159.589	776.5
1164.57	787.5
1169.545	771.5
1174.515	764.5
1179.48	773.5
1184.44	774.5
1189.395	770.5
1194.345	764.5
1199.29	733.5
1204.23	753.5
1209.165	757.5
1214.095	747.5
1219.021	752.5
1223.941	769.5
1228.856	765.5
1233.766	778.5
1238.672	776.5
1243.572	763.5
1248.467	753.5
1253.358	747.5
1258.244	740.5
1263.124	717.5
1268	728.5
1272.871	705.5
1277.737	699.5
1282.599	707.5
1287.455	694.5
1292.306	694.5
1297.153	690.5
1301.995	700.5
1306.832	707.5
1311.664	705.5
1316.491	716.5
1321.314	703.5
1326.132	696.5
1330.945	688.5
1335.753	667.5
1340.556	648.5
1345.354	651.5
1350.148	638.5
1354.937	621.5
1359.722	607.5
1364.501	592.5
1369.276	594.5
1374.046	584.5
1378.811	580.5
1383.572	577.5
1388.327	573.5
1393.079	564.5
1397.825	579.5
1402.567	579.5
1407.304	581.5
1412.036	583.5
1416.764	583.5
1421.487	591.5
1426.205	582.5
1430.919	590.5
1435.628	583.5
1440.333	609.5
1445.032	588.5
1449.727	597.5
1454.418	604.5
1459.104	608.5
1463.785	593.5
1468.462	577.5
1473.134	557.5
1477.802	547.5
1482.465	532.5
1487.123	520.5
1491.777	500.5
1496.426	513.5
1501.071	489.5
1505.711	486.5
1510.347	486.5
1514.978	486.5
1519.604	485.5
1524.226	478.5
1528.844	488.5
1533.457	479.5
1538.065	474.5
1542.669	486.5
1547.269	479.5
1551.864	475.5
1556.454	504.5
1561.041	501.5
1565.622	508.5
1570.199	506.5
1574.772	500.5
1579.34	507.5
1583.904	513.5
1588.464	532.5
1593.019	528.5
1597.569	512.5
1602.115	531.5
1606.657	511.5
1611.195	520.5
1615.728	514.5
1620.256	515.5
1624.78	511.5
1629.3	517.5
1633.816	516.5
1638.327	525.5
1642.834	511.5
1647.336	515.5
1651.834	504.5
1656.328	503.5
1660.817	510.5
1665.302	492.5
1669.783	478.5
1674.259	478.5
1678.732	456.5
1683.199	438.5
1687.663	434.5
1692.122	410.5
1696.577	404.5
1701.028	387.5
1705.474	366.5
1709.917	354.5
1714.355	353.5
1718.788	343.5
1723.218	351.5
1727.643	347.5
1732.064	347.5
1736.481	353.5
1740.893	337.5
1745.301	332.5
1749.705	329.5
1754.105	318.5
1758.501	298.5
1762.893	308.5
1767.28	293.5
1771.663	296.5
1776.042	287.5
1780.417	284.5
1784.787	279.5
1789.154	268.5
1793.516	266.5
1797.874	268.5
1802.228	266.5
1806.578	264.5
1810.924	246.5
1815.266	257.5
1819.603	256.5
1823.937	261.5
1828.266	257.5
1832.591	264.5
1836.913	263.5
1841.23	267.5
1845.543	259.5
1849.852	261.5
1854.156	268.5
1858.457	265.5
1862.754	263.5
1867.047	260.5
1871.335	267.5
1875.62	252.5
1879.9	264.5
1884.177	253.5
1888.449	257.5
1892.718	252.5
1896.982	247.5
1901.243	235.5
1905.499	233.5
1909.752	224.5
1914	227.5
1918.245	222.5
1922.485	209.5
1926.722	220.5
1930.954	209.5
1935.183	214.5
1939.408	212.5
1943.628	211.5
1947.845	218.5
1952.058	208.5
1956.267	199.5
1960.472	207.5
1964.673	200.5
1968.87	196.5
1973.063	202.5
1977.252	196.5
1981.438	205.5
1985.619	190.5
1989.797	195.5
1993.971	205.5
1998.14	199.5
2002.306	207.5
2006.469	200.5
2010.627	203.5
2014.781	199.5
2018.932	201.5
2023.078	199.5
2027.221	200.5
2031.36	197.5
2035.495	195.5
2039.627	189.5
2043.754	190.5
2047.878	190.5
2051.998	190.5
2056.114	178.5
2060.226	180.5
2064.334	168.5
2068.439	172.5
2072.54	176.5
2076.637	168.5
2080.73	174.5
2084.82	184.5
2088.906	174.5
2092.988	170.5
2097.066	169.5
2101.14	156.5
2105.211	161.5
2109.278	163.5
2113.342	159.5
2117.401	162.5
2121.457	156.5
2125.509	150.5
2129.558	157.5
2133.602	153.5
2137.643	154.5
2141.681	157.5
2145.714	159.5
2149.744	157.5
2153.77	156.5
2157.793	151.5
2161.812	157.5
2165.827	146.5
2169.838	149.5
2173.846	147.5
2177.851	145.5
2181.851	147.5
2185.848	148.5
2189.841	139.5
2193.831	145.5
2197.817	151.5
2201.799	142.5
2205.778	145.5
2209.753	138.5
2213.725	134.5
2217.693	140.5
2221.657	134.5
2225.618	131.5
2229.575	138.5
2233.529	130.5
2237.479	136.5
2241.425	129.5
2245.368	137.5
2249.307	132.5
2253.243	128.5
2257.175	121.5
2261.104	112.5
2265.029	123.5
2268.95	117.5
2272.868	121.5
2276.783	111.5
2280.694	115.5
2284.601	111.5
2288.505	109.5
2292.405	116.5
2296.302	125.5
2300.195	112.5
2304.085	106.5
2307.971	109.5
2311.854	106.5
2315.734	104.5
2319.609	103.5
2323.482	104.5
2327.351	102.5
2331.216	113.5
2335.078	130.5
2338.937	116.5
2342.792	111.5
2346.643	111.5
2350.492	111.5
2354.336	102.5
2358.178	102.5
2362.015	97.5
2365.85	104.5
2369.681	112.5
2373.508	108.5
2377.333	105.5
2381.153	102.5
2384.971	102.5
2388.785	97.5
2392.595	105.5
2396.402	102.5
2400.206	97.5
2404.007	100.5
2407.804	103.5
2411.597	91.5
2415.388	102.5
2419.174	109.5
2422.958	93.5
2426.738	97.5
2430.515	91.5
2434.289	96.5
2438.059	90.5
2441.825	93.5
2445.589	97.5
2449.349	92.5
2453.106	97.5
2456.859	91.5
2460.61	82.5
2464.356	81.5
2468.1	83.5
2471.84	78.5
2475.577	75.5
2479.311	79.5
2483.041	80.5
2486.768	74.5
2490.492	78.5
2494.213	79.5
2497.93	76.5
2501.644	80.5
2505.355	68.5
2509.062	77.5
2512.766	67.5
2516.467	75.5
2520.165	66.5
2523.859	69.5
2527.551	65.5
2531.239	65.5
2534.923	64.5
2538.605	63.5
2542.283	58.5
2545.958	60.5
2549.63	63.5
2553.299	56.5
2556.964	56.5
2560.626	57.5
2564.285	59.5
2567.941	61.5
2571.594	55.5
2575.243	54.5
2578.89	53.5
2582.533	52.5
2586.173	54.5
2589.809	55.5
2593.443	61.5
2597.073	52.5
2600.701	54.5
2604.325	44.5
2607.946	34.5
2611.564	49.5
2615.178	47.5
2618.79	47.5
2622.398	49.5
2626.004	49.5
2629.606	42.5
2633.205	41.5
2636.801	44.5
2640.394	51.5
2643.983	37.5
2647.57	37.5
2651.153	37.5
2654.734	38.5
2658.311	43.5
2661.885	43.5
2665.456	49.5
2669.025	44.5
2672.589	46.5
2676.151	43.5
2679.71	33.5
2683.266	37.5
2686.819	41.5
2690.368	38.5
2693.915	28.5
2697.458	27.5
2700.999	35.5
2704.536	37.5
2708.071	32.5
2711.602	29.5
2715.13	27.5
2718.656	33.5
2722.178	30.5
2725.697	22.5
2729.214	27.5
2732.727	28.5
2736.237	28.5
2739.744	26.5
2743.249	26.5
2746.75	23.5
2750.248	28.5
2753.743	22.5
2757.236	25.5
2760.725	21.5
2764.211	16.5
2767.695	15.5
2771.175	19.5
2774.652	19.5
2778.127	18.5
2781.598	12.5
2785.067	24.5
2788.532	16.5
2791.995	16.5
2795.455	14.5
2798.911	20.5
2802.365	24.5
2805.816	15.5
2809.264	16.5
2812.709	15.5
2816.151	22.5
2819.59	23.5
2823.026	17.5
2826.46	14.5
2829.89	16.5
2833.318	22.5
2836.742	23.5
2840.164	16.5
2843.583	18.5
2846.999	23.5
2850.412	23.5
2853.822	17.5
2857.229	20.5
2860.634	13.5
2864.035	23.5
2867.434	19.5
2870.83	30.5
2874.223	23.5
2877.613	28.5
2881	30.5
2884.385	32.5
2887.766	41.5
2891.145	25.5
2894.521	31.5
2897.894	30.5
2901.264	37.5
2904.631	23.5
2907.996	27.5
2911.358	37.5
2914.717	35.5
2918.073	32.5
2921.426	31.5
2924.777	36.5
2928.124	45.5
2931.469	36.5
2934.811	47.5
2938.15	47.5
2941.487	52.5
2944.821	42.5
2948.152	48.5
2951.48	47.5
2954.805	42.5
2958.128	31.5
2961.447	41.5
2964.765	42.5
2968.079	40.5
2971.39	38.5
2974.699	28.5
2978.005	41.5
2981.308	36.5
2984.609	33.5
2987.907	37.5
2991.202	38.5
2994.494	36.5
2997.784	37.5
3001.07	34.5
3004.355	35.5
3007.636	44.5
3010.915	42.5
3014.191	43.5
3017.464	41.5
3020.734	44.5
3024.002	45.5
3027.267	42.5
3030.53	44.5
3033.789	51.5
3037.046	45.5
3040.301	51.5
3043.552	51.5
3046.801	60.5
3050.048	57.5
3053.291	52.5
3056.532	53.5
3059.771	52.5
3063.006	60.5
3066.239	61.5
3069.469	73.5
3072.697	76.5
3075.922	83.5
3079.144	79.5
3082.364	76.5
3085.581	77.5
3088.795	80.5
3092.007	88.5
3095.216	89.5
3098.423	80.5
3101.627	80.5
3104.828	97.5
3108.026	94.5
3111.222	98.5
3114.416	108.5
3117.607	102.5
3120.795	102.5
3123.98	106.5
3127.163	107.5
3130.344	105.5
3133.521	112.5
3136.696	112.5
3139.869	118.5
3143.039	121.5
3146.206	125.5
3149.371	123.5
3152.533	137.5
3155.693	140.5
3158.85	132.5
3162.005	134.5
3165.157	130.5
3168.306	134.5
3171.453	131.5
3174.597	132.5
3177.739	134.5
3180.878	139.5
3184.014	134.5
3187.149	131.5
3190.28	134.5
3193.409	138.5
3196.536	139.5
3199.659	140.5
3202.781	136.5
3205.9	132.5
3209.016	128.5
3212.13	133.5
3215.241	130.5
3218.35	132.5
3221.456	134.5
3224.56	129.5
3227.661	126.5
3230.76	122.5
3233.856	122.5
3236.95	121.5
3240.041	105.5
3243.13	114.5
3246.216	110.5
3249.3	106.5
3252.382	112.5
3255.46	114.5
3258.537	102.5
3261.611	110.5
3264.682	101.5
3267.751	113.5
3270.818	97.5
3273.882	106.5
3276.943	97.5
3280.002	103.5
3283.059	97.5
3286.113	98.5
3289.165	96.5
3292.214	99.5
3295.261	95.5
3298.306	95.5
3301.348	97.5
3304.387	89.5
3307.425	88.5
3310.459	89.5
3313.492	91.5
3316.521	83.5
3319.549	90.5
3322.574	87.5
3325.597	94.5
3328.617	84.5
3331.635	92.5
3334.65	94.5
3337.663	83.5
3340.674	86.5
3343.682	86.5
3346.688	81.5
3349.691	87.5
3352.692	82.5
3355.691	90.5
3358.687	82.5
3361.681	79.5
3364.673	82.5
3367.662	86.5
3370.649	81.5
3373.633	74.5
3376.615	67.5
3379.595	77.5
3382.572	63.5
3385.547	76.5
3388.52	64.5
3391.49	69.5
3394.458	63.5
3397.424	63.5
3400.387	70.5
3403.348	58.5
3406.307	64.5
3409.263	60.5
3412.217	57.5
3415.168	61.5
3418.118	58.5
3421.065	57.5
3424.009	52.5
3426.951	53.5
3429.891	54.5
3432.829	54.5
3435.764	58.5
3438.697	49.5
3441.628	41.5
3444.557	37.5
3447.483	42.5
3450.407	30.5
3453.328	41.5
3456.247	32.5
3459.164	27.5
3462.079	22.5
3464.991	28.5
3467.902	21.5
3470.809	26.5
3473.715	17.5
3476.618	15.5
3479.519	12.5
3482.418	10.5
3485.315	10.5
3488.209	5.5
3491.101	2.5
3493.99	3.5
3496.878	6.5
3499.763	-2.5
3502.646	2.5
3505.527	2.5
3508.405	-1.5
3511.281	-3.5
3514.155	-7.5
3517.027	-9.5
3519.897	-5.5
3522.764	-13.5
3525.629	-8.5
3528.492	-11.5
3531.352	-18.5
3534.211	-16.5
3537.067	-21.5
3539.921	-13.5
3542.773	-23.5
3545.622	-18.5
3548.469	-23.5
3551.315	-20.5
3554.157	-24.5
3556.998	-22.5
3559.837	-27.5
3562.673	-27.5
3565.507	-29.5
3568.339	-21.5
3571.169	-27.5
3573.996	-22.5
3576.822	-34.5
3579.645	-28.5
3582.466	-24.5
3585.285	-29.5
3588.101	-39.5
3590.916	-35.5
3593.728	-35.5
3596.538	-42.5
3599.346	-42.5
3602.152	-37.5
3604.956	-34.5
3607.757	-30.5
3610.556	-30.5
3613.354	-40.5
3616.149	-40.5
3618.942	-41.5
3621.732	-40.5
3624.521	-34.5
3627.307	-43.5
3630.092	-40.5
3632.874	-42.5
3635.654	-39.5
3638.432	-45.5
3641.208	-41.5
3643.982	-38.5
3646.753	-45.5
3649.523	-37.5
3652.29	-44.5
3655.055	-40.5
3657.818	-44.5
3660.579	-44.5
3663.338	-41.5
3666.095	-47.5
3668.849	-48.5
3671.602	-48.5
3674.352	-47.5
3677.101	-46.5
3679.847	-43.5
3682.591	-50.5
3685.333	-44.5
3688.073	-50.5
3690.811	-46.5
3693.547	-50.5
3696.281	-44.5
3699.013	-54.5
3701.742	-51.5
3704.47	-47.5
3707.195	-48.5
3709.919	-49.5
3712.64	-42.5
3715.359	-45.5
3718.076	-52.5
3720.792	-50.5
3723.505	-46.5
3726.216	-48.5
3728.925	-54.5
3731.632	-52.5
3734.336	-52.5
3737.039	-50.5
3739.74	-57.5
3742.439	-54.5
3745.136	-50.5
3747.83	-45.5
3750.523	-53.5
3753.213	-64.5
3755.902	-50.5
3758.589	-56.5
3761.273	-53.5
3763.956	-53.5
3766.636	-54.5
3769.315	-47.5
3771.991	-53.5
3774.665	-55.5
3777.338	-48.5
3780.008	-50.5
3782.677	-56.5
3785.343	-51.5
3788.007	-51.5
3790.67	-55.5
3793.33	-50.5
3795.989	-55.5
3798.645	-52.5
3801.299	-51.5
3803.952	-51.5
3806.602	-53.5
3809.251	-52.5
3811.897	-58.5
3814.542	-61.5
3817.184	-48.5
3819.825	-48.5
3822.463	-51.5
3825.1	-50.5
3827.735	-55.5
3830.367	-54.5
3832.998	-59.5
3835.627	-59.5
3838.253	-53.5
3840.878	-50.5
3843.501	-50.5
3846.122	-59.5
3848.741	-55.5
3851.358	-49.5
3853.973	-48.5
3856.586	-44.5
3859.197	-51.5
3861.806	-56.5
3864.414	-56.5
3867.019	-56.5
3869.622	-47.5
3872.224	-48.5
3874.823	-36.5
3877.421	-31.5
3880.016	-20.5
3882.61	-0.5
3885.202	3.5
3887.792	-0.5
3890.38	-23.5
3892.966	-40.5
3895.55	-49.5
3898.132	-49.5
3900.713	-54.5
3903.291	-57.5
3905.868	-54.5
3908.442	-56.5
3911.015	-52.5
3913.586	-55.5
3916.155	-56.5
3918.722	-54.5
3921.287	-54.5
3923.85	-45.5
3926.411	-58.5
3928.971	-59.5
3931.528	-59.5
3934.084	-53.5
3936.638	-54.5
3939.19	-60.5
3941.74	-50.5
3944.288	-56.5
3946.834	-53.5
3949.378	-54.5
3951.921	-52.5
3954.462	-57.5
3957	-48.5
3959.537	-46.5
3962.072	-54.5
3964.606	-52.5
3967.137	-55.5
3969.667	-56.5
3972.194	-54.5
3974.72	-48.5
3977.244	-51.5
3979.766	-52.5
3982.286	-51.5
3984.805	-63.5
3987.321	-53.5
3989.836	-55.5
3992.349	-55.5
3994.86	-54.5
3997.369	-55.5
3999.877	-56.5
4002.382	-57.5
4004.886	-50.5
4007.388	-58.5
4009.888	-50.5
4012.386	-57.5
4014.883	-52.5
4017.377	-52.5
4019.87	-52.5
4022.361	-59.5
4024.85	-53.5
4027.338	-58.5
4029.823	-61.5
4032.307	-58.5
4034.789	-50.5
4037.269	-53.5
4039.747	-52.5
4042.224	-52.5
4044.699	-53.5
4047.172	-56.5
4049.643	-54.5
4052.112	-55.5
4054.58	-54.5
4057.046	-49.5
4059.51	-55.5
4061.972	-54.5
4064.432	-54.5
4066.891	-53.5
4069.348	-51.5
4071.803	-46.5
4074.256	-49.5
4076.708	-49.5
4079.158	-53.5
4081.606	-57.5
4084.052	-54.5
4086.497	-49.5
4088.939	-48.5
4091.38	-59.5
4093.819	-56.5
4096.257	-56.5
4098.693	-55.5
4101.127	-54.5
4103.559	-59.5
4105.989	22.5
4108.418	21.5
4110.845	14.5
4113.27	14.5
4115.694	17.5
4118.115	12.5
4120.535	-47.5
4122.954	-50.5
4125.37	-48.5
4127.785	-47.5
4130.198	-49.5
4132.609	-55.5
4135.019	-60.5
4137.427	-60.5
4139.833	-56.5
4142.237	-58.5
