Data from 2018-3-7_conc=5_n=10_RamanShift_03.txt Node
Date: Wed Mar 07 12:54:22 IST 2018
User: aro
Spectrometer: QEPB0276
Trigger mode: 0
Integration Time (sec): 3.000000E1
Scans to average: 1
Electric dark correction enabled: true
Nonlinearity correction enabled: false
Boxcar width: 0
XAxis mode: Raman Shifts
Number of Pixels in Spectrum: 1044
>>>>>Begin Spectral Data<<<<<
160.701	-0.4
166.742	21.6
172.777	76.6
178.805	238.6
184.826	681.6
190.841	1487.6
196.849	2493.6
202.85	3284.6
208.845	3592.6
214.833	3571.6
220.815	3502.6
226.789	3516.6
232.758	3505.6
238.719	3506.6
244.674	3437.6
250.623	3399.6
256.565	3366.6
262.5	3287.6
268.429	3278.6
274.351	3208.6
280.267	3175.6
286.176	3146.6
292.079	3168.6
297.975	3134.6
303.865	3124.6
309.748	3120.6
315.625	3063.6
321.495	3065.6
327.359	3065.6
333.217	3044.6
339.068	3064.6
344.912	3066.6
350.751	3046.6
356.583	3067.6
362.408	3045.6
368.227	3067.6
374.04	3080.6
379.847	3061.6
385.647	3072.6
391.44	3081.6
397.228	3105.6
403.009	3105.6
408.784	3148.6
414.553	3138.6
420.315	3130.6
426.071	3148.6
431.821	3128.6
437.565	3113.6
443.302	3117.6
449.033	3132.6
454.758	3128.6
460.477	3118.6
466.189	3081.6
471.896	3066.6
477.596	3058.6
483.29	3042.6
488.978	3060.6
494.66	3044.6
500.335	3009.6
506.005	2944.6
511.668	2887.6
517.325	2838.6
522.977	2773.6
528.622	2769.6
534.261	2726.6
539.894	2706.6
545.521	2710.6
551.141	2648.6
556.756	2661.6
562.365	2638.6
567.968	2622.6
573.565	2628.6
579.155	2612.6
584.74	2617.6
590.319	2590.6
595.892	2571.6
601.459	2558.6
607.02	2558.6
612.575	2533.6
618.124	2523.6
623.667	2482.6
629.204	2483.6
634.735	2477.6
640.261	2456.6
645.781	2426.6
651.294	2455.6
656.802	2435.6
662.304	2436.6
667.8	2436.6
673.29	2427.6
678.775	2407.6
684.254	2397.6
689.726	2381.6
695.193	2381.6
700.655	2374.6
706.11	2338.6
711.56	2329.6
717.004	2311.6
722.442	2303.6
727.874	2301.6
733.301	2303.6
738.722	2288.6
744.137	2292.6
749.547	2270.6
754.951	2283.6
760.349	2275.6
765.741	2296.6
771.128	2273.6
776.509	2285.6
781.885	2300.6
787.254	2298.6
792.618	2287.6
797.977	2273.6
803.33	2251.6
808.677	2257.6
814.019	2240.6
819.355	2234.6
824.686	2193.6
830.011	2209.6
835.33	2210.6
840.644	2189.6
845.952	2186.6
851.255	2189.6
856.552	2181.6
861.844	2187.6
867.13	2173.6
872.41	2177.6
877.686	2164.6
882.955	2145.6
888.219	2118.6
893.478	2101.6
898.731	2075.6
903.979	2015.6
909.221	2021.6
914.458	2033.6
919.69	2031.6
924.916	2033.6
930.136	2035.6
935.351	2054.6
940.561	2049.6
945.766	2041.6
950.965	2032.6
956.158	2026.6
961.347	1996.6
966.529	1978.6
971.707	1923.6
976.879	1901.6
982.046	1895.6
987.208	1903.6
992.364	1886.6
997.515	1896.6
1002.66	1913.6
1007.801	1936.6
1012.936	1938.6
1018.066	1943.6
1023.19	1929.6
1028.309	1937.6
1033.423	1926.6
1038.532	1928.6
1043.636	1923.6
1048.734	1872.6
1053.827	1850.6
1058.915	1833.6
1063.998	1833.6
1069.075	1813.6
1074.147	1807.6
1079.214	1812.6
1084.276	1829.6
1089.333	1834.6
1094.385	1851.6
1099.431	1838.6
1104.472	1834.6
1109.509	1848.6
1114.54	1798.6
1119.565	1772.6
1124.586	1749.6
1129.602	1746.6
1134.613	1731.6
1139.618	1716.6
1144.619	1731.6
1149.614	1727.6
1154.604	1722.6
1159.589	1713.6
1164.57	1744.6
1169.545	1723.6
1174.515	1752.6
1179.48	1730.6
1184.44	1703.6
1189.395	1700.6
1194.345	1669.6
1199.29	1651.6
1204.23	1673.6
1209.165	1684.6
1214.095	1681.6
1219.021	1690.6
1223.941	1717.6
1228.856	1712.6
1233.766	1702.6
1238.672	1733.6
1243.572	1710.6
1248.467	1716.6
1253.358	1665.6
1258.244	1673.6
1263.124	1635.6
1268	1621.6
1272.871	1581.6
1277.737	1577.6
1282.599	1576.6
1287.455	1570.6
1292.306	1594.6
1297.153	1573.6
1301.995	1595.6
1306.832	1614.6
1311.664	1595.6
1316.491	1616.6
1321.314	1593.6
1326.132	1611.6
1330.945	1557.6
1335.753	1542.6
1340.556	1503.6
1345.354	1486.6
1350.148	1445.6
1354.937	1406.6
1359.722	1366.6
1364.501	1317.6
1369.276	1285.6
1374.046	1256.6
1378.811	1245.6
1383.572	1240.6
1388.327	1270.6
1393.079	1279.6
1397.825	1298.6
1402.567	1315.6
1407.304	1322.6
1412.036	1313.6
1416.764	1312.6
1421.487	1333.6
1426.205	1334.6
1430.919	1325.6
1435.628	1332.6
1440.333	1342.6
1445.032	1350.6
1449.727	1367.6
1454.418	1362.6
1459.104	1351.6
1463.785	1329.6
1468.462	1293.6
1473.134	1261.6
1477.802	1220.6
1482.465	1178.6
1487.123	1163.6
1491.777	1132.6
1496.426	1118.6
1501.071	1095.6
1505.711	1090.6
1510.347	1077.6
1514.978	1077.6
1519.604	1065.6
1524.226	1054.6
1528.844	1053.6
1533.457	1043.6
1538.065	1045.6
1542.669	1048.6
1547.269	1052.6
1551.864	1060.6
1556.454	1086.6
1561.041	1082.6
1565.622	1115.6
1570.199	1123.6
1574.772	1145.6
1579.34	1161.6
1583.904	1170.6
1588.464	1179.6
1593.019	1207.6
1597.569	1205.6
1602.115	1208.6
1606.657	1182.6
1611.195	1188.6
1615.728	1171.6
1620.256	1187.6
1624.78	1183.6
1629.3	1169.6
1633.816	1167.6
1638.327	1192.6
1642.834	1176.6
1647.336	1182.6
1651.834	1172.6
1656.328	1164.6
1660.817	1151.6
1665.302	1141.6
1669.783	1098.6
1674.259	1083.6
1678.732	1059.6
1683.199	1027.6
1687.663	960.6
1692.122	903.6
1696.577	854.6
1701.028	800.6
1705.474	736.6
1709.917	724.6
1714.355	724.6
1718.788	724.6
1723.218	749.6
1727.643	746.6
1732.064	752.6
1736.481	741.6
1740.893	721.6
1745.301	733.6
1749.705	702.6
1754.105	682.6
1758.501	672.6
1762.893	671.6
1767.28	645.6
1771.663	629.6
1776.042	621.6
1780.417	605.6
1784.787	596.6
1789.154	576.6
1793.516	555.6
1797.874	529.6
1802.228	533.6
1806.578	533.6
1810.924	521.6
1815.266	509.6
1819.603	539.6
1823.937	549.6
1828.266	552.6
1832.591	563.6
1836.913	558.6
1841.23	582.6
1845.543	565.6
1849.852	563.6
1854.156	576.6
1858.457	573.6
1862.754	575.6
1867.047	574.6
1871.335	566.6
1875.62	566.6
1879.9	579.6
1884.177	545.6
1888.449	541.6
1892.718	527.6
1896.982	510.6
1901.243	498.6
1905.499	501.6
1909.752	482.6
1914	462.6
1918.245	454.6
1922.485	432.6
1926.722	444.6
1930.954	427.6
1935.183	416.6
1939.408	417.6
1943.628	401.6
1947.845	399.6
1952.058	412.6
1956.267	404.6
1960.472	406.6
1964.673	394.6
1968.87	403.6
1973.063	417.6
1977.252	407.6
1981.438	412.6
1985.619	416.6
1989.797	420.6
1993.971	429.6
1998.14	439.6
2002.306	439.6
2006.469	444.6
2010.627	438.6
2014.781	440.6
2018.932	449.6
2023.078	442.6
2027.221	435.6
2031.36	433.6
2035.495	425.6
2039.627	407.6
2043.754	409.6
2047.878	414.6
2051.998	404.6
2056.114	382.6
2060.226	387.6
2064.334	383.6
2068.439	382.6
2072.54	383.6
2076.637	391.6
2080.73	371.6
2084.82	375.6
2088.906	357.6
2092.988	353.6
2097.066	336.6
2101.14	341.6
2105.211	330.6
2109.278	330.6
2113.342	324.6
2117.401	318.6
2121.457	329.6
2125.509	327.6
2129.558	323.6
2133.602	331.6
2137.643	330.6
2141.681	330.6
2145.714	345.6
2149.744	329.6
2153.77	340.6
2157.793	339.6
2161.812	344.6
2165.827	351.6
2169.838	336.6
2173.846	327.6
2177.851	327.6
2181.851	331.6
2185.848	318.6
2189.841	320.6
2193.831	314.6
2197.817	318.6
2201.799	324.6
2205.778	320.6
2209.753	321.6
2213.725	319.6
2217.693	317.6
2221.657	322.6
2225.618	318.6
2229.575	310.6
2233.529	314.6
2237.479	306.6
2241.425	306.6
2245.368	304.6
2249.307	310.6
2253.243	288.6
2257.175	284.6
2261.104	278.6
2265.029	278.6
2268.95	285.6
2272.868	280.6
2276.783	273.6
2280.694	268.6
2284.601	269.6
2288.505	276.6
2292.405	279.6
2296.302	272.6
2300.195	264.6
2304.085	262.6
2307.971	257.6
2311.854	253.6
2315.734	256.6
2319.609	252.6
2323.482	250.6
2327.351	250.6
2331.216	259.6
2335.078	266.6
2338.937	255.6
2342.792	247.6
2346.643	240.6
2350.492	250.6
2354.336	251.6
2358.178	240.6
2362.015	256.6
2365.85	252.6
2369.681	263.6
2373.508	261.6
2377.333	271.6
2381.153	270.6
2384.971	253.6
2388.785	256.6
2392.595	265.6
2396.402	264.6
2400.206	267.6
2404.007	253.6
2407.804	258.6
2411.597	253.6
2415.388	251.6
2419.174	258.6
2422.958	244.6
2426.738	246.6
2430.515	249.6
2434.289	247.6
2438.059	243.6
2441.825	246.6
2445.589	244.6
2449.349	229.6
2453.106	244.6
2456.859	230.6
2460.61	222.6
2464.356	222.6
2468.1	219.6
2471.84	226.6
2475.577	207.6
2479.311	208.6
2483.041	213.6
2486.768	209.6
2490.492	207.6
2494.213	204.6
2497.93	202.6
2501.644	208.6
2505.355	188.6
2509.062	192.6
2512.766	188.6
2516.467	187.6
2520.165	188.6
2523.859	186.6
2527.551	180.6
2531.239	181.6
2534.923	171.6
2538.605	177.6
2542.283	160.6
2545.958	172.6
2549.63	175.6
2553.299	158.6
2556.964	159.6
2560.626	154.6
2564.285	154.6
2567.941	156.6
2571.594	152.6
2575.243	148.6
2578.89	156.6
2582.533	142.6
2586.173	139.6
2589.809	144.6
2593.443	144.6
2597.073	139.6
2600.701	133.6
2604.325	130.6
2607.946	127.6
2611.564	133.6
2615.178	138.6
2618.79	131.6
2622.398	140.6
2626.004	131.6
2629.606	140.6
2633.205	139.6
2636.801	135.6
2640.394	133.6
2643.983	128.6
2647.57	124.6
2651.153	123.6
2654.734	131.6
2658.311	126.6
2661.885	127.6
2665.456	135.6
2669.025	130.6
2672.589	125.6
2676.151	118.6
2679.71	111.6
2683.266	116.6
2686.819	121.6
2690.368	114.6
2693.915	111.6
2697.458	100.6
2700.999	109.6
2704.536	111.6
2708.071	107.6
2711.602	93.6
2715.13	96.6
2718.656	98.6
2722.178	93.6
2725.697	89.6
2729.214	87.6
2732.727	96.6
2736.237	87.6
2739.744	79.6
2743.249	75.6
2746.75	78.6
2750.248	68.6
2753.743	72.6
2757.236	61.6
2760.725	63.6
2764.211	58.6
2767.695	57.6
2771.175	60.6
2774.652	52.6
2778.127	59.6
2781.598	61.6
2785.067	65.6
2788.532	62.6
2791.995	68.6
2795.455	66.6
2798.911	64.6
2802.365	70.6
2805.816	65.6
2809.264	65.6
2812.709	66.6
2816.151	71.6
2819.59	75.6
2823.026	64.6
2826.46	69.6
2829.89	69.6
2833.318	70.6
2836.742	75.6
2840.164	70.6
2843.583	74.6
2846.999	74.6
2850.412	75.6
2853.822	75.6
2857.229	86.6
2860.634	77.6
2864.035	74.6
2867.434	77.6
2870.83	87.6
2874.223	91.6
2877.613	88.6
2881	92.6
2884.385	94.6
2887.766	100.6
2891.145	92.6
2894.521	98.6
2897.894	95.6
2901.264	95.6
2904.631	91.6
2907.996	103.6
2911.358	107.6
2914.717	99.6
2918.073	105.6
2921.426	113.6
2924.777	114.6
2928.124	117.6
2931.469	119.6
2934.811	132.6
2938.15	127.6
2941.487	130.6
2944.821	136.6
2948.152	143.6
2951.48	132.6
2954.805	136.6
2958.128	125.6
2961.447	129.6
2964.765	119.6
2968.079	120.6
2971.39	118.6
2974.699	118.6
2978.005	126.6
2981.308	117.6
2984.609	117.6
2987.907	118.6
2991.202	116.6
2994.494	111.6
2997.784	110.6
3001.07	113.6
3004.355	132.6
3007.636	123.6
3010.915	129.6
3014.191	131.6
3017.464	133.6
3020.734	138.6
3024.002	146.6
3027.267	146.6
3030.53	145.6
3033.789	152.6
3037.046	146.6
3040.301	151.6
3043.552	156.6
3046.801	164.6
3050.048	172.6
3053.291	179.6
3056.532	189.6
3059.771	190.6
3063.006	197.6
3066.239	210.6
3069.469	214.6
3072.697	213.6
3075.922	226.6
3079.144	223.6
3082.364	232.6
3085.581	232.6
3088.795	252.6
3092.007	254.6
3095.216	251.6
3098.423	260.6
3101.627	264.6
3104.828	276.6
3108.026	277.6
3111.222	271.6
3114.416	275.6
3117.607	292.6
3120.795	294.6
3123.98	299.6
3127.163	318.6
3130.344	309.6
3133.521	314.6
3136.696	327.6
3139.869	343.6
3143.039	332.6
3146.206	341.6
3149.371	354.6
3152.533	360.6
3155.693	360.6
3158.85	364.6
3162.005	366.6
3165.157	365.6
3168.306	361.6
3171.453	372.6
3174.597	378.6
3177.739	367.6
3180.878	381.6
3184.014	358.6
3187.149	366.6
3190.28	377.6
3193.409	374.6
3196.536	379.6
3199.659	385.6
3202.781	379.6
3205.9	377.6
3209.016	378.6
3212.13	381.6
3215.241	384.6
3218.35	370.6
3221.456	374.6
3224.56	352.6
3227.661	359.6
3230.76	348.6
3233.856	349.6
3236.95	336.6
3240.041	338.6
3243.13	335.6
3246.216	312.6
3249.3	308.6
3252.382	311.6
3255.46	314.6
3258.537	305.6
3261.611	293.6
3264.682	293.6
3267.751	294.6
3270.818	277.6
3273.882	294.6
3276.943	279.6
3280.002	285.6
3283.059	292.6
3286.113	288.6
3289.165	287.6
3292.214	287.6
3295.261	281.6
3298.306	279.6
3301.348	284.6
3304.387	283.6
3307.425	273.6
3310.459	278.6
3313.492	262.6
3316.521	267.6
3319.549	278.6
3322.574	260.6
3325.597	264.6
3328.617	260.6
3331.635	266.6
3334.65	268.6
3337.663	260.6
3340.674	270.6
3343.682	264.6
3346.688	264.6
3349.691	265.6
3352.692	265.6
3355.691	273.6
3358.687	271.6
3361.681	263.6
3364.673	268.6
3367.662	256.6
3370.649	252.6
3373.633	254.6
3376.615	240.6
3379.595	235.6
3382.572	227.6
3385.547	224.6
3388.52	228.6
3391.49	219.6
3394.458	212.6
3397.424	217.6
3400.387	212.6
3403.348	208.6
3406.307	199.6
3409.263	206.6
3412.217	206.6
3415.168	198.6
3418.118	202.6
3421.065	189.6
3424.009	191.6
3426.951	184.6
3429.891	179.6
3432.829	175.6
3435.764	177.6
3438.697	170.6
3441.628	150.6
3444.557	155.6
3447.483	145.6
3450.407	135.6
3453.328	132.6
3456.247	132.6
3459.164	125.6
3462.079	111.6
3464.991	111.6
3467.902	112.6
3470.809	100.6
3473.715	99.6
3476.618	92.6
3479.519	86.6
3482.418	74.6
3485.315	80.6
3488.209	64.6
3491.101	68.6
3493.99	71.6
3496.878	59.6
3499.763	51.6
3502.646	49.6
3505.527	46.6
3508.405	43.6
3511.281	42.6
3514.155	26.6
3517.027	30.6
3519.897	25.6
3522.764	23.6
3525.629	16.6
3528.492	16.6
3531.352	10.6
3534.211	7.6
3537.067	4.6
3539.921	2.6
3542.773	-5.4
3545.622	2.6
3548.469	-1.4
3551.315	-4.4
3554.157	-9.4
3556.998	-11.4
3559.837	-18.4
3562.673	-12.4
3565.507	-14.4
3568.339	-16.4
3571.169	-18.4
3573.996	-15.4
3576.822	-26.4
3579.645	-30.4
3582.466	-22.4
3585.285	-30.4
3588.101	-35.4
3590.916	-32.4
3593.728	-34.4
3596.538	-36.4
3599.346	-38.4
3602.152	-39.4
3604.956	-38.4
3607.757	-36.4
3610.556	-38.4
3613.354	-47.4
3616.149	-47.4
3618.942	-45.4
3621.732	-52.4
3624.521	-46.4
3627.307	-51.4
3630.092	-55.4
3632.874	-54.4
3635.654	-56.4
3638.432	-51.4
3641.208	-52.4
3643.982	-46.4
3646.753	-57.4
3649.523	-51.4
3652.29	-62.4
3655.055	-54.4
3657.818	-63.4
3660.579	-55.4
3663.338	-54.4
3666.095	-58.4
3668.849	-62.4
3671.602	-65.4
3674.352	-60.4
3677.101	-64.4
3679.847	-64.4
3682.591	-67.4
3685.333	-58.4
3688.073	-71.4
3690.811	-64.4
3693.547	-69.4
3696.281	-57.4
3699.013	-65.4
3701.742	-69.4
3704.47	-65.4
3707.195	-68.4
3709.919	-68.4
3712.64	-67.4
3715.359	-69.4
3718.076	-71.4
3720.792	-72.4
3723.505	-67.4
3726.216	-69.4
3728.925	-75.4
3731.632	-69.4
3734.336	-77.4
3737.039	-69.4
3739.74	-76.4
3742.439	-82.4
3745.136	-73.4
3747.83	-75.4
3750.523	-73.4
3753.213	-88.4
3755.902	-71.4
3758.589	-74.4
3761.273	-66.4
3763.956	-74.4
3766.636	-66.4
3769.315	-69.4
3771.991	-74.4
3774.665	-82.4
3777.338	-76.4
3780.008	-78.4
3782.677	-83.4
3785.343	-78.4
3788.007	-80.4
3790.67	-78.4
3793.33	-75.4
3795.989	-78.4
3798.645	-82.4
3801.299	-82.4
3803.952	-79.4
3806.602	-79.4
3809.251	-82.4
3811.897	-79.4
3814.542	-78.4
3817.184	-79.4
3819.825	-71.4
3822.463	-74.4
3825.1	-68.4
3827.735	-78.4
3830.367	-72.4
3832.998	-81.4
3835.627	-75.4
3838.253	-77.4
3840.878	-78.4
3843.501	-73.4
3846.122	-78.4
3848.741	-80.4
3851.358	-77.4
3853.973	-76.4
3856.586	-82.4
3859.197	-79.4
3861.806	-79.4
3864.414	-79.4
3867.019	-82.4
3869.622	-73.4
3872.224	-67.4
3874.823	-61.4
3877.421	-52.4
3880.016	-44.4
3882.61	-34.4
3885.202	-26.4
3887.792	-34.4
3890.38	-52.4
3892.966	-63.4
3895.55	-76.4
3898.132	-74.4
3900.713	-79.4
3903.291	-80.4
3905.868	-79.4
3908.442	-75.4
3911.015	-77.4
3913.586	-87.4
3916.155	-84.4
3918.722	-83.4
3921.287	-83.4
3923.85	-74.4
3926.411	-81.4
3928.971	-90.4
3931.528	-86.4
3934.084	-79.4
3936.638	-79.4
3939.19	-83.4
3941.74	-76.4
3944.288	-82.4
3946.834	-79.4
3949.378	-82.4
3951.921	-83.4
3954.462	-82.4
3957	-74.4
3959.537	-75.4
3962.072	-74.4
3964.606	-75.4
3967.137	-75.4
3969.667	-78.4
3972.194	-76.4
3974.72	-76.4
3977.244	-78.4
3979.766	-85.4
3982.286	-79.4
3984.805	-90.4
3987.321	-82.4
3989.836	-72.4
3992.349	-72.4
3994.86	-82.4
3997.369	-78.4
3999.877	-77.4
4002.382	-78.4
4004.886	-74.4
4007.388	-75.4
4009.888	-75.4
4012.386	-75.4
4014.883	-73.4
4017.377	-74.4
4019.87	-72.4
4022.361	-79.4
4024.85	-75.4
4027.338	-80.4
4029.823	-84.4
4032.307	-78.4
4034.789	-76.4
4037.269	-81.4
4039.747	-81.4
4042.224	-81.4
4044.699	-79.4
4047.172	-81.4
4049.643	-80.4
4052.112	-75.4
4054.58	-74.4
4057.046	-72.4
4059.51	-78.4
4061.972	-81.4
4064.432	-76.4
4066.891	-74.4
4069.348	-74.4
4071.803	-77.4
4074.256	-78.4
4076.708	-78.4
4079.158	-83.4
4081.606	-79.4
4084.052	-82.4
4086.497	-74.4
4088.939	-81.4
4091.38	-84.4
4093.819	-82.4
4096.257	-79.4
4098.693	-85.4
4101.127	-77.4
4103.559	-81.4
4105.989	-20.4
4108.418	-19.4
4110.845	-22.4
4113.27	-22.4
4115.694	-6.4
4118.115	-9.4
4120.535	-77.4
4122.954	-81.4
4125.37	-78.4
4127.785	-76.4
4130.198	-73.4
4132.609	-80.4
4135.019	-83.4
4137.427	-86.4
4139.833	-83.4
4142.237	-83.4
