Data from 2018-3-7_conc=2_n=7_RamanShift_03.txt Node
Date: Wed Mar 07 10:58:52 IST 2018
User: aro
Spectrometer: QEPB0276
Trigger mode: 0
Integration Time (sec): 3.000000E1
Scans to average: 1
Electric dark correction enabled: true
Nonlinearity correction enabled: false
Boxcar width: 0
XAxis mode: Raman Shifts
Number of Pixels in Spectrum: 1044
>>>>>Begin Spectral Data<<<<<
160.701	17.8
166.742	26.8
172.777	51.8
178.805	128.8
184.826	348.8
190.841	710.8
196.849	1182.8
202.85	1525.8
208.845	1659.8
214.833	1668.8
220.815	1652.8
226.789	1650.8
232.758	1664.8
238.719	1670.8
244.674	1652.8
250.623	1655.8
256.565	1625.8
262.5	1612.8
268.429	1616.8
274.351	1625.8
280.267	1594.8
286.176	1586.8
292.079	1605.8
297.975	1608.8
303.865	1594.8
309.748	1609.8
315.625	1604.8
321.495	1609.8
327.359	1602.8
333.217	1619.8
339.068	1631.8
344.912	1620.8
350.751	1614.8
356.583	1629.8
362.408	1650.8
368.227	1645.8
374.04	1645.8
379.847	1667.8
385.647	1681.8
391.44	1689.8
397.228	1683.8
403.009	1690.8
408.784	1716.8
414.553	1714.8
420.315	1709.8
426.071	1719.8
431.821	1701.8
437.565	1724.8
443.302	1700.8
449.033	1704.8
454.758	1705.8
460.477	1677.8
466.189	1652.8
471.896	1648.8
477.596	1642.8
483.29	1636.8
488.978	1615.8
494.66	1607.8
500.335	1580.8
506.005	1526.8
511.668	1447.8
517.325	1390.8
522.977	1333.8
528.622	1289.8
534.261	1271.8
539.894	1236.8
545.521	1249.8
551.141	1218.8
556.756	1212.8
562.365	1178.8
567.968	1175.8
573.565	1172.8
579.155	1169.8
584.74	1163.8
590.319	1142.8
595.892	1167.8
601.459	1155.8
607.02	1155.8
612.575	1141.8
618.124	1140.8
623.667	1119.8
629.204	1095.8
634.735	1077.8
640.261	1066.8
645.781	1086.8
651.294	1080.8
656.802	1054.8
662.304	1052.8
667.8	1053.8
673.29	1053.8
678.775	1050.8
684.254	1039.8
689.726	1028.8
695.193	1038.8
700.655	1032.8
706.11	1014.8
711.56	1018.8
717.004	1010.8
722.442	1004.8
727.874	1000.8
733.301	1001.8
738.722	1005.8
744.137	986.8
749.547	975.8
754.951	990.8
760.349	985.8
765.741	988.8
771.128	982.8
776.509	1004.8
781.885	1027.8
787.254	1033.8
792.618	1024.8
797.977	1031.8
803.33	1007.8
808.677	1015.8
814.019	999.8
819.355	985.8
824.686	984.8
830.011	996.8
835.33	983.8
840.644	965.8
845.952	970.8
851.255	957.8
856.552	956.8
861.844	954.8
867.13	931.8
872.41	935.8
877.686	924.8
882.955	917.8
888.219	914.8
893.478	914.8
898.731	873.8
903.979	873.8
909.221	873.8
914.458	867.8
919.69	852.8
924.916	871.8
930.136	862.8
935.351	854.8
940.561	868.8
945.766	858.8
950.965	864.8
956.158	842.8
961.347	848.8
966.529	835.8
971.707	814.8
976.879	800.8
982.046	803.8
987.208	801.8
992.364	781.8
997.515	792.8
1002.66	798.8
1007.801	814.8
1012.936	816.8
1018.066	831.8
1023.19	829.8
1028.309	829.8
1033.423	822.8
1038.532	811.8
1043.636	820.8
1048.734	811.8
1053.827	792.8
1058.915	791.8
1063.998	770.8
1069.075	776.8
1074.147	793.8
1079.214	775.8
1084.276	794.8
1089.333	782.8
1094.385	800.8
1099.431	789.8
1104.472	774.8
1109.509	775.8
1114.54	770.8
1119.565	753.8
1124.586	751.8
1129.602	732.8
1134.613	735.8
1139.618	724.8
1144.619	716.8
1149.614	727.8
1154.604	729.8
1159.589	748.8
1164.57	729.8
1169.545	728.8
1174.515	747.8
1179.48	733.8
1184.44	711.8
1189.395	721.8
1194.345	702.8
1199.29	702.8
1204.23	694.8
1209.165	700.8
1214.095	722.8
1219.021	717.8
1223.941	720.8
1228.856	709.8
1233.766	731.8
1238.672	737.8
1243.572	729.8
1248.467	715.8
1253.358	699.8
1258.244	696.8
1263.124	693.8
1268	659.8
1272.871	652.8
1277.737	665.8
1282.599	652.8
1287.455	653.8
1292.306	651.8
1297.153	654.8
1301.995	671.8
1306.832	661.8
1311.664	670.8
1316.491	672.8
1321.314	654.8
1326.132	658.8
1330.945	652.8
1335.753	642.8
1340.556	618.8
1345.354	616.8
1350.148	587.8
1354.937	591.8
1359.722	577.8
1364.501	569.8
1369.276	558.8
1374.046	560.8
1378.811	548.8
1383.572	546.8
1388.327	547.8
1393.079	538.8
1397.825	549.8
1402.567	552.8
1407.304	549.8
1412.036	556.8
1416.764	551.8
1421.487	544.8
1426.205	547.8
1430.919	554.8
1435.628	563.8
1440.333	569.8
1445.032	564.8
1449.727	579.8
1454.418	572.8
1459.104	566.8
1463.785	546.8
1468.462	546.8
1473.134	526.8
1477.802	512.8
1482.465	504.8
1487.123	497.8
1491.777	478.8
1496.426	493.8
1501.071	474.8
1505.711	464.8
1510.347	473.8
1514.978	450.8
1519.604	462.8
1524.226	456.8
1528.844	460.8
1533.457	449.8
1538.065	454.8
1542.669	455.8
1547.269	454.8
1551.864	462.8
1556.454	475.8
1561.041	488.8
1565.622	492.8
1570.199	474.8
1574.772	475.8
1579.34	482.8
1583.904	479.8
1588.464	499.8
1593.019	498.8
1597.569	493.8
1602.115	492.8
1606.657	500.8
1611.195	488.8
1615.728	491.8
1620.256	491.8
1624.78	489.8
1629.3	490.8
1633.816	490.8
1638.327	488.8
1642.834	480.8
1647.336	474.8
1651.834	486.8
1656.328	491.8
1660.817	476.8
1665.302	475.8
1669.783	466.8
1674.259	461.8
1678.732	450.8
1683.199	431.8
1687.663	417.8
1692.122	384.8
1696.577	376.8
1701.028	370.8
1705.474	352.8
1709.917	342.8
1714.355	337.8
1718.788	332.8
1723.218	332.8
1727.643	338.8
1732.064	331.8
1736.481	333.8
1740.893	320.8
1745.301	319.8
1749.705	302.8
1754.105	300.8
1758.501	282.8
1762.893	286.8
1767.28	286.8
1771.663	278.8
1776.042	285.8
1780.417	271.8
1784.787	276.8
1789.154	264.8
1793.516	251.8
1797.874	253.8
1802.228	257.8
1806.578	252.8
1810.924	243.8
1815.266	250.8
1819.603	249.8
1823.937	256.8
1828.266	248.8
1832.591	262.8
1836.913	247.8
1841.23	248.8
1845.543	253.8
1849.852	257.8
1854.156	265.8
1858.457	246.8
1862.754	260.8
1867.047	247.8
1871.335	242.8
1875.62	253.8
1879.9	249.8
1884.177	254.8
1888.449	245.8
1892.718	241.8
1896.982	236.8
1901.243	234.8
1905.499	231.8
1909.752	220.8
1914	217.8
1918.245	207.8
1922.485	205.8
1926.722	212.8
1930.954	208.8
1935.183	208.8
1939.408	204.8
1943.628	203.8
1947.845	206.8
1952.058	199.8
1956.267	191.8
1960.472	196.8
1964.673	187.8
1968.87	185.8
1973.063	195.8
1977.252	200.8
1981.438	191.8
1985.619	196.8
1989.797	196.8
1993.971	195.8
1998.14	189.8
2002.306	193.8
2006.469	198.8
2010.627	191.8
2014.781	199.8
2018.932	198.8
2023.078	195.8
2027.221	193.8
2031.36	188.8
2035.495	181.8
2039.627	176.8
2043.754	179.8
2047.878	180.8
2051.998	180.8
2056.114	175.8
2060.226	167.8
2064.334	171.8
2068.439	162.8
2072.54	165.8
2076.637	173.8
2080.73	167.8
2084.82	168.8
2088.906	166.8
2092.988	169.8
2097.066	168.8
2101.14	161.8
2105.211	160.8
2109.278	159.8
2113.342	148.8
2117.401	147.8
2121.457	149.8
2125.509	148.8
2129.558	153.8
2133.602	150.8
2137.643	154.8
2141.681	137.8
2145.714	153.8
2149.744	156.8
2153.77	152.8
2157.793	152.8
2161.812	153.8
2165.827	150.8
2169.838	143.8
2173.846	138.8
2177.851	144.8
2181.851	142.8
2185.848	139.8
2189.841	135.8
2193.831	133.8
2197.817	140.8
2201.799	134.8
2205.778	131.8
2209.753	138.8
2213.725	133.8
2217.693	138.8
2221.657	132.8
2225.618	125.8
2229.575	130.8
2233.529	126.8
2237.479	127.8
2241.425	134.8
2245.368	130.8
2249.307	128.8
2253.243	115.8
2257.175	117.8
2261.104	110.8
2265.029	119.8
2268.95	111.8
2272.868	108.8
2276.783	110.8
2280.694	105.8
2284.601	106.8
2288.505	111.8
2292.405	114.8
2296.302	113.8
2300.195	106.8
2304.085	104.8
2307.971	104.8
2311.854	97.8
2315.734	97.8
2319.609	101.8
2323.482	99.8
2327.351	106.8
2331.216	119.8
2335.078	127.8
2338.937	114.8
2342.792	99.8
2346.643	102.8
2350.492	100.8
2354.336	96.8
2358.178	99.8
2362.015	94.8
2365.85	91.8
2369.681	107.8
2373.508	103.8
2377.333	97.8
2381.153	99.8
2384.971	89.8
2388.785	94.8
2392.595	102.8
2396.402	103.8
2400.206	102.8
2404.007	85.8
2407.804	91.8
2411.597	92.8
2415.388	93.8
2419.174	98.8
2422.958	90.8
2426.738	91.8
2430.515	95.8
2434.289	95.8
2438.059	88.8
2441.825	88.8
2445.589	89.8
2449.349	88.8
2453.106	83.8
2456.859	85.8
2460.61	75.8
2464.356	76.8
2468.1	82.8
2471.84	79.8
2475.577	71.8
2479.311	82.8
2483.041	81.8
2486.768	78.8
2490.492	77.8
2494.213	73.8
2497.93	73.8
2501.644	77.8
2505.355	66.8
2509.062	68.8
2512.766	66.8
2516.467	63.8
2520.165	67.8
2523.859	70.8
2527.551	61.8
2531.239	65.8
2534.923	61.8
2538.605	63.8
2542.283	59.8
2545.958	68.8
2549.63	54.8
2553.299	60.8
2556.964	56.8
2560.626	58.8
2564.285	53.8
2567.941	56.8
2571.594	53.8
2575.243	57.8
2578.89	57.8
2582.533	49.8
2586.173	50.8
2589.809	53.8
2593.443	60.8
2597.073	53.8
2600.701	55.8
2604.325	44.8
2607.946	41.8
2611.564	48.8
2615.178	48.8
2618.79	48.8
2622.398	41.8
2626.004	42.8
2629.606	40.8
2633.205	45.8
2636.801	43.8
2640.394	50.8
2643.983	46.8
2647.57	44.8
2651.153	37.8
2654.734	42.8
2658.311	43.8
2661.885	43.8
2665.456	42.8
2669.025	45.8
2672.589	38.8
2676.151	31.8
2679.71	32.8
2683.266	40.8
2686.819	33.8
2690.368	41.8
2693.915	34.8
2697.458	36.8
2700.999	39.8
2704.536	40.8
2708.071	29.8
2711.602	38.8
2715.13	20.8
2718.656	28.8
2722.178	32.8
2725.697	27.8
2729.214	21.8
2732.727	25.8
2736.237	30.8
2739.744	22.8
2743.249	20.8
2746.75	28.8
2750.248	24.8
2753.743	21.8
2757.236	20.8
2760.725	16.8
2764.211	9.8
2767.695	14.8
2771.175	10.8
2774.652	12.8
2778.127	17.8
2781.598	14.8
2785.067	17.8
2788.532	11.8
2791.995	24.8
2795.455	15.8
2798.911	15.8
2802.365	14.8
2805.816	12.8
2809.264	13.8
2812.709	10.8
2816.151	19.8
2819.59	34.8
2823.026	23.8
2826.46	25.8
2829.89	21.8
2833.318	15.8
2836.742	21.8
2840.164	18.8
2843.583	16.8
2846.999	24.8
2850.412	20.8
2853.822	19.8
2857.229	19.8
2860.634	18.8
2864.035	18.8
2867.434	22.8
2870.83	26.8
2874.223	23.8
2877.613	22.8
2881	31.8
2884.385	30.8
2887.766	33.8
2891.145	30.8
2894.521	27.8
2897.894	28.8
2901.264	27.8
2904.631	23.8
2907.996	29.8
2911.358	30.8
2914.717	26.8
2918.073	30.8
2921.426	34.8
2924.777	38.8
2928.124	32.8
2931.469	37.8
2934.811	46.8
2938.15	41.8
2941.487	44.8
2944.821	36.8
2948.152	46.8
2951.48	32.8
2954.805	44.8
2958.128	42.8
2961.447	45.8
2964.765	31.8
2968.079	36.8
2971.39	39.8
2974.699	39.8
2978.005	40.8
2981.308	34.8
2984.609	34.8
2987.907	31.8
2991.202	36.8
2994.494	31.8
2997.784	33.8
3001.07	35.8
3004.355	43.8
3007.636	39.8
3010.915	46.8
3014.191	39.8
3017.464	39.8
3020.734	37.8
3024.002	44.8
3027.267	50.8
3030.53	43.8
3033.789	45.8
3037.046	42.8
3040.301	44.8
3043.552	45.8
3046.801	53.8
3050.048	47.8
3053.291	55.8
3056.532	57.8
3059.771	55.8
3063.006	60.8
3066.239	63.8
3069.469	69.8
3072.697	68.8
3075.922	72.8
3079.144	67.8
3082.364	76.8
3085.581	76.8
3088.795	81.8
3092.007	87.8
3095.216	88.8
3098.423	78.8
3101.627	82.8
3104.828	93.8
3108.026	91.8
3111.222	86.8
3114.416	92.8
3117.607	101.8
3120.795	103.8
3123.98	98.8
3127.163	111.8
3130.344	114.8
3133.521	114.8
3136.696	117.8
3139.869	115.8
3143.039	115.8
3146.206	116.8
3149.371	115.8
3152.533	129.8
3155.693	118.8
3158.85	125.8
3162.005	128.8
3165.157	130.8
3168.306	124.8
3171.453	128.8
3174.597	132.8
3177.739	134.8
3180.878	135.8
3184.014	123.8
3187.149	125.8
3190.28	135.8
3193.409	128.8
3196.536	120.8
3199.659	138.8
3202.781	132.8
3205.9	129.8
3209.016	128.8
3212.13	137.8
3215.241	132.8
3218.35	128.8
3221.456	131.8
3224.56	121.8
3227.661	120.8
3230.76	118.8
3233.856	109.8
3236.95	107.8
3240.041	106.8
3243.13	117.8
3246.216	102.8
3249.3	104.8
3252.382	108.8
3255.46	108.8
3258.537	102.8
3261.611	103.8
3264.682	101.8
3267.751	92.8
3270.818	89.8
3273.882	93.8
3276.943	90.8
3280.002	99.8
3283.059	93.8
3286.113	96.8
3289.165	88.8
3292.214	87.8
3295.261	99.8
3298.306	83.8
3301.348	88.8
3304.387	85.8
3307.425	83.8
3310.459	77.8
3313.492	81.8
3316.521	81.8
3319.549	89.8
3322.574	82.8
3325.597	83.8
3328.617	79.8
3331.635	90.8
3334.65	100.8
3337.663	73.8
3340.674	83.8
3343.682	76.8
3346.688	82.8
3349.691	84.8
3352.692	78.8
3355.691	84.8
3358.687	79.8
3361.681	88.8
3364.673	80.8
3367.662	81.8
3370.649	83.8
3373.633	76.8
3376.615	68.8
3379.595	74.8
3382.572	63.8
3385.547	71.8
3388.52	61.8
3391.49	51.8
3394.458	58.8
3397.424	70.8
3400.387	70.8
3403.348	59.8
3406.307	52.8
3409.263	60.8
3412.217	64.8
3415.168	58.8
3418.118	50.8
3421.065	44.8
3424.009	46.8
3426.951	50.8
3429.891	44.8
3432.829	46.8
3435.764	50.8
3438.697	45.8
3441.628	35.8
3444.557	37.8
3447.483	41.8
3450.407	32.8
3453.328	37.8
3456.247	34.8
3459.164	29.8
3462.079	24.8
3464.991	26.8
3467.902	31.8
3470.809	22.8
3473.715	22.8
3476.618	12.8
3479.519	13.8
3482.418	12.8
3485.315	12.8
3488.209	0.8
3491.101	3.8
3493.99	7.8
3496.878	5.8
3499.763	-4.2
3502.646	-1.2
3505.527	2.8
3508.405	-1.2
3511.281	1.8
3514.155	0.8
3517.027	-5.2
3519.897	-8.2
3522.764	-11.2
3525.629	-8.2
3528.492	-14.2
3531.352	-15.2
3534.211	-22.2
3537.067	-16.2
3539.921	-16.2
3542.773	-19.2
3545.622	-21.2
3548.469	-16.2
3551.315	-15.2
3554.157	-22.2
3556.998	-19.2
3559.837	-22.2
3562.673	-25.2
3565.507	-29.2
3568.339	-25.2
3571.169	-23.2
3573.996	-24.2
3576.822	-31.2
3579.645	-27.2
3582.466	-26.2
3585.285	-29.2
3588.101	-36.2
3590.916	-25.2
3593.728	-32.2
3596.538	-33.2
3599.346	-36.2
3602.152	-38.2
3604.956	-32.2
3607.757	-28.2
3610.556	-35.2
3613.354	-42.2
3616.149	-34.2
3618.942	-32.2
3621.732	-33.2
3624.521	-36.2
3627.307	-36.2
3630.092	-38.2
3632.874	-38.2
3635.654	-43.2
3638.432	-41.2
3641.208	-40.2
3643.982	-39.2
3646.753	-42.2
3649.523	-40.2
3652.29	-43.2
3655.055	-40.2
3657.818	-40.2
3660.579	-39.2
3663.338	-41.2
3666.095	-43.2
3668.849	-46.2
3671.602	-37.2
3674.352	-39.2
3677.101	-43.2
3679.847	-42.2
3682.591	-46.2
3685.333	-42.2
3688.073	-44.2
3690.811	-43.2
3693.547	-46.2
3696.281	-41.2
3699.013	-42.2
3701.742	-47.2
3704.47	-45.2
3707.195	-49.2
3709.919	-46.2
3712.64	-41.2
3715.359	-46.2
3718.076	-50.2
3720.792	-43.2
3723.505	-46.2
3726.216	-40.2
3728.925	-49.2
3731.632	-45.2
3734.336	-49.2
3737.039	-47.2
3739.74	-52.2
3742.439	-53.2
3745.136	-53.2
3747.83	-45.2
3750.523	-49.2
3753.213	-61.2
3755.902	-43.2
3758.589	-45.2
3761.273	-48.2
3763.956	-49.2
3766.636	-45.2
3769.315	-48.2
3771.991	-50.2
3774.665	-55.2
3777.338	-49.2
3780.008	-48.2
3782.677	-56.2
3785.343	-51.2
3788.007	-52.2
3790.67	-50.2
3793.33	-47.2
3795.989	-47.2
3798.645	-51.2
3801.299	-45.2
3803.952	-51.2
3806.602	-47.2
3809.251	-53.2
3811.897	-54.2
3814.542	-60.2
3817.184	-50.2
3819.825	-49.2
3822.463	-48.2
3825.1	-45.2
3827.735	-51.2
3830.367	-49.2
3832.998	-54.2
3835.627	-50.2
3838.253	-47.2
3840.878	-47.2
3843.501	-43.2
3846.122	-55.2
3848.741	-48.2
3851.358	-51.2
3853.973	-48.2
3856.586	-48.2
3859.197	-48.2
3861.806	-47.2
3864.414	-52.2
3867.019	-47.2
3869.622	-44.2
3872.224	-35.2
3874.823	-32.2
3877.421	-25.2
3880.016	-13.2
3882.61	1.8
3885.202	0.8
3887.792	-5.2
3890.38	-17.2
3892.966	-36.2
3895.55	-47.2
3898.132	-46.2
3900.713	-46.2
3903.291	-52.2
3905.868	-44.2
3908.442	-47.2
3911.015	-52.2
3913.586	-54.2
3916.155	-49.2
3918.722	-53.2
3921.287	-56.2
3923.85	-44.2
3926.411	-52.2
3928.971	-56.2
3931.528	-52.2
3934.084	-49.2
3936.638	-43.2
3939.19	-59.2
3941.74	-51.2
3944.288	-51.2
3946.834	-51.2
3949.378	-54.2
3951.921	-53.2
3954.462	-58.2
3957	-41.2
3959.537	-42.2
3962.072	-45.2
3964.606	-47.2
3967.137	-46.2
3969.667	-49.2
3972.194	-46.2
3974.72	-48.2
3977.244	-48.2
3979.766	-52.2
3982.286	-54.2
3984.805	-60.2
3987.321	-51.2
3989.836	-46.2
3992.349	-52.2
3994.86	-56.2
3997.369	-54.2
3999.877	-51.2
4002.382	-48.2
4004.886	-44.2
4007.388	-50.2
4009.888	-46.2
4012.386	-54.2
4014.883	-49.2
4017.377	-48.2
4019.87	-49.2
4022.361	-56.2
4024.85	-48.2
4027.338	-51.2
4029.823	-52.2
4032.307	-56.2
4034.789	-47.2
4037.269	-52.2
4039.747	-51.2
4042.224	-52.2
4044.699	-57.2
4047.172	-53.2
4049.643	-56.2
4052.112	-53.2
4054.58	-51.2
4057.046	-44.2
4059.51	-52.2
4061.972	-55.2
4064.432	-49.2
4066.891	-42.2
4069.348	-47.2
4071.803	-42.2
4074.256	-50.2
4076.708	-47.2
4079.158	-55.2
4081.606	-50.2
4084.052	-52.2
4086.497	-50.2
4088.939	-50.2
4091.38	-56.2
4093.819	-53.2
4096.257	-48.2
4098.693	-54.2
4101.127	-48.2
4103.559	-56.2
4105.989	19.8
4108.418	17.8
4110.845	9.8
4113.27	13.8
4115.694	19.8
4118.115	12.8
4120.535	-50.2
4122.954	-52.2
4125.37	-54.2
4127.785	-48.2
4130.198	-45.2
4132.609	-51.2
4135.019	-58.2
4137.427	-56.2
4139.833	-54.2
4142.237	-56.2
