Data from 2018-3-7_conc=3_n=1_RamanShift_03.txt Node
Date: Wed Mar 07 11:16:22 IST 2018
User: aro
Spectrometer: QEPB0276
Trigger mode: 0
Integration Time (sec): 3.000000E1
Scans to average: 1
Electric dark correction enabled: true
Nonlinearity correction enabled: false
Boxcar width: 0
XAxis mode: Raman Shifts
Number of Pixels in Spectrum: 1044
>>>>>Begin Spectral Data<<<<<
160.701	13.4
166.742	25.4
172.777	57.4
178.805	147.4
184.826	402.4
190.841	821.4
196.849	1346.4
202.85	1769.4
208.845	1936.4
214.833	1924.4
220.815	1910.4
226.789	1916.4
232.758	1921.4
238.719	1917.4
244.674	1921.4
250.623	1883.4
256.565	1884.4
262.5	1847.4
268.429	1847.4
274.351	1839.4
280.267	1812.4
286.176	1796.4
292.079	1829.4
297.975	1816.4
303.865	1809.4
309.748	1813.4
315.625	1810.4
321.495	1838.4
327.359	1808.4
333.217	1820.4
339.068	1830.4
344.912	1842.4
350.751	1831.4
356.583	1838.4
362.408	1848.4
368.227	1838.4
374.04	1863.4
379.847	1861.4
385.647	1869.4
391.44	1868.4
397.228	1886.4
403.009	1898.4
408.784	1912.4
414.553	1934.4
420.315	1917.4
426.071	1911.4
431.821	1933.4
437.565	1912.4
443.302	1933.4
449.033	1911.4
454.758	1914.4
460.477	1890.4
466.189	1867.4
471.896	1851.4
477.596	1856.4
483.29	1852.4
488.978	1845.4
494.66	1838.4
500.335	1791.4
506.005	1718.4
511.668	1661.4
517.325	1588.4
522.977	1549.4
528.622	1522.4
534.261	1482.4
539.894	1444.4
545.521	1436.4
551.141	1438.4
556.756	1405.4
562.365	1403.4
567.968	1381.4
573.565	1375.4
579.155	1361.4
584.74	1370.4
590.319	1353.4
595.892	1355.4
601.459	1370.4
607.02	1346.4
612.575	1353.4
618.124	1323.4
623.667	1331.4
629.204	1299.4
634.735	1282.4
640.261	1256.4
645.781	1258.4
651.294	1255.4
656.802	1244.4
662.304	1255.4
667.8	1248.4
673.29	1252.4
678.775	1235.4
684.254	1240.4
689.726	1224.4
695.193	1227.4
700.655	1206.4
706.11	1201.4
711.56	1195.4
717.004	1199.4
722.442	1176.4
727.874	1185.4
733.301	1172.4
738.722	1185.4
744.137	1162.4
749.547	1178.4
754.951	1171.4
760.349	1150.4
765.741	1174.4
771.128	1164.4
776.509	1190.4
781.885	1203.4
787.254	1200.4
792.618	1205.4
797.977	1177.4
803.33	1188.4
808.677	1195.4
814.019	1180.4
819.355	1161.4
824.686	1165.4
830.011	1143.4
835.33	1151.4
840.644	1147.4
845.952	1127.4
851.255	1132.4
856.552	1130.4
861.844	1117.4
867.13	1095.4
872.41	1098.4
877.686	1091.4
882.955	1102.4
888.219	1082.4
893.478	1066.4
898.731	1046.4
903.979	1034.4
909.221	1039.4
914.458	1030.4
919.69	1023.4
924.916	1022.4
930.136	1022.4
935.351	1030.4
940.561	1020.4
945.766	1021.4
950.965	1034.4
956.158	1023.4
961.347	998.4
966.529	985.4
971.707	980.4
976.879	955.4
982.046	956.4
987.208	959.4
992.364	948.4
997.515	965.4
1002.66	948.4
1007.801	969.4
1012.936	979.4
1018.066	980.4
1023.19	989.4
1028.309	979.4
1033.423	978.4
1038.532	967.4
1043.636	962.4
1048.734	950.4
1053.827	939.4
1058.915	924.4
1063.998	924.4
1069.075	920.4
1074.147	911.4
1079.214	916.4
1084.276	927.4
1089.333	930.4
1094.385	940.4
1099.431	916.4
1104.472	939.4
1109.509	919.4
1114.54	894.4
1119.565	898.4
1124.586	884.4
1129.602	858.4
1134.613	868.4
1139.618	850.4
1144.619	863.4
1149.614	862.4
1154.604	856.4
1159.589	873.4
1164.57	872.4
1169.545	872.4
1174.515	877.4
1179.48	869.4
1184.44	861.4
1189.395	846.4
1194.345	837.4
1199.29	827.4
1204.23	849.4
1209.165	850.4
1214.095	844.4
1219.021	847.4
1223.941	849.4
1228.856	868.4
1233.766	869.4
1238.672	867.4
1243.572	845.4
1248.467	862.4
1253.358	841.4
1258.244	827.4
1263.124	809.4
1268	800.4
1272.871	796.4
1277.737	783.4
1282.599	782.4
1287.455	777.4
1292.306	787.4
1297.153	785.4
1301.995	794.4
1306.832	801.4
1311.664	800.4
1316.491	805.4
1321.314	790.4
1326.132	796.4
1330.945	771.4
1335.753	769.4
1340.556	740.4
1345.354	723.4
1350.148	719.4
1354.937	696.4
1359.722	686.4
1364.501	675.4
1369.276	658.4
1374.046	652.4
1378.811	650.4
1383.572	652.4
1388.327	643.4
1393.079	640.4
1397.825	649.4
1402.567	654.4
1407.304	653.4
1412.036	648.4
1416.764	654.4
1421.487	663.4
1426.205	650.4
1430.919	655.4
1435.628	656.4
1440.333	668.4
1445.032	660.4
1449.727	687.4
1454.418	679.4
1459.104	682.4
1463.785	661.4
1468.462	647.4
1473.134	632.4
1477.802	611.4
1482.465	593.4
1487.123	582.4
1491.777	571.4
1496.426	566.4
1501.071	566.4
1505.711	559.4
1510.347	553.4
1514.978	540.4
1519.604	539.4
1524.226	545.4
1528.844	538.4
1533.457	530.4
1538.065	542.4
1542.669	535.4
1547.269	531.4
1551.864	544.4
1556.454	556.4
1561.041	565.4
1565.622	566.4
1570.199	570.4
1574.772	569.4
1579.34	578.4
1583.904	578.4
1588.464	589.4
1593.019	587.4
1597.569	595.4
1602.115	600.4
1606.657	587.4
1611.195	588.4
1615.728	588.4
1620.256	583.4
1624.78	586.4
1629.3	583.4
1633.816	583.4
1638.327	575.4
1642.834	584.4
1647.336	579.4
1651.834	577.4
1656.328	576.4
1660.817	575.4
1665.302	559.4
1669.783	559.4
1674.259	538.4
1678.732	532.4
1683.199	506.4
1687.663	493.4
1692.122	462.4
1696.577	443.4
1701.028	428.4
1705.474	399.4
1709.917	396.4
1714.355	391.4
1718.788	394.4
1723.218	380.4
1727.643	391.4
1732.064	399.4
1736.481	386.4
1740.893	383.4
1745.301	375.4
1749.705	367.4
1754.105	350.4
1758.501	337.4
1762.893	333.4
1767.28	326.4
1771.663	328.4
1776.042	311.4
1780.417	321.4
1784.787	312.4
1789.154	302.4
1793.516	297.4
1797.874	294.4
1802.228	290.4
1806.578	293.4
1810.924	281.4
1815.266	285.4
1819.603	282.4
1823.937	286.4
1828.266	284.4
1832.591	293.4
1836.913	281.4
1841.23	293.4
1845.543	281.4
1849.852	289.4
1854.156	293.4
1858.457	294.4
1862.754	298.4
1867.047	293.4
1871.335	286.4
1875.62	296.4
1879.9	295.4
1884.177	283.4
1888.449	278.4
1892.718	279.4
1896.982	274.4
1901.243	257.4
1905.499	257.4
1909.752	256.4
1914	257.4
1918.245	240.4
1922.485	233.4
1926.722	227.4
1930.954	240.4
1935.183	237.4
1939.408	244.4
1943.628	231.4
1947.845	231.4
1952.058	227.4
1956.267	226.4
1960.472	228.4
1964.673	228.4
1968.87	227.4
1973.063	222.4
1977.252	217.4
1981.438	221.4
1985.619	216.4
1989.797	219.4
1993.971	228.4
1998.14	223.4
2002.306	240.4
2006.469	231.4
2010.627	230.4
2014.781	217.4
2018.932	230.4
2023.078	225.4
2027.221	222.4
2031.36	219.4
2035.495	218.4
2039.627	197.4
2043.754	204.4
2047.878	213.4
2051.998	205.4
2056.114	197.4
2060.226	199.4
2064.334	204.4
2068.439	194.4
2072.54	193.4
2076.637	202.4
2080.73	199.4
2084.82	190.4
2088.906	187.4
2092.988	189.4
2097.066	179.4
2101.14	187.4
2105.211	178.4
2109.278	177.4
2113.342	177.4
2117.401	179.4
2121.457	180.4
2125.509	175.4
2129.558	167.4
2133.602	179.4
2137.643	174.4
2141.681	163.4
2145.714	172.4
2149.744	176.4
2153.77	172.4
2157.793	165.4
2161.812	177.4
2165.827	175.4
2169.838	166.4
2173.846	163.4
2177.851	162.4
2181.851	170.4
2185.848	170.4
2189.841	159.4
2193.831	156.4
2197.817	165.4
2201.799	152.4
2205.778	159.4
2209.753	156.4
2213.725	152.4
2217.693	152.4
2221.657	157.4
2225.618	150.4
2229.575	147.4
2233.529	141.4
2237.479	158.4
2241.425	141.4
2245.368	145.4
2249.307	147.4
2253.243	141.4
2257.175	146.4
2261.104	137.4
2265.029	138.4
2268.95	134.4
2272.868	133.4
2276.783	129.4
2280.694	122.4
2284.601	121.4
2288.505	131.4
2292.405	136.4
2296.302	132.4
2300.195	123.4
2304.085	126.4
2307.971	121.4
2311.854	115.4
2315.734	119.4
2319.609	122.4
2323.482	112.4
2327.351	123.4
2331.216	131.4
2335.078	140.4
2338.937	123.4
2342.792	120.4
2346.643	125.4
2350.492	117.4
2354.336	121.4
2358.178	114.4
2362.015	112.4
2365.85	120.4
2369.681	120.4
2373.508	116.4
2377.333	118.4
2381.153	111.4
2384.971	115.4
2388.785	109.4
2392.595	113.4
2396.402	122.4
2400.206	117.4
2404.007	115.4
2407.804	113.4
2411.597	114.4
2415.388	121.4
2419.174	119.4
2422.958	110.4
2426.738	114.4
2430.515	106.4
2434.289	109.4
2438.059	103.4
2441.825	109.4
2445.589	102.4
2449.349	97.4
2453.106	104.4
2456.859	101.4
2460.61	102.4
2464.356	98.4
2468.1	98.4
2471.84	99.4
2475.577	95.4
2479.311	93.4
2483.041	91.4
2486.768	91.4
2490.492	90.4
2494.213	87.4
2497.93	90.4
2501.644	89.4
2505.355	88.4
2509.062	91.4
2512.766	90.4
2516.467	85.4
2520.165	83.4
2523.859	88.4
2527.551	78.4
2531.239	78.4
2534.923	77.4
2538.605	72.4
2542.283	63.4
2545.958	76.4
2549.63	71.4
2553.299	69.4
2556.964	67.4
2560.626	71.4
2564.285	73.4
2567.941	63.4
2571.594	66.4
2575.243	73.4
2578.89	63.4
2582.533	63.4
2586.173	62.4
2589.809	66.4
2593.443	66.4
2597.073	59.4
2600.701	60.4
2604.325	56.4
2607.946	44.4
2611.564	57.4
2615.178	57.4
2618.79	55.4
2622.398	51.4
2626.004	51.4
2629.606	55.4
2633.205	55.4
2636.801	58.4
2640.394	65.4
2643.983	51.4
2647.57	54.4
2651.153	45.4
2654.734	50.4
2658.311	52.4
2661.885	53.4
2665.456	49.4
2669.025	55.4
2672.589	50.4
2676.151	45.4
2679.71	39.4
2683.266	42.4
2686.819	50.4
2690.368	39.4
2693.915	40.4
2697.458	36.4
2700.999	43.4
2704.536	46.4
2708.071	42.4
2711.602	38.4
2715.13	27.4
2718.656	36.4
2722.178	36.4
2725.697	35.4
2729.214	36.4
2732.727	42.4
2736.237	36.4
2739.744	27.4
2743.249	27.4
2746.75	28.4
2750.248	20.4
2753.743	25.4
2757.236	23.4
2760.725	22.4
2764.211	23.4
2767.695	14.4
2771.175	20.4
2774.652	23.4
2778.127	30.4
2781.598	22.4
2785.067	19.4
2788.532	14.4
2791.995	24.4
2795.455	20.4
2798.911	17.4
2802.365	22.4
2805.816	21.4
2809.264	20.4
2812.709	23.4
2816.151	22.4
2819.59	36.4
2823.026	22.4
2826.46	20.4
2829.89	23.4
2833.318	28.4
2836.742	28.4
2840.164	23.4
2843.583	22.4
2846.999	21.4
2850.412	24.4
2853.822	25.4
2857.229	24.4
2860.634	21.4
2864.035	35.4
2867.434	26.4
2870.83	35.4
2874.223	30.4
2877.613	31.4
2881	34.4
2884.385	37.4
2887.766	33.4
2891.145	36.4
2894.521	40.4
2897.894	30.4
2901.264	26.4
2904.631	23.4
2907.996	39.4
2911.358	40.4
2914.717	36.4
2918.073	39.4
2921.426	41.4
2924.777	46.4
2928.124	43.4
2931.469	45.4
2934.811	46.4
2938.15	48.4
2941.487	55.4
2944.821	48.4
2948.152	50.4
2951.48	44.4
2954.805	44.4
2958.128	44.4
2961.447	48.4
2964.765	47.4
2968.079	46.4
2971.39	48.4
2974.699	40.4
2978.005	45.4
2981.308	41.4
2984.609	42.4
2987.907	45.4
2991.202	39.4
2994.494	41.4
2997.784	38.4
3001.07	49.4
3004.355	37.4
3007.636	51.4
3010.915	46.4
3014.191	44.4
3017.464	50.4
3020.734	50.4
3024.002	58.4
3027.267	59.4
3030.53	55.4
3033.789	56.4
3037.046	50.4
3040.301	56.4
3043.552	62.4
3046.801	65.4
3050.048	63.4
3053.291	64.4
3056.532	69.4
3059.771	67.4
3063.006	77.4
3066.239	80.4
3069.469	88.4
3072.697	84.4
3075.922	98.4
3079.144	92.4
3082.364	99.4
3085.581	99.4
3088.795	104.4
3092.007	109.4
3095.216	105.4
3098.423	100.4
3101.627	104.4
3104.828	112.4
3108.026	109.4
3111.222	118.4
3114.416	120.4
3117.607	122.4
3120.795	124.4
3123.98	129.4
3127.163	136.4
3130.344	133.4
3133.521	139.4
3136.696	147.4
3139.869	144.4
3143.039	138.4
3146.206	152.4
3149.371	159.4
3152.533	154.4
3155.693	152.4
3158.85	153.4
3162.005	156.4
3165.157	162.4
3168.306	158.4
3171.453	158.4
3174.597	156.4
3177.739	150.4
3180.878	158.4
3184.014	152.4
3187.149	156.4
3190.28	156.4
3193.409	156.4
3196.536	159.4
3199.659	160.4
3202.781	164.4
3205.9	157.4
3209.016	154.4
3212.13	157.4
3215.241	166.4
3218.35	159.4
3221.456	158.4
3224.56	146.4
3227.661	145.4
3230.76	153.4
3233.856	136.4
3236.95	130.4
3240.041	135.4
3243.13	134.4
3246.216	137.4
3249.3	129.4
3252.382	131.4
3255.46	130.4
3258.537	126.4
3261.611	122.4
3264.682	128.4
3267.751	123.4
3270.818	115.4
3273.882	119.4
3276.943	110.4
3280.002	119.4
3283.059	120.4
3286.113	108.4
3289.165	110.4
3292.214	109.4
3295.261	116.4
3298.306	109.4
3301.348	108.4
3304.387	123.4
3307.425	103.4
3310.459	106.4
3313.492	108.4
3316.521	107.4
3319.549	118.4
3322.574	99.4
3325.597	101.4
3328.617	112.4
3331.635	111.4
3334.65	111.4
3337.663	94.4
3340.674	101.4
3343.682	102.4
3346.688	98.4
3349.691	105.4
3352.692	101.4
3355.691	114.4
3358.687	100.4
3361.681	97.4
3364.673	99.4
3367.662	102.4
3370.649	100.4
3373.633	90.4
3376.615	91.4
3379.595	90.4
3382.572	84.4
3385.547	95.4
3388.52	88.4
3391.49	83.4
3394.458	76.4
3397.424	82.4
3400.387	75.4
3403.348	79.4
3406.307	68.4
3409.263	71.4
3412.217	72.4
3415.168	73.4
3418.118	67.4
3421.065	68.4
3424.009	62.4
3426.951	65.4
3429.891	62.4
3432.829	56.4
3435.764	68.4
3438.697	64.4
3441.628	57.4
3444.557	55.4
3447.483	53.4
3450.407	40.4
3453.328	47.4
3456.247	40.4
3459.164	38.4
3462.079	31.4
3464.991	33.4
3467.902	36.4
3470.809	30.4
3473.715	31.4
3476.618	27.4
3479.519	22.4
3482.418	21.4
3485.315	20.4
3488.209	13.4
3491.101	9.4
3493.99	12.4
3496.878	8.4
3499.763	1.4
3502.646	3.4
3505.527	5.4
3508.405	1.4
3511.281	0.4
3514.155	1.4
3517.027	-9.6
3519.897	-0.6
3522.764	-4.6
3525.629	-4.6
3528.492	-11.6
3531.352	-11.6
3534.211	-16.6
3537.067	-13.6
3539.921	-15.6
3542.773	-22.6
3545.622	-17.6
3548.469	-26.6
3551.315	-22.6
3554.157	-27.6
3556.998	-25.6
3559.837	-27.6
3562.673	-24.6
3565.507	-24.6
3568.339	-27.6
3571.169	-23.6
3573.996	-23.6
3576.822	-32.6
3579.645	-31.6
3582.466	-29.6
3585.285	-29.6
3588.101	-38.6
3590.916	-32.6
3593.728	-38.6
3596.538	-40.6
3599.346	-40.6
3602.152	-36.6
3604.956	-34.6
3607.757	-26.6
3610.556	-30.6
3613.354	-39.6
3616.149	-44.6
3618.942	-38.6
3621.732	-42.6
3624.521	-41.6
3627.307	-39.6
3630.092	-46.6
3632.874	-44.6
3635.654	-45.6
3638.432	-40.6
3641.208	-42.6
3643.982	-37.6
3646.753	-48.6
3649.523	-41.6
3652.29	-45.6
3655.055	-39.6
3657.818	-45.6
3660.579	-51.6
3663.338	-46.6
3666.095	-51.6
3668.849	-49.6
3671.602	-50.6
3674.352	-41.6
3677.101	-48.6
3679.847	-44.6
3682.591	-48.6
3685.333	-46.6
3688.073	-52.6
3690.811	-49.6
3693.547	-48.6
3696.281	-50.6
3699.013	-51.6
3701.742	-52.6
3704.47	-48.6
3707.195	-53.6
3709.919	-57.6
3712.64	-49.6
3715.359	-51.6
3718.076	-58.6
3720.792	-52.6
3723.505	-49.6
3726.216	-49.6
3728.925	-54.6
3731.632	-50.6
3734.336	-50.6
3737.039	-50.6
3739.74	-54.6
3742.439	-52.6
3745.136	-55.6
3747.83	-50.6
3750.523	-56.6
3753.213	-65.6
3755.902	-56.6
3758.589	-54.6
3761.273	-53.6
3763.956	-50.6
3766.636	-48.6
3769.315	-50.6
3771.991	-53.6
3774.665	-57.6
3777.338	-52.6
3780.008	-57.6
3782.677	-55.6
3785.343	-55.6
3788.007	-53.6
3790.67	-53.6
3793.33	-52.6
3795.989	-57.6
3798.645	-52.6
3801.299	-57.6
3803.952	-56.6
3806.602	-53.6
3809.251	-57.6
3811.897	-61.6
3814.542	-57.6
3817.184	-59.6
3819.825	-56.6
3822.463	-55.6
3825.1	-54.6
3827.735	-62.6
3830.367	-58.6
3832.998	-57.6
3835.627	-52.6
3838.253	-51.6
3840.878	-52.6
3843.501	-48.6
3846.122	-61.6
3848.741	-55.6
3851.358	-56.6
3853.973	-52.6
3856.586	-55.6
3859.197	-62.6
3861.806	-56.6
3864.414	-56.6
3867.019	-56.6
3869.622	-49.6
3872.224	-41.6
3874.823	-30.6
3877.421	-20.6
3880.016	-7.6
3882.61	15.4
3885.202	24.4
3887.792	9.4
3890.38	-15.6
3892.966	-39.6
3895.55	-46.6
3898.132	-51.6
3900.713	-59.6
3903.291	-54.6
3905.868	-51.6
3908.442	-50.6
3911.015	-52.6
3913.586	-55.6
3916.155	-55.6
3918.722	-59.6
3921.287	-54.6
3923.85	-55.6
3926.411	-59.6
3928.971	-67.6
3931.528	-59.6
3934.084	-58.6
3936.638	-52.6
3939.19	-59.6
3941.74	-53.6
3944.288	-59.6
3946.834	-51.6
3949.378	-58.6
3951.921	-61.6
3954.462	-55.6
3957	-51.6
3959.537	-43.6
3962.072	-52.6
3964.606	-56.6
3967.137	-56.6
3969.667	-59.6
3972.194	-52.6
3974.72	-51.6
3977.244	-45.6
3979.766	-55.6
3982.286	-55.6
3984.805	-62.6
3987.321	-55.6
3989.836	-50.6
3992.349	-56.6
3994.86	-61.6
3997.369	-60.6
3999.877	-58.6
4002.382	-57.6
4004.886	-57.6
4007.388	-54.6
4009.888	-55.6
4012.386	-55.6
4014.883	-53.6
4017.377	-53.6
4019.87	-53.6
4022.361	-63.6
4024.85	-53.6
4027.338	-59.6
4029.823	-52.6
4032.307	-62.6
4034.789	-55.6
4037.269	-55.6
4039.747	-61.6
4042.224	-55.6
4044.699	-64.6
4047.172	-55.6
4049.643	-54.6
4052.112	-48.6
4054.58	-56.6
4057.046	-52.6
4059.51	-57.6
4061.972	-58.6
4064.432	-50.6
4066.891	-51.6
4069.348	-54.6
4071.803	-53.6
4074.256	-54.6
4076.708	-53.6
4079.158	-57.6
4081.606	-56.6
4084.052	-59.6
4086.497	-49.6
4088.939	-54.6
4091.38	-60.6
4093.819	-53.6
4096.257	-60.6
4098.693	-56.6
4101.127	-50.6
4103.559	-60.6
4105.989	27.4
4108.418	21.4
4110.845	16.4
4113.27	18.4
4115.694	20.4
4118.115	17.4
4120.535	-57.6
4122.954	-54.6
4125.37	-57.6
4127.785	-48.6
4130.198	-54.6
4132.609	-62.6
4135.019	-59.6
4137.427	-63.6
4139.833	-57.6
4142.237	-62.6
