Data from 2018-3-7_conc=4_n=6_RamanShift_04.txt Node
Date: Wed Mar 07 12:06:52 IST 2018
User: aro
Spectrometer: QEPB0276
Trigger mode: 0
Integration Time (sec): 3.000000E1
Scans to average: 1
Electric dark correction enabled: true
Nonlinearity correction enabled: false
Boxcar width: 0
XAxis mode: Raman Shifts
Number of Pixels in Spectrum: 1044
>>>>>Begin Spectral Data<<<<<
160.701	8.4
166.742	18.4
172.777	51.4
178.805	148.4
184.826	386.4
190.841	811.4
196.849	1337.4
202.85	1746.4
208.845	1937.4
214.833	1942.4
220.815	1894.4
226.789	1915.4
232.758	1912.4
238.719	1918.4
244.674	1911.4
250.623	1885.4
256.565	1868.4
262.5	1850.4
268.429	1823.4
274.351	1824.4
280.267	1788.4
286.176	1793.4
292.079	1768.4
297.975	1794.4
303.865	1772.4
309.748	1771.4
315.625	1770.4
321.495	1765.4
327.359	1785.4
333.217	1779.4
339.068	1787.4
344.912	1786.4
350.751	1782.4
356.583	1791.4
362.408	1788.4
368.227	1798.4
374.04	1810.4
379.847	1821.4
385.647	1800.4
391.44	1824.4
397.228	1842.4
403.009	1856.4
408.784	1856.4
414.553	1848.4
420.315	1866.4
426.071	1874.4
431.821	1865.4
437.565	1852.4
443.302	1865.4
449.033	1867.4
454.758	1822.4
460.477	1838.4
466.189	1837.4
471.896	1805.4
477.596	1800.4
483.29	1778.4
488.978	1773.4
494.66	1770.4
500.335	1736.4
506.005	1680.4
511.668	1628.4
517.325	1572.4
522.977	1526.4
528.622	1496.4
534.261	1478.4
539.894	1447.4
545.521	1447.4
551.141	1425.4
556.756	1422.4
562.365	1405.4
567.968	1399.4
573.565	1371.4
579.155	1385.4
584.74	1354.4
590.319	1357.4
595.892	1374.4
601.459	1348.4
607.02	1369.4
612.575	1338.4
618.124	1337.4
623.667	1316.4
629.204	1305.4
634.735	1304.4
640.261	1289.4
645.781	1281.4
651.294	1283.4
656.802	1270.4
662.304	1271.4
667.8	1257.4
673.29	1271.4
678.775	1252.4
684.254	1248.4
689.726	1254.4
695.193	1239.4
700.655	1226.4
706.11	1212.4
711.56	1213.4
717.004	1214.4
722.442	1203.4
727.874	1191.4
733.301	1190.4
738.722	1192.4
744.137	1184.4
749.547	1196.4
754.951	1163.4
760.349	1185.4
765.741	1185.4
771.128	1189.4
776.509	1197.4
781.885	1215.4
787.254	1195.4
792.618	1206.4
797.977	1207.4
803.33	1189.4
808.677	1184.4
814.019	1196.4
819.355	1163.4
824.686	1153.4
830.011	1151.4
835.33	1150.4
840.644	1159.4
845.952	1142.4
851.255	1150.4
856.552	1155.4
861.844	1120.4
867.13	1116.4
872.41	1119.4
877.686	1110.4
882.955	1108.4
888.219	1098.4
893.478	1092.4
898.731	1061.4
903.979	1058.4
909.221	1050.4
914.458	1037.4
919.69	1024.4
924.916	1044.4
930.136	1054.4
935.351	1036.4
940.561	1042.4
945.766	1037.4
950.965	1045.4
956.158	1034.4
961.347	1014.4
966.529	1010.4
971.707	984.4
976.879	968.4
982.046	965.4
987.208	981.4
992.364	966.4
997.515	972.4
1002.66	984.4
1007.801	991.4
1012.936	987.4
1018.066	1010.4
1023.19	991.4
1028.309	992.4
1033.423	989.4
1038.532	985.4
1043.636	973.4
1048.734	970.4
1053.827	973.4
1058.915	962.4
1063.998	941.4
1069.075	933.4
1074.147	936.4
1079.214	961.4
1084.276	937.4
1089.333	949.4
1094.385	952.4
1099.431	941.4
1104.472	948.4
1109.509	938.4
1114.54	918.4
1119.565	900.4
1124.586	895.4
1129.602	889.4
1134.613	888.4
1139.618	879.4
1144.619	872.4
1149.614	889.4
1154.604	878.4
1159.589	886.4
1164.57	876.4
1169.545	886.4
1174.515	888.4
1179.48	893.4
1184.44	872.4
1189.395	865.4
1194.345	872.4
1199.29	847.4
1204.23	862.4
1209.165	845.4
1214.095	860.4
1219.021	865.4
1223.941	869.4
1228.856	872.4
1233.766	884.4
1238.672	877.4
1243.572	873.4
1248.467	867.4
1253.358	865.4
1258.244	855.4
1263.124	835.4
1268	818.4
1272.871	795.4
1277.737	796.4
1282.599	806.4
1287.455	804.4
1292.306	799.4
1297.153	793.4
1301.995	804.4
1306.832	809.4
1311.664	818.4
1316.491	821.4
1321.314	810.4
1326.132	807.4
1330.945	799.4
1335.753	787.4
1340.556	758.4
1345.354	755.4
1350.148	757.4
1354.937	725.4
1359.722	704.4
1364.501	681.4
1369.276	679.4
1374.046	681.4
1378.811	664.4
1383.572	661.4
1388.327	653.4
1393.079	657.4
1397.825	654.4
1402.567	669.4
1407.304	670.4
1412.036	681.4
1416.764	666.4
1421.487	679.4
1426.205	662.4
1430.919	665.4
1435.628	680.4
1440.333	693.4
1445.032	684.4
1449.727	693.4
1454.418	694.4
1459.104	687.4
1463.785	683.4
1468.462	654.4
1473.134	640.4
1477.802	624.4
1482.465	612.4
1487.123	589.4
1491.777	586.4
1496.426	586.4
1501.071	568.4
1505.711	567.4
1510.347	574.4
1514.978	559.4
1519.604	555.4
1524.226	555.4
1528.844	549.4
1533.457	550.4
1538.065	548.4
1542.669	538.4
1547.269	541.4
1551.864	553.4
1556.454	555.4
1561.041	580.4
1565.622	557.4
1570.199	575.4
1574.772	565.4
1579.34	587.4
1583.904	585.4
1588.464	608.4
1593.019	604.4
1597.569	605.4
1602.115	603.4
1606.657	596.4
1611.195	598.4
1615.728	601.4
1620.256	608.4
1624.78	600.4
1629.3	583.4
1633.816	603.4
1638.327	606.4
1642.834	591.4
1647.336	591.4
1651.834	587.4
1656.328	591.4
1660.817	584.4
1665.302	583.4
1669.783	558.4
1674.259	551.4
1678.732	554.4
1683.199	518.4
1687.663	502.4
1692.122	469.4
1696.577	455.4
1701.028	444.4
1705.474	414.4
1709.917	403.4
1714.355	388.4
1718.788	392.4
1723.218	393.4
1727.643	394.4
1732.064	397.4
1736.481	401.4
1740.893	383.4
1745.301	369.4
1749.705	373.4
1754.105	354.4
1758.501	348.4
1762.893	348.4
1767.28	336.4
1771.663	333.4
1776.042	335.4
1780.417	325.4
1784.787	314.4
1789.154	306.4
1793.516	293.4
1797.874	297.4
1802.228	298.4
1806.578	289.4
1810.924	286.4
1815.266	296.4
1819.603	284.4
1823.937	286.4
1828.266	280.4
1832.591	291.4
1836.913	296.4
1841.23	296.4
1845.543	294.4
1849.852	303.4
1854.156	310.4
1858.457	304.4
1862.754	303.4
1867.047	300.4
1871.335	301.4
1875.62	288.4
1879.9	302.4
1884.177	290.4
1888.449	287.4
1892.718	282.4
1896.982	280.4
1901.243	267.4
1905.499	261.4
1909.752	254.4
1914	260.4
1918.245	251.4
1922.485	238.4
1926.722	241.4
1930.954	236.4
1935.183	233.4
1939.408	238.4
1943.628	232.4
1947.845	231.4
1952.058	223.4
1956.267	220.4
1960.472	219.4
1964.673	212.4
1968.87	217.4
1973.063	223.4
1977.252	216.4
1981.438	221.4
1985.619	226.4
1989.797	218.4
1993.971	230.4
1998.14	229.4
2002.306	228.4
2006.469	229.4
2010.627	228.4
2014.781	224.4
2018.932	223.4
2023.078	235.4
2027.221	229.4
2031.36	223.4
2035.495	218.4
2039.627	213.4
2043.754	213.4
2047.878	210.4
2051.998	211.4
2056.114	213.4
2060.226	202.4
2064.334	207.4
2068.439	193.4
2072.54	202.4
2076.637	200.4
2080.73	208.4
2084.82	198.4
2088.906	190.4
2092.988	188.4
2097.066	187.4
2101.14	192.4
2105.211	182.4
2109.278	180.4
2113.342	174.4
2117.401	175.4
2121.457	166.4
2125.509	175.4
2129.558	176.4
2133.602	166.4
2137.643	174.4
2141.681	170.4
2145.714	182.4
2149.744	176.4
2153.77	179.4
2157.793	180.4
2161.812	183.4
2165.827	172.4
2169.838	174.4
2173.846	165.4
2177.851	165.4
2181.851	164.4
2185.848	157.4
2189.841	167.4
2193.831	160.4
2197.817	157.4
2201.799	159.4
2205.778	158.4
2209.753	163.4
2213.725	164.4
2217.693	166.4
2221.657	157.4
2225.618	150.4
2229.575	156.4
2233.529	156.4
2237.479	157.4
2241.425	142.4
2245.368	154.4
2249.307	150.4
2253.243	140.4
2257.175	139.4
2261.104	130.4
2265.029	144.4
2268.95	140.4
2272.868	142.4
2276.783	132.4
2280.694	127.4
2284.601	126.4
2288.505	129.4
2292.405	126.4
2296.302	139.4
2300.195	131.4
2304.085	122.4
2307.971	127.4
2311.854	120.4
2315.734	116.4
2319.609	121.4
2323.482	116.4
2327.351	126.4
2331.216	126.4
2335.078	144.4
2338.937	136.4
2342.792	121.4
2346.643	125.4
2350.492	123.4
2354.336	119.4
2358.178	124.4
2362.015	119.4
2365.85	119.4
2369.681	127.4
2373.508	135.4
2377.333	126.4
2381.153	119.4
2384.971	111.4
2388.785	114.4
2392.595	119.4
2396.402	117.4
2400.206	123.4
2404.007	112.4
2407.804	120.4
2411.597	110.4
2415.388	120.4
2419.174	124.4
2422.958	118.4
2426.738	115.4
2430.515	113.4
2434.289	118.4
2438.059	114.4
2441.825	108.4
2445.589	111.4
2449.349	99.4
2453.106	109.4
2456.859	110.4
2460.61	102.4
2464.356	106.4
2468.1	107.4
2471.84	97.4
2475.577	92.4
2479.311	102.4
2483.041	99.4
2486.768	93.4
2490.492	100.4
2494.213	98.4
2497.93	100.4
2501.644	88.4
2505.355	88.4
2509.062	93.4
2512.766	90.4
2516.467	88.4
2520.165	90.4
2523.859	89.4
2527.551	81.4
2531.239	82.4
2534.923	74.4
2538.605	75.4
2542.283	70.4
2545.958	78.4
2549.63	73.4
2553.299	74.4
2556.964	66.4
2560.626	73.4
2564.285	68.4
2567.941	63.4
2571.594	68.4
2575.243	75.4
2578.89	72.4
2582.533	67.4
2586.173	67.4
2589.809	66.4
2593.443	72.4
2597.073	65.4
2600.701	65.4
2604.325	55.4
2607.946	47.4
2611.564	64.4
2615.178	56.4
2618.79	60.4
2622.398	65.4
2626.004	55.4
2629.606	55.4
2633.205	55.4
2636.801	52.4
2640.394	61.4
2643.983	57.4
2647.57	52.4
2651.153	53.4
2654.734	57.4
2658.311	53.4
2661.885	57.4
2665.456	62.4
2669.025	52.4
2672.589	51.4
2676.151	49.4
2679.71	40.4
2683.266	41.4
2686.819	51.4
2690.368	54.4
2693.915	47.4
2697.458	41.4
2700.999	48.4
2704.536	49.4
2708.071	48.4
2711.602	39.4
2715.13	41.4
2718.656	33.4
2722.178	32.4
2725.697	35.4
2729.214	35.4
2732.727	35.4
2736.237	33.4
2739.744	27.4
2743.249	24.4
2746.75	28.4
2750.248	20.4
2753.743	27.4
2757.236	27.4
2760.725	29.4
2764.211	22.4
2767.695	19.4
2771.175	19.4
2774.652	23.4
2778.127	22.4
2781.598	24.4
2785.067	20.4
2788.532	18.4
2791.995	25.4
2795.455	23.4
2798.911	19.4
2802.365	23.4
2805.816	25.4
2809.264	20.4
2812.709	18.4
2816.151	24.4
2819.59	34.4
2823.026	23.4
2826.46	22.4
2829.89	23.4
2833.318	24.4
2836.742	30.4
2840.164	26.4
2843.583	29.4
2846.999	27.4
2850.412	22.4
2853.822	27.4
2857.229	33.4
2860.634	26.4
2864.035	27.4
2867.434	34.4
2870.83	35.4
2874.223	28.4
2877.613	31.4
2881	32.4
2884.385	38.4
2887.766	35.4
2891.145	30.4
2894.521	29.4
2897.894	36.4
2901.264	40.4
2904.631	35.4
2907.996	34.4
2911.358	41.4
2914.717	36.4
2918.073	41.4
2921.426	29.4
2924.777	47.4
2928.124	43.4
2931.469	43.4
2934.811	56.4
2938.15	54.4
2941.487	60.4
2944.821	54.4
2948.152	53.4
2951.48	44.4
2954.805	55.4
2958.128	48.4
2961.447	55.4
2964.765	48.4
2968.079	43.4
2971.39	49.4
2974.699	42.4
2978.005	49.4
2981.308	50.4
2984.609	44.4
2987.907	49.4
2991.202	47.4
2994.494	44.4
2997.784	42.4
3001.07	42.4
3004.355	45.4
3007.636	53.4
3010.915	49.4
3014.191	44.4
3017.464	55.4
3020.734	52.4
3024.002	56.4
3027.267	58.4
3030.53	62.4
3033.789	68.4
3037.046	59.4
3040.301	67.4
3043.552	65.4
3046.801	72.4
3050.048	72.4
3053.291	75.4
3056.532	75.4
3059.771	78.4
3063.006	80.4
3066.239	79.4
3069.469	83.4
3072.697	90.4
3075.922	102.4
3079.144	95.4
3082.364	93.4
3085.581	95.4
3088.795	108.4
3092.007	107.4
3095.216	116.4
3098.423	111.4
3101.627	111.4
3104.828	122.4
3108.026	116.4
3111.222	115.4
3114.416	117.4
3117.607	128.4
3120.795	133.4
3123.98	133.4
3127.163	142.4
3130.344	138.4
3133.521	139.4
3136.696	146.4
3139.869	154.4
3143.039	152.4
3146.206	150.4
3149.371	157.4
3152.533	164.4
3155.693	169.4
3158.85	158.4
3162.005	167.4
3165.157	163.4
3168.306	159.4
3171.453	160.4
3174.597	160.4
3177.739	167.4
3180.878	172.4
3184.014	156.4
3187.149	166.4
3190.28	164.4
3193.409	163.4
3196.536	170.4
3199.659	175.4
3202.781	173.4
3205.9	171.4
3209.016	169.4
3212.13	168.4
3215.241	168.4
3218.35	156.4
3221.456	172.4
3224.56	165.4
3227.661	161.4
3230.76	152.4
3233.856	153.4
3236.95	141.4
3240.041	140.4
3243.13	145.4
3246.216	128.4
3249.3	129.4
3252.382	133.4
3255.46	136.4
3258.537	130.4
3261.611	133.4
3264.682	131.4
3267.751	131.4
3270.818	121.4
3273.882	127.4
3276.943	125.4
3280.002	126.4
3283.059	128.4
3286.113	112.4
3289.165	119.4
3292.214	121.4
3295.261	120.4
3298.306	116.4
3301.348	118.4
3304.387	114.4
3307.425	112.4
3310.459	111.4
3313.492	114.4
3316.521	118.4
3319.549	114.4
3322.574	115.4
3325.597	109.4
3328.617	113.4
3331.635	119.4
3334.65	118.4
3337.663	98.4
3340.674	117.4
3343.682	106.4
3346.688	110.4
3349.691	113.4
3352.692	102.4
3355.691	109.4
3358.687	108.4
3361.681	105.4
3364.673	116.4
3367.662	102.4
3370.649	110.4
3373.633	107.4
3376.615	91.4
3379.595	96.4
3382.572	98.4
3385.547	106.4
3388.52	95.4
3391.49	82.4
3394.458	87.4
3397.424	90.4
3400.387	80.4
3403.348	77.4
3406.307	76.4
3409.263	84.4
3412.217	78.4
3415.168	87.4
3418.118	77.4
3421.065	75.4
3424.009	71.4
3426.951	67.4
3429.891	76.4
3432.829	66.4
3435.764	75.4
3438.697	64.4
3441.628	53.4
3444.557	54.4
3447.483	55.4
3450.407	41.4
3453.328	45.4
3456.247	48.4
3459.164	40.4
3462.079	33.4
3464.991	36.4
3467.902	43.4
3470.809	36.4
3473.715	31.4
3476.618	25.4
3479.519	26.4
3482.418	19.4
3485.315	25.4
3488.209	19.4
3491.101	14.4
3493.99	17.4
3496.878	7.4
3499.763	6.4
3502.646	5.4
3505.527	2.4
3508.405	2.4
3511.281	5.4
3514.155	4.4
3517.027	-7.6
3519.897	-3.6
3522.764	-1.6
3525.629	-1.6
3528.492	-3.6
3531.352	-8.6
3534.211	-12.6
3537.067	-12.6
3539.921	-14.6
3542.773	-20.6
3545.622	-23.6
3548.469	-18.6
3551.315	-17.6
3554.157	-23.6
3556.998	-22.6
3559.837	-24.6
3562.673	-21.6
3565.507	-26.6
3568.339	-16.6
3571.169	-23.6
3573.996	-22.6
3576.822	-33.6
3579.645	-28.6
3582.466	-30.6
3585.285	-34.6
3588.101	-33.6
3590.916	-28.6
3593.728	-38.6
3596.538	-40.6
3599.346	-47.6
3602.152	-37.6
3604.956	-31.6
3607.757	-33.6
3610.556	-32.6
3613.354	-43.6
3616.149	-40.6
3618.942	-36.6
3621.732	-40.6
3624.521	-36.6
3627.307	-38.6
3630.092	-41.6
3632.874	-42.6
3635.654	-42.6
3638.432	-40.6
3641.208	-42.6
3643.982	-38.6
3646.753	-48.6
3649.523	-43.6
3652.29	-51.6
3655.055	-48.6
3657.818	-48.6
3660.579	-48.6
3663.338	-43.6
3666.095	-45.6
3668.849	-44.6
3671.602	-43.6
3674.352	-44.6
3677.101	-42.6
3679.847	-46.6
3682.591	-53.6
3685.333	-45.6
3688.073	-53.6
3690.811	-50.6
3693.547	-49.6
3696.281	-50.6
3699.013	-51.6
3701.742	-52.6
3704.47	-43.6
3707.195	-54.6
3709.919	-52.6
3712.64	-50.6
3715.359	-46.6
3718.076	-51.6
3720.792	-53.6
3723.505	-51.6
3726.216	-45.6
3728.925	-49.6
3731.632	-51.6
3734.336	-53.6
3737.039	-49.6
3739.74	-53.6
3742.439	-61.6
3745.136	-55.6
3747.83	-55.6
3750.523	-57.6
3753.213	-58.6
3755.902	-56.6
3758.589	-53.6
3761.273	-50.6
3763.956	-54.6
3766.636	-51.6
3769.315	-47.6
3771.991	-53.6
3774.665	-54.6
3777.338	-51.6
3780.008	-50.6
3782.677	-55.6
3785.343	-54.6
3788.007	-52.6
3790.67	-58.6
3793.33	-56.6
3795.989	-58.6
3798.645	-57.6
3801.299	-54.6
3803.952	-59.6
3806.602	-53.6
3809.251	-55.6
3811.897	-57.6
3814.542	-60.6
3817.184	-56.6
3819.825	-54.6
3822.463	-55.6
3825.1	-52.6
3827.735	-61.6
3830.367	-58.6
3832.998	-55.6
3835.627	-56.6
3838.253	-55.6
3840.878	-50.6
3843.501	-53.6
3846.122	-63.6
3848.741	-59.6
3851.358	-61.6
3853.973	-53.6
3856.586	-62.6
3859.197	-54.6
3861.806	-53.6
3864.414	-58.6
3867.019	-58.6
3869.622	-50.6
3872.224	-44.6
3874.823	-37.6
3877.421	-30.6
3880.016	-24.6
3882.61	-7.6
3885.202	-9.6
3887.792	-10.6
3890.38	-28.6
3892.966	-43.6
3895.55	-49.6
3898.132	-60.6
3900.713	-53.6
3903.291	-57.6
3905.868	-54.6
3908.442	-59.6
3911.015	-59.6
3913.586	-61.6
3916.155	-59.6
3918.722	-59.6
3921.287	-58.6
3923.85	-48.6
3926.411	-56.6
3928.971	-67.6
3931.528	-57.6
3934.084	-55.6
3936.638	-52.6
3939.19	-63.6
3941.74	-56.6
3944.288	-55.6
3946.834	-60.6
3949.378	-60.6
3951.921	-62.6
3954.462	-59.6
3957	-52.6
3959.537	-43.6
3962.072	-52.6
3964.606	-53.6
3967.137	-51.6
3969.667	-58.6
3972.194	-57.6
3974.72	-49.6
3977.244	-50.6
3979.766	-55.6
3982.286	-59.6
3984.805	-66.6
3987.321	-57.6
3989.836	-58.6
3992.349	-55.6
3994.86	-57.6
3997.369	-59.6
3999.877	-58.6
4002.382	-57.6
4004.886	-54.6
4007.388	-61.6
4009.888	-53.6
4012.386	-55.6
4014.883	-51.6
4017.377	-49.6
4019.87	-55.6
4022.361	-57.6
4024.85	-54.6
4027.338	-56.6
4029.823	-59.6
4032.307	-57.6
4034.789	-57.6
4037.269	-61.6
4039.747	-60.6
4042.224	-61.6
4044.699	-60.6
4047.172	-65.6
4049.643	-63.6
4052.112	-53.6
4054.58	-57.6
4057.046	-58.6
4059.51	-60.6
4061.972	-59.6
4064.432	-49.6
4066.891	-52.6
4069.348	-51.6
4071.803	-50.6
4074.256	-52.6
4076.708	-55.6
4079.158	-55.6
4081.606	-54.6
4084.052	-57.6
4086.497	-54.6
4088.939	-55.6
4091.38	-64.6
4093.819	-62.6
4096.257	-59.6
4098.693	-57.6
4101.127	-52.6
4103.559	-63.6
4105.989	6.4
4108.418	0.4
4110.845	1.4
4113.27	2.4
4115.694	10.4
4118.115	7.4
4120.535	-58.6
4122.954	-55.6
4125.37	-58.6
4127.785	-57.6
4130.198	-54.6
4132.609	-59.6
4135.019	-56.6
4137.427	-60.6
4139.833	-53.6
4142.237	-55.6
