Data from 2018-3-7_conc=3_n=9_RamanShift_05.txt Node
Date: Wed Mar 07 11:42:52 IST 2018
User: aro
Spectrometer: QEPB0276
Trigger mode: 0
Integration Time (sec): 3.000000E1
Scans to average: 1
Electric dark correction enabled: true
Nonlinearity correction enabled: false
Boxcar width: 0
XAxis mode: Raman Shifts
Number of Pixels in Spectrum: 1044
>>>>>Begin Spectral Data<<<<<
160.701	17.6
166.742	20.6
172.777	44.6
178.805	133.6
184.826	328.6
190.841	709.6
196.849	1144.6
202.85	1503.6
208.845	1641.6
214.833	1653.6
220.815	1616.6
226.789	1619.6
232.758	1638.6
238.719	1617.6
244.674	1608.6
250.623	1611.6
256.565	1578.6
262.5	1570.6
268.429	1535.6
274.351	1541.6
280.267	1541.6
286.176	1529.6
292.079	1543.6
297.975	1528.6
303.865	1538.6
309.748	1527.6
315.625	1521.6
321.495	1513.6
327.359	1521.6
333.217	1519.6
339.068	1544.6
344.912	1527.6
350.751	1543.6
356.583	1537.6
362.408	1537.6
368.227	1545.6
374.04	1564.6
379.847	1553.6
385.647	1566.6
391.44	1572.6
397.228	1568.6
403.009	1589.6
408.784	1596.6
414.553	1607.6
420.315	1597.6
426.071	1602.6
431.821	1592.6
437.565	1615.6
443.302	1590.6
449.033	1598.6
454.758	1586.6
460.477	1585.6
466.189	1555.6
471.896	1539.6
477.596	1542.6
483.29	1531.6
488.978	1532.6
494.66	1520.6
500.335	1508.6
506.005	1444.6
511.668	1392.6
517.325	1323.6
522.977	1283.6
528.622	1265.6
534.261	1233.6
539.894	1205.6
545.521	1198.6
551.141	1182.6
556.756	1172.6
562.365	1152.6
567.968	1142.6
573.565	1141.6
579.155	1140.6
584.74	1139.6
590.319	1132.6
595.892	1145.6
601.459	1123.6
607.02	1103.6
612.575	1110.6
618.124	1105.6
623.667	1084.6
629.204	1076.6
634.735	1062.6
640.261	1043.6
645.781	1035.6
651.294	1044.6
656.802	1047.6
662.304	1046.6
667.8	1032.6
673.29	1047.6
678.775	1017.6
684.254	1022.6
689.726	1031.6
695.193	1012.6
700.655	1005.6
706.11	1005.6
711.56	991.6
717.004	1000.6
722.442	975.6
727.874	982.6
733.301	978.6
738.722	981.6
744.137	971.6
749.547	967.6
754.951	974.6
760.349	969.6
765.741	984.6
771.128	984.6
776.509	988.6
781.885	1004.6
787.254	996.6
792.618	1006.6
797.977	994.6
803.33	984.6
808.677	972.6
814.019	972.6
819.355	981.6
824.686	950.6
830.011	948.6
835.33	955.6
840.644	938.6
845.952	949.6
851.255	918.6
856.552	929.6
861.844	922.6
867.13	913.6
872.41	906.6
877.686	902.6
882.955	913.6
888.219	899.6
893.478	881.6
898.731	871.6
903.979	864.6
909.221	852.6
914.458	850.6
919.69	846.6
924.916	837.6
930.136	835.6
935.351	854.6
940.561	855.6
945.766	854.6
950.965	846.6
956.158	833.6
961.347	829.6
966.529	819.6
971.707	813.6
976.879	795.6
982.046	780.6
987.208	788.6
992.364	785.6
997.515	797.6
1002.66	780.6
1007.801	794.6
1012.936	820.6
1018.066	823.6
1023.19	816.6
1028.309	805.6
1033.423	806.6
1038.532	811.6
1043.636	799.6
1048.734	797.6
1053.827	780.6
1058.915	769.6
1063.998	770.6
1069.075	767.6
1074.147	761.6
1079.214	774.6
1084.276	780.6
1089.333	767.6
1094.385	782.6
1099.431	767.6
1104.472	768.6
1109.509	760.6
1114.54	750.6
1119.565	756.6
1124.586	743.6
1129.602	730.6
1134.613	723.6
1139.618	710.6
1144.619	715.6
1149.614	714.6
1154.604	711.6
1159.589	725.6
1164.57	715.6
1169.545	704.6
1174.515	714.6
1179.48	714.6
1184.44	710.6
1189.395	710.6
1194.345	698.6
1199.29	686.6
1204.23	706.6
1209.165	696.6
1214.095	696.6
1219.021	686.6
1223.941	709.6
1228.856	713.6
1233.766	709.6
1238.672	719.6
1243.572	712.6
1248.467	709.6
1253.358	709.6
1258.244	688.6
1263.124	662.6
1268	658.6
1272.871	651.6
1277.737	655.6
1282.599	646.6
1287.455	653.6
1292.306	642.6
1297.153	644.6
1301.995	646.6
1306.832	661.6
1311.664	663.6
1316.491	668.6
1321.314	667.6
1326.132	654.6
1330.945	640.6
1335.753	625.6
1340.556	610.6
1345.354	611.6
1350.148	596.6
1354.937	580.6
1359.722	560.6
1364.501	562.6
1369.276	555.6
1374.046	544.6
1378.811	538.6
1383.572	540.6
1388.327	523.6
1393.079	541.6
1397.825	545.6
1402.567	537.6
1407.304	553.6
1412.036	542.6
1416.764	547.6
1421.487	554.6
1426.205	549.6
1430.919	540.6
1435.628	549.6
1440.333	560.6
1445.032	540.6
1449.727	574.6
1454.418	560.6
1459.104	555.6
1463.785	549.6
1468.462	537.6
1473.134	537.6
1477.802	509.6
1482.465	494.6
1487.123	485.6
1491.777	483.6
1496.426	464.6
1501.071	470.6
1505.711	470.6
1510.347	465.6
1514.978	455.6
1519.604	456.6
1524.226	448.6
1528.844	450.6
1533.457	443.6
1538.065	452.6
1542.669	443.6
1547.269	452.6
1551.864	449.6
1556.454	470.6
1561.041	476.6
1565.622	475.6
1570.199	476.6
1574.772	478.6
1579.34	486.6
1583.904	486.6
1588.464	504.6
1593.019	492.6
1597.569	485.6
1602.115	489.6
1606.657	482.6
1611.195	489.6
1615.728	486.6
1620.256	487.6
1624.78	494.6
1629.3	493.6
1633.816	488.6
1638.327	477.6
1642.834	474.6
1647.336	479.6
1651.834	481.6
1656.328	486.6
1660.817	485.6
1665.302	474.6
1669.783	468.6
1674.259	463.6
1678.732	447.6
1683.199	419.6
1687.663	411.6
1692.122	388.6
1696.577	383.6
1701.028	363.6
1705.474	341.6
1709.917	340.6
1714.355	324.6
1718.788	327.6
1723.218	337.6
1727.643	331.6
1732.064	323.6
1736.481	329.6
1740.893	315.6
1745.301	316.6
1749.705	301.6
1754.105	298.6
1758.501	292.6
1762.893	283.6
1767.28	275.6
1771.663	273.6
1776.042	284.6
1780.417	273.6
1784.787	272.6
1789.154	260.6
1793.516	253.6
1797.874	243.6
1802.228	256.6
1806.578	254.6
1810.924	245.6
1815.266	251.6
1819.603	243.6
1823.937	244.6
1828.266	244.6
1832.591	242.6
1836.913	240.6
1841.23	241.6
1845.543	243.6
1849.852	253.6
1854.156	250.6
1858.457	250.6
1862.754	258.6
1867.047	250.6
1871.335	245.6
1875.62	250.6
1879.9	247.6
1884.177	238.6
1888.449	236.6
1892.718	242.6
1896.982	238.6
1901.243	227.6
1905.499	226.6
1909.752	220.6
1914	215.6
1918.245	212.6
1922.485	205.6
1926.722	202.6
1930.954	193.6
1935.183	203.6
1939.408	212.6
1943.628	202.6
1947.845	205.6
1952.058	196.6
1956.267	198.6
1960.472	189.6
1964.673	187.6
1968.87	185.6
1973.063	188.6
1977.252	184.6
1981.438	182.6
1985.619	187.6
1989.797	190.6
1993.971	187.6
1998.14	188.6
2002.306	200.6
2006.469	193.6
2010.627	187.6
2014.781	192.6
2018.932	185.6
2023.078	182.6
2027.221	192.6
2031.36	183.6
2035.495	181.6
2039.627	187.6
2043.754	178.6
2047.878	181.6
2051.998	184.6
2056.114	169.6
2060.226	173.6
2064.334	170.6
2068.439	168.6
2072.54	173.6
2076.637	173.6
2080.73	161.6
2084.82	167.6
2088.906	158.6
2092.988	162.6
2097.066	161.6
2101.14	153.6
2105.211	157.6
2109.278	153.6
2113.342	151.6
2117.401	155.6
2121.457	149.6
2125.509	155.6
2129.558	147.6
2133.602	148.6
2137.643	154.6
2141.681	146.6
2145.714	143.6
2149.744	151.6
2153.77	155.6
2157.793	141.6
2161.812	146.6
2165.827	149.6
2169.838	136.6
2173.846	140.6
2177.851	144.6
2181.851	138.6
2185.848	136.6
2189.841	132.6
2193.831	137.6
2197.817	133.6
2201.799	128.6
2205.778	126.6
2209.753	132.6
2213.725	130.6
2217.693	129.6
2221.657	125.6
2225.618	129.6
2229.575	122.6
2233.529	114.6
2237.479	128.6
2241.425	124.6
2245.368	126.6
2249.307	124.6
2253.243	114.6
2257.175	118.6
2261.104	114.6
2265.029	113.6
2268.95	118.6
2272.868	110.6
2276.783	104.6
2280.694	100.6
2284.601	102.6
2288.505	106.6
2292.405	113.6
2296.302	104.6
2300.195	104.6
2304.085	99.6
2307.971	100.6
2311.854	98.6
2315.734	92.6
2319.609	102.6
2323.482	105.6
2327.351	104.6
2331.216	102.6
2335.078	117.6
2338.937	106.6
2342.792	102.6
2346.643	97.6
2350.492	100.6
2354.336	97.6
2358.178	86.6
2362.015	91.6
2365.85	96.6
2369.681	99.6
2373.508	100.6
2377.333	97.6
2381.153	100.6
2384.971	99.6
2388.785	95.6
2392.595	92.6
2396.402	101.6
2400.206	97.6
2404.007	92.6
2407.804	93.6
2411.597	94.6
2415.388	89.6
2419.174	93.6
2422.958	79.6
2426.738	88.6
2430.515	92.6
2434.289	88.6
2438.059	79.6
2441.825	84.6
2445.589	82.6
2449.349	81.6
2453.106	81.6
2456.859	77.6
2460.61	78.6
2464.356	81.6
2468.1	83.6
2471.84	75.6
2475.577	75.6
2479.311	73.6
2483.041	77.6
2486.768	67.6
2490.492	71.6
2494.213	72.6
2497.93	75.6
2501.644	70.6
2505.355	64.6
2509.062	68.6
2512.766	69.6
2516.467	69.6
2520.165	69.6
2523.859	67.6
2527.551	61.6
2531.239	65.6
2534.923	62.6
2538.605	57.6
2542.283	52.6
2545.958	53.6
2549.63	54.6
2553.299	56.6
2556.964	51.6
2560.626	57.6
2564.285	49.6
2567.941	47.6
2571.594	52.6
2575.243	56.6
2578.89	48.6
2582.533	49.6
2586.173	44.6
2589.809	56.6
2593.443	55.6
2597.073	55.6
2600.701	49.6
2604.325	44.6
2607.946	37.6
2611.564	47.6
2615.178	42.6
2618.79	39.6
2622.398	41.6
2626.004	39.6
2629.606	33.6
2633.205	36.6
2636.801	38.6
2640.394	43.6
2643.983	35.6
2647.57	38.6
2651.153	34.6
2654.734	39.6
2658.311	40.6
2661.885	42.6
2665.456	39.6
2669.025	34.6
2672.589	34.6
2676.151	31.6
2679.71	22.6
2683.266	28.6
2686.819	32.6
2690.368	31.6
2693.915	34.6
2697.458	28.6
2700.999	31.6
2704.536	29.6
2708.071	26.6
2711.602	31.6
2715.13	19.6
2718.656	32.6
2722.178	27.6
2725.697	24.6
2729.214	22.6
2732.727	29.6
2736.237	24.6
2739.744	22.6
2743.249	52.6
2746.75	271.6
2750.248	121.6
2753.743	24.6
2757.236	14.6
2760.725	15.6
2764.211	12.6
2767.695	16.6
2771.175	14.6
2774.652	12.6
2778.127	20.6
2781.598	14.6
2785.067	14.6
2788.532	17.6
2791.995	20.6
2795.455	18.6
2798.911	11.6
2802.365	16.6
2805.816	13.6
2809.264	19.6
2812.709	13.6
2816.151	13.6
2819.59	24.6
2823.026	13.6
2826.46	15.6
2829.89	12.6
2833.318	16.6
2836.742	23.6
2840.164	13.6
2843.583	21.6
2846.999	20.6
2850.412	17.6
2853.822	9.6
2857.229	21.6
2860.634	17.6
2864.035	17.6
2867.434	19.6
2870.83	18.6
2874.223	22.6
2877.613	23.6
2881	20.6
2884.385	27.6
2887.766	30.6
2891.145	23.6
2894.521	25.6
2897.894	29.6
2901.264	30.6
2904.631	18.6
2907.996	27.6
2911.358	33.6
2914.717	27.6
2918.073	29.6
2921.426	30.6
2924.777	28.6
2928.124	30.6
2931.469	35.6
2934.811	31.6
2938.15	38.6
2941.487	41.6
2944.821	40.6
2948.152	42.6
2951.48	40.6
2954.805	40.6
2958.128	38.6
2961.447	37.6
2964.765	33.6
2968.079	37.6
2971.39	34.6
2974.699	31.6
2978.005	37.6
2981.308	32.6
2984.609	33.6
2987.907	31.6
2991.202	36.6
2994.494	31.6
2997.784	28.6
3001.07	35.6
3004.355	34.6
3007.636	38.6
3010.915	41.6
3014.191	36.6
3017.464	40.6
3020.734	48.6
3024.002	49.6
3027.267	52.6
3030.53	43.6
3033.789	41.6
3037.046	41.6
3040.301	41.6
3043.552	48.6
3046.801	51.6
3050.048	51.6
3053.291	51.6
3056.532	56.6
3059.771	56.6
3063.006	63.6
3066.239	68.6
3069.469	75.6
3072.697	71.6
3075.922	75.6
3079.144	65.6
3082.364	77.6
3085.581	83.6
3088.795	79.6
3092.007	78.6
3095.216	83.6
3098.423	86.6
3101.627	82.6
3104.828	89.6
3108.026	93.6
3111.222	99.6
3114.416	96.6
3117.607	98.6
3120.795	102.6
3123.98	100.6
3127.163	115.6
3130.344	110.6
3133.521	117.6
3136.696	118.6
3139.869	118.6
3143.039	122.6
3146.206	119.6
3149.371	119.6
3152.533	132.6
3155.693	127.6
3158.85	128.6
3162.005	131.6
3165.157	129.6
3168.306	129.6
3171.453	132.6
3174.597	134.6
3177.739	140.6
3180.878	130.6
3184.014	137.6
3187.149	134.6
3190.28	129.6
3193.409	134.6
3196.536	132.6
3199.659	141.6
3202.781	136.6
3205.9	131.6
3209.016	127.6
3212.13	134.6
3215.241	139.6
3218.35	133.6
3221.456	134.6
3224.56	125.6
3227.661	121.6
3230.76	123.6
3233.856	122.6
3236.95	119.6
3240.041	116.6
3243.13	120.6
3246.216	111.6
3249.3	107.6
3252.382	111.6
3255.46	114.6
3258.537	108.6
3261.611	105.6
3264.682	106.6
3267.751	112.6
3270.818	92.6
3273.882	106.6
3276.943	95.6
3280.002	97.6
3283.059	101.6
3286.113	84.6
3289.165	99.6
3292.214	90.6
3295.261	97.6
3298.306	88.6
3301.348	92.6
3304.387	87.6
3307.425	92.6
3310.459	94.6
3313.492	88.6
3316.521	86.6
3319.549	96.6
3322.574	88.6
3325.597	90.6
3328.617	82.6
3331.635	89.6
3334.65	93.6
3337.663	83.6
3340.674	85.6
3343.682	86.6
3346.688	82.6
3349.691	82.6
3352.692	88.6
3355.691	99.6
3358.687	84.6
3361.681	86.6
3364.673	87.6
3367.662	90.6
3370.649	82.6
3373.633	82.6
3376.615	78.6
3379.595	79.6
3382.572	67.6
3385.547	74.6
3388.52	65.6
3391.49	61.6
3394.458	63.6
3397.424	70.6
3400.387	71.6
3403.348	63.6
3406.307	61.6
3409.263	55.6
3412.217	62.6
3415.168	68.6
3418.118	60.6
3421.065	57.6
3424.009	56.6
3426.951	44.6
3429.891	54.6
3432.829	53.6
3435.764	55.6
3438.697	50.6
3441.628	39.6
3444.557	42.6
3447.483	41.6
3450.407	31.6
3453.328	38.6
3456.247	32.6
3459.164	35.6
3462.079	24.6
3464.991	28.6
3467.902	31.6
3470.809	24.6
3473.715	22.6
3476.618	21.6
3479.519	10.6
3482.418	12.6
3485.315	13.6
3488.209	2.6
3491.101	3.6
3493.99	15.6
3496.878	4.6
3499.763	0.6
3502.646	-0.4
3505.527	9.6
3508.405	1.6
3511.281	3.6
3514.155	-2.4
3517.027	-10.4
3519.897	0.6
3522.764	-8.4
3525.629	-8.4
3528.492	-12.4
3531.352	-18.4
3534.211	-19.4
3537.067	-17.4
3539.921	-16.4
3542.773	-22.4
3545.622	-16.4
3548.469	-17.4
3551.315	-21.4
3554.157	-19.4
3556.998	-20.4
3559.837	-24.4
3562.673	-20.4
3565.507	-24.4
3568.339	-22.4
3571.169	-25.4
3573.996	-20.4
3576.822	-33.4
3579.645	-31.4
3582.466	-25.4
3585.285	-31.4
3588.101	-31.4
3590.916	-33.4
3593.728	-34.4
3596.538	-31.4
3599.346	-33.4
3602.152	-31.4
3604.956	-28.4
3607.757	-31.4
3610.556	-35.4
3613.354	-44.4
3616.149	-37.4
3618.942	-35.4
3621.732	-43.4
3624.521	-37.4
3627.307	-38.4
3630.092	-41.4
3632.874	-36.4
3635.654	-36.4
3638.432	-36.4
3641.208	-36.4
3643.982	-36.4
3646.753	-42.4
3649.523	-36.4
3652.29	-42.4
3655.055	-39.4
3657.818	-45.4
3660.579	-44.4
3663.338	-39.4
3666.095	-44.4
3668.849	-43.4
3671.602	-43.4
3674.352	-45.4
3677.101	-47.4
3679.847	-41.4
3682.591	-45.4
3685.333	-38.4
3688.073	-49.4
3690.811	-43.4
3693.547	-44.4
3696.281	-46.4
3699.013	-48.4
3701.742	-44.4
3704.47	-42.4
3707.195	-48.4
3709.919	-51.4
3712.64	-47.4
3715.359	-49.4
3718.076	-49.4
3720.792	-44.4
3723.505	-54.4
3726.216	-47.4
3728.925	-52.4
3731.632	-45.4
3734.336	-55.4
3737.039	-46.4
3739.74	-50.4
3742.439	-51.4
3745.136	-47.4
3747.83	-49.4
3750.523	-51.4
3753.213	-52.4
3755.902	-52.4
3758.589	-51.4
3761.273	-51.4
3763.956	-55.4
3766.636	-50.4
3769.315	-47.4
3771.991	-49.4
3774.665	-52.4
3777.338	-50.4
3780.008	-49.4
3782.677	-54.4
3785.343	-49.4
3788.007	-50.4
3790.67	-53.4
3793.33	-53.4
3795.989	-51.4
3798.645	-56.4
3801.299	-50.4
3803.952	-51.4
3806.602	-55.4
3809.251	-52.4
3811.897	-54.4
3814.542	-56.4
3817.184	-56.4
3819.825	-49.4
3822.463	-50.4
3825.1	-50.4
3827.735	-57.4
3830.367	-53.4
3832.998	-52.4
3835.627	-50.4
3838.253	-48.4
3840.878	-45.4
3843.501	-42.4
3846.122	-56.4
3848.741	-48.4
3851.358	-49.4
3853.973	-50.4
3856.586	-49.4
3859.197	-51.4
3861.806	-55.4
3864.414	-52.4
3867.019	-50.4
3869.622	-49.4
3872.224	-38.4
3874.823	-30.4
3877.421	-25.4
3880.016	-14.4
3882.61	0.6
3885.202	1.6
3887.792	-5.4
3890.38	-21.4
3892.966	-37.4
3895.55	-44.4
3898.132	-45.4
3900.713	-51.4
3903.291	-55.4
3905.868	-51.4
3908.442	-51.4
3911.015	-45.4
3913.586	-57.4
3916.155	-52.4
3918.722	-52.4
3921.287	-47.4
3923.85	-45.4
3926.411	-48.4
3928.971	-62.4
3931.528	-55.4
3934.084	-50.4
3936.638	-50.4
3939.19	-57.4
3941.74	-52.4
3944.288	-49.4
3946.834	-49.4
3949.378	-56.4
3951.921	-58.4
3954.462	-54.4
3957	-49.4
3959.537	-43.4
3962.072	-42.4
3964.606	-47.4
3967.137	-49.4
3969.667	-49.4
3972.194	-53.4
3974.72	-51.4
3977.244	-43.4
3979.766	-53.4
3982.286	-53.4
3984.805	-60.4
3987.321	-47.4
3989.836	-46.4
3992.349	-52.4
3994.86	-48.4
3997.369	-53.4
3999.877	-51.4
4002.382	-50.4
4004.886	-50.4
4007.388	-52.4
4009.888	-49.4
4012.386	-52.4
4014.883	-50.4
4017.377	-50.4
4019.87	-57.4
4022.361	-57.4
4024.85	-46.4
4027.338	-53.4
4029.823	-53.4
4032.307	-57.4
4034.789	-48.4
4037.269	-50.4
4039.747	-52.4
4042.224	-51.4
4044.699	-56.4
4047.172	-55.4
4049.643	-54.4
4052.112	-48.4
4054.58	-49.4
4057.046	-43.4
4059.51	-53.4
4061.972	-53.4
4064.432	-47.4
4066.891	-48.4
4069.348	-47.4
4071.803	-46.4
4074.256	-46.4
4076.708	-53.4
4079.158	-62.4
4081.606	-50.4
4084.052	-51.4
4086.497	-48.4
4088.939	-51.4
4091.38	-54.4
4093.819	-54.4
4096.257	-56.4
4098.693	-53.4
4101.127	-49.4
4103.559	-59.4
4105.989	20.6
4108.418	7.6
4110.845	14.6
4113.27	14.6
4115.694	15.6
4118.115	15.6
4120.535	-49.4
4122.954	-49.4
4125.37	-48.4
4127.785	-43.4
4130.198	-47.4
4132.609	-52.4
4135.019	-52.4
4137.427	-58.4
4139.833	-51.4
4142.237	-54.4
