Data from 2018-3-7_conc=4_n=3_RamanShift_02.txt Node
Date: Wed Mar 07 11:55:22 IST 2018
User: aro
Spectrometer: QEPB0276
Trigger mode: 0
Integration Time (sec): 3.000000E1
Scans to average: 1
Electric dark correction enabled: true
Nonlinearity correction enabled: false
Boxcar width: 0
XAxis mode: Raman Shifts
Number of Pixels in Spectrum: 1044
>>>>>Begin Spectral Data<<<<<
160.701	18.9
166.742	24.9
172.777	44.9
178.805	136.9
184.826	349.9
190.841	717.9
196.849	1188.9
202.85	1567.9
208.845	1702.9
214.833	1711.9
220.815	1667.9
226.789	1692.9
232.758	1675.9
238.719	1676.9
244.674	1667.9
250.623	1663.9
256.565	1644.9
262.5	1603.9
268.429	1590.9
274.351	1598.9
280.267	1573.9
286.176	1561.9
292.079	1574.9
297.975	1580.9
303.865	1567.9
309.748	1548.9
315.625	1551.9
321.495	1557.9
327.359	1552.9
333.217	1580.9
339.068	1574.9
344.912	1552.9
350.751	1565.9
356.583	1575.9
362.408	1579.9
368.227	1593.9
374.04	1599.9
379.847	1603.9
385.647	1613.9
391.44	1621.9
397.228	1633.9
403.009	1625.9
408.784	1643.9
414.553	1649.9
420.315	1653.9
426.071	1648.9
431.821	1642.9
437.565	1647.9
443.302	1657.9
449.033	1639.9
454.758	1637.9
460.477	1623.9
466.189	1596.9
471.896	1600.9
477.596	1580.9
483.29	1573.9
488.978	1582.9
494.66	1561.9
500.335	1530.9
506.005	1473.9
511.668	1417.9
517.325	1359.9
522.977	1314.9
528.622	1277.9
534.261	1251.9
539.894	1223.9
545.521	1228.9
551.141	1195.9
556.756	1191.9
562.365	1203.9
567.968	1182.9
573.565	1180.9
579.155	1151.9
584.74	1161.9
590.319	1134.9
595.892	1162.9
601.459	1150.9
607.02	1150.9
612.575	1126.9
618.124	1118.9
623.667	1099.9
629.204	1107.9
634.735	1098.9
640.261	1080.9
645.781	1064.9
651.294	1070.9
656.802	1055.9
662.304	1053.9
667.8	1053.9
673.29	1065.9
678.775	1056.9
684.254	1052.9
689.726	1038.9
695.193	1041.9
700.655	1025.9
706.11	1006.9
711.56	1024.9
717.004	1015.9
722.442	1004.9
727.874	976.9
733.301	1004.9
738.722	987.9
744.137	991.9
749.547	984.9
754.951	985.9
760.349	983.9
765.741	993.9
771.128	1003.9
776.509	999.9
781.885	1022.9
787.254	1038.9
792.618	1021.9
797.977	1015.9
803.33	1022.9
808.677	1001.9
814.019	1006.9
819.355	980.9
824.686	982.9
830.011	963.9
835.33	968.9
840.644	971.9
845.952	972.9
851.255	951.9
856.552	960.9
861.844	942.9
867.13	929.9
872.41	938.9
877.686	924.9
882.955	911.9
888.219	922.9
893.478	909.9
898.731	900.9
903.979	876.9
909.221	864.9
914.458	853.9
919.69	862.9
924.916	866.9
930.136	854.9
935.351	875.9
940.561	864.9
945.766	869.9
950.965	869.9
956.158	871.9
961.347	845.9
966.529	847.9
971.707	829.9
976.879	810.9
982.046	797.9
987.208	795.9
992.364	797.9
997.515	807.9
1002.66	789.9
1007.801	823.9
1012.936	814.9
1018.066	820.9
1023.19	837.9
1028.309	816.9
1033.423	809.9
1038.532	801.9
1043.636	812.9
1048.734	807.9
1053.827	799.9
1058.915	790.9
1063.998	786.9
1069.075	772.9
1074.147	775.9
1079.214	777.9
1084.276	789.9
1089.333	784.9
1094.385	796.9
1099.431	775.9
1104.472	775.9
1109.509	770.9
1114.54	762.9
1119.565	751.9
1124.586	741.9
1129.602	718.9
1134.613	732.9
1139.618	714.9
1144.619	723.9
1149.614	723.9
1154.604	727.9
1159.589	732.9
1164.57	738.9
1169.545	721.9
1174.515	735.9
1179.48	737.9
1184.44	727.9
1189.395	728.9
1194.345	706.9
1199.29	705.9
1204.23	717.9
1209.165	704.9
1214.095	705.9
1219.021	718.9
1223.941	718.9
1228.856	726.9
1233.766	729.9
1238.672	725.9
1243.572	712.9
1248.467	723.9
1253.358	719.9
1258.244	708.9
1263.124	693.9
1268	677.9
1272.871	663.9
1277.737	660.9
1282.599	657.9
1287.455	665.9
1292.306	656.9
1297.153	661.9
1301.995	658.9
1306.832	659.9
1311.664	679.9
1316.491	677.9
1321.314	678.9
1326.132	660.9
1330.945	657.9
1335.753	641.9
1340.556	624.9
1345.354	608.9
1350.148	588.9
1354.937	603.9
1359.722	580.9
1364.501	566.9
1369.276	556.9
1374.046	552.9
1378.811	551.9
1383.572	549.9
1388.327	534.9
1393.079	536.9
1397.825	545.9
1402.567	544.9
1407.304	556.9
1412.036	545.9
1416.764	553.9
1421.487	556.9
1426.205	554.9
1430.919	549.9
1435.628	554.9
1440.333	573.9
1445.032	555.9
1449.727	577.9
1454.418	580.9
1459.104	568.9
1463.785	556.9
1468.462	552.9
1473.134	531.9
1477.802	521.9
1482.465	508.9
1487.123	499.9
1491.777	495.9
1496.426	492.9
1501.071	485.9
1505.711	474.9
1510.347	467.9
1514.978	463.9
1519.604	462.9
1524.226	465.9
1528.844	461.9
1533.457	458.9
1538.065	456.9
1542.669	452.9
1547.269	446.9
1551.864	457.9
1556.454	465.9
1561.041	471.9
1565.622	481.9
1570.199	480.9
1574.772	486.9
1579.34	499.9
1583.904	499.9
1588.464	508.9
1593.019	511.9
1597.569	506.9
1602.115	502.9
1606.657	509.9
1611.195	507.9
1615.728	503.9
1620.256	492.9
1624.78	495.9
1629.3	502.9
1633.816	496.9
1638.327	513.9
1642.834	490.9
1647.336	491.9
1651.834	492.9
1656.328	489.9
1660.817	494.9
1665.302	487.9
1669.783	479.9
1674.259	474.9
1678.732	457.9
1683.199	438.9
1687.663	425.9
1692.122	394.9
1696.577	394.9
1701.028	379.9
1705.474	337.9
1709.917	345.9
1714.355	326.9
1718.788	327.9
1723.218	328.9
1727.643	338.9
1732.064	334.9
1736.481	339.9
1740.893	317.9
1745.301	325.9
1749.705	316.9
1754.105	301.9
1758.501	293.9
1762.893	286.9
1767.28	282.9
1771.663	280.9
1776.042	279.9
1780.417	271.9
1784.787	263.9
1789.154	259.9
1793.516	260.9
1797.874	248.9
1802.228	253.9
1806.578	251.9
1810.924	243.9
1815.266	246.9
1819.603	247.9
1823.937	247.9
1828.266	241.9
1832.591	257.9
1836.913	237.9
1841.23	252.9
1845.543	245.9
1849.852	250.9
1854.156	255.9
1858.457	251.9
1862.754	254.9
1867.047	255.9
1871.335	248.9
1875.62	258.9
1879.9	248.9
1884.177	237.9
1888.449	242.9
1892.718	251.9
1896.982	238.9
1901.243	226.9
1905.499	225.9
1909.752	221.9
1914	218.9
1918.245	212.9
1922.485	206.9
1926.722	206.9
1930.954	201.9
1935.183	211.9
1939.408	208.9
1943.628	207.9
1947.845	204.9
1952.058	204.9
1956.267	200.9
1960.472	204.9
1964.673	194.9
1968.87	190.9
1973.063	190.9
1977.252	196.9
1981.438	185.9
1985.619	191.9
1989.797	182.9
1993.971	182.9
1998.14	185.9
2002.306	189.9
2006.469	196.9
2010.627	191.9
2014.781	194.9
2018.932	195.9
2023.078	199.9
2027.221	193.9
2031.36	190.9
2035.495	181.9
2039.627	166.9
2043.754	176.9
2047.878	178.9
2051.998	177.9
2056.114	177.9
2060.226	172.9
2064.334	165.9
2068.439	167.9
2072.54	166.9
2076.637	176.9
2080.73	176.9
2084.82	167.9
2088.906	166.9
2092.988	162.9
2097.066	165.9
2101.14	158.9
2105.211	158.9
2109.278	156.9
2113.342	144.9
2117.401	152.9
2121.457	155.9
2125.509	155.9
2129.558	145.9
2133.602	143.9
2137.643	144.9
2141.681	145.9
2145.714	148.9
2149.744	150.9
2153.77	156.9
2157.793	154.9
2161.812	149.9
2165.827	149.9
2169.838	141.9
2173.846	143.9
2177.851	142.9
2181.851	138.9
2185.848	132.9
2189.841	137.9
2193.831	135.9
2197.817	139.9
2201.799	122.9
2205.778	135.9
2209.753	135.9
2213.725	126.9
2217.693	134.9
2221.657	126.9
2225.618	126.9
2229.575	119.9
2233.529	124.9
2237.479	130.9
2241.425	123.9
2245.368	124.9
2249.307	123.9
2253.243	119.9
2257.175	117.9
2261.104	113.9
2265.029	112.9
2268.95	113.9
2272.868	110.9
2276.783	109.9
2280.694	101.9
2284.601	103.9
2288.505	103.9
2292.405	108.9
2296.302	111.9
2300.195	101.9
2304.085	97.9
2307.971	102.9
2311.854	97.9
2315.734	90.9
2319.609	101.9
2323.482	93.9
2327.351	102.9
2331.216	105.9
2335.078	114.9
2338.937	102.9
2342.792	96.9
2346.643	95.9
2350.492	103.9
2354.336	97.9
2358.178	87.9
2362.015	91.9
2365.85	93.9
2369.681	97.9
2373.508	104.9
2377.333	98.9
2381.153	92.9
2384.971	82.9
2388.785	94.9
2392.595	82.9
2396.402	102.9
2400.206	94.9
2404.007	85.9
2407.804	86.9
2411.597	87.9
2415.388	83.9
2419.174	89.9
2422.958	83.9
2426.738	88.9
2430.515	87.9
2434.289	95.9
2438.059	86.9
2441.825	82.9
2445.589	87.9
2449.349	78.9
2453.106	86.9
2456.859	76.9
2460.61	83.9
2464.356	82.9
2468.1	79.9
2471.84	74.9
2475.577	66.9
2479.311	70.9
2483.041	76.9
2486.768	68.9
2490.492	71.9
2494.213	68.9
2497.93	69.9
2501.644	77.9
2505.355	68.9
2509.062	67.9
2512.766	61.9
2516.467	62.9
2520.165	69.9
2523.859	69.9
2527.551	65.9
2531.239	62.9
2534.923	59.9
2538.605	55.9
2542.283	51.9
2545.958	54.9
2549.63	55.9
2553.299	56.9
2556.964	46.9
2560.626	52.9
2564.285	53.9
2567.941	47.9
2571.594	45.9
2575.243	53.9
2578.89	53.9
2582.533	47.9
2586.173	45.9
2589.809	48.9
2593.443	54.9
2597.073	48.9
2600.701	49.9
2604.325	42.9
2607.946	34.9
2611.564	41.9
2615.178	41.9
2618.79	42.9
2622.398	46.9
2626.004	36.9
2629.606	37.9
2633.205	38.9
2636.801	39.9
2640.394	40.9
2643.983	40.9
2647.57	37.9
2651.153	35.9
2654.734	35.9
2658.311	40.9
2661.885	38.9
2665.456	40.9
2669.025	41.9
2672.589	38.9
2676.151	31.9
2679.71	23.9
2683.266	24.9
2686.819	37.9
2690.368	32.9
2693.915	30.9
2697.458	21.9
2700.999	31.9
2704.536	34.9
2708.071	29.9
2711.602	26.9
2715.13	17.9
2718.656	26.9
2722.178	26.9
2725.697	22.9
2729.214	19.9
2732.727	22.9
2736.237	27.9
2739.744	17.9
2743.249	21.9
2746.75	16.9
2750.248	10.9
2753.743	18.9
2757.236	11.9
2760.725	18.9
2764.211	18.9
2767.695	8.9
2771.175	12.9
2774.652	11.9
2778.127	16.9
2781.598	15.9
2785.067	21.9
2788.532	15.9
2791.995	10.9
2795.455	10.9
2798.911	15.9
2802.365	12.9
2805.816	8.9
2809.264	13.9
2812.709	4.9
2816.151	17.9
2819.59	24.9
2823.026	14.9
2826.46	17.9
2829.89	14.9
2833.318	12.9
2836.742	15.9
2840.164	13.9
2843.583	17.9
2846.999	16.9
2850.412	16.9
2853.822	20.9
2857.229	17.9
2860.634	16.9
2864.035	16.9
2867.434	12.9
2870.83	20.9
2874.223	24.9
2877.613	20.9
2881	18.9
2884.385	22.9
2887.766	31.9
2891.145	23.9
2894.521	24.9
2897.894	22.9
2901.264	26.9
2904.631	24.9
2907.996	23.9
2911.358	35.9
2914.717	29.9
2918.073	29.9
2921.426	30.9
2924.777	36.9
2928.124	39.9
2931.469	42.9
2934.811	45.9
2938.15	39.9
2941.487	51.9
2944.821	40.9
2948.152	44.9
2951.48	41.9
2954.805	45.9
2958.128	42.9
2961.447	39.9
2964.765	32.9
2968.079	35.9
2971.39	32.9
2974.699	34.9
2978.005	41.9
2981.308	34.9
2984.609	32.9
2987.907	34.9
2991.202	35.9
2994.494	31.9
2997.784	32.9
3001.07	32.9
3004.355	35.9
3007.636	41.9
3010.915	39.9
3014.191	34.9
3017.464	40.9
3020.734	48.9
3024.002	48.9
3027.267	43.9
3030.53	51.9
3033.789	45.9
3037.046	49.9
3040.301	47.9
3043.552	51.9
3046.801	54.9
3050.048	47.9
3053.291	50.9
3056.532	60.9
3059.771	66.9
3063.006	69.9
3066.239	72.9
3069.469	83.9
3072.697	77.9
3075.922	85.9
3079.144	78.9
3082.364	86.9
3085.581	90.9
3088.795	91.9
3092.007	89.9
3095.216	94.9
3098.423	98.9
3101.627	88.9
3104.828	95.9
3108.026	98.9
3111.222	102.9
3114.416	105.9
3117.607	106.9
3120.795	106.9
3123.98	116.9
3127.163	119.9
3130.344	117.9
3133.521	127.9
3136.696	120.9
3139.869	137.9
3143.039	129.9
3146.206	137.9
3149.371	133.9
3152.533	138.9
3155.693	140.9
3158.85	139.9
3162.005	144.9
3165.157	141.9
3168.306	137.9
3171.453	138.9
3174.597	139.9
3177.739	146.9
3180.878	151.9
3184.014	140.9
3187.149	141.9
3190.28	142.9
3193.409	145.9
3196.536	143.9
3199.659	150.9
3202.781	151.9
3205.9	148.9
3209.016	144.9
3212.13	140.9
3215.241	148.9
3218.35	140.9
3221.456	152.9
3224.56	134.9
3227.661	135.9
3230.76	128.9
3233.856	131.9
3236.95	125.9
3240.041	123.9
3243.13	134.9
3246.216	122.9
3249.3	124.9
3252.382	120.9
3255.46	124.9
3258.537	121.9
3261.611	112.9
3264.682	108.9
3267.751	114.9
3270.818	108.9
3273.882	114.9
3276.943	106.9
3280.002	119.9
3283.059	109.9
3286.113	103.9
3289.165	106.9
3292.214	109.9
3295.261	113.9
3298.306	102.9
3301.348	101.9
3304.387	104.9
3307.425	100.9
3310.459	95.9
3313.492	96.9
3316.521	96.9
3319.549	102.9
3322.574	90.9
3325.597	98.9
3328.617	86.9
3331.635	101.9
3334.65	107.9
3337.663	91.9
3340.674	95.9
3343.682	99.9
3346.688	92.9
3349.691	98.9
3352.692	95.9
3355.691	91.9
3358.687	93.9
3361.681	87.9
3364.673	85.9
3367.662	90.9
3370.649	91.9
3373.633	81.9
3376.615	87.9
3379.595	79.9
3382.572	75.9
3385.547	83.9
3388.52	75.9
3391.49	78.9
3394.458	75.9
3397.424	74.9
3400.387	81.9
3403.348	63.9
3406.307	58.9
3409.263	74.9
3412.217	61.9
3415.168	69.9
3418.118	66.9
3421.065	56.9
3424.009	60.9
3426.951	56.9
3429.891	60.9
3432.829	53.9
3435.764	60.9
3438.697	59.9
3441.628	45.9
3444.557	44.9
3447.483	49.9
3450.407	39.9
3453.328	48.9
3456.247	36.9
3459.164	36.9
3462.079	21.9
3464.991	28.9
3467.902	23.9
3470.809	22.9
3473.715	17.9
3476.618	25.9
3479.519	13.9
3482.418	17.9
3485.315	18.9
3488.209	12.9
3491.101	10.9
3493.99	20.9
3496.878	8.9
3499.763	3.9
3502.646	2.9
3505.527	-0.1
3508.405	2.9
3511.281	-1.1
3514.155	-3.1
3517.027	-12.1
3519.897	-4.1
3522.764	-10.1
3525.629	-11.1
3528.492	-9.1
3531.352	-10.1
3534.211	-18.1
3537.067	-21.1
3539.921	-9.1
3542.773	-19.1
3545.622	-19.1
3548.469	-16.1
3551.315	-17.1
3554.157	-24.1
3556.998	-18.1
3559.837	-31.1
3562.673	-27.1
3565.507	-24.1
3568.339	-23.1
3571.169	-31.1
3573.996	-26.1
3576.822	-34.1
3579.645	-32.1
3582.466	-27.1
3585.285	-31.1
3588.101	-30.1
3590.916	-22.1
3593.728	-34.1
3596.538	-37.1
3599.346	-37.1
3602.152	-36.1
3604.956	-38.1
3607.757	-36.1
3610.556	-35.1
3613.354	-37.1
3616.149	-41.1
3618.942	-39.1
3621.732	-42.1
3624.521	-39.1
3627.307	-40.1
3630.092	-45.1
3632.874	-42.1
3635.654	-42.1
3638.432	-36.1
3641.208	-37.1
3643.982	-37.1
3646.753	-47.1
3649.523	-39.1
3652.29	-45.1
3655.055	-43.1
3657.818	-47.1
3660.579	-47.1
3663.338	-48.1
3666.095	-52.1
3668.849	-48.1
3671.602	-52.1
3674.352	-47.1
3677.101	-45.1
3679.847	-44.1
3682.591	-46.1
3685.333	-43.1
3688.073	-53.1
3690.811	-46.1
3693.547	-52.1
3696.281	-48.1
3699.013	-47.1
3701.742	-54.1
3704.47	-42.1
3707.195	-50.1
3709.919	-55.1
3712.64	-48.1
3715.359	-53.1
3718.076	-58.1
3720.792	-52.1
3723.505	-52.1
3726.216	-45.1
3728.925	-53.1
3731.632	-53.1
3734.336	-52.1
3737.039	-49.1
3739.74	-50.1
3742.439	-51.1
3745.136	-52.1
3747.83	-49.1
3750.523	-54.1
3753.213	-56.1
3755.902	-54.1
3758.589	-56.1
3761.273	-51.1
3763.956	-53.1
3766.636	-48.1
3769.315	-47.1
3771.991	-56.1
3774.665	-59.1
3777.338	-56.1
3780.008	-51.1
3782.677	-59.1
3785.343	-57.1
3788.007	-57.1
3790.67	-52.1
3793.33	-47.1
3795.989	-56.1
3798.645	-54.1
3801.299	-55.1
3803.952	-51.1
3806.602	-58.1
3809.251	-53.1
3811.897	-60.1
3814.542	-60.1
3817.184	-56.1
3819.825	-52.1
3822.463	-53.1
3825.1	-51.1
3827.735	-53.1
3830.367	-50.1
3832.998	-55.1
3835.627	-55.1
3838.253	-47.1
3840.878	-46.1
3843.501	-49.1
3846.122	-59.1
3848.741	-61.1
3851.358	-55.1
3853.973	-52.1
3856.586	-49.1
3859.197	-60.1
3861.806	-58.1
3864.414	-60.1
3867.019	-56.1
3869.622	-49.1
3872.224	-40.1
3874.823	-36.1
3877.421	-31.1
3880.016	-17.1
3882.61	-3.1
3885.202	-2.1
3887.792	-7.1
3890.38	-22.1
3892.966	-40.1
3895.55	-55.1
3898.132	-48.1
3900.713	-55.1
3903.291	-59.1
3905.868	-53.1
3908.442	-56.1
3911.015	-54.1
3913.586	-64.1
3916.155	-60.1
3918.722	-62.1
3921.287	-56.1
3923.85	-50.1
3926.411	-56.1
3928.971	-67.1
3931.528	-52.1
3934.084	-53.1
3936.638	-49.1
3939.19	-58.1
3941.74	-52.1
3944.288	-55.1
3946.834	-53.1
3949.378	-54.1
3951.921	-61.1
3954.462	-58.1
3957	-50.1
3959.537	-48.1
3962.072	-53.1
3964.606	-56.1
3967.137	-54.1
3969.667	-56.1
3972.194	-55.1
3974.72	-46.1
3977.244	-49.1
3979.766	-59.1
3982.286	-59.1
3984.805	-63.1
3987.321	-52.1
3989.836	-49.1
3992.349	-58.1
3994.86	-60.1
3997.369	-57.1
3999.877	-58.1
4002.382	-62.1
4004.886	-53.1
4007.388	-60.1
4009.888	-55.1
4012.386	-59.1
4014.883	-57.1
4017.377	-49.1
4019.87	-53.1
4022.361	-54.1
4024.85	-53.1
4027.338	-56.1
4029.823	-50.1
4032.307	-55.1
4034.789	-51.1
4037.269	-59.1
4039.747	-57.1
4042.224	-56.1
4044.699	-58.1
4047.172	-62.1
4049.643	-55.1
4052.112	-61.1
4054.58	-55.1
4057.046	-48.1
4059.51	-54.1
4061.972	-58.1
4064.432	-53.1
4066.891	-52.1
4069.348	-49.1
4071.803	-48.1
4074.256	-51.1
4076.708	-52.1
4079.158	-57.1
4081.606	-53.1
4084.052	-54.1
4086.497	-53.1
4088.939	-56.1
4091.38	-55.1
4093.819	-58.1
4096.257	-57.1
4098.693	-58.1
4101.127	-53.1
4103.559	-63.1
4105.989	28.9
4108.418	12.9
4110.845	13.9
4113.27	8.9
4115.694	13.9
4118.115	10.9
4120.535	-58.1
4122.954	-54.1
4125.37	-55.1
4127.785	-53.1
4130.198	-53.1
4132.609	-56.1
4135.019	-55.1
4137.427	-57.1
4139.833	-58.1
4142.237	-55.1
