Data from 2018-3-7_conc=2_n=5_RamanShift_04.txt Node
Date: Wed Mar 07 10:52:52 IST 2018
User: aro
Spectrometer: QEPB0276
Trigger mode: 0
Integration Time (sec): 3.000000E1
Scans to average: 1
Electric dark correction enabled: true
Nonlinearity correction enabled: false
Boxcar width: 0
XAxis mode: Raman Shifts
Number of Pixels in Spectrum: 1044
>>>>>Begin Spectral Data<<<<<
160.701	11.9
166.742	20.9
172.777	47.9
178.805	133.9
184.826	350.9
190.841	732.9
196.849	1208.9
202.85	1559.9
208.845	1714.9
214.833	1722.9
220.815	1699.9
226.789	1703.9
232.758	1712.9
238.719	1713.9
244.674	1688.9
250.623	1695.9
256.565	1694.9
262.5	1674.9
268.429	1651.9
274.351	1662.9
280.267	1633.9
286.176	1658.9
292.079	1648.9
297.975	1642.9
303.865	1647.9
309.748	1660.9
315.625	1660.9
321.495	1646.9
327.359	1658.9
333.217	1672.9
339.068	1673.9
344.912	1681.9
350.751	1692.9
356.583	1691.9
362.408	1704.9
368.227	1698.9
374.04	1720.9
379.847	1714.9
385.647	1720.9
391.44	1738.9
397.228	1716.9
403.009	1763.9
408.784	1762.9
414.553	1776.9
420.315	1759.9
426.071	1757.9
431.821	1749.9
437.565	1772.9
443.302	1751.9
449.033	1773.9
454.758	1754.9
460.477	1734.9
466.189	1718.9
471.896	1700.9
477.596	1689.9
483.29	1679.9
488.978	1687.9
494.66	1654.9
500.335	1635.9
506.005	1561.9
511.668	1497.9
517.325	1425.9
522.977	1366.9
528.622	1335.9
534.261	1299.9
539.894	1291.9
545.521	1260.9
551.141	1260.9
556.756	1223.9
562.365	1220.9
567.968	1213.9
573.565	1215.9
579.155	1177.9
584.74	1186.9
590.319	1196.9
595.892	1194.9
601.459	1189.9
607.02	1188.9
612.575	1177.9
618.124	1170.9
623.667	1149.9
629.204	1133.9
634.735	1122.9
640.261	1110.9
645.781	1098.9
651.294	1089.9
656.802	1090.9
662.304	1092.9
667.8	1099.9
673.29	1075.9
678.775	1077.9
684.254	1076.9
689.726	1064.9
695.193	1057.9
700.655	1064.9
706.11	1042.9
711.56	1040.9
717.004	1028.9
722.442	1027.9
727.874	1016.9
733.301	1015.9
738.722	1020.9
744.137	1015.9
749.547	1023.9
754.951	1021.9
760.349	1026.9
765.741	1012.9
771.128	1018.9
776.509	1044.9
781.885	1048.9
787.254	1059.9
792.618	1063.9
797.977	1057.9
803.33	1056.9
808.677	1037.9
814.019	1044.9
819.355	1018.9
824.686	1021.9
830.011	1007.9
835.33	1009.9
840.644	995.9
845.952	985.9
851.255	982.9
856.552	997.9
861.844	975.9
867.13	956.9
872.41	954.9
877.686	953.9
882.955	959.9
888.219	945.9
893.478	930.9
898.731	904.9
903.979	900.9
909.221	889.9
914.458	876.9
919.69	878.9
924.916	881.9
930.136	884.9
935.351	899.9
940.561	884.9
945.766	874.9
950.965	874.9
956.158	874.9
961.347	860.9
966.529	855.9
971.707	829.9
976.879	820.9
982.046	824.9
987.208	828.9
992.364	801.9
997.515	828.9
1002.66	811.9
1007.801	835.9
1012.936	839.9
1018.066	845.9
1023.19	852.9
1028.309	848.9
1033.423	841.9
1038.532	840.9
1043.636	848.9
1048.734	832.9
1053.827	816.9
1058.915	811.9
1063.998	813.9
1069.075	795.9
1074.147	812.9
1079.214	793.9
1084.276	800.9
1089.333	817.9
1094.385	816.9
1099.431	812.9
1104.472	814.9
1109.509	797.9
1114.54	781.9
1119.565	788.9
1124.586	768.9
1129.602	746.9
1134.613	753.9
1139.618	742.9
1144.619	743.9
1149.614	744.9
1154.604	746.9
1159.589	746.9
1164.57	754.9
1169.545	757.9
1174.515	755.9
1179.48	757.9
1184.44	747.9
1189.395	746.9
1194.345	731.9
1199.29	724.9
1204.23	732.9
1209.165	718.9
1214.095	729.9
1219.021	729.9
1223.941	733.9
1228.856	740.9
1233.766	735.9
1238.672	742.9
1243.572	732.9
1248.467	744.9
1253.358	715.9
1258.244	716.9
1263.124	695.9
1268	692.9
1272.871	678.9
1277.737	665.9
1282.599	665.9
1287.455	684.9
1292.306	680.9
1297.153	678.9
1301.995	689.9
1306.832	689.9
1311.664	692.9
1316.491	684.9
1321.314	666.9
1326.132	672.9
1330.945	666.9
1335.753	660.9
1340.556	640.9
1345.354	622.9
1350.148	621.9
1354.937	611.9
1359.722	580.9
1364.501	572.9
1369.276	569.9
1374.046	556.9
1378.811	546.9
1383.572	557.9
1388.327	556.9
1393.079	549.9
1397.825	563.9
1402.567	568.9
1407.304	565.9
1412.036	575.9
1416.764	559.9
1421.487	563.9
1426.205	564.9
1430.919	557.9
1435.628	568.9
1440.333	584.9
1445.032	572.9
1449.727	583.9
1454.418	588.9
1459.104	581.9
1463.785	573.9
1468.462	557.9
1473.134	537.9
1477.802	537.9
1482.465	507.9
1487.123	500.9
1491.777	485.9
1496.426	489.9
1501.071	498.9
1505.711	479.9
1510.347	475.9
1514.978	474.9
1519.604	469.9
1524.226	466.9
1528.844	466.9
1533.457	468.9
1538.065	463.9
1542.669	460.9
1547.269	459.9
1551.864	459.9
1556.454	482.9
1561.041	483.9
1565.622	480.9
1570.199	477.9
1574.772	483.9
1579.34	495.9
1583.904	500.9
1588.464	516.9
1593.019	514.9
1597.569	500.9
1602.115	510.9
1606.657	500.9
1611.195	489.9
1615.728	500.9
1620.256	495.9
1624.78	503.9
1629.3	493.9
1633.816	495.9
1638.327	499.9
1642.834	502.9
1647.336	486.9
1651.834	497.9
1656.328	487.9
1660.817	500.9
1665.302	471.9
1669.783	474.9
1674.259	466.9
1678.732	448.9
1683.199	425.9
1687.663	423.9
1692.122	410.9
1696.577	382.9
1701.028	370.9
1705.474	350.9
1709.917	352.9
1714.355	348.9
1718.788	329.9
1723.218	339.9
1727.643	337.9
1732.064	343.9
1736.481	336.9
1740.893	324.9
1745.301	330.9
1749.705	327.9
1754.105	315.9
1758.501	287.9
1762.893	294.9
1767.28	290.9
1771.663	290.9
1776.042	280.9
1780.417	282.9
1784.787	269.9
1789.154	260.9
1793.516	258.9
1797.874	257.9
1802.228	269.9
1806.578	264.9
1810.924	256.9
1815.266	253.9
1819.603	263.9
1823.937	257.9
1828.266	248.9
1832.591	253.9
1836.913	256.9
1841.23	248.9
1845.543	255.9
1849.852	253.9
1854.156	266.9
1858.457	265.9
1862.754	261.9
1867.047	259.9
1871.335	258.9
1875.62	255.9
1879.9	256.9
1884.177	246.9
1888.449	241.9
1892.718	245.9
1896.982	240.9
1901.243	225.9
1905.499	228.9
1909.752	222.9
1914	223.9
1918.245	214.9
1922.485	223.9
1926.722	206.9
1930.954	207.9
1935.183	220.9
1939.408	209.9
1943.628	209.9
1947.845	211.9
1952.058	208.9
1956.267	201.9
1960.472	202.9
1964.673	192.9
1968.87	191.9
1973.063	197.9
1977.252	206.9
1981.438	196.9
1985.619	196.9
1989.797	193.9
1993.971	195.9
1998.14	199.9
2002.306	191.9
2006.469	207.9
2010.627	196.9
2014.781	197.9
2018.932	197.9
2023.078	196.9
2027.221	201.9
2031.36	200.9
2035.495	190.9
2039.627	181.9
2043.754	191.9
2047.878	181.9
2051.998	182.9
2056.114	175.9
2060.226	169.9
2064.334	177.9
2068.439	174.9
2072.54	176.9
2076.637	177.9
2080.73	175.9
2084.82	178.9
2088.906	171.9
2092.988	169.9
2097.066	156.9
2101.14	168.9
2105.211	169.9
2109.278	148.9
2113.342	147.9
2117.401	154.9
2121.457	151.9
2125.509	158.9
2129.558	154.9
2133.602	158.9
2137.643	158.9
2141.681	148.9
2145.714	152.9
2149.744	145.9
2153.77	155.9
2157.793	155.9
2161.812	158.9
2165.827	153.9
2169.838	147.9
2173.846	143.9
2177.851	139.9
2181.851	139.9
2185.848	145.9
2189.841	145.9
2193.831	142.9
2197.817	138.9
2201.799	135.9
2205.778	133.9
2209.753	136.9
2213.725	136.9
2217.693	136.9
2221.657	132.9
2225.618	132.9
2229.575	124.9
2233.529	125.9
2237.479	139.9
2241.425	131.9
2245.368	129.9
2249.307	131.9
2253.243	122.9
2257.175	120.9
2261.104	121.9
2265.029	114.9
2268.95	118.9
2272.868	118.9
2276.783	112.9
2280.694	114.9
2284.601	107.9
2288.505	118.9
2292.405	118.9
2296.302	113.9
2300.195	103.9
2304.085	111.9
2307.971	102.9
2311.854	99.9
2315.734	101.9
2319.609	105.9
2323.482	105.9
2327.351	107.9
2331.216	121.9
2335.078	129.9
2338.937	119.9
2342.792	107.9
2346.643	103.9
2350.492	104.9
2354.336	100.9
2358.178	98.9
2362.015	101.9
2365.85	105.9
2369.681	107.9
2373.508	108.9
2377.333	108.9
2381.153	101.9
2384.971	100.9
2388.785	91.9
2392.595	98.9
2396.402	101.9
2400.206	92.9
2404.007	97.9
2407.804	92.9
2411.597	97.9
2415.388	94.9
2419.174	101.9
2422.958	98.9
2426.738	96.9
2430.515	97.9
2434.289	92.9
2438.059	96.9
2441.825	87.9
2445.589	86.9
2449.349	91.9
2453.106	95.9
2456.859	90.9
2460.61	85.9
2464.356	90.9
2468.1	87.9
2471.84	79.9
2475.577	81.9
2479.311	80.9
2483.041	79.9
2486.768	81.9
2490.492	76.9
2494.213	72.9
2497.93	76.9
2501.644	76.9
2505.355	68.9
2509.062	73.9
2512.766	70.9
2516.467	66.9
2520.165	65.9
2523.859	73.9
2527.551	70.9
2531.239	62.9
2534.923	66.9
2538.605	65.9
2542.283	59.9
2545.958	63.9
2549.63	60.9
2553.299	60.9
2556.964	52.9
2560.626	55.9
2564.285	61.9
2567.941	58.9
2571.594	56.9
2575.243	51.9
2578.89	53.9
2582.533	50.9
2586.173	51.9
2589.809	54.9
2593.443	58.9
2597.073	50.9
2600.701	47.9
2604.325	50.9
2607.946	36.9
2611.564	48.9
2615.178	44.9
2618.79	49.9
2622.398	46.9
2626.004	51.9
2629.606	41.9
2633.205	48.9
2636.801	44.9
2640.394	51.9
2643.983	48.9
2647.57	45.9
2651.153	37.9
2654.734	39.9
2658.311	39.9
2661.885	39.9
2665.456	44.9
2669.025	33.9
2672.589	36.9
2676.151	38.9
2679.71	33.9
2683.266	41.9
2686.819	46.9
2690.368	37.9
2693.915	36.9
2697.458	32.9
2700.999	39.9
2704.536	35.9
2708.071	28.9
2711.602	24.9
2715.13	29.9
2718.656	30.9
2722.178	32.9
2725.697	35.9
2729.214	29.9
2732.727	39.9
2736.237	30.9
2739.744	24.9
2743.249	20.9
2746.75	25.9
2750.248	23.9
2753.743	17.9
2757.236	19.9
2760.725	21.9
2764.211	17.9
2767.695	13.9
2771.175	18.9
2774.652	17.9
2778.127	14.9
2781.598	14.9
2785.067	13.9
2788.532	13.9
2791.995	22.9
2795.455	18.9
2798.911	13.9
2802.365	21.9
2805.816	17.9
2809.264	24.9
2812.709	21.9
2816.151	19.9
2819.59	29.9
2823.026	14.9
2826.46	18.9
2829.89	15.9
2833.318	10.9
2836.742	22.9
2840.164	19.9
2843.583	18.9
2846.999	28.9
2850.412	25.9
2853.822	20.9
2857.229	25.9
2860.634	19.9
2864.035	23.9
2867.434	21.9
2870.83	28.9
2874.223	22.9
2877.613	23.9
2881	25.9
2884.385	37.9
2887.766	32.9
2891.145	30.9
2894.521	36.9
2897.894	29.9
2901.264	29.9
2904.631	24.9
2907.996	32.9
2911.358	37.9
2914.717	26.9
2918.073	34.9
2921.426	35.9
2924.777	35.9
2928.124	35.9
2931.469	39.9
2934.811	46.9
2938.15	53.9
2941.487	52.9
2944.821	45.9
2948.152	44.9
2951.48	42.9
2954.805	38.9
2958.128	38.9
2961.447	39.9
2964.765	39.9
2968.079	35.9
2971.39	39.9
2974.699	35.9
2978.005	49.9
2981.308	36.9
2984.609	34.9
2987.907	40.9
2991.202	40.9
2994.494	37.9
2997.784	35.9
3001.07	40.9
3004.355	35.9
3007.636	42.9
3010.915	43.9
3014.191	34.9
3017.464	47.9
3020.734	50.9
3024.002	43.9
3027.267	49.9
3030.53	48.9
3033.789	47.9
3037.046	45.9
3040.301	39.9
3043.552	52.9
3046.801	52.9
3050.048	52.9
3053.291	58.9
3056.532	60.9
3059.771	59.9
3063.006	63.9
3066.239	63.9
3069.469	71.9
3072.697	66.9
3075.922	74.9
3079.144	68.9
3082.364	77.9
3085.581	76.9
3088.795	86.9
3092.007	82.9
3095.216	88.9
3098.423	84.9
3101.627	90.9
3104.828	96.9
3108.026	96.9
3111.222	99.9
3114.416	99.9
3117.607	90.9
3120.795	97.9
3123.98	95.9
3127.163	118.9
3130.344	111.9
3133.521	115.9
3136.696	122.9
3139.869	116.9
3143.039	124.9
3146.206	125.9
3149.371	118.9
3152.533	128.9
3155.693	132.9
3158.85	127.9
3162.005	124.9
3165.157	126.9
3168.306	126.9
3171.453	132.9
3174.597	131.9
3177.739	136.9
3180.878	136.9
3184.014	129.9
3187.149	128.9
3190.28	133.9
3193.409	133.9
3196.536	129.9
3199.659	125.9
3202.781	133.9
3205.9	132.9
3209.016	134.9
3212.13	131.9
3215.241	133.9
3218.35	134.9
3221.456	134.9
3224.56	126.9
3227.661	127.9
3230.76	122.9
3233.856	118.9
3236.95	116.9
3240.041	112.9
3243.13	120.9
3246.216	111.9
3249.3	109.9
3252.382	113.9
3255.46	114.9
3258.537	107.9
3261.611	98.9
3264.682	103.9
3267.751	103.9
3270.818	97.9
3273.882	99.9
3276.943	99.9
3280.002	96.9
3283.059	102.9
3286.113	94.9
3289.165	98.9
3292.214	91.9
3295.261	94.9
3298.306	89.9
3301.348	98.9
3304.387	92.9
3307.425	87.9
3310.459	83.9
3313.492	89.9
3316.521	83.9
3319.549	84.9
3322.574	82.9
3325.597	89.9
3328.617	86.9
3331.635	92.9
3334.65	90.9
3337.663	80.9
3340.674	89.9
3343.682	89.9
3346.688	79.9
3349.691	89.9
3352.692	85.9
3355.691	96.9
3358.687	86.9
3361.681	81.9
3364.673	83.9
3367.662	83.9
3370.649	82.9
3373.633	78.9
3376.615	81.9
3379.595	76.9
3382.572	77.9
3385.547	73.9
3388.52	70.9
3391.49	68.9
3394.458	58.9
3397.424	62.9
3400.387	67.9
3403.348	61.9
3406.307	55.9
3409.263	69.9
3412.217	59.9
3415.168	60.9
3418.118	51.9
3421.065	58.9
3424.009	59.9
3426.951	53.9
3429.891	49.9
3432.829	52.9
3435.764	47.9
3438.697	44.9
3441.628	37.9
3444.557	51.9
3447.483	40.9
3450.407	33.9
3453.328	40.9
3456.247	38.9
3459.164	28.9
3462.079	22.9
3464.991	24.9
3467.902	21.9
3470.809	19.9
3473.715	19.9
3476.618	17.9
3479.519	14.9
3482.418	11.9
3485.315	17.9
3488.209	4.9
3491.101	7.9
3493.99	13.9
3496.878	9.9
3499.763	-5.1
3502.646	-1.1
3505.527	0.9
3508.405	0.9
3511.281	-4.1
3514.155	-3.1
3517.027	-8.1
3519.897	-4.1
3522.764	-7.1
3525.629	-9.1
3528.492	-10.1
3531.352	-18.1
3534.211	-13.1
3537.067	-19.1
3539.921	-16.1
3542.773	-23.1
3545.622	-19.1
3548.469	-16.1
3551.315	-17.1
3554.157	-22.1
3556.998	-21.1
3559.837	-25.1
3562.673	-23.1
3565.507	-26.1
3568.339	-22.1
3571.169	-24.1
3573.996	-23.1
3576.822	-36.1
3579.645	-27.1
3582.466	-27.1
3585.285	-21.1
3588.101	-31.1
3590.916	-29.1
3593.728	-30.1
3596.538	-35.1
3599.346	-31.1
3602.152	-36.1
3604.956	-32.1
3607.757	-27.1
3610.556	-34.1
3613.354	-42.1
3616.149	-41.1
3618.942	-32.1
3621.732	-38.1
3624.521	-36.1
3627.307	-33.1
3630.092	-38.1
3632.874	-40.1
3635.654	-38.1
3638.432	-38.1
3641.208	-42.1
3643.982	-37.1
3646.753	-41.1
3649.523	-35.1
3652.29	-41.1
3655.055	-34.1
3657.818	-42.1
3660.579	-40.1
3663.338	-38.1
3666.095	-44.1
3668.849	-44.1
3671.602	-42.1
3674.352	-39.1
3677.101	-45.1
3679.847	-43.1
3682.591	-40.1
3685.333	-40.1
3688.073	-46.1
3690.811	-45.1
3693.547	-43.1
3696.281	-39.1
3699.013	-45.1
3701.742	-49.1
3704.47	-43.1
3707.195	-45.1
3709.919	-50.1
3712.64	-44.1
3715.359	-46.1
3718.076	-47.1
3720.792	-42.1
3723.505	-44.1
3726.216	-46.1
3728.925	-51.1
3731.632	-44.1
3734.336	-51.1
3737.039	-47.1
3739.74	-50.1
3742.439	-53.1
3745.136	-49.1
3747.83	-46.1
3750.523	-49.1
3753.213	-56.1
3755.902	-47.1
3758.589	-50.1
3761.273	-45.1
3763.956	-48.1
3766.636	-50.1
3769.315	-49.1
3771.991	-47.1
3774.665	-54.1
3777.338	-51.1
3780.008	-47.1
3782.677	-55.1
3785.343	-48.1
3788.007	-45.1
3790.67	-49.1
3793.33	-46.1
3795.989	-54.1
3798.645	-54.1
3801.299	-54.1
3803.952	-53.1
3806.602	-52.1
3809.251	-52.1
3811.897	-51.1
3814.542	-51.1
3817.184	-47.1
3819.825	-45.1
3822.463	-46.1
3825.1	-46.1
3827.735	-56.1
3830.367	-53.1
3832.998	-55.1
3835.627	-53.1
3838.253	-47.1
3840.878	-39.1
3843.501	-47.1
3846.122	-53.1
3848.741	-52.1
3851.358	-48.1
3853.973	-46.1
3856.586	-46.1
3859.197	-51.1
3861.806	-54.1
3864.414	-54.1
3867.019	-53.1
3869.622	-48.1
3872.224	-38.1
3874.823	-31.1
3877.421	-30.1
3880.016	-15.1
3882.61	-1.1
3885.202	-3.1
3887.792	-11.1
3890.38	-21.1
3892.966	-37.1
3895.55	-45.1
3898.132	-52.1
3900.713	-53.1
3903.291	-54.1
3905.868	-46.1
3908.442	-48.1
3911.015	-50.1
3913.586	-51.1
3916.155	-48.1
3918.722	-54.1
3921.287	-55.1
3923.85	-48.1
3926.411	-54.1
3928.971	-61.1
3931.528	-52.1
3934.084	-51.1
3936.638	-51.1
3939.19	-54.1
3941.74	-43.1
3944.288	-48.1
3946.834	-50.1
3949.378	-54.1
3951.921	-50.1
3954.462	-56.1
3957	-44.1
3959.537	-42.1
3962.072	-43.1
3964.606	-47.1
3967.137	-47.1
3969.667	-47.1
3972.194	-49.1
3974.72	-45.1
3977.244	-44.1
3979.766	-54.1
3982.286	-53.1
3984.805	-57.1
3987.321	-51.1
3989.836	-48.1
3992.349	-50.1
3994.86	-55.1
3997.369	-50.1
3999.877	-50.1
4002.382	-51.1
4004.886	-52.1
4007.388	-53.1
4009.888	-54.1
4012.386	-48.1
4014.883	-47.1
4017.377	-44.1
4019.87	-47.1
4022.361	-52.1
4024.85	-46.1
4027.338	-45.1
4029.823	-50.1
4032.307	-50.1
4034.789	-49.1
4037.269	-47.1
4039.747	-47.1
4042.224	-49.1
4044.699	-52.1
4047.172	-57.1
4049.643	-56.1
4052.112	-49.1
4054.58	-47.1
4057.046	-44.1
4059.51	-54.1
4061.972	-54.1
4064.432	-49.1
4066.891	-46.1
4069.348	-53.1
4071.803	-49.1
4074.256	-46.1
4076.708	-49.1
4079.158	-55.1
4081.606	-51.1
4084.052	-51.1
4086.497	-42.1
4088.939	-45.1
4091.38	-55.1
4093.819	-54.1
4096.257	-51.1
4098.693	-52.1
4101.127	-46.1
4103.559	-54.1
4105.989	16.9
4108.418	10.9
4110.845	7.9
4113.27	14.9
4115.694	17.9
4118.115	13.9
4120.535	-52.1
4122.954	-49.1
4125.37	-47.1
4127.785	-44.1
4130.198	-50.1
4132.609	-55.1
4135.019	-54.1
4137.427	-56.1
4139.833	-53.1
4142.237	-51.1
