Data from 2018-3-7_conc=3_n=5_RamanShift_02.txt Node
Date: Wed Mar 07 11:28:22 IST 2018
User: aro
Spectrometer: QEPB0276
Trigger mode: 0
Integration Time (sec): 3.000000E1
Scans to average: 1
Electric dark correction enabled: true
Nonlinearity correction enabled: false
Boxcar width: 0
XAxis mode: Raman Shifts
Number of Pixels in Spectrum: 1044
>>>>>Begin Spectral Data<<<<<
160.701	19.4
166.742	20.4
172.777	56.4
178.805	138.4
184.826	344.4
190.841	745.4
196.849	1214.4
202.85	1588.4
208.845	1725.4
214.833	1744.4
220.815	1717.4
226.789	1736.4
232.758	1716.4
238.719	1727.4
244.674	1731.4
250.623	1716.4
256.565	1698.4
262.5	1668.4
268.429	1668.4
274.351	1637.4
280.267	1653.4
286.176	1656.4
292.079	1643.4
297.975	1640.4
303.865	1638.4
309.748	1632.4
315.625	1651.4
321.495	1648.4
327.359	1651.4
333.217	1635.4
339.068	1653.4
344.912	1659.4
350.751	1658.4
356.583	1689.4
362.408	1659.4
368.227	1661.4
374.04	1682.4
379.847	1681.4
385.647	1692.4
391.44	1702.4
397.228	1700.4
403.009	1716.4
408.784	1720.4
414.553	1733.4
420.315	1738.4
426.071	1735.4
431.821	1731.4
437.565	1739.4
443.302	1723.4
449.033	1744.4
454.758	1714.4
460.477	1709.4
466.189	1706.4
471.896	1672.4
477.596	1675.4
483.29	1650.4
488.978	1662.4
494.66	1667.4
500.335	1621.4
506.005	1557.4
511.668	1497.4
517.325	1429.4
522.977	1372.4
528.622	1350.4
534.261	1335.4
539.894	1311.4
545.521	1302.4
551.141	1284.4
556.756	1245.4
562.365	1242.4
567.968	1244.4
573.565	1230.4
579.155	1223.4
584.74	1233.4
590.319	1225.4
595.892	1221.4
601.459	1209.4
607.02	1206.4
612.575	1201.4
618.124	1176.4
623.667	1160.4
629.204	1153.4
634.735	1135.4
640.261	1127.4
645.781	1123.4
651.294	1136.4
656.802	1137.4
662.304	1122.4
667.8	1127.4
673.29	1102.4
678.775	1094.4
684.254	1115.4
689.726	1114.4
695.193	1094.4
700.655	1091.4
706.11	1086.4
711.56	1069.4
717.004	1064.4
722.442	1045.4
727.874	1044.4
733.301	1058.4
738.722	1048.4
744.137	1057.4
749.547	1049.4
754.951	1038.4
760.349	1053.4
765.741	1058.4
771.128	1037.4
776.509	1076.4
781.885	1074.4
787.254	1079.4
792.618	1084.4
797.977	1072.4
803.33	1063.4
808.677	1064.4
814.019	1060.4
819.355	1042.4
824.686	1041.4
830.011	1023.4
835.33	1030.4
840.644	1025.4
845.952	1042.4
851.255	1008.4
856.552	1017.4
861.844	995.4
867.13	980.4
872.41	983.4
877.686	993.4
882.955	978.4
888.219	962.4
893.478	949.4
898.731	935.4
903.979	918.4
909.221	913.4
914.458	911.4
919.69	909.4
924.916	911.4
930.136	915.4
935.351	925.4
940.561	924.4
945.766	917.4
950.965	905.4
956.158	901.4
961.347	895.4
966.529	880.4
971.707	863.4
976.879	865.4
982.046	855.4
987.208	852.4
992.364	838.4
997.515	846.4
1002.66	845.4
1007.801	864.4
1012.936	862.4
1018.066	865.4
1023.19	872.4
1028.309	874.4
1033.423	864.4
1038.532	857.4
1043.636	864.4
1048.734	854.4
1053.827	836.4
1058.915	846.4
1063.998	828.4
1069.075	813.4
1074.147	815.4
1079.214	815.4
1084.276	826.4
1089.333	835.4
1094.385	837.4
1099.431	817.4
1104.472	831.4
1109.509	799.4
1114.54	809.4
1119.565	806.4
1124.586	788.4
1129.602	772.4
1134.613	775.4
1139.618	753.4
1144.619	768.4
1149.614	781.4
1154.604	757.4
1159.589	768.4
1164.57	777.4
1169.545	759.4
1174.515	780.4
1179.48	777.4
1184.44	760.4
1189.395	757.4
1194.345	742.4
1199.29	736.4
1204.23	750.4
1209.165	745.4
1214.095	771.4
1219.021	750.4
1223.941	759.4
1228.856	763.4
1233.766	763.4
1238.672	761.4
1243.572	753.4
1248.467	756.4
1253.358	747.4
1258.244	739.4
1263.124	723.4
1268	715.4
1272.871	706.4
1277.737	696.4
1282.599	696.4
1287.455	686.4
1292.306	700.4
1297.153	695.4
1301.995	696.4
1306.832	700.4
1311.664	701.4
1316.491	713.4
1321.314	708.4
1326.132	692.4
1330.945	683.4
1335.753	676.4
1340.556	650.4
1345.354	649.4
1350.148	643.4
1354.937	615.4
1359.722	607.4
1364.501	587.4
1369.276	595.4
1374.046	581.4
1378.811	584.4
1383.572	583.4
1388.327	577.4
1393.079	583.4
1397.825	570.4
1402.567	577.4
1407.304	588.4
1412.036	583.4
1416.764	581.4
1421.487	586.4
1426.205	577.4
1430.919	576.4
1435.628	594.4
1440.333	586.4
1445.032	582.4
1449.727	602.4
1454.418	595.4
1459.104	594.4
1463.785	579.4
1468.462	583.4
1473.134	570.4
1477.802	541.4
1482.465	530.4
1487.123	517.4
1491.777	503.4
1496.426	506.4
1501.071	500.4
1505.711	486.4
1510.347	488.4
1514.978	486.4
1519.604	485.4
1524.226	483.4
1528.844	476.4
1533.457	469.4
1538.065	469.4
1542.669	470.4
1547.269	473.4
1551.864	487.4
1556.454	501.4
1561.041	510.4
1565.622	506.4
1570.199	503.4
1574.772	498.4
1579.34	516.4
1583.904	512.4
1588.464	520.4
1593.019	529.4
1597.569	513.4
1602.115	520.4
1606.657	516.4
1611.195	513.4
1615.728	524.4
1620.256	515.4
1624.78	518.4
1629.3	506.4
1633.816	514.4
1638.327	518.4
1642.834	508.4
1647.336	512.4
1651.834	512.4
1656.328	511.4
1660.817	513.4
1665.302	501.4
1669.783	485.4
1674.259	473.4
1678.732	462.4
1683.199	445.4
1687.663	438.4
1692.122	410.4
1696.577	398.4
1701.028	393.4
1705.474	367.4
1709.917	356.4
1714.355	341.4
1718.788	349.4
1723.218	356.4
1727.643	348.4
1732.064	350.4
1736.481	342.4
1740.893	333.4
1745.301	333.4
1749.705	316.4
1754.105	319.4
1758.501	301.4
1762.893	300.4
1767.28	291.4
1771.663	291.4
1776.042	286.4
1780.417	287.4
1784.787	268.4
1789.154	270.4
1793.516	261.4
1797.874	254.4
1802.228	257.4
1806.578	259.4
1810.924	251.4
1815.266	245.4
1819.603	252.4
1823.937	254.4
1828.266	253.4
1832.591	264.4
1836.913	263.4
1841.23	266.4
1845.543	257.4
1849.852	263.4
1854.156	259.4
1858.457	267.4
1862.754	264.4
1867.047	264.4
1871.335	256.4
1875.62	254.4
1879.9	251.4
1884.177	249.4
1888.449	250.4
1892.718	247.4
1896.982	243.4
1901.243	233.4
1905.499	238.4
1909.752	227.4
1914	222.4
1918.245	225.4
1922.485	213.4
1926.722	206.4
1930.954	209.4
1935.183	205.4
1939.408	209.4
1943.628	198.4
1947.845	209.4
1952.058	208.4
1956.267	202.4
1960.472	210.4
1964.673	194.4
1968.87	199.4
1973.063	206.4
1977.252	202.4
1981.438	203.4
1985.619	196.4
1989.797	195.4
1993.971	199.4
1998.14	194.4
2002.306	198.4
2006.469	198.4
2010.627	201.4
2014.781	201.4
2018.932	193.4
2023.078	201.4
2027.221	203.4
2031.36	195.4
2035.495	190.4
2039.627	174.4
2043.754	182.4
2047.878	186.4
2051.998	187.4
2056.114	177.4
2060.226	171.4
2064.334	176.4
2068.439	172.4
2072.54	170.4
2076.637	182.4
2080.73	170.4
2084.82	176.4
2088.906	156.4
2092.988	172.4
2097.066	159.4
2101.14	164.4
2105.211	159.4
2109.278	156.4
2113.342	147.4
2117.401	158.4
2121.457	147.4
2125.509	151.4
2129.558	154.4
2133.602	150.4
2137.643	154.4
2141.681	147.4
2145.714	153.4
2149.744	154.4
2153.77	154.4
2157.793	152.4
2161.812	163.4
2165.827	154.4
2169.838	147.4
2173.846	150.4
2177.851	141.4
2181.851	147.4
2185.848	133.4
2189.841	145.4
2193.831	141.4
2197.817	152.4
2201.799	136.4
2205.778	135.4
2209.753	139.4
2213.725	139.4
2217.693	136.4
2221.657	135.4
2225.618	130.4
2229.575	121.4
2233.529	120.4
2237.479	129.4
2241.425	117.4
2245.368	122.4
2249.307	131.4
2253.243	123.4
2257.175	122.4
2261.104	125.4
2265.029	115.4
2268.95	119.4
2272.868	120.4
2276.783	112.4
2280.694	107.4
2284.601	108.4
2288.505	113.4
2292.405	110.4
2296.302	109.4
2300.195	103.4
2304.085	100.4
2307.971	98.4
2311.854	103.4
2315.734	95.4
2319.609	98.4
2323.482	100.4
2327.351	103.4
2331.216	112.4
2335.078	128.4
2338.937	112.4
2342.792	99.4
2346.643	108.4
2350.492	98.4
2354.336	100.4
2358.178	90.4
2362.015	98.4
2365.85	99.4
2369.681	104.4
2373.508	99.4
2377.333	110.4
2381.153	96.4
2384.971	98.4
2388.785	93.4
2392.595	100.4
2396.402	98.4
2400.206	99.4
2404.007	91.4
2407.804	91.4
2411.597	88.4
2415.388	96.4
2419.174	100.4
2422.958	89.4
2426.738	95.4
2430.515	91.4
2434.289	97.4
2438.059	89.4
2441.825	84.4
2445.589	85.4
2449.349	93.4
2453.106	91.4
2456.859	85.4
2460.61	83.4
2464.356	80.4
2468.1	80.4
2471.84	80.4
2475.577	68.4
2479.311	72.4
2483.041	77.4
2486.768	76.4
2490.492	79.4
2494.213	75.4
2497.93	74.4
2501.644	83.4
2505.355	66.4
2509.062	62.4
2512.766	66.4
2516.467	63.4
2520.165	73.4
2523.859	72.4
2527.551	57.4
2531.239	63.4
2534.923	60.4
2538.605	61.4
2542.283	60.4
2545.958	59.4
2549.63	57.4
2553.299	60.4
2556.964	53.4
2560.626	52.4
2564.285	57.4
2567.941	48.4
2571.594	51.4
2575.243	54.4
2578.89	49.4
2582.533	47.4
2586.173	44.4
2589.809	54.4
2593.443	52.4
2597.073	46.4
2600.701	45.4
2604.325	44.4
2607.946	37.4
2611.564	46.4
2615.178	45.4
2618.79	45.4
2622.398	44.4
2626.004	42.4
2629.606	38.4
2633.205	46.4
2636.801	45.4
2640.394	46.4
2643.983	40.4
2647.57	40.4
2651.153	35.4
2654.734	39.4
2658.311	39.4
2661.885	39.4
2665.456	40.4
2669.025	40.4
2672.589	37.4
2676.151	32.4
2679.71	26.4
2683.266	29.4
2686.819	37.4
2690.368	36.4
2693.915	34.4
2697.458	28.4
2700.999	36.4
2704.536	34.4
2708.071	37.4
2711.602	25.4
2715.13	26.4
2718.656	29.4
2722.178	21.4
2725.697	23.4
2729.214	20.4
2732.727	30.4
2736.237	32.4
2739.744	19.4
2743.249	23.4
2746.75	14.4
2750.248	22.4
2753.743	19.4
2757.236	19.4
2760.725	14.4
2764.211	18.4
2767.695	17.4
2771.175	18.4
2774.652	16.4
2778.127	19.4
2781.598	11.4
2785.067	13.4
2788.532	8.4
2791.995	16.4
2795.455	14.4
2798.911	6.4
2802.365	20.4
2805.816	13.4
2809.264	10.4
2812.709	14.4
2816.151	18.4
2819.59	26.4
2823.026	13.4
2826.46	18.4
2829.89	12.4
2833.318	17.4
2836.742	19.4
2840.164	19.4
2843.583	16.4
2846.999	21.4
2850.412	22.4
2853.822	11.4
2857.229	25.4
2860.634	20.4
2864.035	17.4
2867.434	21.4
2870.83	20.4
2874.223	22.4
2877.613	24.4
2881	24.4
2884.385	27.4
2887.766	27.4
2891.145	30.4
2894.521	24.4
2897.894	28.4
2901.264	33.4
2904.631	23.4
2907.996	31.4
2911.358	32.4
2914.717	31.4
2918.073	22.4
2921.426	24.4
2924.777	29.4
2928.124	30.4
2931.469	33.4
2934.811	44.4
2938.15	42.4
2941.487	48.4
2944.821	43.4
2948.152	47.4
2951.48	40.4
2954.805	39.4
2958.128	42.4
2961.447	40.4
2964.765	32.4
2968.079	33.4
2971.39	32.4
2974.699	31.4
2978.005	34.4
2981.308	30.4
2984.609	30.4
2987.907	36.4
2991.202	34.4
2994.494	35.4
2997.784	38.4
3001.07	35.4
3004.355	44.4
3007.636	44.4
3010.915	45.4
3014.191	35.4
3017.464	42.4
3020.734	42.4
3024.002	46.4
3027.267	42.4
3030.53	48.4
3033.789	46.4
3037.046	45.4
3040.301	44.4
3043.552	50.4
3046.801	50.4
3050.048	52.4
3053.291	57.4
3056.532	61.4
3059.771	63.4
3063.006	69.4
3066.239	66.4
3069.469	72.4
3072.697	67.4
3075.922	77.4
3079.144	76.4
3082.364	74.4
3085.581	83.4
3088.795	83.4
3092.007	91.4
3095.216	92.4
3098.423	87.4
3101.627	92.4
3104.828	93.4
3108.026	97.4
3111.222	104.4
3114.416	102.4
3117.607	108.4
3120.795	105.4
3123.98	104.4
3127.163	117.4
3130.344	112.4
3133.521	119.4
3136.696	115.4
3139.869	124.4
3143.039	129.4
3146.206	127.4
3149.371	129.4
3152.533	133.4
3155.693	135.4
3158.85	136.4
3162.005	141.4
3165.157	134.4
3168.306	132.4
3171.453	130.4
3174.597	132.4
3177.739	135.4
3180.878	143.4
3184.014	136.4
3187.149	131.4
3190.28	142.4
3193.409	144.4
3196.536	140.4
3199.659	144.4
3202.781	141.4
3205.9	135.4
3209.016	135.4
3212.13	131.4
3215.241	140.4
3218.35	133.4
3221.456	129.4
3224.56	122.4
3227.661	129.4
3230.76	125.4
3233.856	122.4
3236.95	113.4
3240.041	111.4
3243.13	118.4
3246.216	111.4
3249.3	114.4
3252.382	114.4
3255.46	116.4
3258.537	106.4
3261.611	107.4
3264.682	100.4
3267.751	110.4
3270.818	96.4
3273.882	105.4
3276.943	97.4
3280.002	107.4
3283.059	99.4
3286.113	94.4
3289.165	97.4
3292.214	95.4
3295.261	100.4
3298.306	99.4
3301.348	91.4
3304.387	89.4
3307.425	92.4
3310.459	83.4
3313.492	92.4
3316.521	89.4
3319.549	88.4
3322.574	85.4
3325.597	85.4
3328.617	89.4
3331.635	92.4
3334.65	95.4
3337.663	81.4
3340.674	93.4
3343.682	88.4
3346.688	82.4
3349.691	90.4
3352.692	90.4
3355.691	91.4
3358.687	84.4
3361.681	87.4
3364.673	85.4
3367.662	85.4
3370.649	85.4
3373.633	79.4
3376.615	84.4
3379.595	79.4
3382.572	75.4
3385.547	85.4
3388.52	81.4
3391.49	69.4
3394.458	68.4
3397.424	62.4
3400.387	68.4
3403.348	59.4
3406.307	61.4
3409.263	65.4
3412.217	61.4
3415.168	67.4
3418.118	59.4
3421.065	55.4
3424.009	57.4
3426.951	53.4
3429.891	59.4
3432.829	40.4
3435.764	52.4
3438.697	53.4
3441.628	37.4
3444.557	40.4
3447.483	42.4
3450.407	37.4
3453.328	39.4
3456.247	32.4
3459.164	30.4
3462.079	24.4
3464.991	26.4
3467.902	29.4
3470.809	22.4
3473.715	23.4
3476.618	15.4
3479.519	16.4
3482.418	13.4
3485.315	14.4
3488.209	7.4
3491.101	2.4
3493.99	9.4
3496.878	5.4
3499.763	1.4
3502.646	1.4
3505.527	2.4
3508.405	-0.6
3511.281	-2.6
3514.155	-4.6
3517.027	-12.6
3519.897	-4.6
3522.764	-6.6
3525.629	-14.6
3528.492	-9.6
3531.352	-18.6
3534.211	-18.6
3537.067	-20.6
3539.921	-15.6
3542.773	-26.6
3545.622	-22.6
3548.469	-20.6
3551.315	-21.6
3554.157	-17.6
3556.998	-24.6
3559.837	-23.6
3562.673	-24.6
3565.507	-26.6
3568.339	-25.6
3571.169	-27.6
3573.996	-25.6
3576.822	-36.6
3579.645	-38.6
3582.466	-35.6
3585.285	-27.6
3588.101	-34.6
3590.916	-26.6
3593.728	-31.6
3596.538	-35.6
3599.346	-29.6
3602.152	-32.6
3604.956	-35.6
3607.757	-30.6
3610.556	-37.6
3613.354	-40.6
3616.149	-46.6
3618.942	-40.6
3621.732	-37.6
3624.521	-36.6
3627.307	-38.6
3630.092	-37.6
3632.874	-44.6
3635.654	-39.6
3638.432	-40.6
3641.208	-40.6
3643.982	-38.6
3646.753	-43.6
3649.523	-43.6
3652.29	-49.6
3655.055	-39.6
3657.818	-49.6
3660.579	-49.6
3663.338	-38.6
3666.095	-43.6
3668.849	-45.6
3671.602	-43.6
3674.352	-42.6
3677.101	-48.6
3679.847	-44.6
3682.591	-46.6
3685.333	-45.6
3688.073	-56.6
3690.811	-50.6
3693.547	-49.6
3696.281	-48.6
3699.013	-49.6
3701.742	-52.6
3704.47	-43.6
3707.195	-50.6
3709.919	-53.6
3712.64	-50.6
3715.359	-53.6
3718.076	-49.6
3720.792	-51.6
3723.505	-47.6
3726.216	-48.6
3728.925	-54.6
3731.632	-55.6
3734.336	-53.6
3737.039	-50.6
3739.74	-57.6
3742.439	-53.6
3745.136	-50.6
3747.83	-53.6
3750.523	-54.6
3753.213	-51.6
3755.902	-51.6
3758.589	-51.6
3761.273	-51.6
3763.956	-54.6
3766.636	-47.6
3769.315	-46.6
3771.991	-52.6
3774.665	-59.6
3777.338	-50.6
3780.008	-52.6
3782.677	-56.6
3785.343	-51.6
3788.007	-53.6
3790.67	-51.6
3793.33	-54.6
3795.989	-53.6
3798.645	-57.6
3801.299	-53.6
3803.952	-53.6
3806.602	-54.6
3809.251	-59.6
3811.897	-58.6
3814.542	-58.6
3817.184	-58.6
3819.825	-51.6
3822.463	-54.6
3825.1	-51.6
3827.735	-57.6
3830.367	-55.6
3832.998	-59.6
3835.627	-47.6
3838.253	-51.6
3840.878	-53.6
3843.501	-43.6
3846.122	-55.6
3848.741	-52.6
3851.358	-53.6
3853.973	-50.6
3856.586	-48.6
3859.197	-55.6
3861.806	-54.6
3864.414	-58.6
3867.019	-56.6
3869.622	-53.6
3872.224	-38.6
3874.823	-33.6
3877.421	-20.6
3880.016	-10.6
3882.61	18.4
3885.202	12.4
3887.792	8.4
3890.38	-15.6
3892.966	-39.6
3895.55	-46.6
3898.132	-46.6
3900.713	-50.6
3903.291	-56.6
3905.868	-55.6
3908.442	-51.6
3911.015	-57.6
3913.586	-55.6
3916.155	-56.6
3918.722	-55.6
3921.287	-58.6
3923.85	-51.6
3926.411	-61.6
3928.971	-60.6
3931.528	-55.6
3934.084	-49.6
3936.638	-54.6
3939.19	-56.6
3941.74	-56.6
3944.288	-58.6
3946.834	-53.6
3949.378	-59.6
3951.921	-54.6
3954.462	-57.6
3957	-50.6
3959.537	-41.6
3962.072	-45.6
3964.606	-49.6
3967.137	-51.6
3969.667	-58.6
3972.194	-54.6
3974.72	-51.6
3977.244	-47.6
3979.766	-58.6
3982.286	-55.6
3984.805	-64.6
3987.321	-57.6
3989.836	-55.6
3992.349	-54.6
3994.86	-55.6
3997.369	-54.6
3999.877	-55.6
4002.382	-51.6
4004.886	-51.6
4007.388	-57.6
4009.888	-53.6
4012.386	-53.6
4014.883	-53.6
4017.377	-54.6
4019.87	-50.6
4022.361	-56.6
4024.85	-52.6
4027.338	-57.6
4029.823	-53.6
4032.307	-55.6
4034.789	-53.6
4037.269	-52.6
4039.747	-56.6
4042.224	-54.6
4044.699	-54.6
4047.172	-54.6
4049.643	-51.6
4052.112	-52.6
4054.58	-53.6
4057.046	-50.6
4059.51	-58.6
4061.972	-58.6
4064.432	-58.6
4066.891	-54.6
4069.348	-53.6
4071.803	-52.6
4074.256	-50.6
4076.708	-50.6
4079.158	-55.6
4081.606	-50.6
4084.052	-54.6
4086.497	-46.6
4088.939	-50.6
4091.38	-56.6
4093.819	-58.6
4096.257	-56.6
4098.693	-54.6
4101.127	-49.6
4103.559	-58.6
4105.989	29.4
4108.418	17.4
4110.845	17.4
4113.27	14.4
4115.694	16.4
4118.115	16.4
4120.535	-57.6
4122.954	-54.6
4125.37	-54.6
4127.785	-50.6
4130.198	-56.6
4132.609	-59.6
4135.019	-59.6
4137.427	-59.6
4139.833	-57.6
4142.237	-57.6
