Data from 2018-3-7_conc=0_n=8_RamanShift_04.txt Node
Date: Wed Mar 07 10:31:22 IST 2018
User: aro
Spectrometer: QEPB0276
Trigger mode: 0
Integration Time (sec): 3.000000E1
Scans to average: 1
Electric dark correction enabled: true
Nonlinearity correction enabled: false
Boxcar width: 0
XAxis mode: Raman Shifts
Number of Pixels in Spectrum: 1044
>>>>>Begin Spectral Data<<<<<
160.701	5.5
166.742	23.5
172.777	61.5
178.805	191.5
184.826	502.5
190.841	1089.5
196.849	1783.5
202.85	2333.5
208.845	2538.5
214.833	2563.5
220.815	2538.5
226.789	2516.5
232.758	2539.5
238.719	2538.5
244.674	2542.5
250.623	2520.5
256.565	2497.5
262.5	2448.5
268.429	2453.5
274.351	2441.5
280.267	2446.5
286.176	2439.5
292.079	2415.5
297.975	2409.5
303.865	2420.5
309.748	2432.5
315.625	2433.5
321.495	2433.5
327.359	2438.5
333.217	2428.5
339.068	2422.5
344.912	2443.5
350.751	2455.5
356.583	2458.5
362.408	2457.5
368.227	2469.5
374.04	2474.5
379.847	2493.5
385.647	2509.5
391.44	2524.5
397.228	2509.5
403.009	2546.5
408.784	2546.5
414.553	2565.5
420.315	2585.5
426.071	2596.5
431.821	2591.5
437.565	2591.5
443.302	2566.5
449.033	2570.5
454.758	2561.5
460.477	2544.5
466.189	2523.5
471.896	2489.5
477.596	2478.5
483.29	2471.5
488.978	2442.5
494.66	2431.5
500.335	2412.5
506.005	2338.5
511.668	2227.5
517.325	2136.5
522.977	2073.5
528.622	2028.5
534.261	1955.5
539.894	1927.5
545.521	1926.5
551.141	1902.5
556.756	1870.5
562.365	1870.5
567.968	1852.5
573.565	1827.5
579.155	1823.5
584.74	1815.5
590.319	1788.5
595.892	1802.5
601.459	1800.5
607.02	1795.5
612.575	1797.5
618.124	1777.5
623.667	1744.5
629.204	1709.5
634.735	1706.5
640.261	1701.5
645.781	1686.5
651.294	1665.5
656.802	1679.5
662.304	1660.5
667.8	1684.5
673.29	1678.5
678.775	1656.5
684.254	1644.5
689.726	1615.5
695.193	1645.5
700.655	1626.5
706.11	1614.5
711.56	1594.5
717.004	1605.5
722.442	1584.5
727.874	1564.5
733.301	1562.5
738.722	1557.5
744.137	1556.5
749.547	1557.5
754.951	1562.5
760.349	1560.5
765.741	1588.5
771.128	1574.5
776.509	1592.5
781.885	1598.5
787.254	1603.5
792.618	1618.5
797.977	1616.5
803.33	1595.5
808.677	1571.5
814.019	1587.5
819.355	1568.5
824.686	1546.5
830.011	1538.5
835.33	1547.5
840.644	1536.5
845.952	1541.5
851.255	1512.5
856.552	1512.5
861.844	1507.5
867.13	1520.5
872.41	1524.5
877.686	1553.5
882.955	1569.5
888.219	1553.5
893.478	1531.5
898.731	1429.5
903.979	1408.5
909.221	1371.5
914.458	1385.5
919.69	1363.5
924.916	1362.5
930.136	1372.5
935.351	1372.5
940.561	1381.5
945.766	1368.5
950.965	1367.5
956.158	1346.5
961.347	1329.5
966.529	1324.5
971.707	1310.5
976.879	1281.5
982.046	1280.5
987.208	1251.5
992.364	1254.5
997.515	1280.5
1002.66	1257.5
1007.801	1301.5
1012.936	1309.5
1018.066	1315.5
1023.19	1304.5
1028.309	1315.5
1033.423	1320.5
1038.532	1314.5
1043.636	1310.5
1048.734	1313.5
1053.827	1310.5
1058.915	1287.5
1063.998	1258.5
1069.075	1243.5
1074.147	1254.5
1079.214	1279.5
1084.276	1271.5
1089.333	1297.5
1094.385	1286.5
1099.431	1265.5
1104.472	1259.5
1109.509	1250.5
1114.54	1231.5
1119.565	1211.5
1124.586	1188.5
1129.602	1170.5
1134.613	1162.5
1139.618	1143.5
1144.619	1165.5
1149.614	1169.5
1154.604	1151.5
1159.589	1183.5
1164.57	1159.5
1169.545	1182.5
1174.515	1168.5
1179.48	1167.5
1184.44	1152.5
1189.395	1153.5
1194.345	1128.5
1199.29	1125.5
1204.23	1124.5
1209.165	1124.5
1214.095	1145.5
1219.021	1131.5
1223.941	1141.5
1228.856	1173.5
1233.766	1153.5
1238.672	1148.5
1243.572	1151.5
1248.467	1162.5
1253.358	1127.5
1258.244	1117.5
1263.124	1106.5
1268	1076.5
1272.871	1087.5
1277.737	1068.5
1282.599	1068.5
1287.455	1056.5
1292.306	1058.5
1297.153	1048.5
1301.995	1069.5
1306.832	1073.5
1311.664	1068.5
1316.491	1076.5
1321.314	1070.5
1326.132	1074.5
1330.945	1035.5
1335.753	1004.5
1340.556	991.5
1345.354	971.5
1350.148	943.5
1354.937	925.5
1359.722	917.5
1364.501	896.5
1369.276	868.5
1374.046	864.5
1378.811	851.5
1383.572	858.5
1388.327	844.5
1393.079	851.5
1397.825	862.5
1402.567	870.5
1407.304	882.5
1412.036	895.5
1416.764	882.5
1421.487	895.5
1426.205	894.5
1430.919	886.5
1435.628	908.5
1440.333	915.5
1445.032	912.5
1449.727	942.5
1454.418	942.5
1459.104	953.5
1463.785	932.5
1468.462	899.5
1473.134	873.5
1477.802	833.5
1482.465	802.5
1487.123	781.5
1491.777	777.5
1496.426	755.5
1501.071	735.5
1505.711	728.5
1510.347	721.5
1514.978	713.5
1519.604	719.5
1524.226	714.5
1528.844	709.5
1533.457	698.5
1538.065	698.5
1542.669	688.5
1547.269	700.5
1551.864	700.5
1556.454	726.5
1561.041	739.5
1565.622	746.5
1570.199	744.5
1574.772	738.5
1579.34	766.5
1583.904	776.5
1588.464	763.5
1593.019	788.5
1597.569	770.5
1602.115	784.5
1606.657	779.5
1611.195	763.5
1615.728	759.5
1620.256	758.5
1624.78	766.5
1629.3	757.5
1633.816	768.5
1638.327	765.5
1642.834	760.5
1647.336	752.5
1651.834	750.5
1656.328	759.5
1660.817	740.5
1665.302	736.5
1669.783	705.5
1674.259	704.5
1678.732	672.5
1683.199	644.5
1687.663	626.5
1692.122	581.5
1696.577	561.5
1701.028	534.5
1705.474	486.5
1709.917	485.5
1714.355	491.5
1718.788	476.5
1723.218	490.5
1727.643	495.5
1732.064	496.5
1736.481	489.5
1740.893	484.5
1745.301	472.5
1749.705	465.5
1754.105	449.5
1758.501	424.5
1762.893	440.5
1767.28	423.5
1771.663	417.5
1776.042	413.5
1780.417	390.5
1784.787	386.5
1789.154	375.5
1793.516	354.5
1797.874	345.5
1802.228	355.5
1806.578	351.5
1810.924	342.5
1815.266	348.5
1819.603	345.5
1823.937	354.5
1828.266	363.5
1832.591	376.5
1836.913	374.5
1841.23	369.5
1845.543	362.5
1849.852	382.5
1854.156	380.5
1858.457	369.5
1862.754	377.5
1867.047	373.5
1871.335	363.5
1875.62	367.5
1879.9	367.5
1884.177	360.5
1888.449	363.5
1892.718	352.5
1896.982	341.5
1901.243	327.5
1905.499	315.5
1909.752	310.5
1914	298.5
1918.245	298.5
1922.485	290.5
1926.722	276.5
1930.954	276.5
1935.183	275.5
1939.408	277.5
1943.628	267.5
1947.845	276.5
1952.058	269.5
1956.267	249.5
1960.472	265.5
1964.673	263.5
1968.87	260.5
1973.063	265.5
1977.252	266.5
1981.438	267.5
1985.619	270.5
1989.797	263.5
1993.971	282.5
1998.14	269.5
2002.306	280.5
2006.469	289.5
2010.627	293.5
2014.781	283.5
2018.932	275.5
2023.078	284.5
2027.221	276.5
2031.36	276.5
2035.495	268.5
2039.627	256.5
2043.754	257.5
2047.878	247.5
2051.998	255.5
2056.114	252.5
2060.226	248.5
2064.334	247.5
2068.439	233.5
2072.54	243.5
2076.637	236.5
2080.73	229.5
2084.82	233.5
2088.906	227.5
2092.988	223.5
2097.066	216.5
2101.14	219.5
2105.211	209.5
2109.278	204.5
2113.342	207.5
2117.401	203.5
2121.457	207.5
2125.509	211.5
2129.558	203.5
2133.602	206.5
2137.643	213.5
2141.681	209.5
2145.714	213.5
2149.744	211.5
2153.77	209.5
2157.793	222.5
2161.812	217.5
2165.827	222.5
2169.838	216.5
2173.846	211.5
2177.851	207.5
2181.851	208.5
2185.848	205.5
2189.841	203.5
2193.831	199.5
2197.817	206.5
2201.799	201.5
2205.778	209.5
2209.753	207.5
2213.725	206.5
2217.693	201.5
2221.657	200.5
2225.618	187.5
2229.575	195.5
2233.529	190.5
2237.479	199.5
2241.425	191.5
2245.368	195.5
2249.307	201.5
2253.243	182.5
2257.175	178.5
2261.104	181.5
2265.029	174.5
2268.95	177.5
2272.868	176.5
2276.783	171.5
2280.694	174.5
2284.601	169.5
2288.505	168.5
2292.405	173.5
2296.302	180.5
2300.195	160.5
2304.085	162.5
2307.971	166.5
2311.854	156.5
2315.734	160.5
2319.609	158.5
2323.482	162.5
2327.351	159.5
2331.216	174.5
2335.078	187.5
2338.937	175.5
2342.792	157.5
2346.643	159.5
2350.492	167.5
2354.336	164.5
2358.178	157.5
2362.015	167.5
2365.85	163.5
2369.681	167.5
2373.508	169.5
2377.333	172.5
2381.153	165.5
2384.971	158.5
2388.785	160.5
2392.595	172.5
2396.402	166.5
2400.206	169.5
2404.007	155.5
2407.804	161.5
2411.597	158.5
2415.388	158.5
2419.174	164.5
2422.958	154.5
2426.738	158.5
2430.515	162.5
2434.289	160.5
2438.059	153.5
2441.825	151.5
2445.589	156.5
2449.349	139.5
2453.106	145.5
2456.859	145.5
2460.61	136.5
2464.356	140.5
2468.1	138.5
2471.84	134.5
2475.577	132.5
2479.311	132.5
2483.041	130.5
2486.768	126.5
2490.492	134.5
2494.213	131.5
2497.93	131.5
2501.644	123.5
2505.355	121.5
2509.062	122.5
2512.766	123.5
2516.467	112.5
2520.165	115.5
2523.859	120.5
2527.551	111.5
2531.239	111.5
2534.923	108.5
2538.605	117.5
2542.283	94.5
2545.958	102.5
2549.63	105.5
2553.299	99.5
2556.964	85.5
2560.626	100.5
2564.285	102.5
2567.941	91.5
2571.594	98.5
2575.243	94.5
2578.89	84.5
2582.533	81.5
2586.173	86.5
2589.809	90.5
2593.443	92.5
2597.073	85.5
2600.701	89.5
2604.325	80.5
2607.946	71.5
2611.564	80.5
2615.178	78.5
2618.79	80.5
2622.398	83.5
2626.004	86.5
2629.606	78.5
2633.205	81.5
2636.801	75.5
2640.394	86.5
2643.983	83.5
2647.57	80.5
2651.153	68.5
2654.734	72.5
2658.311	78.5
2661.885	72.5
2665.456	80.5
2669.025	75.5
2672.589	68.5
2676.151	68.5
2679.71	65.5
2683.266	70.5
2686.819	77.5
2690.368	68.5
2693.915	63.5
2697.458	58.5
2700.999	70.5
2704.536	63.5
2708.071	59.5
2711.602	67.5
2715.13	60.5
2718.656	57.5
2722.178	59.5
2725.697	51.5
2729.214	52.5
2732.727	53.5
2736.237	58.5
2739.744	42.5
2743.249	53.5
2746.75	50.5
2750.248	37.5
2753.743	37.5
2757.236	40.5
2760.725	32.5
2764.211	34.5
2767.695	32.5
2771.175	36.5
2774.652	29.5
2778.127	35.5
2781.598	34.5
2785.067	34.5
2788.532	35.5
2791.995	40.5
2795.455	31.5
2798.911	37.5
2802.365	33.5
2805.816	38.5
2809.264	41.5
2812.709	40.5
2816.151	44.5
2819.59	50.5
2823.026	36.5
2826.46	39.5
2829.89	38.5
2833.318	37.5
2836.742	49.5
2840.164	45.5
2843.583	40.5
2846.999	50.5
2850.412	49.5
2853.822	52.5
2857.229	52.5
2860.634	49.5
2864.035	54.5
2867.434	52.5
2870.83	61.5
2874.223	63.5
2877.613	61.5
2881	68.5
2884.385	80.5
2887.766	80.5
2891.145	76.5
2894.521	83.5
2897.894	79.5
2901.264	77.5
2904.631	78.5
2907.996	75.5
2911.358	84.5
2914.717	82.5
2918.073	81.5
2921.426	85.5
2924.777	88.5
2928.124	88.5
2931.469	102.5
2934.811	109.5
2938.15	115.5
2941.487	113.5
2944.821	114.5
2948.152	112.5
2951.48	101.5
2954.805	105.5
2958.128	92.5
2961.447	94.5
2964.765	82.5
2968.079	68.5
2971.39	79.5
2974.699	81.5
2978.005	82.5
2981.308	81.5
2984.609	77.5
2987.907	80.5
2991.202	74.5
2994.494	68.5
2997.784	73.5
3001.07	66.5
3004.355	72.5
3007.636	74.5
3010.915	77.5
3014.191	71.5
3017.464	66.5
3020.734	74.5
3024.002	76.5
3027.267	78.5
3030.53	74.5
3033.789	76.5
3037.046	78.5
3040.301	76.5
3043.552	85.5
3046.801	95.5
3050.048	99.5
3053.291	94.5
3056.532	93.5
3059.771	104.5
3063.006	108.5
3066.239	111.5
3069.469	119.5
3072.697	114.5
3075.922	129.5
3079.144	122.5
3082.364	131.5
3085.581	129.5
3088.795	142.5
3092.007	144.5
3095.216	142.5
3098.423	142.5
3101.627	139.5
3104.828	157.5
3108.026	152.5
3111.222	155.5
3114.416	164.5
3117.607	168.5
3120.795	155.5
3123.98	165.5
3127.163	175.5
3130.344	176.5
3133.521	172.5
3136.696	181.5
3139.869	191.5
3143.039	190.5
3146.206	199.5
3149.371	189.5
3152.533	205.5
3155.693	213.5
3158.85	201.5
3162.005	201.5
3165.157	202.5
3168.306	204.5
3171.453	211.5
3174.597	204.5
3177.739	209.5
3180.878	209.5
3184.014	203.5
3187.149	201.5
3190.28	208.5
3193.409	204.5
3196.536	203.5
3199.659	214.5
3202.781	202.5
3205.9	202.5
3209.016	203.5
3212.13	211.5
3215.241	208.5
3218.35	189.5
3221.456	198.5
3224.56	183.5
3227.661	180.5
3230.76	181.5
3233.856	184.5
3236.95	173.5
3240.041	169.5
3243.13	172.5
3246.216	159.5
3249.3	154.5
3252.382	156.5
3255.46	158.5
3258.537	149.5
3261.611	152.5
3264.682	149.5
3267.751	155.5
3270.818	141.5
3273.882	154.5
3276.943	145.5
3280.002	138.5
3283.059	143.5
3286.113	140.5
3289.165	139.5
3292.214	140.5
3295.261	143.5
3298.306	141.5
3301.348	136.5
3304.387	135.5
3307.425	134.5
3310.459	135.5
3313.492	134.5
3316.521	140.5
3319.549	143.5
3322.574	135.5
3325.597	141.5
3328.617	137.5
3331.635	142.5
3334.65	141.5
3337.663	127.5
3340.674	139.5
3343.682	137.5
3346.688	133.5
3349.691	146.5
3352.692	137.5
3355.691	139.5
3358.687	130.5
3361.681	133.5
3364.673	127.5
3367.662	129.5
3370.649	122.5
3373.633	124.5
3376.615	115.5
3379.595	120.5
3382.572	113.5
3385.547	119.5
3388.52	113.5
3391.49	107.5
3394.458	106.5
3397.424	106.5
3400.387	104.5
3403.348	93.5
3406.307	91.5
3409.263	101.5
3412.217	98.5
3415.168	96.5
3418.118	91.5
3421.065	91.5
3424.009	85.5
3426.951	81.5
3429.891	77.5
3432.829	76.5
3435.764	82.5
3438.697	76.5
3441.628	66.5
3444.557	66.5
3447.483	62.5
3450.407	56.5
3453.328	59.5
3456.247	51.5
3459.164	47.5
3462.079	50.5
3464.991	45.5
3467.902	37.5
3470.809	40.5
3473.715	34.5
3476.618	29.5
3479.519	24.5
3482.418	21.5
3485.315	27.5
3488.209	14.5
3491.101	15.5
3493.99	26.5
3496.878	21.5
3499.763	14.5
3502.646	6.5
3505.527	5.5
3508.405	1.5
3511.281	1.5
3514.155	-0.5
3517.027	-0.5
3519.897	-5.5
3522.764	-6.5
3525.629	-6.5
3528.492	-12.5
3531.352	-13.5
3534.211	-18.5
3537.067	-22.5
3539.921	-17.5
3542.773	-27.5
3545.622	-23.5
3548.469	-23.5
3551.315	-20.5
3554.157	-28.5
3556.998	-30.5
3559.837	-31.5
3562.673	-32.5
3565.507	-33.5
3568.339	-24.5
3571.169	-27.5
3573.996	-27.5
3576.822	-35.5
3579.645	-35.5
3582.466	-33.5
3585.285	-40.5
3588.101	-41.5
3590.916	-35.5
3593.728	-44.5
3596.538	-42.5
3599.346	-42.5
3602.152	-43.5
3604.956	-44.5
3607.757	-39.5
3610.556	-46.5
3613.354	-48.5
3616.149	-46.5
3618.942	-43.5
3621.732	-48.5
3624.521	-38.5
3627.307	-45.5
3630.092	-51.5
3632.874	-51.5
3635.654	-50.5
3638.432	-52.5
3641.208	-50.5
3643.982	-44.5
3646.753	-50.5
3649.523	-49.5
3652.29	-49.5
3655.055	-50.5
3657.818	-59.5
3660.579	-50.5
3663.338	-46.5
3666.095	-50.5
3668.849	-54.5
3671.602	-52.5
3674.352	-48.5
3677.101	-57.5
3679.847	-51.5
3682.591	-58.5
3685.333	-52.5
3688.073	-61.5
3690.811	-57.5
3693.547	-59.5
3696.281	-50.5
3699.013	-58.5
3701.742	-56.5
3704.47	-55.5
3707.195	-55.5
3709.919	-59.5
3712.64	-61.5
3715.359	-60.5
3718.076	-62.5
3720.792	-61.5
3723.505	-59.5
3726.216	-53.5
3728.925	-63.5
3731.632	-61.5
3734.336	-61.5
3737.039	-60.5
3739.74	-63.5
3742.439	-65.5
3745.136	-67.5
3747.83	-60.5
3750.523	-64.5
3753.213	-58.5
3755.902	-62.5
3758.589	-63.5
3761.273	-62.5
3763.956	-64.5
3766.636	-62.5
3769.315	-59.5
3771.991	-64.5
3774.665	-62.5
3777.338	-59.5
3780.008	-59.5
3782.677	-67.5
3785.343	-65.5
3788.007	-65.5
3790.67	-69.5
3793.33	-65.5
3795.989	-63.5
3798.645	-58.5
3801.299	-58.5
3803.952	-58.5
3806.602	-67.5
3809.251	-64.5
3811.897	-66.5
3814.542	-67.5
3817.184	-65.5
3819.825	-58.5
3822.463	-63.5
3825.1	-58.5
3827.735	-68.5
3830.367	-63.5
3832.998	-66.5
3835.627	-65.5
3838.253	-66.5
3840.878	-62.5
3843.501	-59.5
3846.122	-67.5
3848.741	-65.5
3851.358	-61.5
3853.973	-63.5
3856.586	-64.5
3859.197	-65.5
3861.806	-67.5
3864.414	-68.5
3867.019	-66.5
3869.622	-61.5
3872.224	-58.5
3874.823	-49.5
3877.421	-42.5
3880.016	-31.5
3882.61	-15.5
3885.202	-15.5
3887.792	-17.5
3890.38	-44.5
3892.966	-53.5
3895.55	-54.5
3898.132	-58.5
3900.713	-65.5
3903.291	-65.5
3905.868	-63.5
3908.442	-67.5
3911.015	-61.5
3913.586	-68.5
3916.155	-66.5
3918.722	-71.5
3921.287	-68.5
3923.85	-61.5
3926.411	-68.5
3928.971	-74.5
3931.528	-67.5
3934.084	-64.5
3936.638	-62.5
3939.19	-72.5
3941.74	-64.5
3944.288	-71.5
3946.834	-65.5
3949.378	-64.5
3951.921	-67.5
3954.462	-69.5
3957	-60.5
3959.537	-59.5
3962.072	-64.5
3964.606	-64.5
3967.137	-66.5
3969.667	-65.5
3972.194	-66.5
3974.72	-62.5
3977.244	-58.5
3979.766	-63.5
3982.286	-68.5
3984.805	-72.5
3987.321	-64.5
3989.836	-70.5
3992.349	-61.5
3994.86	-69.5
3997.369	-68.5
3999.877	-67.5
4002.382	-63.5
4004.886	-67.5
4007.388	-66.5
4009.888	-64.5
4012.386	-68.5
4014.883	-66.5
4017.377	-62.5
4019.87	-62.5
4022.361	-71.5
4024.85	-63.5
4027.338	-68.5
4029.823	-68.5
4032.307	-71.5
4034.789	-63.5
4037.269	-67.5
4039.747	-67.5
4042.224	-66.5
4044.699	-69.5
4047.172	-72.5
4049.643	-69.5
4052.112	-65.5
4054.58	-60.5
4057.046	-59.5
4059.51	-63.5
4061.972	-68.5
4064.432	-64.5
4066.891	-65.5
4069.348	-67.5
4071.803	-62.5
4074.256	-67.5
4076.708	-66.5
4079.158	-63.5
4081.606	-62.5
4084.052	-63.5
4086.497	-62.5
4088.939	-58.5
4091.38	-71.5
4093.819	-73.5
4096.257	-65.5
4098.693	-64.5
4101.127	-64.5
4103.559	-70.5
4105.989	1.5
4108.418	-5.5
4110.845	-2.5
4113.27	6.5
4115.694	3.5
4118.115	8.5
4120.535	-66.5
4122.954	-67.5
4125.37	-64.5
4127.785	-58.5
4130.198	-63.5
4132.609	-64.5
4135.019	-68.5
4137.427	-72.5
4139.833	-69.5
4142.237	-71.5
