Data from 2018-3-7_conc=3_n=8_RamanShift_04.txt Node
Date: Wed Mar 07 11:39:22 IST 2018
User: aro
Spectrometer: QEPB0276
Trigger mode: 0
Integration Time (sec): 3.000000E1
Scans to average: 1
Electric dark correction enabled: true
Nonlinearity correction enabled: false
Boxcar width: 0
XAxis mode: Raman Shifts
Number of Pixels in Spectrum: 1044
>>>>>Begin Spectral Data<<<<<
160.701	10.5
166.742	22.5
172.777	46.5
178.805	124.5
184.826	323.5
190.841	674.5
196.849	1083.5
202.85	1414.5
208.845	1548.5
214.833	1540.5
220.815	1531.5
226.789	1508.5
232.758	1535.5
238.719	1526.5
244.674	1519.5
250.623	1512.5
256.565	1517.5
262.5	1483.5
268.429	1471.5
274.351	1474.5
280.267	1468.5
286.176	1477.5
292.079	1464.5
297.975	1464.5
303.865	1472.5
309.748	1453.5
315.625	1472.5
321.495	1471.5
327.359	1480.5
333.217	1479.5
339.068	1487.5
344.912	1496.5
350.751	1486.5
356.583	1471.5
362.408	1491.5
368.227	1513.5
374.04	1506.5
379.847	1522.5
385.647	1528.5
391.44	1522.5
397.228	1521.5
403.009	1532.5
408.784	1560.5
414.553	1568.5
420.315	1568.5
426.071	1574.5
431.821	1547.5
437.565	1585.5
443.302	1566.5
449.033	1564.5
454.758	1546.5
460.477	1529.5
466.189	1528.5
471.896	1510.5
477.596	1487.5
483.29	1488.5
488.978	1501.5
494.66	1476.5
500.335	1442.5
506.005	1390.5
511.668	1353.5
517.325	1263.5
522.977	1227.5
528.622	1177.5
534.261	1160.5
539.894	1135.5
545.521	1141.5
551.141	1119.5
556.756	1101.5
562.365	1105.5
567.968	1088.5
573.565	1082.5
579.155	1071.5
584.74	1071.5
590.319	1062.5
595.892	1067.5
601.459	1062.5
607.02	1058.5
612.575	1053.5
618.124	1040.5
623.667	1029.5
629.204	1027.5
634.735	995.5
640.261	1001.5
645.781	977.5
651.294	973.5
656.802	980.5
662.304	972.5
667.8	972.5
673.29	976.5
678.775	966.5
684.254	964.5
689.726	959.5
695.193	955.5
700.655	950.5
706.11	956.5
711.56	931.5
717.004	935.5
722.442	922.5
727.874	927.5
733.301	927.5
738.722	908.5
744.137	905.5
749.547	918.5
754.951	910.5
760.349	926.5
765.741	907.5
771.128	927.5
776.509	913.5
781.885	946.5
787.254	935.5
792.618	940.5
797.977	936.5
803.33	928.5
808.677	928.5
814.019	931.5
819.355	907.5
824.686	904.5
830.011	898.5
835.33	901.5
840.644	886.5
845.952	888.5
851.255	867.5
856.552	886.5
861.844	868.5
867.13	856.5
872.41	853.5
877.686	856.5
882.955	840.5
888.219	836.5
893.478	829.5
898.731	809.5
903.979	801.5
909.221	802.5
914.458	794.5
919.69	800.5
924.916	788.5
930.136	797.5
935.351	815.5
940.561	802.5
945.766	795.5
950.965	795.5
956.158	789.5
961.347	784.5
966.529	761.5
971.707	743.5
976.879	728.5
982.046	738.5
987.208	736.5
992.364	720.5
997.515	735.5
1002.66	731.5
1007.801	758.5
1012.936	764.5
1018.066	766.5
1023.19	751.5
1028.309	744.5
1033.423	751.5
1038.532	746.5
1043.636	759.5
1048.734	751.5
1053.827	719.5
1058.915	717.5
1063.998	714.5
1069.075	707.5
1074.147	709.5
1079.214	727.5
1084.276	725.5
1089.333	731.5
1094.385	720.5
1099.431	720.5
1104.472	716.5
1109.509	719.5
1114.54	702.5
1119.565	684.5
1124.586	672.5
1129.602	676.5
1134.613	677.5
1139.618	662.5
1144.619	663.5
1149.614	672.5
1154.604	666.5
1159.589	669.5
1164.57	667.5
1169.545	676.5
1174.515	670.5
1179.48	683.5
1184.44	662.5
1189.395	665.5
1194.345	654.5
1199.29	641.5
1204.23	646.5
1209.165	650.5
1214.095	651.5
1219.021	658.5
1223.941	666.5
1228.856	662.5
1233.766	667.5
1238.672	672.5
1243.572	668.5
1248.467	655.5
1253.358	652.5
1258.244	652.5
1263.124	629.5
1268	620.5
1272.871	613.5
1277.737	613.5
1282.599	595.5
1287.455	604.5
1292.306	607.5
1297.153	607.5
1301.995	604.5
1306.832	605.5
1311.664	611.5
1316.491	617.5
1321.314	606.5
1326.132	606.5
1330.945	608.5
1335.753	578.5
1340.556	574.5
1345.354	552.5
1350.148	549.5
1354.937	520.5
1359.722	534.5
1364.501	534.5
1369.276	507.5
1374.046	498.5
1378.811	505.5
1383.572	503.5
1388.327	494.5
1393.079	493.5
1397.825	502.5
1402.567	507.5
1407.304	506.5
1412.036	502.5
1416.764	504.5
1421.487	509.5
1426.205	508.5
1430.919	496.5
1435.628	509.5
1440.333	511.5
1445.032	510.5
1449.727	519.5
1454.418	528.5
1459.104	521.5
1463.785	502.5
1468.462	503.5
1473.134	491.5
1477.802	469.5
1482.465	467.5
1487.123	456.5
1491.777	437.5
1496.426	439.5
1501.071	438.5
1505.711	426.5
1510.347	423.5
1514.978	418.5
1519.604	420.5
1524.226	425.5
1528.844	424.5
1533.457	425.5
1538.065	419.5
1542.669	418.5
1547.269	411.5
1551.864	424.5
1556.454	428.5
1561.041	441.5
1565.622	440.5
1570.199	431.5
1574.772	431.5
1579.34	447.5
1583.904	451.5
1588.464	457.5
1593.019	454.5
1597.569	464.5
1602.115	453.5
1606.657	446.5
1611.195	452.5
1615.728	448.5
1620.256	439.5
1624.78	446.5
1629.3	453.5
1633.816	451.5
1638.327	446.5
1642.834	447.5
1647.336	439.5
1651.834	438.5
1656.328	452.5
1660.817	448.5
1665.302	438.5
1669.783	427.5
1674.259	431.5
1678.732	424.5
1683.199	385.5
1687.663	378.5
1692.122	354.5
1696.577	348.5
1701.028	336.5
1705.474	317.5
1709.917	318.5
1714.355	309.5
1718.788	293.5
1723.218	304.5
1727.643	299.5
1732.064	311.5
1736.481	299.5
1740.893	295.5
1745.301	301.5
1749.705	286.5
1754.105	282.5
1758.501	270.5
1762.893	265.5
1767.28	258.5
1771.663	259.5
1776.042	265.5
1780.417	252.5
1784.787	250.5
1789.154	244.5
1793.516	236.5
1797.874	229.5
1802.228	240.5
1806.578	237.5
1810.924	229.5
1815.266	226.5
1819.603	226.5
1823.937	235.5
1828.266	231.5
1832.591	235.5
1836.913	229.5
1841.23	227.5
1845.543	225.5
1849.852	230.5
1854.156	236.5
1858.457	234.5
1862.754	235.5
1867.047	225.5
1871.335	225.5
1875.62	230.5
1879.9	231.5
1884.177	221.5
1888.449	228.5
1892.718	225.5
1896.982	219.5
1901.243	217.5
1905.499	211.5
1909.752	199.5
1914	194.5
1918.245	196.5
1922.485	193.5
1926.722	191.5
1930.954	185.5
1935.183	190.5
1939.408	194.5
1943.628	189.5
1947.845	188.5
1952.058	191.5
1956.267	188.5
1960.472	184.5
1964.673	179.5
1968.87	179.5
1973.063	175.5
1977.252	183.5
1981.438	181.5
1985.619	174.5
1989.797	177.5
1993.971	182.5
1998.14	181.5
2002.306	179.5
2006.469	182.5
2010.627	179.5
2014.781	183.5
2018.932	174.5
2023.078	177.5
2027.221	175.5
2031.36	175.5
2035.495	170.5
2039.627	161.5
2043.754	165.5
2047.878	155.5
2051.998	171.5
2056.114	155.5
2060.226	155.5
2064.334	150.5
2068.439	150.5
2072.54	151.5
2076.637	161.5
2080.73	151.5
2084.82	157.5
2088.906	152.5
2092.988	155.5
2097.066	152.5
2101.14	151.5
2105.211	150.5
2109.278	146.5
2113.342	140.5
2117.401	139.5
2121.457	143.5
2125.509	138.5
2129.558	144.5
2133.602	135.5
2137.643	141.5
2141.681	131.5
2145.714	134.5
2149.744	139.5
2153.77	144.5
2157.793	141.5
2161.812	142.5
2165.827	136.5
2169.838	136.5
2173.846	126.5
2177.851	129.5
2181.851	128.5
2185.848	119.5
2189.841	121.5
2193.831	124.5
2197.817	125.5
2201.799	124.5
2205.778	123.5
2209.753	126.5
2213.725	130.5
2217.693	126.5
2221.657	128.5
2225.618	116.5
2229.575	118.5
2233.529	112.5
2237.479	119.5
2241.425	114.5
2245.368	120.5
2249.307	113.5
2253.243	109.5
2257.175	110.5
2261.104	101.5
2265.029	114.5
2268.95	114.5
2272.868	104.5
2276.783	102.5
2280.694	102.5
2284.601	100.5
2288.505	104.5
2292.405	99.5
2296.302	106.5
2300.195	97.5
2304.085	90.5
2307.971	89.5
2311.854	89.5
2315.734	86.5
2319.609	94.5
2323.482	89.5
2327.351	94.5
2331.216	97.5
2335.078	116.5
2338.937	105.5
2342.792	91.5
2346.643	92.5
2350.492	96.5
2354.336	91.5
2358.178	84.5
2362.015	89.5
2365.85	87.5
2369.681	92.5
2373.508	96.5
2377.333	94.5
2381.153	84.5
2384.971	88.5
2388.785	79.5
2392.595	92.5
2396.402	86.5
2400.206	82.5
2404.007	84.5
2407.804	88.5
2411.597	88.5
2415.388	82.5
2419.174	94.5
2422.958	84.5
2426.738	84.5
2430.515	84.5
2434.289	77.5
2438.059	77.5
2441.825	67.5
2445.589	79.5
2449.349	69.5
2453.106	78.5
2456.859	71.5
2460.61	73.5
2464.356	78.5
2468.1	72.5
2471.84	75.5
2475.577	68.5
2479.311	68.5
2483.041	70.5
2486.768	64.5
2490.492	70.5
2494.213	63.5
2497.93	63.5
2501.644	60.5
2505.355	60.5
2509.062	59.5
2512.766	63.5
2516.467	53.5
2520.165	60.5
2523.859	63.5
2527.551	60.5
2531.239	64.5
2534.923	56.5
2538.605	61.5
2542.283	52.5
2545.958	51.5
2549.63	48.5
2553.299	52.5
2556.964	44.5
2560.626	51.5
2564.285	48.5
2567.941	49.5
2571.594	44.5
2575.243	48.5
2578.89	52.5
2582.533	48.5
2586.173	43.5
2589.809	46.5
2593.443	51.5
2597.073	48.5
2600.701	50.5
2604.325	40.5
2607.946	33.5
2611.564	43.5
2615.178	41.5
2618.79	37.5
2622.398	39.5
2626.004	39.5
2629.606	31.5
2633.205	35.5
2636.801	39.5
2640.394	34.5
2643.983	44.5
2647.57	30.5
2651.153	29.5
2654.734	33.5
2658.311	40.5
2661.885	42.5
2665.456	41.5
2669.025	39.5
2672.589	32.5
2676.151	33.5
2679.71	31.5
2683.266	39.5
2686.819	31.5
2690.368	30.5
2693.915	32.5
2697.458	22.5
2700.999	33.5
2704.536	33.5
2708.071	29.5
2711.602	27.5
2715.13	19.5
2718.656	23.5
2722.178	21.5
2725.697	24.5
2729.214	26.5
2732.727	29.5
2736.237	28.5
2739.744	19.5
2743.249	23.5
2746.75	21.5
2750.248	24.5
2753.743	20.5
2757.236	11.5
2760.725	21.5
2764.211	12.5
2767.695	10.5
2771.175	12.5
2774.652	12.5
2778.127	17.5
2781.598	14.5
2785.067	16.5
2788.532	15.5
2791.995	13.5
2795.455	10.5
2798.911	15.5
2802.365	22.5
2805.816	14.5
2809.264	11.5
2812.709	13.5
2816.151	14.5
2819.59	22.5
2823.026	9.5
2826.46	19.5
2829.89	13.5
2833.318	15.5
2836.742	27.5
2840.164	17.5
2843.583	22.5
2846.999	19.5
2850.412	16.5
2853.822	19.5
2857.229	22.5
2860.634	14.5
2864.035	14.5
2867.434	14.5
2870.83	23.5
2874.223	14.5
2877.613	17.5
2881	21.5
2884.385	29.5
2887.766	28.5
2891.145	21.5
2894.521	24.5
2897.894	24.5
2901.264	24.5
2904.631	24.5
2907.996	28.5
2911.358	27.5
2914.717	28.5
2918.073	20.5
2921.426	26.5
2924.777	32.5
2928.124	26.5
2931.469	30.5
2934.811	33.5
2938.15	40.5
2941.487	42.5
2944.821	32.5
2948.152	35.5
2951.48	34.5
2954.805	33.5
2958.128	35.5
2961.447	42.5
2964.765	33.5
2968.079	35.5
2971.39	30.5
2974.699	32.5
2978.005	35.5
2981.308	33.5
2984.609	29.5
2987.907	35.5
2991.202	26.5
2994.494	28.5
2997.784	29.5
3001.07	28.5
3004.355	37.5
3007.636	37.5
3010.915	36.5
3014.191	35.5
3017.464	36.5
3020.734	39.5
3024.002	42.5
3027.267	43.5
3030.53	35.5
3033.789	38.5
3037.046	39.5
3040.301	36.5
3043.552	40.5
3046.801	38.5
3050.048	44.5
3053.291	49.5
3056.532	53.5
3059.771	49.5
3063.006	54.5
3066.239	56.5
3069.469	64.5
3072.697	66.5
3075.922	69.5
3079.144	66.5
3082.364	71.5
3085.581	63.5
3088.795	71.5
3092.007	78.5
3095.216	78.5
3098.423	74.5
3101.627	69.5
3104.828	83.5
3108.026	80.5
3111.222	83.5
3114.416	90.5
3117.607	88.5
3120.795	97.5
3123.98	92.5
3127.163	100.5
3130.344	98.5
3133.521	97.5
3136.696	99.5
3139.869	110.5
3143.039	107.5
3146.206	113.5
3149.371	104.5
3152.533	116.5
3155.693	115.5
3158.85	111.5
3162.005	112.5
3165.157	108.5
3168.306	117.5
3171.453	115.5
3174.597	115.5
3177.739	116.5
3180.878	125.5
3184.014	110.5
3187.149	114.5
3190.28	114.5
3193.409	120.5
3196.536	109.5
3199.659	120.5
3202.781	121.5
3205.9	115.5
3209.016	121.5
3212.13	125.5
3215.241	119.5
3218.35	114.5
3221.456	114.5
3224.56	113.5
3227.661	112.5
3230.76	107.5
3233.856	108.5
3236.95	101.5
3240.041	111.5
3243.13	103.5
3246.216	98.5
3249.3	97.5
3252.382	97.5
3255.46	106.5
3258.537	93.5
3261.611	97.5
3264.682	91.5
3267.751	97.5
3270.818	83.5
3273.882	89.5
3276.943	92.5
3280.002	93.5
3283.059	92.5
3286.113	83.5
3289.165	83.5
3292.214	86.5
3295.261	82.5
3298.306	80.5
3301.348	79.5
3304.387	78.5
3307.425	77.5
3310.459	71.5
3313.492	77.5
3316.521	75.5
3319.549	82.5
3322.574	81.5
3325.597	73.5
3328.617	80.5
3331.635	78.5
3334.65	80.5
3337.663	72.5
3340.674	69.5
3343.682	71.5
3346.688	70.5
3349.691	81.5
3352.692	78.5
3355.691	81.5
3358.687	71.5
3361.681	74.5
3364.673	71.5
3367.662	75.5
3370.649	70.5
3373.633	59.5
3376.615	68.5
3379.595	66.5
3382.572	58.5
3385.547	64.5
3388.52	61.5
3391.49	56.5
3394.458	50.5
3397.424	61.5
3400.387	60.5
3403.348	56.5
3406.307	47.5
3409.263	57.5
3412.217	54.5
3415.168	58.5
3418.118	47.5
3421.065	45.5
3424.009	48.5
3426.951	42.5
3429.891	43.5
3432.829	48.5
3435.764	43.5
3438.697	44.5
3441.628	30.5
3444.557	35.5
3447.483	33.5
3450.407	30.5
3453.328	30.5
3456.247	29.5
3459.164	28.5
3462.079	20.5
3464.991	24.5
3467.902	21.5
3470.809	17.5
3473.715	22.5
3476.618	12.5
3479.519	12.5
3482.418	11.5
3485.315	8.5
3488.209	-2.5
3491.101	4.5
3493.99	10.5
3496.878	6.5
3499.763	2.5
3502.646	-1.5
3505.527	-2.5
3508.405	-2.5
3511.281	0.5
3514.155	-2.5
3517.027	-8.5
3519.897	-4.5
3522.764	-11.5
3525.629	-6.5
3528.492	-9.5
3531.352	-19.5
3534.211	-16.5
3537.067	-20.5
3539.921	-16.5
3542.773	-21.5
3545.622	-16.5
3548.469	-18.5
3551.315	-17.5
3554.157	-21.5
3556.998	-24.5
3559.837	-21.5
3562.673	-18.5
3565.507	-26.5
3568.339	-23.5
3571.169	-22.5
3573.996	-18.5
3576.822	-29.5
3579.645	-30.5
3582.466	-30.5
3585.285	-25.5
3588.101	-31.5
3590.916	-21.5
3593.728	-34.5
3596.538	-33.5
3599.346	-28.5
3602.152	-29.5
3604.956	-29.5
3607.757	-21.5
3610.556	-26.5
3613.354	-34.5
3616.149	-30.5
3618.942	-28.5
3621.732	-35.5
3624.521	-31.5
3627.307	-33.5
3630.092	-38.5
3632.874	-37.5
3635.654	-35.5
3638.432	-34.5
3641.208	-33.5
3643.982	-32.5
3646.753	-40.5
3649.523	-35.5
3652.29	-38.5
3655.055	-31.5
3657.818	-37.5
3660.579	-37.5
3663.338	-31.5
3666.095	-40.5
3668.849	-45.5
3671.602	-39.5
3674.352	-36.5
3677.101	-40.5
3679.847	-42.5
3682.591	-48.5
3685.333	-37.5
3688.073	-44.5
3690.811	-38.5
3693.547	-40.5
3696.281	-35.5
3699.013	-42.5
3701.742	-41.5
3704.47	-37.5
3707.195	-41.5
3709.919	-41.5
3712.64	-40.5
3715.359	-46.5
3718.076	-50.5
3720.792	-40.5
3723.505	-47.5
3726.216	-44.5
3728.925	-48.5
3731.632	-41.5
3734.336	-42.5
3737.039	-37.5
3739.74	-52.5
3742.439	-41.5
3745.136	-44.5
3747.83	-41.5
3750.523	-49.5
3753.213	-52.5
3755.902	-42.5
3758.589	-44.5
3761.273	-49.5
3763.956	-46.5
3766.636	-44.5
3769.315	-40.5
3771.991	-45.5
3774.665	-52.5
3777.338	-48.5
3780.008	-49.5
3782.677	-51.5
3785.343	-45.5
3788.007	-47.5
3790.67	-47.5
3793.33	-46.5
3795.989	-50.5
3798.645	-48.5
3801.299	-43.5
3803.952	-48.5
3806.602	-51.5
3809.251	-52.5
3811.897	-54.5
3814.542	-49.5
3817.184	-50.5
3819.825	-41.5
3822.463	-43.5
3825.1	-43.5
3827.735	-51.5
3830.367	-47.5
3832.998	-50.5
3835.627	-50.5
3838.253	-46.5
3840.878	-37.5
3843.501	-42.5
3846.122	-49.5
3848.741	-47.5
3851.358	-46.5
3853.973	-46.5
3856.586	-48.5
3859.197	-46.5
3861.806	-47.5
3864.414	-47.5
3867.019	-46.5
3869.622	-39.5
3872.224	-38.5
3874.823	-27.5
3877.421	-19.5
3880.016	-14.5
3882.61	6.5
3885.202	6.5
3887.792	2.5
3890.38	-19.5
3892.966	-37.5
3895.55	-39.5
3898.132	-43.5
3900.713	-47.5
3903.291	-50.5
3905.868	-45.5
3908.442	-48.5
3911.015	-47.5
3913.586	-53.5
3916.155	-50.5
3918.722	-48.5
3921.287	-48.5
3923.85	-37.5
3926.411	-51.5
3928.971	-53.5
3931.528	-47.5
3934.084	-45.5
3936.638	-44.5
3939.19	-48.5
3941.74	-48.5
3944.288	-48.5
3946.834	-42.5
3949.378	-48.5
3951.921	-51.5
3954.462	-48.5
3957	-48.5
3959.537	-41.5
3962.072	-39.5
3964.606	-41.5
3967.137	-42.5
3969.667	-44.5
3972.194	-48.5
3974.72	-41.5
3977.244	-45.5
3979.766	-43.5
3982.286	-50.5
3984.805	-55.5
3987.321	-46.5
3989.836	-45.5
3992.349	-49.5
3994.86	-49.5
3997.369	-50.5
3999.877	-47.5
4002.382	-42.5
4004.886	-45.5
4007.388	-51.5
4009.888	-46.5
4012.386	-49.5
4014.883	-41.5
4017.377	-44.5
4019.87	-44.5
4022.361	-45.5
4024.85	-44.5
4027.338	-48.5
4029.823	-49.5
4032.307	-49.5
4034.789	-47.5
4037.269	-50.5
4039.747	-54.5
4042.224	-51.5
4044.699	-48.5
4047.172	-51.5
4049.643	-45.5
4052.112	-45.5
4054.58	-44.5
4057.046	-43.5
4059.51	-48.5
4061.972	-48.5
4064.432	-45.5
4066.891	-41.5
4069.348	-42.5
4071.803	-45.5
4074.256	-42.5
4076.708	-46.5
4079.158	-50.5
4081.606	-49.5
4084.052	-49.5
4086.497	-45.5
4088.939	-43.5
4091.38	-49.5
4093.819	-47.5
4096.257	-49.5
4098.693	-47.5
4101.127	-42.5
4103.559	-53.5
4105.989	23.5
4108.418	14.5
4110.845	11.5
4113.27	13.5
4115.694	10.5
4118.115	13.5
4120.535	-46.5
4122.954	-41.5
4125.37	-45.5
4127.785	-42.5
4130.198	-47.5
4132.609	-47.5
4135.019	-51.5
4137.427	-51.5
4139.833	-50.5
4142.237	-50.5
