Data from 2018-3-7_conc=4_n=1_RamanShift_03.txt Node
Date: Wed Mar 07 11:49:52 IST 2018
User: aro
Spectrometer: QEPB0276
Trigger mode: 0
Integration Time (sec): 3.000000E1
Scans to average: 1
Electric dark correction enabled: true
Nonlinearity correction enabled: false
Boxcar width: 0
XAxis mode: Raman Shifts
Number of Pixels in Spectrum: 1044
>>>>>Begin Spectral Data<<<<<
160.701	16.5
166.742	22.5
172.777	47.5
178.805	129.5
184.826	336.5
190.841	711.5
196.849	1179.5
202.85	1521.5
208.845	1678.5
214.833	1687.5
220.815	1677.5
226.789	1660.5
232.758	1681.5
238.719	1683.5
244.674	1663.5
250.623	1667.5
256.565	1639.5
262.5	1613.5
268.429	1598.5
274.351	1613.5
280.267	1584.5
286.176	1592.5
292.079	1616.5
297.975	1576.5
303.865	1588.5
309.748	1579.5
315.625	1587.5
321.495	1572.5
327.359	1610.5
333.217	1603.5
339.068	1614.5
344.912	1582.5
350.751	1598.5
356.583	1596.5
362.408	1595.5
368.227	1616.5
374.04	1641.5
379.847	1630.5
385.647	1616.5
391.44	1638.5
397.228	1637.5
403.009	1665.5
408.784	1673.5
414.553	1665.5
420.315	1658.5
426.071	1686.5
431.821	1674.5
437.565	1684.5
443.302	1670.5
449.033	1649.5
454.758	1657.5
460.477	1629.5
466.189	1631.5
471.896	1621.5
477.596	1615.5
483.29	1595.5
488.978	1601.5
494.66	1563.5
500.335	1571.5
506.005	1499.5
511.668	1447.5
517.325	1394.5
522.977	1359.5
528.622	1318.5
534.261	1292.5
539.894	1275.5
545.521	1258.5
551.141	1246.5
556.756	1229.5
562.365	1218.5
567.968	1205.5
573.565	1203.5
579.155	1195.5
584.74	1194.5
590.319	1181.5
595.892	1189.5
601.459	1191.5
607.02	1166.5
612.575	1182.5
618.124	1157.5
623.667	1144.5
629.204	1124.5
634.735	1109.5
640.261	1127.5
645.781	1099.5
651.294	1100.5
656.802	1098.5
662.304	1106.5
667.8	1087.5
673.29	1095.5
678.775	1094.5
684.254	1090.5
689.726	1072.5
695.193	1071.5
700.655	1066.5
706.11	1070.5
711.56	1042.5
717.004	1062.5
722.442	1046.5
727.874	1033.5
733.301	1034.5
738.722	1017.5
744.137	1051.5
749.547	1035.5
754.951	1016.5
760.349	1013.5
765.741	1038.5
771.128	1039.5
776.509	1037.5
781.885	1055.5
787.254	1060.5
792.618	1066.5
797.977	1062.5
803.33	1054.5
808.677	1038.5
814.019	1030.5
819.355	1027.5
824.686	1021.5
830.011	1012.5
835.33	1013.5
840.644	992.5
845.952	1005.5
851.255	996.5
856.552	1004.5
861.844	975.5
867.13	972.5
872.41	973.5
877.686	971.5
882.955	970.5
888.219	963.5
893.478	937.5
898.731	916.5
903.979	915.5
909.221	898.5
914.458	893.5
919.69	890.5
924.916	904.5
930.136	910.5
935.351	905.5
940.561	901.5
945.766	906.5
950.965	894.5
956.158	903.5
961.347	875.5
966.529	864.5
971.707	853.5
976.879	844.5
982.046	841.5
987.208	843.5
992.364	824.5
997.515	854.5
1002.66	828.5
1007.801	856.5
1012.936	858.5
1018.066	865.5
1023.19	865.5
1028.309	865.5
1033.423	862.5
1038.532	867.5
1043.636	849.5
1048.734	847.5
1053.827	827.5
1058.915	838.5
1063.998	827.5
1069.075	807.5
1074.147	816.5
1079.214	817.5
1084.276	818.5
1089.333	816.5
1094.385	826.5
1099.431	822.5
1104.472	816.5
1109.509	800.5
1114.54	798.5
1119.565	797.5
1124.586	782.5
1129.602	771.5
1134.613	768.5
1139.618	765.5
1144.619	760.5
1149.614	766.5
1154.604	754.5
1159.589	777.5
1164.57	757.5
1169.545	755.5
1174.515	772.5
1179.48	763.5
1184.44	767.5
1189.395	758.5
1194.345	743.5
1199.29	732.5
1204.23	743.5
1209.165	746.5
1214.095	755.5
1219.021	755.5
1223.941	755.5
1228.856	765.5
1233.766	767.5
1238.672	768.5
1243.572	759.5
1248.467	753.5
1253.358	739.5
1258.244	730.5
1263.124	724.5
1268	710.5
1272.871	709.5
1277.737	686.5
1282.599	687.5
1287.455	690.5
1292.306	690.5
1297.153	697.5
1301.995	710.5
1306.832	709.5
1311.664	707.5
1316.491	697.5
1321.314	695.5
1326.132	695.5
1330.945	689.5
1335.753	673.5
1340.556	667.5
1345.354	648.5
1350.148	649.5
1354.937	620.5
1359.722	616.5
1364.501	584.5
1369.276	594.5
1374.046	595.5
1378.811	579.5
1383.572	579.5
1388.327	569.5
1393.079	574.5
1397.825	590.5
1402.567	581.5
1407.304	584.5
1412.036	583.5
1416.764	571.5
1421.487	584.5
1426.205	586.5
1430.919	580.5
1435.628	589.5
1440.333	590.5
1445.032	590.5
1449.727	610.5
1454.418	610.5
1459.104	597.5
1463.785	590.5
1468.462	585.5
1473.134	558.5
1477.802	554.5
1482.465	529.5
1487.123	528.5
1491.777	519.5
1496.426	497.5
1501.071	511.5
1505.711	499.5
1510.347	497.5
1514.978	493.5
1519.604	488.5
1524.226	495.5
1528.844	490.5
1533.457	485.5
1538.065	478.5
1542.669	475.5
1547.269	487.5
1551.864	493.5
1556.454	501.5
1561.041	503.5
1565.622	512.5
1570.199	506.5
1574.772	489.5
1579.34	518.5
1583.904	510.5
1588.464	528.5
1593.019	529.5
1597.569	524.5
1602.115	518.5
1606.657	528.5
1611.195	520.5
1615.728	522.5
1620.256	524.5
1624.78	525.5
1629.3	517.5
1633.816	515.5
1638.327	530.5
1642.834	520.5
1647.336	518.5
1651.834	520.5
1656.328	516.5
1660.817	512.5
1665.302	503.5
1669.783	493.5
1674.259	474.5
1678.732	481.5
1683.199	456.5
1687.663	452.5
1692.122	420.5
1696.577	393.5
1701.028	392.5
1705.474	373.5
1709.917	359.5
1714.355	349.5
1718.788	359.5
1723.218	359.5
1727.643	357.5
1732.064	349.5
1736.481	348.5
1740.893	331.5
1745.301	338.5
1749.705	330.5
1754.105	320.5
1758.501	309.5
1762.893	316.5
1767.28	296.5
1771.663	297.5
1776.042	309.5
1780.417	296.5
1784.787	296.5
1789.154	279.5
1793.516	266.5
1797.874	272.5
1802.228	271.5
1806.578	264.5
1810.924	258.5
1815.266	253.5
1819.603	261.5
1823.937	260.5
1828.266	266.5
1832.591	265.5
1836.913	262.5
1841.23	269.5
1845.543	263.5
1849.852	267.5
1854.156	271.5
1858.457	263.5
1862.754	274.5
1867.047	276.5
1871.335	266.5
1875.62	271.5
1879.9	274.5
1884.177	264.5
1888.449	256.5
1892.718	257.5
1896.982	261.5
1901.243	236.5
1905.499	238.5
1909.752	229.5
1914	232.5
1918.245	222.5
1922.485	223.5
1926.722	214.5
1930.954	219.5
1935.183	226.5
1939.408	225.5
1943.628	208.5
1947.845	216.5
1952.058	211.5
1956.267	216.5
1960.472	210.5
1964.673	197.5
1968.87	199.5
1973.063	206.5
1977.252	203.5
1981.438	199.5
1985.619	195.5
1989.797	206.5
1993.971	208.5
1998.14	204.5
2002.306	211.5
2006.469	207.5
2010.627	202.5
2014.781	212.5
2018.932	201.5
2023.078	210.5
2027.221	200.5
2031.36	193.5
2035.495	192.5
2039.627	188.5
2043.754	187.5
2047.878	186.5
2051.998	195.5
2056.114	189.5
2060.226	183.5
2064.334	193.5
2068.439	178.5
2072.54	178.5
2076.637	184.5
2080.73	178.5
2084.82	182.5
2088.906	174.5
2092.988	173.5
2097.066	172.5
2101.14	167.5
2105.211	168.5
2109.278	160.5
2113.342	155.5
2117.401	154.5
2121.457	165.5
2125.509	155.5
2129.558	156.5
2133.602	154.5
2137.643	158.5
2141.681	152.5
2145.714	163.5
2149.744	166.5
2153.77	167.5
2157.793	165.5
2161.812	164.5
2165.827	159.5
2169.838	148.5
2173.846	148.5
2177.851	153.5
2181.851	150.5
2185.848	145.5
2189.841	140.5
2193.831	140.5
2197.817	135.5
2201.799	146.5
2205.778	135.5
2209.753	141.5
2213.725	138.5
2217.693	144.5
2221.657	146.5
2225.618	144.5
2229.575	139.5
2233.529	132.5
2237.479	152.5
2241.425	128.5
2245.368	134.5
2249.307	130.5
2253.243	128.5
2257.175	123.5
2261.104	117.5
2265.029	125.5
2268.95	126.5
2272.868	117.5
2276.783	112.5
2280.694	111.5
2284.601	109.5
2288.505	116.5
2292.405	116.5
2296.302	120.5
2300.195	113.5
2304.085	109.5
2307.971	105.5
2311.854	107.5
2315.734	100.5
2319.609	111.5
2323.482	110.5
2327.351	109.5
2331.216	117.5
2335.078	122.5
2338.937	115.5
2342.792	104.5
2346.643	104.5
2350.492	104.5
2354.336	108.5
2358.178	99.5
2362.015	103.5
2365.85	104.5
2369.681	112.5
2373.508	108.5
2377.333	104.5
2381.153	111.5
2384.971	103.5
2388.785	100.5
2392.595	101.5
2396.402	112.5
2400.206	99.5
2404.007	101.5
2407.804	102.5
2411.597	103.5
2415.388	99.5
2419.174	108.5
2422.958	96.5
2426.738	105.5
2430.515	101.5
2434.289	97.5
2438.059	83.5
2441.825	92.5
2445.589	96.5
2449.349	86.5
2453.106	96.5
2456.859	90.5
2460.61	89.5
2464.356	81.5
2468.1	87.5
2471.84	81.5
2475.577	79.5
2479.311	81.5
2483.041	82.5
2486.768	82.5
2490.492	86.5
2494.213	82.5
2497.93	76.5
2501.644	77.5
2505.355	75.5
2509.062	79.5
2512.766	72.5
2516.467	68.5
2520.165	79.5
2523.859	78.5
2527.551	63.5
2531.239	67.5
2534.923	60.5
2538.605	62.5
2542.283	66.5
2545.958	68.5
2549.63	65.5
2553.299	63.5
2556.964	55.5
2560.626	55.5
2564.285	58.5
2567.941	61.5
2571.594	56.5
2575.243	57.5
2578.89	52.5
2582.533	52.5
2586.173	49.5
2589.809	52.5
2593.443	61.5
2597.073	54.5
2600.701	59.5
2604.325	48.5
2607.946	42.5
2611.564	51.5
2615.178	48.5
2618.79	51.5
2622.398	53.5
2626.004	56.5
2629.606	41.5
2633.205	43.5
2636.801	46.5
2640.394	51.5
2643.983	43.5
2647.57	44.5
2651.153	38.5
2654.734	42.5
2658.311	45.5
2661.885	49.5
2665.456	45.5
2669.025	49.5
2672.589	40.5
2676.151	39.5
2679.71	32.5
2683.266	36.5
2686.819	37.5
2690.368	34.5
2693.915	37.5
2697.458	32.5
2700.999	37.5
2704.536	40.5
2708.071	34.5
2711.602	33.5
2715.13	27.5
2718.656	35.5
2722.178	31.5
2725.697	30.5
2729.214	23.5
2732.727	36.5
2736.237	30.5
2739.744	21.5
2743.249	24.5
2746.75	23.5
2750.248	21.5
2753.743	22.5
2757.236	17.5
2760.725	16.5
2764.211	22.5
2767.695	11.5
2771.175	15.5
2774.652	17.5
2778.127	20.5
2781.598	17.5
2785.067	19.5
2788.532	21.5
2791.995	18.5
2795.455	15.5
2798.911	12.5
2802.365	24.5
2805.816	16.5
2809.264	16.5
2812.709	13.5
2816.151	19.5
2819.59	26.5
2823.026	15.5
2826.46	21.5
2829.89	17.5
2833.318	15.5
2836.742	20.5
2840.164	14.5
2843.583	18.5
2846.999	25.5
2850.412	20.5
2853.822	18.5
2857.229	21.5
2860.634	14.5
2864.035	18.5
2867.434	21.5
2870.83	21.5
2874.223	22.5
2877.613	23.5
2881	24.5
2884.385	27.5
2887.766	28.5
2891.145	29.5
2894.521	33.5
2897.894	34.5
2901.264	34.5
2904.631	24.5
2907.996	26.5
2911.358	31.5
2914.717	26.5
2918.073	28.5
2921.426	21.5
2924.777	29.5
2928.124	35.5
2931.469	36.5
2934.811	45.5
2938.15	44.5
2941.487	48.5
2944.821	42.5
2948.152	45.5
2951.48	40.5
2954.805	42.5
2958.128	40.5
2961.447	48.5
2964.765	39.5
2968.079	32.5
2971.39	37.5
2974.699	33.5
2978.005	41.5
2981.308	37.5
2984.609	36.5
2987.907	35.5
2991.202	39.5
2994.494	43.5
2997.784	33.5
3001.07	41.5
3004.355	41.5
3007.636	41.5
3010.915	44.5
3014.191	42.5
3017.464	40.5
3020.734	40.5
3024.002	46.5
3027.267	43.5
3030.53	46.5
3033.789	45.5
3037.046	45.5
3040.301	45.5
3043.552	46.5
3046.801	53.5
3050.048	56.5
3053.291	55.5
3056.532	55.5
3059.771	69.5
3063.006	65.5
3066.239	67.5
3069.469	75.5
3072.697	73.5
3075.922	77.5
3079.144	68.5
3082.364	81.5
3085.581	72.5
3088.795	88.5
3092.007	85.5
3095.216	88.5
3098.423	82.5
3101.627	81.5
3104.828	100.5
3108.026	106.5
3111.222	99.5
3114.416	105.5
3117.607	111.5
3120.795	104.5
3123.98	103.5
3127.163	113.5
3130.344	113.5
3133.521	109.5
3136.696	118.5
3139.869	120.5
3143.039	118.5
3146.206	127.5
3149.371	121.5
3152.533	133.5
3155.693	143.5
3158.85	130.5
3162.005	134.5
3165.157	132.5
3168.306	132.5
3171.453	136.5
3174.597	126.5
3177.739	136.5
3180.878	138.5
3184.014	137.5
3187.149	134.5
3190.28	135.5
3193.409	135.5
3196.536	137.5
3199.659	132.5
3202.781	137.5
3205.9	131.5
3209.016	122.5
3212.13	140.5
3215.241	140.5
3218.35	135.5
3221.456	136.5
3224.56	126.5
3227.661	129.5
3230.76	123.5
3233.856	126.5
3236.95	111.5
3240.041	112.5
3243.13	122.5
3246.216	111.5
3249.3	111.5
3252.382	114.5
3255.46	115.5
3258.537	108.5
3261.611	98.5
3264.682	104.5
3267.751	99.5
3270.818	94.5
3273.882	97.5
3276.943	100.5
3280.002	94.5
3283.059	103.5
3286.113	98.5
3289.165	95.5
3292.214	95.5
3295.261	96.5
3298.306	94.5
3301.348	95.5
3304.387	89.5
3307.425	87.5
3310.459	83.5
3313.492	87.5
3316.521	71.5
3319.549	94.5
3322.574	88.5
3325.597	86.5
3328.617	87.5
3331.635	97.5
3334.65	96.5
3337.663	76.5
3340.674	91.5
3343.682	87.5
3346.688	80.5
3349.691	89.5
3352.692	89.5
3355.691	91.5
3358.687	90.5
3361.681	85.5
3364.673	85.5
3367.662	87.5
3370.649	83.5
3373.633	78.5
3376.615	72.5
3379.595	73.5
3382.572	71.5
3385.547	81.5
3388.52	75.5
3391.49	72.5
3394.458	64.5
3397.424	65.5
3400.387	71.5
3403.348	62.5
3406.307	54.5
3409.263	61.5
3412.217	56.5
3415.168	64.5
3418.118	53.5
3421.065	61.5
3424.009	57.5
3426.951	59.5
3429.891	51.5
3432.829	48.5
3435.764	61.5
3438.697	53.5
3441.628	42.5
3444.557	45.5
3447.483	48.5
3450.407	34.5
3453.328	38.5
3456.247	34.5
3459.164	35.5
3462.079	20.5
3464.991	28.5
3467.902	25.5
3470.809	22.5
3473.715	18.5
3476.618	19.5
3479.519	14.5
3482.418	13.5
3485.315	16.5
3488.209	8.5
3491.101	10.5
3493.99	15.5
3496.878	11.5
3499.763	-0.5
3502.646	1.5
3505.527	0.5
3508.405	3.5
3511.281	-3.5
3514.155	-2.5
3517.027	-11.5
3519.897	-2.5
3522.764	-7.5
3525.629	-3.5
3528.492	-10.5
3531.352	-14.5
3534.211	-14.5
3537.067	-15.5
3539.921	-14.5
3542.773	-18.5
3545.622	-15.5
3548.469	-16.5
3551.315	-16.5
3554.157	-22.5
3556.998	-19.5
3559.837	-22.5
3562.673	-30.5
3565.507	-25.5
3568.339	-23.5
3571.169	-27.5
3573.996	-26.5
3576.822	-37.5
3579.645	-29.5
3582.466	-22.5
3585.285	-29.5
3588.101	-28.5
3590.916	-26.5
3593.728	-35.5
3596.538	-34.5
3599.346	-31.5
3602.152	-30.5
3604.956	-36.5
3607.757	-33.5
3610.556	-37.5
3613.354	-42.5
3616.149	-37.5
3618.942	-37.5
3621.732	-40.5
3624.521	-34.5
3627.307	-37.5
3630.092	-42.5
3632.874	-41.5
3635.654	-41.5
3638.432	-36.5
3641.208	-40.5
3643.982	-33.5
3646.753	-39.5
3649.523	-41.5
3652.29	-44.5
3655.055	-38.5
3657.818	-50.5
3660.579	-45.5
3663.338	-39.5
3666.095	-46.5
3668.849	-53.5
3671.602	-44.5
3674.352	-44.5
3677.101	-45.5
3679.847	-42.5
3682.591	-48.5
3685.333	-41.5
3688.073	-41.5
3690.811	-39.5
3693.547	-52.5
3696.281	-43.5
3699.013	-46.5
3701.742	-52.5
3704.47	-41.5
3707.195	-53.5
3709.919	-47.5
3712.64	-49.5
3715.359	-53.5
3718.076	-50.5
3720.792	-51.5
3723.505	-46.5
3726.216	-48.5
3728.925	-51.5
3731.632	-46.5
3734.336	-49.5
3737.039	-45.5
3739.74	-48.5
3742.439	-48.5
3745.136	-51.5
3747.83	-47.5
3750.523	-53.5
3753.213	-61.5
3755.902	-54.5
3758.589	-52.5
3761.273	-50.5
3763.956	-52.5
3766.636	-47.5
3769.315	-46.5
3771.991	-47.5
3774.665	-53.5
3777.338	-50.5
3780.008	-50.5
3782.677	-53.5
3785.343	-47.5
3788.007	-47.5
3790.67	-52.5
3793.33	-51.5
3795.989	-51.5
3798.645	-54.5
3801.299	-53.5
3803.952	-52.5
3806.602	-57.5
3809.251	-55.5
3811.897	-57.5
3814.542	-60.5
3817.184	-53.5
3819.825	-46.5
3822.463	-48.5
3825.1	-47.5
3827.735	-53.5
3830.367	-53.5
3832.998	-56.5
3835.627	-51.5
3838.253	-53.5
3840.878	-50.5
3843.501	-49.5
3846.122	-54.5
3848.741	-51.5
3851.358	-53.5
3853.973	-44.5
3856.586	-48.5
3859.197	-52.5
3861.806	-50.5
3864.414	-52.5
3867.019	-51.5
3869.622	-43.5
3872.224	-44.5
3874.823	-33.5
3877.421	-26.5
3880.016	-17.5
3882.61	-1.5
3885.202	-3.5
3887.792	-8.5
3890.38	-28.5
3892.966	-40.5
3895.55	-49.5
3898.132	-51.5
3900.713	-48.5
3903.291	-53.5
3905.868	-45.5
3908.442	-51.5
3911.015	-48.5
3913.586	-51.5
3916.155	-49.5
3918.722	-52.5
3921.287	-59.5
3923.85	-48.5
3926.411	-55.5
3928.971	-64.5
3931.528	-56.5
3934.084	-52.5
3936.638	-51.5
3939.19	-61.5
3941.74	-52.5
3944.288	-56.5
3946.834	-48.5
3949.378	-52.5
3951.921	-51.5
3954.462	-52.5
3957	-47.5
3959.537	-46.5
3962.072	-49.5
3964.606	-53.5
3967.137	-47.5
3969.667	-56.5
3972.194	-54.5
3974.72	-50.5
3977.244	-53.5
3979.766	-53.5
3982.286	-55.5
3984.805	-60.5
3987.321	-52.5
3989.836	-43.5
3992.349	-48.5
3994.86	-54.5
3997.369	-52.5
3999.877	-55.5
4002.382	-54.5
4004.886	-49.5
4007.388	-57.5
4009.888	-53.5
4012.386	-57.5
4014.883	-50.5
4017.377	-50.5
4019.87	-54.5
4022.361	-54.5
4024.85	-54.5
4027.338	-50.5
4029.823	-56.5
4032.307	-53.5
4034.789	-48.5
4037.269	-51.5
4039.747	-54.5
4042.224	-56.5
4044.699	-56.5
4047.172	-59.5
4049.643	-57.5
4052.112	-50.5
4054.58	-55.5
4057.046	-49.5
4059.51	-56.5
4061.972	-57.5
4064.432	-52.5
4066.891	-47.5
4069.348	-47.5
4071.803	-44.5
4074.256	-49.5
4076.708	-49.5
4079.158	-55.5
4081.606	-51.5
4084.052	-56.5
4086.497	-49.5
4088.939	-49.5
4091.38	-61.5
4093.819	-57.5
4096.257	-57.5
4098.693	-60.5
4101.127	-51.5
4103.559	-57.5
4105.989	20.5
4108.418	12.5
4110.845	13.5
4113.27	10.5
4115.694	15.5
4118.115	13.5
4120.535	-52.5
4122.954	-50.5
4125.37	-50.5
4127.785	-52.5
4130.198	-48.5
4132.609	-54.5
4135.019	-51.5
4137.427	-55.5
4139.833	-53.5
4142.237	-55.5
