Data from 2018-3-7_conc=4_n=4_RamanShift_01.txt Node
Date: Wed Mar 07 11:57:52 IST 2018
User: aro
Spectrometer: QEPB0276
Trigger mode: 0
Integration Time (sec): 3.000000E1
Scans to average: 1
Electric dark correction enabled: true
Nonlinearity correction enabled: false
Boxcar width: 0
XAxis mode: Raman Shifts
Number of Pixels in Spectrum: 1044
>>>>>Begin Spectral Data<<<<<
160.701	20.8
166.742	21.8
172.777	49.8
178.805	133.8
184.826	348.8
190.841	734.8
196.849	1222.8
202.85	1603.8
208.845	1737.8
214.833	1737.8
220.815	1720.8
226.789	1707.8
232.758	1723.8
238.719	1715.8
244.674	1689.8
250.623	1712.8
256.565	1677.8
262.5	1655.8
268.429	1643.8
274.351	1628.8
280.267	1615.8
286.176	1615.8
292.079	1616.8
297.975	1618.8
303.865	1626.8
309.748	1619.8
315.625	1610.8
321.495	1599.8
327.359	1609.8
333.217	1616.8
339.068	1620.8
344.912	1621.8
350.751	1623.8
356.583	1612.8
362.408	1635.8
368.227	1648.8
374.04	1636.8
379.847	1652.8
385.647	1661.8
391.44	1659.8
397.228	1667.8
403.009	1672.8
408.784	1685.8
414.553	1690.8
420.315	1700.8
426.071	1699.8
431.821	1701.8
437.565	1669.8
443.302	1685.8
449.033	1666.8
454.758	1686.8
460.477	1655.8
466.189	1661.8
471.896	1636.8
477.596	1643.8
483.29	1631.8
488.978	1608.8
494.66	1606.8
500.335	1575.8
506.005	1528.8
511.668	1468.8
517.325	1423.8
522.977	1368.8
528.622	1331.8
534.261	1304.8
539.894	1295.8
545.521	1286.8
551.141	1266.8
556.756	1259.8
562.365	1250.8
567.968	1233.8
573.565	1232.8
579.155	1213.8
584.74	1223.8
590.319	1219.8
595.892	1224.8
601.459	1221.8
607.02	1193.8
612.575	1198.8
618.124	1185.8
623.667	1151.8
629.204	1139.8
634.735	1142.8
640.261	1128.8
645.781	1121.8
651.294	1117.8
656.802	1118.8
662.304	1114.8
667.8	1110.8
673.29	1107.8
678.775	1105.8
684.254	1111.8
689.726	1095.8
695.193	1089.8
700.655	1088.8
706.11	1075.8
711.56	1070.8
717.004	1065.8
722.442	1055.8
727.874	1057.8
733.301	1048.8
738.722	1045.8
744.137	1044.8
749.547	1047.8
754.951	1049.8
760.349	1043.8
765.741	1056.8
771.128	1049.8
776.509	1063.8
781.885	1062.8
787.254	1079.8
792.618	1069.8
797.977	1065.8
803.33	1057.8
808.677	1045.8
814.019	1054.8
819.355	1036.8
824.686	1020.8
830.011	1008.8
835.33	1016.8
840.644	1016.8
845.952	1004.8
851.255	1000.8
856.552	997.8
861.844	997.8
867.13	988.8
872.41	984.8
877.686	975.8
882.955	983.8
888.219	961.8
893.478	968.8
898.731	925.8
903.979	936.8
909.221	911.8
914.458	896.8
919.69	906.8
924.916	908.8
930.136	902.8
935.351	921.8
940.561	909.8
945.766	916.8
950.965	915.8
956.158	908.8
961.347	887.8
966.529	878.8
971.707	860.8
976.879	856.8
982.046	834.8
987.208	847.8
992.364	829.8
997.515	832.8
1002.66	858.8
1007.801	871.8
1012.936	867.8
1018.066	872.8
1023.19	870.8
1028.309	872.8
1033.423	862.8
1038.532	867.8
1043.636	861.8
1048.734	852.8
1053.827	840.8
1058.915	828.8
1063.998	827.8
1069.075	830.8
1074.147	826.8
1079.214	822.8
1084.276	833.8
1089.333	829.8
1094.385	837.8
1099.431	827.8
1104.472	834.8
1109.509	820.8
1114.54	809.8
1119.565	793.8
1124.586	789.8
1129.602	769.8
1134.613	772.8
1139.618	767.8
1144.619	753.8
1149.614	758.8
1154.604	763.8
1159.589	777.8
1164.57	781.8
1169.545	778.8
1174.515	776.8
1179.48	782.8
1184.44	762.8
1189.395	765.8
1194.345	752.8
1199.29	747.8
1204.23	745.8
1209.165	749.8
1214.095	758.8
1219.021	754.8
1223.941	762.8
1228.856	763.8
1233.766	760.8
1238.672	766.8
1243.572	765.8
1248.467	765.8
1253.358	765.8
1258.244	746.8
1263.124	733.8
1268	715.8
1272.871	718.8
1277.737	692.8
1282.599	706.8
1287.455	706.8
1292.306	699.8
1297.153	696.8
1301.995	706.8
1306.832	704.8
1311.664	714.8
1316.491	707.8
1321.314	708.8
1326.132	712.8
1330.945	692.8
1335.753	678.8
1340.556	663.8
1345.354	649.8
1350.148	641.8
1354.937	635.8
1359.722	609.8
1364.501	598.8
1369.276	590.8
1374.046	585.8
1378.811	585.8
1383.572	577.8
1388.327	578.8
1393.079	580.8
1397.825	576.8
1402.567	571.8
1407.304	588.8
1412.036	590.8
1416.764	580.8
1421.487	583.8
1426.205	584.8
1430.919	584.8
1435.628	589.8
1440.333	597.8
1445.032	591.8
1449.727	610.8
1454.418	596.8
1459.104	600.8
1463.785	590.8
1468.462	580.8
1473.134	564.8
1477.802	539.8
1482.465	540.8
1487.123	521.8
1491.777	514.8
1496.426	513.8
1501.071	503.8
1505.711	502.8
1510.347	501.8
1514.978	498.8
1519.604	491.8
1524.226	485.8
1528.844	484.8
1533.457	480.8
1538.065	492.8
1542.669	490.8
1547.269	482.8
1551.864	480.8
1556.454	494.8
1561.041	496.8
1565.622	513.8
1570.199	496.8
1574.772	504.8
1579.34	510.8
1583.904	516.8
1588.464	523.8
1593.019	532.8
1597.569	525.8
1602.115	532.8
1606.657	525.8
1611.195	524.8
1615.728	528.8
1620.256	522.8
1624.78	522.8
1629.3	520.8
1633.816	519.8
1638.327	521.8
1642.834	512.8
1647.336	514.8
1651.834	514.8
1656.328	526.8
1660.817	526.8
1665.302	518.8
1669.783	496.8
1674.259	485.8
1678.732	475.8
1683.199	455.8
1687.663	441.8
1692.122	420.8
1696.577	405.8
1701.028	393.8
1705.474	369.8
1709.917	372.8
1714.355	356.8
1718.788	348.8
1723.218	352.8
1727.643	352.8
1732.064	357.8
1736.481	350.8
1740.893	338.8
1745.301	333.8
1749.705	326.8
1754.105	320.8
1758.501	305.8
1762.893	308.8
1767.28	304.8
1771.663	293.8
1776.042	294.8
1780.417	282.8
1784.787	278.8
1789.154	279.8
1793.516	266.8
1797.874	258.8
1802.228	268.8
1806.578	262.8
1810.924	262.8
1815.266	264.8
1819.603	257.8
1823.937	260.8
1828.266	261.8
1832.591	275.8
1836.913	264.8
1841.23	261.8
1845.543	256.8
1849.852	269.8
1854.156	264.8
1858.457	268.8
1862.754	277.8
1867.047	256.8
1871.335	262.8
1875.62	256.8
1879.9	262.8
1884.177	264.8
1888.449	254.8
1892.718	258.8
1896.982	248.8
1901.243	240.8
1905.499	236.8
1909.752	239.8
1914	230.8
1918.245	228.8
1922.485	218.8
1926.722	212.8
1930.954	209.8
1935.183	210.8
1939.408	210.8
1943.628	203.8
1947.845	203.8
1952.058	207.8
1956.267	205.8
1960.472	205.8
1964.673	196.8
1968.87	207.8
1973.063	201.8
1977.252	199.8
1981.438	206.8
1985.619	198.8
1989.797	204.8
1993.971	209.8
1998.14	207.8
2002.306	203.8
2006.469	202.8
2010.627	194.8
2014.781	205.8
2018.932	195.8
2023.078	197.8
2027.221	198.8
2031.36	200.8
2035.495	188.8
2039.627	180.8
2043.754	191.8
2047.878	182.8
2051.998	185.8
2056.114	180.8
2060.226	178.8
2064.334	185.8
2068.439	179.8
2072.54	180.8
2076.637	173.8
2080.73	182.8
2084.82	166.8
2088.906	169.8
2092.988	166.8
2097.066	168.8
2101.14	169.8
2105.211	168.8
2109.278	166.8
2113.342	156.8
2117.401	163.8
2121.457	163.8
2125.509	154.8
2129.558	157.8
2133.602	153.8
2137.643	150.8
2141.681	154.8
2145.714	156.8
2149.744	157.8
2153.77	155.8
2157.793	158.8
2161.812	161.8
2165.827	153.8
2169.838	145.8
2173.846	144.8
2177.851	146.8
2181.851	151.8
2185.848	143.8
2189.841	144.8
2193.831	143.8
2197.817	145.8
2201.799	148.8
2205.778	140.8
2209.753	143.8
2213.725	140.8
2217.693	147.8
2221.657	134.8
2225.618	134.8
2229.575	142.8
2233.529	138.8
2237.479	137.8
2241.425	127.8
2245.368	132.8
2249.307	127.8
2253.243	129.8
2257.175	127.8
2261.104	124.8
2265.029	121.8
2268.95	122.8
2272.868	121.8
2276.783	115.8
2280.694	107.8
2284.601	115.8
2288.505	119.8
2292.405	110.8
2296.302	121.8
2300.195	114.8
2304.085	106.8
2307.971	105.8
2311.854	105.8
2315.734	101.8
2319.609	106.8
2323.482	105.8
2327.351	105.8
2331.216	119.8
2335.078	130.8
2338.937	119.8
2342.792	108.8
2346.643	106.8
2350.492	108.8
2354.336	104.8
2358.178	100.8
2362.015	106.8
2365.85	102.8
2369.681	110.8
2373.508	104.8
2377.333	108.8
2381.153	105.8
2384.971	99.8
2388.785	98.8
2392.595	99.8
2396.402	98.8
2400.206	99.8
2404.007	97.8
2407.804	105.8
2411.597	103.8
2415.388	103.8
2419.174	101.8
2422.958	104.8
2426.738	101.8
2430.515	99.8
2434.289	101.8
2438.059	92.8
2441.825	90.8
2445.589	92.8
2449.349	85.8
2453.106	84.8
2456.859	93.8
2460.61	87.8
2464.356	91.8
2468.1	83.8
2471.84	86.8
2475.577	82.8
2479.311	90.8
2483.041	86.8
2486.768	83.8
2490.492	81.8
2494.213	74.8
2497.93	77.8
2501.644	78.8
2505.355	73.8
2509.062	73.8
2512.766	76.8
2516.467	65.8
2520.165	76.8
2523.859	71.8
2527.551	65.8
2531.239	72.8
2534.923	65.8
2538.605	65.8
2542.283	57.8
2545.958	62.8
2549.63	64.8
2553.299	65.8
2556.964	56.8
2560.626	66.8
2564.285	60.8
2567.941	60.8
2571.594	58.8
2575.243	56.8
2578.89	55.8
2582.533	52.8
2586.173	49.8
2589.809	57.8
2593.443	60.8
2597.073	51.8
2600.701	53.8
2604.325	51.8
2607.946	39.8
2611.564	45.8
2615.178	46.8
2618.79	46.8
2622.398	51.8
2626.004	44.8
2629.606	47.8
2633.205	41.8
2636.801	45.8
2640.394	57.8
2643.983	42.8
2647.57	45.8
2651.153	37.8
2654.734	40.8
2658.311	39.8
2661.885	44.8
2665.456	46.8
2669.025	37.8
2672.589	37.8
2676.151	40.8
2679.71	33.8
2683.266	35.8
2686.819	45.8
2690.368	34.8
2693.915	40.8
2697.458	36.8
2700.999	37.8
2704.536	35.8
2708.071	38.8
2711.602	34.8
2715.13	28.8
2718.656	29.8
2722.178	34.8
2725.697	28.8
2729.214	28.8
2732.727	31.8
2736.237	26.8
2739.744	22.8
2743.249	25.8
2746.75	21.8
2750.248	22.8
2753.743	23.8
2757.236	24.8
2760.725	27.8
2764.211	17.8
2767.695	15.8
2771.175	19.8
2774.652	15.8
2778.127	19.8
2781.598	16.8
2785.067	14.8
2788.532	10.8
2791.995	19.8
2795.455	17.8
2798.911	18.8
2802.365	14.8
2805.816	18.8
2809.264	22.8
2812.709	14.8
2816.151	16.8
2819.59	33.8
2823.026	22.8
2826.46	18.8
2829.89	22.8
2833.318	14.8
2836.742	23.8
2840.164	20.8
2843.583	16.8
2846.999	23.8
2850.412	26.8
2853.822	19.8
2857.229	21.8
2860.634	22.8
2864.035	21.8
2867.434	17.8
2870.83	23.8
2874.223	28.8
2877.613	24.8
2881	30.8
2884.385	30.8
2887.766	34.8
2891.145	30.8
2894.521	29.8
2897.894	35.8
2901.264	31.8
2904.631	26.8
2907.996	29.8
2911.358	38.8
2914.717	29.8
2918.073	27.8
2921.426	27.8
2924.777	33.8
2928.124	37.8
2931.469	35.8
2934.811	50.8
2938.15	43.8
2941.487	52.8
2944.821	38.8
2948.152	46.8
2951.48	44.8
2954.805	49.8
2958.128	43.8
2961.447	44.8
2964.765	32.8
2968.079	38.8
2971.39	42.8
2974.699	33.8
2978.005	43.8
2981.308	34.8
2984.609	35.8
2987.907	36.8
2991.202	38.8
2994.494	34.8
2997.784	41.8
3001.07	44.8
3004.355	40.8
3007.636	40.8
3010.915	41.8
3014.191	40.8
3017.464	46.8
3020.734	49.8
3024.002	47.8
3027.267	46.8
3030.53	53.8
3033.789	47.8
3037.046	47.8
3040.301	47.8
3043.552	51.8
3046.801	57.8
3050.048	60.8
3053.291	58.8
3056.532	64.8
3059.771	61.8
3063.006	71.8
3066.239	70.8
3069.469	77.8
3072.697	80.8
3075.922	90.8
3079.144	74.8
3082.364	84.8
3085.581	79.8
3088.795	86.8
3092.007	93.8
3095.216	93.8
3098.423	96.8
3101.627	97.8
3104.828	103.8
3108.026	103.8
3111.222	104.8
3114.416	111.8
3117.607	113.8
3120.795	116.8
3123.98	114.8
3127.163	130.8
3130.344	124.8
3133.521	118.8
3136.696	125.8
3139.869	130.8
3143.039	135.8
3146.206	131.8
3149.371	131.8
3152.533	137.8
3155.693	144.8
3158.85	143.8
3162.005	149.8
3165.157	151.8
3168.306	135.8
3171.453	148.8
3174.597	140.8
3177.739	151.8
3180.878	145.8
3184.014	134.8
3187.149	149.8
3190.28	144.8
3193.409	140.8
3196.536	138.8
3199.659	147.8
3202.781	145.8
3205.9	145.8
3209.016	134.8
3212.13	138.8
3215.241	149.8
3218.35	148.8
3221.456	146.8
3224.56	132.8
3227.661	133.8
3230.76	133.8
3233.856	132.8
3236.95	127.8
3240.041	124.8
3243.13	130.8
3246.216	120.8
3249.3	108.8
3252.382	121.8
3255.46	115.8
3258.537	120.8
3261.611	113.8
3264.682	113.8
3267.751	113.8
3270.818	105.8
3273.882	114.8
3276.943	109.8
3280.002	115.8
3283.059	103.8
3286.113	98.8
3289.165	101.8
3292.214	96.8
3295.261	106.8
3298.306	103.8
3301.348	100.8
3304.387	97.8
3307.425	98.8
3310.459	87.8
3313.492	94.8
3316.521	97.8
3319.549	103.8
3322.574	93.8
3325.597	98.8
3328.617	98.8
3331.635	97.8
3334.65	105.8
3337.663	89.8
3340.674	95.8
3343.682	101.8
3346.688	94.8
3349.691	97.8
3352.692	94.8
3355.691	100.8
3358.687	84.8
3361.681	95.8
3364.673	89.8
3367.662	84.8
3370.649	100.8
3373.633	79.8
3376.615	89.8
3379.595	90.8
3382.572	82.8
3385.547	75.8
3388.52	83.8
3391.49	79.8
3394.458	75.8
3397.424	74.8
3400.387	72.8
3403.348	61.8
3406.307	69.8
3409.263	68.8
3412.217	67.8
3415.168	68.8
3418.118	67.8
3421.065	57.8
3424.009	60.8
3426.951	58.8
3429.891	61.8
3432.829	52.8
3435.764	60.8
3438.697	55.8
3441.628	44.8
3444.557	55.8
3447.483	53.8
3450.407	36.8
3453.328	40.8
3456.247	35.8
3459.164	33.8
3462.079	26.8
3464.991	29.8
3467.902	36.8
3470.809	27.8
3473.715	23.8
3476.618	23.8
3479.519	14.8
3482.418	20.8
3485.315	19.8
3488.209	10.8
3491.101	8.8
3493.99	12.8
3496.878	6.8
3499.763	-0.2
3502.646	6.8
3505.527	-1.2
3508.405	2.8
3511.281	4.8
3514.155	-1.2
3517.027	-10.2
3519.897	5.8
3522.764	-3.2
3525.629	-6.2
3528.492	-7.2
3531.352	-10.2
3534.211	-15.2
3537.067	-16.2
3539.921	-10.2
3542.773	-18.2
3545.622	-14.2
3548.469	-17.2
3551.315	-14.2
3554.157	-22.2
3556.998	-22.2
3559.837	-21.2
3562.673	-27.2
3565.507	-23.2
3568.339	-26.2
3571.169	-27.2
3573.996	-22.2
3576.822	-36.2
3579.645	-28.2
3582.466	-26.2
3585.285	-26.2
3588.101	-30.2
3590.916	-28.2
3593.728	-29.2
3596.538	-32.2
3599.346	-40.2
3602.152	-31.2
3604.956	-31.2
3607.757	-34.2
3610.556	-33.2
3613.354	-42.2
3616.149	-42.2
3618.942	-37.2
3621.732	-42.2
3624.521	-42.2
3627.307	-39.2
3630.092	-34.2
3632.874	-42.2
3635.654	-41.2
3638.432	-34.2
3641.208	-38.2
3643.982	-35.2
3646.753	-46.2
3649.523	-36.2
3652.29	-45.2
3655.055	-40.2
3657.818	-44.2
3660.579	-44.2
3663.338	-44.2
3666.095	-46.2
3668.849	-48.2
3671.602	-45.2
3674.352	-40.2
3677.101	-49.2
3679.847	-42.2
3682.591	-53.2
3685.333	-44.2
3688.073	-49.2
3690.811	-43.2
3693.547	-45.2
3696.281	-42.2
3699.013	-43.2
3701.742	-52.2
3704.47	-40.2
3707.195	-45.2
3709.919	-49.2
3712.64	-47.2
3715.359	-42.2
3718.076	-52.2
3720.792	-47.2
3723.505	-47.2
3726.216	-43.2
3728.925	-51.2
3731.632	-51.2
3734.336	-52.2
3737.039	-49.2
3739.74	-53.2
3742.439	-56.2
3745.136	-46.2
3747.83	-51.2
3750.523	-53.2
3753.213	-54.2
3755.902	-50.2
3758.589	-48.2
3761.273	-49.2
3763.956	-53.2
3766.636	-48.2
3769.315	-47.2
3771.991	-50.2
3774.665	-55.2
3777.338	-52.2
3780.008	-48.2
3782.677	-54.2
3785.343	-50.2
3788.007	-51.2
3790.67	-53.2
3793.33	-51.2
3795.989	-54.2
3798.645	-53.2
3801.299	-52.2
3803.952	-54.2
3806.602	-54.2
3809.251	-55.2
3811.897	-57.2
3814.542	-58.2
3817.184	-56.2
3819.825	-50.2
3822.463	-53.2
3825.1	-52.2
3827.735	-60.2
3830.367	-58.2
3832.998	-51.2
3835.627	-53.2
3838.253	-47.2
3840.878	-42.2
3843.501	-44.2
3846.122	-55.2
3848.741	-51.2
3851.358	-51.2
3853.973	-47.2
3856.586	-51.2
3859.197	-50.2
3861.806	-55.2
3864.414	-50.2
3867.019	-52.2
3869.622	-50.2
3872.224	-45.2
3874.823	-35.2
3877.421	-30.2
3880.016	-12.2
3882.61	-3.2
3885.202	2.8
3887.792	0.8
3890.38	-19.2
3892.966	-34.2
3895.55	-43.2
3898.132	-51.2
3900.713	-56.2
3903.291	-57.2
3905.868	-46.2
3908.442	-52.2
3911.015	-50.2
3913.586	-53.2
3916.155	-55.2
3918.722	-58.2
3921.287	-58.2
3923.85	-49.2
3926.411	-59.2
3928.971	-57.2
3931.528	-56.2
3934.084	-51.2
3936.638	-50.2
3939.19	-55.2
3941.74	-52.2
3944.288	-51.2
3946.834	-51.2
3949.378	-47.2
3951.921	-50.2
3954.462	-55.2
3957	-50.2
3959.537	-48.2
3962.072	-49.2
3964.606	-51.2
3967.137	-50.2
3969.667	-58.2
3972.194	-52.2
3974.72	-51.2
3977.244	-46.2
3979.766	-52.2
3982.286	-48.2
3984.805	-58.2
3987.321	-50.2
3989.836	-51.2
3992.349	-53.2
3994.86	-55.2
3997.369	-56.2
3999.877	-55.2
4002.382	-53.2
4004.886	-52.2
4007.388	-53.2
4009.888	-56.2
4012.386	-63.2
4014.883	-56.2
4017.377	-47.2
4019.87	-48.2
4022.361	-57.2
4024.85	-46.2
4027.338	-51.2
4029.823	-52.2
4032.307	-57.2
4034.789	-48.2
4037.269	-51.2
4039.747	-56.2
4042.224	-57.2
4044.699	-55.2
4047.172	-55.2
4049.643	-56.2
4052.112	-54.2
4054.58	-59.2
4057.046	-50.2
4059.51	-56.2
4061.972	-57.2
4064.432	-52.2
4066.891	-49.2
4069.348	-51.2
4071.803	-47.2
4074.256	-52.2
4076.708	-52.2
4079.158	-54.2
4081.606	-47.2
4084.052	-56.2
4086.497	-45.2
4088.939	-46.2
4091.38	-55.2
4093.819	-54.2
4096.257	-55.2
4098.693	-54.2
4101.127	-54.2
4103.559	-59.2
4105.989	19.8
4108.418	13.8
4110.845	4.8
4113.27	12.8
4115.694	14.8
4118.115	14.8
4120.535	-53.2
4122.954	-49.2
4125.37	-55.2
4127.785	-54.2
4130.198	-49.2
4132.609	-55.2
4135.019	-57.2
4137.427	-58.2
4139.833	-54.2
4142.237	-56.2
