Data from 2018-3-7_conc=3_n=6_RamanShift_02.txt Node
Date: Wed Mar 07 11:31:52 IST 2018
User: aro
Spectrometer: QEPB0276
Trigger mode: 0
Integration Time (sec): 3.000000E1
Scans to average: 1
Electric dark correction enabled: true
Nonlinearity correction enabled: false
Boxcar width: 0
XAxis mode: Raman Shifts
Number of Pixels in Spectrum: 1044
>>>>>Begin Spectral Data<<<<<
160.701	15.6
166.742	25.6
172.777	56.6
178.805	134.6
184.826	357.6
190.841	742.6
196.849	1225.6
202.85	1591.6
208.845	1741.6
214.833	1732.6
220.815	1742.6
226.789	1706.6
232.758	1728.6
238.719	1711.6
244.674	1723.6
250.623	1728.6
256.565	1707.6
262.5	1679.6
268.429	1681.6
274.351	1658.6
280.267	1637.6
286.176	1658.6
292.079	1644.6
297.975	1661.6
303.865	1644.6
309.748	1649.6
315.625	1640.6
321.495	1654.6
327.359	1661.6
333.217	1647.6
339.068	1647.6
344.912	1656.6
350.751	1662.6
356.583	1650.6
362.408	1670.6
368.227	1683.6
374.04	1702.6
379.847	1694.6
385.647	1701.6
391.44	1716.6
397.228	1698.6
403.009	1718.6
408.784	1734.6
414.553	1726.6
420.315	1754.6
426.071	1745.6
431.821	1753.6
437.565	1749.6
443.302	1741.6
449.033	1727.6
454.758	1729.6
460.477	1725.6
466.189	1698.6
471.896	1676.6
477.596	1660.6
483.29	1661.6
488.978	1640.6
494.66	1641.6
500.335	1604.6
506.005	1554.6
511.668	1488.6
517.325	1438.6
522.977	1365.6
528.622	1338.6
534.261	1315.6
539.894	1279.6
545.521	1295.6
551.141	1270.6
556.756	1251.6
562.365	1250.6
567.968	1226.6
573.565	1221.6
579.155	1204.6
584.74	1218.6
590.319	1202.6
595.892	1220.6
601.459	1219.6
607.02	1214.6
612.575	1191.6
618.124	1169.6
623.667	1168.6
629.204	1148.6
634.735	1146.6
640.261	1117.6
645.781	1110.6
651.294	1136.6
656.802	1107.6
662.304	1107.6
667.8	1125.6
673.29	1109.6
678.775	1102.6
684.254	1108.6
689.726	1089.6
695.193	1083.6
700.655	1089.6
706.11	1079.6
711.56	1077.6
717.004	1065.6
722.442	1046.6
727.874	1043.6
733.301	1044.6
738.722	1036.6
744.137	1037.6
749.547	1038.6
754.951	1034.6
760.349	1026.6
765.741	1036.6
771.128	1034.6
776.509	1064.6
781.885	1060.6
787.254	1085.6
792.618	1086.6
797.977	1068.6
803.33	1054.6
808.677	1052.6
814.019	1053.6
819.355	1032.6
824.686	1025.6
830.011	1012.6
835.33	1017.6
840.644	1015.6
845.952	1010.6
851.255	1008.6
856.552	996.6
861.844	1009.6
867.13	979.6
872.41	974.6
877.686	965.6
882.955	968.6
888.219	951.6
893.478	945.6
898.731	924.6
903.979	906.6
909.221	911.6
914.458	907.6
919.69	892.6
924.916	900.6
930.136	917.6
935.351	904.6
940.561	902.6
945.766	918.6
950.965	893.6
956.158	899.6
961.347	883.6
966.529	864.6
971.707	843.6
976.879	841.6
982.046	835.6
987.208	837.6
992.364	838.6
997.515	839.6
1002.66	841.6
1007.801	850.6
1012.936	869.6
1018.066	869.6
1023.19	865.6
1028.309	864.6
1033.423	851.6
1038.532	860.6
1043.636	859.6
1048.734	839.6
1053.827	823.6
1058.915	826.6
1063.998	822.6
1069.075	810.6
1074.147	807.6
1079.214	818.6
1084.276	826.6
1089.333	822.6
1094.385	823.6
1099.431	823.6
1104.472	822.6
1109.509	807.6
1114.54	791.6
1119.565	795.6
1124.586	779.6
1129.602	765.6
1134.613	768.6
1139.618	745.6
1144.619	755.6
1149.614	750.6
1154.604	752.6
1159.589	761.6
1164.57	770.6
1169.545	776.6
1174.515	761.6
1179.48	763.6
1184.44	746.6
1189.395	751.6
1194.345	750.6
1199.29	729.6
1204.23	739.6
1209.165	739.6
1214.095	730.6
1219.021	740.6
1223.941	749.6
1228.856	745.6
1233.766	753.6
1238.672	771.6
1243.572	751.6
1248.467	759.6
1253.358	749.6
1258.244	731.6
1263.124	704.6
1268	693.6
1272.871	682.6
1277.737	696.6
1282.599	682.6
1287.455	693.6
1292.306	665.6
1297.153	680.6
1301.995	687.6
1306.832	704.6
1311.664	697.6
1316.491	693.6
1321.314	697.6
1326.132	695.6
1330.945	671.6
1335.753	667.6
1340.556	649.6
1345.354	642.6
1350.148	626.6
1354.937	615.6
1359.722	605.6
1364.501	589.6
1369.276	588.6
1374.046	573.6
1378.811	554.6
1383.572	575.6
1388.327	561.6
1393.079	568.6
1397.825	566.6
1402.567	577.6
1407.304	577.6
1412.036	583.6
1416.764	581.6
1421.487	581.6
1426.205	592.6
1430.919	566.6
1435.628	585.6
1440.333	579.6
1445.032	573.6
1449.727	587.6
1454.418	587.6
1459.104	600.6
1463.785	587.6
1468.462	583.6
1473.134	567.6
1477.802	530.6
1482.465	540.6
1487.123	518.6
1491.777	500.6
1496.426	498.6
1501.071	504.6
1505.711	499.6
1510.347	486.6
1514.978	488.6
1519.604	484.6
1524.226	484.6
1528.844	495.6
1533.457	489.6
1538.065	483.6
1542.669	481.6
1547.269	478.6
1551.864	485.6
1556.454	501.6
1561.041	504.6
1565.622	496.6
1570.199	508.6
1574.772	495.6
1579.34	501.6
1583.904	511.6
1588.464	517.6
1593.019	518.6
1597.569	517.6
1602.115	516.6
1606.657	521.6
1611.195	517.6
1615.728	521.6
1620.256	500.6
1624.78	506.6
1629.3	512.6
1633.816	511.6
1638.327	520.6
1642.834	506.6
1647.336	520.6
1651.834	508.6
1656.328	505.6
1660.817	520.6
1665.302	505.6
1669.783	496.6
1674.259	492.6
1678.732	467.6
1683.199	453.6
1687.663	436.6
1692.122	401.6
1696.577	403.6
1701.028	392.6
1705.474	358.6
1709.917	367.6
1714.355	352.6
1718.788	359.6
1723.218	349.6
1727.643	346.6
1732.064	344.6
1736.481	348.6
1740.893	336.6
1745.301	324.6
1749.705	318.6
1754.105	323.6
1758.501	305.6
1762.893	307.6
1767.28	293.6
1771.663	297.6
1776.042	293.6
1780.417	285.6
1784.787	281.6
1789.154	273.6
1793.516	264.6
1797.874	261.6
1802.228	259.6
1806.578	259.6
1810.924	257.6
1815.266	257.6
1819.603	257.6
1823.937	261.6
1828.266	257.6
1832.591	258.6
1836.913	254.6
1841.23	260.6
1845.543	259.6
1849.852	267.6
1854.156	261.6
1858.457	261.6
1862.754	269.6
1867.047	266.6
1871.335	256.6
1875.62	257.6
1879.9	270.6
1884.177	251.6
1888.449	251.6
1892.718	254.6
1896.982	252.6
1901.243	238.6
1905.499	232.6
1909.752	219.6
1914	214.6
1918.245	223.6
1922.485	215.6
1926.722	220.6
1930.954	210.6
1935.183	217.6
1939.408	217.6
1943.628	210.6
1947.845	208.6
1952.058	206.6
1956.267	203.6
1960.472	208.6
1964.673	202.6
1968.87	197.6
1973.063	204.6
1977.252	201.6
1981.438	199.6
1985.619	189.6
1989.797	195.6
1993.971	199.6
1998.14	199.6
2002.306	202.6
2006.469	207.6
2010.627	195.6
2014.781	201.6
2018.932	196.6
2023.078	197.6
2027.221	196.6
2031.36	189.6
2035.495	188.6
2039.627	182.6
2043.754	187.6
2047.878	182.6
2051.998	188.6
2056.114	178.6
2060.226	170.6
2064.334	183.6
2068.439	174.6
2072.54	168.6
2076.637	170.6
2080.73	179.6
2084.82	177.6
2088.906	170.6
2092.988	165.6
2097.066	167.6
2101.14	167.6
2105.211	165.6
2109.278	153.6
2113.342	145.6
2117.401	152.6
2121.457	151.6
2125.509	157.6
2129.558	149.6
2133.602	149.6
2137.643	159.6
2141.681	147.6
2145.714	150.6
2149.744	159.6
2153.77	158.6
2157.793	150.6
2161.812	162.6
2165.827	158.6
2169.838	150.6
2173.846	146.6
2177.851	141.6
2181.851	142.6
2185.848	143.6
2189.841	137.6
2193.831	139.6
2197.817	138.6
2201.799	137.6
2205.778	136.6
2209.753	140.6
2213.725	137.6
2217.693	143.6
2221.657	136.6
2225.618	124.6
2229.575	126.6
2233.529	122.6
2237.479	132.6
2241.425	123.6
2245.368	132.6
2249.307	139.6
2253.243	125.6
2257.175	122.6
2261.104	114.6
2265.029	120.6
2268.95	121.6
2272.868	115.6
2276.783	110.6
2280.694	108.6
2284.601	103.6
2288.505	110.6
2292.405	114.6
2296.302	117.6
2300.195	107.6
2304.085	101.6
2307.971	106.6
2311.854	96.6
2315.734	97.6
2319.609	101.6
2323.482	104.6
2327.351	104.6
2331.216	116.6
2335.078	124.6
2338.937	114.6
2342.792	105.6
2346.643	105.6
2350.492	99.6
2354.336	100.6
2358.178	94.6
2362.015	94.6
2365.85	100.6
2369.681	101.6
2373.508	102.6
2377.333	107.6
2381.153	98.6
2384.971	96.6
2388.785	93.6
2392.595	96.6
2396.402	96.6
2400.206	98.6
2404.007	95.6
2407.804	96.6
2411.597	92.6
2415.388	92.6
2419.174	101.6
2422.958	91.6
2426.738	94.6
2430.515	98.6
2434.289	92.6
2438.059	84.6
2441.825	89.6
2445.589	91.6
2449.349	86.6
2453.106	86.6
2456.859	78.6
2460.61	84.6
2464.356	78.6
2468.1	81.6
2471.84	75.6
2475.577	78.6
2479.311	77.6
2483.041	84.6
2486.768	75.6
2490.492	77.6
2494.213	73.6
2497.93	75.6
2501.644	77.6
2505.355	70.6
2509.062	66.6
2512.766	68.6
2516.467	64.6
2520.165	63.6
2523.859	74.6
2527.551	62.6
2531.239	61.6
2534.923	59.6
2538.605	63.6
2542.283	54.6
2545.958	59.6
2549.63	64.6
2553.299	65.6
2556.964	52.6
2560.626	59.6
2564.285	59.6
2567.941	53.6
2571.594	50.6
2575.243	49.6
2578.89	55.6
2582.533	50.6
2586.173	46.6
2589.809	57.6
2593.443	56.6
2597.073	54.6
2600.701	50.6
2604.325	42.6
2607.946	41.6
2611.564	43.6
2615.178	52.6
2618.79	48.6
2622.398	40.6
2626.004	47.6
2629.606	45.6
2633.205	42.6
2636.801	37.6
2640.394	51.6
2643.983	43.6
2647.57	44.6
2651.153	34.6
2654.734	34.6
2658.311	45.6
2661.885	43.6
2665.456	37.6
2669.025	43.6
2672.589	32.6
2676.151	30.6
2679.71	29.6
2683.266	33.6
2686.819	37.6
2690.368	37.6
2693.915	31.6
2697.458	27.6
2700.999	33.6
2704.536	33.6
2708.071	36.6
2711.602	27.6
2715.13	30.6
2718.656	31.6
2722.178	17.6
2725.697	22.6
2729.214	22.6
2732.727	27.6
2736.237	23.6
2739.744	20.6
2743.249	23.6
2746.75	17.6
2750.248	20.6
2753.743	21.6
2757.236	14.6
2760.725	17.6
2764.211	14.6
2767.695	11.6
2771.175	12.6
2774.652	14.6
2778.127	9.6
2781.598	16.6
2785.067	12.6
2788.532	11.6
2791.995	16.6
2795.455	5.6
2798.911	18.6
2802.365	19.6
2805.816	13.6
2809.264	19.6
2812.709	13.6
2816.151	15.6
2819.59	24.6
2823.026	18.6
2826.46	15.6
2829.89	18.6
2833.318	13.6
2836.742	18.6
2840.164	16.6
2843.583	16.6
2846.999	20.6
2850.412	16.6
2853.822	16.6
2857.229	21.6
2860.634	20.6
2864.035	17.6
2867.434	17.6
2870.83	24.6
2874.223	20.6
2877.613	21.6
2881	29.6
2884.385	31.6
2887.766	28.6
2891.145	22.6
2894.521	32.6
2897.894	23.6
2901.264	30.6
2904.631	15.6
2907.996	27.6
2911.358	38.6
2914.717	28.6
2918.073	31.6
2921.426	27.6
2924.777	34.6
2928.124	38.6
2931.469	35.6
2934.811	39.6
2938.15	43.6
2941.487	49.6
2944.821	36.6
2948.152	37.6
2951.48	40.6
2954.805	42.6
2958.128	40.6
2961.447	35.6
2964.765	34.6
2968.079	35.6
2971.39	40.6
2974.699	38.6
2978.005	40.6
2981.308	33.6
2984.609	36.6
2987.907	38.6
2991.202	35.6
2994.494	29.6
2997.784	31.6
3001.07	39.6
3004.355	31.6
3007.636	39.6
3010.915	38.6
3014.191	39.6
3017.464	38.6
3020.734	48.6
3024.002	43.6
3027.267	45.6
3030.53	40.6
3033.789	43.6
3037.046	47.6
3040.301	45.6
3043.552	53.6
3046.801	53.6
3050.048	44.6
3053.291	51.6
3056.532	56.6
3059.771	57.6
3063.006	60.6
3066.239	66.6
3069.469	75.6
3072.697	69.6
3075.922	82.6
3079.144	81.6
3082.364	81.6
3085.581	85.6
3088.795	91.6
3092.007	88.6
3095.216	93.6
3098.423	86.6
3101.627	87.6
3104.828	97.6
3108.026	93.6
3111.222	101.6
3114.416	104.6
3117.607	102.6
3120.795	108.6
3123.98	107.6
3127.163	124.6
3130.344	120.6
3133.521	117.6
3136.696	121.6
3139.869	129.6
3143.039	129.6
3146.206	134.6
3149.371	126.6
3152.533	140.6
3155.693	138.6
3158.85	139.6
3162.005	148.6
3165.157	140.6
3168.306	138.6
3171.453	139.6
3174.597	132.6
3177.739	144.6
3180.878	145.6
3184.014	141.6
3187.149	135.6
3190.28	148.6
3193.409	142.6
3196.536	140.6
3199.659	146.6
3202.781	144.6
3205.9	136.6
3209.016	136.6
3212.13	139.6
3215.241	139.6
3218.35	138.6
3221.456	134.6
3224.56	135.6
3227.661	132.6
3230.76	135.6
3233.856	132.6
3236.95	118.6
3240.041	120.6
3243.13	118.6
3246.216	115.6
3249.3	109.6
3252.382	109.6
3255.46	113.6
3258.537	104.6
3261.611	112.6
3264.682	102.6
3267.751	114.6
3270.818	96.6
3273.882	110.6
3276.943	110.6
3280.002	107.6
3283.059	99.6
3286.113	93.6
3289.165	99.6
3292.214	97.6
3295.261	102.6
3298.306	94.6
3301.348	95.6
3304.387	102.6
3307.425	91.6
3310.459	83.6
3313.492	90.6
3316.521	93.6
3319.549	94.6
3322.574	87.6
3325.597	88.6
3328.617	89.6
3331.635	95.6
3334.65	91.6
3337.663	88.6
3340.674	89.6
3343.682	94.6
3346.688	90.6
3349.691	88.6
3352.692	87.6
3355.691	96.6
3358.687	89.6
3361.681	88.6
3364.673	87.6
3367.662	84.6
3370.649	88.6
3373.633	83.6
3376.615	79.6
3379.595	79.6
3382.572	73.6
3385.547	77.6
3388.52	74.6
3391.49	79.6
3394.458	68.6
3397.424	65.6
3400.387	74.6
3403.348	60.6
3406.307	52.6
3409.263	72.6
3412.217	61.6
3415.168	64.6
3418.118	59.6
3421.065	58.6
3424.009	58.6
3426.951	63.6
3429.891	54.6
3432.829	50.6
3435.764	56.6
3438.697	50.6
3441.628	41.6
3444.557	41.6
3447.483	45.6
3450.407	36.6
3453.328	36.6
3456.247	32.6
3459.164	32.6
3462.079	25.6
3464.991	23.6
3467.902	24.6
3470.809	22.6
3473.715	21.6
3476.618	14.6
3479.519	15.6
3482.418	20.6
3485.315	19.6
3488.209	28.6
3491.101	195.6
3493.99	23.6
3496.878	3.6
3499.763	0.6
3502.646	2.6
3505.527	2.6
3508.405	1.6
3511.281	-2.4
3514.155	-4.4
3517.027	-9.4
3519.897	-0.4
3522.764	-6.4
3525.629	-1.4
3528.492	-12.4
3531.352	-17.4
3534.211	-18.4
3537.067	-18.4
3539.921	-18.4
3542.773	-25.4
3545.622	-26.4
3548.469	-18.4
3551.315	-17.4
3554.157	-25.4
3556.998	-24.4
3559.837	-26.4
3562.673	-26.4
3565.507	-22.4
3568.339	-20.4
3571.169	-30.4
3573.996	-21.4
3576.822	-32.4
3579.645	-38.4
3582.466	-31.4
3585.285	-35.4
3588.101	-35.4
3590.916	-32.4
3593.728	-33.4
3596.538	-37.4
3599.346	-35.4
3602.152	-37.4
3604.956	-36.4
3607.757	-32.4
3610.556	-30.4
3613.354	-43.4
3616.149	-38.4
3618.942	-34.4
3621.732	-35.4
3624.521	-40.4
3627.307	-40.4
3630.092	-45.4
3632.874	-47.4
3635.654	-42.4
3638.432	-41.4
3641.208	-40.4
3643.982	-39.4
3646.753	-39.4
3649.523	-37.4
3652.29	-43.4
3655.055	-43.4
3657.818	-40.4
3660.579	-42.4
3663.338	-41.4
3666.095	-47.4
3668.849	-48.4
3671.602	-44.4
3674.352	-40.4
3677.101	-45.4
3679.847	-49.4
3682.591	-51.4
3685.333	-46.4
3688.073	-51.4
3690.811	-46.4
3693.547	-47.4
3696.281	-42.4
3699.013	-47.4
3701.742	-49.4
3704.47	-48.4
3707.195	-48.4
3709.919	-48.4
3712.64	-55.4
3715.359	-48.4
3718.076	-56.4
3720.792	-51.4
3723.505	-55.4
3726.216	-46.4
3728.925	-53.4
3731.632	-49.4
3734.336	-54.4
3737.039	-48.4
3739.74	-49.4
3742.439	-54.4
3745.136	-55.4
3747.83	-56.4
3750.523	-53.4
3753.213	-60.4
3755.902	-53.4
3758.589	-51.4
3761.273	-54.4
3763.956	-57.4
3766.636	-46.4
3769.315	-50.4
3771.991	-53.4
3774.665	-52.4
3777.338	-52.4
3780.008	-55.4
3782.677	-54.4
3785.343	-60.4
3788.007	-56.4
3790.67	-56.4
3793.33	-52.4
3795.989	-58.4
3798.645	-60.4
3801.299	-54.4
3803.952	-55.4
3806.602	-54.4
3809.251	-54.4
3811.897	-55.4
3814.542	-55.4
3817.184	-52.4
3819.825	-52.4
3822.463	-54.4
3825.1	-55.4
3827.735	-57.4
3830.367	-56.4
3832.998	-53.4
3835.627	-57.4
3838.253	-50.4
3840.878	-52.4
3843.501	-57.4
3846.122	-55.4
3848.741	-57.4
3851.358	-52.4
3853.973	-52.4
3856.586	-51.4
3859.197	-54.4
3861.806	-52.4
3864.414	-52.4
3867.019	-55.4
3869.622	-51.4
3872.224	-42.4
3874.823	-33.4
3877.421	-27.4
3880.016	-13.4
3882.61	10.6
3885.202	14.6
3887.792	2.6
3890.38	-20.4
3892.966	-36.4
3895.55	-45.4
3898.132	-52.4
3900.713	-49.4
3903.291	-53.4
3905.868	-53.4
3908.442	-52.4
3911.015	-52.4
3913.586	-61.4
3916.155	-58.4
3918.722	-58.4
3921.287	-57.4
3923.85	-50.4
3926.411	-55.4
3928.971	-60.4
3931.528	-54.4
3934.084	-50.4
3936.638	-49.4
3939.19	-59.4
3941.74	-51.4
3944.288	-55.4
3946.834	-51.4
3949.378	-60.4
3951.921	-59.4
3954.462	-61.4
3957	-50.4
3959.537	-52.4
3962.072	-54.4
3964.606	-52.4
3967.137	-55.4
3969.667	-56.4
3972.194	-55.4
3974.72	-53.4
3977.244	-47.4
3979.766	-51.4
3982.286	-56.4
3984.805	-63.4
3987.321	-55.4
3989.836	-51.4
3992.349	-58.4
3994.86	-58.4
3997.369	-60.4
3999.877	-56.4
4002.382	-53.4
4004.886	-53.4
4007.388	-54.4
4009.888	-54.4
4012.386	-53.4
4014.883	-50.4
4017.377	-52.4
4019.87	-55.4
4022.361	-53.4
4024.85	-55.4
4027.338	-58.4
4029.823	-54.4
4032.307	-56.4
4034.789	-57.4
4037.269	-57.4
4039.747	-54.4
4042.224	-56.4
4044.699	-54.4
4047.172	-56.4
4049.643	-55.4
4052.112	-51.4
4054.58	-50.4
4057.046	-49.4
4059.51	-56.4
4061.972	-64.4
4064.432	-52.4
4066.891	-48.4
4069.348	-55.4
4071.803	-53.4
4074.256	-56.4
4076.708	-57.4
4079.158	-60.4
4081.606	-56.4
4084.052	-51.4
4086.497	-51.4
4088.939	-49.4
4091.38	-60.4
4093.819	-57.4
4096.257	-55.4
4098.693	-57.4
4101.127	-48.4
4103.559	-58.4
4105.989	26.6
4108.418	26.6
4110.845	15.6
4113.27	14.6
4115.694	21.6
4118.115	10.6
4120.535	-55.4
4122.954	-53.4
4125.37	-55.4
4127.785	-51.4
4130.198	-50.4
4132.609	-55.4
4135.019	-57.4
4137.427	-61.4
4139.833	-57.4
4142.237	-56.4
