Data from 2018-3-7_conc=2_n=8_RamanShift_02.txt Node
Date: Wed Mar 07 11:01:52 IST 2018
User: aro
Spectrometer: QEPB0276
Trigger mode: 0
Integration Time (sec): 3.000000E1
Scans to average: 1
Electric dark correction enabled: true
Nonlinearity correction enabled: false
Boxcar width: 0
XAxis mode: Raman Shifts
Number of Pixels in Spectrum: 1044
>>>>>Begin Spectral Data<<<<<
160.701	18.8
166.742	23.8
172.777	53.8
178.805	144.8
184.826	362.8
190.841	769.8
196.849	1261.8
202.85	1624.8
208.845	1783.8
214.833	1786.8
220.815	1759.8
226.789	1761.8
232.758	1764.8
238.719	1769.8
244.674	1769.8
250.623	1754.8
256.565	1740.8
262.5	1713.8
268.429	1711.8
274.351	1708.8
280.267	1677.8
286.176	1682.8
292.079	1687.8
297.975	1697.8
303.865	1679.8
309.748	1668.8
315.625	1691.8
321.495	1702.8
327.359	1697.8
333.217	1696.8
339.068	1695.8
344.912	1735.8
350.751	1705.8
356.583	1711.8
362.408	1711.8
368.227	1711.8
374.04	1734.8
379.847	1743.8
385.647	1750.8
391.44	1757.8
397.228	1763.8
403.009	1781.8
408.784	1788.8
414.553	1788.8
420.315	1776.8
426.071	1778.8
431.821	1779.8
437.565	1781.8
443.302	1786.8
449.033	1787.8
454.758	1777.8
460.477	1763.8
466.189	1746.8
471.896	1726.8
477.596	1721.8
483.29	1708.8
488.978	1702.8
494.66	1706.8
500.335	1654.8
506.005	1604.8
511.668	1534.8
517.325	1473.8
522.977	1417.8
528.622	1367.8
534.261	1355.8
539.894	1329.8
545.521	1325.8
551.141	1301.8
556.756	1272.8
562.365	1280.8
567.968	1254.8
573.565	1251.8
579.155	1248.8
584.74	1246.8
590.319	1231.8
595.892	1236.8
601.459	1239.8
607.02	1217.8
612.575	1210.8
618.124	1200.8
623.667	1195.8
629.204	1185.8
634.735	1156.8
640.261	1142.8
645.781	1144.8
651.294	1150.8
656.802	1138.8
662.304	1141.8
667.8	1137.8
673.29	1143.8
678.775	1125.8
684.254	1127.8
689.726	1124.8
695.193	1118.8
700.655	1099.8
706.11	1100.8
711.56	1090.8
717.004	1059.8
722.442	1067.8
727.874	1072.8
733.301	1076.8
738.722	1053.8
744.137	1054.8
749.547	1056.8
754.951	1061.8
760.349	1046.8
765.741	1066.8
771.128	1053.8
776.509	1061.8
781.885	1102.8
787.254	1097.8
792.618	1101.8
797.977	1087.8
803.33	1092.8
808.677	1072.8
814.019	1070.8
819.355	1061.8
824.686	1042.8
830.011	1056.8
835.33	1047.8
840.644	1034.8
845.952	1045.8
851.255	1009.8
856.552	1027.8
861.844	1008.8
867.13	990.8
872.41	991.8
877.686	992.8
882.955	997.8
888.219	970.8
893.478	952.8
898.731	959.8
903.979	937.8
909.221	921.8
914.458	929.8
919.69	920.8
924.916	920.8
930.136	921.8
935.351	919.8
940.561	925.8
945.766	922.8
950.965	922.8
956.158	917.8
961.347	908.8
966.529	884.8
971.707	869.8
976.879	858.8
982.046	850.8
987.208	860.8
992.364	839.8
997.515	853.8
1002.66	866.8
1007.801	871.8
1012.936	873.8
1018.066	895.8
1023.19	892.8
1028.309	885.8
1033.423	884.8
1038.532	868.8
1043.636	875.8
1048.734	868.8
1053.827	851.8
1058.915	839.8
1063.998	820.8
1069.075	821.8
1074.147	833.8
1079.214	837.8
1084.276	843.8
1089.333	850.8
1094.385	845.8
1099.431	836.8
1104.472	826.8
1109.509	837.8
1114.54	809.8
1119.565	808.8
1124.586	802.8
1129.602	782.8
1134.613	785.8
1139.618	784.8
1144.619	771.8
1149.614	775.8
1154.604	773.8
1159.589	786.8
1164.57	783.8
1169.545	775.8
1174.515	774.8
1179.48	791.8
1184.44	779.8
1189.395	763.8
1194.345	763.8
1199.29	749.8
1204.23	765.8
1209.165	757.8
1214.095	751.8
1219.021	767.8
1223.941	770.8
1228.856	777.8
1233.766	773.8
1238.672	773.8
1243.572	758.8
1248.467	765.8
1253.358	756.8
1258.244	755.8
1263.124	720.8
1268	706.8
1272.871	702.8
1277.737	713.8
1282.599	699.8
1287.455	699.8
1292.306	710.8
1297.153	699.8
1301.995	705.8
1306.832	713.8
1311.664	710.8
1316.491	715.8
1321.314	707.8
1326.132	703.8
1330.945	694.8
1335.753	675.8
1340.556	660.8
1345.354	647.8
1350.148	653.8
1354.937	632.8
1359.722	614.8
1364.501	599.8
1369.276	589.8
1374.046	585.8
1378.811	572.8
1383.572	583.8
1388.327	583.8
1393.079	569.8
1397.825	580.8
1402.567	589.8
1407.304	577.8
1412.036	593.8
1416.764	591.8
1421.487	602.8
1426.205	593.8
1430.919	580.8
1435.628	593.8
1440.333	606.8
1445.032	579.8
1449.727	605.8
1454.418	616.8
1459.104	604.8
1463.785	597.8
1468.462	583.8
1473.134	558.8
1477.802	541.8
1482.465	533.8
1487.123	524.8
1491.777	514.8
1496.426	510.8
1501.071	515.8
1505.711	507.8
1510.347	502.8
1514.978	491.8
1519.604	483.8
1524.226	493.8
1528.844	482.8
1533.457	485.8
1538.065	494.8
1542.669	482.8
1547.269	483.8
1551.864	488.8
1556.454	505.8
1561.041	507.8
1565.622	509.8
1570.199	514.8
1574.772	506.8
1579.34	513.8
1583.904	523.8
1588.464	529.8
1593.019	528.8
1597.569	525.8
1602.115	529.8
1606.657	522.8
1611.195	523.8
1615.728	517.8
1620.256	526.8
1624.78	514.8
1629.3	525.8
1633.816	522.8
1638.327	525.8
1642.834	514.8
1647.336	517.8
1651.834	508.8
1656.328	517.8
1660.817	515.8
1665.302	504.8
1669.783	503.8
1674.259	488.8
1678.732	465.8
1683.199	465.8
1687.663	437.8
1692.122	409.8
1696.577	415.8
1701.028	393.8
1705.474	360.8
1709.917	357.8
1714.355	347.8
1718.788	345.8
1723.218	345.8
1727.643	349.8
1732.064	355.8
1736.481	348.8
1740.893	349.8
1745.301	336.8
1749.705	341.8
1754.105	318.8
1758.501	311.8
1762.893	307.8
1767.28	299.8
1771.663	295.8
1776.042	283.8
1780.417	285.8
1784.787	275.8
1789.154	275.8
1793.516	272.8
1797.874	258.8
1802.228	276.8
1806.578	271.8
1810.924	261.8
1815.266	257.8
1819.603	271.8
1823.937	266.8
1828.266	256.8
1832.591	261.8
1836.913	259.8
1841.23	265.8
1845.543	252.8
1849.852	272.8
1854.156	273.8
1858.457	261.8
1862.754	268.8
1867.047	270.8
1871.335	268.8
1875.62	257.8
1879.9	277.8
1884.177	249.8
1888.449	247.8
1892.718	251.8
1896.982	244.8
1901.243	229.8
1905.499	237.8
1909.752	232.8
1914	224.8
1918.245	228.8
1922.485	216.8
1926.722	213.8
1930.954	220.8
1935.183	223.8
1939.408	215.8
1943.628	207.8
1947.845	213.8
1952.058	213.8
1956.267	203.8
1960.472	208.8
1964.673	188.8
1968.87	204.8
1973.063	201.8
1977.252	208.8
1981.438	201.8
1985.619	193.8
1989.797	194.8
1993.971	195.8
1998.14	198.8
2002.306	202.8
2006.469	207.8
2010.627	200.8
2014.781	196.8
2018.932	201.8
2023.078	204.8
2027.221	198.8
2031.36	198.8
2035.495	188.8
2039.627	183.8
2043.754	179.8
2047.878	180.8
2051.998	187.8
2056.114	178.8
2060.226	173.8
2064.334	171.8
2068.439	172.8
2072.54	171.8
2076.637	172.8
2080.73	180.8
2084.82	180.8
2088.906	170.8
2092.988	171.8
2097.066	166.8
2101.14	170.8
2105.211	159.8
2109.278	161.8
2113.342	157.8
2117.401	151.8
2121.457	153.8
2125.509	153.8
2129.558	154.8
2133.602	151.8
2137.643	159.8
2141.681	146.8
2145.714	159.8
2149.744	158.8
2153.77	155.8
2157.793	159.8
2161.812	156.8
2165.827	159.8
2169.838	140.8
2173.846	146.8
2177.851	144.8
2181.851	142.8
2185.848	149.8
2189.841	141.8
2193.831	137.8
2197.817	141.8
2201.799	141.8
2205.778	132.8
2209.753	138.8
2213.725	144.8
2217.693	140.8
2221.657	129.8
2225.618	128.8
2229.575	130.8
2233.529	131.8
2237.479	131.8
2241.425	123.8
2245.368	131.8
2249.307	132.8
2253.243	123.8
2257.175	129.8
2261.104	117.8
2265.029	121.8
2268.95	117.8
2272.868	118.8
2276.783	119.8
2280.694	104.8
2284.601	104.8
2288.505	108.8
2292.405	113.8
2296.302	114.8
2300.195	106.8
2304.085	108.8
2307.971	102.8
2311.854	108.8
2315.734	98.8
2319.609	103.8
2323.482	100.8
2327.351	104.8
2331.216	108.8
2335.078	124.8
2338.937	116.8
2342.792	105.8
2346.643	100.8
2350.492	104.8
2354.336	100.8
2358.178	92.8
2362.015	103.8
2365.85	96.8
2369.681	101.8
2373.508	109.8
2377.333	106.8
2381.153	98.8
2384.971	95.8
2388.785	95.8
2392.595	97.8
2396.402	101.8
2400.206	102.8
2404.007	92.8
2407.804	103.8
2411.597	101.8
2415.388	94.8
2419.174	102.8
2422.958	91.8
2426.738	90.8
2430.515	91.8
2434.289	96.8
2438.059	86.8
2441.825	94.8
2445.589	85.8
2449.349	85.8
2453.106	88.8
2456.859	82.8
2460.61	86.8
2464.356	84.8
2468.1	82.8
2471.84	77.8
2475.577	76.8
2479.311	72.8
2483.041	67.8
2486.768	77.8
2490.492	80.8
2494.213	72.8
2497.93	80.8
2501.644	72.8
2505.355	68.8
2509.062	73.8
2512.766	75.8
2516.467	63.8
2520.165	69.8
2523.859	65.8
2527.551	68.8
2531.239	58.8
2534.923	59.8
2538.605	59.8
2542.283	59.8
2545.958	61.8
2549.63	59.8
2553.299	60.8
2556.964	59.8
2560.626	56.8
2564.285	59.8
2567.941	57.8
2571.594	51.8
2575.243	56.8
2578.89	51.8
2582.533	49.8
2586.173	48.8
2589.809	53.8
2593.443	52.8
2597.073	54.8
2600.701	46.8
2604.325	35.8
2607.946	35.8
2611.564	42.8
2615.178	44.8
2618.79	52.8
2622.398	42.8
2626.004	42.8
2629.606	42.8
2633.205	40.8
2636.801	46.8
2640.394	48.8
2643.983	41.8
2647.57	42.8
2651.153	43.8
2654.734	40.8
2658.311	45.8
2661.885	43.8
2665.456	41.8
2669.025	39.8
2672.589	32.8
2676.151	35.8
2679.71	25.8
2683.266	39.8
2686.819	40.8
2690.368	39.8
2693.915	36.8
2697.458	28.8
2700.999	36.8
2704.536	37.8
2708.071	28.8
2711.602	27.8
2715.13	16.8
2718.656	30.8
2722.178	25.8
2725.697	28.8
2729.214	23.8
2732.727	30.8
2736.237	26.8
2739.744	20.8
2743.249	22.8
2746.75	24.8
2750.248	20.8
2753.743	18.8
2757.236	14.8
2760.725	19.8
2764.211	11.8
2767.695	15.8
2771.175	15.8
2774.652	22.8
2778.127	15.8
2781.598	17.8
2785.067	21.8
2788.532	16.8
2791.995	12.8
2795.455	11.8
2798.911	7.8
2802.365	23.8
2805.816	11.8
2809.264	16.8
2812.709	13.8
2816.151	21.8
2819.59	32.8
2823.026	20.8
2826.46	23.8
2829.89	15.8
2833.318	16.8
2836.742	20.8
2840.164	14.8
2843.583	13.8
2846.999	16.8
2850.412	12.8
2853.822	24.8
2857.229	21.8
2860.634	20.8
2864.035	20.8
2867.434	24.8
2870.83	24.8
2874.223	27.8
2877.613	30.8
2881	29.8
2884.385	32.8
2887.766	33.8
2891.145	27.8
2894.521	25.8
2897.894	23.8
2901.264	27.8
2904.631	23.8
2907.996	28.8
2911.358	35.8
2914.717	30.8
2918.073	30.8
2921.426	31.8
2924.777	35.8
2928.124	32.8
2931.469	33.8
2934.811	37.8
2938.15	45.8
2941.487	57.8
2944.821	42.8
2948.152	44.8
2951.48	43.8
2954.805	41.8
2958.128	36.8
2961.447	38.8
2964.765	38.8
2968.079	33.8
2971.39	41.8
2974.699	35.8
2978.005	44.8
2981.308	35.8
2984.609	31.8
2987.907	43.8
2991.202	35.8
2994.494	34.8
2997.784	31.8
3001.07	35.8
3004.355	36.8
3007.636	43.8
3010.915	36.8
3014.191	37.8
3017.464	48.8
3020.734	44.8
3024.002	49.8
3027.267	45.8
3030.53	47.8
3033.789	42.8
3037.046	42.8
3040.301	43.8
3043.552	56.8
3046.801	55.8
3050.048	53.8
3053.291	60.8
3056.532	68.8
3059.771	58.8
3063.006	68.8
3066.239	72.8
3069.469	70.8
3072.697	80.8
3075.922	82.8
3079.144	73.8
3082.364	82.8
3085.581	83.8
3088.795	88.8
3092.007	88.8
3095.216	88.8
3098.423	89.8
3101.627	95.8
3104.828	97.8
3108.026	95.8
3111.222	103.8
3114.416	106.8
3117.607	104.8
3120.795	108.8
3123.98	104.8
3127.163	114.8
3130.344	122.8
3133.521	113.8
3136.696	121.8
3139.869	122.8
3143.039	127.8
3146.206	131.8
3149.371	132.8
3152.533	142.8
3155.693	145.8
3158.85	143.8
3162.005	141.8
3165.157	134.8
3168.306	139.8
3171.453	135.8
3174.597	136.8
3177.739	145.8
3180.878	140.8
3184.014	132.8
3187.149	140.8
3190.28	140.8
3193.409	147.8
3196.536	141.8
3199.659	146.8
3202.781	150.8
3205.9	136.8
3209.016	142.8
3212.13	141.8
3215.241	136.8
3218.35	135.8
3221.456	141.8
3224.56	132.8
3227.661	129.8
3230.76	132.8
3233.856	141.8
3236.95	123.8
3240.041	126.8
3243.13	117.8
3246.216	112.8
3249.3	109.8
3252.382	113.8
3255.46	117.8
3258.537	112.8
3261.611	105.8
3264.682	106.8
3267.751	112.8
3270.818	100.8
3273.882	105.8
3276.943	106.8
3280.002	107.8
3283.059	99.8
3286.113	106.8
3289.165	96.8
3292.214	99.8
3295.261	100.8
3298.306	92.8
3301.348	101.8
3304.387	94.8
3307.425	94.8
3310.459	90.8
3313.492	93.8
3316.521	98.8
3319.549	103.8
3322.574	90.8
3325.597	89.8
3328.617	87.8
3331.635	96.8
3334.65	100.8
3337.663	86.8
3340.674	88.8
3343.682	93.8
3346.688	85.8
3349.691	93.8
3352.692	92.8
3355.691	99.8
3358.687	90.8
3361.681	89.8
3364.673	96.8
3367.662	88.8
3370.649	86.8
3373.633	85.8
3376.615	81.8
3379.595	77.8
3382.572	70.8
3385.547	80.8
3388.52	73.8
3391.49	72.8
3394.458	70.8
3397.424	71.8
3400.387	71.8
3403.348	62.8
3406.307	65.8
3409.263	65.8
3412.217	68.8
3415.168	72.8
3418.118	55.8
3421.065	58.8
3424.009	55.8
3426.951	55.8
3429.891	51.8
3432.829	46.8
3435.764	53.8
3438.697	51.8
3441.628	46.8
3444.557	50.8
3447.483	46.8
3450.407	41.8
3453.328	43.8
3456.247	30.8
3459.164	33.8
3462.079	26.8
3464.991	20.8
3467.902	20.8
3470.809	29.8
3473.715	17.8
3476.618	17.8
3479.519	18.8
3482.418	20.8
3485.315	9.8
3488.209	7.8
3491.101	5.8
3493.99	10.8
3496.878	2.8
3499.763	-1.2
3502.646	0.8
3505.527	1.8
3508.405	7.8
3511.281	-1.2
3514.155	-4.2
3517.027	-8.2
3519.897	-5.2
3522.764	-8.2
3525.629	-6.2
3528.492	-12.2
3531.352	-18.2
3534.211	-17.2
3537.067	-17.2
3539.921	-14.2
3542.773	-20.2
3545.622	-21.2
3548.469	-24.2
3551.315	-18.2
3554.157	-23.2
3556.998	-21.2
3559.837	-19.2
3562.673	-26.2
3565.507	-25.2
3568.339	-22.2
3571.169	-28.2
3573.996	-31.2
3576.822	-40.2
3579.645	-34.2
3582.466	-32.2
3585.285	-36.2
3588.101	-31.2
3590.916	-28.2
3593.728	-32.2
3596.538	-37.2
3599.346	-39.2
3602.152	-39.2
3604.956	-36.2
3607.757	-33.2
3610.556	-37.2
3613.354	-41.2
3616.149	-40.2
3618.942	-35.2
3621.732	-38.2
3624.521	-33.2
3627.307	-39.2
3630.092	-36.2
3632.874	-38.2
3635.654	-40.2
3638.432	-38.2
3641.208	-40.2
3643.982	-38.2
3646.753	-49.2
3649.523	-44.2
3652.29	-48.2
3655.055	-41.2
3657.818	-45.2
3660.579	-44.2
3663.338	-38.2
3666.095	-41.2
3668.849	-51.2
3671.602	-48.2
3674.352	-43.2
3677.101	-46.2
3679.847	-47.2
3682.591	-49.2
3685.333	-46.2
3688.073	-48.2
3690.811	-46.2
3693.547	-47.2
3696.281	-47.2
3699.013	-46.2
3701.742	-46.2
3704.47	-42.2
3707.195	-44.2
3709.919	-52.2
3712.64	-48.2
3715.359	-51.2
3718.076	-54.2
3720.792	-49.2
3723.505	-53.2
3726.216	-45.2
3728.925	-50.2
3731.632	-47.2
3734.336	-53.2
3737.039	-43.2
3739.74	-52.2
3742.439	-54.2
3745.136	-53.2
3747.83	-51.2
3750.523	-51.2
3753.213	-52.2
3755.902	-50.2
3758.589	-54.2
3761.273	-50.2
3763.956	-52.2
3766.636	-49.2
3769.315	-43.2
3771.991	-50.2
3774.665	-58.2
3777.338	-49.2
3780.008	-48.2
3782.677	-56.2
3785.343	-51.2
3788.007	-58.2
3790.67	-55.2
3793.33	-53.2
3795.989	-54.2
3798.645	-54.2
3801.299	-54.2
3803.952	-48.2
3806.602	-52.2
3809.251	-57.2
3811.897	-57.2
3814.542	-58.2
3817.184	-57.2
3819.825	-51.2
3822.463	-52.2
3825.1	-50.2
3827.735	-57.2
3830.367	-56.2
3832.998	-53.2
3835.627	-56.2
3838.253	-47.2
3840.878	-50.2
3843.501	-48.2
3846.122	-63.2
3848.741	-54.2
3851.358	-55.2
3853.973	-48.2
3856.586	-53.2
3859.197	-50.2
3861.806	-52.2
3864.414	-55.2
3867.019	-54.2
3869.622	-45.2
3872.224	-42.2
3874.823	-35.2
3877.421	-28.2
3880.016	-10.2
3882.61	8.8
3885.202	6.8
3887.792	4.8
3890.38	-11.2
3892.966	-40.2
3895.55	-44.2
3898.132	-50.2
3900.713	-54.2
3903.291	-59.2
3905.868	-51.2
3908.442	-54.2
3911.015	-53.2
3913.586	-63.2
3916.155	-56.2
3918.722	-55.2
3921.287	-57.2
3923.85	-50.2
3926.411	-57.2
3928.971	-64.2
3931.528	-55.2
3934.084	-51.2
3936.638	-50.2
3939.19	-61.2
3941.74	-53.2
3944.288	-58.2
3946.834	-52.2
3949.378	-55.2
3951.921	-63.2
3954.462	-57.2
3957	-51.2
3959.537	-46.2
3962.072	-45.2
3964.606	-50.2
3967.137	-54.2
3969.667	-56.2
3972.194	-53.2
3974.72	-53.2
3977.244	-53.2
3979.766	-55.2
3982.286	-57.2
3984.805	-63.2
3987.321	-53.2
3989.836	-46.2
3992.349	-57.2
3994.86	-50.2
3997.369	-56.2
3999.877	-52.2
4002.382	-51.2
4004.886	-48.2
4007.388	-55.2
4009.888	-54.2
4012.386	-56.2
4014.883	-55.2
4017.377	-50.2
4019.87	-54.2
4022.361	-54.2
4024.85	-49.2
4027.338	-52.2
4029.823	-52.2
4032.307	-54.2
4034.789	-53.2
4037.269	-57.2
4039.747	-59.2
4042.224	-55.2
4044.699	-57.2
4047.172	-58.2
4049.643	-56.2
4052.112	-55.2
4054.58	-54.2
4057.046	-49.2
4059.51	-55.2
4061.972	-60.2
4064.432	-55.2
4066.891	-48.2
4069.348	-52.2
4071.803	-48.2
4074.256	-52.2
4076.708	-56.2
4079.158	-59.2
4081.606	-55.2
4084.052	-57.2
4086.497	-52.2
4088.939	-51.2
4091.38	-59.2
4093.819	-54.2
4096.257	-57.2
4098.693	-53.2
4101.127	-50.2
4103.559	-57.2
4105.989	27.8
4108.418	19.8
4110.845	19.8
4113.27	17.8
4115.694	14.8
4118.115	17.8
4120.535	-54.2
4122.954	-54.2
4125.37	-54.2
4127.785	-48.2
4130.198	-55.2
4132.609	-56.2
4135.019	-57.2
4137.427	-63.2
4139.833	-58.2
4142.237	-62.2
