Data from 2018-3-7_conc=2_n=9_RamanShift_06.txt Node
Date: Wed Mar 07 11:06:52 IST 2018
User: aro
Spectrometer: QEPB0276
Trigger mode: 0
Integration Time (sec): 3.000000E1
Scans to average: 1
Electric dark correction enabled: true
Nonlinearity correction enabled: false
Boxcar width: 0
XAxis mode: Raman Shifts
Number of Pixels in Spectrum: 1044
>>>>>Begin Spectral Data<<<<<
160.701	-17.5
166.742	42.5
172.777	211.5
178.805	696.5
184.826	1836.5
190.841	3798.5
196.849	6134.5
202.85	7994.5
208.845	8864.5
214.833	9153.5
220.815	9343.5
226.789	9591.5
232.758	9807.5
238.719	10152.5
244.674	10656.5
250.623	11379.5
256.565	12028.5
262.5	12426.5
268.429	12462.5
274.351	11743.5
280.267	10940.5
286.176	10880.5
292.079	11021.5
297.975	11160.5
303.865	11247.5
309.748	11259.5
315.625	11284.5
321.495	11399.5
327.359	11549.5
333.217	11625.5
339.068	11611.5
344.912	11624.5
350.751	11597.5
356.583	11525.5
362.408	11509.5
368.227	11508.5
374.04	11484.5
379.847	11482.5
385.647	11620.5
391.44	12289.5
397.228	13394.5
403.009	14731.5
408.784	16041.5
414.553	18086.5
420.315	20109.5
426.071	18050.5
431.821	13601.5
437.565	11439.5
443.302	10971.5
449.033	10737.5
454.758	10594.5
460.477	10467.5
466.189	10304.5
471.896	10177.5
477.596	10074.5
483.29	10011.5
488.978	9791.5
494.66	9727.5
500.335	9861.5
506.005	10050.5
511.668	9930.5
517.325	9774.5
522.977	9842.5
528.622	10104.5
534.261	10045.5
539.894	10051.5
545.521	10292.5
551.141	10743.5
556.756	11184.5
562.365	11208.5
567.968	10980.5
573.565	10610.5
579.155	10043.5
584.74	9277.5
590.319	8837.5
595.892	9219.5
601.459	10105.5
607.02	10745.5
612.575	10969.5
618.124	11146.5
623.667	11115.5
629.204	11141.5
634.735	11523.5
640.261	12220.5
645.781	12361.5
651.294	11582.5
656.802	10638.5
662.304	10404.5
667.8	10600.5
673.29	10628.5
678.775	10650.5
684.254	10706.5
689.726	10870.5
695.193	10904.5
700.655	10900.5
706.11	10933.5
711.56	10960.5
717.004	10907.5
722.442	10763.5
727.874	10847.5
733.301	10973.5
738.722	10909.5
744.137	10863.5
749.547	11034.5
754.951	11269.5
760.349	11456.5
765.741	11615.5
771.128	11682.5
776.509	11693.5
781.885	11758.5
787.254	11795.5
792.618	11892.5
797.977	11919.5
803.33	11908.5
808.677	11876.5
814.019	11889.5
819.355	11895.5
824.686	11962.5
830.011	12109.5
835.33	12422.5
840.644	13308.5
845.952	14642.5
851.255	15222.5
856.552	14399.5
861.844	13987.5
867.13	15651.5
872.41	17458.5
877.686	16338.5
882.955	13767.5
888.219	12431.5
893.478	12219.5
898.731	12243.5
903.979	12238.5
909.221	12285.5
914.458	12370.5
919.69	12423.5
924.916	12467.5
930.136	12466.5
935.351	12516.5
940.561	12542.5
945.766	12626.5
950.965	12672.5
956.158	12632.5
961.347	12397.5
966.529	12025.5
971.707	11389.5
976.879	11082.5
982.046	11404.5
987.208	11890.5
992.364	12031.5
997.515	12306.5
1002.66	13081.5
1007.801	13772.5
1012.936	13502.5
1018.066	12687.5
1023.19	12118.5
1028.309	11255.5
1033.423	10260.5
1038.532	10222.5
1043.636	11082.5
1048.734	11853.5
1053.827	12020.5
1058.915	12118.5
1063.998	12189.5
1069.075	12326.5
1074.147	12282.5
1079.214	12398.5
1084.276	12460.5
1089.333	12545.5
1094.385	12674.5
1099.431	12686.5
1104.472	12664.5
1109.509	12623.5
1114.54	12539.5
1119.565	12507.5
1124.586	12346.5
1129.602	12217.5
1134.613	12268.5
1139.618	12235.5
1144.619	12294.5
1149.614	12447.5
1154.604	12536.5
1159.589	12566.5
1164.57	12550.5
1169.545	12573.5
1174.515	12457.5
1179.48	12271.5
1184.44	12055.5
1189.395	11489.5
1194.345	10592.5
1199.29	10321.5
1204.23	11123.5
1209.165	12015.5
1214.095	12226.5
1219.021	12320.5
1223.941	12421.5
1228.856	12426.5
1233.766	12437.5
1238.672	12588.5
1243.572	12689.5
1248.467	12654.5
1253.358	12560.5
1258.244	12373.5
1263.124	12203.5
1268	12085.5
1272.871	12078.5
1277.737	12084.5
1282.599	12000.5
1287.455	11933.5
1292.306	11987.5
1297.153	12018.5
1301.995	12141.5
1306.832	12242.5
1311.664	12390.5
1316.491	12372.5
1321.314	12490.5
1326.132	12605.5
1330.945	12635.5
1335.753	12756.5
1340.556	12837.5
1345.354	12975.5
1350.148	13239.5
1354.937	13522.5
1359.722	13643.5
1364.501	13691.5
1369.276	13703.5
1374.046	13872.5
1378.811	13887.5
1383.572	13479.5
1388.327	13049.5
1393.079	13060.5
1397.825	12997.5
1402.567	12708.5
1407.304	12329.5
1412.036	12186.5
1416.764	12166.5
1421.487	12169.5
1426.205	12190.5
1430.919	12279.5
1435.628	12445.5
1440.333	12703.5
1445.032	12857.5
1449.727	13041.5
1454.418	13074.5
1459.104	12967.5
1463.785	13097.5
1468.462	13351.5
1473.134	13695.5
1477.802	13846.5
1482.465	14078.5
1487.123	14352.5
1491.777	14652.5
1496.426	14918.5
1501.071	15136.5
1505.711	15384.5
1510.347	15656.5
1514.978	15790.5
1519.604	15846.5
1524.226	15749.5
1528.844	15584.5
1533.457	15297.5
1538.065	14918.5
1542.669	14396.5
1547.269	14148.5
1551.864	14055.5
1556.454	13771.5
1561.041	13191.5
1565.622	12786.5
1570.199	12350.5
1574.772	12148.5
1579.34	12087.5
1583.904	11635.5
1588.464	11179.5
1593.019	11091.5
1597.569	11046.5
1602.115	11105.5
1606.657	11213.5
1611.195	10623.5
1615.728	9403.5
1620.256	9078.5
1624.78	10205.5
1629.3	10702.5
1633.816	10293.5
1638.327	10185.5
1642.834	10576.5
1647.336	10804.5
1651.834	11107.5
1656.328	11420.5
1660.817	11678.5
1665.302	12273.5
1669.783	13252.5
1674.259	14125.5
1678.732	14410.5
1683.199	14512.5
1687.663	14739.5
1692.122	14946.5
1696.577	15035.5
1701.028	15116.5
1705.474	14413.5
1709.917	13950.5
1714.355	13495.5
1718.788	12865.5
1723.218	12659.5
1727.643	12363.5
1732.064	12060.5
1736.481	11962.5
1740.893	11828.5
1745.301	11878.5
1749.705	11829.5
1754.105	11868.5
1758.501	11808.5
1762.893	12194.5
1767.28	12999.5
1771.663	13764.5
1776.042	16821.5
1780.417	21832.5
1784.787	20704.5
1789.154	14856.5
1793.516	12638.5
1797.874	13070.5
1802.228	14252.5
1806.578	14967.5
1810.924	14239.5
1815.266	12659.5
1819.603	11785.5
1823.937	12510.5
1828.266	13283.5
1832.591	13241.5
1836.913	12449.5
1841.23	11373.5
1845.543	11437.5
1849.852	12342.5
1854.156	12810.5
1858.457	13277.5
1862.754	13597.5
1867.047	13538.5
1871.335	14087.5
1875.62	14636.5
1879.9	14501.5
1884.177	14284.5
1888.449	13970.5
1892.718	14184.5
1896.982	15463.5
1901.243	16672.5
1905.499	16154.5
1909.752	14929.5
1914	14594.5
1918.245	14694.5
1922.485	14809.5
1926.722	15046.5
1930.954	15230.5
1935.183	15506.5
1939.408	15437.5
1943.628	15349.5
1947.845	15718.5
1952.058	15950.5
1956.267	15375.5
1960.472	14252.5
1964.673	13064.5
1968.87	12248.5
1973.063	11776.5
1977.252	11414.5
1981.438	10861.5
1985.619	9936.5
1989.797	9283.5
1993.971	9081.5
1998.14	8535.5
2002.306	8048.5
2006.469	7181.5
2010.627	6338.5
2014.781	5847.5
2018.932	5755.5
2023.078	5877.5
2027.221	5370.5
2031.36	4428.5
2035.495	4003.5
2039.627	3975.5
2043.754	5259.5
2047.878	6177.5
2051.998	5388.5
2056.114	4989.5
2060.226	5705.5
2064.334	5702.5
2068.439	4852.5
2072.54	5127.5
2076.637	5505.5
2080.73	5461.5
2084.82	6179.5
2088.906	7783.5
2092.988	9277.5
2097.066	10197.5
2101.14	9606.5
2105.211	8682.5
2109.278	8330.5
2113.342	7965.5
2117.401	7826.5
2121.457	7956.5
2125.509	8080.5
2129.558	7734.5
2133.602	6373.5
2137.643	6060.5
2141.681	7060.5
2145.714	6585.5
2149.744	5070.5
2153.77	5396.5
2157.793	6793.5
2161.812	7002.5
2165.827	6041.5
2169.838	5267.5
2173.846	5658.5
2177.851	5999.5
2181.851	6283.5
2185.848	6191.5
2189.841	6082.5
2193.831	5579.5
2197.817	5904.5
2201.799	6939.5
2205.778	6755.5
2209.753	5505.5
2213.725	4564.5
2217.693	5204.5
2221.657	6670.5
2225.618	7670.5
2229.575	7224.5
2233.529	5896.5
2237.479	4923.5
2241.425	4981.5
2245.368	5400.5
2249.307	6073.5
2253.243	6405.5
2257.175	6354.5
2261.104	5833.5
2265.029	5449.5
2268.95	5547.5
2272.868	5553.5
2276.783	5190.5
2280.694	5419.5
2284.601	5407.5
2288.505	5081.5
2292.405	5449.5
2296.302	6236.5
2300.195	6303.5
2304.085	5700.5
2307.971	5439.5
2311.854	5019.5
2315.734	4451.5
2319.609	4655.5
2323.482	5115.5
2327.351	5256.5
2331.216	5195.5
2335.078	5274.5
2338.937	5540.5
2342.792	5421.5
2346.643	4998.5
2350.492	4793.5
2354.336	5140.5
2358.178	5647.5
2362.015	5612.5
2365.85	5139.5
2369.681	5139.5
2373.508	5279.5
2377.333	5430.5
2381.153	5858.5
2384.971	6633.5
2388.785	6678.5
2392.595	5886.5
2396.402	5372.5
2400.206	5632.5
2404.007	6003.5
2407.804	6209.5
2411.597	6005.5
2415.388	6020.5
2419.174	6249.5
2422.958	6231.5
2426.738	6220.5
2430.515	6068.5
2434.289	6020.5
2438.059	6143.5
2441.825	6230.5
2445.589	6170.5
2449.349	6100.5
2453.106	6081.5
2456.859	5953.5
2460.61	5840.5
2464.356	5780.5
2468.1	5583.5
2471.84	5376.5
2475.577	5514.5
2479.311	5739.5
2483.041	5725.5
2486.768	5703.5
2490.492	5638.5
2494.213	5636.5
2497.93	5626.5
2501.644	5895.5
2505.355	6262.5
2509.062	6400.5
2512.766	6352.5
2516.467	6334.5
2520.165	6425.5
2523.859	6548.5
2527.551	6343.5
2531.239	6270.5
2534.923	6354.5
2538.605	6370.5
2542.283	6519.5
2545.958	6827.5
2549.63	6889.5
2553.299	6774.5
2556.964	6818.5
2560.626	6748.5
2564.285	6643.5
2567.941	6685.5
2571.594	6802.5
2575.243	6849.5
2578.89	6859.5
2582.533	6744.5
2586.173	6631.5
2589.809	6646.5
2593.443	6732.5
2597.073	6702.5
2600.701	6726.5
2604.325	6678.5
2607.946	6577.5
2611.564	6516.5
2615.178	6500.5
2618.79	6491.5
2622.398	6433.5
2626.004	6377.5
2629.606	6249.5
2633.205	6197.5
2636.801	6104.5
2640.394	6060.5
2643.983	5977.5
2647.57	5980.5
2651.153	5898.5
2654.734	5839.5
2658.311	5764.5
2661.885	5774.5
2665.456	5705.5
2669.025	5630.5
2672.589	5613.5
2676.151	5583.5
2679.71	5540.5
2683.266	5477.5
2686.819	5473.5
2690.368	5469.5
2693.915	5400.5
2697.458	5370.5
2700.999	5375.5
2704.536	5380.5
2708.071	5387.5
2711.602	5436.5
2715.13	5459.5
2718.656	5457.5
2722.178	5519.5
2725.697	5609.5
2729.214	5754.5
2732.727	5835.5
2736.237	5949.5
2739.744	6050.5
2743.249	6148.5
2746.75	6229.5
2750.248	6237.5
2753.743	6272.5
2757.236	6221.5
2760.725	6201.5
2764.211	6199.5
2767.695	6182.5
2771.175	6117.5
2774.652	6038.5
2778.127	5930.5
2781.598	5832.5
2785.067	5764.5
2788.532	5599.5
2791.995	5540.5
2795.455	5591.5
2798.911	5658.5
2802.365	5661.5
2805.816	5648.5
2809.264	5637.5
2812.709	5585.5
2816.151	5559.5
2819.59	5538.5
2823.026	5508.5
2826.46	5475.5
2829.89	5470.5
2833.318	5462.5
2836.742	5509.5
2840.164	5533.5
2843.583	5612.5
2846.999	5693.5
2850.412	5769.5
2853.822	5895.5
2857.229	6045.5
2860.634	6197.5
2864.035	6470.5
2867.434	6861.5
2870.83	7545.5
2874.223	10184.5
2877.613	16757.5
2881	18421.5
2884.385	12805.5
2887.766	7969.5
2891.145	6728.5
2894.521	6125.5
2897.894	5718.5
2901.264	5422.5
2904.631	5193.5
2907.996	4991.5
2911.358	4836.5
2914.717	4741.5
2918.073	4611.5
2921.426	4529.5
2924.777	4498.5
2928.124	4396.5
2931.469	4393.5
2934.811	4395.5
2938.15	4417.5
2941.487	4456.5
2944.821	4481.5
2948.152	4480.5
2951.48	4430.5
2954.805	4398.5
2958.128	4347.5
2961.447	4358.5
2964.765	4292.5
2968.079	4258.5
2971.39	4201.5
2974.699	4203.5
2978.005	4195.5
2981.308	4227.5
2984.609	4221.5
2987.907	4253.5
2991.202	4277.5
2994.494	4342.5
2997.784	4407.5
3001.07	4490.5
3004.355	4531.5
3007.636	4524.5
3010.915	4406.5
3014.191	4263.5
3017.464	4108.5
3020.734	3937.5
3024.002	3779.5
3027.267	3665.5
3030.53	3544.5
3033.789	3477.5
3037.046	3398.5
3040.301	3318.5
3043.552	3266.5
3046.801	3227.5
3050.048	3209.5
3053.291	3185.5
3056.532	3202.5
3059.771	3204.5
3063.006	3253.5
3066.239	3354.5
3069.469	3391.5
3072.697	3386.5
3075.922	3369.5
3079.144	3285.5
3082.364	3226.5
3085.581	3129.5
3088.795	3035.5
3092.007	2968.5
3095.216	2917.5
3098.423	2866.5
3101.627	2831.5
3104.828	2826.5
3108.026	2804.5
3111.222	2817.5
3114.416	2827.5
3117.607	2840.5
3120.795	2864.5
3123.98	2909.5
3127.163	3005.5
3130.344	3012.5
3133.521	2977.5
3136.696	2968.5
3139.869	2924.5
3143.039	2791.5
3146.206	2764.5
3149.371	2683.5
3152.533	2637.5
3155.693	2602.5
3158.85	2541.5
3162.005	2513.5
3165.157	2482.5
3168.306	2475.5
3171.453	2454.5
3174.597	2475.5
3177.739	2540.5
3180.878	2593.5
3184.014	2671.5
3187.149	2778.5
3190.28	2821.5
3193.409	2776.5
3196.536	2696.5
3199.659	2585.5
3202.781	2460.5
3205.9	2342.5
3209.016	2280.5
3212.13	2205.5
3215.241	2170.5
3218.35	2154.5
3221.456	2112.5
3224.56	2091.5
3227.661	2083.5
3230.76	2109.5
3233.856	2159.5
3236.95	2193.5
3240.041	2260.5
3243.13	2299.5
3246.216	2332.5
3249.3	2305.5
3252.382	2250.5
3255.46	2183.5
3258.537	2054.5
3261.611	1979.5
3264.682	1898.5
3267.751	1828.5
3270.818	1801.5
3273.882	1769.5
3276.943	1742.5
3280.002	1716.5
3283.059	1712.5
3286.113	1688.5
3289.165	1669.5
3292.214	1684.5
3295.261	1693.5
3298.306	1733.5
3301.348	1798.5
3304.387	1814.5
3307.425	1849.5
3310.459	1852.5
3313.492	1821.5
3316.521	1773.5
3319.549	1680.5
3322.574	1582.5
3325.597	1513.5
3328.617	1458.5
3331.635	1405.5
3334.65	1389.5
3337.663	1340.5
3340.674	1350.5
3343.682	1379.5
3346.688	1403.5
3349.691	1445.5
3352.692	1510.5
3355.691	1613.5
3358.687	1692.5
3361.681	1795.5
3364.673	1850.5
3367.662	1849.5
3370.649	1788.5
3373.633	1636.5
3376.615	1451.5
3379.595	1291.5
3382.572	1183.5
3385.547	1100.5
3388.52	1041.5
3391.49	998.5
3394.458	982.5
3397.424	978.5
3400.387	970.5
3403.348	976.5
3406.307	1003.5
3409.263	1047.5
3412.217	1117.5
3415.168	1194.5
3418.118	1295.5
3421.065	1406.5
3424.009	1536.5
3426.951	1609.5
3429.891	1632.5
3432.829	1570.5
3435.764	1513.5
3438.697	1393.5
3441.628	1299.5
3444.557	1219.5
3447.483	1143.5
3450.407	1081.5
3453.328	1061.5
3456.247	1036.5
3459.164	1042.5
3462.079	1064.5
3464.991	1125.5
3467.902	1231.5
3470.809	1425.5
3473.715	1686.5
3476.618	2095.5
3479.519	2582.5
3482.418	3140.5
3485.315	3670.5
3488.209	4030.5
3491.101	4194.5
3493.99	4114.5
3496.878	3918.5
3499.763	3747.5
3502.646	3747.5
3505.527	3874.5
3508.405	3948.5
3511.281	3848.5
3514.155	3623.5
3517.027	3345.5
3519.897	3153.5
3522.764	3021.5
3525.629	2973.5
3528.492	3070.5
3531.352	3287.5
3534.211	3631.5
3537.067	4073.5
3539.921	4532.5
3542.773	4894.5
3545.622	5095.5
3548.469	4935.5
3551.315	4549.5
3554.157	3994.5
3556.998	3414.5
3559.837	2890.5
3562.673	2452.5
3565.507	2066.5
3568.339	1819.5
3571.169	1637.5
3573.996	1564.5
3576.822	1536.5
3579.645	1806.5
3582.466	3283.5
3585.285	5004.5
3588.101	5190.5
3590.916	3719.5
3593.728	2694.5
3596.538	2531.5
3599.346	2725.5
3602.152	2977.5
3604.956	3103.5
3607.757	3156.5
3610.556	3046.5
3613.354	2868.5
3616.149	2624.5
3618.942	2397.5
3621.732	2162.5
3624.521	1944.5
3627.307	1762.5
3630.092	1599.5
3632.874	1508.5
3635.654	1413.5
3638.432	1400.5
3641.208	1394.5
3643.982	1462.5
3646.753	1538.5
3649.523	1660.5
3652.29	1784.5
3655.055	1919.5
3657.818	1978.5
3660.579	1992.5
3663.338	1943.5
3666.095	1806.5
3668.849	1647.5
3671.602	1441.5
3674.352	1219.5
3677.101	1015.5
3679.847	845.5
3682.591	700.5
3685.333	583.5
3688.073	488.5
3690.811	416.5
3693.547	364.5
3696.281	342.5
3699.013	305.5
3701.742	298.5
3704.47	305.5
3707.195	299.5
3709.919	319.5
3712.64	308.5
3715.359	315.5
3718.076	299.5
3720.792	286.5
3723.505	269.5
3726.216	250.5
3728.925	206.5
3731.632	184.5
3734.336	150.5
3737.039	120.5
3739.74	90.5
3742.439	71.5
3745.136	72.5
3747.83	63.5
3750.523	48.5
3753.213	37.5
3755.902	39.5
3758.589	56.5
3761.273	57.5
3763.956	85.5
3766.636	107.5
3769.315	141.5
3771.991	168.5
3774.665	196.5
3777.338	244.5
3780.008	272.5
3782.677	278.5
3785.343	297.5
3788.007	292.5
3790.67	265.5
3793.33	246.5
3795.989	205.5
3798.645	188.5
3801.299	164.5
3803.952	129.5
3806.602	113.5
3809.251	101.5
3811.897	82.5
3814.542	75.5
3817.184	69.5
3819.825	75.5
3822.463	76.5
3825.1	80.5
3827.735	68.5
3830.367	72.5
3832.998	75.5
3835.627	64.5
3838.253	51.5
3840.878	52.5
3843.501	36.5
3846.122	32.5
3848.741	22.5
3851.358	10.5
3853.973	9.5
3856.586	-3.5
3859.197	-13.5
3861.806	-13.5
3864.414	-11.5
3867.019	-19.5
3869.622	-10.5
3872.224	-3.5
3874.823	8.5
3877.421	13.5
3880.016	41.5
3882.61	74.5
3885.202	95.5
3887.792	84.5
3890.38	63.5
3892.966	47.5
3895.55	46.5
3898.132	28.5
3900.713	17.5
3903.291	5.5
3905.868	-3.5
3908.442	-21.5
3911.015	-31.5
3913.586	-41.5
3916.155	-56.5
3918.722	-47.5
3921.287	-50.5
3923.85	-51.5
3926.411	-63.5
3928.971	-60.5
3931.528	-49.5
3934.084	-38.5
3936.638	-25.5
3939.19	-17.5
3941.74	-19.5
3944.288	-5.5
3946.834	-0.5
3949.378	8.5
3951.921	0.5
3954.462	5.5
3957	-11.5
3959.537	-11.5
3962.072	-24.5
3964.606	-37.5
3967.137	-54.5
3969.667	-66.5
3972.194	-75.5
3974.72	-77.5
3977.244	-83.5
3979.766	-92.5
3982.286	-97.5
3984.805	-102.5
3987.321	-88.5
3989.836	-64.5
3992.349	81.5
3994.86	-36.5
3997.369	-39.5
3999.877	-27.5
4002.382	-2.5
4004.886	9.5
4007.388	9.5
4009.888	15.5
4012.386	12.5
4014.883	3.5
4017.377	-9.5
4019.87	-32.5
4022.361	-52.5
4024.85	-61.5
4027.338	-89.5
4029.823	-105.5
4032.307	-118.5
4034.789	-119.5
4037.269	-133.5
4039.747	-136.5
4042.224	-140.5
4044.699	-141.5
4047.172	-146.5
4049.643	-142.5
4052.112	-140.5
4054.58	-130.5
4057.046	-118.5
4059.51	-116.5
4061.972	-98.5
4064.432	-89.5
4066.891	-65.5
4069.348	-48.5
4071.803	8.5
4074.256	235.5
4076.708	576.5
4079.158	644.5
4081.606	406.5
4084.052	161.5
4086.497	44.5
4088.939	-16.5
4091.38	-50.5
4093.819	-72.5
4096.257	-230.5
4098.693	-230.5
4101.127	-227.5
4103.559	-233.5
4105.989	-100.5
4108.418	-97.5
4110.845	-92.5
4113.27	-81.5
4115.694	-66.5
4118.115	-47.5
4120.535	-72.5
4122.954	-81.5
4125.37	-83.5
4127.785	-70.5
4130.198	42.5
4132.609	183.5
4135.019	-233.5
4137.427	-233.5
4139.833	-232.5
4142.237	-233.5
