Data from 2018-3-7_conc=6_n=5_RamanShift_03.txt Node
Date: Wed Mar 07 13:10:22 IST 2018
User: aro
Spectrometer: QEPB0276
Trigger mode: 0
Integration Time (sec): 3.000000E1
Scans to average: 1
Electric dark correction enabled: true
Nonlinearity correction enabled: false
Boxcar width: 0
XAxis mode: Raman Shifts
Number of Pixels in Spectrum: 1044
>>>>>Begin Spectral Data<<<<<
160.701	6.2
166.742	22.2
172.777	54.2
178.805	149.2
184.826	396.2
190.841	860.2
196.849	1413.2
202.85	1879.2
208.845	2063.2
214.833	2072.2
220.815	2019.2
226.789	2014.2
232.758	2013.2
238.719	2003.2
244.674	2017.2
250.623	1970.2
256.565	1963.2
262.5	1923.2
268.429	1924.2
274.351	1896.2
280.267	1883.2
286.176	1883.2
292.079	1868.2
297.975	1857.2
303.865	1862.2
309.748	1836.2
315.625	1852.2
321.495	1836.2
327.359	1864.2
333.217	1833.2
339.068	1848.2
344.912	1837.2
350.751	1845.2
356.583	1847.2
362.408	1866.2
368.227	1865.2
374.04	1859.2
379.847	1866.2
385.647	1869.2
391.44	1905.2
397.228	1890.2
403.009	1903.2
408.784	1902.2
414.553	1914.2
420.315	1909.2
426.071	1904.2
431.821	1888.2
437.565	1925.2
443.302	1922.2
449.033	1902.2
454.758	1902.2
460.477	1888.2
466.189	1883.2
471.896	1854.2
477.596	1857.2
483.29	1843.2
488.978	1844.2
494.66	1839.2
500.335	1791.2
506.005	1762.2
511.668	1702.2
517.325	1654.2
522.977	1604.2
528.622	1566.2
534.261	1565.2
539.894	1525.2
545.521	1514.2
551.141	1514.2
556.756	1478.2
562.365	1486.2
567.968	1477.2
573.565	1479.2
579.155	1458.2
584.74	1459.2
590.319	1456.2
595.892	1458.2
601.459	1454.2
607.02	1434.2
612.575	1421.2
618.124	1403.2
623.667	1403.2
629.204	1379.2
634.735	1375.2
640.261	1364.2
645.781	1356.2
651.294	1368.2
656.802	1330.2
662.304	1356.2
667.8	1345.2
673.29	1349.2
678.775	1342.2
684.254	1334.2
689.726	1323.2
695.193	1318.2
700.655	1317.2
706.11	1322.2
711.56	1294.2
717.004	1302.2
722.442	1279.2
727.874	1281.2
733.301	1285.2
738.722	1280.2
744.137	1267.2
749.547	1274.2
754.951	1264.2
760.349	1257.2
765.741	1278.2
771.128	1255.2
776.509	1275.2
781.885	1290.2
787.254	1281.2
792.618	1288.2
797.977	1259.2
803.33	1267.2
808.677	1269.2
814.019	1265.2
819.355	1241.2
824.686	1228.2
830.011	1243.2
835.33	1231.2
840.644	1232.2
845.952	1225.2
851.255	1224.2
856.552	1224.2
861.844	1219.2
867.13	1195.2
872.41	1195.2
877.686	1183.2
882.955	1184.2
888.219	1169.2
893.478	1157.2
898.731	1145.2
903.979	1126.2
909.221	1110.2
914.458	1122.2
919.69	1115.2
924.916	1129.2
930.136	1108.2
935.351	1122.2
940.561	1136.2
945.766	1101.2
950.965	1113.2
956.158	1096.2
961.347	1108.2
966.529	1085.2
971.707	1059.2
976.879	1056.2
982.046	1039.2
987.208	1035.2
992.364	1048.2
997.515	1042.2
1002.66	1045.2
1007.801	1066.2
1012.936	1062.2
1018.066	1075.2
1023.19	1064.2
1028.309	1072.2
1033.423	1063.2
1038.532	1065.2
1043.636	1059.2
1048.734	1048.2
1053.827	1035.2
1058.915	1006.2
1063.998	1001.2
1069.075	998.2
1074.147	1003.2
1079.214	1002.2
1084.276	1012.2
1089.333	1020.2
1094.385	1029.2
1099.431	1003.2
1104.472	1006.2
1109.509	1007.2
1114.54	985.2
1119.565	979.2
1124.586	968.2
1129.602	954.2
1134.613	948.2
1139.618	946.2
1144.619	941.2
1149.614	948.2
1154.604	934.2
1159.589	943.2
1164.57	960.2
1169.545	942.2
1174.515	960.2
1179.48	949.2
1184.44	962.2
1189.395	941.2
1194.345	928.2
1199.29	920.2
1204.23	919.2
1209.165	915.2
1214.095	917.2
1219.021	928.2
1223.941	937.2
1228.856	936.2
1233.766	942.2
1238.672	948.2
1243.572	946.2
1248.467	936.2
1253.358	917.2
1258.244	914.2
1263.124	897.2
1268	883.2
1272.871	874.2
1277.737	860.2
1282.599	868.2
1287.455	850.2
1292.306	861.2
1297.153	863.2
1301.995	876.2
1306.832	869.2
1311.664	873.2
1316.491	890.2
1321.314	875.2
1326.132	871.2
1330.945	844.2
1335.753	849.2
1340.556	819.2
1345.354	814.2
1350.148	794.2
1354.937	774.2
1359.722	775.2
1364.501	742.2
1369.276	733.2
1374.046	705.2
1378.811	708.2
1383.572	702.2
1388.327	702.2
1393.079	706.2
1397.825	712.2
1402.567	720.2
1407.304	725.2
1412.036	723.2
1416.764	718.2
1421.487	720.2
1426.205	721.2
1430.919	735.2
1435.628	732.2
1440.333	752.2
1445.032	736.2
1449.727	755.2
1454.418	749.2
1459.104	741.2
1463.785	733.2
1468.462	717.2
1473.134	712.2
1477.802	685.2
1482.465	670.2
1487.123	658.2
1491.777	644.2
1496.426	633.2
1501.071	628.2
1505.711	621.2
1510.347	624.2
1514.978	605.2
1519.604	605.2
1524.226	597.2
1528.844	607.2
1533.457	584.2
1538.065	595.2
1542.669	589.2
1547.269	589.2
1551.864	598.2
1556.454	609.2
1561.041	615.2
1565.622	613.2
1570.199	611.2
1574.772	626.2
1579.34	626.2
1583.904	637.2
1588.464	657.2
1593.019	661.2
1597.569	652.2
1602.115	663.2
1606.657	648.2
1611.195	656.2
1615.728	637.2
1620.256	650.2
1624.78	654.2
1629.3	647.2
1633.816	646.2
1638.327	642.2
1642.834	643.2
1647.336	653.2
1651.834	658.2
1656.328	643.2
1660.817	651.2
1665.302	621.2
1669.783	621.2
1674.259	607.2
1678.732	588.2
1683.199	559.2
1687.663	549.2
1692.122	511.2
1696.577	503.2
1701.028	471.2
1705.474	452.2
1709.917	443.2
1714.355	424.2
1718.788	417.2
1723.218	421.2
1727.643	429.2
1732.064	439.2
1736.481	435.2
1740.893	422.2
1745.301	413.2
1749.705	411.2
1754.105	390.2
1758.501	378.2
1762.893	373.2
1767.28	362.2
1771.663	366.2
1776.042	374.2
1780.417	358.2
1784.787	347.2
1789.154	334.2
1793.516	326.2
1797.874	319.2
1802.228	327.2
1806.578	309.2
1810.924	301.2
1815.266	305.2
1819.603	317.2
1823.937	320.2
1828.266	321.2
1832.591	315.2
1836.913	320.2
1841.23	330.2
1845.543	319.2
1849.852	329.2
1854.156	335.2
1858.457	326.2
1862.754	338.2
1867.047	335.2
1871.335	329.2
1875.62	326.2
1879.9	333.2
1884.177	321.2
1888.449	319.2
1892.718	313.2
1896.982	307.2
1901.243	294.2
1905.499	295.2
1909.752	279.2
1914	286.2
1918.245	280.2
1922.485	265.2
1926.722	269.2
1930.954	257.2
1935.183	275.2
1939.408	265.2
1943.628	253.2
1947.845	249.2
1952.058	246.2
1956.267	247.2
1960.472	244.2
1964.673	235.2
1968.87	242.2
1973.063	251.2
1977.252	239.2
1981.438	240.2
1985.619	235.2
1989.797	245.2
1993.971	249.2
1998.14	245.2
2002.306	249.2
2006.469	257.2
2010.627	250.2
2014.781	250.2
2018.932	243.2
2023.078	249.2
2027.221	239.2
2031.36	253.2
2035.495	250.2
2039.627	238.2
2043.754	240.2
2047.878	235.2
2051.998	240.2
2056.114	231.2
2060.226	229.2
2064.334	234.2
2068.439	224.2
2072.54	223.2
2076.637	227.2
2080.73	218.2
2084.82	222.2
2088.906	211.2
2092.988	207.2
2097.066	206.2
2101.14	207.2
2105.211	197.2
2109.278	198.2
2113.342	190.2
2117.401	201.2
2121.457	198.2
2125.509	196.2
2129.558	194.2
2133.602	189.2
2137.643	188.2
2141.681	196.2
2145.714	197.2
2149.744	199.2
2153.77	199.2
2157.793	193.2
2161.812	198.2
2165.827	196.2
2169.838	186.2
2173.846	186.2
2177.851	191.2
2181.851	186.2
2185.848	172.2
2189.841	184.2
2193.831	182.2
2197.817	190.2
2201.799	185.2
2205.778	184.2
2209.753	180.2
2213.725	180.2
2217.693	185.2
2221.657	179.2
2225.618	184.2
2229.575	172.2
2233.529	173.2
2237.479	180.2
2241.425	177.2
2245.368	177.2
2249.307	170.2
2253.243	166.2
2257.175	171.2
2261.104	153.2
2265.029	155.2
2268.95	157.2
2272.868	156.2
2276.783	154.2
2280.694	147.2
2284.601	150.2
2288.505	152.2
2292.405	148.2
2296.302	158.2
2300.195	146.2
2304.085	141.2
2307.971	146.2
2311.854	134.2
2315.734	139.2
2319.609	141.2
2323.482	139.2
2327.351	140.2
2331.216	147.2
2335.078	156.2
2338.937	151.2
2342.792	141.2
2346.643	136.2
2350.492	144.2
2354.336	131.2
2358.178	127.2
2362.015	132.2
2365.85	135.2
2369.681	146.2
2373.508	150.2
2377.333	148.2
2381.153	142.2
2384.971	140.2
2388.785	140.2
2392.595	142.2
2396.402	138.2
2400.206	146.2
2404.007	139.2
2407.804	139.2
2411.597	137.2
2415.388	136.2
2419.174	145.2
2422.958	137.2
2426.738	135.2
2430.515	140.2
2434.289	138.2
2438.059	126.2
2441.825	127.2
2445.589	126.2
2449.349	121.2
2453.106	129.2
2456.859	117.2
2460.61	121.2
2464.356	116.2
2468.1	125.2
2471.84	119.2
2475.577	119.2
2479.311	108.2
2483.041	122.2
2486.768	115.2
2490.492	119.2
2494.213	117.2
2497.93	114.2
2501.644	112.2
2505.355	107.2
2509.062	98.2
2512.766	107.2
2516.467	96.2
2520.165	101.2
2523.859	110.2
2527.551	101.2
2531.239	94.2
2534.923	98.2
2538.605	93.2
2542.283	84.2
2545.958	95.2
2549.63	94.2
2553.299	100.2
2556.964	93.2
2560.626	95.2
2564.285	88.2
2567.941	84.2
2571.594	87.2
2575.243	85.2
2578.89	75.2
2582.533	77.2
2586.173	76.2
2589.809	85.2
2593.443	78.2
2597.073	83.2
2600.701	72.2
2604.325	70.2
2607.946	67.2
2611.564	76.2
2615.178	72.2
2618.79	78.2
2622.398	78.2
2626.004	72.2
2629.606	70.2
2633.205	70.2
2636.801	76.2
2640.394	75.2
2643.983	70.2
2647.57	68.2
2651.153	61.2
2654.734	71.2
2658.311	62.2
2661.885	69.2
2665.456	67.2
2669.025	71.2
2672.589	58.2
2676.151	57.2
2679.71	59.2
2683.266	63.2
2686.819	65.2
2690.368	62.2
2693.915	61.2
2697.458	55.2
2700.999	60.2
2704.536	61.2
2708.071	57.2
2711.602	53.2
2715.13	45.2
2718.656	55.2
2722.178	52.2
2725.697	43.2
2729.214	51.2
2732.727	52.2
2736.237	46.2
2739.744	41.2
2743.249	47.2
2746.75	37.2
2750.248	35.2
2753.743	37.2
2757.236	28.2
2760.725	35.2
2764.211	28.2
2767.695	30.2
2771.175	35.2
2774.652	31.2
2778.127	27.2
2781.598	29.2
2785.067	28.2
2788.532	25.2
2791.995	34.2
2795.455	31.2
2798.911	35.2
2802.365	34.2
2805.816	36.2
2809.264	40.2
2812.709	35.2
2816.151	30.2
2819.59	43.2
2823.026	35.2
2826.46	34.2
2829.89	32.2
2833.318	36.2
2836.742	45.2
2840.164	34.2
2843.583	35.2
2846.999	40.2
2850.412	44.2
2853.822	38.2
2857.229	48.2
2860.634	38.2
2864.035	39.2
2867.434	43.2
2870.83	44.2
2874.223	41.2
2877.613	47.2
2881	42.2
2884.385	53.2
2887.766	49.2
2891.145	47.2
2894.521	44.2
2897.894	48.2
2901.264	43.2
2904.631	41.2
2907.996	51.2
2911.358	51.2
2914.717	45.2
2918.073	45.2
2921.426	48.2
2924.777	56.2
2928.124	53.2
2931.469	61.2
2934.811	73.2
2938.15	65.2
2941.487	74.2
2944.821	71.2
2948.152	64.2
2951.48	65.2
2954.805	67.2
2958.128	57.2
2961.447	58.2
2964.765	53.2
2968.079	62.2
2971.39	63.2
2974.699	53.2
2978.005	66.2
2981.308	52.2
2984.609	56.2
2987.907	63.2
2991.202	56.2
2994.494	58.2
2997.784	61.2
3001.07	60.2
3004.355	62.2
3007.636	61.2
3010.915	70.2
3014.191	64.2
3017.464	68.2
3020.734	67.2
3024.002	73.2
3027.267	70.2
3030.53	71.2
3033.789	75.2
3037.046	75.2
3040.301	79.2
3043.552	75.2
3046.801	81.2
3050.048	83.2
3053.291	88.2
3056.532	92.2
3059.771	93.2
3063.006	100.2
3066.239	104.2
3069.469	107.2
3072.697	101.2
3075.922	112.2
3079.144	115.2
3082.364	120.2
3085.581	121.2
3088.795	132.2
3092.007	124.2
3095.216	137.2
3098.423	125.2
3101.627	133.2
3104.828	143.2
3108.026	143.2
3111.222	146.2
3114.416	146.2
3117.607	149.2
3120.795	152.2
3123.98	149.2
3127.163	169.2
3130.344	167.2
3133.521	158.2
3136.696	168.2
3139.869	175.2
3143.039	177.2
3146.206	182.2
3149.371	178.2
3152.533	191.2
3155.693	189.2
3158.85	183.2
3162.005	187.2
3165.157	191.2
3168.306	195.2
3171.453	195.2
3174.597	185.2
3177.739	203.2
3180.878	194.2
3184.014	183.2
3187.149	189.2
3190.28	194.2
3193.409	200.2
3196.536	194.2
3199.659	192.2
3202.781	202.2
3205.9	188.2
3209.016	191.2
3212.13	192.2
3215.241	186.2
3218.35	193.2
3221.456	195.2
3224.56	182.2
3227.661	183.2
3230.76	180.2
3233.856	180.2
3236.95	174.2
3240.041	173.2
3243.13	177.2
3246.216	155.2
3249.3	167.2
3252.382	166.2
3255.46	162.2
3258.537	158.2
3261.611	149.2
3264.682	152.2
3267.751	151.2
3270.818	146.2
3273.882	150.2
3276.943	150.2
3280.002	146.2
3283.059	150.2
3286.113	137.2
3289.165	142.2
3292.214	138.2
3295.261	140.2
3298.306	138.2
3301.348	140.2
3304.387	134.2
3307.425	128.2
3310.459	134.2
3313.492	136.2
3316.521	130.2
3319.549	141.2
3322.574	133.2
3325.597	131.2
3328.617	130.2
3331.635	143.2
3334.65	140.2
3337.663	130.2
3340.674	131.2
3343.682	132.2
3346.688	130.2
3349.691	131.2
3352.692	131.2
3355.691	137.2
3358.687	137.2
3361.681	131.2
3364.673	127.2
3367.662	123.2
3370.649	129.2
3373.633	116.2
3376.615	124.2
3379.595	115.2
3382.572	113.2
3385.547	125.2
3388.52	114.2
3391.49	105.2
3394.458	102.2
3397.424	105.2
3400.387	110.2
3403.348	104.2
3406.307	99.2
3409.263	101.2
3412.217	102.2
3415.168	100.2
3418.118	97.2
3421.065	93.2
3424.009	87.2
3426.951	78.2
3429.891	94.2
3432.829	88.2
3435.764	87.2
3438.697	83.2
3441.628	72.2
3444.557	75.2
3447.483	71.2
3450.407	64.2
3453.328	69.2
3456.247	62.2
3459.164	63.2
3462.079	56.2
3464.991	51.2
3467.902	48.2
3470.809	46.2
3473.715	45.2
3476.618	39.2
3479.519	38.2
3482.418	37.2
3485.315	30.2
3488.209	25.2
3491.101	25.2
3493.99	30.2
3496.878	20.2
3499.763	21.2
3502.646	17.2
3505.527	21.2
3508.405	13.2
3511.281	14.2
3514.155	11.2
3517.027	2.2
3519.897	10.2
3522.764	10.2
3525.629	2.2
3528.492	2.2
3531.352	-0.8
3534.211	-6.8
3537.067	-6.8
3539.921	-1.8
3542.773	-8.8
3545.622	-6.8
3548.469	-13.8
3551.315	-9.8
3554.157	-16.8
3556.998	-18.8
3559.837	-20.8
3562.673	-16.8
3565.507	-20.8
3568.339	-13.8
3571.169	-20.8
3573.996	-12.8
3576.822	-32.8
3579.645	-23.8
3582.466	-23.8
3585.285	-23.8
3588.101	-26.8
3590.916	-21.8
3593.728	-25.8
3596.538	-28.8
3599.346	-30.8
3602.152	-25.8
3604.956	-29.8
3607.757	-27.8
3610.556	-31.8
3613.354	-35.8
3616.149	-34.8
3618.942	-35.8
3621.732	-36.8
3624.521	-30.8
3627.307	-35.8
3630.092	-41.8
3632.874	-35.8
3635.654	-39.8
3638.432	-33.8
3641.208	-34.8
3643.982	-27.8
3646.753	-35.8
3649.523	-36.8
3652.29	-39.8
3655.055	-36.8
3657.818	-47.8
3660.579	-44.8
3663.338	-37.8
3666.095	-42.8
3668.849	-40.8
3671.602	-45.8
3674.352	-42.8
3677.101	-47.8
3679.847	-44.8
3682.591	-44.8
3685.333	-43.8
3688.073	-53.8
3690.811	-40.8
3693.547	-49.8
3696.281	-41.8
3699.013	-44.8
3701.742	-49.8
3704.47	-40.8
3707.195	-41.8
3709.919	-45.8
3712.64	-45.8
3715.359	-46.8
3718.076	-46.8
3720.792	-46.8
3723.505	-48.8
3726.216	-46.8
3728.925	-54.8
3731.632	-41.8
3734.336	-52.8
3737.039	-49.8
3739.74	-52.8
3742.439	-58.8
3745.136	-53.8
3747.83	-47.8
3750.523	-50.8
3753.213	-48.8
3755.902	-45.8
3758.589	-51.8
3761.273	-51.8
3763.956	-53.8
3766.636	-46.8
3769.315	-44.8
3771.991	-42.8
3774.665	-57.8
3777.338	-54.8
3780.008	-57.8
3782.677	-56.8
3785.343	-49.8
3788.007	-52.8
3790.67	-54.8
3793.33	-52.8
3795.989	-53.8
3798.645	-52.8
3801.299	-51.8
3803.952	-52.8
3806.602	-50.8
3809.251	-53.8
3811.897	-50.8
3814.542	-55.8
3817.184	-50.8
3819.825	-44.8
3822.463	-53.8
3825.1	-47.8
3827.735	-55.8
3830.367	-50.8
3832.998	-52.8
3835.627	-50.8
3838.253	-47.8
3840.878	-49.8
3843.501	-54.8
3846.122	-56.8
3848.741	-52.8
3851.358	-51.8
3853.973	-46.8
3856.586	-44.8
3859.197	-53.8
3861.806	-52.8
3864.414	-50.8
3867.019	-50.8
3869.622	-46.8
3872.224	-40.8
3874.823	-34.8
3877.421	-33.8
3880.016	-21.8
3882.61	-5.8
3885.202	-4.8
3887.792	-9.8
3890.38	-29.8
3892.966	-38.8
3895.55	-49.8
3898.132	-52.8
3900.713	-53.8
3903.291	-58.8
3905.868	-52.8
3908.442	-50.8
3911.015	-52.8
3913.586	-58.8
3916.155	-55.8
3918.722	-53.8
3921.287	-53.8
3923.85	-45.8
3926.411	-53.8
3928.971	-61.8
3931.528	-55.8
3934.084	-49.8
3936.638	-51.8
3939.19	-59.8
3941.74	-54.8
3944.288	-55.8
3946.834	-59.8
3949.378	-56.8
3951.921	-54.8
3954.462	-54.8
3957	-47.8
3959.537	-48.8
3962.072	-51.8
3964.606	-43.8
3967.137	-47.8
3969.667	-54.8
3972.194	-53.8
3974.72	-51.8
3977.244	-47.8
3979.766	-52.8
3982.286	-55.8
3984.805	-61.8
3987.321	-53.8
3989.836	-46.8
3992.349	-54.8
3994.86	-55.8
3997.369	-51.8
3999.877	-53.8
4002.382	-55.8
4004.886	-45.8
4007.388	40.2
4009.888	-2.8
4012.386	-50.8
4014.883	-52.8
4017.377	-50.8
4019.87	-51.8
4022.361	-50.8
4024.85	-48.8
4027.338	-57.8
4029.823	-53.8
4032.307	-52.8
4034.789	-50.8
4037.269	-54.8
4039.747	-47.8
4042.224	-53.8
4044.699	-59.8
4047.172	-57.8
4049.643	-53.8
4052.112	-53.8
4054.58	-54.8
4057.046	-51.8
4059.51	-55.8
4061.972	-56.8
4064.432	-54.8
4066.891	-51.8
4069.348	-53.8
4071.803	-49.8
4074.256	-47.8
4076.708	-53.8
4079.158	-56.8
4081.606	-54.8
4084.052	-48.8
4086.497	-49.8
4088.939	-50.8
4091.38	-57.8
4093.819	-54.8
4096.257	-58.8
4098.693	-55.8
4101.127	-50.8
4103.559	-58.8
4105.989	-1.8
4108.418	0.2
4110.845	-0.8
4113.27	5.2
4115.694	6.2
4118.115	8.2
4120.535	-55.8
4122.954	-47.8
4125.37	-53.8
4127.785	-52.8
4130.198	-52.8
4132.609	-51.8
4135.019	-56.8
4137.427	-59.8
4139.833	-57.8
4142.237	-57.8
