Data from 2018-3-7_conc=3_n=8_RamanShift_02.txt Node
Date: Wed Mar 07 11:38:22 IST 2018
User: aro
Spectrometer: QEPB0276
Trigger mode: 0
Integration Time (sec): 3.000000E1
Scans to average: 1
Electric dark correction enabled: true
Nonlinearity correction enabled: false
Boxcar width: 0
XAxis mode: Raman Shifts
Number of Pixels in Spectrum: 1044
>>>>>Begin Spectral Data<<<<<
160.701	18.5
166.742	23.5
172.777	52.5
178.805	142.5
184.826	354.5
190.841	733.5
196.849	1212.5
202.85	1561.5
208.845	1708.5
214.833	1721.5
220.815	1701.5
226.789	1711.5
232.758	1697.5
238.719	1696.5
244.674	1682.5
250.623	1689.5
256.565	1675.5
262.5	1652.5
268.429	1640.5
274.351	1632.5
280.267	1616.5
286.176	1622.5
292.079	1618.5
297.975	1606.5
303.865	1606.5
309.748	1590.5
315.625	1608.5
321.495	1622.5
327.359	1614.5
333.217	1615.5
339.068	1604.5
344.912	1638.5
350.751	1624.5
356.583	1629.5
362.408	1639.5
368.227	1643.5
374.04	1639.5
379.847	1659.5
385.647	1666.5
391.44	1680.5
397.228	1685.5
403.009	1701.5
408.784	1694.5
414.553	1707.5
420.315	1709.5
426.071	1711.5
431.821	1690.5
437.565	1714.5
443.302	1711.5
449.033	1710.5
454.758	1712.5
460.477	1671.5
466.189	1671.5
471.896	1645.5
477.596	1653.5
483.29	1645.5
488.978	1615.5
494.66	1622.5
500.335	1597.5
506.005	1526.5
511.668	1449.5
517.325	1404.5
522.977	1359.5
528.622	1343.5
534.261	1291.5
539.894	1270.5
545.521	1260.5
551.141	1244.5
556.756	1231.5
562.365	1216.5
567.968	1212.5
573.565	1199.5
579.155	1212.5
584.74	1191.5
590.319	1177.5
595.892	1187.5
601.459	1191.5
607.02	1187.5
612.575	1171.5
618.124	1169.5
623.667	1149.5
629.204	1136.5
634.735	1118.5
640.261	1102.5
645.781	1100.5
651.294	1113.5
656.802	1100.5
662.304	1090.5
667.8	1081.5
673.29	1084.5
678.775	1080.5
684.254	1083.5
689.726	1062.5
695.193	1090.5
700.655	1070.5
706.11	1059.5
711.56	1038.5
717.004	1042.5
722.442	1025.5
727.874	1024.5
733.301	1046.5
738.722	1016.5
744.137	1016.5
749.547	1010.5
754.951	1000.5
760.349	1016.5
765.741	1027.5
771.128	1022.5
776.509	1024.5
781.885	1054.5
787.254	1046.5
792.618	1041.5
797.977	1038.5
803.33	1036.5
808.677	1026.5
814.019	1022.5
819.355	1007.5
824.686	1015.5
830.011	1011.5
835.33	997.5
840.644	1001.5
845.952	997.5
851.255	978.5
856.552	980.5
861.844	977.5
867.13	951.5
872.41	953.5
877.686	956.5
882.955	938.5
888.219	919.5
893.478	924.5
898.731	889.5
903.979	901.5
909.221	906.5
914.458	884.5
919.69	872.5
924.916	896.5
930.136	895.5
935.351	900.5
940.561	885.5
945.766	890.5
950.965	878.5
956.158	867.5
961.347	866.5
966.529	855.5
971.707	831.5
976.879	814.5
982.046	816.5
987.208	811.5
992.364	819.5
997.515	820.5
1002.66	820.5
1007.801	826.5
1012.936	842.5
1018.066	848.5
1023.19	855.5
1028.309	840.5
1033.423	856.5
1038.532	842.5
1043.636	841.5
1048.734	837.5
1053.827	808.5
1058.915	811.5
1063.998	805.5
1069.075	792.5
1074.147	796.5
1079.214	792.5
1084.276	803.5
1089.333	811.5
1094.385	803.5
1099.431	805.5
1104.472	799.5
1109.509	791.5
1114.54	786.5
1119.565	773.5
1124.586	763.5
1129.602	769.5
1134.613	735.5
1139.618	734.5
1144.619	739.5
1149.614	751.5
1154.604	739.5
1159.589	751.5
1164.57	749.5
1169.545	747.5
1174.515	758.5
1179.48	747.5
1184.44	738.5
1189.395	743.5
1194.345	724.5
1199.29	726.5
1204.23	724.5
1209.165	723.5
1214.095	728.5
1219.021	734.5
1223.941	740.5
1228.856	748.5
1233.766	738.5
1238.672	745.5
1243.572	746.5
1248.467	741.5
1253.358	742.5
1258.244	713.5
1263.124	692.5
1268	688.5
1272.871	668.5
1277.737	675.5
1282.599	679.5
1287.455	669.5
1292.306	678.5
1297.153	673.5
1301.995	671.5
1306.832	671.5
1311.664	688.5
1316.491	695.5
1321.314	671.5
1326.132	681.5
1330.945	667.5
1335.753	658.5
1340.556	644.5
1345.354	619.5
1350.148	617.5
1354.937	595.5
1359.722	583.5
1364.501	584.5
1369.276	574.5
1374.046	561.5
1378.811	558.5
1383.572	559.5
1388.327	552.5
1393.079	548.5
1397.825	552.5
1402.567	564.5
1407.304	550.5
1412.036	565.5
1416.764	554.5
1421.487	558.5
1426.205	558.5
1430.919	565.5
1435.628	568.5
1440.333	577.5
1445.032	564.5
1449.727	595.5
1454.418	580.5
1459.104	573.5
1463.785	554.5
1468.462	562.5
1473.134	539.5
1477.802	524.5
1482.465	523.5
1487.123	497.5
1491.777	482.5
1496.426	498.5
1501.071	481.5
1505.711	475.5
1510.347	474.5
1514.978	471.5
1519.604	464.5
1524.226	456.5
1528.844	472.5
1533.457	460.5
1538.065	467.5
1542.669	454.5
1547.269	452.5
1551.864	471.5
1556.454	483.5
1561.041	495.5
1565.622	482.5
1570.199	485.5
1574.772	479.5
1579.34	494.5
1583.904	487.5
1588.464	505.5
1593.019	507.5
1597.569	505.5
1602.115	506.5
1606.657	507.5
1611.195	498.5
1615.728	504.5
1620.256	509.5
1624.78	497.5
1629.3	494.5
1633.816	499.5
1638.327	504.5
1642.834	482.5
1647.336	494.5
1651.834	493.5
1656.328	496.5
1660.817	493.5
1665.302	489.5
1669.783	468.5
1674.259	467.5
1678.732	462.5
1683.199	434.5
1687.663	419.5
1692.122	407.5
1696.577	393.5
1701.028	375.5
1705.474	348.5
1709.917	345.5
1714.355	337.5
1718.788	321.5
1723.218	344.5
1727.643	334.5
1732.064	338.5
1736.481	336.5
1740.893	315.5
1745.301	322.5
1749.705	316.5
1754.105	304.5
1758.501	290.5
1762.893	298.5
1767.28	274.5
1771.663	289.5
1776.042	283.5
1780.417	279.5
1784.787	269.5
1789.154	265.5
1793.516	259.5
1797.874	244.5
1802.228	263.5
1806.578	254.5
1810.924	243.5
1815.266	250.5
1819.603	239.5
1823.937	255.5
1828.266	246.5
1832.591	255.5
1836.913	255.5
1841.23	252.5
1845.543	242.5
1849.852	252.5
1854.156	258.5
1858.457	257.5
1862.754	246.5
1867.047	258.5
1871.335	251.5
1875.62	250.5
1879.9	256.5
1884.177	240.5
1888.449	243.5
1892.718	243.5
1896.982	236.5
1901.243	225.5
1905.499	231.5
1909.752	217.5
1914	216.5
1918.245	210.5
1922.485	214.5
1926.722	206.5
1930.954	204.5
1935.183	208.5
1939.408	203.5
1943.628	199.5
1947.845	202.5
1952.058	207.5
1956.267	195.5
1960.472	204.5
1964.673	187.5
1968.87	189.5
1973.063	195.5
1977.252	202.5
1981.438	198.5
1985.619	193.5
1989.797	190.5
1993.971	193.5
1998.14	195.5
2002.306	190.5
2006.469	197.5
2010.627	194.5
2014.781	193.5
2018.932	190.5
2023.078	190.5
2027.221	185.5
2031.36	187.5
2035.495	185.5
2039.627	174.5
2043.754	181.5
2047.878	172.5
2051.998	178.5
2056.114	178.5
2060.226	166.5
2064.334	168.5
2068.439	167.5
2072.54	169.5
2076.637	163.5
2080.73	169.5
2084.82	170.5
2088.906	158.5
2092.988	165.5
2097.066	163.5
2101.14	156.5
2105.211	158.5
2109.278	155.5
2113.342	148.5
2117.401	154.5
2121.457	147.5
2125.509	144.5
2129.558	144.5
2133.602	147.5
2137.643	150.5
2141.681	142.5
2145.714	144.5
2149.744	145.5
2153.77	150.5
2157.793	149.5
2161.812	145.5
2165.827	149.5
2169.838	137.5
2173.846	140.5
2177.851	139.5
2181.851	145.5
2185.848	134.5
2189.841	136.5
2193.831	132.5
2197.817	130.5
2201.799	134.5
2205.778	129.5
2209.753	130.5
2213.725	135.5
2217.693	136.5
2221.657	127.5
2225.618	130.5
2229.575	119.5
2233.529	118.5
2237.479	128.5
2241.425	123.5
2245.368	130.5
2249.307	127.5
2253.243	119.5
2257.175	118.5
2261.104	105.5
2265.029	104.5
2268.95	119.5
2272.868	110.5
2276.783	110.5
2280.694	102.5
2284.601	101.5
2288.505	102.5
2292.405	99.5
2296.302	104.5
2300.195	93.5
2304.085	104.5
2307.971	97.5
2311.854	97.5
2315.734	91.5
2319.609	100.5
2323.482	94.5
2327.351	98.5
2331.216	104.5
2335.078	115.5
2338.937	101.5
2342.792	98.5
2346.643	97.5
2350.492	98.5
2354.336	95.5
2358.178	90.5
2362.015	90.5
2365.85	96.5
2369.681	103.5
2373.508	99.5
2377.333	97.5
2381.153	96.5
2384.971	85.5
2388.785	88.5
2392.595	94.5
2396.402	91.5
2400.206	91.5
2404.007	90.5
2407.804	85.5
2411.597	84.5
2415.388	89.5
2419.174	89.5
2422.958	90.5
2426.738	85.5
2430.515	88.5
2434.289	90.5
2438.059	82.5
2441.825	83.5
2445.589	85.5
2449.349	73.5
2453.106	85.5
2456.859	77.5
2460.61	74.5
2464.356	74.5
2468.1	72.5
2471.84	72.5
2475.577	73.5
2479.311	65.5
2483.041	72.5
2486.768	72.5
2490.492	66.5
2494.213	70.5
2497.93	76.5
2501.644	69.5
2505.355	64.5
2509.062	71.5
2512.766	61.5
2516.467	61.5
2520.165	62.5
2523.859	63.5
2527.551	55.5
2531.239	57.5
2534.923	56.5
2538.605	52.5
2542.283	51.5
2545.958	59.5
2549.63	57.5
2553.299	55.5
2556.964	54.5
2560.626	55.5
2564.285	53.5
2567.941	43.5
2571.594	44.5
2575.243	50.5
2578.89	47.5
2582.533	45.5
2586.173	48.5
2589.809	51.5
2593.443	55.5
2597.073	43.5
2600.701	49.5
2604.325	40.5
2607.946	33.5
2611.564	39.5
2615.178	43.5
2618.79	39.5
2622.398	34.5
2626.004	31.5
2629.606	32.5
2633.205	35.5
2636.801	33.5
2640.394	40.5
2643.983	38.5
2647.57	31.5
2651.153	36.5
2654.734	36.5
2658.311	38.5
2661.885	42.5
2665.456	34.5
2669.025	33.5
2672.589	31.5
2676.151	31.5
2679.71	25.5
2683.266	31.5
2686.819	33.5
2690.368	23.5
2693.915	33.5
2697.458	23.5
2700.999	31.5
2704.536	29.5
2708.071	28.5
2711.602	25.5
2715.13	18.5
2718.656	21.5
2722.178	15.5
2725.697	19.5
2729.214	19.5
2732.727	30.5
2736.237	29.5
2739.744	11.5
2743.249	17.5
2746.75	18.5
2750.248	16.5
2753.743	19.5
2757.236	13.5
2760.725	14.5
2764.211	14.5
2767.695	10.5
2771.175	13.5
2774.652	9.5
2778.127	15.5
2781.598	10.5
2785.067	3.5
2788.532	14.5
2791.995	20.5
2795.455	11.5
2798.911	11.5
2802.365	13.5
2805.816	15.5
2809.264	8.5
2812.709	7.5
2816.151	11.5
2819.59	17.5
2823.026	9.5
2826.46	14.5
2829.89	11.5
2833.318	9.5
2836.742	17.5
2840.164	12.5
2843.583	9.5
2846.999	21.5
2850.412	15.5
2853.822	17.5
2857.229	19.5
2860.634	11.5
2864.035	18.5
2867.434	15.5
2870.83	14.5
2874.223	20.5
2877.613	19.5
2881	20.5
2884.385	22.5
2887.766	26.5
2891.145	24.5
2894.521	22.5
2897.894	22.5
2901.264	25.5
2904.631	18.5
2907.996	25.5
2911.358	32.5
2914.717	29.5
2918.073	28.5
2921.426	25.5
2924.777	34.5
2928.124	32.5
2931.469	33.5
2934.811	34.5
2938.15	35.5
2941.487	44.5
2944.821	34.5
2948.152	38.5
2951.48	37.5
2954.805	35.5
2958.128	34.5
2961.447	38.5
2964.765	39.5
2968.079	34.5
2971.39	30.5
2974.699	30.5
2978.005	39.5
2981.308	31.5
2984.609	38.5
2987.907	34.5
2991.202	37.5
2994.494	32.5
2997.784	35.5
3001.07	31.5
3004.355	34.5
3007.636	43.5
3010.915	38.5
3014.191	31.5
3017.464	40.5
3020.734	40.5
3024.002	48.5
3027.267	40.5
3030.53	42.5
3033.789	43.5
3037.046	40.5
3040.301	43.5
3043.552	43.5
3046.801	47.5
3050.048	47.5
3053.291	53.5
3056.532	57.5
3059.771	61.5
3063.006	63.5
3066.239	61.5
3069.469	73.5
3072.697	72.5
3075.922	76.5
3079.144	71.5
3082.364	73.5
3085.581	76.5
3088.795	78.5
3092.007	79.5
3095.216	81.5
3098.423	78.5
3101.627	82.5
3104.828	90.5
3108.026	93.5
3111.222	95.5
3114.416	98.5
3117.607	103.5
3120.795	104.5
3123.98	106.5
3127.163	119.5
3130.344	111.5
3133.521	119.5
3136.696	119.5
3139.869	120.5
3143.039	118.5
3146.206	124.5
3149.371	128.5
3152.533	133.5
3155.693	131.5
3158.85	131.5
3162.005	127.5
3165.157	123.5
3168.306	132.5
3171.453	132.5
3174.597	128.5
3177.739	132.5
3180.878	134.5
3184.014	131.5
3187.149	138.5
3190.28	135.5
3193.409	143.5
3196.536	133.5
3199.659	136.5
3202.781	130.5
3205.9	135.5
3209.016	134.5
3212.13	134.5
3215.241	131.5
3218.35	129.5
3221.456	132.5
3224.56	132.5
3227.661	128.5
3230.76	120.5
3233.856	130.5
3236.95	117.5
3240.041	116.5
3243.13	120.5
3246.216	104.5
3249.3	111.5
3252.382	116.5
3255.46	115.5
3258.537	109.5
3261.611	104.5
3264.682	109.5
3267.751	105.5
3270.818	89.5
3273.882	107.5
3276.943	104.5
3280.002	104.5
3283.059	99.5
3286.113	90.5
3289.165	94.5
3292.214	97.5
3295.261	98.5
3298.306	95.5
3301.348	96.5
3304.387	96.5
3307.425	87.5
3310.459	82.5
3313.492	90.5
3316.521	88.5
3319.549	97.5
3322.574	82.5
3325.597	84.5
3328.617	88.5
3331.635	94.5
3334.65	98.5
3337.663	85.5
3340.674	88.5
3343.682	89.5
3346.688	88.5
3349.691	85.5
3352.692	86.5
3355.691	89.5
3358.687	81.5
3361.681	84.5
3364.673	84.5
3367.662	83.5
3370.649	89.5
3373.633	73.5
3376.615	72.5
3379.595	65.5
3382.572	71.5
3385.547	74.5
3388.52	65.5
3391.49	65.5
3394.458	62.5
3397.424	69.5
3400.387	72.5
3403.348	66.5
3406.307	63.5
3409.263	56.5
3412.217	62.5
3415.168	62.5
3418.118	60.5
3421.065	50.5
3424.009	55.5
3426.951	57.5
3429.891	53.5
3432.829	46.5
3435.764	53.5
3438.697	47.5
3441.628	41.5
3444.557	41.5
3447.483	43.5
3450.407	30.5
3453.328	36.5
3456.247	27.5
3459.164	36.5
3462.079	19.5
3464.991	18.5
3467.902	19.5
3470.809	21.5
3473.715	20.5
3476.618	15.5
3479.519	11.5
3482.418	9.5
3485.315	10.5
3488.209	0.5
3491.101	1.5
3493.99	13.5
3496.878	5.5
3499.763	-4.5
3502.646	-1.5
3505.527	-6.5
3508.405	-1.5
3511.281	-6.5
3514.155	-5.5
3517.027	-8.5
3519.897	-4.5
3522.764	-2.5
3525.629	-13.5
3528.492	-10.5
3531.352	-15.5
3534.211	-19.5
3537.067	-18.5
3539.921	-16.5
3542.773	-25.5
3545.622	-20.5
3548.469	-21.5
3551.315	-22.5
3554.157	-28.5
3556.998	-24.5
3559.837	-31.5
3562.673	-26.5
3565.507	-29.5
3568.339	-26.5
3571.169	-25.5
3573.996	-22.5
3576.822	-34.5
3579.645	-32.5
3582.466	-31.5
3585.285	-29.5
3588.101	-39.5
3590.916	-31.5
3593.728	-40.5
3596.538	-45.5
3599.346	-43.5
3602.152	-41.5
3604.956	-38.5
3607.757	-36.5
3610.556	-36.5
3613.354	-44.5
3616.149	-46.5
3618.942	-36.5
3621.732	-36.5
3624.521	-37.5
3627.307	-40.5
3630.092	-41.5
3632.874	-40.5
3635.654	-42.5
3638.432	-43.5
3641.208	-44.5
3643.982	-41.5
3646.753	-45.5
3649.523	-42.5
3652.29	-47.5
3655.055	-46.5
3657.818	-48.5
3660.579	-47.5
3663.338	-40.5
3666.095	-42.5
3668.849	-47.5
3671.602	-52.5
3674.352	-42.5
3677.101	-46.5
3679.847	-49.5
3682.591	-52.5
3685.333	-54.5
3688.073	-54.5
3690.811	-46.5
3693.547	-49.5
3696.281	-46.5
3699.013	-47.5
3701.742	-53.5
3704.47	-44.5
3707.195	-52.5
3709.919	-49.5
3712.64	-51.5
3715.359	-50.5
3718.076	-54.5
3720.792	-50.5
3723.505	-57.5
3726.216	-54.5
3728.925	-59.5
3731.632	-47.5
3734.336	-47.5
3737.039	-48.5
3739.74	-55.5
3742.439	-57.5
3745.136	-52.5
3747.83	-48.5
3750.523	-51.5
3753.213	-59.5
3755.902	-55.5
3758.589	-53.5
3761.273	-56.5
3763.956	-61.5
3766.636	-51.5
3769.315	-50.5
3771.991	-55.5
3774.665	-62.5
3777.338	-59.5
3780.008	-55.5
3782.677	-56.5
3785.343	-55.5
3788.007	-55.5
3790.67	-51.5
3793.33	-51.5
3795.989	-57.5
3798.645	-57.5
3801.299	-54.5
3803.952	-53.5
3806.602	-58.5
3809.251	-60.5
3811.897	-58.5
3814.542	-59.5
3817.184	-57.5
3819.825	-48.5
3822.463	-55.5
3825.1	-53.5
3827.735	-60.5
3830.367	-56.5
3832.998	-57.5
3835.627	-55.5
3838.253	-53.5
3840.878	-55.5
3843.501	-52.5
3846.122	-53.5
3848.741	-54.5
3851.358	-56.5
3853.973	-54.5
3856.586	-52.5
3859.197	-56.5
3861.806	-55.5
3864.414	-56.5
3867.019	-58.5
3869.622	-47.5
3872.224	-40.5
3874.823	-32.5
3877.421	-23.5
3880.016	-9.5
3882.61	9.5
3885.202	7.5
3887.792	0.5
3890.38	-16.5
3892.966	-38.5
3895.55	-49.5
3898.132	-54.5
3900.713	-55.5
3903.291	-61.5
3905.868	-55.5
3908.442	-56.5
3911.015	-57.5
3913.586	-60.5
3916.155	-56.5
3918.722	-55.5
3921.287	-59.5
3923.85	-47.5
3926.411	-59.5
3928.971	-65.5
3931.528	-57.5
3934.084	-55.5
3936.638	-55.5
3939.19	-64.5
3941.74	-54.5
3944.288	-58.5
3946.834	-51.5
3949.378	-56.5
3951.921	-59.5
3954.462	-60.5
3957	-49.5
3959.537	-49.5
3962.072	-45.5
3964.606	-51.5
3967.137	-56.5
3969.667	-54.5
3972.194	-54.5
3974.72	-49.5
3977.244	-50.5
3979.766	-56.5
3982.286	-58.5
3984.805	-62.5
3987.321	-52.5
3989.836	-54.5
3992.349	-57.5
3994.86	-59.5
3997.369	-58.5
3999.877	-57.5
4002.382	-52.5
4004.886	-50.5
4007.388	-54.5
4009.888	-51.5
4012.386	-53.5
4014.883	-52.5
4017.377	-49.5
4019.87	-55.5
4022.361	-59.5
4024.85	-53.5
4027.338	-55.5
4029.823	-58.5
4032.307	-60.5
4034.789	-53.5
4037.269	-54.5
4039.747	-55.5
4042.224	-59.5
4044.699	-62.5
4047.172	-59.5
4049.643	-55.5
4052.112	-51.5
4054.58	-53.5
4057.046	-51.5
4059.51	-53.5
4061.972	-55.5
4064.432	-54.5
4066.891	-50.5
4069.348	-49.5
4071.803	-51.5
4074.256	-48.5
4076.708	-55.5
4079.158	-60.5
4081.606	-59.5
4084.052	-58.5
4086.497	-51.5
4088.939	-45.5
4091.38	-61.5
4093.819	-56.5
4096.257	-58.5
4098.693	-59.5
4101.127	-52.5
4103.559	-64.5
4105.989	24.5
4108.418	16.5
4110.845	7.5
4113.27	15.5
4115.694	19.5
4118.115	19.5
4120.535	-54.5
4122.954	-56.5
4125.37	-55.5
4127.785	-53.5
4130.198	-51.5
4132.609	-58.5
4135.019	-59.5
4137.427	-58.5
4139.833	-60.5
4142.237	-58.5
