Data from 2018-3-7_conc=5_n=9_RamanShift_04.txt Node
Date: Wed Mar 07 12:51:52 IST 2018
User: aro
Spectrometer: QEPB0276
Trigger mode: 0
Integration Time (sec): 3.000000E1
Scans to average: 1
Electric dark correction enabled: true
Nonlinearity correction enabled: false
Boxcar width: 0
XAxis mode: Raman Shifts
Number of Pixels in Spectrum: 1044
>>>>>Begin Spectral Data<<<<<
160.701	-4.4
166.742	14.6
172.777	79.6
178.805	247.6
184.826	696.6
190.841	1523.6
196.849	2550.6
202.85	3361.6
208.845	3692.6
214.833	3693.6
220.815	3629.6
226.789	3613.6
232.758	3620.6
238.719	3568.6
244.674	3566.6
250.623	3491.6
256.565	3467.6
262.5	3405.6
268.429	3355.6
274.351	3309.6
280.267	3288.6
286.176	3268.6
292.079	3236.6
297.975	3236.6
303.865	3212.6
309.748	3202.6
315.625	3176.6
321.495	3178.6
327.359	3172.6
333.217	3182.6
339.068	3152.6
344.912	3169.6
350.751	3165.6
356.583	3173.6
362.408	3155.6
368.227	3157.6
374.04	3166.6
379.847	3191.6
385.647	3164.6
391.44	3200.6
397.228	3155.6
403.009	3213.6
408.784	3227.6
414.553	3243.6
420.315	3239.6
426.071	3259.6
431.821	3246.6
437.565	3229.6
443.302	3225.6
449.033	3223.6
454.758	3221.6
460.477	3202.6
466.189	3195.6
471.896	3189.6
477.596	3160.6
483.29	3167.6
488.978	3151.6
494.66	3151.6
500.335	3111.6
506.005	3036.6
511.668	2987.6
517.325	2951.6
522.977	2891.6
528.622	2852.6
534.261	2831.6
539.894	2819.6
545.521	2797.6
551.141	2803.6
556.756	2762.6
562.365	2766.6
567.968	2746.6
573.565	2763.6
579.155	2717.6
584.74	2711.6
590.319	2687.6
595.892	2673.6
601.459	2688.6
607.02	2663.6
612.575	2629.6
618.124	2614.6
623.667	2598.6
629.204	2588.6
634.735	2557.6
640.261	2542.6
645.781	2546.6
651.294	2541.6
656.802	2538.6
662.304	2527.6
667.8	2538.6
673.29	2518.6
678.775	2520.6
684.254	2528.6
689.726	2491.6
695.193	2499.6
700.655	2465.6
706.11	2440.6
711.56	2434.6
717.004	2433.6
722.442	2387.6
727.874	2408.6
733.301	2421.6
738.722	2380.6
744.137	2397.6
749.547	2398.6
754.951	2377.6
760.349	2368.6
765.741	2397.6
771.128	2392.6
776.509	2381.6
781.885	2396.6
787.254	2392.6
792.618	2383.6
797.977	2366.6
803.33	2362.6
808.677	2341.6
814.019	2338.6
819.355	2313.6
824.686	2308.6
830.011	2301.6
835.33	2307.6
840.644	2278.6
845.952	2304.6
851.255	2289.6
856.552	2304.6
861.844	2283.6
867.13	2273.6
872.41	2261.6
877.686	2250.6
882.955	2227.6
888.219	2222.6
893.478	2192.6
898.731	2157.6
903.979	2153.6
909.221	2132.6
914.458	2126.6
919.69	2120.6
924.916	2126.6
930.136	2129.6
935.351	2146.6
940.561	2131.6
945.766	2122.6
950.965	2129.6
956.158	2109.6
961.347	2086.6
966.529	2054.6
971.707	1998.6
976.879	1989.6
982.046	1984.6
987.208	1980.6
992.364	1977.6
997.515	1977.6
1002.66	1985.6
1007.801	2029.6
1012.936	2039.6
1018.066	2044.6
1023.19	2026.6
1028.309	2016.6
1033.423	2026.6
1038.532	2015.6
1043.636	1991.6
1048.734	1974.6
1053.827	1931.6
1058.915	1921.6
1063.998	1917.6
1069.075	1904.6
1074.147	1884.6
1079.214	1928.6
1084.276	1925.6
1089.333	1933.6
1094.385	1947.6
1099.431	1947.6
1104.472	1939.6
1109.509	1930.6
1114.54	1898.6
1119.565	1867.6
1124.586	1863.6
1129.602	1836.6
1134.613	1818.6
1139.618	1803.6
1144.619	1811.6
1149.614	1816.6
1154.604	1798.6
1159.589	1810.6
1164.57	1817.6
1169.545	1810.6
1174.515	1810.6
1179.48	1823.6
1184.44	1798.6
1189.395	1775.6
1194.345	1780.6
1199.29	1753.6
1204.23	1753.6
1209.165	1754.6
1214.095	1769.6
1219.021	1790.6
1223.941	1802.6
1228.856	1797.6
1233.766	1816.6
1238.672	1830.6
1243.572	1811.6
1248.467	1801.6
1253.358	1779.6
1258.244	1733.6
1263.124	1718.6
1268	1692.6
1272.871	1674.6
1277.737	1665.6
1282.599	1661.6
1287.455	1659.6
1292.306	1664.6
1297.153	1667.6
1301.995	1677.6
1306.832	1697.6
1311.664	1694.6
1316.491	1702.6
1321.314	1703.6
1326.132	1693.6
1330.945	1668.6
1335.753	1639.6
1340.556	1597.6
1345.354	1564.6
1350.148	1537.6
1354.937	1486.6
1359.722	1437.6
1364.501	1401.6
1369.276	1367.6
1374.046	1348.6
1378.811	1326.6
1383.572	1358.6
1388.327	1338.6
1393.079	1369.6
1397.825	1374.6
1402.567	1391.6
1407.304	1413.6
1412.036	1393.6
1416.764	1410.6
1421.487	1409.6
1426.205	1408.6
1430.919	1407.6
1435.628	1432.6
1440.333	1425.6
1445.032	1434.6
1449.727	1441.6
1454.418	1456.6
1459.104	1435.6
1463.785	1403.6
1468.462	1373.6
1473.134	1335.6
1477.802	1316.6
1482.465	1258.6
1487.123	1247.6
1491.777	1216.6
1496.426	1186.6
1501.071	1165.6
1505.711	1155.6
1510.347	1143.6
1514.978	1129.6
1519.604	1144.6
1524.226	1137.6
1528.844	1131.6
1533.457	1117.6
1538.065	1133.6
1542.669	1135.6
1547.269	1132.6
1551.864	1147.6
1556.454	1154.6
1561.041	1176.6
1565.622	1193.6
1570.199	1196.6
1574.772	1217.6
1579.34	1217.6
1583.904	1254.6
1588.464	1268.6
1593.019	1283.6
1597.569	1272.6
1602.115	1277.6
1606.657	1254.6
1611.195	1260.6
1615.728	1268.6
1620.256	1245.6
1624.78	1254.6
1629.3	1251.6
1633.816	1245.6
1638.327	1266.6
1642.834	1246.6
1647.336	1267.6
1651.834	1246.6
1656.328	1244.6
1660.817	1245.6
1665.302	1213.6
1669.783	1186.6
1674.259	1159.6
1678.732	1132.6
1683.199	1091.6
1687.663	1028.6
1692.122	982.6
1696.577	926.6
1701.028	846.6
1705.474	810.6
1709.917	801.6
1714.355	783.6
1718.788	806.6
1723.218	810.6
1727.643	813.6
1732.064	810.6
1736.481	816.6
1740.893	784.6
1745.301	785.6
1749.705	771.6
1754.105	743.6
1758.501	731.6
1762.893	730.6
1767.28	706.6
1771.663	702.6
1776.042	691.6
1780.417	670.6
1784.787	654.6
1789.154	632.6
1793.516	607.6
1797.874	601.6
1802.228	587.6
1806.578	587.6
1810.924	568.6
1815.266	579.6
1819.603	597.6
1823.937	597.6
1828.266	604.6
1832.591	610.6
1836.913	616.6
1841.23	630.6
1845.543	622.6
1849.852	634.6
1854.156	626.6
1858.457	632.6
1862.754	616.6
1867.047	624.6
1871.335	626.6
1875.62	625.6
1879.9	623.6
1884.177	597.6
1888.449	593.6
1892.718	594.6
1896.982	571.6
1901.243	551.6
1905.499	533.6
1909.752	524.6
1914	518.6
1918.245	498.6
1922.485	491.6
1926.722	482.6
1930.954	480.6
1935.183	471.6
1939.408	455.6
1943.628	469.6
1947.845	468.6
1952.058	453.6
1956.267	447.6
1960.472	467.6
1964.673	450.6
1968.87	451.6
1973.063	454.6
1977.252	463.6
1981.438	461.6
1985.619	465.6
1989.797	474.6
1993.971	479.6
1998.14	482.6
2002.306	486.6
2006.469	492.6
2010.627	493.6
2014.781	497.6
2018.932	486.6
2023.078	486.6
2027.221	474.6
2031.36	477.6
2035.495	476.6
2039.627	470.6
2043.754	461.6
2047.878	448.6
2051.998	449.6
2056.114	440.6
2060.226	431.6
2064.334	431.6
2068.439	429.6
2072.54	420.6
2076.637	429.6
2080.73	410.6
2084.82	418.6
2088.906	402.6
2092.988	392.6
2097.066	389.6
2101.14	385.6
2105.211	380.6
2109.278	378.6
2113.342	374.6
2117.401	375.6
2121.457	374.6
2125.509	367.6
2129.558	372.6
2133.602	366.6
2137.643	369.6
2141.681	372.6
2145.714	377.6
2149.744	377.6
2153.77	386.6
2157.793	375.6
2161.812	397.6
2165.827	394.6
2169.838	370.6
2173.846	378.6
2177.851	373.6
2181.851	373.6
2185.848	364.6
2189.841	361.6
2193.831	362.6
2197.817	363.6
2201.799	358.6
2205.778	361.6
2209.753	351.6
2213.725	352.6
2217.693	356.6
2221.657	357.6
2225.618	351.6
2229.575	351.6
2233.529	358.6
2237.479	352.6
2241.425	345.6
2245.368	339.6
2249.307	343.6
2253.243	332.6
2257.175	333.6
2261.104	323.6
2265.029	323.6
2268.95	317.6
2272.868	326.6
2276.783	309.6
2280.694	302.6
2284.601	298.6
2288.505	302.6
2292.405	303.6
2296.302	310.6
2300.195	282.6
2304.085	297.6
2307.971	294.6
2311.854	282.6
2315.734	281.6
2319.609	286.6
2323.482	285.6
2327.351	287.6
2331.216	284.6
2335.078	299.6
2338.937	289.6
2342.792	278.6
2346.643	286.6
2350.492	299.6
2354.336	281.6
2358.178	279.6
2362.015	287.6
2365.85	291.6
2369.681	298.6
2373.508	298.6
2377.333	304.6
2381.153	291.6
2384.971	290.6
2388.785	281.6
2392.595	284.6
2396.402	300.6
2400.206	285.6
2404.007	284.6
2407.804	282.6
2411.597	278.6
2415.388	280.6
2419.174	291.6
2422.958	281.6
2426.738	286.6
2430.515	276.6
2434.289	280.6
2438.059	271.6
2441.825	269.6
2445.589	266.6
2449.349	257.6
2453.106	254.6
2456.859	256.6
2460.61	251.6
2464.356	255.6
2468.1	242.6
2471.84	242.6
2475.577	231.6
2479.311	236.6
2483.041	244.6
2486.768	234.6
2490.492	237.6
2494.213	229.6
2497.93	236.6
2501.644	238.6
2505.355	228.6
2509.062	223.6
2512.766	221.6
2516.467	220.6
2520.165	213.6
2523.859	216.6
2527.551	212.6
2531.239	203.6
2534.923	203.6
2538.605	196.6
2542.283	177.6
2545.958	190.6
2549.63	178.6
2553.299	188.6
2556.964	184.6
2560.626	185.6
2564.285	179.6
2567.941	181.6
2571.594	174.6
2575.243	175.6
2578.89	175.6
2582.533	172.6
2586.173	159.6
2589.809	175.6
2593.443	165.6
2597.073	163.6
2600.701	170.6
2604.325	161.6
2607.946	155.6
2611.564	157.6
2615.178	159.6
2618.79	158.6
2622.398	166.6
2626.004	156.6
2629.606	154.6
2633.205	155.6
2636.801	153.6
2640.394	162.6
2643.983	155.6
2647.57	163.6
2651.153	151.6
2654.734	153.6
2658.311	158.6
2661.885	147.6
2665.456	145.6
2669.025	155.6
2672.589	145.6
2676.151	137.6
2679.71	143.6
2683.266	142.6
2686.819	140.6
2690.368	137.6
2693.915	127.6
2697.458	129.6
2700.999	133.6
2704.536	122.6
2708.071	121.6
2711.602	125.6
2715.13	119.6
2718.656	113.6
2722.178	114.6
2725.697	109.6
2729.214	117.6
2732.727	113.6
2736.237	109.6
2739.744	92.6
2743.249	95.6
2746.75	94.6
2750.248	93.6
2753.743	82.6
2757.236	80.6
2760.725	78.6
2764.211	75.6
2767.695	69.6
2771.175	69.6
2774.652	70.6
2778.127	80.6
2781.598	78.6
2785.067	72.6
2788.532	77.6
2791.995	88.6
2795.455	82.6
2798.911	86.6
2802.365	86.6
2805.816	86.6
2809.264	92.6
2812.709	81.6
2816.151	86.6
2819.59	93.6
2823.026	89.6
2826.46	81.6
2829.89	84.6
2833.318	79.6
2836.742	86.6
2840.164	85.6
2843.583	87.6
2846.999	90.6
2850.412	80.6
2853.822	85.6
2857.229	93.6
2860.634	86.6
2864.035	88.6
2867.434	96.6
2870.83	104.6
2874.223	102.6
2877.613	109.6
2881	118.6
2884.385	106.6
2887.766	104.6
2891.145	116.6
2894.521	122.6
2897.894	116.6
2901.264	118.6
2904.631	113.6
2907.996	115.6
2911.358	120.6
2914.717	126.6
2918.073	122.6
2921.426	128.6
2924.777	119.6
2928.124	133.6
2931.469	141.6
2934.811	150.6
2938.15	151.6
2941.487	155.6
2944.821	146.6
2948.152	141.6
2951.48	143.6
2954.805	150.6
2958.128	140.6
2961.447	142.6
2964.765	135.6
2968.079	140.6
2971.39	135.6
2974.699	133.6
2978.005	130.6
2981.308	127.6
2984.609	132.6
2987.907	125.6
2991.202	135.6
2994.494	134.6
2997.784	119.6
3001.07	128.6
3004.355	135.6
3007.636	144.6
3010.915	141.6
3014.191	141.6
3017.464	143.6
3020.734	156.6
3024.002	159.6
3027.267	152.6
3030.53	157.6
3033.789	160.6
3037.046	163.6
3040.301	165.6
3043.552	177.6
3046.801	183.6
3050.048	183.6
3053.291	191.6
3056.532	197.6
3059.771	212.6
3063.006	211.6
3066.239	219.6
3069.469	232.6
3072.697	235.6
3075.922	243.6
3079.144	241.6
3082.364	249.6
3085.581	253.6
3088.795	265.6
3092.007	260.6
3095.216	267.6
3098.423	266.6
3101.627	281.6
3104.828	285.6
3108.026	291.6
3111.222	292.6
3114.416	291.6
3117.607	313.6
3120.795	300.6
3123.98	312.6
3127.163	334.6
3130.344	336.6
3133.521	329.6
3136.696	344.6
3139.869	358.6
3143.039	356.6
3146.206	367.6
3149.371	370.6
3152.533	384.6
3155.693	376.6
3158.85	387.6
3162.005	390.6
3165.157	387.6
3168.306	386.6
3171.453	396.6
3174.597	390.6
3177.739	401.6
3180.878	395.6
3184.014	383.6
3187.149	387.6
3190.28	404.6
3193.409	403.6
3196.536	399.6
3199.659	397.6
3202.781	405.6
3205.9	410.6
3209.016	400.6
3212.13	391.6
3215.241	399.6
3218.35	389.6
3221.456	393.6
3224.56	381.6
3227.661	369.6
3230.76	374.6
3233.856	367.6
3236.95	352.6
3240.041	350.6
3243.13	347.6
3246.216	342.6
3249.3	332.6
3252.382	332.6
3255.46	343.6
3258.537	317.6
3261.611	321.6
3264.682	316.6
3267.751	320.6
3270.818	301.6
3273.882	301.6
3276.943	307.6
3280.002	312.6
3283.059	307.6
3286.113	300.6
3289.165	303.6
3292.214	295.6
3295.261	292.6
3298.306	293.6
3301.348	293.6
3304.387	296.6
3307.425	293.6
3310.459	290.6
3313.492	282.6
3316.521	278.6
3319.549	286.6
3322.574	291.6
3325.597	285.6
3328.617	273.6
3331.635	286.6
3334.65	283.6
3337.663	277.6
3340.674	277.6
3343.682	283.6
3346.688	280.6
3349.691	281.6
3352.692	280.6
3355.691	282.6
3358.687	278.6
3361.681	277.6
3364.673	274.6
3367.662	269.6
3370.649	264.6
3373.633	268.6
3376.615	256.6
3379.595	255.6
3382.572	248.6
3385.547	251.6
3388.52	243.6
3391.49	233.6
3394.458	229.6
3397.424	229.6
3400.387	232.6
3403.348	212.6
3406.307	221.6
3409.263	223.6
3412.217	221.6
3415.168	212.6
3418.118	200.6
3421.065	198.6
3424.009	200.6
3426.951	193.6
3429.891	195.6
3432.829	172.6
3435.764	191.6
3438.697	177.6
3441.628	167.6
3444.557	165.6
3447.483	162.6
3450.407	146.6
3453.328	145.6
3456.247	143.6
3459.164	135.6
3462.079	123.6
3464.991	130.6
3467.902	115.6
3470.809	112.6
3473.715	107.6
3476.618	99.6
3479.519	91.6
3482.418	84.6
3485.315	81.6
3488.209	71.6
3491.101	71.6
3493.99	81.6
3496.878	59.6
3499.763	62.6
3502.646	64.6
3505.527	56.6
3508.405	55.6
3511.281	53.6
3514.155	44.6
3517.027	35.6
3519.897	42.6
3522.764	36.6
3525.629	28.6
3528.492	21.6
3531.352	22.6
3534.211	18.6
3537.067	10.6
3539.921	11.6
3542.773	1.6
3545.622	2.6
3548.469	2.6
3551.315	-1.4
3554.157	-6.4
3556.998	-4.4
3559.837	-6.4
3562.673	-9.4
3565.507	-13.4
3568.339	-13.4
3571.169	-17.4
3573.996	-14.4
3576.822	-21.4
3579.645	-23.4
3582.466	-24.4
3585.285	-24.4
3588.101	-28.4
3590.916	-28.4
3593.728	-31.4
3596.538	-41.4
3599.346	-36.4
3602.152	-37.4
3604.956	-41.4
3607.757	-36.4
3610.556	-32.4
3613.354	-47.4
3616.149	-47.4
3618.942	-42.4
3621.732	-46.4
3624.521	-44.4
3627.307	-48.4
3630.092	-50.4
3632.874	-48.4
3635.654	-50.4
3638.432	-44.4
3641.208	-52.4
3643.982	-49.4
3646.753	-51.4
3649.523	-51.4
3652.29	-56.4
3655.055	-51.4
3657.818	-61.4
3660.579	-54.4
3663.338	-55.4
3666.095	-60.4
3668.849	-63.4
3671.602	-62.4
3674.352	-60.4
3677.101	-58.4
3679.847	-57.4
3682.591	-65.4
3685.333	-62.4
3688.073	-65.4
3690.811	-61.4
3693.547	-61.4
3696.281	-61.4
3699.013	-62.4
3701.742	-70.4
3704.47	-62.4
3707.195	-65.4
3709.919	-65.4
3712.64	-70.4
3715.359	-66.4
3718.076	-72.4
3720.792	-70.4
3723.505	-75.4
3726.216	-66.4
3728.925	-74.4
3731.632	-73.4
3734.336	-69.4
3737.039	-69.4
3739.74	-71.4
3742.439	-79.4
3745.136	-74.4
3747.83	-74.4
3750.523	-77.4
3753.213	-82.4
3755.902	-72.4
3758.589	-75.4
3761.273	-71.4
3763.956	-74.4
3766.636	-74.4
3769.315	-70.4
3771.991	-73.4
3774.665	-80.4
3777.338	-73.4
3780.008	-74.4
3782.677	-80.4
3785.343	-74.4
3788.007	-76.4
3790.67	-81.4
3793.33	-79.4
3795.989	-78.4
3798.645	-81.4
3801.299	-75.4
3803.952	-75.4
3806.602	-75.4
3809.251	-81.4
3811.897	-79.4
3814.542	-82.4
3817.184	-77.4
3819.825	-77.4
3822.463	-73.4
3825.1	-75.4
3827.735	-82.4
3830.367	-84.4
3832.998	-79.4
3835.627	-78.4
3838.253	-77.4
3840.878	-71.4
3843.501	-72.4
3846.122	-81.4
3848.741	-76.4
3851.358	-79.4
3853.973	-77.4
3856.586	-75.4
3859.197	-77.4
3861.806	-77.4
3864.414	-79.4
3867.019	-81.4
3869.622	-69.4
3872.224	-68.4
3874.823	-61.4
3877.421	-63.4
3880.016	-54.4
3882.61	-41.4
3885.202	-43.4
3887.792	-45.4
3890.38	-62.4
3892.966	-77.4
3895.55	-77.4
3898.132	-75.4
3900.713	-79.4
3903.291	-85.4
3905.868	-79.4
3908.442	-74.4
3911.015	-79.4
3913.586	-79.4
3916.155	-79.4
3918.722	-76.4
3921.287	-77.4
3923.85	-75.4
3926.411	-81.4
3928.971	-90.4
3931.528	-84.4
3934.084	-77.4
3936.638	-79.4
3939.19	-82.4
3941.74	-78.4
3944.288	-82.4
3946.834	-80.4
3949.378	-77.4
3951.921	-85.4
3954.462	-83.4
3957	-77.4
3959.537	-75.4
3962.072	-77.4
3964.606	-76.4
3967.137	-77.4
3969.667	-79.4
3972.194	-73.4
3974.72	-78.4
3977.244	-81.4
3979.766	-81.4
3982.286	-78.4
3984.805	-90.4
3987.321	-78.4
3989.836	-74.4
3992.349	-79.4
3994.86	-78.4
3997.369	-81.4
3999.877	-82.4
4002.382	-76.4
4004.886	-74.4
4007.388	-81.4
4009.888	-78.4
4012.386	-84.4
4014.883	-74.4
4017.377	-69.4
4019.87	-76.4
4022.361	-80.4
4024.85	-73.4
4027.338	-80.4
4029.823	-84.4
4032.307	-75.4
4034.789	-75.4
4037.269	-76.4
4039.747	-81.4
4042.224	-82.4
4044.699	-84.4
4047.172	-82.4
4049.643	-83.4
4052.112	-81.4
4054.58	-79.4
4057.046	-81.4
4059.51	-78.4
4061.972	-81.4
4064.432	-74.4
4066.891	-77.4
4069.348	-76.4
4071.803	-73.4
4074.256	-78.4
4076.708	-78.4
4079.158	-80.4
4081.606	-80.4
4084.052	-80.4
4086.497	-77.4
4088.939	-73.4
4091.38	-81.4
4093.819	-83.4
4096.257	-82.4
4098.693	-80.4
4101.127	-78.4
4103.559	-85.4
4105.989	-22.4
4108.418	-18.4
4110.845	-26.4
4113.27	-20.4
4115.694	-8.4
4118.115	-8.4
4120.535	-79.4
4122.954	-77.4
4125.37	-82.4
4127.785	-80.4
4130.198	-81.4
4132.609	-80.4
4135.019	-84.4
4137.427	-84.4
4139.833	-83.4
4142.237	-85.4
