Data from 2018-3-7_conc=2_n=1_RamanShift_03.txt Node
Date: Wed Mar 07 10:40:22 IST 2018
User: aro
Spectrometer: QEPB0276
Trigger mode: 0
Integration Time (sec): 3.000000E1
Scans to average: 1
Electric dark correction enabled: true
Nonlinearity correction enabled: false
Boxcar width: 0
XAxis mode: Raman Shifts
Number of Pixels in Spectrum: 1044
>>>>>Begin Spectral Data<<<<<
160.701	10.8
166.742	23.8
172.777	56.8
178.805	169.8
184.826	444.8
190.841	917.8
196.849	1509.8
202.85	1965.8
208.845	2141.8
214.833	2159.8
220.815	2134.8
226.789	2141.8
232.758	2142.8
238.719	2151.8
244.674	2134.8
250.623	2141.8
256.565	2113.8
262.5	2093.8
268.429	2055.8
274.351	2080.8
280.267	2046.8
286.176	2060.8
292.079	2069.8
297.975	2074.8
303.865	2066.8
309.748	2058.8
315.625	2068.8
321.495	2091.8
327.359	2072.8
333.217	2069.8
339.068	2092.8
344.912	2092.8
350.751	2077.8
356.583	2094.8
362.408	2117.8
368.227	2117.8
374.04	2145.8
379.847	2131.8
385.647	2158.8
391.44	2151.8
397.228	2179.8
403.009	2186.8
408.784	2188.8
414.553	2198.8
420.315	2204.8
426.071	2214.8
431.821	2234.8
437.565	2189.8
443.302	2213.8
449.033	2212.8
454.758	2198.8
460.477	2175.8
466.189	2151.8
471.896	2126.8
477.596	2118.8
483.29	2109.8
488.978	2094.8
494.66	2096.8
500.335	2047.8
506.005	1980.8
511.668	1879.8
517.325	1812.8
522.977	1724.8
528.622	1686.8
534.261	1657.8
539.894	1621.8
545.521	1608.8
551.141	1598.8
556.756	1556.8
562.365	1546.8
567.968	1533.8
573.565	1513.8
579.155	1526.8
584.74	1519.8
590.319	1493.8
595.892	1490.8
601.459	1509.8
607.02	1498.8
612.575	1487.8
618.124	1452.8
623.667	1454.8
629.204	1420.8
634.735	1412.8
640.261	1405.8
645.781	1397.8
651.294	1383.8
656.802	1365.8
662.304	1374.8
667.8	1380.8
673.29	1375.8
678.775	1371.8
684.254	1374.8
689.726	1343.8
695.193	1330.8
700.655	1332.8
706.11	1333.8
711.56	1309.8
717.004	1300.8
722.442	1294.8
727.874	1288.8
733.301	1291.8
738.722	1295.8
744.137	1274.8
749.547	1295.8
754.951	1285.8
760.349	1279.8
765.741	1283.8
771.128	1284.8
776.509	1321.8
781.885	1329.8
787.254	1339.8
792.618	1335.8
797.977	1352.8
803.33	1322.8
808.677	1321.8
814.019	1299.8
819.355	1290.8
824.686	1272.8
830.011	1271.8
835.33	1271.8
840.644	1272.8
845.952	1250.8
851.255	1243.8
856.552	1242.8
861.844	1228.8
867.13	1219.8
872.41	1212.8
877.686	1215.8
882.955	1209.8
888.219	1207.8
893.478	1185.8
898.731	1149.8
903.979	1139.8
909.221	1121.8
914.458	1119.8
919.69	1130.8
924.916	1113.8
930.136	1115.8
935.351	1110.8
940.561	1111.8
945.766	1117.8
950.965	1119.8
956.158	1114.8
961.347	1089.8
966.529	1069.8
971.707	1051.8
976.879	1050.8
982.046	1035.8
987.208	1040.8
992.364	1028.8
997.515	1043.8
1002.66	1046.8
1007.801	1059.8
1012.936	1065.8
1018.066	1084.8
1023.19	1075.8
1028.309	1053.8
1033.423	1058.8
1038.532	1059.8
1043.636	1056.8
1048.734	1064.8
1053.827	1037.8
1058.915	1024.8
1063.998	1019.8
1069.075	1014.8
1074.147	1015.8
1079.214	1022.8
1084.276	1022.8
1089.333	1029.8
1094.385	1008.8
1099.431	1019.8
1104.472	1021.8
1109.509	1006.8
1114.54	1006.8
1119.565	981.8
1124.586	988.8
1129.602	965.8
1134.613	952.8
1139.618	934.8
1144.619	934.8
1149.614	940.8
1154.604	932.8
1159.589	938.8
1164.57	951.8
1169.545	956.8
1174.515	957.8
1179.48	933.8
1184.44	938.8
1189.395	939.8
1194.345	919.8
1199.29	902.8
1204.23	915.8
1209.165	918.8
1214.095	927.8
1219.021	922.8
1223.941	930.8
1228.856	941.8
1233.766	936.8
1238.672	938.8
1243.572	941.8
1248.467	933.8
1253.358	913.8
1258.244	903.8
1263.124	880.8
1268	871.8
1272.871	861.8
1277.737	871.8
1282.599	863.8
1287.455	854.8
1292.306	850.8
1297.153	851.8
1301.995	859.8
1306.832	860.8
1311.664	863.8
1316.491	867.8
1321.314	857.8
1326.132	859.8
1330.945	836.8
1335.753	815.8
1340.556	810.8
1345.354	792.8
1350.148	782.8
1354.937	769.8
1359.722	744.8
1364.501	726.8
1369.276	714.8
1374.046	703.8
1378.811	703.8
1383.572	696.8
1388.327	701.8
1393.079	696.8
1397.825	702.8
1402.567	703.8
1407.304	711.8
1412.036	713.8
1416.764	707.8
1421.487	706.8
1426.205	715.8
1430.919	707.8
1435.628	724.8
1440.333	733.8
1445.032	734.8
1449.727	748.8
1454.418	736.8
1459.104	738.8
1463.785	714.8
1468.462	696.8
1473.134	682.8
1477.802	668.8
1482.465	644.8
1487.123	629.8
1491.777	627.8
1496.426	618.8
1501.071	617.8
1505.711	591.8
1510.347	598.8
1514.978	582.8
1519.604	582.8
1524.226	575.8
1528.844	592.8
1533.457	581.8
1538.065	588.8
1542.669	580.8
1547.269	576.8
1551.864	587.8
1556.454	608.8
1561.041	613.8
1565.622	607.8
1570.199	606.8
1574.772	615.8
1579.34	619.8
1583.904	618.8
1588.464	626.8
1593.019	650.8
1597.569	634.8
1602.115	648.8
1606.657	624.8
1611.195	626.8
1615.728	621.8
1620.256	625.8
1624.78	625.8
1629.3	633.8
1633.816	629.8
1638.327	624.8
1642.834	634.8
1647.336	624.8
1651.834	622.8
1656.328	625.8
1660.817	617.8
1665.302	605.8
1669.783	595.8
1674.259	572.8
1678.732	562.8
1683.199	544.8
1687.663	518.8
1692.122	503.8
1696.577	474.8
1701.028	461.8
1705.474	439.8
1709.917	425.8
1714.355	415.8
1718.788	411.8
1723.218	411.8
1727.643	417.8
1732.064	424.8
1736.481	405.8
1740.893	400.8
1745.301	406.8
1749.705	386.8
1754.105	389.8
1758.501	362.8
1762.893	372.8
1767.28	349.8
1771.663	346.8
1776.042	340.8
1780.417	344.8
1784.787	330.8
1789.154	324.8
1793.516	325.8
1797.874	312.8
1802.228	308.8
1806.578	302.8
1810.924	299.8
1815.266	302.8
1819.603	306.8
1823.937	307.8
1828.266	298.8
1832.591	313.8
1836.913	307.8
1841.23	321.8
1845.543	318.8
1849.852	322.8
1854.156	329.8
1858.457	320.8
1862.754	316.8
1867.047	301.8
1871.335	306.8
1875.62	303.8
1879.9	317.8
1884.177	302.8
1888.449	292.8
1892.718	295.8
1896.982	285.8
1901.243	280.8
1905.499	286.8
1909.752	261.8
1914	263.8
1918.245	256.8
1922.485	257.8
1926.722	245.8
1930.954	246.8
1935.183	252.8
1939.408	241.8
1943.628	242.8
1947.845	249.8
1952.058	246.8
1956.267	237.8
1960.472	233.8
1964.673	226.8
1968.87	227.8
1973.063	238.8
1977.252	237.8
1981.438	238.8
1985.619	229.8
1989.797	238.8
1993.971	245.8
1998.14	241.8
2002.306	247.8
2006.469	246.8
2010.627	245.8
2014.781	240.8
2018.932	239.8
2023.078	239.8
2027.221	236.8
2031.36	241.8
2035.495	224.8
2039.627	220.8
2043.754	223.8
2047.878	215.8
2051.998	218.8
2056.114	214.8
2060.226	211.8
2064.334	219.8
2068.439	203.8
2072.54	205.8
2076.637	207.8
2080.73	199.8
2084.82	213.8
2088.906	198.8
2092.988	194.8
2097.066	187.8
2101.14	194.8
2105.211	188.8
2109.278	186.8
2113.342	182.8
2117.401	181.8
2121.457	177.8
2125.509	185.8
2129.558	190.8
2133.602	184.8
2137.643	187.8
2141.681	175.8
2145.714	188.8
2149.744	189.8
2153.77	179.8
2157.793	185.8
2161.812	188.8
2165.827	177.8
2169.838	173.8
2173.846	170.8
2177.851	176.8
2181.851	168.8
2185.848	172.8
2189.841	171.8
2193.831	172.8
2197.817	167.8
2201.799	164.8
2205.778	169.8
2209.753	159.8
2213.725	160.8
2217.693	166.8
2221.657	167.8
2225.618	163.8
2229.575	157.8
2233.529	154.8
2237.479	170.8
2241.425	157.8
2245.368	161.8
2249.307	155.8
2253.243	144.8
2257.175	148.8
2261.104	138.8
2265.029	146.8
2268.95	142.8
2272.868	142.8
2276.783	139.8
2280.694	135.8
2284.601	132.8
2288.505	131.8
2292.405	139.8
2296.302	143.8
2300.195	137.8
2304.085	133.8
2307.971	135.8
2311.854	133.8
2315.734	119.8
2319.609	130.8
2323.482	125.8
2327.351	128.8
2331.216	134.8
2335.078	157.8
2338.937	145.8
2342.792	131.8
2346.643	131.8
2350.492	125.8
2354.336	131.8
2358.178	124.8
2362.015	124.8
2365.85	126.8
2369.681	132.8
2373.508	126.8
2377.333	127.8
2381.153	126.8
2384.971	122.8
2388.785	122.8
2392.595	121.8
2396.402	131.8
2400.206	121.8
2404.007	126.8
2407.804	121.8
2411.597	118.8
2415.388	119.8
2419.174	123.8
2422.958	118.8
2426.738	121.8
2430.515	117.8
2434.289	118.8
2438.059	107.8
2441.825	114.8
2445.589	109.8
2449.349	111.8
2453.106	113.8
2456.859	106.8
2460.61	98.8
2464.356	106.8
2468.1	104.8
2471.84	106.8
2475.577	99.8
2479.311	98.8
2483.041	102.8
2486.768	93.8
2490.492	100.8
2494.213	93.8
2497.93	92.8
2501.644	92.8
2505.355	90.8
2509.062	90.8
2512.766	86.8
2516.467	82.8
2520.165	86.8
2523.859	87.8
2527.551	79.8
2531.239	74.8
2534.923	72.8
2538.605	74.8
2542.283	66.8
2545.958	83.8
2549.63	78.8
2553.299	76.8
2556.964	70.8
2560.626	69.8
2564.285	74.8
2567.941	68.8
2571.594	70.8
2575.243	66.8
2578.89	63.8
2582.533	67.8
2586.173	70.8
2589.809	73.8
2593.443	70.8
2597.073	62.8
2600.701	69.8
2604.325	52.8
2607.946	46.8
2611.564	67.8
2615.178	63.8
2618.79	64.8
2622.398	59.8
2626.004	60.8
2629.606	50.8
2633.205	62.8
2636.801	60.8
2640.394	66.8
2643.983	54.8
2647.57	55.8
2651.153	50.8
2654.734	49.8
2658.311	51.8
2661.885	60.8
2665.456	53.8
2669.025	60.8
2672.589	48.8
2676.151	51.8
2679.71	45.8
2683.266	49.8
2686.819	52.8
2690.368	47.8
2693.915	46.8
2697.458	43.8
2700.999	45.8
2704.536	54.8
2708.071	40.8
2711.602	42.8
2715.13	37.8
2718.656	42.8
2722.178	36.8
2725.697	35.8
2729.214	34.8
2732.727	44.8
2736.237	39.8
2739.744	34.8
2743.249	33.8
2746.75	34.8
2750.248	29.8
2753.743	31.8
2757.236	27.8
2760.725	25.8
2764.211	22.8
2767.695	20.8
2771.175	19.8
2774.652	22.8
2778.127	26.8
2781.598	18.8
2785.067	24.8
2788.532	19.8
2791.995	23.8
2795.455	19.8
2798.911	18.8
2802.365	21.8
2805.816	24.8
2809.264	22.8
2812.709	16.8
2816.151	24.8
2819.59	29.8
2823.026	21.8
2826.46	27.8
2829.89	28.8
2833.318	22.8
2836.742	29.8
2840.164	25.8
2843.583	26.8
2846.999	29.8
2850.412	28.8
2853.822	25.8
2857.229	32.8
2860.634	22.8
2864.035	25.8
2867.434	35.8
2870.83	39.8
2874.223	33.8
2877.613	36.8
2881	40.8
2884.385	40.8
2887.766	47.8
2891.145	45.8
2894.521	45.8
2897.894	43.8
2901.264	38.8
2904.631	36.8
2907.996	42.8
2911.358	46.8
2914.717	43.8
2918.073	44.8
2921.426	41.8
2924.777	53.8
2928.124	57.8
2931.469	51.8
2934.811	62.8
2938.15	62.8
2941.487	69.8
2944.821	62.8
2948.152	65.8
2951.48	58.8
2954.805	64.8
2958.128	60.8
2961.447	61.8
2964.765	55.8
2968.079	48.8
2971.39	48.8
2974.699	43.8
2978.005	49.8
2981.308	48.8
2984.609	51.8
2987.907	53.8
2991.202	56.8
2994.494	49.8
2997.784	44.8
3001.07	44.8
3004.355	50.8
3007.636	53.8
3010.915	51.8
3014.191	51.8
3017.464	58.8
3020.734	56.8
3024.002	60.8
3027.267	55.8
3030.53	59.8
3033.789	58.8
3037.046	67.8
3040.301	56.8
3043.552	67.8
3046.801	73.8
3050.048	66.8
3053.291	68.8
3056.532	80.8
3059.771	84.8
3063.006	86.8
3066.239	90.8
3069.469	90.8
3072.697	96.8
3075.922	98.8
3079.144	95.8
3082.364	97.8
3085.581	94.8
3088.795	103.8
3092.007	114.8
3095.216	118.8
3098.423	115.8
3101.627	117.8
3104.828	126.8
3108.026	127.8
3111.222	126.8
3114.416	121.8
3117.607	131.8
3120.795	131.8
3123.98	136.8
3127.163	144.8
3130.344	149.8
3133.521	148.8
3136.696	148.8
3139.869	161.8
3143.039	160.8
3146.206	157.8
3149.371	160.8
3152.533	174.8
3155.693	172.8
3158.85	168.8
3162.005	166.8
3165.157	167.8
3168.306	172.8
3171.453	175.8
3174.597	167.8
3177.739	174.8
3180.878	175.8
3184.014	178.8
3187.149	168.8
3190.28	174.8
3193.409	167.8
3196.536	165.8
3199.659	169.8
3202.781	180.8
3205.9	170.8
3209.016	176.8
3212.13	176.8
3215.241	169.8
3218.35	168.8
3221.456	160.8
3224.56	155.8
3227.661	155.8
3230.76	156.8
3233.856	156.8
3236.95	147.8
3240.041	142.8
3243.13	153.8
3246.216	140.8
3249.3	137.8
3252.382	138.8
3255.46	139.8
3258.537	129.8
3261.611	120.8
3264.682	129.8
3267.751	127.8
3270.818	122.8
3273.882	126.8
3276.943	120.8
3280.002	126.8
3283.059	116.8
3286.113	122.8
3289.165	123.8
3292.214	120.8
3295.261	125.8
3298.306	121.8
3301.348	117.8
3304.387	117.8
3307.425	113.8
3310.459	113.8
3313.492	112.8
3316.521	119.8
3319.549	121.8
3322.574	109.8
3325.597	104.8
3328.617	109.8
3331.635	116.8
3334.65	123.8
3337.663	103.8
3340.674	113.8
3343.682	116.8
3346.688	113.8
3349.691	109.8
3352.692	120.8
3355.691	111.8
3358.687	110.8
3361.681	105.8
3364.673	103.8
3367.662	109.8
3370.649	104.8
3373.633	97.8
3376.615	102.8
3379.595	101.8
3382.572	93.8
3385.547	100.8
3388.52	95.8
3391.49	86.8
3394.458	79.8
3397.424	81.8
3400.387	88.8
3403.348	76.8
3406.307	73.8
3409.263	80.8
3412.217	80.8
3415.168	80.8
3418.118	71.8
3421.065	71.8
3424.009	70.8
3426.951	62.8
3429.891	64.8
3432.829	65.8
3435.764	70.8
3438.697	65.8
3441.628	61.8
3444.557	61.8
3447.483	60.8
3450.407	40.8
3453.328	48.8
3456.247	45.8
3459.164	44.8
3462.079	37.8
3464.991	36.8
3467.902	27.8
3470.809	24.8
3473.715	31.8
3476.618	27.8
3479.519	25.8
3482.418	18.8
3485.315	23.8
3488.209	7.8
3491.101	6.8
3493.99	15.8
3496.878	9.8
3499.763	-1.2
3502.646	10.8
3505.527	12.8
3508.405	1.8
3511.281	1.8
3514.155	0.8
3517.027	-9.2
3519.897	-4.2
3522.764	-6.2
3525.629	-12.2
3528.492	-13.2
3531.352	-14.2
3534.211	-19.2
3537.067	-17.2
3539.921	-8.2
3542.773	-16.2
3545.622	-17.2
3548.469	-15.2
3551.315	-15.2
3554.157	-22.2
3556.998	-25.2
3559.837	-26.2
3562.673	-26.2
3565.507	-25.2
3568.339	-24.2
3571.169	-30.2
3573.996	-25.2
3576.822	-33.2
3579.645	-32.2
3582.466	-30.2
3585.285	-32.2
3588.101	-37.2
3590.916	-30.2
3593.728	-37.2
3596.538	-43.2
3599.346	-36.2
3602.152	-40.2
3604.956	-34.2
3607.757	-34.2
3610.556	-36.2
3613.354	-42.2
3616.149	-40.2
3618.942	-41.2
3621.732	-44.2
3624.521	-43.2
3627.307	-41.2
3630.092	-46.2
3632.874	-43.2
3635.654	-46.2
3638.432	-47.2
3641.208	-46.2
3643.982	-46.2
3646.753	-48.2
3649.523	-43.2
3652.29	-47.2
3655.055	-50.2
3657.818	-51.2
3660.579	-47.2
3663.338	-44.2
3666.095	-46.2
3668.849	-43.2
3671.602	-49.2
3674.352	-45.2
3677.101	-53.2
3679.847	-50.2
3682.591	-54.2
3685.333	-54.2
3688.073	-55.2
3690.811	-53.2
3693.547	-48.2
3696.281	-49.2
3699.013	-51.2
3701.742	-54.2
3704.47	-51.2
3707.195	-56.2
3709.919	-53.2
3712.64	-56.2
3715.359	-59.2
3718.076	-60.2
3720.792	-54.2
3723.505	-54.2
3726.216	-48.2
3728.925	-57.2
3731.632	-52.2
3734.336	-53.2
3737.039	-54.2
3739.74	-60.2
3742.439	-63.2
3745.136	-59.2
3747.83	-55.2
3750.523	-60.2
3753.213	-51.2
3755.902	-57.2
3758.589	-60.2
3761.273	-55.2
3763.956	-61.2
3766.636	-54.2
3769.315	-52.2
3771.991	-60.2
3774.665	-61.2
3777.338	-57.2
3780.008	-56.2
3782.677	-57.2
3785.343	-59.2
3788.007	-60.2
3790.67	-61.2
3793.33	-62.2
3795.989	-64.2
3798.645	-65.2
3801.299	-62.2
3803.952	-58.2
3806.602	-59.2
3809.251	-61.2
3811.897	-59.2
3814.542	-62.2
3817.184	-62.2
3819.825	-51.2
3822.463	-56.2
3825.1	-60.2
3827.735	-65.2
3830.367	-59.2
3832.998	-59.2
3835.627	-58.2
3838.253	-57.2
3840.878	-58.2
3843.501	-57.2
3846.122	-62.2
3848.741	-57.2
3851.358	-57.2
3853.973	-57.2
3856.586	-54.2
3859.197	-58.2
3861.806	-59.2
3864.414	-60.2
3867.019	-63.2
3869.622	-51.2
3872.224	-46.2
3874.823	-42.2
3877.421	-34.2
3880.016	-15.2
3882.61	-3.2
3885.202	-0.2
3887.792	-4.2
3890.38	-24.2
3892.966	-34.2
3895.55	-54.2
3898.132	-53.2
3900.713	-58.2
3903.291	-61.2
3905.868	-61.2
3908.442	-62.2
3911.015	-60.2
3913.586	-69.2
3916.155	-63.2
3918.722	-58.2
3921.287	-61.2
3923.85	-53.2
3926.411	-64.2
3928.971	-67.2
3931.528	-63.2
3934.084	-57.2
3936.638	-60.2
3939.19	-66.2
3941.74	-57.2
3944.288	-60.2
3946.834	-57.2
3949.378	-59.2
3951.921	-64.2
3954.462	-59.2
3957	-54.2
3959.537	-47.2
3962.072	-56.2
3964.606	-59.2
3967.137	-60.2
3969.667	-63.2
3972.194	-59.2
3974.72	-51.2
3977.244	-58.2
3979.766	-60.2
3982.286	-63.2
3984.805	-65.2
3987.321	-62.2
3989.836	-59.2
3992.349	-61.2
3994.86	-60.2
3997.369	-61.2
3999.877	-53.2
4002.382	-55.2
4004.886	-56.2
4007.388	-60.2
4009.888	-62.2
4012.386	-60.2
4014.883	-62.2
4017.377	-59.2
4019.87	-59.2
4022.361	-65.2
4024.85	-57.2
4027.338	-61.2
4029.823	-58.2
4032.307	-61.2
4034.789	-59.2
4037.269	-61.2
4039.747	-61.2
4042.224	-57.2
4044.699	-60.2
4047.172	-64.2
4049.643	-61.2
4052.112	-55.2
4054.58	-59.2
4057.046	-58.2
4059.51	-62.2
4061.972	-65.2
4064.432	-64.2
4066.891	-58.2
4069.348	-57.2
4071.803	-57.2
4074.256	-63.2
4076.708	-60.2
4079.158	-68.2
4081.606	-58.2
4084.052	-58.2
4086.497	-58.2
4088.939	-56.2
4091.38	-66.2
4093.819	-65.2
4096.257	-62.2
4098.693	-63.2
4101.127	-58.2
4103.559	-66.2
4105.989	16.8
4108.418	14.8
4110.845	10.8
4113.27	15.8
4115.694	16.8
4118.115	9.8
4120.535	-62.2
4122.954	-60.2
4125.37	-60.2
4127.785	-53.2
4130.198	-53.2
4132.609	-66.2
4135.019	-61.2
4137.427	-65.2
4139.833	-66.2
4142.237	-68.2
