Data from 2018-3-7_conc=2_n=6_RamanShift_05.txt Node
Date: Wed Mar 07 10:56:22 IST 2018
User: aro
Spectrometer: QEPB0276
Trigger mode: 0
Integration Time (sec): 3.000000E1
Scans to average: 1
Electric dark correction enabled: true
Nonlinearity correction enabled: false
Boxcar width: 0
XAxis mode: Raman Shifts
Number of Pixels in Spectrum: 1044
>>>>>Begin Spectral Data<<<<<
160.701	12.5
166.742	22.5
172.777	40.5
178.805	139.5
184.826	352.5
190.841	741.5
196.849	1219.5
202.85	1564.5
208.845	1730.5
214.833	1710.5
220.815	1703.5
226.789	1692.5
232.758	1719.5
238.719	1715.5
244.674	1721.5
250.623	1701.5
256.565	1712.5
262.5	1674.5
268.429	1663.5
274.351	1648.5
280.267	1661.5
286.176	1653.5
292.079	1675.5
297.975	1674.5
303.865	1672.5
309.748	1673.5
315.625	1674.5
321.495	1666.5
327.359	1690.5
333.217	1674.5
339.068	1703.5
344.912	1701.5
350.751	1689.5
356.583	1719.5
362.408	1707.5
368.227	1722.5
374.04	1720.5
379.847	1722.5
385.647	1737.5
391.44	1733.5
397.228	1745.5
403.009	1766.5
408.784	1768.5
414.553	1786.5
420.315	1791.5
426.071	1762.5
431.821	1772.5
437.565	1785.5
443.302	1767.5
449.033	1771.5
454.758	1771.5
460.477	1756.5
466.189	1741.5
471.896	1728.5
477.596	1713.5
483.29	1706.5
488.978	1681.5
494.66	1687.5
500.335	1646.5
506.005	1570.5
511.668	1508.5
517.325	1433.5
522.977	1385.5
528.622	1349.5
534.261	1309.5
539.894	1269.5
545.521	1268.5
551.141	1256.5
556.756	1243.5
562.365	1235.5
567.968	1223.5
573.565	1212.5
579.155	1195.5
584.74	1196.5
590.319	1186.5
595.892	1182.5
601.459	1180.5
607.02	1188.5
612.575	1184.5
618.124	1171.5
623.667	1153.5
629.204	1133.5
634.735	1119.5
640.261	1111.5
645.781	1100.5
651.294	1099.5
656.802	1097.5
662.304	1079.5
667.8	1095.5
673.29	1085.5
678.775	1088.5
684.254	1093.5
689.726	1070.5
695.193	1062.5
700.655	1057.5
706.11	1051.5
711.56	1054.5
717.004	1045.5
722.442	1025.5
727.874	1036.5
733.301	1014.5
738.722	1020.5
744.137	1016.5
749.547	1028.5
754.951	1007.5
760.349	1011.5
765.741	1021.5
771.128	1019.5
776.509	1051.5
781.885	1056.5
787.254	1073.5
792.618	1058.5
797.977	1046.5
803.33	1043.5
808.677	1047.5
814.019	1025.5
819.355	1039.5
824.686	1025.5
830.011	1010.5
835.33	1019.5
840.644	1008.5
845.952	1003.5
851.255	998.5
856.552	983.5
861.844	969.5
867.13	960.5
872.41	955.5
877.686	971.5
882.955	968.5
888.219	934.5
893.478	924.5
898.731	914.5
903.979	901.5
909.221	896.5
914.458	878.5
919.69	869.5
924.916	891.5
930.136	894.5
935.351	881.5
940.561	887.5
945.766	889.5
950.965	876.5
956.158	876.5
961.347	865.5
966.529	861.5
971.707	838.5
976.879	823.5
982.046	817.5
987.208	827.5
992.364	812.5
997.515	836.5
1002.66	830.5
1007.801	840.5
1012.936	842.5
1018.066	839.5
1023.19	851.5
1028.309	841.5
1033.423	848.5
1038.532	856.5
1043.636	843.5
1048.734	829.5
1053.827	818.5
1058.915	822.5
1063.998	814.5
1069.075	805.5
1074.147	794.5
1079.214	809.5
1084.276	817.5
1089.333	809.5
1094.385	827.5
1099.431	795.5
1104.472	809.5
1109.509	804.5
1114.54	784.5
1119.565	780.5
1124.586	758.5
1129.602	761.5
1134.613	743.5
1139.618	748.5
1144.619	746.5
1149.614	754.5
1154.604	748.5
1159.589	756.5
1164.57	753.5
1169.545	744.5
1174.515	751.5
1179.48	756.5
1184.44	740.5
1189.395	740.5
1194.345	736.5
1199.29	726.5
1204.23	725.5
1209.165	713.5
1214.095	741.5
1219.021	736.5
1223.941	741.5
1228.856	744.5
1233.766	741.5
1238.672	750.5
1243.572	743.5
1248.467	736.5
1253.358	726.5
1258.244	719.5
1263.124	693.5
1268	695.5
1272.871	684.5
1277.737	678.5
1282.599	692.5
1287.455	674.5
1292.306	683.5
1297.153	687.5
1301.995	683.5
1306.832	690.5
1311.664	687.5
1316.491	694.5
1321.314	680.5
1326.132	688.5
1330.945	659.5
1335.753	653.5
1340.556	638.5
1345.354	627.5
1350.148	610.5
1354.937	616.5
1359.722	584.5
1364.501	580.5
1369.276	576.5
1374.046	553.5
1378.811	561.5
1383.572	554.5
1388.327	554.5
1393.079	553.5
1397.825	562.5
1402.567	563.5
1407.304	564.5
1412.036	556.5
1416.764	567.5
1421.487	572.5
1426.205	560.5
1430.919	571.5
1435.628	572.5
1440.333	572.5
1445.032	570.5
1449.727	591.5
1454.418	592.5
1459.104	587.5
1463.785	574.5
1468.462	563.5
1473.134	549.5
1477.802	528.5
1482.465	511.5
1487.123	504.5
1491.777	496.5
1496.426	496.5
1501.071	487.5
1505.711	479.5
1510.347	483.5
1514.978	479.5
1519.604	465.5
1524.226	474.5
1528.844	466.5
1533.457	473.5
1538.065	464.5
1542.669	466.5
1547.269	469.5
1551.864	465.5
1556.454	476.5
1561.041	495.5
1565.622	483.5
1570.199	482.5
1574.772	497.5
1579.34	507.5
1583.904	511.5
1588.464	521.5
1593.019	502.5
1597.569	512.5
1602.115	515.5
1606.657	504.5
1611.195	498.5
1615.728	494.5
1620.256	498.5
1624.78	496.5
1629.3	506.5
1633.816	498.5
1638.327	501.5
1642.834	498.5
1647.336	493.5
1651.834	500.5
1656.328	508.5
1660.817	487.5
1665.302	490.5
1669.783	471.5
1674.259	459.5
1678.732	460.5
1683.199	442.5
1687.663	423.5
1692.122	402.5
1696.577	387.5
1701.028	378.5
1705.474	359.5
1709.917	345.5
1714.355	345.5
1718.788	343.5
1723.218	345.5
1727.643	343.5
1732.064	345.5
1736.481	348.5
1740.893	329.5
1745.301	322.5
1749.705	313.5
1754.105	308.5
1758.501	298.5
1762.893	298.5
1767.28	295.5
1771.663	279.5
1776.042	288.5
1780.417	271.5
1784.787	273.5
1789.154	269.5
1793.516	262.5
1797.874	264.5
1802.228	274.5
1806.578	263.5
1810.924	251.5
1815.266	257.5
1819.603	251.5
1823.937	259.5
1828.266	256.5
1832.591	263.5
1836.913	258.5
1841.23	258.5
1845.543	245.5
1849.852	263.5
1854.156	259.5
1858.457	260.5
1862.754	257.5
1867.047	260.5
1871.335	261.5
1875.62	254.5
1879.9	251.5
1884.177	243.5
1888.449	249.5
1892.718	243.5
1896.982	238.5
1901.243	230.5
1905.499	238.5
1909.752	227.5
1914	216.5
1918.245	219.5
1922.485	218.5
1926.722	213.5
1930.954	215.5
1935.183	221.5
1939.408	205.5
1943.628	203.5
1947.845	200.5
1952.058	204.5
1956.267	202.5
1960.472	205.5
1964.673	189.5
1968.87	202.5
1973.063	194.5
1977.252	202.5
1981.438	197.5
1985.619	195.5
1989.797	194.5
1993.971	198.5
1998.14	195.5
2002.306	200.5
2006.469	204.5
2010.627	205.5
2014.781	210.5
2018.932	198.5
2023.078	205.5
2027.221	202.5
2031.36	203.5
2035.495	192.5
2039.627	187.5
2043.754	192.5
2047.878	179.5
2051.998	177.5
2056.114	174.5
2060.226	171.5
2064.334	172.5
2068.439	164.5
2072.54	172.5
2076.637	175.5
2080.73	171.5
2084.82	171.5
2088.906	173.5
2092.988	169.5
2097.066	168.5
2101.14	166.5
2105.211	168.5
2109.278	157.5
2113.342	146.5
2117.401	162.5
2121.457	156.5
2125.509	156.5
2129.558	153.5
2133.602	151.5
2137.643	153.5
2141.681	151.5
2145.714	149.5
2149.744	153.5
2153.77	151.5
2157.793	155.5
2161.812	160.5
2165.827	156.5
2169.838	145.5
2173.846	145.5
2177.851	140.5
2181.851	146.5
2185.848	144.5
2189.841	136.5
2193.831	134.5
2197.817	144.5
2201.799	140.5
2205.778	131.5
2209.753	135.5
2213.725	135.5
2217.693	142.5
2221.657	141.5
2225.618	135.5
2229.575	134.5
2233.529	131.5
2237.479	128.5
2241.425	133.5
2245.368	127.5
2249.307	130.5
2253.243	117.5
2257.175	127.5
2261.104	115.5
2265.029	118.5
2268.95	124.5
2272.868	113.5
2276.783	114.5
2280.694	109.5
2284.601	109.5
2288.505	115.5
2292.405	109.5
2296.302	122.5
2300.195	108.5
2304.085	105.5
2307.971	104.5
2311.854	102.5
2315.734	88.5
2319.609	106.5
2323.482	97.5
2327.351	107.5
2331.216	116.5
2335.078	127.5
2338.937	120.5
2342.792	108.5
2346.643	99.5
2350.492	105.5
2354.336	107.5
2358.178	92.5
2362.015	101.5
2365.85	104.5
2369.681	104.5
2373.508	104.5
2377.333	108.5
2381.153	105.5
2384.971	98.5
2388.785	96.5
2392.595	105.5
2396.402	105.5
2400.206	100.5
2404.007	107.5
2407.804	103.5
2411.597	96.5
2415.388	97.5
2419.174	95.5
2422.958	92.5
2426.738	88.5
2430.515	95.5
2434.289	94.5
2438.059	92.5
2441.825	89.5
2445.589	95.5
2449.349	89.5
2453.106	96.5
2456.859	88.5
2460.61	88.5
2464.356	82.5
2468.1	86.5
2471.84	84.5
2475.577	73.5
2479.311	81.5
2483.041	76.5
2486.768	79.5
2490.492	79.5
2494.213	78.5
2497.93	76.5
2501.644	84.5
2505.355	67.5
2509.062	77.5
2512.766	78.5
2516.467	63.5
2520.165	69.5
2523.859	69.5
2527.551	68.5
2531.239	68.5
2534.923	66.5
2538.605	61.5
2542.283	61.5
2545.958	63.5
2549.63	63.5
2553.299	63.5
2556.964	59.5
2560.626	65.5
2564.285	60.5
2567.941	58.5
2571.594	52.5
2575.243	61.5
2578.89	55.5
2582.533	49.5
2586.173	53.5
2589.809	54.5
2593.443	56.5
2597.073	50.5
2600.701	54.5
2604.325	45.5
2607.946	36.5
2611.564	51.5
2615.178	53.5
2618.79	51.5
2622.398	49.5
2626.004	51.5
2629.606	46.5
2633.205	51.5
2636.801	45.5
2640.394	48.5
2643.983	51.5
2647.57	42.5
2651.153	37.5
2654.734	43.5
2658.311	40.5
2661.885	43.5
2665.456	50.5
2669.025	96.5
2672.589	47.5
2676.151	41.5
2679.71	41.5
2683.266	37.5
2686.819	40.5
2690.368	33.5
2693.915	42.5
2697.458	27.5
2700.999	34.5
2704.536	38.5
2708.071	38.5
2711.602	28.5
2715.13	24.5
2718.656	36.5
2722.178	26.5
2725.697	29.5
2729.214	30.5
2732.727	31.5
2736.237	34.5
2739.744	28.5
2743.249	25.5
2746.75	25.5
2750.248	23.5
2753.743	21.5
2757.236	22.5
2760.725	23.5
2764.211	18.5
2767.695	16.5
2771.175	20.5
2774.652	23.5
2778.127	19.5
2781.598	15.5
2785.067	14.5
2788.532	14.5
2791.995	21.5
2795.455	19.5
2798.911	22.5
2802.365	21.5
2805.816	17.5
2809.264	21.5
2812.709	18.5
2816.151	23.5
2819.59	30.5
2823.026	22.5
2826.46	21.5
2829.89	20.5
2833.318	19.5
2836.742	21.5
2840.164	23.5
2843.583	17.5
2846.999	28.5
2850.412	23.5
2853.822	19.5
2857.229	30.5
2860.634	14.5
2864.035	20.5
2867.434	23.5
2870.83	22.5
2874.223	21.5
2877.613	27.5
2881	26.5
2884.385	34.5
2887.766	30.5
2891.145	28.5
2894.521	37.5
2897.894	34.5
2901.264	30.5
2904.631	22.5
2907.996	26.5
2911.358	33.5
2914.717	26.5
2918.073	28.5
2921.426	28.5
2924.777	38.5
2928.124	40.5
2931.469	42.5
2934.811	44.5
2938.15	44.5
2941.487	54.5
2944.821	41.5
2948.152	47.5
2951.48	36.5
2954.805	45.5
2958.128	37.5
2961.447	46.5
2964.765	37.5
2968.079	37.5
2971.39	36.5
2974.699	36.5
2978.005	42.5
2981.308	37.5
2984.609	28.5
2987.907	39.5
2991.202	43.5
2994.494	31.5
2997.784	32.5
3001.07	32.5
3004.355	38.5
3007.636	40.5
3010.915	45.5
3014.191	37.5
3017.464	46.5
3020.734	47.5
3024.002	48.5
3027.267	45.5
3030.53	44.5
3033.789	49.5
3037.046	43.5
3040.301	45.5
3043.552	50.5
3046.801	52.5
3050.048	50.5
3053.291	62.5
3056.532	60.5
3059.771	60.5
3063.006	62.5
3066.239	68.5
3069.469	70.5
3072.697	68.5
3075.922	71.5
3079.144	71.5
3082.364	82.5
3085.581	77.5
3088.795	79.5
3092.007	85.5
3095.216	89.5
3098.423	87.5
3101.627	83.5
3104.828	93.5
3108.026	90.5
3111.222	96.5
3114.416	98.5
3117.607	104.5
3120.795	105.5
3123.98	102.5
3127.163	115.5
3130.344	112.5
3133.521	115.5
3136.696	114.5
3139.869	126.5
3143.039	125.5
3146.206	126.5
3149.371	122.5
3152.533	134.5
3155.693	123.5
3158.85	128.5
3162.005	136.5
3165.157	128.5
3168.306	124.5
3171.453	129.5
3174.597	126.5
3177.739	136.5
3180.878	137.5
3184.014	134.5
3187.149	130.5
3190.28	125.5
3193.409	129.5
3196.536	131.5
3199.659	129.5
3202.781	139.5
3205.9	126.5
3209.016	132.5
3212.13	136.5
3215.241	134.5
3218.35	122.5
3221.456	124.5
3224.56	121.5
3227.661	124.5
3230.76	125.5
3233.856	117.5
3236.95	113.5
3240.041	115.5
3243.13	118.5
3246.216	105.5
3249.3	108.5
3252.382	111.5
3255.46	108.5
3258.537	105.5
3261.611	107.5
3264.682	102.5
3267.751	97.5
3270.818	89.5
3273.882	100.5
3276.943	95.5
3280.002	105.5
3283.059	101.5
3286.113	98.5
3289.165	92.5
3292.214	98.5
3295.261	90.5
3298.306	89.5
3301.348	90.5
3304.387	88.5
3307.425	90.5
3310.459	84.5
3313.492	85.5
3316.521	89.5
3319.549	92.5
3322.574	79.5
3325.597	89.5
3328.617	85.5
3331.635	84.5
3334.65	93.5
3337.663	74.5
3340.674	87.5
3343.682	77.5
3346.688	88.5
3349.691	88.5
3352.692	87.5
3355.691	85.5
3358.687	84.5
3361.681	75.5
3364.673	81.5
3367.662	89.5
3370.649	81.5
3373.633	79.5
3376.615	75.5
3379.595	73.5
3382.572	68.5
3385.547	76.5
3388.52	68.5
3391.49	64.5
3394.458	62.5
3397.424	68.5
3400.387	67.5
3403.348	56.5
3406.307	61.5
3409.263	62.5
3412.217	59.5
3415.168	62.5
3418.118	54.5
3421.065	53.5
3424.009	51.5
3426.951	51.5
3429.891	49.5
3432.829	45.5
3435.764	53.5
3438.697	44.5
3441.628	41.5
3444.557	43.5
3447.483	44.5
3450.407	29.5
3453.328	37.5
3456.247	37.5
3459.164	36.5
3462.079	23.5
3464.991	25.5
3467.902	19.5
3470.809	18.5
3473.715	20.5
3476.618	14.5
3479.519	19.5
3482.418	16.5
3485.315	12.5
3488.209	9.5
3491.101	7.5
3493.99	15.5
3496.878	9.5
3499.763	4.5
3502.646	0.5
3505.527	4.5
3508.405	-0.5
3511.281	-1.5
3514.155	-0.5
3517.027	-6.5
3519.897	-3.5
3522.764	-5.5
3525.629	-2.5
3528.492	-11.5
3531.352	-10.5
3534.211	-14.5
3537.067	-14.5
3539.921	-10.5
3542.773	-22.5
3545.622	-18.5
3548.469	-16.5
3551.315	-17.5
3554.157	-18.5
3556.998	-22.5
3559.837	-22.5
3562.673	-24.5
3565.507	-27.5
3568.339	-25.5
3571.169	-28.5
3573.996	-21.5
3576.822	-34.5
3579.645	-27.5
3582.466	-28.5
3585.285	-26.5
3588.101	-33.5
3590.916	-31.5
3593.728	-31.5
3596.538	-35.5
3599.346	-27.5
3602.152	-32.5
3604.956	-29.5
3607.757	-28.5
3610.556	-35.5
3613.354	-41.5
3616.149	-38.5
3618.942	-39.5
3621.732	-34.5
3624.521	-34.5
3627.307	-36.5
3630.092	-33.5
3632.874	-35.5
3635.654	-41.5
3638.432	-36.5
3641.208	-34.5
3643.982	-36.5
3646.753	-36.5
3649.523	-41.5
3652.29	-44.5
3655.055	-40.5
3657.818	-44.5
3660.579	-43.5
3663.338	-38.5
3666.095	-46.5
3668.849	-39.5
3671.602	-44.5
3674.352	-34.5
3677.101	-38.5
3679.847	-40.5
3682.591	-48.5
3685.333	-44.5
3688.073	-49.5
3690.811	-41.5
3693.547	-45.5
3696.281	-38.5
3699.013	-49.5
3701.742	-44.5
3704.47	-39.5
3707.195	-44.5
3709.919	-39.5
3712.64	-39.5
3715.359	-47.5
3718.076	-46.5
3720.792	-46.5
3723.505	-48.5
3726.216	-48.5
3728.925	-48.5
3731.632	-42.5
3734.336	-46.5
3737.039	-36.5
3739.74	-47.5
3742.439	-45.5
3745.136	-50.5
3747.83	-42.5
3750.523	-48.5
3753.213	-55.5
3755.902	-49.5
3758.589	-48.5
3761.273	-49.5
3763.956	-51.5
3766.636	-46.5
3769.315	-45.5
3771.991	-44.5
3774.665	-50.5
3777.338	-44.5
3780.008	-42.5
3782.677	-54.5
3785.343	-45.5
3788.007	-51.5
3790.67	-50.5
3793.33	-52.5
3795.989	-52.5
3798.645	-53.5
3801.299	-50.5
3803.952	-46.5
3806.602	-50.5
3809.251	-47.5
3811.897	-48.5
3814.542	-54.5
3817.184	-48.5
3819.825	-49.5
3822.463	-45.5
3825.1	-47.5
3827.735	-57.5
3830.367	-55.5
3832.998	-53.5
3835.627	-51.5
3838.253	-46.5
3840.878	-43.5
3843.501	-43.5
3846.122	-51.5
3848.741	-46.5
3851.358	-45.5
3853.973	-41.5
3856.586	-47.5
3859.197	-52.5
3861.806	-53.5
3864.414	-50.5
3867.019	-49.5
3869.622	-45.5
3872.224	-39.5
3874.823	-27.5
3877.421	-28.5
3880.016	-14.5
3882.61	1.5
3885.202	0.5
3887.792	-6.5
3890.38	-21.5
3892.966	-38.5
3895.55	-44.5
3898.132	-46.5
3900.713	-49.5
3903.291	-54.5
3905.868	-45.5
3908.442	-46.5
3911.015	-49.5
3913.586	-53.5
3916.155	-50.5
3918.722	-52.5
3921.287	-50.5
3923.85	-45.5
3926.411	-51.5
3928.971	-61.5
3931.528	-53.5
3934.084	-44.5
3936.638	-48.5
3939.19	-56.5
3941.74	-48.5
3944.288	-50.5
3946.834	-47.5
3949.378	-48.5
3951.921	-54.5
3954.462	-49.5
3957	-50.5
3959.537	-43.5
3962.072	-48.5
3964.606	-48.5
3967.137	-50.5
3969.667	-54.5
3972.194	-43.5
3974.72	-45.5
3977.244	-43.5
3979.766	-45.5
3982.286	-50.5
3984.805	-59.5
3987.321	-48.5
3989.836	-50.5
3992.349	-51.5
3994.86	-49.5
3997.369	-51.5
3999.877	-50.5
4002.382	-46.5
4004.886	-47.5
4007.388	-50.5
4009.888	-46.5
4012.386	-49.5
4014.883	-50.5
4017.377	-43.5
4019.87	-52.5
4022.361	-53.5
4024.85	-51.5
4027.338	-52.5
4029.823	-48.5
4032.307	-50.5
4034.789	-46.5
4037.269	-47.5
4039.747	-47.5
4042.224	-54.5
4044.699	-52.5
4047.172	-54.5
4049.643	-51.5
4052.112	-54.5
4054.58	-52.5
4057.046	-52.5
4059.51	-50.5
4061.972	-52.5
4064.432	-44.5
4066.891	-44.5
4069.348	-48.5
4071.803	-43.5
4074.256	-50.5
4076.708	-50.5
4079.158	-51.5
4081.606	-51.5
4084.052	-55.5
4086.497	-45.5
4088.939	-47.5
4091.38	-51.5
4093.819	-51.5
4096.257	-54.5
4098.693	-50.5
4101.127	-48.5
4103.559	-56.5
4105.989	15.5
4108.418	11.5
4110.845	10.5
4113.27	14.5
4115.694	14.5
4118.115	14.5
4120.535	-48.5
4122.954	-44.5
4125.37	-46.5
4127.785	-48.5
4130.198	-46.5
4132.609	-53.5
4135.019	-52.5
4137.427	-58.5
4139.833	-53.5
4142.237	-50.5
