Data from 2018-3-7_conc=2_n=9_RamanShift_02.txt Node
Date: Wed Mar 07 11:04:52 IST 2018
User: aro
Spectrometer: QEPB0276
Trigger mode: 0
Integration Time (sec): 3.000000E1
Scans to average: 1
Electric dark correction enabled: true
Nonlinearity correction enabled: false
Boxcar width: 0
XAxis mode: Raman Shifts
Number of Pixels in Spectrum: 1044
>>>>>Begin Spectral Data<<<<<
160.701	14.8
166.742	19.8
172.777	48.8
178.805	126.8
184.826	327.8
190.841	677.8
196.849	1122.8
202.85	1440.8
208.845	1574.8
214.833	1578.8
220.815	1557.8
226.789	1557.8
232.758	1568.8
238.719	1570.8
244.674	1572.8
250.623	1551.8
256.565	1542.8
262.5	1523.8
268.429	1511.8
274.351	1522.8
280.267	1489.8
286.176	1506.8
292.079	1514.8
297.975	1514.8
303.865	1494.8
309.748	1487.8
315.625	1492.8
321.495	1483.8
327.359	1499.8
333.217	1520.8
339.068	1525.8
344.912	1516.8
350.751	1524.8
356.583	1518.8
362.408	1512.8
368.227	1538.8
374.04	1534.8
379.847	1549.8
385.647	1540.8
391.44	1561.8
397.228	1569.8
403.009	1576.8
408.784	1581.8
414.553	1587.8
420.315	1592.8
426.071	1575.8
431.821	1604.8
437.565	1586.8
443.302	1587.8
449.033	1592.8
454.758	1585.8
460.477	1568.8
466.189	1557.8
471.896	1534.8
477.596	1533.8
483.29	1507.8
488.978	1515.8
494.66	1506.8
500.335	1466.8
506.005	1428.8
511.668	1363.8
517.325	1326.8
522.977	1262.8
528.622	1221.8
534.261	1203.8
539.894	1171.8
545.521	1167.8
551.141	1162.8
556.756	1143.8
562.365	1128.8
567.968	1131.8
573.565	1132.8
579.155	1114.8
584.74	1099.8
590.319	1107.8
595.892	1114.8
601.459	1098.8
607.02	1092.8
612.575	1084.8
618.124	1083.8
623.667	1076.8
629.204	1043.8
634.735	1043.8
640.261	1044.8
645.781	1027.8
651.294	1027.8
656.802	1002.8
662.304	1014.8
667.8	1009.8
673.29	1017.8
678.775	984.8
684.254	1001.8
689.726	991.8
695.193	986.8
700.655	980.8
706.11	969.8
711.56	966.8
717.004	961.8
722.442	960.8
727.874	953.8
733.301	937.8
738.722	943.8
744.137	941.8
749.547	949.8
754.951	936.8
760.349	955.8
765.741	953.8
771.128	937.8
776.509	965.8
781.885	971.8
787.254	989.8
792.618	982.8
797.977	981.8
803.33	953.8
808.677	959.8
814.019	947.8
819.355	946.8
824.686	929.8
830.011	942.8
835.33	921.8
840.644	916.8
845.952	925.8
851.255	915.8
856.552	918.8
861.844	899.8
867.13	905.8
872.41	888.8
877.686	883.8
882.955	867.8
888.219	868.8
893.478	863.8
898.731	838.8
903.979	836.8
909.221	824.8
914.458	824.8
919.69	839.8
924.916	821.8
930.136	826.8
935.351	824.8
940.561	829.8
945.766	819.8
950.965	803.8
956.158	815.8
961.347	805.8
966.529	810.8
971.707	770.8
976.879	773.8
982.046	760.8
987.208	762.8
992.364	754.8
997.515	770.8
1002.66	770.8
1007.801	782.8
1012.936	781.8
1018.066	793.8
1023.19	787.8
1028.309	780.8
1033.423	782.8
1038.532	784.8
1043.636	780.8
1048.734	769.8
1053.827	757.8
1058.915	756.8
1063.998	743.8
1069.075	751.8
1074.147	749.8
1079.214	737.8
1084.276	748.8
1089.333	751.8
1094.385	757.8
1099.431	749.8
1104.472	745.8
1109.509	738.8
1114.54	747.8
1119.565	727.8
1124.586	717.8
1129.602	698.8
1134.613	700.8
1139.618	697.8
1144.619	694.8
1149.614	695.8
1154.604	692.8
1159.589	696.8
1164.57	694.8
1169.545	690.8
1174.515	702.8
1179.48	697.8
1184.44	679.8
1189.395	678.8
1194.345	676.8
1199.29	665.8
1204.23	673.8
1209.165	669.8
1214.095	679.8
1219.021	684.8
1223.941	682.8
1228.856	681.8
1233.766	682.8
1238.672	703.8
1243.572	687.8
1248.467	695.8
1253.358	676.8
1258.244	656.8
1263.124	652.8
1268	639.8
1272.871	627.8
1277.737	628.8
1282.599	624.8
1287.455	614.8
1292.306	621.8
1297.153	627.8
1301.995	634.8
1306.832	632.8
1311.664	637.8
1316.491	642.8
1321.314	641.8
1326.132	637.8
1330.945	618.8
1335.753	605.8
1340.556	592.8
1345.354	581.8
1350.148	568.8
1354.937	558.8
1359.722	545.8
1364.501	532.8
1369.276	528.8
1374.046	519.8
1378.811	519.8
1383.572	519.8
1388.327	526.8
1393.079	510.8
1397.825	524.8
1402.567	521.8
1407.304	527.8
1412.036	520.8
1416.764	518.8
1421.487	523.8
1426.205	522.8
1430.919	527.8
1435.628	526.8
1440.333	532.8
1445.032	532.8
1449.727	552.8
1454.418	542.8
1459.104	539.8
1463.785	528.8
1468.462	526.8
1473.134	515.8
1477.802	496.8
1482.465	479.8
1487.123	469.8
1491.777	460.8
1496.426	455.8
1501.071	451.8
1505.711	442.8
1510.347	451.8
1514.978	447.8
1519.604	428.8
1524.226	431.8
1528.844	428.8
1533.457	426.8
1538.065	422.8
1542.669	428.8
1547.269	428.8
1551.864	425.8
1556.454	443.8
1561.041	458.8
1565.622	456.8
1570.199	448.8
1574.772	451.8
1579.34	453.8
1583.904	457.8
1588.464	479.8
1593.019	463.8
1597.569	463.8
1602.115	466.8
1606.657	466.8
1611.195	469.8
1615.728	470.8
1620.256	459.8
1624.78	461.8
1629.3	466.8
1633.816	467.8
1638.327	468.8
1642.834	458.8
1647.336	456.8
1651.834	458.8
1656.328	447.8
1660.817	458.8
1665.302	441.8
1669.783	448.8
1674.259	427.8
1678.732	424.8
1683.199	395.8
1687.663	395.8
1692.122	373.8
1696.577	358.8
1701.028	346.8
1705.474	322.8
1709.917	317.8
1714.355	315.8
1718.788	307.8
1723.218	318.8
1727.643	313.8
1732.064	303.8
1736.481	311.8
1740.893	295.8
1745.301	294.8
1749.705	293.8
1754.105	288.8
1758.501	266.8
1762.893	278.8
1767.28	263.8
1771.663	255.8
1776.042	258.8
1780.417	250.8
1784.787	248.8
1789.154	245.8
1793.516	231.8
1797.874	224.8
1802.228	242.8
1806.578	224.8
1810.924	224.8
1815.266	229.8
1819.603	230.8
1823.937	233.8
1828.266	229.8
1832.591	232.8
1836.913	233.8
1841.23	247.8
1845.543	232.8
1849.852	234.8
1854.156	234.8
1858.457	232.8
1862.754	231.8
1867.047	223.8
1871.335	243.8
1875.62	231.8
1879.9	230.8
1884.177	235.8
1888.449	225.8
1892.718	222.8
1896.982	217.8
1901.243	213.8
1905.499	201.8
1909.752	194.8
1914	196.8
1918.245	197.8
1922.485	187.8
1926.722	185.8
1930.954	186.8
1935.183	187.8
1939.408	185.8
1943.628	187.8
1947.845	189.8
1952.058	179.8
1956.267	175.8
1960.472	191.8
1964.673	172.8
1968.87	175.8
1973.063	185.8
1977.252	177.8
1981.438	173.8
1985.619	174.8
1989.797	175.8
1993.971	179.8
1998.14	183.8
2002.306	177.8
2006.469	185.8
2010.627	184.8
2014.781	179.8
2018.932	176.8
2023.078	179.8
2027.221	174.8
2031.36	173.8
2035.495	164.8
2039.627	158.8
2043.754	173.8
2047.878	166.8
2051.998	165.8
2056.114	158.8
2060.226	163.8
2064.334	158.8
2068.439	154.8
2072.54	156.8
2076.637	152.8
2080.73	154.8
2084.82	153.8
2088.906	142.8
2092.988	156.8
2097.066	138.8
2101.14	141.8
2105.211	147.8
2109.278	141.8
2113.342	139.8
2117.401	142.8
2121.457	137.8
2125.509	133.8
2129.558	137.8
2133.602	136.8
2137.643	138.8
2141.681	131.8
2145.714	135.8
2149.744	131.8
2153.77	145.8
2157.793	137.8
2161.812	135.8
2165.827	135.8
2169.838	126.8
2173.846	128.8
2177.851	124.8
2181.851	134.8
2185.848	131.8
2189.841	123.8
2193.831	123.8
2197.817	123.8
2201.799	120.8
2205.778	122.8
2209.753	121.8
2213.725	122.8
2217.693	121.8
2221.657	124.8
2225.618	116.8
2229.575	123.8
2233.529	120.8
2237.479	121.8
2241.425	114.8
2245.368	113.8
2249.307	119.8
2253.243	109.8
2257.175	108.8
2261.104	104.8
2265.029	110.8
2268.95	107.8
2272.868	108.8
2276.783	98.8
2280.694	91.8
2284.601	94.8
2288.505	101.8
2292.405	101.8
2296.302	101.8
2300.195	93.8
2304.085	99.8
2307.971	92.8
2311.854	89.8
2315.734	92.8
2319.609	96.8
2323.482	86.8
2327.351	98.8
2331.216	100.8
2335.078	114.8
2338.937	105.8
2342.792	87.8
2346.643	90.8
2350.492	91.8
2354.336	90.8
2358.178	88.8
2362.015	90.8
2365.85	90.8
2369.681	88.8
2373.508	96.8
2377.333	89.8
2381.153	84.8
2384.971	86.8
2388.785	86.8
2392.595	87.8
2396.402	95.8
2400.206	83.8
2404.007	86.8
2407.804	93.8
2411.597	88.8
2415.388	85.8
2419.174	91.8
2422.958	76.8
2426.738	81.8
2430.515	84.8
2434.289	82.8
2438.059	74.8
2441.825	78.8
2445.589	71.8
2449.349	75.8
2453.106	79.8
2456.859	75.8
2460.61	79.8
2464.356	69.8
2468.1	74.8
2471.84	67.8
2475.577	64.8
2479.311	71.8
2483.041	74.8
2486.768	65.8
2490.492	70.8
2494.213	63.8
2497.93	75.8
2501.644	71.8
2505.355	67.8
2509.062	65.8
2512.766	62.8
2516.467	60.8
2520.165	63.8
2523.859	67.8
2527.551	56.8
2531.239	55.8
2534.923	46.8
2538.605	50.8
2542.283	50.8
2545.958	51.8
2549.63	51.8
2553.299	56.8
2556.964	46.8
2560.626	52.8
2564.285	48.8
2567.941	52.8
2571.594	51.8
2575.243	51.8
2578.89	44.8
2582.533	46.8
2586.173	40.8
2589.809	44.8
2593.443	44.8
2597.073	45.8
2600.701	45.8
2604.325	38.8
2607.946	36.8
2611.564	43.8
2615.178	41.8
2618.79	43.8
2622.398	38.8
2626.004	34.8
2629.606	34.8
2633.205	32.8
2636.801	36.8
2640.394	44.8
2643.983	35.8
2647.57	36.8
2651.153	33.8
2654.734	33.8
2658.311	37.8
2661.885	44.8
2665.456	34.8
2669.025	33.8
2672.589	32.8
2676.151	35.8
2679.71	27.8
2683.266	25.8
2686.819	35.8
2690.368	32.8
2693.915	29.8
2697.458	29.8
2700.999	31.8
2704.536	34.8
2708.071	36.8
2711.602	27.8
2715.13	18.8
2718.656	23.8
2722.178	20.8
2725.697	19.8
2729.214	15.8
2732.727	23.8
2736.237	19.8
2739.744	19.8
2743.249	19.8
2746.75	25.8
2750.248	19.8
2753.743	18.8
2757.236	16.8
2760.725	19.8
2764.211	6.8
2767.695	5.8
2771.175	11.8
2774.652	11.8
2778.127	11.8
2781.598	12.8
2785.067	11.8
2788.532	14.8
2791.995	12.8
2795.455	10.8
2798.911	16.8
2802.365	16.8
2805.816	9.8
2809.264	15.8
2812.709	8.8
2816.151	17.8
2819.59	19.8
2823.026	13.8
2826.46	14.8
2829.89	14.8
2833.318	6.8
2836.742	21.8
2840.164	14.8
2843.583	14.8
2846.999	17.8
2850.412	13.8
2853.822	13.8
2857.229	21.8
2860.634	5.8
2864.035	6.8
2867.434	18.8
2870.83	16.8
2874.223	21.8
2877.613	22.8
2881	26.8
2884.385	23.8
2887.766	24.8
2891.145	26.8
2894.521	32.8
2897.894	26.8
2901.264	27.8
2904.631	17.8
2907.996	23.8
2911.358	28.8
2914.717	21.8
2918.073	24.8
2921.426	27.8
2924.777	30.8
2928.124	38.8
2931.469	34.8
2934.811	42.8
2938.15	36.8
2941.487	42.8
2944.821	35.8
2948.152	37.8
2951.48	36.8
2954.805	37.8
2958.128	30.8
2961.447	35.8
2964.765	31.8
2968.079	34.8
2971.39	35.8
2974.699	36.8
2978.005	36.8
2981.308	29.8
2984.609	32.8
2987.907	33.8
2991.202	34.8
2994.494	26.8
2997.784	23.8
3001.07	26.8
3004.355	31.8
3007.636	34.8
3010.915	33.8
3014.191	37.8
3017.464	39.8
3020.734	38.8
3024.002	43.8
3027.267	44.8
3030.53	43.8
3033.789	39.8
3037.046	40.8
3040.301	36.8
3043.552	43.8
3046.801	45.8
3050.048	43.8
3053.291	53.8
3056.532	51.8
3059.771	53.8
3063.006	55.8
3066.239	61.8
3069.469	67.8
3072.697	61.8
3075.922	68.8
3079.144	65.8
3082.364	71.8
3085.581	69.8
3088.795	79.8
3092.007	74.8
3095.216	76.8
3098.423	78.8
3101.627	80.8
3104.828	89.8
3108.026	89.8
3111.222	86.8
3114.416	91.8
3117.607	99.8
3120.795	97.8
3123.98	95.8
3127.163	106.8
3130.344	105.8
3133.521	102.8
3136.696	103.8
3139.869	114.8
3143.039	111.8
3146.206	117.8
3149.371	116.8
3152.533	121.8
3155.693	123.8
3158.85	122.8
3162.005	121.8
3165.157	126.8
3168.306	118.8
3171.453	116.8
3174.597	112.8
3177.739	121.8
3180.878	126.8
3184.014	115.8
3187.149	119.8
3190.28	128.8
3193.409	133.8
3196.536	121.8
3199.659	120.8
3202.781	122.8
3205.9	116.8
3209.016	115.8
3212.13	119.8
3215.241	126.8
3218.35	116.8
3221.456	123.8
3224.56	112.8
3227.661	115.8
3230.76	122.8
3233.856	117.8
3236.95	109.8
3240.041	107.8
3243.13	111.8
3246.216	97.8
3249.3	95.8
3252.382	94.8
3255.46	106.8
3258.537	94.8
3261.611	95.8
3264.682	95.8
3267.751	96.8
3270.818	83.8
3273.882	89.8
3276.943	91.8
3280.002	90.8
3283.059	91.8
3286.113	86.8
3289.165	87.8
3292.214	86.8
3295.261	91.8
3298.306	84.8
3301.348	79.8
3304.387	88.8
3307.425	79.8
3310.459	72.8
3313.492	76.8
3316.521	84.8
3319.549	87.8
3322.574	79.8
3325.597	80.8
3328.617	81.8
3331.635	86.8
3334.65	90.8
3337.663	72.8
3340.674	78.8
3343.682	79.8
3346.688	75.8
3349.691	84.8
3352.692	80.8
3355.691	82.8
3358.687	75.8
3361.681	79.8
3364.673	84.8
3367.662	80.8
3370.649	78.8
3373.633	69.8
3376.615	73.8
3379.595	72.8
3382.572	65.8
3385.547	66.8
3388.52	55.8
3391.49	57.8
3394.458	52.8
3397.424	65.8
3400.387	59.8
3403.348	54.8
3406.307	54.8
3409.263	58.8
3412.217	52.8
3415.168	64.8
3418.118	56.8
3421.065	46.8
3424.009	49.8
3426.951	50.8
3429.891	44.8
3432.829	43.8
3435.764	45.8
3438.697	43.8
3441.628	38.8
3444.557	40.8
3447.483	35.8
3450.407	31.8
3453.328	32.8
3456.247	30.8
3459.164	30.8
3462.079	25.8
3464.991	24.8
3467.902	18.8
3470.809	15.8
3473.715	16.8
3476.618	12.8
3479.519	14.8
3482.418	14.8
3485.315	6.8
3488.209	2.8
3491.101	3.8
3493.99	14.8
3496.878	7.8
3499.763	-5.2
3502.646	3.8
3505.527	-0.2
3508.405	3.8
3511.281	-4.2
3514.155	-7.2
3517.027	-8.2
3519.897	-1.2
3522.764	-8.2
3525.629	-10.2
3528.492	-15.2
3531.352	-17.2
3534.211	-15.2
3537.067	-13.2
3539.921	-11.2
3542.773	-20.2
3545.622	-15.2
3548.469	-19.2
3551.315	-17.2
3554.157	-23.2
3556.998	-28.2
3559.837	-23.2
3562.673	-26.2
3565.507	-22.2
3568.339	-22.2
3571.169	-27.2
3573.996	-20.2
3576.822	-26.2
3579.645	-30.2
3582.466	-28.2
3585.285	-26.2
3588.101	-36.2
3590.916	-26.2
3593.728	-33.2
3596.538	-40.2
3599.346	-35.2
3602.152	-37.2
3604.956	-31.2
3607.757	-28.2
3610.556	-30.2
3613.354	-39.2
3616.149	-39.2
3618.942	-33.2
3621.732	-37.2
3624.521	-30.2
3627.307	-31.2
3630.092	-33.2
3632.874	-37.2
3635.654	-40.2
3638.432	-35.2
3641.208	-41.2
3643.982	-28.2
3646.753	-44.2
3649.523	-37.2
3652.29	-39.2
3655.055	-34.2
3657.818	-42.2
3660.579	-37.2
3663.338	-33.2
3666.095	-45.2
3668.849	-45.2
3671.602	-43.2
3674.352	-42.2
3677.101	-43.2
3679.847	-41.2
3682.591	-48.2
3685.333	-42.2
3688.073	-45.2
3690.811	-38.2
3693.547	-43.2
3696.281	-37.2
3699.013	-42.2
3701.742	-52.2
3704.47	-39.2
3707.195	-42.2
3709.919	-48.2
3712.64	-43.2
3715.359	-47.2
3718.076	-50.2
3720.792	-43.2
3723.505	-46.2
3726.216	-43.2
3728.925	-49.2
3731.632	-45.2
3734.336	-44.2
3737.039	-43.2
3739.74	-47.2
3742.439	-47.2
3745.136	-46.2
3747.83	-47.2
3750.523	-50.2
3753.213	-45.2
3755.902	-51.2
3758.589	-49.2
3761.273	-48.2
3763.956	-46.2
3766.636	-43.2
3769.315	-43.2
3771.991	-45.2
3774.665	-48.2
3777.338	-46.2
3780.008	-51.2
3782.677	-52.2
3785.343	-50.2
3788.007	-45.2
3790.67	-54.2
3793.33	-48.2
3795.989	-46.2
3798.645	-51.2
3801.299	-46.2
3803.952	-49.2
3806.602	-50.2
3809.251	-51.2
3811.897	-50.2
3814.542	-53.2
3817.184	-53.2
3819.825	-47.2
3822.463	-47.2
3825.1	-49.2
3827.735	-52.2
3830.367	-52.2
3832.998	-47.2
3835.627	-51.2
3838.253	-42.2
3840.878	-41.2
3843.501	-46.2
3846.122	-54.2
3848.741	-48.2
3851.358	-44.2
3853.973	-49.2
3856.586	-46.2
3859.197	-54.2
3861.806	-54.2
3864.414	-56.2
3867.019	-53.2
3869.622	-41.2
3872.224	-39.2
3874.823	-26.2
3877.421	-23.2
3880.016	-10.2
3882.61	13.8
3885.202	13.8
3887.792	5.8
3890.38	-19.2
3892.966	-41.2
3895.55	-44.2
3898.132	-44.2
3900.713	-53.2
3903.291	-52.2
3905.868	-50.2
3908.442	-47.2
3911.015	-46.2
3913.586	-51.2
3916.155	-51.2
3918.722	-50.2
3921.287	-53.2
3923.85	-46.2
3926.411	-51.2
3928.971	-63.2
3931.528	-52.2
3934.084	-48.2
3936.638	-42.2
3939.19	-52.2
3941.74	-46.2
3944.288	-51.2
3946.834	-51.2
3949.378	-49.2
3951.921	-53.2
3954.462	-53.2
3957	-48.2
3959.537	-39.2
3962.072	-46.2
3964.606	-52.2
3967.137	-46.2
3969.667	-47.2
3972.194	-46.2
3974.72	-48.2
3977.244	-41.2
3979.766	-49.2
3982.286	-48.2
3984.805	-53.2
3987.321	-52.2
3989.836	-47.2
3992.349	-55.2
3994.86	-57.2
3997.369	-54.2
3999.877	-47.2
4002.382	-51.2
4004.886	-47.2
4007.388	-48.2
4009.888	-44.2
4012.386	-50.2
4014.883	-52.2
4017.377	-47.2
4019.87	-45.2
4022.361	-52.2
4024.85	-47.2
4027.338	-57.2
4029.823	-52.2
4032.307	-52.2
4034.789	-48.2
4037.269	-50.2
4039.747	-46.2
4042.224	-50.2
4044.699	-51.2
4047.172	-47.2
4049.643	-53.2
4052.112	-55.2
4054.58	-54.2
4057.046	-49.2
4059.51	-54.2
4061.972	-60.2
4064.432	-52.2
4066.891	-47.2
4069.348	-43.2
4071.803	-43.2
4074.256	-48.2
4076.708	-50.2
4079.158	-54.2
4081.606	-48.2
4084.052	-51.2
4086.497	-46.2
4088.939	-46.2
4091.38	-55.2
4093.819	-52.2
4096.257	-51.2
4098.693	-52.2
4101.127	-48.2
4103.559	-54.2
4105.989	17.8
4108.418	15.8
4110.845	4.8
4113.27	11.8
4115.694	11.8
4118.115	19.8
4120.535	-51.2
4122.954	-47.2
4125.37	-46.2
4127.785	-47.2
4130.198	-42.2
4132.609	-49.2
4135.019	-51.2
4137.427	-55.2
4139.833	-51.2
4142.237	-52.2
