Data from 2018-3-7_conc=3_n=5_RamanShift_05.txt Node
Date: Wed Mar 07 11:29:52 IST 2018
User: aro
Spectrometer: QEPB0276
Trigger mode: 0
Integration Time (sec): 3.000000E1
Scans to average: 1
Electric dark correction enabled: true
Nonlinearity correction enabled: false
Boxcar width: 0
XAxis mode: Raman Shifts
Number of Pixels in Spectrum: 1044
>>>>>Begin Spectral Data<<<<<
160.701	9.8
166.742	20.8
172.777	42.8
178.805	120.8
184.826	312.8
190.841	656.8
196.849	1072.8
202.85	1397.8
208.845	1521.8
214.833	1517.8
220.815	1513.8
226.789	1516.8
232.758	1536.8
238.719	1530.8
244.674	1515.8
250.623	1513.8
256.565	1503.8
262.5	1477.8
268.429	1488.8
274.351	1482.8
280.267	1467.8
286.176	1473.8
292.079	1462.8
297.975	1447.8
303.865	1469.8
309.748	1466.8
315.625	1475.8
321.495	1475.8
327.359	1463.8
333.217	1457.8
339.068	1485.8
344.912	1478.8
350.751	1482.8
356.583	1495.8
362.408	1482.8
368.227	1503.8
374.04	1502.8
379.847	1515.8
385.647	1503.8
391.44	1535.8
397.228	1522.8
403.009	1547.8
408.784	1549.8
414.553	1583.8
420.315	1549.8
426.071	1549.8
431.821	1558.8
437.565	1556.8
443.302	1547.8
449.033	1541.8
454.758	1549.8
460.477	1514.8
466.189	1512.8
471.896	1511.8
477.596	1496.8
483.29	1470.8
488.978	1469.8
494.66	1468.8
500.335	1443.8
506.005	1369.8
511.668	1331.8
517.325	1285.8
522.977	1215.8
528.622	1196.8
534.261	1167.8
539.894	1146.8
545.521	1129.8
551.141	1117.8
556.756	1102.8
562.365	1092.8
567.968	1096.8
573.565	1075.8
579.155	1074.8
584.74	1080.8
590.319	1065.8
595.892	1068.8
601.459	1078.8
607.02	1061.8
612.575	1059.8
618.124	1028.8
623.667	1029.8
629.204	1009.8
634.735	1001.8
640.261	1006.8
645.781	997.8
651.294	992.8
656.802	973.8
662.304	967.8
667.8	985.8
673.29	972.8
678.775	979.8
684.254	963.8
689.726	941.8
695.193	965.8
700.655	949.8
706.11	935.8
711.56	932.8
717.004	927.8
722.442	906.8
727.874	913.8
733.301	927.8
738.722	905.8
744.137	915.8
749.547	924.8
754.951	911.8
760.349	914.8
765.741	923.8
771.128	917.8
776.509	935.8
781.885	943.8
787.254	953.8
792.618	949.8
797.977	953.8
803.33	929.8
808.677	929.8
814.019	924.8
819.355	916.8
824.686	912.8
830.011	902.8
835.33	895.8
840.644	901.8
845.952	896.8
851.255	889.8
856.552	890.8
861.844	867.8
867.13	847.8
872.41	860.8
877.686	859.8
882.955	865.8
888.219	848.8
893.478	825.8
898.731	818.8
903.979	806.8
909.221	793.8
914.458	796.8
919.69	786.8
924.916	803.8
930.136	807.8
935.351	789.8
940.561	797.8
945.766	794.8
950.965	793.8
956.158	783.8
961.347	780.8
966.529	773.8
971.707	742.8
976.879	750.8
982.046	742.8
987.208	745.8
992.364	734.8
997.515	729.8
1002.66	739.8
1007.801	764.8
1012.936	754.8
1018.066	757.8
1023.19	754.8
1028.309	757.8
1033.423	749.8
1038.532	751.8
1043.636	753.8
1048.734	738.8
1053.827	725.8
1058.915	744.8
1063.998	710.8
1069.075	718.8
1074.147	719.8
1079.214	725.8
1084.276	732.8
1089.333	730.8
1094.385	738.8
1099.431	722.8
1104.472	720.8
1109.509	713.8
1114.54	703.8
1119.565	697.8
1124.586	688.8
1129.602	675.8
1134.613	672.8
1139.618	672.8
1144.619	660.8
1149.614	684.8
1154.604	679.8
1159.589	666.8
1164.57	656.8
1169.545	681.8
1174.515	692.8
1179.48	678.8
1184.44	671.8
1189.395	663.8
1194.345	656.8
1199.29	643.8
1204.23	651.8
1209.165	658.8
1214.095	670.8
1219.021	650.8
1223.941	667.8
1228.856	660.8
1233.766	670.8
1238.672	671.8
1243.572	664.8
1248.467	669.8
1253.358	654.8
1258.244	643.8
1263.124	631.8
1268	616.8
1272.871	615.8
1277.737	610.8
1282.599	609.8
1287.455	609.8
1292.306	605.8
1297.153	611.8
1301.995	617.8
1306.832	605.8
1311.664	625.8
1316.491	621.8
1321.314	611.8
1326.132	612.8
1330.945	599.8
1335.753	591.8
1340.556	575.8
1345.354	561.8
1350.148	561.8
1354.937	546.8
1359.722	536.8
1364.501	520.8
1369.276	516.8
1374.046	505.8
1378.811	508.8
1383.572	506.8
1388.327	501.8
1393.079	488.8
1397.825	510.8
1402.567	509.8
1407.304	508.8
1412.036	507.8
1416.764	510.8
1421.487	514.8
1426.205	507.8
1430.919	516.8
1435.628	526.8
1440.333	514.8
1445.032	519.8
1449.727	526.8
1454.418	524.8
1459.104	520.8
1463.785	515.8
1468.462	497.8
1473.134	498.8
1477.802	467.8
1482.465	465.8
1487.123	460.8
1491.777	456.8
1496.426	446.8
1501.071	433.8
1505.711	439.8
1510.347	438.8
1514.978	432.8
1519.604	421.8
1524.226	422.8
1528.844	429.8
1533.457	415.8
1538.065	426.8
1542.669	422.8
1547.269	414.8
1551.864	425.8
1556.454	443.8
1561.041	453.8
1565.622	461.8
1570.199	446.8
1574.772	444.8
1579.34	449.8
1583.904	449.8
1588.464	458.8
1593.019	464.8
1597.569	466.8
1602.115	464.8
1606.657	459.8
1611.195	455.8
1615.728	456.8
1620.256	454.8
1624.78	466.8
1629.3	652.8
1633.816	474.8
1638.327	464.8
1642.834	452.8
1647.336	449.8
1651.834	447.8
1656.328	457.8
1660.817	442.8
1665.302	430.8
1669.783	432.8
1674.259	416.8
1678.732	413.8
1683.199	390.8
1687.663	393.8
1692.122	360.8
1696.577	343.8
1701.028	349.8
1705.474	321.8
1709.917	311.8
1714.355	305.8
1718.788	305.8
1723.218	311.8
1727.643	306.8
1732.064	307.8
1736.481	312.8
1740.893	291.8
1745.301	290.8
1749.705	290.8
1754.105	276.8
1758.501	273.8
1762.893	270.8
1767.28	264.8
1771.663	258.8
1776.042	264.8
1780.417	251.8
1784.787	254.8
1789.154	239.8
1793.516	240.8
1797.874	237.8
1802.228	237.8
1806.578	233.8
1810.924	228.8
1815.266	233.8
1819.603	227.8
1823.937	236.8
1828.266	229.8
1832.591	243.8
1836.913	237.8
1841.23	230.8
1845.543	230.8
1849.852	239.8
1854.156	242.8
1858.457	239.8
1862.754	244.8
1867.047	232.8
1871.335	227.8
1875.62	231.8
1879.9	232.8
1884.177	220.8
1888.449	223.8
1892.718	231.8
1896.982	221.8
1901.243	224.8
1905.499	212.8
1909.752	203.8
1914	212.8
1918.245	200.8
1922.485	187.8
1926.722	191.8
1930.954	183.8
1935.183	195.8
1939.408	185.8
1943.628	185.8
1947.845	180.8
1952.058	185.8
1956.267	184.8
1960.472	187.8
1964.673	178.8
1968.87	174.8
1973.063	179.8
1977.252	179.8
1981.438	177.8
1985.619	175.8
1989.797	174.8
1993.971	186.8
1998.14	175.8
2002.306	174.8
2006.469	184.8
2010.627	174.8
2014.781	184.8
2018.932	177.8
2023.078	187.8
2027.221	174.8
2031.36	182.8
2035.495	165.8
2039.627	162.8
2043.754	172.8
2047.878	168.8
2051.998	163.8
2056.114	159.8
2060.226	157.8
2064.334	153.8
2068.439	150.8
2072.54	159.8
2076.637	159.8
2080.73	159.8
2084.82	158.8
2088.906	152.8
2092.988	140.8
2097.066	148.8
2101.14	147.8
2105.211	150.8
2109.278	149.8
2113.342	137.8
2117.401	138.8
2121.457	137.8
2125.509	138.8
2129.558	138.8
2133.602	135.8
2137.643	136.8
2141.681	133.8
2145.714	138.8
2149.744	144.8
2153.77	144.8
2157.793	136.8
2161.812	153.8
2165.827	141.8
2169.838	133.8
2173.846	133.8
2177.851	128.8
2181.851	125.8
2185.848	133.8
2189.841	124.8
2193.831	133.8
2197.817	124.8
2201.799	121.8
2205.778	123.8
2209.753	135.8
2213.725	130.8
2217.693	127.8
2221.657	124.8
2225.618	115.8
2229.575	116.8
2233.529	118.8
2237.479	115.8
2241.425	111.8
2245.368	110.8
2249.307	114.8
2253.243	117.8
2257.175	119.8
2261.104	108.8
2265.029	107.8
2268.95	106.8
2272.868	111.8
2276.783	98.8
2280.694	99.8
2284.601	89.8
2288.505	102.8
2292.405	104.8
2296.302	106.8
2300.195	96.8
2304.085	96.8
2307.971	98.8
2311.854	89.8
2315.734	87.8
2319.609	101.8
2323.482	92.8
2327.351	102.8
2331.216	105.8
2335.078	117.8
2338.937	103.8
2342.792	93.8
2346.643	92.8
2350.492	91.8
2354.336	89.8
2358.178	80.8
2362.015	92.8
2365.85	87.8
2369.681	84.8
2373.508	91.8
2377.333	99.8
2381.153	95.8
2384.971	87.8
2388.785	79.8
2392.595	84.8
2396.402	94.8
2400.206	93.8
2404.007	94.8
2407.804	88.8
2411.597	88.8
2415.388	86.8
2419.174	90.8
2422.958	82.8
2426.738	85.8
2430.515	85.8
2434.289	83.8
2438.059	80.8
2441.825	81.8
2445.589	85.8
2449.349	79.8
2453.106	84.8
2456.859	66.8
2460.61	80.8
2464.356	78.8
2468.1	74.8
2471.84	75.8
2475.577	73.8
2479.311	74.8
2483.041	67.8
2486.768	74.8
2490.492	73.8
2494.213	62.8
2497.93	67.8
2501.644	72.8
2505.355	61.8
2509.062	72.8
2512.766	66.8
2516.467	59.8
2520.165	65.8
2523.859	70.8
2527.551	62.8
2531.239	59.8
2534.923	56.8
2538.605	56.8
2542.283	52.8
2545.958	54.8
2549.63	54.8
2553.299	55.8
2556.964	45.8
2560.626	52.8
2564.285	48.8
2567.941	50.8
2571.594	48.8
2575.243	54.8
2578.89	52.8
2582.533	49.8
2586.173	41.8
2589.809	55.8
2593.443	52.8
2597.073	47.8
2600.701	49.8
2604.325	42.8
2607.946	31.8
2611.564	45.8
2615.178	41.8
2618.79	37.8
2622.398	43.8
2626.004	44.8
2629.606	46.8
2633.205	44.8
2636.801	39.8
2640.394	42.8
2643.983	39.8
2647.57	37.8
2651.153	36.8
2654.734	33.8
2658.311	40.8
2661.885	44.8
2665.456	39.8
2669.025	37.8
2672.589	39.8
2676.151	34.8
2679.71	28.8
2683.266	37.8
2686.819	35.8
2690.368	35.8
2693.915	34.8
2697.458	26.8
2700.999	29.8
2704.536	35.8
2708.071	30.8
2711.602	26.8
2715.13	21.8
2718.656	29.8
2722.178	22.8
2725.697	20.8
2729.214	24.8
2732.727	30.8
2736.237	28.8
2739.744	20.8
2743.249	18.8
2746.75	21.8
2750.248	25.8
2753.743	18.8
2757.236	16.8
2760.725	18.8
2764.211	16.8
2767.695	9.8
2771.175	14.8
2774.652	13.8
2778.127	16.8
2781.598	11.8
2785.067	14.8
2788.532	13.8
2791.995	19.8
2795.455	15.8
2798.911	11.8
2802.365	18.8
2805.816	13.8
2809.264	17.8
2812.709	11.8
2816.151	20.8
2819.59	25.8
2823.026	20.8
2826.46	17.8
2829.89	16.8
2833.318	10.8
2836.742	19.8
2840.164	11.8
2843.583	13.8
2846.999	16.8
2850.412	15.8
2853.822	14.8
2857.229	23.8
2860.634	16.8
2864.035	17.8
2867.434	20.8
2870.83	26.8
2874.223	20.8
2877.613	20.8
2881	24.8
2884.385	27.8
2887.766	27.8
2891.145	27.8
2894.521	25.8
2897.894	22.8
2901.264	29.8
2904.631	23.8
2907.996	26.8
2911.358	30.8
2914.717	30.8
2918.073	25.8
2921.426	28.8
2924.777	31.8
2928.124	26.8
2931.469	30.8
2934.811	39.8
2938.15	36.8
2941.487	44.8
2944.821	32.8
2948.152	38.8
2951.48	29.8
2954.805	37.8
2958.128	31.8
2961.447	38.8
2964.765	27.8
2968.079	29.8
2971.39	37.8
2974.699	27.8
2978.005	42.8
2981.308	33.8
2984.609	37.8
2987.907	33.8
2991.202	30.8
2994.494	31.8
2997.784	27.8
3001.07	29.8
3004.355	33.8
3007.636	27.8
3010.915	33.8
3014.191	29.8
3017.464	38.8
3020.734	44.8
3024.002	38.8
3027.267	44.8
3030.53	44.8
3033.789	40.8
3037.046	39.8
3040.301	35.8
3043.552	42.8
3046.801	43.8
3050.048	42.8
3053.291	45.8
3056.532	48.8
3059.771	50.8
3063.006	58.8
3066.239	59.8
3069.469	63.8
3072.697	64.8
3075.922	75.8
3079.144	60.8
3082.364	68.8
3085.581	70.8
3088.795	76.8
3092.007	75.8
3095.216	76.8
3098.423	64.8
3101.627	74.8
3104.828	76.8
3108.026	79.8
3111.222	80.8
3114.416	90.8
3117.607	84.8
3120.795	90.8
3123.98	87.8
3127.163	101.8
3130.344	100.8
3133.521	100.8
3136.696	100.8
3139.869	106.8
3143.039	106.8
3146.206	111.8
3149.371	106.8
3152.533	116.8
3155.693	104.8
3158.85	114.8
3162.005	114.8
3165.157	117.8
3168.306	114.8
3171.453	113.8
3174.597	112.8
3177.739	122.8
3180.878	117.8
3184.014	106.8
3187.149	112.8
3190.28	115.8
3193.409	120.8
3196.536	111.8
3199.659	118.8
3202.781	113.8
3205.9	115.8
3209.016	122.8
3212.13	119.8
3215.241	112.8
3218.35	108.8
3221.456	122.8
3224.56	109.8
3227.661	112.8
3230.76	107.8
3233.856	105.8
3236.95	100.8
3240.041	91.8
3243.13	101.8
3246.216	91.8
3249.3	91.8
3252.382	93.8
3255.46	99.8
3258.537	88.8
3261.611	92.8
3264.682	91.8
3267.751	90.8
3270.818	81.8
3273.882	88.8
3276.943	88.8
3280.002	89.8
3283.059	88.8
3286.113	77.8
3289.165	81.8
3292.214	76.8
3295.261	83.8
3298.306	86.8
3301.348	81.8
3304.387	83.8
3307.425	78.8
3310.459	71.8
3313.492	73.8
3316.521	74.8
3319.549	74.8
3322.574	64.8
3325.597	68.8
3328.617	70.8
3331.635	81.8
3334.65	83.8
3337.663	62.8
3340.674	74.8
3343.682	72.8
3346.688	76.8
3349.691	82.8
3352.692	72.8
3355.691	78.8
3358.687	77.8
3361.681	72.8
3364.673	74.8
3367.662	74.8
3370.649	76.8
3373.633	66.8
3376.615	65.8
3379.595	62.8
3382.572	62.8
3385.547	59.8
3388.52	59.8
3391.49	53.8
3394.458	56.8
3397.424	57.8
3400.387	58.8
3403.348	49.8
3406.307	50.8
3409.263	56.8
3412.217	51.8
3415.168	51.8
3418.118	49.8
3421.065	46.8
3424.009	48.8
3426.951	46.8
3429.891	45.8
3432.829	39.8
3435.764	45.8
3438.697	42.8
3441.628	35.8
3444.557	38.8
3447.483	39.8
3450.407	27.8
3453.328	31.8
3456.247	23.8
3459.164	23.8
3462.079	21.8
3464.991	20.8
3467.902	24.8
3470.809	25.8
3473.715	17.8
3476.618	23.8
3479.519	11.8
3482.418	10.8
3485.315	13.8
3488.209	5.8
3491.101	4.8
3493.99	6.8
3496.878	13.8
3499.763	-5.2
3502.646	1.8
3505.527	-4.2
3508.405	-1.2
3511.281	-2.2
3514.155	-1.2
3517.027	-13.2
3519.897	-1.2
3522.764	-6.2
3525.629	-4.2
3528.492	-10.2
3531.352	-11.2
3534.211	-15.2
3537.067	-15.2
3539.921	-16.2
3542.773	-20.2
3545.622	-19.2
3548.469	-18.2
3551.315	-15.2
3554.157	-19.2
3556.998	-23.2
3559.837	-22.2
3562.673	-25.2
3565.507	-22.2
3568.339	-17.2
3571.169	-28.2
3573.996	-20.2
3576.822	-29.2
3579.645	-31.2
3582.466	-28.2
3585.285	-28.2
3588.101	-34.2
3590.916	-26.2
3593.728	-34.2
3596.538	-34.2
3599.346	-31.2
3602.152	-30.2
3604.956	-25.2
3607.757	-25.2
3610.556	-25.2
3613.354	-33.2
3616.149	-36.2
3618.942	-32.2
3621.732	-39.2
3624.521	-29.2
3627.307	-32.2
3630.092	-36.2
3632.874	-37.2
3635.654	-38.2
3638.432	-29.2
3641.208	-38.2
3643.982	-31.2
3646.753	-41.2
3649.523	-34.2
3652.29	-35.2
3655.055	-32.2
3657.818	-41.2
3660.579	-38.2
3663.338	-31.2
3666.095	-38.2
3668.849	-38.2
3671.602	-41.2
3674.352	-37.2
3677.101	-41.2
3679.847	-41.2
3682.591	-42.2
3685.333	-42.2
3688.073	-42.2
3690.811	-35.2
3693.547	-42.2
3696.281	-38.2
3699.013	-41.2
3701.742	-47.2
3704.47	-41.2
3707.195	-42.2
3709.919	-39.2
3712.64	-41.2
3715.359	-38.2
3718.076	-48.2
3720.792	-46.2
3723.505	-45.2
3726.216	-39.2
3728.925	-50.2
3731.632	-42.2
3734.336	-45.2
3737.039	-41.2
3739.74	-45.2
3742.439	-44.2
3745.136	-43.2
3747.83	-45.2
3750.523	-45.2
3753.213	-52.2
3755.902	-47.2
3758.589	-47.2
3761.273	-40.2
3763.956	-48.2
3766.636	-49.2
3769.315	-40.2
3771.991	-47.2
3774.665	-51.2
3777.338	-41.2
3780.008	-45.2
3782.677	-51.2
3785.343	-39.2
3788.007	-43.2
3790.67	-46.2
3793.33	-42.2
3795.989	-48.2
3798.645	-47.2
3801.299	-43.2
3803.952	-52.2
3806.602	-48.2
3809.251	-51.2
3811.897	-48.2
3814.542	-52.2
3817.184	-51.2
3819.825	-44.2
3822.463	-49.2
3825.1	-40.2
3827.735	-52.2
3830.367	-48.2
3832.998	-47.2
3835.627	-47.2
3838.253	-39.2
3840.878	-43.2
3843.501	-42.2
3846.122	-49.2
3848.741	-48.2
3851.358	-46.2
3853.973	-45.2
3856.586	-44.2
3859.197	-50.2
3861.806	-47.2
3864.414	-48.2
3867.019	-45.2
3869.622	-40.2
3872.224	-35.2
3874.823	-25.2
3877.421	-24.2
3880.016	-13.2
3882.61	3.8
3885.202	9.8
3887.792	1.8
3890.38	-13.2
3892.966	-29.2
3895.55	-42.2
3898.132	-45.2
3900.713	-45.2
3903.291	-51.2
3905.868	-46.2
3908.442	-50.2
3911.015	-42.2
3913.586	-48.2
3916.155	-43.2
3918.722	-46.2
3921.287	-49.2
3923.85	-39.2
3926.411	-48.2
3928.971	-54.2
3931.528	-48.2
3934.084	-48.2
3936.638	-45.2
3939.19	-57.2
3941.74	-48.2
3944.288	-48.2
3946.834	-44.2
3949.378	-44.2
3951.921	-44.2
3954.462	-49.2
3957	-42.2
3959.537	-41.2
3962.072	-44.2
3964.606	-42.2
3967.137	-44.2
3969.667	-50.2
3972.194	-45.2
3974.72	-41.2
3977.244	-43.2
3979.766	-48.2
3982.286	-46.2
3984.805	-57.2
3987.321	-47.2
3989.836	-40.2
3992.349	-45.2
3994.86	-50.2
3997.369	-47.2
3999.877	-49.2
4002.382	-45.2
4004.886	-46.2
4007.388	-51.2
4009.888	-46.2
4012.386	-48.2
4014.883	-46.2
4017.377	-44.2
4019.87	-47.2
4022.361	-48.2
4024.85	-41.2
4027.338	-51.2
4029.823	-50.2
4032.307	-51.2
4034.789	-45.2
4037.269	-46.2
4039.747	-50.2
4042.224	-46.2
4044.699	-51.2
4047.172	-50.2
4049.643	-48.2
4052.112	-46.2
4054.58	-50.2
4057.046	-44.2
4059.51	-50.2
4061.972	-50.2
4064.432	-44.2
4066.891	-45.2
4069.348	-41.2
4071.803	-42.2
4074.256	-42.2
4076.708	-43.2
4079.158	-48.2
4081.606	-45.2
4084.052	-51.2
4086.497	-42.2
4088.939	-41.2
4091.38	-49.2
4093.819	-50.2
4096.257	-47.2
4098.693	-47.2
4101.127	-46.2
4103.559	-50.2
4105.989	19.8
4108.418	15.8
4110.845	6.8
4113.27	9.8
4115.694	14.8
4118.115	11.8
4120.535	-50.2
4122.954	-45.2
4125.37	-45.2
4127.785	-41.2
4130.198	-45.2
4132.609	-48.2
4135.019	-48.2
4137.427	-49.2
4139.833	-46.2
4142.237	-50.2
