Data from 2018-3-7_conc=5_n=10_RamanShift_01.txt Node
Date: Wed Mar 07 12:53:22 IST 2018
User: aro
Spectrometer: QEPB0276
Trigger mode: 0
Integration Time (sec): 3.000000E1
Scans to average: 1
Electric dark correction enabled: true
Nonlinearity correction enabled: false
Boxcar width: 0
XAxis mode: Raman Shifts
Number of Pixels in Spectrum: 1044
>>>>>Begin Spectral Data<<<<<
160.701	0.8
166.742	18.8
172.777	72.8
178.805	254.8
184.826	703.8
190.841	1540.8
196.849	2553.8
202.85	3393.8
208.845	3689.8
214.833	3689.8
220.815	3645.8
226.789	3581.8
232.758	3597.8
238.719	3571.8
244.674	3539.8
250.623	3489.8
256.565	3440.8
262.5	3339.8
268.429	3350.8
274.351	3283.8
280.267	3242.8
286.176	3236.8
292.079	3209.8
297.975	3212.8
303.865	3192.8
309.748	3140.8
315.625	3151.8
321.495	3122.8
327.359	3112.8
333.217	3122.8
339.068	3132.8
344.912	3126.8
350.751	3149.8
356.583	3101.8
362.408	3099.8
368.227	3124.8
374.04	3123.8
379.847	3124.8
385.647	3129.8
391.44	3169.8
397.228	3145.8
403.009	3183.8
408.784	3190.8
414.553	3208.8
420.315	3210.8
426.071	3180.8
431.821	3184.8
437.565	3204.8
443.302	3189.8
449.033	3184.8
454.758	3185.8
460.477	3184.8
466.189	3145.8
471.896	3144.8
477.596	3137.8
483.29	3105.8
488.978	3103.8
494.66	3110.8
500.335	3050.8
506.005	3023.8
511.668	2938.8
517.325	2906.8
522.977	2846.8
528.622	2797.8
534.261	2779.8
539.894	2783.8
545.521	2743.8
551.141	2748.8
556.756	2707.8
562.365	2704.8
567.968	2683.8
573.565	2663.8
579.155	2672.8
584.74	2653.8
590.319	2649.8
595.892	2634.8
601.459	2620.8
607.02	2600.8
612.575	2590.8
618.124	2583.8
623.667	2545.8
629.204	2538.8
634.735	2533.8
640.261	2510.8
645.781	2492.8
651.294	2485.8
656.802	2491.8
662.304	2475.8
667.8	2467.8
673.29	2468.8
678.775	2466.8
684.254	2458.8
689.726	2424.8
695.193	2421.8
700.655	2425.8
706.11	2406.8
711.56	2397.8
717.004	2382.8
722.442	2338.8
727.874	2344.8
733.301	2351.8
738.722	2340.8
744.137	2330.8
749.547	2319.8
754.951	2318.8
760.349	2321.8
765.741	2328.8
771.128	2358.8
776.509	2342.8
781.885	2328.8
787.254	2349.8
792.618	2336.8
797.977	2323.8
803.33	2310.8
808.677	2295.8
814.019	2276.8
819.355	2270.8
824.686	2243.8
830.011	2250.8
835.33	2234.8
840.644	2242.8
845.952	2257.8
851.255	2224.8
856.552	2250.8
861.844	2230.8
867.13	2219.8
872.41	2206.8
877.686	2210.8
882.955	2185.8
888.219	2187.8
893.478	2141.8
898.731	2106.8
903.979	2082.8
909.221	2075.8
914.458	2078.8
919.69	2074.8
924.916	2068.8
930.136	2098.8
935.351	2089.8
940.561	2082.8
945.766	2085.8
950.965	2055.8
956.158	2045.8
961.347	2027.8
966.529	2002.8
971.707	1969.8
976.879	1943.8
982.046	1919.8
987.208	1910.8
992.364	1935.8
997.515	1940.8
1002.66	1948.8
1007.801	1955.8
1012.936	1982.8
1018.066	1983.8
1023.19	2000.8
1028.309	1960.8
1033.423	1958.8
1038.532	1954.8
1043.636	1941.8
1048.734	1905.8
1053.827	1890.8
1058.915	1882.8
1063.998	1875.8
1069.075	1841.8
1074.147	1848.8
1079.214	1860.8
1084.276	1883.8
1089.333	1882.8
1094.385	1870.8
1099.431	1879.8
1104.472	1882.8
1109.509	1858.8
1114.54	1855.8
1119.565	1834.8
1124.586	1806.8
1129.602	1775.8
1134.613	1765.8
1139.618	1751.8
1144.619	1758.8
1149.614	1762.8
1154.604	1749.8
1159.589	1760.8
1164.57	1774.8
1169.545	1763.8
1174.515	1759.8
1179.48	1744.8
1184.44	1746.8
1189.395	1723.8
1194.345	1716.8
1199.29	1682.8
1204.23	1704.8
1209.165	1709.8
1214.095	1714.8
1219.021	1710.8
1223.941	1736.8
1228.856	1742.8
1233.766	1747.8
1238.672	1756.8
1243.572	1768.8
1248.467	1729.8
1253.358	1705.8
1258.244	1699.8
1263.124	1670.8
1268	1646.8
1272.871	1625.8
1277.737	1598.8
1282.599	1598.8
1287.455	1617.8
1292.306	1609.8
1297.153	1606.8
1301.995	1624.8
1306.832	1636.8
1311.664	1636.8
1316.491	1632.8
1321.314	1642.8
1326.132	1641.8
1330.945	1601.8
1335.753	1573.8
1340.556	1549.8
1345.354	1513.8
1350.148	1475.8
1354.937	1434.8
1359.722	1401.8
1364.501	1348.8
1369.276	1319.8
1374.046	1284.8
1378.811	1280.8
1383.572	1301.8
1388.327	1302.8
1393.079	1307.8
1397.825	1334.8
1402.567	1347.8
1407.304	1363.8
1412.036	1351.8
1416.764	1356.8
1421.487	1357.8
1426.205	1355.8
1430.919	1343.8
1435.628	1352.8
1440.333	1385.8
1445.032	1371.8
1449.727	1401.8
1454.418	1387.8
1459.104	1384.8
1463.785	1347.8
1468.462	1330.8
1473.134	1298.8
1477.802	1257.8
1482.465	1226.8
1487.123	1194.8
1491.777	1152.8
1496.426	1151.8
1501.071	1129.8
1505.711	1123.8
1510.347	1098.8
1514.978	1093.8
1519.604	1092.8
1524.226	1095.8
1528.844	1072.8
1533.457	1093.8
1538.065	1085.8
1542.669	1085.8
1547.269	1099.8
1551.864	1096.8
1556.454	1107.8
1561.041	1127.8
1565.622	1153.8
1570.199	1156.8
1574.772	1157.8
1579.34	1184.8
1583.904	1211.8
1588.464	1230.8
1593.019	1235.8
1597.569	1218.8
1602.115	1230.8
1606.657	1244.8
1611.195	1231.8
1615.728	1225.8
1620.256	1223.8
1624.78	1210.8
1629.3	1225.8
1633.816	1223.8
1638.327	1218.8
1642.834	1210.8
1647.336	1201.8
1651.834	1225.8
1656.328	1204.8
1660.817	1182.8
1665.302	1179.8
1669.783	1148.8
1674.259	1122.8
1678.732	1084.8
1683.199	1038.8
1687.663	999.8
1692.122	935.8
1696.577	881.8
1701.028	813.8
1705.474	762.8
1709.917	752.8
1714.355	736.8
1718.788	760.8
1723.218	777.8
1727.643	784.8
1732.064	781.8
1736.481	769.8
1740.893	762.8
1745.301	752.8
1749.705	729.8
1754.105	717.8
1758.501	700.8
1762.893	682.8
1767.28	682.8
1771.663	663.8
1776.042	648.8
1780.417	627.8
1784.787	616.8
1789.154	589.8
1793.516	575.8
1797.874	556.8
1802.228	555.8
1806.578	544.8
1810.924	535.8
1815.266	545.8
1819.603	554.8
1823.937	577.8
1828.266	571.8
1832.591	583.8
1836.913	585.8
1841.23	594.8
1845.543	577.8
1849.852	593.8
1854.156	590.8
1858.457	588.8
1862.754	601.8
1867.047	580.8
1871.335	578.8
1875.62	586.8
1879.9	583.8
1884.177	563.8
1888.449	560.8
1892.718	551.8
1896.982	530.8
1901.243	518.8
1905.499	512.8
1909.752	498.8
1914	489.8
1918.245	472.8
1922.485	457.8
1926.722	457.8
1930.954	441.8
1935.183	438.8
1939.408	439.8
1943.628	419.8
1947.845	418.8
1952.058	420.8
1956.267	416.8
1960.472	413.8
1964.673	415.8
1968.87	417.8
1973.063	423.8
1977.252	414.8
1981.438	423.8
1985.619	439.8
1989.797	438.8
1993.971	451.8
1998.14	444.8
2002.306	460.8
2006.469	462.8
2010.627	450.8
2014.781	470.8
2018.932	453.8
2023.078	462.8
2027.221	451.8
2031.36	445.8
2035.495	452.8
2039.627	436.8
2043.754	428.8
2047.878	427.8
2051.998	426.8
2056.114	412.8
2060.226	410.8
2064.334	398.8
2068.439	387.8
2072.54	384.8
2076.637	388.8
2080.73	388.8
2084.82	375.8
2088.906	376.8
2092.988	373.8
2097.066	362.8
2101.14	366.8
2105.211	348.8
2109.278	350.8
2113.342	339.8
2117.401	353.8
2121.457	351.8
2125.509	340.8
2129.558	335.8
2133.602	342.8
2137.643	344.8
2141.681	347.8
2145.714	344.8
2149.744	358.8
2153.77	363.8
2157.793	354.8
2161.812	364.8
2165.827	354.8
2169.838	346.8
2173.846	349.8
2177.851	343.8
2181.851	343.8
2185.848	337.8
2189.841	340.8
2193.831	341.8
2197.817	336.8
2201.799	333.8
2205.778	329.8
2209.753	339.8
2213.725	330.8
2217.693	337.8
2221.657	330.8
2225.618	322.8
2229.575	327.8
2233.529	319.8
2237.479	336.8
2241.425	313.8
2245.368	314.8
2249.307	316.8
2253.243	306.8
2257.175	304.8
2261.104	302.8
2265.029	297.8
2268.95	303.8
2272.868	297.8
2276.783	285.8
2280.694	276.8
2284.601	286.8
2288.505	283.8
2292.405	279.8
2296.302	279.8
2300.195	268.8
2304.085	272.8
2307.971	266.8
2311.854	262.8
2315.734	256.8
2319.609	255.8
2323.482	266.8
2327.351	253.8
2331.216	265.8
2335.078	258.8
2338.937	270.8
2342.792	263.8
2346.643	260.8
2350.492	268.8
2354.336	257.8
2358.178	256.8
2362.015	251.8
2365.85	261.8
2369.681	275.8
2373.508	271.8
2377.333	275.8
2381.153	275.8
2384.971	267.8
2388.785	256.8
2392.595	256.8
2396.402	257.8
2400.206	269.8
2404.007	259.8
2407.804	259.8
2411.597	259.8
2415.388	257.8
2419.174	266.8
2422.958	264.8
2426.738	252.8
2430.515	258.8
2434.289	266.8
2438.059	253.8
2441.825	247.8
2445.589	251.8
2449.349	234.8
2453.106	244.8
2456.859	235.8
2460.61	230.8
2464.356	233.8
2468.1	226.8
2471.84	224.8
2475.577	215.8
2479.311	217.8
2483.041	211.8
2486.768	216.8
2490.492	211.8
2494.213	212.8
2497.93	215.8
2501.644	213.8
2505.355	200.8
2509.062	206.8
2512.766	198.8
2516.467	197.8
2520.165	193.8
2523.859	194.8
2527.551	186.8
2531.239	177.8
2534.923	185.8
2538.605	171.8
2542.283	172.8
2545.958	171.8
2549.63	162.8
2553.299	168.8
2556.964	160.8
2560.626	161.8
2564.285	164.8
2567.941	151.8
2571.594	149.8
2575.243	148.8
2578.89	148.8
2582.533	151.8
2586.173	145.8
2589.809	154.8
2593.443	155.8
2597.073	147.8
2600.701	145.8
2604.325	144.8
2607.946	130.8
2611.564	144.8
2615.178	138.8
2618.79	142.8
2622.398	148.8
2626.004	133.8
2629.606	138.8
2633.205	143.8
2636.801	134.8
2640.394	137.8
2643.983	132.8
2647.57	132.8
2651.153	129.8
2654.734	126.8
2658.311	128.8
2661.885	129.8
2665.456	127.8
2669.025	133.8
2672.589	133.8
2676.151	124.8
2679.71	121.8
2683.266	116.8
2686.819	118.8
2690.368	121.8
2693.915	123.8
2697.458	115.8
2700.999	122.8
2704.536	109.8
2708.071	112.8
2711.602	101.8
2715.13	98.8
2718.656	94.8
2722.178	99.8
2725.697	92.8
2729.214	93.8
2732.727	88.8
2736.237	90.8
2739.744	81.8
2743.249	85.8
2746.75	80.8
2750.248	73.8
2753.743	68.8
2757.236	69.8
2760.725	69.8
2764.211	55.8
2767.695	55.8
2771.175	57.8
2774.652	54.8
2778.127	65.8
2781.598	60.8
2785.067	63.8
2788.532	62.8
2791.995	69.8
2795.455	65.8
2798.911	70.8
2802.365	67.8
2805.816	72.8
2809.264	70.8
2812.709	64.8
2816.151	79.8
2819.59	88.8
2823.026	68.8
2826.46	76.8
2829.89	74.8
2833.318	68.8
2836.742	79.8
2840.164	66.8
2843.583	71.8
2846.999	79.8
2850.412	72.8
2853.822	72.8
2857.229	73.8
2860.634	73.8
2864.035	83.8
2867.434	85.8
2870.83	87.8
2874.223	87.8
2877.613	95.8
2881	101.8
2884.385	102.8
2887.766	100.8
2891.145	95.8
2894.521	105.8
2897.894	104.8
2901.264	105.8
2904.631	98.8
2907.996	103.8
2911.358	116.8
2914.717	116.8
2918.073	113.8
2921.426	113.8
2924.777	120.8
2928.124	135.8
2931.469	125.8
2934.811	136.8
2938.15	136.8
2941.487	145.8
2944.821	141.8
2948.152	131.8
2951.48	136.8
2954.805	133.8
2958.128	135.8
2961.447	128.8
2964.765	128.8
2968.079	132.8
2971.39	128.8
2974.699	127.8
2978.005	129.8
2981.308	124.8
2984.609	117.8
2987.907	121.8
2991.202	127.8
2994.494	125.8
2997.784	116.8
3001.07	132.8
3004.355	133.8
3007.636	132.8
3010.915	136.8
3014.191	132.8
3017.464	135.8
3020.734	146.8
3024.002	142.8
3027.267	149.8
3030.53	144.8
3033.789	157.8
3037.046	157.8
3040.301	151.8
3043.552	172.8
3046.801	182.8
3050.048	175.8
3053.291	189.8
3056.532	198.8
3059.771	203.8
3063.006	209.8
3066.239	220.8
3069.469	231.8
3072.697	240.8
3075.922	237.8
3079.144	239.8
3082.364	249.8
3085.581	253.8
3088.795	262.8
3092.007	262.8
3095.216	261.8
3098.423	266.8
3101.627	265.8
3104.828	286.8
3108.026	295.8
3111.222	298.8
3114.416	299.8
3117.607	308.8
3120.795	314.8
3123.98	325.8
3127.163	331.8
3130.344	332.8
3133.521	344.8
3136.696	344.8
3139.869	358.8
3143.039	365.8
3146.206	366.8
3149.371	367.8
3152.533	373.8
3155.693	377.8
3158.85	380.8
3162.005	387.8
3165.157	382.8
3168.306	381.8
3171.453	383.8
3174.597	380.8
3177.739	394.8
3180.878	391.8
3184.014	392.8
3187.149	398.8
3190.28	405.8
3193.409	406.8
3196.536	394.8
3199.659	414.8
3202.781	410.8
3205.9	401.8
3209.016	401.8
3212.13	402.8
3215.241	401.8
3218.35	397.8
3221.456	402.8
3224.56	393.8
3227.661	381.8
3230.76	368.8
3233.856	371.8
3236.95	358.8
3240.041	342.8
3243.13	346.8
3246.216	343.8
3249.3	329.8
3252.382	323.8
3255.46	331.8
3258.537	322.8
3261.611	317.8
3264.682	317.8
3267.751	318.8
3270.818	301.8
3273.882	313.8
3276.943	301.8
3280.002	317.8
3283.059	297.8
3286.113	301.8
3289.165	301.8
3292.214	296.8
3295.261	301.8
3298.306	297.8
3301.348	296.8
3304.387	292.8
3307.425	284.8
3310.459	281.8
3313.492	273.8
3316.521	291.8
3319.549	290.8
3322.574	284.8
3325.597	283.8
3328.617	286.8
3331.635	294.8
3334.65	290.8
3337.663	276.8
3340.674	282.8
3343.682	280.8
3346.688	281.8
3349.691	286.8
3352.692	280.8
3355.691	286.8
3358.687	276.8
3361.681	274.8
3364.673	275.8
3367.662	270.8
3370.649	267.8
3373.633	252.8
3376.615	246.8
3379.595	252.8
3382.572	236.8
3385.547	253.8
3388.52	236.8
3391.49	230.8
3394.458	223.8
3397.424	229.8
3400.387	223.8
3403.348	222.8
3406.307	225.8
3409.263	213.8
3412.217	214.8
3415.168	219.8
3418.118	198.8
3421.065	197.8
3424.009	195.8
3426.951	192.8
3429.891	186.8
3432.829	188.8
3435.764	187.8
3438.697	176.8
3441.628	167.8
3444.557	164.8
3447.483	157.8
3450.407	147.8
3453.328	147.8
3456.247	143.8
3459.164	130.8
3462.079	126.8
3464.991	121.8
3467.902	122.8
3470.809	108.8
3473.715	99.8
3476.618	99.8
3479.519	90.8
3482.418	87.8
3485.315	83.8
3488.209	70.8
3491.101	69.8
3493.99	75.8
3496.878	58.8
3499.763	48.8
3502.646	60.8
3505.527	48.8
3508.405	50.8
3511.281	47.8
3514.155	36.8
3517.027	31.8
3519.897	38.8
3522.764	26.8
3525.629	33.8
3528.492	20.8
3531.352	9.8
3534.211	11.8
3537.067	10.8
3539.921	9.8
3542.773	-3.2
3545.622	-1.2
3548.469	-2.2
3551.315	-6.2
3554.157	-9.2
3556.998	-13.2
3559.837	-13.2
3562.673	-18.2
3565.507	-15.2
3568.339	-14.2
3571.169	-22.2
3573.996	-15.2
3576.822	-30.2
3579.645	-28.2
3582.466	-27.2
3585.285	-32.2
3588.101	-34.2
3590.916	-28.2
3593.728	-36.2
3596.538	-38.2
3599.346	-40.2
3602.152	-36.2
3604.956	-36.2
3607.757	-37.2
3610.556	-42.2
3613.354	-48.2
3616.149	-55.2
3618.942	-46.2
3621.732	-53.2
3624.521	-44.2
3627.307	-50.2
3630.092	-48.2
3632.874	-58.2
3635.654	-58.2
3638.432	-51.2
3641.208	-54.2
3643.982	-50.2
3646.753	-55.2
3649.523	-52.2
3652.29	-59.2
3655.055	-59.2
3657.818	-57.2
3660.579	-60.2
3663.338	-57.2
3666.095	-64.2
3668.849	-66.2
3671.602	-62.2
3674.352	-62.2
3677.101	-70.2
3679.847	-62.2
3682.591	-69.2
3685.333	-65.2
3688.073	-73.2
3690.811	-68.2
3693.547	-70.2
3696.281	-63.2
3699.013	-68.2
3701.742	-66.2
3704.47	-66.2
3707.195	-65.2
3709.919	-70.2
3712.64	-71.2
3715.359	-69.2
3718.076	-75.2
3720.792	-74.2
3723.505	-73.2
3726.216	-72.2
3728.925	-77.2
3731.632	-70.2
3734.336	-77.2
3737.039	-73.2
3739.74	-74.2
3742.439	-85.2
3745.136	-77.2
3747.83	-80.2
3750.523	-82.2
3753.213	-84.2
3755.902	-78.2
3758.589	-78.2
3761.273	-75.2
3763.956	-81.2
3766.636	-74.2
3769.315	-70.2
3771.991	-78.2
3774.665	-80.2
3777.338	-77.2
3780.008	-81.2
3782.677	-84.2
3785.343	-81.2
3788.007	-82.2
3790.67	-78.2
3793.33	-74.2
3795.989	-85.2
3798.645	-81.2
3801.299	-77.2
3803.952	-84.2
3806.602	-87.2
3809.251	-82.2
3811.897	-83.2
3814.542	-84.2
3817.184	-78.2
3819.825	-75.2
3822.463	-81.2
3825.1	-72.2
3827.735	-83.2
3830.367	-79.2
3832.998	-84.2
3835.627	-81.2
3838.253	-79.2
3840.878	-77.2
3843.501	-78.2
3846.122	-87.2
3848.741	-85.2
3851.358	-81.2
3853.973	-77.2
3856.586	-84.2
3859.197	-85.2
3861.806	-82.2
3864.414	-81.2
3867.019	-86.2
3869.622	-72.2
3872.224	-71.2
3874.823	-69.2
3877.421	-61.2
3880.016	-51.2
3882.61	-30.2
3885.202	-38.2
3887.792	-36.2
3890.38	-52.2
3892.966	-72.2
3895.55	-78.2
3898.132	-76.2
3900.713	-85.2
3903.291	-85.2
3905.868	-88.2
3908.442	-82.2
3911.015	-82.2
3913.586	-92.2
3916.155	-83.2
3918.722	-85.2
3921.287	-84.2
3923.85	-74.2
3926.411	-84.2
3928.971	-91.2
3931.528	-86.2
3934.084	-83.2
3936.638	-74.2
3939.19	-93.2
3941.74	-78.2
3944.288	-85.2
3946.834	-82.2
3949.378	-79.2
3951.921	-87.2
3954.462	-86.2
3957	-80.2
3959.537	-82.2
3962.072	-81.2
3964.606	-81.2
3967.137	-85.2
3969.667	-89.2
3972.194	-82.2
3974.72	-78.2
3977.244	-81.2
3979.766	-85.2
3982.286	-82.2
3984.805	-91.2
3987.321	-80.2
3989.836	-78.2
3992.349	-80.2
3994.86	-81.2
3997.369	-81.2
3999.877	-83.2
4002.382	-84.2
4004.886	-79.2
4007.388	-86.2
4009.888	-81.2
4012.386	-88.2
4014.883	-81.2
4017.377	-77.2
4019.87	-79.2
4022.361	-90.2
4024.85	-82.2
4027.338	-84.2
4029.823	-83.2
4032.307	-82.2
4034.789	-82.2
4037.269	-84.2
4039.747	-78.2
4042.224	-84.2
4044.699	-79.2
4047.172	-84.2
4049.643	-87.2
4052.112	-82.2
4054.58	-83.2
4057.046	-77.2
4059.51	-88.2
4061.972	-87.2
4064.432	-82.2
4066.891	-78.2
4069.348	-83.2
4071.803	-79.2
4074.256	-80.2
4076.708	-85.2
4079.158	-88.2
4081.606	-86.2
4084.052	-87.2
4086.497	-82.2
4088.939	-80.2
4091.38	-88.2
4093.819	-83.2
4096.257	-89.2
4098.693	-87.2
4101.127	-81.2
4103.559	-89.2
4105.989	-15.2
4108.418	-18.2
4110.845	-18.2
4113.27	-16.2
4115.694	-9.2
4118.115	-3.2
4120.535	-85.2
4122.954	-78.2
4125.37	-80.2
4127.785	-78.2
4130.198	-80.2
4132.609	-84.2
4135.019	-87.2
4137.427	-87.2
4139.833	-86.2
4142.237	-86.2
