Data from 2018-3-7_conc=6_n=8_RamanShift_04.txt Node
Date: Wed Mar 07 13:21:21 IST 2018
User: aro
Spectrometer: QEPB0276
Trigger mode: 0
Integration Time (sec): 3.000000E1
Scans to average: 1
Electric dark correction enabled: true
Nonlinearity correction enabled: false
Boxcar width: 0
XAxis mode: Raman Shifts
Number of Pixels in Spectrum: 1044
>>>>>Begin Spectral Data<<<<<
160.701	3.5
166.742	16.5
172.777	52.5
178.805	140.5
184.826	374.5
190.841	821.5
196.849	1378.5
202.85	1828.5
208.845	1980.5
214.833	1970.5
220.815	1947.5
226.789	1958.5
232.758	1960.5
238.719	1972.5
244.674	1931.5
250.623	1938.5
256.565	1898.5
262.5	1866.5
268.429	1862.5
274.351	1822.5
280.267	1830.5
286.176	1810.5
292.079	1829.5
297.975	1792.5
303.865	1803.5
309.748	1806.5
315.625	1780.5
321.495	1781.5
327.359	1797.5
333.217	1776.5
339.068	1781.5
344.912	1806.5
350.751	1785.5
356.583	1793.5
362.408	1771.5
368.227	1809.5
374.04	1811.5
379.847	1824.5
385.647	1805.5
391.44	1819.5
397.228	1829.5
403.009	1830.5
408.784	1856.5
414.553	1873.5
420.315	1851.5
426.071	1862.5
431.821	1849.5
437.565	1862.5
443.302	1844.5
449.033	1861.5
454.758	1843.5
460.477	1833.5
466.189	1822.5
471.896	1821.5
477.596	1803.5
483.29	1786.5
488.978	1784.5
494.66	1776.5
500.335	1735.5
506.005	1691.5
511.668	1637.5
517.325	1603.5
522.977	1559.5
528.622	1502.5
534.261	1504.5
539.894	1493.5
545.521	1466.5
551.141	1483.5
556.756	1445.5
562.365	1450.5
567.968	1424.5
573.565	1425.5
579.155	1426.5
584.74	1414.5
590.319	1421.5
595.892	1415.5
601.459	1397.5
607.02	1399.5
612.575	1388.5
618.124	1373.5
623.667	1359.5
629.204	1336.5
634.735	1340.5
640.261	1330.5
645.781	1324.5
651.294	1326.5
656.802	1315.5
662.304	1310.5
667.8	1302.5
673.29	1302.5
678.775	1313.5
684.254	1313.5
689.726	1286.5
695.193	1275.5
700.655	1290.5
706.11	1270.5
711.56	1277.5
717.004	1256.5
722.442	1248.5
727.874	1256.5
733.301	1250.5
738.722	1239.5
744.137	1236.5
749.547	1234.5
754.951	1208.5
760.349	1237.5
765.741	1228.5
771.128	1229.5
776.509	1235.5
781.885	1255.5
787.254	1246.5
792.618	1261.5
797.977	1235.5
803.33	1227.5
808.677	1234.5
814.019	1219.5
819.355	1203.5
824.686	1203.5
830.011	1199.5
835.33	1193.5
840.644	1197.5
845.952	1188.5
851.255	1179.5
856.552	1193.5
861.844	1181.5
867.13	1168.5
872.41	1163.5
877.686	1160.5
882.955	1144.5
888.219	1129.5
893.478	1114.5
898.731	1093.5
903.979	1091.5
909.221	1096.5
914.458	1071.5
919.69	1080.5
924.916	1087.5
930.136	1083.5
935.351	1089.5
940.561	1085.5
945.766	1086.5
950.965	1074.5
956.158	1090.5
961.347	1053.5
966.529	1039.5
971.707	1027.5
976.879	1015.5
982.046	1000.5
987.208	1012.5
992.364	1004.5
997.515	1006.5
1002.66	1015.5
1007.801	1039.5
1012.936	1032.5
1018.066	1038.5
1023.19	1041.5
1028.309	1033.5
1033.423	1030.5
1038.532	1017.5
1043.636	1020.5
1048.734	1007.5
1053.827	985.5
1058.915	982.5
1063.998	980.5
1069.075	961.5
1074.147	963.5
1079.214	967.5
1084.276	983.5
1089.333	1007.5
1094.385	985.5
1099.431	987.5
1104.472	982.5
1109.509	954.5
1114.54	948.5
1119.565	964.5
1124.586	932.5
1129.602	931.5
1134.613	927.5
1139.618	922.5
1144.619	905.5
1149.614	922.5
1154.604	910.5
1159.589	935.5
1164.57	927.5
1169.545	913.5
1174.515	930.5
1179.48	926.5
1184.44	913.5
1189.395	906.5
1194.345	898.5
1199.29	879.5
1204.23	899.5
1209.165	884.5
1214.095	895.5
1219.021	892.5
1223.941	910.5
1228.856	912.5
1233.766	919.5
1238.672	920.5
1243.572	914.5
1248.467	913.5
1253.358	907.5
1258.244	884.5
1263.124	861.5
1268	855.5
1272.871	839.5
1277.737	834.5
1282.599	824.5
1287.455	834.5
1292.306	830.5
1297.153	838.5
1301.995	837.5
1306.832	857.5
1311.664	844.5
1316.491	856.5
1321.314	859.5
1326.132	839.5
1330.945	825.5
1335.753	815.5
1340.556	786.5
1345.354	787.5
1350.148	778.5
1354.937	757.5
1359.722	741.5
1364.501	710.5
1369.276	713.5
1374.046	703.5
1378.811	694.5
1383.572	681.5
1388.327	673.5
1393.079	672.5
1397.825	688.5
1402.567	693.5
1407.304	696.5
1412.036	703.5
1416.764	715.5
1421.487	695.5
1426.205	699.5
1430.919	699.5
1435.628	703.5
1440.333	714.5
1445.032	725.5
1449.727	740.5
1454.418	740.5
1459.104	722.5
1463.785	708.5
1468.462	703.5
1473.134	676.5
1477.802	657.5
1482.465	644.5
1487.123	646.5
1491.777	630.5
1496.426	611.5
1501.071	607.5
1505.711	601.5
1510.347	603.5
1514.978	578.5
1519.604	590.5
1524.226	585.5
1528.844	580.5
1533.457	576.5
1538.065	568.5
1542.669	573.5
1547.269	574.5
1551.864	585.5
1556.454	608.5
1561.041	597.5
1565.622	596.5
1570.199	604.5
1574.772	614.5
1579.34	614.5
1583.904	614.5
1588.464	631.5
1593.019	640.5
1597.569	639.5
1602.115	633.5
1606.657	639.5
1611.195	633.5
1615.728	623.5
1620.256	610.5
1624.78	620.5
1629.3	625.5
1633.816	634.5
1638.327	638.5
1642.834	632.5
1647.336	635.5
1651.834	632.5
1656.328	637.5
1660.817	630.5
1665.302	617.5
1669.783	599.5
1674.259	597.5
1678.732	583.5
1683.199	548.5
1687.663	545.5
1692.122	508.5
1696.577	489.5
1701.028	466.5
1705.474	434.5
1709.917	430.5
1714.355	416.5
1718.788	411.5
1723.218	411.5
1727.643	421.5
1732.064	418.5
1736.481	416.5
1740.893	402.5
1745.301	400.5
1749.705	394.5
1754.105	384.5
1758.501	367.5
1762.893	370.5
1767.28	363.5
1771.663	361.5
1776.042	361.5
1780.417	345.5
1784.787	338.5
1789.154	333.5
1793.516	320.5
1797.874	319.5
1802.228	316.5
1806.578	303.5
1810.924	300.5
1815.266	297.5
1819.603	300.5
1823.937	313.5
1828.266	302.5
1832.591	311.5
1836.913	310.5
1841.23	311.5
1845.543	306.5
1849.852	321.5
1854.156	325.5
1858.457	320.5
1862.754	323.5
1867.047	318.5
1871.335	315.5
1875.62	318.5
1879.9	325.5
1884.177	305.5
1888.449	311.5
1892.718	310.5
1896.982	303.5
1901.243	291.5
1905.499	289.5
1909.752	282.5
1914	281.5
1918.245	268.5
1922.485	270.5
1926.722	248.5
1930.954	257.5
1935.183	261.5
1939.408	254.5
1943.628	252.5
1947.845	257.5
1952.058	245.5
1956.267	246.5
1960.472	248.5
1964.673	242.5
1968.87	239.5
1973.063	232.5
1977.252	241.5
1981.438	237.5
1985.619	239.5
1989.797	236.5
1993.971	249.5
1998.14	237.5
2002.306	252.5
2006.469	249.5
2010.627	245.5
2014.781	242.5
2018.932	243.5
2023.078	245.5
2027.221	238.5
2031.36	247.5
2035.495	244.5
2039.627	230.5
2043.754	233.5
2047.878	234.5
2051.998	234.5
2056.114	226.5
2060.226	221.5
2064.334	216.5
2068.439	223.5
2072.54	225.5
2076.637	213.5
2080.73	220.5
2084.82	210.5
2088.906	211.5
2092.988	208.5
2097.066	212.5
2101.14	202.5
2105.211	202.5
2109.278	201.5
2113.342	181.5
2117.401	197.5
2121.457	193.5
2125.509	194.5
2129.558	193.5
2133.602	191.5
2137.643	195.5
2141.681	192.5
2145.714	202.5
2149.744	193.5
2153.77	198.5
2157.793	189.5
2161.812	196.5
2165.827	201.5
2169.838	186.5
2173.846	185.5
2177.851	181.5
2181.851	181.5
2185.848	176.5
2189.841	175.5
2193.831	177.5
2197.817	180.5
2201.799	180.5
2205.778	173.5
2209.753	180.5
2213.725	173.5
2217.693	173.5
2221.657	183.5
2225.618	172.5
2229.575	174.5
2233.529	177.5
2237.479	169.5
2241.425	168.5
2245.368	171.5
2249.307	165.5
2253.243	160.5
2257.175	158.5
2261.104	145.5
2265.029	157.5
2268.95	160.5
2272.868	144.5
2276.783	146.5
2280.694	142.5
2284.601	145.5
2288.505	143.5
2292.405	143.5
2296.302	150.5
2300.195	146.5
2304.085	140.5
2307.971	138.5
2311.854	134.5
2315.734	130.5
2319.609	141.5
2323.482	139.5
2327.351	141.5
2331.216	147.5
2335.078	151.5
2338.937	136.5
2342.792	138.5
2346.643	135.5
2350.492	137.5
2354.336	134.5
2358.178	126.5
2362.015	131.5
2365.85	129.5
2369.681	132.5
2373.508	142.5
2377.333	141.5
2381.153	137.5
2384.971	130.5
2388.785	135.5
2392.595	135.5
2396.402	146.5
2400.206	126.5
2404.007	128.5
2407.804	132.5
2411.597	131.5
2415.388	126.5
2419.174	136.5
2422.958	133.5
2426.738	124.5
2430.515	131.5
2434.289	122.5
2438.059	121.5
2441.825	113.5
2445.589	121.5
2449.349	122.5
2453.106	125.5
2456.859	114.5
2460.61	123.5
2464.356	120.5
2468.1	116.5
2471.84	116.5
2475.577	115.5
2479.311	107.5
2483.041	112.5
2486.768	106.5
2490.492	107.5
2494.213	106.5
2497.93	112.5
2501.644	107.5
2505.355	100.5
2509.062	102.5
2512.766	100.5
2516.467	97.5
2520.165	103.5
2523.859	96.5
2527.551	93.5
2531.239	91.5
2534.923	91.5
2538.605	90.5
2542.283	89.5
2545.958	91.5
2549.63	88.5
2553.299	93.5
2556.964	87.5
2560.626	84.5
2564.285	86.5
2567.941	79.5
2571.594	81.5
2575.243	84.5
2578.89	75.5
2582.533	72.5
2586.173	80.5
2589.809	77.5
2593.443	85.5
2597.073	77.5
2600.701	76.5
2604.325	69.5
2607.946	60.5
2611.564	76.5
2615.178	71.5
2618.79	77.5
2622.398	75.5
2626.004	71.5
2629.606	69.5
2633.205	66.5
2636.801	70.5
2640.394	75.5
2643.983	64.5
2647.57	66.5
2651.153	62.5
2654.734	70.5
2658.311	67.5
2661.885	62.5
2665.456	57.5
2669.025	60.5
2672.589	55.5
2676.151	56.5
2679.71	50.5
2683.266	58.5
2686.819	55.5
2690.368	57.5
2693.915	56.5
2697.458	50.5
2700.999	64.5
2704.536	57.5
2708.071	55.5
2711.602	52.5
2715.13	44.5
2718.656	45.5
2722.178	53.5
2725.697	43.5
2729.214	44.5
2732.727	48.5
2736.237	50.5
2739.744	41.5
2743.249	43.5
2746.75	41.5
2750.248	32.5
2753.743	36.5
2757.236	34.5
2760.725	33.5
2764.211	38.5
2767.695	29.5
2771.175	32.5
2774.652	32.5
2778.127	35.5
2781.598	29.5
2785.067	28.5
2788.532	32.5
2791.995	36.5
2795.455	31.5
2798.911	29.5
2802.365	39.5
2805.816	33.5
2809.264	38.5
2812.709	31.5
2816.151	36.5
2819.59	42.5
2823.026	31.5
2826.46	34.5
2829.89	33.5
2833.318	32.5
2836.742	33.5
2840.164	33.5
2843.583	36.5
2846.999	42.5
2850.412	38.5
2853.822	36.5
2857.229	35.5
2860.634	41.5
2864.035	37.5
2867.434	40.5
2870.83	49.5
2874.223	42.5
2877.613	42.5
2881	50.5
2884.385	56.5
2887.766	50.5
2891.145	47.5
2894.521	49.5
2897.894	44.5
2901.264	38.5
2904.631	40.5
2907.996	46.5
2911.358	49.5
2914.717	45.5
2918.073	50.5
2921.426	46.5
2924.777	52.5
2928.124	56.5
2931.469	62.5
2934.811	65.5
2938.15	70.5
2941.487	73.5
2944.821	64.5
2948.152	65.5
2951.48	59.5
2954.805	64.5
2958.128	55.5
2961.447	71.5
2964.765	63.5
2968.079	59.5
2971.39	55.5
2974.699	63.5
2978.005	60.5
2981.308	59.5
2984.609	51.5
2987.907	59.5
2991.202	48.5
2994.494	54.5
2997.784	49.5
3001.07	59.5
3004.355	53.5
3007.636	61.5
3010.915	63.5
3014.191	61.5
3017.464	62.5
3020.734	66.5
3024.002	69.5
3027.267	71.5
3030.53	73.5
3033.789	68.5
3037.046	74.5
3040.301	66.5
3043.552	76.5
3046.801	82.5
3050.048	83.5
3053.291	86.5
3056.532	90.5
3059.771	89.5
3063.006	96.5
3066.239	102.5
3069.469	110.5
3072.697	105.5
3075.922	110.5
3079.144	98.5
3082.364	108.5
3085.581	111.5
3088.795	118.5
3092.007	124.5
3095.216	126.5
3098.423	125.5
3101.627	128.5
3104.828	134.5
3108.026	138.5
3111.222	141.5
3114.416	139.5
3117.607	143.5
3120.795	146.5
3123.98	153.5
3127.163	165.5
3130.344	159.5
3133.521	165.5
3136.696	165.5
3139.869	167.5
3143.039	169.5
3146.206	177.5
3149.371	177.5
3152.533	175.5
3155.693	184.5
3158.85	182.5
3162.005	186.5
3165.157	182.5
3168.306	188.5
3171.453	183.5
3174.597	179.5
3177.739	195.5
3180.878	191.5
3184.014	188.5
3187.149	188.5
3190.28	183.5
3193.409	195.5
3196.536	188.5
3199.659	184.5
3202.781	192.5
3205.9	188.5
3209.016	178.5
3212.13	187.5
3215.241	180.5
3218.35	179.5
3221.456	188.5
3224.56	182.5
3227.661	176.5
3230.76	179.5
3233.856	174.5
3236.95	164.5
3240.041	167.5
3243.13	167.5
3246.216	165.5
3249.3	158.5
3252.382	159.5
3255.46	157.5
3258.537	162.5
3261.611	150.5
3264.682	151.5
3267.751	157.5
3270.818	142.5
3273.882	145.5
3276.943	139.5
3280.002	142.5
3283.059	138.5
3286.113	135.5
3289.165	144.5
3292.214	139.5
3295.261	138.5
3298.306	132.5
3301.348	130.5
3304.387	135.5
3307.425	129.5
3310.459	122.5
3313.492	134.5
3316.521	135.5
3319.549	131.5
3322.574	131.5
3325.597	125.5
3328.617	130.5
3331.635	137.5
3334.65	134.5
3337.663	121.5
3340.674	129.5
3343.682	127.5
3346.688	129.5
3349.691	127.5
3352.692	130.5
3355.691	127.5
3358.687	124.5
3361.681	124.5
3364.673	124.5
3367.662	121.5
3370.649	120.5
3373.633	121.5
3376.615	119.5
3379.595	115.5
3382.572	106.5
3385.547	112.5
3388.52	107.5
3391.49	101.5
3394.458	103.5
3397.424	104.5
3400.387	111.5
3403.348	104.5
3406.307	94.5
3409.263	99.5
3412.217	99.5
3415.168	100.5
3418.118	93.5
3421.065	82.5
3424.009	78.5
3426.951	82.5
3429.891	86.5
3432.829	85.5
3435.764	84.5
3438.697	80.5
3441.628	70.5
3444.557	73.5
3447.483	73.5
3450.407	56.5
3453.328	66.5
3456.247	66.5
3459.164	55.5
3462.079	52.5
3464.991	50.5
3467.902	50.5
3470.809	50.5
3473.715	43.5
3476.618	36.5
3479.519	34.5
3482.418	32.5
3485.315	31.5
3488.209	26.5
3491.101	18.5
3493.99	32.5
3496.878	22.5
3499.763	21.5
3502.646	21.5
3505.527	19.5
3508.405	17.5
3511.281	19.5
3514.155	11.5
3517.027	5.5
3519.897	9.5
3522.764	8.5
3525.629	8.5
3528.492	3.5
3531.352	-1.5
3534.211	-5.5
3537.067	-3.5
3539.921	-1.5
3542.773	-8.5
3545.622	-14.5
3548.469	-14.5
3551.315	-5.5
3554.157	-15.5
3556.998	-15.5
3559.837	-13.5
3562.673	-19.5
3565.507	-17.5
3568.339	-17.5
3571.169	-14.5
3573.996	-11.5
3576.822	-26.5
3579.645	-18.5
3582.466	-18.5
3585.285	-22.5
3588.101	-22.5
3590.916	-18.5
3593.728	-21.5
3596.538	-32.5
3599.346	-27.5
3602.152	-27.5
3604.956	-23.5
3607.757	-22.5
3610.556	-30.5
3613.354	-39.5
3616.149	-38.5
3618.942	-28.5
3621.732	-32.5
3624.521	-32.5
3627.307	-31.5
3630.092	-31.5
3632.874	-34.5
3635.654	-32.5
3638.432	-29.5
3641.208	-28.5
3643.982	-35.5
3646.753	-40.5
3649.523	-35.5
3652.29	-38.5
3655.055	-34.5
3657.818	-42.5
3660.579	-40.5
3663.338	-38.5
3666.095	-40.5
3668.849	-42.5
3671.602	-40.5
3674.352	-36.5
3677.101	-42.5
3679.847	-40.5
3682.591	-44.5
3685.333	-42.5
3688.073	-49.5
3690.811	-35.5
3693.547	-41.5
3696.281	-37.5
3699.013	-42.5
3701.742	-46.5
3704.47	-43.5
3707.195	-43.5
3709.919	-41.5
3712.64	-44.5
3715.359	-45.5
3718.076	-50.5
3720.792	-45.5
3723.505	-46.5
3726.216	-44.5
3728.925	-47.5
3731.632	-48.5
3734.336	-50.5
3737.039	-42.5
3739.74	-54.5
3742.439	-52.5
3745.136	-48.5
3747.83	-48.5
3750.523	-49.5
3753.213	-56.5
3755.902	-42.5
3758.589	-47.5
3761.273	-45.5
3763.956	-45.5
3766.636	-45.5
3769.315	-44.5
3771.991	-48.5
3774.665	-54.5
3777.338	-48.5
3780.008	-46.5
3782.677	-58.5
3785.343	-47.5
3788.007	-50.5
3790.67	-53.5
3793.33	-48.5
3795.989	-53.5
3798.645	-52.5
3801.299	-44.5
3803.952	-46.5
3806.602	-49.5
3809.251	-52.5
3811.897	-52.5
3814.542	-50.5
3817.184	-48.5
3819.825	-43.5
3822.463	-50.5
3825.1	-47.5
3827.735	-52.5
3830.367	-49.5
3832.998	-50.5
3835.627	-51.5
3838.253	-46.5
3840.878	-42.5
3843.501	-51.5
3846.122	-53.5
3848.741	-51.5
3851.358	-50.5
3853.973	-47.5
3856.586	-45.5
3859.197	-49.5
3861.806	-47.5
3864.414	-45.5
3867.019	-49.5
3869.622	-45.5
3872.224	-42.5
3874.823	-29.5
3877.421	-26.5
3880.016	-17.5
3882.61	-5.5
3885.202	-5.5
3887.792	-9.5
3890.38	-24.5
3892.966	-40.5
3895.55	-46.5
3898.132	-49.5
3900.713	-57.5
3903.291	-48.5
3905.868	-48.5
3908.442	-50.5
3911.015	-52.5
3913.586	-52.5
3916.155	-51.5
3918.722	-52.5
3921.287	-49.5
3923.85	-40.5
3926.411	-50.5
3928.971	-57.5
3931.528	-49.5
3934.084	-52.5
3936.638	-48.5
3939.19	-56.5
3941.74	-51.5
3944.288	-52.5
3946.834	-53.5
3949.378	-53.5
3951.921	-56.5
3954.462	-55.5
3957	-42.5
3959.537	-45.5
3962.072	-48.5
3964.606	-47.5
3967.137	-52.5
3969.667	-49.5
3972.194	-49.5
3974.72	-47.5
3977.244	-46.5
3979.766	-47.5
3982.286	-49.5
3984.805	-56.5
3987.321	-45.5
3989.836	-45.5
3992.349	-50.5
3994.86	-51.5
3997.369	-52.5
3999.877	-50.5
4002.382	-51.5
4004.886	-48.5
4007.388	-48.5
4009.888	-51.5
4012.386	-54.5
4014.883	-47.5
4017.377	-52.5
4019.87	-49.5
4022.361	-51.5
4024.85	-48.5
4027.338	-51.5
4029.823	-49.5
4032.307	-50.5
4034.789	-46.5
4037.269	-50.5
4039.747	-49.5
4042.224	-48.5
4044.699	-50.5
4047.172	-56.5
4049.643	-48.5
4052.112	-50.5
4054.58	-48.5
4057.046	-46.5
4059.51	-55.5
4061.972	-54.5
4064.432	-49.5
4066.891	-47.5
4069.348	-51.5
4071.803	-46.5
4074.256	-51.5
4076.708	-53.5
4079.158	-56.5
4081.606	-48.5
4084.052	-51.5
4086.497	-47.5
4088.939	-48.5
4091.38	-53.5
4093.819	-53.5
4096.257	-53.5
4098.693	-55.5
4101.127	-46.5
4103.559	-57.5
4105.989	2.5
4108.418	-0.5
4110.845	-1.5
4113.27	-1.5
4115.694	4.5
4118.115	6.5
4120.535	-48.5
4122.954	-46.5
4125.37	-50.5
4127.785	-50.5
4130.198	-47.5
4132.609	-49.5
4135.019	-54.5
4137.427	-51.5
4139.833	-54.5
4142.237	-52.5
