Data from 2018-3-7_conc=0_n=6_RamanShift_01.txt Node
Date: Wed Mar 07 10:22:22 IST 2018
User: aro
Spectrometer: QEPB0276
Trigger mode: 0
Integration Time (sec): 3.000000E1
Scans to average: 1
Electric dark correction enabled: true
Nonlinearity correction enabled: false
Boxcar width: 0
XAxis mode: Raman Shifts
Number of Pixels in Spectrum: 1044
>>>>>Begin Spectral Data<<<<<
160.701	11.6
166.742	22.6
172.777	49.6
178.805	163.6
184.826	399.6
190.841	848.6
196.849	1400.6
202.85	1809.6
208.845	1961.6
214.833	1981.6
220.815	1941.6
226.789	1948.6
232.758	1977.6
238.719	1976.6
244.674	1944.6
250.623	1973.6
256.565	1940.6
262.5	1913.6
268.429	1903.6
274.351	1893.6
280.267	1892.6
286.176	1913.6
292.079	1932.6
297.975	1909.6
303.865	1920.6
309.748	1919.6
315.625	1916.6
321.495	1915.6
327.359	1927.6
333.217	1935.6
339.068	1938.6
344.912	1949.6
350.751	1974.6
356.583	1955.6
362.408	1955.6
368.227	1983.6
374.04	1995.6
379.847	2009.6
385.647	1997.6
391.44	2017.6
397.228	2022.6
403.009	2051.6
408.784	2070.6
414.553	2082.6
420.315	2078.6
426.071	2086.6
431.821	2084.6
437.565	2097.6
443.302	2075.6
449.033	2078.6
454.758	2054.6
460.477	2045.6
466.189	2039.6
471.896	1989.6
477.596	1981.6
483.29	1981.6
488.978	1960.6
494.66	1963.6
500.335	1909.6
506.005	1816.6
511.668	1734.6
517.325	1644.6
522.977	1571.6
528.622	1537.6
534.261	1491.6
539.894	1465.6
545.521	1445.6
551.141	1405.6
556.756	1415.6
562.365	1390.6
567.968	1384.6
573.565	1356.6
579.155	1355.6
584.74	1361.6
590.319	1341.6
595.892	1343.6
601.459	1352.6
607.02	1344.6
612.575	1319.6
618.124	1307.6
623.667	1283.6
629.204	1276.6
634.735	1263.6
640.261	1242.6
645.781	1234.6
651.294	1241.6
656.802	1214.6
662.304	1212.6
667.8	1211.6
673.29	1208.6
678.775	1213.6
684.254	1210.6
689.726	1196.6
695.193	1191.6
700.655	1187.6
706.11	1161.6
711.56	1168.6
717.004	1150.6
722.442	1143.6
727.874	1155.6
733.301	1154.6
738.722	1136.6
744.137	1136.6
749.547	1129.6
754.951	1121.6
760.349	1127.6
765.741	1151.6
771.128	1170.6
776.509	1172.6
781.885	1182.6
787.254	1192.6
792.618	1204.6
797.977	1190.6
803.33	1187.6
808.677	1180.6
814.019	1179.6
819.355	1168.6
824.686	1131.6
830.011	1141.6
835.33	1137.6
840.644	1142.6
845.952	1133.6
851.255	1118.6
856.552	1130.6
861.844	1104.6
867.13	1096.6
872.41	1123.6
877.686	1162.6
882.955	1193.6
888.219	1191.6
893.478	1129.6
898.731	1053.6
903.979	1029.6
909.221	1006.6
914.458	1000.6
919.69	985.6
924.916	993.6
930.136	994.6
935.351	991.6
940.561	1005.6
945.766	991.6
950.965	971.6
956.158	981.6
961.347	977.6
966.529	960.6
971.707	922.6
976.879	917.6
982.046	916.6
987.208	899.6
992.364	913.6
997.515	919.6
1002.66	924.6
1007.801	949.6
1012.936	945.6
1018.066	969.6
1023.19	957.6
1028.309	955.6
1033.423	964.6
1038.532	951.6
1043.636	967.6
1048.734	978.6
1053.827	968.6
1058.915	949.6
1063.998	936.6
1069.075	925.6
1074.147	924.6
1079.214	940.6
1084.276	952.6
1089.333	963.6
1094.385	957.6
1099.431	933.6
1104.472	930.6
1109.509	913.6
1114.54	893.6
1119.565	874.6
1124.586	875.6
1129.602	851.6
1134.613	842.6
1139.618	836.6
1144.619	829.6
1149.614	846.6
1154.604	842.6
1159.589	843.6
1164.57	840.6
1169.545	841.6
1174.515	846.6
1179.48	832.6
1184.44	829.6
1189.395	830.6
1194.345	811.6
1199.29	808.6
1204.23	814.6
1209.165	806.6
1214.095	821.6
1219.021	825.6
1223.941	838.6
1228.856	838.6
1233.766	824.6
1238.672	850.6
1243.572	832.6
1248.467	829.6
1253.358	816.6
1258.244	807.6
1263.124	784.6
1268	781.6
1272.871	771.6
1277.737	764.6
1282.599	766.6
1287.455	765.6
1292.306	768.6
1297.153	766.6
1301.995	785.6
1306.832	769.6
1311.664	764.6
1316.491	779.6
1321.314	768.6
1326.132	769.6
1330.945	742.6
1335.753	738.6
1340.556	708.6
1345.354	691.6
1350.148	695.6
1354.937	674.6
1359.722	655.6
1364.501	638.6
1369.276	640.6
1374.046	635.6
1378.811	629.6
1383.572	628.6
1388.327	632.6
1393.079	623.6
1397.825	636.6
1402.567	635.6
1407.304	637.6
1412.036	651.6
1416.764	639.6
1421.487	651.6
1426.205	654.6
1430.919	637.6
1435.628	656.6
1440.333	659.6
1445.032	672.6
1449.727	681.6
1454.418	706.6
1459.104	709.6
1463.785	706.6
1468.462	661.6
1473.134	640.6
1477.802	609.6
1482.465	582.6
1487.123	573.6
1491.777	562.6
1496.426	553.6
1501.071	547.6
1505.711	526.6
1510.347	532.6
1514.978	527.6
1519.604	516.6
1524.226	518.6
1528.844	527.6
1533.457	508.6
1538.065	511.6
1542.669	514.6
1547.269	510.6
1551.864	523.6
1556.454	538.6
1561.041	548.6
1565.622	554.6
1570.199	538.6
1574.772	546.6
1579.34	551.6
1583.904	560.6
1588.464	562.6
1593.019	572.6
1597.569	566.6
1602.115	565.6
1606.657	569.6
1611.195	557.6
1615.728	560.6
1620.256	542.6
1624.78	562.6
1629.3	547.6
1633.816	539.6
1638.327	553.6
1642.834	542.6
1647.336	538.6
1651.834	542.6
1656.328	563.6
1660.817	533.6
1665.302	529.6
1669.783	514.6
1674.259	505.6
1678.732	488.6
1683.199	468.6
1687.663	457.6
1692.122	438.6
1696.577	405.6
1701.028	392.6
1705.474	368.6
1709.917	375.6
1714.355	360.6
1718.788	353.6
1723.218	352.6
1727.643	360.6
1732.064	365.6
1736.481	357.6
1740.893	347.6
1745.301	340.6
1749.705	334.6
1754.105	331.6
1758.501	312.6
1762.893	326.6
1767.28	312.6
1771.663	297.6
1776.042	290.6
1780.417	287.6
1784.787	276.6
1789.154	283.6
1793.516	278.6
1797.874	266.6
1802.228	270.6
1806.578	257.6
1810.924	265.6
1815.266	256.6
1819.603	267.6
1823.937	267.6
1828.266	264.6
1832.591	275.6
1836.913	280.6
1841.23	275.6
1845.543	272.6
1849.852	271.6
1854.156	271.6
1858.457	274.6
1862.754	272.6
1867.047	277.6
1871.335	273.6
1875.62	280.6
1879.9	268.6
1884.177	255.6
1888.449	260.6
1892.718	250.6
1896.982	245.6
1901.243	247.6
1905.499	245.6
1909.752	231.6
1914	229.6
1918.245	225.6
1922.485	222.6
1926.722	206.6
1930.954	211.6
1935.183	216.6
1939.408	216.6
1943.628	205.6
1947.845	201.6
1952.058	206.6
1956.267	204.6
1960.472	211.6
1964.673	199.6
1968.87	202.6
1973.063	202.6
1977.252	203.6
1981.438	204.6
1985.619	206.6
1989.797	202.6
1993.971	206.6
1998.14	209.6
2002.306	209.6
2006.469	207.6
2010.627	201.6
2014.781	211.6
2018.932	202.6
2023.078	208.6
2027.221	202.6
2031.36	207.6
2035.495	192.6
2039.627	195.6
2043.754	197.6
2047.878	189.6
2051.998	184.6
2056.114	179.6
2060.226	180.6
2064.334	182.6
2068.439	176.6
2072.54	174.6
2076.637	173.6
2080.73	176.6
2084.82	173.6
2088.906	164.6
2092.988	174.6
2097.066	166.6
2101.14	171.6
2105.211	173.6
2109.278	210.6
2113.342	219.6
2117.401	167.6
2121.457	152.6
2125.509	151.6
2129.558	146.6
2133.602	151.6
2137.643	159.6
2141.681	162.6
2145.714	152.6
2149.744	153.6
2153.77	158.6
2157.793	158.6
2161.812	168.6
2165.827	156.6
2169.838	153.6
2173.846	155.6
2177.851	143.6
2181.851	157.6
2185.848	145.6
2189.841	143.6
2193.831	142.6
2197.817	148.6
2201.799	146.6
2205.778	143.6
2209.753	154.6
2213.725	144.6
2217.693	144.6
2221.657	136.6
2225.618	146.6
2229.575	142.6
2233.529	139.6
2237.479	148.6
2241.425	135.6
2245.368	128.6
2249.307	140.6
2253.243	134.6
2257.175	137.6
2261.104	126.6
2265.029	127.6
2268.95	133.6
2272.868	124.6
2276.783	125.6
2280.694	111.6
2284.601	114.6
2288.505	124.6
2292.405	127.6
2296.302	125.6
2300.195	113.6
2304.085	109.6
2307.971	109.6
2311.854	110.6
2315.734	106.6
2319.609	119.6
2323.482	113.6
2327.351	123.6
2331.216	135.6
2335.078	146.6
2338.937	131.6
2342.792	113.6
2346.643	113.6
2350.492	115.6
2354.336	114.6
2358.178	109.6
2362.015	107.6
2365.85	110.6
2369.681	111.6
2373.508	116.6
2377.333	113.6
2381.153	112.6
2384.971	112.6
2388.785	112.6
2392.595	118.6
2396.402	118.6
2400.206	105.6
2404.007	105.6
2407.804	102.6
2411.597	109.6
2415.388	104.6
2419.174	111.6
2422.958	112.6
2426.738	107.6
2430.515	107.6
2434.289	108.6
2438.059	99.6
2441.825	99.6
2445.589	100.6
2449.349	94.6
2453.106	96.6
2456.859	93.6
2460.61	89.6
2464.356	96.6
2468.1	84.6
2471.84	92.6
2475.577	86.6
2479.311	87.6
2483.041	87.6
2486.768	82.6
2490.492	87.6
2494.213	84.6
2497.93	79.6
2501.644	90.6
2505.355	74.6
2509.062	80.6
2512.766	80.6
2516.467	79.6
2520.165	75.6
2523.859	78.6
2527.551	73.6
2531.239	73.6
2534.923	68.6
2538.605	60.6
2542.283	60.6
2545.958	70.6
2549.63	70.6
2553.299	58.6
2556.964	60.6
2560.626	62.6
2564.285	65.6
2567.941	64.6
2571.594	57.6
2575.243	58.6
2578.89	61.6
2582.533	57.6
2586.173	53.6
2589.809	58.6
2593.443	55.6
2597.073	58.6
2600.701	66.6
2604.325	50.6
2607.946	45.6
2611.564	52.6
2615.178	52.6
2618.79	51.6
2622.398	51.6
2626.004	49.6
2629.606	47.6
2633.205	51.6
2636.801	42.6
2640.394	55.6
2643.983	51.6
2647.57	50.6
2651.153	49.6
2654.734	46.6
2658.311	46.6
2661.885	49.6
2665.456	47.6
2669.025	47.6
2672.589	44.6
2676.151	42.6
2679.71	40.6
2683.266	45.6
2686.819	49.6
2690.368	42.6
2693.915	43.6
2697.458	38.6
2700.999	45.6
2704.536	39.6
2708.071	42.6
2711.602	34.6
2715.13	35.6
2718.656	36.6
2722.178	36.6
2725.697	28.6
2729.214	35.6
2732.727	33.6
2736.237	39.6
2739.744	28.6
2743.249	31.6
2746.75	29.6
2750.248	27.6
2753.743	25.6
2757.236	23.6
2760.725	22.6
2764.211	20.6
2767.695	18.6
2771.175	17.6
2774.652	21.6
2778.127	21.6
2781.598	14.6
2785.067	19.6
2788.532	17.6
2791.995	22.6
2795.455	22.6
2798.911	17.6
2802.365	23.6
2805.816	21.6
2809.264	22.6
2812.709	18.6
2816.151	25.6
2819.59	36.6
2823.026	24.6
2826.46	30.6
2829.89	24.6
2833.318	26.6
2836.742	33.6
2840.164	26.6
2843.583	27.6
2846.999	32.6
2850.412	30.6
2853.822	38.6
2857.229	37.6
2860.634	34.6
2864.035	36.6
2867.434	38.6
2870.83	42.6
2874.223	50.6
2877.613	56.6
2881	53.6
2884.385	64.6
2887.766	67.6
2891.145	65.6
2894.521	70.6
2897.894	63.6
2901.264	65.6
2904.631	59.6
2907.996	63.6
2911.358	71.6
2914.717	62.6
2918.073	66.6
2921.426	65.6
2924.777	73.6
2928.124	73.6
2931.469	85.6
2934.811	98.6
2938.15	110.6
2941.487	103.6
2944.821	98.6
2948.152	91.6
2951.48	83.6
2954.805	82.6
2958.128	70.6
2961.447	74.6
2964.765	62.6
2968.079	64.6
2971.39	62.6
2974.699	69.6
2978.005	68.6
2981.308	57.6
2984.609	56.6
2987.907	58.6
2991.202	60.6
2994.494	56.6
2997.784	56.6
3001.07	52.6
3004.355	55.6
3007.636	53.6
3010.915	56.6
3014.191	46.6
3017.464	46.6
3020.734	55.6
3024.002	56.6
3027.267	58.6
3030.53	52.6
3033.789	57.6
3037.046	51.6
3040.301	53.6
3043.552	59.6
3046.801	61.6
3050.048	56.6
3053.291	58.6
3056.532	66.6
3059.771	66.6
3063.006	72.6
3066.239	73.6
3069.469	81.6
3072.697	82.6
3075.922	94.6
3079.144	83.6
3082.364	89.6
3085.581	91.6
3088.795	98.6
3092.007	91.6
3095.216	98.6
3098.423	95.6
3101.627	95.6
3104.828	108.6
3108.026	100.6
3111.222	103.6
3114.416	113.6
3117.607	108.6
3120.795	108.6
3123.98	109.6
3127.163	127.6
3130.344	132.6
3133.521	126.6
3136.696	131.6
3139.869	137.6
3143.039	140.6
3146.206	140.6
3149.371	141.6
3152.533	147.6
3155.693	147.6
3158.85	141.6
3162.005	138.6
3165.157	141.6
3168.306	141.6
3171.453	146.6
3174.597	138.6
3177.739	145.6
3180.878	151.6
3184.014	149.6
3187.149	151.6
3190.28	144.6
3193.409	151.6
3196.536	150.6
3199.659	155.6
3202.781	155.6
3205.9	142.6
3209.016	139.6
3212.13	145.6
3215.241	150.6
3218.35	141.6
3221.456	137.6
3224.56	129.6
3227.661	124.6
3230.76	132.6
3233.856	134.6
3236.95	127.6
3240.041	123.6
3243.13	126.6
3246.216	111.6
3249.3	113.6
3252.382	116.6
3255.46	112.6
3258.537	104.6
3261.611	106.6
3264.682	110.6
3267.751	112.6
3270.818	95.6
3273.882	100.6
3276.943	103.6
3280.002	103.6
3283.059	99.6
3286.113	100.6
3289.165	95.6
3292.214	97.6
3295.261	95.6
3298.306	95.6
3301.348	101.6
3304.387	88.6
3307.425	95.6
3310.459	97.6
3313.492	96.6
3316.521	91.6
3319.549	106.6
3322.574	93.6
3325.597	89.6
3328.617	89.6
3331.635	94.6
3334.65	104.6
3337.663	89.6
3340.674	93.6
3343.682	93.6
3346.688	90.6
3349.691	89.6
3352.692	81.6
3355.691	99.6
3358.687	96.6
3361.681	94.6
3364.673	95.6
3367.662	88.6
3370.649	93.6
3373.633	91.6
3376.615	84.6
3379.595	79.6
3382.572	83.6
3385.547	81.6
3388.52	75.6
3391.49	71.6
3394.458	68.6
3397.424	71.6
3400.387	77.6
3403.348	63.6
3406.307	61.6
3409.263	62.6
3412.217	65.6
3415.168	66.6
3418.118	55.6
3421.065	55.6
3424.009	61.6
3426.951	60.6
3429.891	57.6
3432.829	53.6
3435.764	57.6
3438.697	50.6
3441.628	37.6
3444.557	45.6
3447.483	40.6
3450.407	30.6
3453.328	38.6
3456.247	34.6
3459.164	34.6
3462.079	18.6
3464.991	23.6
3467.902	18.6
3470.809	22.6
3473.715	21.6
3476.618	19.6
3479.519	9.6
3482.418	12.6
3485.315	9.6
3488.209	1.6
3491.101	-0.4
3493.99	8.6
3496.878	3.6
3499.763	-2.4
3502.646	3.6
3505.527	-0.4
3508.405	-6.4
3511.281	-5.4
3514.155	-8.4
3517.027	-14.4
3519.897	-6.4
3522.764	-13.4
3525.629	-9.4
3528.492	-15.4
3531.352	-18.4
3534.211	-20.4
3537.067	-20.4
3539.921	-20.4
3542.773	-21.4
3545.622	-24.4
3548.469	-24.4
3551.315	-28.4
3554.157	-27.4
3556.998	-24.4
3559.837	-29.4
3562.673	-30.4
3565.507	-31.4
3568.339	-24.4
3571.169	-30.4
3573.996	-28.4
3576.822	-41.4
3579.645	-30.4
3582.466	-37.4
3585.285	-35.4
3588.101	-38.4
3590.916	-33.4
3593.728	-39.4
3596.538	-42.4
3599.346	-38.4
3602.152	-35.4
3604.956	-37.4
3607.757	-31.4
3610.556	-36.4
3613.354	-46.4
3616.149	-43.4
3618.942	-41.4
3621.732	-42.4
3624.521	-38.4
3627.307	-43.4
3630.092	-37.4
3632.874	-45.4
3635.654	-47.4
3638.432	-42.4
3641.208	-43.4
3643.982	-46.4
3646.753	-47.4
3649.523	-40.4
3652.29	-44.4
3655.055	-50.4
3657.818	-49.4
3660.579	-47.4
3663.338	-48.4
3666.095	-46.4
3668.849	-50.4
3671.602	-52.4
3674.352	-44.4
3677.101	-45.4
3679.847	-45.4
3682.591	-54.4
3685.333	-46.4
3688.073	-56.4
3690.811	-49.4
3693.547	-50.4
3696.281	-51.4
3699.013	-48.4
3701.742	-52.4
3704.47	-48.4
3707.195	-54.4
3709.919	-55.4
3712.64	-52.4
3715.359	-51.4
3718.076	-54.4
3720.792	-54.4
3723.505	-55.4
3726.216	-54.4
3728.925	-56.4
3731.632	-46.4
3734.336	-51.4
3737.039	-50.4
3739.74	-55.4
3742.439	-57.4
3745.136	-58.4
3747.83	-56.4
3750.523	-60.4
3753.213	-67.4
3755.902	-58.4
3758.589	-51.4
3761.273	-53.4
3763.956	-55.4
3766.636	-49.4
3769.315	-53.4
3771.991	-58.4
3774.665	-62.4
3777.338	-52.4
3780.008	-54.4
3782.677	-58.4
3785.343	-56.4
3788.007	-56.4
3790.67	-56.4
3793.33	-58.4
3795.989	-58.4
3798.645	-60.4
3801.299	-56.4
3803.952	-57.4
3806.602	-55.4
3809.251	-61.4
3811.897	-61.4
3814.542	-57.4
3817.184	-58.4
3819.825	-53.4
3822.463	-57.4
3825.1	-52.4
3827.735	-60.4
3830.367	-60.4
3832.998	-59.4
3835.627	-53.4
3838.253	-49.4
3840.878	-52.4
3843.501	-50.4
3846.122	-54.4
3848.741	-52.4
3851.358	-55.4
3853.973	-56.4
3856.586	-53.4
3859.197	-54.4
3861.806	-61.4
3864.414	-52.4
3867.019	-51.4
3869.622	-51.4
3872.224	-49.4
3874.823	-40.4
3877.421	-28.4
3880.016	-28.4
3882.61	-7.4
3885.202	-8.4
3887.792	-10.4
3890.38	-27.4
3892.966	-40.4
3895.55	-52.4
3898.132	-56.4
3900.713	-65.4
3903.291	-61.4
3905.868	-58.4
3908.442	-56.4
3911.015	-53.4
3913.586	-60.4
3916.155	-58.4
3918.722	-62.4
3921.287	-59.4
3923.85	-51.4
3926.411	-60.4
3928.971	-63.4
3931.528	-62.4
3934.084	-51.4
3936.638	-59.4
3939.19	-67.4
3941.74	-58.4
3944.288	-57.4
3946.834	-58.4
3949.378	-60.4
3951.921	-58.4
3954.462	-58.4
3957	-45.4
3959.537	-50.4
3962.072	-53.4
3964.606	-56.4
3967.137	-58.4
3969.667	-60.4
3972.194	-57.4
3974.72	-54.4
3977.244	-46.4
3979.766	-56.4
3982.286	-61.4
3984.805	-64.4
3987.321	-61.4
3989.836	-53.4
3992.349	-55.4
3994.86	-60.4
3997.369	-58.4
3999.877	-53.4
4002.382	-59.4
4004.886	-55.4
4007.388	-61.4
4009.888	-60.4
4012.386	-57.4
4014.883	-54.4
4017.377	-56.4
4019.87	-58.4
4022.361	-59.4
4024.85	-49.4
4027.338	-58.4
4029.823	-61.4
4032.307	-55.4
4034.789	-55.4
4037.269	-61.4
4039.747	-55.4
4042.224	-54.4
4044.699	-60.4
4047.172	-56.4
4049.643	-59.4
4052.112	-59.4
4054.58	-59.4
4057.046	-53.4
4059.51	-59.4
4061.972	-59.4
4064.432	-63.4
4066.891	-53.4
4069.348	-58.4
4071.803	-52.4
4074.256	-60.4
4076.708	-57.4
4079.158	-57.4
4081.606	-49.4
4084.052	-53.4
4086.497	-51.4
4088.939	-53.4
4091.38	-61.4
4093.819	-65.4
4096.257	-61.4
4098.693	-57.4
4101.127	-53.4
4103.559	-61.4
4105.989	18.6
4108.418	17.6
4110.845	4.6
4113.27	14.6
4115.694	7.6
4118.115	16.6
4120.535	-61.4
4122.954	-54.4
4125.37	-58.4
4127.785	-52.4
4130.198	-56.4
4132.609	-57.4
4135.019	-59.4
4137.427	-68.4
4139.833	-59.4
4142.237	-60.4
