Data from 2018-3-7_conc=6_n=2_RamanShift_04.txt Node
Date: Wed Mar 07 13:01:22 IST 2018
User: aro
Spectrometer: QEPB0276
Trigger mode: 0
Integration Time (sec): 3.000000E1
Scans to average: 1
Electric dark correction enabled: true
Nonlinearity correction enabled: false
Boxcar width: 0
XAxis mode: Raman Shifts
Number of Pixels in Spectrum: 1044
>>>>>Begin Spectral Data<<<<<
160.701	3.1
166.742	18.1
172.777	49.1
178.805	160.1
184.826	430.1
190.841	908.1
196.849	1529.1
202.85	2000.1
208.845	2189.1
214.833	2187.1
220.815	2145.1
226.789	2123.1
232.758	2135.1
238.719	2126.1
244.674	2132.1
250.623	2106.1
256.565	2080.1
262.5	2057.1
268.429	2036.1
274.351	2013.1
280.267	2003.1
286.176	1989.1
292.079	1993.1
297.975	1976.1
303.865	1978.1
309.748	1955.1
315.625	1947.1
321.495	1951.1
327.359	1963.1
333.217	1942.1
339.068	1968.1
344.912	1960.1
350.751	1956.1
356.583	1957.1
362.408	1957.1
368.227	1974.1
374.04	1985.1
379.847	1995.1
385.647	1970.1
391.44	1990.1
397.228	1996.1
403.009	1997.1
408.784	2010.1
414.553	2028.1
420.315	2015.1
426.071	2032.1
431.821	2009.1
437.565	2031.1
443.302	2014.1
449.033	2022.1
454.758	2024.1
460.477	2016.1
466.189	2005.1
471.896	1964.1
477.596	1975.1
483.29	1949.1
488.978	1947.1
494.66	1948.1
500.335	1907.1
506.005	1867.1
511.668	1802.1
517.325	1758.1
522.977	1696.1
528.622	1651.1
534.261	1658.1
539.894	1652.1
545.521	1635.1
551.141	1610.1
556.756	1600.1
562.365	1589.1
567.968	1581.1
573.565	1563.1
579.155	1568.1
584.74	1560.1
590.319	1545.1
595.892	1548.1
601.459	1543.1
607.02	1542.1
612.575	1624.1
618.124	1567.1
623.667	1497.1
629.204	1483.1
634.735	1469.1
640.261	1472.1
645.781	1443.1
651.294	1462.1
656.802	1444.1
662.304	1452.1
667.8	1439.1
673.29	1441.1
678.775	1429.1
684.254	1435.1
689.726	1416.1
695.193	1400.1
700.655	1401.1
706.11	1392.1
711.56	1389.1
717.004	1378.1
722.442	1376.1
727.874	1369.1
733.301	1427.1
738.722	1359.1
744.137	1346.1
749.547	1353.1
754.951	1340.1
760.349	1346.1
765.741	1360.1
771.128	1355.1
776.509	1364.1
781.885	1369.1
787.254	1367.1
792.618	1363.1
797.977	1379.1
803.33	1363.1
808.677	1352.1
814.019	1351.1
819.355	1343.1
824.686	1327.1
830.011	1322.1
835.33	1325.1
840.644	1313.1
845.952	1313.1
851.255	1306.1
856.552	1302.1
861.844	1304.1
867.13	1296.1
872.41	1267.1
877.686	1282.1
882.955	1277.1
888.219	1256.1
893.478	1250.1
898.731	1213.1
903.979	1214.1
909.221	1193.1
914.458	1176.1
919.69	1207.1
924.916	1205.1
930.136	1207.1
935.351	1202.1
940.561	1183.1
945.766	1210.1
950.965	1214.1
956.158	1175.1
961.347	1167.1
966.529	1148.1
971.707	1143.1
976.879	1139.1
982.046	1108.1
987.208	1113.1
992.364	1117.1
997.515	1093.1
1002.66	1125.1
1007.801	1127.1
1012.936	1144.1
1018.066	1161.1
1023.19	1149.1
1028.309	1132.1
1033.423	1131.1
1038.532	1143.1
1043.636	1131.1
1048.734	1138.1
1053.827	1102.1
1058.915	1086.1
1063.998	1092.1
1069.075	1079.1
1074.147	1076.1
1079.214	1084.1
1084.276	1088.1
1089.333	1097.1
1094.385	1090.1
1099.431	1085.1
1104.472	1094.1
1109.509	1088.1
1114.54	1068.1
1119.565	1046.1
1124.586	1044.1
1129.602	1038.1
1134.613	1027.1
1139.618	1011.1
1144.619	1007.1
1149.614	1018.1
1154.604	1009.1
1159.589	1032.1
1164.57	1015.1
1169.545	1016.1
1174.515	1021.1
1179.48	1015.1
1184.44	1003.1
1189.395	1008.1
1194.345	983.1
1199.29	983.1
1204.23	993.1
1209.165	981.1
1214.095	987.1
1219.021	993.1
1223.941	998.1
1228.856	1007.1
1233.766	1018.1
1238.672	1016.1
1243.572	1008.1
1248.467	1011.1
1253.358	993.1
1258.244	975.1
1263.124	973.1
1268	948.1
1272.871	936.1
1277.737	918.1
1282.599	934.1
1287.455	931.1
1292.306	924.1
1297.153	942.1
1301.995	936.1
1306.832	945.1
1311.664	950.1
1316.491	945.1
1321.314	953.1
1326.132	934.1
1330.945	937.1
1335.753	910.1
1340.556	885.1
1345.354	876.1
1350.148	865.1
1354.937	841.1
1359.722	809.1
1364.501	787.1
1369.276	771.1
1374.046	774.1
1378.811	745.1
1383.572	763.1
1388.327	741.1
1393.079	757.1
1397.825	760.1
1402.567	759.1
1407.304	772.1
1412.036	765.1
1416.764	769.1
1421.487	785.1
1426.205	781.1
1430.919	770.1
1435.628	782.1
1440.333	801.1
1445.032	779.1
1449.727	805.1
1454.418	805.1
1459.104	807.1
1463.785	786.1
1468.462	761.1
1473.134	753.1
1477.802	724.1
1482.465	717.1
1487.123	704.1
1491.777	679.1
1496.426	677.1
1501.071	662.1
1505.711	665.1
1510.347	646.1
1514.978	638.1
1519.604	636.1
1524.226	641.1
1528.844	642.1
1533.457	630.1
1538.065	615.1
1542.669	629.1
1547.269	628.1
1551.864	623.1
1556.454	644.1
1561.041	652.1
1565.622	670.1
1570.199	662.1
1574.772	658.1
1579.34	683.1
1583.904	701.1
1588.464	697.1
1593.019	694.1
1597.569	698.1
1602.115	704.1
1606.657	700.1
1611.195	701.1
1615.728	706.1
1620.256	691.1
1624.78	693.1
1629.3	699.1
1633.816	696.1
1638.327	704.1
1642.834	699.1
1647.336	693.1
1651.834	684.1
1656.328	682.1
1660.817	694.1
1665.302	672.1
1669.783	653.1
1674.259	648.1
1678.732	636.1
1683.199	602.1
1687.663	586.1
1692.122	555.1
1696.577	522.1
1701.028	496.1
1705.474	472.1
1709.917	453.1
1714.355	449.1
1718.788	443.1
1723.218	451.1
1727.643	456.1
1732.064	440.1
1736.481	450.1
1740.893	441.1
1745.301	437.1
1749.705	423.1
1754.105	413.1
1758.501	399.1
1762.893	404.1
1767.28	395.1
1771.663	387.1
1776.042	389.1
1780.417	370.1
1784.787	370.1
1789.154	357.1
1793.516	344.1
1797.874	330.1
1802.228	332.1
1806.578	334.1
1810.924	322.1
1815.266	324.1
1819.603	326.1
1823.937	333.1
1828.266	329.1
1832.591	346.1
1836.913	344.1
1841.23	345.1
1845.543	342.1
1849.852	356.1
1854.156	345.1
1858.457	348.1
1862.754	354.1
1867.047	347.1
1871.335	350.1
1875.62	337.1
1879.9	342.1
1884.177	336.1
1888.449	330.1
1892.718	331.1
1896.982	324.1
1901.243	311.1
1905.499	310.1
1909.752	300.1
1914	294.1
1918.245	285.1
1922.485	281.1
1926.722	283.1
1930.954	277.1
1935.183	277.1
1939.408	270.1
1943.628	260.1
1947.845	259.1
1952.058	266.1
1956.267	250.1
1960.472	250.1
1964.673	244.1
1968.87	257.1
1973.063	255.1
1977.252	249.1
1981.438	258.1
1985.619	249.1
1989.797	263.1
1993.971	260.1
1998.14	268.1
2002.306	274.1
2006.469	273.1
2010.627	272.1
2014.781	265.1
2018.932	260.1
2023.078	273.1
2027.221	264.1
2031.36	266.1
2035.495	251.1
2039.627	246.1
2043.754	249.1
2047.878	243.1
2051.998	256.1
2056.114	245.1
2060.226	232.1
2064.334	224.1
2068.439	235.1
2072.54	226.1
2076.637	230.1
2080.73	242.1
2084.82	235.1
2088.906	226.1
2092.988	229.1
2097.066	208.1
2101.14	221.1
2105.211	209.1
2109.278	223.1
2113.342	201.1
2117.401	206.1
2121.457	203.1
2125.509	191.1
2129.558	200.1
2133.602	203.1
2137.643	204.1
2141.681	198.1
2145.714	210.1
2149.744	206.1
2153.77	213.1
2157.793	205.1
2161.812	219.1
2165.827	204.1
2169.838	196.1
2173.846	205.1
2177.851	196.1
2181.851	204.1
2185.848	197.1
2189.841	198.1
2193.831	197.1
2197.817	203.1
2201.799	186.1
2205.778	192.1
2209.753	194.1
2213.725	188.1
2217.693	196.1
2221.657	192.1
2225.618	184.1
2229.575	184.1
2233.529	181.1
2237.479	191.1
2241.425	184.1
2245.368	181.1
2249.307	181.1
2253.243	170.1
2257.175	174.1
2261.104	171.1
2265.029	170.1
2268.95	171.1
2272.868	174.1
2276.783	157.1
2280.694	160.1
2284.601	160.1
2288.505	154.1
2292.405	163.1
2296.302	161.1
2300.195	152.1
2304.085	146.1
2307.971	145.1
2311.854	144.1
2315.734	143.1
2319.609	150.1
2323.482	143.1
2327.351	150.1
2331.216	160.1
2335.078	164.1
2338.937	156.1
2342.792	150.1
2346.643	154.1
2350.492	148.1
2354.336	148.1
2358.178	150.1
2362.015	157.1
2365.85	151.1
2369.681	156.1
2373.508	163.1
2377.333	149.1
2381.153	153.1
2384.971	152.1
2388.785	147.1
2392.595	147.1
2396.402	155.1
2400.206	151.1
2404.007	146.1
2407.804	155.1
2411.597	141.1
2415.388	143.1
2419.174	153.1
2422.958	152.1
2426.738	148.1
2430.515	145.1
2434.289	144.1
2438.059	136.1
2441.825	137.1
2445.589	146.1
2449.349	136.1
2453.106	139.1
2456.859	131.1
2460.61	130.1
2464.356	135.1
2468.1	125.1
2471.84	116.1
2475.577	118.1
2479.311	125.1
2483.041	124.1
2486.768	118.1
2490.492	121.1
2494.213	120.1
2497.93	126.1
2501.644	115.1
2505.355	117.1
2509.062	112.1
2512.766	107.1
2516.467	108.1
2520.165	112.1
2523.859	115.1
2527.551	102.1
2531.239	104.1
2534.923	99.1
2538.605	101.1
2542.283	99.1
2545.958	99.1
2549.63	101.1
2553.299	102.1
2556.964	93.1
2560.626	99.1
2564.285	88.1
2567.941	92.1
2571.594	89.1
2575.243	95.1
2578.89	84.1
2582.533	84.1
2586.173	77.1
2589.809	85.1
2593.443	93.1
2597.073	80.1
2600.701	82.1
2604.325	76.1
2607.946	72.1
2611.564	82.1
2615.178	76.1
2618.79	81.1
2622.398	86.1
2626.004	76.1
2629.606	71.1
2633.205	79.1
2636.801	75.1
2640.394	73.1
2643.983	71.1
2647.57	77.1
2651.153	67.1
2654.734	70.1
2658.311	70.1
2661.885	67.1
2665.456	67.1
2669.025	72.1
2672.589	63.1
2676.151	66.1
2679.71	60.1
2683.266	64.1
2686.819	72.1
2690.368	64.1
2693.915	68.1
2697.458	64.1
2700.999	60.1
2704.536	66.1
2708.071	59.1
2711.602	54.1
2715.13	52.1
2718.656	57.1
2722.178	51.1
2725.697	46.1
2729.214	49.1
2732.727	62.1
2736.237	51.1
2739.744	41.1
2743.249	45.1
2746.75	42.1
2750.248	39.1
2753.743	41.1
2757.236	34.1
2760.725	37.1
2764.211	26.1
2767.695	28.1
2771.175	25.1
2774.652	29.1
2778.127	35.1
2781.598	24.1
2785.067	28.1
2788.532	31.1
2791.995	36.1
2795.455	35.1
2798.911	38.1
2802.365	35.1
2805.816	41.1
2809.264	40.1
2812.709	34.1
2816.151	45.1
2819.59	45.1
2823.026	38.1
2826.46	44.1
2829.89	35.1
2833.318	41.1
2836.742	39.1
2840.164	35.1
2843.583	36.1
2846.999	43.1
2850.412	36.1
2853.822	37.1
2857.229	37.1
2860.634	35.1
2864.035	34.1
2867.434	47.1
2870.83	51.1
2874.223	46.1
2877.613	44.1
2881	52.1
2884.385	52.1
2887.766	58.1
2891.145	54.1
2894.521	50.1
2897.894	61.1
2901.264	50.1
2904.631	48.1
2907.996	55.1
2911.358	60.1
2914.717	54.1
2918.073	48.1
2921.426	54.1
2924.777	64.1
2928.124	59.1
2931.469	66.1
2934.811	69.1
2938.15	67.1
2941.487	80.1
2944.821	70.1
2948.152	72.1
2951.48	68.1
2954.805	66.1
2958.128	63.1
2961.447	68.1
2964.765	68.1
2968.079	62.1
2971.39	60.1
2974.699	71.1
2978.005	69.1
2981.308	66.1
2984.609	59.1
2987.907	62.1
2991.202	63.1
2994.494	59.1
2997.784	56.1
3001.07	57.1
3004.355	60.1
3007.636	64.1
3010.915	66.1
3014.191	61.1
3017.464	68.1
3020.734	72.1
3024.002	74.1
3027.267	74.1
3030.53	82.1
3033.789	80.1
3037.046	79.1
3040.301	75.1
3043.552	87.1
3046.801	88.1
3050.048	86.1
3053.291	95.1
3056.532	98.1
3059.771	105.1
3063.006	100.1
3066.239	108.1
3069.469	117.1
3072.697	119.1
3075.922	117.1
3079.144	115.1
3082.364	130.1
3085.581	124.1
3088.795	131.1
3092.007	134.1
3095.216	146.1
3098.423	132.1
3101.627	145.1
3104.828	156.1
3108.026	156.1
3111.222	153.1
3114.416	156.1
3117.607	161.1
3120.795	161.1
3123.98	170.1
3127.163	176.1
3130.344	169.1
3133.521	182.1
3136.696	173.1
3139.869	190.1
3143.039	188.1
3146.206	197.1
3149.371	186.1
3152.533	203.1
3155.693	196.1
3158.85	200.1
3162.005	212.1
3165.157	199.1
3168.306	209.1
3171.453	202.1
3174.597	203.1
3177.739	213.1
3180.878	208.1
3184.014	200.1
3187.149	202.1
3190.28	208.1
3193.409	214.1
3196.536	201.1
3199.659	208.1
3202.781	200.1
3205.9	202.1
3209.016	205.1
3212.13	212.1
3215.241	201.1
3218.35	209.1
3221.456	205.1
3224.56	202.1
3227.661	199.1
3230.76	193.1
3233.856	197.1
3236.95	180.1
3240.041	181.1
3243.13	181.1
3246.216	178.1
3249.3	165.1
3252.382	169.1
3255.46	171.1
3258.537	172.1
3261.611	159.1
3264.682	160.1
3267.751	163.1
3270.818	149.1
3273.882	160.1
3276.943	154.1
3280.002	164.1
3283.059	147.1
3286.113	148.1
3289.165	150.1
3292.214	158.1
3295.261	150.1
3298.306	148.1
3301.348	153.1
3304.387	147.1
3307.425	145.1
3310.459	140.1
3313.492	148.1
3316.521	143.1
3319.549	155.1
3322.574	140.1
3325.597	135.1
3328.617	139.1
3331.635	143.1
3334.65	150.1
3337.663	135.1
3340.674	138.1
3343.682	136.1
3346.688	137.1
3349.691	141.1
3352.692	143.1
3355.691	141.1
3358.687	137.1
3361.681	139.1
3364.673	138.1
3367.662	143.1
3370.649	141.1
3373.633	132.1
3376.615	125.1
3379.595	130.1
3382.572	123.1
3385.547	120.1
3388.52	127.1
3391.49	114.1
3394.458	113.1
3397.424	123.1
3400.387	108.1
3403.348	102.1
3406.307	109.1
3409.263	107.1
3412.217	103.1
3415.168	113.1
3418.118	100.1
3421.065	100.1
3424.009	96.1
3426.951	95.1
3429.891	88.1
3432.829	93.1
3435.764	96.1
3438.697	90.1
3441.628	72.1
3444.557	80.1
3447.483	79.1
3450.407	69.1
3453.328	72.1
3456.247	68.1
3459.164	62.1
3462.079	54.1
3464.991	54.1
3467.902	45.1
3470.809	45.1
3473.715	45.1
3476.618	39.1
3479.519	39.1
3482.418	29.1
3485.315	28.1
3488.209	30.1
3491.101	27.1
3493.99	32.1
3496.878	24.1
3499.763	15.1
3502.646	25.1
3505.527	12.1
3508.405	18.1
3511.281	15.1
3514.155	10.1
3517.027	3.1
3519.897	7.1
3522.764	4.1
3525.629	6.1
3528.492	2.1
3531.352	-6.9
3534.211	-1.9
3537.067	-6.9
3539.921	-5.9
3542.773	-11.9
3545.622	-9.9
3548.469	-10.9
3551.315	-9.9
3554.157	-10.9
3556.998	-18.9
3559.837	-15.9
3562.673	-18.9
3565.507	-17.9
3568.339	-12.9
3571.169	-23.9
3573.996	-18.9
3576.822	-24.9
3579.645	-24.9
3582.466	-25.9
3585.285	-29.9
3588.101	-29.9
3590.916	-20.9
3593.728	-31.9
3596.538	-32.9
3599.346	-34.9
3602.152	-35.9
3604.956	-30.9
3607.757	-26.9
3610.556	-28.9
3613.354	-39.9
3616.149	-37.9
3618.942	-33.9
3621.732	-40.9
3624.521	-36.9
3627.307	-37.9
3630.092	-33.9
3632.874	-38.9
3635.654	-42.9
3638.432	-38.9
3641.208	-36.9
3643.982	-34.9
3646.753	-46.9
3649.523	-41.9
3652.29	-44.9
3655.055	-38.9
3657.818	-46.9
3660.579	-44.9
3663.338	-46.9
3666.095	-49.9
3668.849	-44.9
3671.602	-43.9
3674.352	-41.9
3677.101	-44.9
3679.847	-43.9
3682.591	-47.9
3685.333	-44.9
3688.073	-50.9
3690.811	-41.9
3693.547	-47.9
3696.281	-46.9
3699.013	-44.9
3701.742	-49.9
3704.47	-46.9
3707.195	-46.9
3709.919	-50.9
3712.64	-49.9
3715.359	-47.9
3718.076	-52.9
3720.792	-50.9
3723.505	-52.9
3726.216	-51.9
3728.925	-57.9
3731.632	-50.9
3734.336	-58.9
3737.039	-48.9
3739.74	-52.9
3742.439	-57.9
3745.136	-51.9
3747.83	-50.9
3750.523	-58.9
3753.213	-55.9
3755.902	-49.9
3758.589	-48.9
3761.273	-51.9
3763.956	-56.9
3766.636	-51.9
3769.315	-51.9
3771.991	-54.9
3774.665	-56.9
3777.338	-55.9
3780.008	-57.9
3782.677	-57.9
3785.343	-56.9
3788.007	-58.9
3790.67	-57.9
3793.33	-58.9
3795.989	-59.9
3798.645	-57.9
3801.299	-53.9
3803.952	-56.9
3806.602	-61.9
3809.251	-57.9
3811.897	-56.9
3814.542	-61.9
3817.184	-54.9
3819.825	-50.9
3822.463	-50.9
3825.1	-50.9
3827.735	-60.9
3830.367	-52.9
3832.998	-56.9
3835.627	-55.9
3838.253	-54.9
3840.878	-50.9
3843.501	-51.9
3846.122	-58.9
3848.741	-58.9
3851.358	-55.9
3853.973	-52.9
3856.586	-51.9
3859.197	-57.9
3861.806	-53.9
3864.414	-56.9
3867.019	-58.9
3869.622	-48.9
3872.224	-48.9
3874.823	-35.9
3877.421	-30.9
3880.016	-23.9
3882.61	-11.9
3885.202	-5.9
3887.792	-12.9
3890.38	-31.9
3892.966	-41.9
3895.55	-51.9
3898.132	-53.9
3900.713	-55.9
3903.291	-61.9
3905.868	-53.9
3908.442	-59.9
3911.015	-56.9
3913.586	-60.9
3916.155	-55.9
3918.722	-58.9
3921.287	-57.9
3923.85	-48.9
3926.411	-55.9
3928.971	-60.9
3931.528	-56.9
3934.084	-51.9
3936.638	-53.9
3939.19	-60.9
3941.74	-53.9
3944.288	-60.9
3946.834	-57.9
3949.378	-56.9
3951.921	-55.9
3954.462	-57.9
3957	-51.9
3959.537	-50.9
3962.072	-56.9
3964.606	-54.9
3967.137	-56.9
3969.667	-60.9
3972.194	-56.9
3974.72	-55.9
3977.244	-52.9
3979.766	-59.9
3982.286	-60.9
3984.805	-59.9
3987.321	-54.9
3989.836	-49.9
3992.349	-58.9
3994.86	-55.9
3997.369	-55.9
3999.877	-51.9
4002.382	-53.9
4004.886	-52.9
4007.388	-56.9
4009.888	-54.9
4012.386	-58.9
4014.883	-51.9
4017.377	-50.9
4019.87	-53.9
4022.361	-58.9
4024.85	-57.9
4027.338	-60.9
4029.823	-57.9
4032.307	-62.9
4034.789	-53.9
4037.269	-54.9
4039.747	-54.9
4042.224	-52.9
4044.699	-56.9
4047.172	-57.9
4049.643	-56.9
4052.112	-55.9
4054.58	-51.9
4057.046	-53.9
4059.51	-57.9
4061.972	-57.9
4064.432	-55.9
4066.891	-50.9
4069.348	-51.9
4071.803	-50.9
4074.256	-55.9
4076.708	-55.9
4079.158	-64.9
4081.606	-56.9
4084.052	-62.9
4086.497	-49.9
4088.939	-54.9
4091.38	-65.9
4093.819	-62.9
4096.257	-54.9
4098.693	-57.9
4101.127	-53.9
4103.559	-62.9
4105.989	-4.9
4108.418	-8.9
4110.845	-9.9
4113.27	-9.9
4115.694	1.1
4118.115	-1.9
4120.535	-57.9
4122.954	-53.9
4125.37	-55.9
4127.785	-55.9
4130.198	-55.9
4132.609	-53.9
4135.019	-58.9
4137.427	-58.9
4139.833	-56.9
4142.237	-55.9
