Data from 2018-3-7_conc=6_n=7_RamanShift_04.txt Node
Date: Wed Mar 07 13:17:51 IST 2018
User: aro
Spectrometer: QEPB0276
Trigger mode: 0
Integration Time (sec): 3.000000E1
Scans to average: 1
Electric dark correction enabled: true
Nonlinearity correction enabled: false
Boxcar width: 0
XAxis mode: Raman Shifts
Number of Pixels in Spectrum: 1044
>>>>>Begin Spectral Data<<<<<
160.701	6.8
166.742	18.8
172.777	45.8
178.805	145.8
184.826	392.8
190.841	818.8
196.849	1400.8
202.85	1813.8
208.845	1998.8
214.833	1998.8
220.815	1965.8
226.789	1966.8
232.758	1969.8
238.719	1964.8
244.674	1948.8
250.623	1930.8
256.565	1903.8
262.5	1873.8
268.429	1873.8
274.351	1854.8
280.267	1815.8
286.176	1817.8
292.079	1824.8
297.975	1818.8
303.865	1823.8
309.748	1798.8
315.625	1800.8
321.495	1794.8
327.359	1806.8
333.217	1790.8
339.068	1803.8
344.912	1793.8
350.751	1799.8
356.583	1785.8
362.408	1809.8
368.227	1797.8
374.04	1824.8
379.847	1829.8
385.647	1805.8
391.44	1837.8
397.228	1829.8
403.009	1859.8
408.784	1855.8
414.553	1869.8
420.315	1860.8
426.071	1870.8
431.821	1866.8
437.565	1865.8
443.302	1848.8
449.033	1833.8
454.758	1866.8
460.477	1821.8
466.189	1812.8
471.896	1818.8
477.596	1800.8
483.29	1797.8
488.978	1780.8
494.66	1801.8
500.335	1755.8
506.005	1724.8
511.668	1664.8
517.325	1596.8
522.977	1572.8
528.622	1516.8
534.261	1510.8
539.894	1488.8
545.521	1491.8
551.141	1462.8
556.756	1458.8
562.365	1451.8
567.968	1436.8
573.565	1420.8
579.155	1426.8
584.74	1427.8
590.319	1399.8
595.892	1416.8
601.459	1398.8
607.02	1392.8
612.575	1387.8
618.124	1382.8
623.667	1346.8
629.204	1350.8
634.735	1321.8
640.261	1339.8
645.781	1322.8
651.294	1339.8
656.802	1313.8
662.304	1310.8
667.8	1322.8
673.29	1320.8
678.775	1301.8
684.254	1315.8
689.726	1301.8
695.193	1282.8
700.655	1280.8
706.11	1272.8
711.56	1268.8
717.004	1259.8
722.442	1250.8
727.874	1232.8
733.301	1244.8
738.722	1231.8
744.137	1231.8
749.547	1238.8
754.951	1220.8
760.349	1240.8
765.741	1229.8
771.128	1241.8
776.509	1236.8
781.885	1261.8
787.254	1266.8
792.618	1259.8
797.977	1258.8
803.33	1242.8
808.677	1232.8
814.019	1227.8
819.355	1218.8
824.686	1213.8
830.011	1199.8
835.33	1192.8
840.644	1203.8
845.952	1205.8
851.255	1173.8
856.552	1193.8
861.844	1189.8
867.13	1180.8
872.41	1165.8
877.686	1149.8
882.955	1152.8
888.219	1139.8
893.478	1134.8
898.731	1110.8
903.979	1100.8
909.221	1089.8
914.458	1078.8
919.69	1088.8
924.916	1083.8
930.136	1090.8
935.351	1089.8
940.561	1091.8
945.766	1096.8
950.965	1078.8
956.158	1078.8
961.347	1070.8
966.529	1060.8
971.707	1033.8
976.879	1018.8
982.046	1025.8
987.208	1005.8
992.364	995.8
997.515	1005.8
1002.66	1017.8
1007.801	1033.8
1012.936	1031.8
1018.066	1055.8
1023.19	1041.8
1028.309	1036.8
1033.423	1048.8
1038.532	1030.8
1043.636	1023.8
1048.734	1033.8
1053.827	988.8
1058.915	988.8
1063.998	983.8
1069.075	984.8
1074.147	979.8
1079.214	983.8
1084.276	988.8
1089.333	990.8
1094.385	988.8
1099.431	996.8
1104.472	986.8
1109.509	981.8
1114.54	973.8
1119.565	953.8
1124.586	944.8
1129.602	928.8
1134.613	922.8
1139.618	925.8
1144.619	923.8
1149.614	929.8
1154.604	910.8
1159.589	919.8
1164.57	931.8
1169.545	935.8
1174.515	941.8
1179.48	926.8
1184.44	927.8
1189.395	912.8
1194.345	904.8
1199.29	886.8
1204.23	895.8
1209.165	902.8
1214.095	909.8
1219.021	914.8
1223.941	918.8
1228.856	923.8
1233.766	919.8
1238.672	941.8
1243.572	924.8
1248.467	921.8
1253.358	900.8
1258.244	894.8
1263.124	865.8
1268	870.8
1272.871	849.8
1277.737	850.8
1282.599	843.8
1287.455	837.8
1292.306	849.8
1297.153	843.8
1301.995	854.8
1306.832	856.8
1311.664	866.8
1316.491	860.8
1321.314	840.8
1326.132	846.8
1330.945	842.8
1335.753	824.8
1340.556	804.8
1345.354	800.8
1350.148	775.8
1354.937	762.8
1359.722	738.8
1364.501	729.8
1369.276	723.8
1374.046	703.8
1378.811	701.8
1383.572	699.8
1388.327	699.8
1393.079	702.8
1397.825	696.8
1402.567	704.8
1407.304	698.8
1412.036	699.8
1416.764	700.8
1421.487	699.8
1426.205	705.8
1430.919	710.8
1435.628	716.8
1440.333	724.8
1445.032	724.8
1449.727	747.8
1454.418	729.8
1459.104	727.8
1463.785	717.8
1468.462	702.8
1473.134	689.8
1477.802	670.8
1482.465	650.8
1487.123	645.8
1491.777	637.8
1496.426	625.8
1501.071	621.8
1505.711	603.8
1510.347	602.8
1514.978	593.8
1519.604	597.8
1524.226	593.8
1528.844	592.8
1533.457	581.8
1538.065	579.8
1542.669	580.8
1547.269	565.8
1551.864	579.8
1556.454	599.8
1561.041	593.8
1565.622	613.8
1570.199	597.8
1574.772	605.8
1579.34	628.8
1583.904	620.8
1588.464	643.8
1593.019	642.8
1597.569	645.8
1602.115	646.8
1606.657	648.8
1611.195	645.8
1615.728	642.8
1620.256	632.8
1624.78	630.8
1629.3	640.8
1633.816	637.8
1638.327	638.8
1642.834	634.8
1647.336	636.8
1651.834	648.8
1656.328	651.8
1660.817	627.8
1665.302	628.8
1669.783	609.8
1674.259	604.8
1678.732	582.8
1683.199	564.8
1687.663	546.8
1692.122	511.8
1696.577	495.8
1701.028	470.8
1705.474	442.8
1709.917	435.8
1714.355	419.8
1718.788	416.8
1723.218	423.8
1727.643	425.8
1732.064	434.8
1736.481	422.8
1740.893	411.8
1745.301	394.8
1749.705	403.8
1754.105	389.8
1758.501	371.8
1762.893	372.8
1767.28	368.8
1771.663	365.8
1776.042	354.8
1780.417	340.8
1784.787	349.8
1789.154	337.8
1793.516	320.8
1797.874	309.8
1802.228	325.8
1806.578	312.8
1810.924	307.8
1815.266	305.8
1819.603	310.8
1823.937	310.8
1828.266	304.8
1832.591	316.8
1836.913	318.8
1841.23	329.8
1845.543	314.8
1849.852	320.8
1854.156	333.8
1858.457	325.8
1862.754	330.8
1867.047	329.8
1871.335	324.8
1875.62	321.8
1879.9	318.8
1884.177	305.8
1888.449	307.8
1892.718	307.8
1896.982	306.8
1901.243	288.8
1905.499	289.8
1909.752	284.8
1914	274.8
1918.245	280.8
1922.485	272.8
1926.722	267.8
1930.954	264.8
1935.183	265.8
1939.408	254.8
1943.628	251.8
1947.845	246.8
1952.058	248.8
1956.267	237.8
1960.472	246.8
1964.673	235.8
1968.87	238.8
1973.063	240.8
1977.252	237.8
1981.438	239.8
1985.619	244.8
1989.797	243.8
1993.971	251.8
1998.14	248.8
2002.306	255.8
2006.469	253.8
2010.627	249.8
2014.781	242.8
2018.932	247.8
2023.078	251.8
2027.221	243.8
2031.36	243.8
2035.495	238.8
2039.627	227.8
2043.754	232.8
2047.878	231.8
2051.998	239.8
2056.114	225.8
2060.226	235.8
2064.334	226.8
2068.439	206.8
2072.54	220.8
2076.637	219.8
2080.73	216.8
2084.82	216.8
2088.906	213.8
2092.988	207.8
2097.066	208.8
2101.14	204.8
2105.211	202.8
2109.278	198.8
2113.342	194.8
2117.401	190.8
2121.457	192.8
2125.509	195.8
2129.558	192.8
2133.602	190.8
2137.643	191.8
2141.681	185.8
2145.714	199.8
2149.744	193.8
2153.77	195.8
2157.793	193.8
2161.812	195.8
2165.827	197.8
2169.838	186.8
2173.846	188.8
2177.851	184.8
2181.851	186.8
2185.848	186.8
2189.841	177.8
2193.831	178.8
2197.817	184.8
2201.799	188.8
2205.778	189.8
2209.753	179.8
2213.725	175.8
2217.693	187.8
2221.657	174.8
2225.618	175.8
2229.575	179.8
2233.529	174.8
2237.479	176.8
2241.425	173.8
2245.368	170.8
2249.307	168.8
2253.243	160.8
2257.175	168.8
2261.104	159.8
2265.029	162.8
2268.95	155.8
2272.868	160.8
2276.783	148.8
2280.694	146.8
2284.601	139.8
2288.505	147.8
2292.405	147.8
2296.302	159.8
2300.195	151.8
2304.085	147.8
2307.971	141.8
2311.854	123.8
2315.734	136.8
2319.609	143.8
2323.482	142.8
2327.351	138.8
2331.216	146.8
2335.078	146.8
2338.937	141.8
2342.792	135.8
2346.643	145.8
2350.492	131.8
2354.336	135.8
2358.178	135.8
2362.015	142.8
2365.85	137.8
2369.681	145.8
2373.508	142.8
2377.333	145.8
2381.153	142.8
2384.971	143.8
2388.785	137.8
2392.595	141.8
2396.402	146.8
2400.206	143.8
2404.007	130.8
2407.804	139.8
2411.597	132.8
2415.388	131.8
2419.174	137.8
2422.958	132.8
2426.738	134.8
2430.515	129.8
2434.289	139.8
2438.059	125.8
2441.825	125.8
2445.589	129.8
2449.349	123.8
2453.106	131.8
2456.859	128.8
2460.61	129.8
2464.356	121.8
2468.1	121.8
2471.84	122.8
2475.577	118.8
2479.311	111.8
2483.041	116.8
2486.768	116.8
2490.492	115.8
2494.213	115.8
2497.93	113.8
2501.644	117.8
2505.355	99.8
2509.062	107.8
2512.766	109.8
2516.467	100.8
2520.165	104.8
2523.859	105.8
2527.551	99.8
2531.239	98.8
2534.923	96.8
2538.605	97.8
2542.283	90.8
2545.958	91.8
2549.63	93.8
2553.299	91.8
2556.964	85.8
2560.626	88.8
2564.285	83.8
2567.941	85.8
2571.594	76.8
2575.243	83.8
2578.89	80.8
2582.533	82.8
2586.173	74.8
2589.809	81.8
2593.443	81.8
2597.073	80.8
2600.701	81.8
2604.325	70.8
2607.946	71.8
2611.564	79.8
2615.178	79.8
2618.79	72.8
2622.398	79.8
2626.004	72.8
2629.606	72.8
2633.205	70.8
2636.801	67.8
2640.394	76.8
2643.983	72.8
2647.57	65.8
2651.153	67.8
2654.734	65.8
2658.311	67.8
2661.885	66.8
2665.456	70.8
2669.025	73.8
2672.589	63.8
2676.151	68.8
2679.71	62.8
2683.266	59.8
2686.819	60.8
2690.368	58.8
2693.915	63.8
2697.458	57.8
2700.999	60.8
2704.536	62.8
2708.071	63.8
2711.602	54.8
2715.13	45.8
2718.656	50.8
2722.178	50.8
2725.697	43.8
2729.214	41.8
2732.727	60.8
2736.237	45.8
2739.744	45.8
2743.249	44.8
2746.75	42.8
2750.248	41.8
2753.743	36.8
2757.236	35.8
2760.725	39.8
2764.211	35.8
2767.695	32.8
2771.175	37.8
2774.652	35.8
2778.127	33.8
2781.598	32.8
2785.067	34.8
2788.532	29.8
2791.995	38.8
2795.455	35.8
2798.911	30.8
2802.365	37.8
2805.816	35.8
2809.264	32.8
2812.709	29.8
2816.151	35.8
2819.59	39.8
2823.026	38.8
2826.46	35.8
2829.89	35.8
2833.318	38.8
2836.742	40.8
2840.164	36.8
2843.583	35.8
2846.999	41.8
2850.412	37.8
2853.822	36.8
2857.229	39.8
2860.634	39.8
2864.035	36.8
2867.434	37.8
2870.83	46.8
2874.223	39.8
2877.613	40.8
2881	43.8
2884.385	48.8
2887.766	47.8
2891.145	51.8
2894.521	48.8
2897.894	49.8
2901.264	46.8
2904.631	45.8
2907.996	56.8
2911.358	54.8
2914.717	54.8
2918.073	57.8
2921.426	55.8
2924.777	60.8
2928.124	59.8
2931.469	60.8
2934.811	66.8
2938.15	65.8
2941.487	68.8
2944.821	64.8
2948.152	69.8
2951.48	62.8
2954.805	61.8
2958.128	61.8
2961.447	60.8
2964.765	60.8
2968.079	55.8
2971.39	57.8
2974.699	56.8
2978.005	61.8
2981.308	58.8
2984.609	58.8
2987.907	58.8
2991.202	56.8
2994.494	55.8
2997.784	52.8
3001.07	62.8
3004.355	58.8
3007.636	61.8
3010.915	65.8
3014.191	57.8
3017.464	57.8
3020.734	63.8
3024.002	66.8
3027.267	67.8
3030.53	70.8
3033.789	71.8
3037.046	69.8
3040.301	70.8
3043.552	72.8
3046.801	78.8
3050.048	78.8
3053.291	82.8
3056.532	95.8
3059.771	93.8
3063.006	95.8
3066.239	100.8
3069.469	110.8
3072.697	98.8
3075.922	115.8
3079.144	113.8
3082.364	112.8
3085.581	118.8
3088.795	128.8
3092.007	122.8
3095.216	132.8
3098.423	124.8
3101.627	124.8
3104.828	134.8
3108.026	135.8
3111.222	143.8
3114.416	143.8
3117.607	148.8
3120.795	141.8
3123.98	153.8
3127.163	155.8
3130.344	158.8
3133.521	161.8
3136.696	165.8
3139.869	169.8
3143.039	173.8
3146.206	181.8
3149.371	183.8
3152.533	191.8
3155.693	188.8
3158.85	200.8
3162.005	186.8
3165.157	187.8
3168.306	183.8
3171.453	184.8
3174.597	184.8
3177.739	189.8
3180.878	189.8
3184.014	187.8
3187.149	188.8
3190.28	186.8
3193.409	192.8
3196.536	187.8
3199.659	206.8
3202.781	191.8
3205.9	194.8
3209.016	193.8
3212.13	188.8
3215.241	189.8
3218.35	189.8
3221.456	181.8
3224.56	177.8
3227.661	175.8
3230.76	169.8
3233.856	175.8
3236.95	165.8
3240.041	175.8
3243.13	166.8
3246.216	164.8
3249.3	150.8
3252.382	153.8
3255.46	158.8
3258.537	155.8
3261.611	151.8
3264.682	147.8
3267.751	151.8
3270.818	147.8
3273.882	142.8
3276.943	141.8
3280.002	150.8
3283.059	147.8
3286.113	137.8
3289.165	139.8
3292.214	141.8
3295.261	135.8
3298.306	137.8
3301.348	135.8
3304.387	136.8
3307.425	130.8
3310.459	122.8
3313.492	133.8
3316.521	129.8
3319.549	134.8
3322.574	123.8
3325.597	124.8
3328.617	127.8
3331.635	128.8
3334.65	128.8
3337.663	121.8
3340.674	129.8
3343.682	125.8
3346.688	120.8
3349.691	134.8
3352.692	135.8
3355.691	141.8
3358.687	124.8
3361.681	126.8
3364.673	121.8
3367.662	129.8
3370.649	123.8
3373.633	123.8
3376.615	121.8
3379.595	116.8
3382.572	113.8
3385.547	111.8
3388.52	108.8
3391.49	104.8
3394.458	105.8
3397.424	110.8
3400.387	109.8
3403.348	96.8
3406.307	91.8
3409.263	97.8
3412.217	95.8
3415.168	101.8
3418.118	91.8
3421.065	84.8
3424.009	87.8
3426.951	89.8
3429.891	86.8
3432.829	80.8
3435.764	90.8
3438.697	83.8
3441.628	71.8
3444.557	73.8
3447.483	76.8
3450.407	66.8
3453.328	64.8
3456.247	54.8
3459.164	54.8
3462.079	50.8
3464.991	47.8
3467.902	50.8
3470.809	46.8
3473.715	40.8
3476.618	41.8
3479.519	35.8
3482.418	30.8
3485.315	35.8
3488.209	27.8
3491.101	23.8
3493.99	34.8
3496.878	18.8
3499.763	19.8
3502.646	13.8
3505.527	18.8
3508.405	10.8
3511.281	17.8
3514.155	10.8
3517.027	7.8
3519.897	11.8
3522.764	3.8
3525.629	3.8
3528.492	1.8
3531.352	-2.2
3534.211	-6.2
3537.067	-4.2
3539.921	-7.2
3542.773	-12.2
3545.622	-8.2
3548.469	-3.2
3551.315	-4.2
3554.157	-9.2
3556.998	-11.2
3559.837	-14.2
3562.673	-17.2
3565.507	-13.2
3568.339	-12.2
3571.169	-16.2
3573.996	-18.2
3576.822	-22.2
3579.645	-21.2
3582.466	-20.2
3585.285	-23.2
3588.101	-25.2
3590.916	-23.2
3593.728	-32.2
3596.538	-30.2
3599.346	-30.2
3602.152	-34.2
3604.956	-22.2
3607.757	-22.2
3610.556	-27.2
3613.354	-37.2
3616.149	-31.2
3618.942	-28.2
3621.732	-29.2
3624.521	-31.2
3627.307	-29.2
3630.092	-31.2
3632.874	-38.2
3635.654	-36.2
3638.432	-33.2
3641.208	-34.2
3643.982	-33.2
3646.753	-42.2
3649.523	-36.2
3652.29	-42.2
3655.055	-34.2
3657.818	-41.2
3660.579	-44.2
3663.338	-34.2
3666.095	-44.2
3668.849	-40.2
3671.602	-40.2
3674.352	-29.2
3677.101	-39.2
3679.847	-41.2
3682.591	-45.2
3685.333	-42.2
3688.073	-44.2
3690.811	-43.2
3693.547	-45.2
3696.281	-45.2
3699.013	-43.2
3701.742	-48.2
3704.47	-44.2
3707.195	-44.2
3709.919	-46.2
3712.64	-47.2
3715.359	-45.2
3718.076	-46.2
3720.792	-41.2
3723.505	-44.2
3726.216	-44.2
3728.925	-44.2
3731.632	-43.2
3734.336	-46.2
3737.039	-45.2
3739.74	-50.2
3742.439	-54.2
3745.136	-44.2
3747.83	-51.2
3750.523	-50.2
3753.213	-48.2
3755.902	-53.2
3758.589	-51.2
3761.273	-49.2
3763.956	-54.2
3766.636	-44.2
3769.315	-43.2
3771.991	-46.2
3774.665	-52.2
3777.338	-54.2
3780.008	-48.2
3782.677	-50.2
3785.343	-46.2
3788.007	-53.2
3790.67	-49.2
3793.33	-47.2
3795.989	-46.2
3798.645	-50.2
3801.299	-51.2
3803.952	-52.2
3806.602	-49.2
3809.251	-53.2
3811.897	-54.2
3814.542	-55.2
3817.184	-51.2
3819.825	-46.2
3822.463	-47.2
3825.1	-45.2
3827.735	-50.2
3830.367	-51.2
3832.998	-52.2
3835.627	-52.2
3838.253	-47.2
3840.878	-42.2
3843.501	-42.2
3846.122	-51.2
3848.741	-49.2
3851.358	-48.2
3853.973	-51.2
3856.586	-49.2
3859.197	-48.2
3861.806	-54.2
3864.414	-49.2
3867.019	-53.2
3869.622	-42.2
3872.224	-43.2
3874.823	-31.2
3877.421	-26.2
3880.016	-17.2
3882.61	-6.2
3885.202	-5.2
3887.792	-8.2
3890.38	-21.2
3892.966	-41.2
3895.55	-46.2
3898.132	-47.2
3900.713	-46.2
3903.291	-53.2
3905.868	-43.2
3908.442	-53.2
3911.015	-47.2
3913.586	-55.2
3916.155	-52.2
3918.722	-55.2
3921.287	-51.2
3923.85	-49.2
3926.411	-53.2
3928.971	-60.2
3931.528	-58.2
3934.084	-53.2
3936.638	-48.2
3939.19	-55.2
3941.74	-46.2
3944.288	-51.2
3946.834	-51.2
3949.378	-47.2
3951.921	-55.2
3954.462	-51.2
3957	-38.2
3959.537	-36.2
3962.072	-46.2
3964.606	-50.2
3967.137	-50.2
3969.667	-49.2
3972.194	-52.2
3974.72	-49.2
3977.244	-51.2
3979.766	-55.2
3982.286	-51.2
3984.805	-57.2
3987.321	-46.2
3989.836	-50.2
3992.349	-49.2
3994.86	-53.2
3997.369	-48.2
3999.877	-47.2
4002.382	-47.2
4004.886	-48.2
4007.388	-50.2
4009.888	-49.2
4012.386	-53.2
4014.883	-46.2
4017.377	-47.2
4019.87	-49.2
4022.361	-55.2
4024.85	-51.2
4027.338	-57.2
4029.823	-52.2
4032.307	-52.2
4034.789	-50.2
4037.269	-53.2
4039.747	-55.2
4042.224	-55.2
4044.699	-52.2
4047.172	-53.2
4049.643	-46.2
4052.112	-53.2
4054.58	-49.2
4057.046	-46.2
4059.51	-53.2
4061.972	-54.2
4064.432	-52.2
4066.891	-49.2
4069.348	-46.2
4071.803	-46.2
4074.256	-50.2
4076.708	-53.2
4079.158	-55.2
4081.606	-53.2
4084.052	-53.2
4086.497	-50.2
4088.939	-52.2
4091.38	-59.2
4093.819	-48.2
4096.257	-56.2
4098.693	-57.2
4101.127	-48.2
4103.559	-56.2
4105.989	0.8
4108.418	-2.2
4110.845	-8.2
4113.27	-6.2
4115.694	7.8
4118.115	5.8
4120.535	-53.2
4122.954	-55.2
4125.37	-49.2
4127.785	-44.2
4130.198	-50.2
4132.609	-48.2
4135.019	-51.2
4137.427	-59.2
4139.833	-51.2
4142.237	-55.2
