Data from 2018-3-7_conc=4_n=5_RamanShift_03.txt Node
Date: Wed Mar 07 12:02:22 IST 2018
User: aro
Spectrometer: QEPB0276
Trigger mode: 0
Integration Time (sec): 3.000000E1
Scans to average: 1
Electric dark correction enabled: true
Nonlinearity correction enabled: false
Boxcar width: 0
XAxis mode: Raman Shifts
Number of Pixels in Spectrum: 1044
>>>>>Begin Spectral Data<<<<<
160.701	13.8
166.742	20.8
172.777	48.8
178.805	137.8
184.826	350.8
190.841	758.8
196.849	1249.8
202.85	1636.8
208.845	1790.8
214.833	1801.8
220.815	1786.8
226.789	1780.8
232.758	1786.8
238.719	1798.8
244.674	1781.8
250.623	1755.8
256.565	1738.8
262.5	1711.8
268.429	1706.8
274.351	1694.8
280.267	1677.8
286.176	1684.8
292.079	1670.8
297.975	1682.8
303.865	1699.8
309.748	1679.8
315.625	1661.8
321.495	1666.8
327.359	1682.8
333.217	1658.8
339.068	1693.8
344.912	1695.8
350.751	1702.8
356.583	1689.8
362.408	1696.8
368.227	1706.8
374.04	1704.8
379.847	1698.8
385.647	1709.8
391.44	1727.8
397.228	1734.8
403.009	1748.8
408.784	1737.8
414.553	1748.8
420.315	1755.8
426.071	1738.8
431.821	1760.8
437.565	1768.8
443.302	1751.8
449.033	1743.8
454.758	1757.8
460.477	1737.8
466.189	1731.8
471.896	1703.8
477.596	1692.8
483.29	1700.8
488.978	1659.8
494.66	1663.8
500.335	1635.8
506.005	1590.8
511.668	1538.8
517.325	1475.8
522.977	1422.8
528.622	1382.8
534.261	1368.8
539.894	1333.8
545.521	1340.8
551.141	1325.8
556.756	1300.8
562.365	1296.8
567.968	1293.8
573.565	1286.8
579.155	1273.8
584.74	1283.8
590.319	1260.8
595.892	1264.8
601.459	1242.8
607.02	1265.8
612.575	1256.8
618.124	1240.8
623.667	1235.8
629.204	1200.8
634.735	1194.8
640.261	1201.8
645.781	1187.8
651.294	1185.8
656.802	1177.8
662.304	1171.8
667.8	1174.8
673.29	1170.8
678.775	1172.8
684.254	1160.8
689.726	1160.8
695.193	1150.8
700.655	1143.8
706.11	1132.8
711.56	1137.8
717.004	1113.8
722.442	1126.8
727.874	1099.8
733.301	1111.8
738.722	1107.8
744.137	1093.8
749.547	1093.8
754.951	1089.8
760.349	1091.8
765.741	1104.8
771.128	1100.8
776.509	1109.8
781.885	1126.8
787.254	1140.8
792.618	1138.8
797.977	1128.8
803.33	1118.8
808.677	1105.8
814.019	1109.8
819.355	1090.8
824.686	1077.8
830.011	1073.8
835.33	1093.8
840.644	1066.8
845.952	1089.8
851.255	1064.8
856.552	1073.8
861.844	1053.8
867.13	1041.8
872.41	1043.8
877.686	1024.8
882.955	1042.8
888.219	1024.8
893.478	1008.8
898.731	982.8
903.979	971.8
909.221	970.8
914.458	959.8
919.69	962.8
924.916	959.8
930.136	984.8
935.351	975.8
940.561	982.8
945.766	968.8
950.965	962.8
956.158	955.8
961.347	955.8
966.529	928.8
971.707	912.8
976.879	909.8
982.046	913.8
987.208	900.8
992.364	896.8
997.515	885.8
1002.66	901.8
1007.801	918.8
1012.936	925.8
1018.066	923.8
1023.19	929.8
1028.309	919.8
1033.423	919.8
1038.532	911.8
1043.636	911.8
1048.734	897.8
1053.827	888.8
1058.915	889.8
1063.998	874.8
1069.075	865.8
1074.147	872.8
1079.214	878.8
1084.276	884.8
1089.333	886.8
1094.385	874.8
1099.431	867.8
1104.472	876.8
1109.509	871.8
1114.54	861.8
1119.565	865.8
1124.586	843.8
1129.602	827.8
1134.613	831.8
1139.618	818.8
1144.619	809.8
1149.614	821.8
1154.604	817.8
1159.589	827.8
1164.57	823.8
1169.545	831.8
1174.515	820.8
1179.48	816.8
1184.44	795.8
1189.395	831.8
1194.345	792.8
1199.29	773.8
1204.23	795.8
1209.165	796.8
1214.095	810.8
1219.021	813.8
1223.941	812.8
1228.856	807.8
1233.766	824.8
1238.672	829.8
1243.572	820.8
1248.467	818.8
1253.358	812.8
1258.244	775.8
1263.124	769.8
1268	758.8
1272.871	746.8
1277.737	745.8
1282.599	747.8
1287.455	737.8
1292.306	761.8
1297.153	740.8
1301.995	748.8
1306.832	767.8
1311.664	782.8
1316.491	761.8
1321.314	769.8
1326.132	755.8
1330.945	738.8
1335.753	718.8
1340.556	716.8
1345.354	698.8
1350.148	691.8
1354.937	659.8
1359.722	645.8
1364.501	640.8
1369.276	618.8
1374.046	622.8
1378.811	616.8
1383.572	621.8
1388.327	621.8
1393.079	614.8
1397.825	626.8
1402.567	627.8
1407.304	615.8
1412.036	633.8
1416.764	627.8
1421.487	625.8
1426.205	630.8
1430.919	627.8
1435.628	628.8
1440.333	629.8
1445.032	621.8
1449.727	651.8
1454.418	641.8
1459.104	641.8
1463.785	615.8
1468.462	618.8
1473.134	608.8
1477.802	591.8
1482.465	574.8
1487.123	564.8
1491.777	550.8
1496.426	562.8
1501.071	537.8
1505.711	536.8
1510.347	520.8
1514.978	518.8
1519.604	508.8
1524.226	515.8
1528.844	513.8
1533.457	516.8
1538.065	514.8
1542.669	506.8
1547.269	511.8
1551.864	518.8
1556.454	526.8
1561.041	536.8
1565.622	546.8
1570.199	543.8
1574.772	546.8
1579.34	562.8
1583.904	566.8
1588.464	560.8
1593.019	559.8
1597.569	570.8
1602.115	564.8
1606.657	567.8
1611.195	565.8
1615.728	557.8
1620.256	561.8
1624.78	562.8
1629.3	554.8
1633.816	562.8
1638.327	564.8
1642.834	546.8
1647.336	560.8
1651.834	560.8
1656.328	565.8
1660.817	556.8
1665.302	548.8
1669.783	534.8
1674.259	522.8
1678.732	511.8
1683.199	485.8
1687.663	470.8
1692.122	448.8
1696.577	422.8
1701.028	404.8
1705.474	388.8
1709.917	386.8
1714.355	381.8
1718.788	377.8
1723.218	376.8
1727.643	375.8
1732.064	368.8
1736.481	375.8
1740.893	355.8
1745.301	349.8
1749.705	348.8
1754.105	336.8
1758.501	334.8
1762.893	334.8
1767.28	315.8
1771.663	315.8
1776.042	320.8
1780.417	298.8
1784.787	301.8
1789.154	296.8
1793.516	282.8
1797.874	280.8
1802.228	281.8
1806.578	279.8
1810.924	272.8
1815.266	271.8
1819.603	269.8
1823.937	282.8
1828.266	276.8
1832.591	282.8
1836.913	277.8
1841.23	278.8
1845.543	277.8
1849.852	287.8
1854.156	293.8
1858.457	287.8
1862.754	283.8
1867.047	290.8
1871.335	279.8
1875.62	287.8
1879.9	286.8
1884.177	267.8
1888.449	273.8
1892.718	272.8
1896.982	265.8
1901.243	256.8
1905.499	255.8
1909.752	248.8
1914	245.8
1918.245	234.8
1922.485	230.8
1926.722	230.8
1930.954	228.8
1935.183	226.8
1939.408	233.8
1943.628	228.8
1947.845	225.8
1952.058	219.8
1956.267	215.8
1960.472	226.8
1964.673	213.8
1968.87	216.8
1973.063	212.8
1977.252	218.8
1981.438	220.8
1985.619	207.8
1989.797	208.8
1993.971	221.8
1998.14	222.8
2002.306	212.8
2006.469	231.8
2010.627	212.8
2014.781	221.8
2018.932	213.8
2023.078	217.8
2027.221	219.8
2031.36	216.8
2035.495	216.8
2039.627	203.8
2043.754	205.8
2047.878	199.8
2051.998	202.8
2056.114	200.8
2060.226	192.8
2064.334	188.8
2068.439	185.8
2072.54	188.8
2076.637	190.8
2080.73	190.8
2084.82	183.8
2088.906	178.8
2092.988	177.8
2097.066	183.8
2101.14	182.8
2105.211	176.8
2109.278	172.8
2113.342	167.8
2117.401	170.8
2121.457	165.8
2125.509	164.8
2129.558	170.8
2133.602	176.8
2137.643	163.8
2141.681	163.8
2145.714	169.8
2149.744	162.8
2153.77	156.8
2157.793	170.8
2161.812	170.8
2165.827	163.8
2169.838	156.8
2173.846	153.8
2177.851	161.8
2181.851	166.8
2185.848	159.8
2189.841	153.8
2193.831	152.8
2197.817	148.8
2201.799	147.8
2205.778	151.8
2209.753	152.8
2213.725	141.8
2217.693	148.8
2221.657	144.8
2225.618	149.8
2229.575	150.8
2233.529	146.8
2237.479	156.8
2241.425	138.8
2245.368	140.8
2249.307	141.8
2253.243	143.8
2257.175	138.8
2261.104	133.8
2265.029	129.8
2268.95	135.8
2272.868	140.8
2276.783	126.8
2280.694	124.8
2284.601	119.8
2288.505	128.8
2292.405	125.8
2296.302	122.8
2300.195	127.8
2304.085	118.8
2307.971	117.8
2311.854	121.8
2315.734	114.8
2319.609	118.8
2323.482	119.8
2327.351	118.8
2331.216	130.8
2335.078	141.8
2338.937	132.8
2342.792	117.8
2346.643	116.8
2350.492	118.8
2354.336	116.8
2358.178	107.8
2362.015	118.8
2365.85	109.8
2369.681	116.8
2373.508	112.8
2377.333	121.8
2381.153	117.8
2384.971	114.8
2388.785	113.8
2392.595	112.8
2396.402	114.8
2400.206	112.8
2404.007	114.8
2407.804	107.8
2411.597	113.8
2415.388	109.8
2419.174	126.8
2422.958	107.8
2426.738	115.8
2430.515	108.8
2434.289	109.8
2438.059	100.8
2441.825	95.8
2445.589	100.8
2449.349	100.8
2453.106	104.8
2456.859	94.8
2460.61	95.8
2464.356	97.8
2468.1	91.8
2471.84	96.8
2475.577	89.8
2479.311	92.8
2483.041	92.8
2486.768	88.8
2490.492	98.8
2494.213	88.8
2497.93	91.8
2501.644	94.8
2505.355	83.8
2509.062	82.8
2512.766	84.8
2516.467	84.8
2520.165	74.8
2523.859	82.8
2527.551	75.8
2531.239	73.8
2534.923	73.8
2538.605	72.8
2542.283	74.8
2545.958	72.8
2549.63	71.8
2553.299	70.8
2556.964	68.8
2560.626	67.8
2564.285	74.8
2567.941	66.8
2571.594	68.8
2575.243	63.8
2578.89	64.8
2582.533	57.8
2586.173	60.8
2589.809	56.8
2593.443	66.8
2597.073	58.8
2600.701	63.8
2604.325	54.8
2607.946	49.8
2611.564	59.8
2615.178	59.8
2618.79	59.8
2622.398	61.8
2626.004	52.8
2629.606	57.8
2633.205	58.8
2636.801	55.8
2640.394	52.8
2643.983	49.8
2647.57	51.8
2651.153	47.8
2654.734	47.8
2658.311	54.8
2661.885	54.8
2665.456	52.8
2669.025	48.8
2672.589	47.8
2676.151	47.8
2679.71	40.8
2683.266	43.8
2686.819	54.8
2690.368	43.8
2693.915	44.8
2697.458	34.8
2700.999	45.8
2704.536	45.8
2708.071	35.8
2711.602	42.8
2715.13	24.8
2718.656	34.8
2722.178	30.8
2725.697	33.8
2729.214	28.8
2732.727	36.8
2736.237	35.8
2739.744	24.8
2743.249	35.8
2746.75	28.8
2750.248	23.8
2753.743	26.8
2757.236	20.8
2760.725	29.8
2764.211	18.8
2767.695	18.8
2771.175	22.8
2774.652	19.8
2778.127	23.8
2781.598	15.8
2785.067	19.8
2788.532	18.8
2791.995	22.8
2795.455	17.8
2798.911	21.8
2802.365	29.8
2805.816	23.8
2809.264	29.8
2812.709	20.8
2816.151	24.8
2819.59	29.8
2823.026	23.8
2826.46	23.8
2829.89	24.8
2833.318	17.8
2836.742	28.8
2840.164	22.8
2843.583	19.8
2846.999	25.8
2850.412	25.8
2853.822	21.8
2857.229	29.8
2860.634	18.8
2864.035	26.8
2867.434	28.8
2870.83	33.8
2874.223	30.8
2877.613	36.8
2881	35.8
2884.385	33.8
2887.766	35.8
2891.145	30.8
2894.521	33.8
2897.894	38.8
2901.264	38.8
2904.631	22.8
2907.996	31.8
2911.358	35.8
2914.717	37.8
2918.073	35.8
2921.426	32.8
2924.777	46.8
2928.124	44.8
2931.469	46.8
2934.811	51.8
2938.15	50.8
2941.487	55.8
2944.821	51.8
2948.152	48.8
2951.48	47.8
2954.805	47.8
2958.128	41.8
2961.447	40.8
2964.765	44.8
2968.079	42.8
2971.39	44.8
2974.699	36.8
2978.005	43.8
2981.308	39.8
2984.609	43.8
2987.907	41.8
2991.202	40.8
2994.494	42.8
2997.784	37.8
3001.07	39.8
3004.355	45.8
3007.636	44.8
3010.915	43.8
3014.191	39.8
3017.464	40.8
3020.734	49.8
3024.002	54.8
3027.267	49.8
3030.53	47.8
3033.789	55.8
3037.046	52.8
3040.301	51.8
3043.552	56.8
3046.801	60.8
3050.048	67.8
3053.291	66.8
3056.532	66.8
3059.771	66.8
3063.006	73.8
3066.239	77.8
3069.469	79.8
3072.697	76.8
3075.922	84.8
3079.144	88.8
3082.364	89.8
3085.581	86.8
3088.795	94.8
3092.007	100.8
3095.216	102.8
3098.423	93.8
3101.627	95.8
3104.828	110.8
3108.026	108.8
3111.222	100.8
3114.416	113.8
3117.607	123.8
3120.795	120.8
3123.98	116.8
3127.163	138.8
3130.344	125.8
3133.521	125.8
3136.696	130.8
3139.869	143.8
3143.039	139.8
3146.206	144.8
3149.371	148.8
3152.533	147.8
3155.693	150.8
3158.85	152.8
3162.005	145.8
3165.157	142.8
3168.306	146.8
3171.453	143.8
3174.597	146.8
3177.739	154.8
3180.878	150.8
3184.014	149.8
3187.149	148.8
3190.28	141.8
3193.409	154.8
3196.536	148.8
3199.659	155.8
3202.781	151.8
3205.9	147.8
3209.016	150.8
3212.13	151.8
3215.241	149.8
3218.35	155.8
3221.456	148.8
3224.56	142.8
3227.661	141.8
3230.76	138.8
3233.856	137.8
3236.95	127.8
3240.041	120.8
3243.13	131.8
3246.216	123.8
3249.3	120.8
3252.382	124.8
3255.46	131.8
3258.537	123.8
3261.611	115.8
3264.682	118.8
3267.751	116.8
3270.818	110.8
3273.882	109.8
3276.943	107.8
3280.002	118.8
3283.059	110.8
3286.113	103.8
3289.165	109.8
3292.214	104.8
3295.261	103.8
3298.306	107.8
3301.348	105.8
3304.387	100.8
3307.425	103.8
3310.459	92.8
3313.492	101.8
3316.521	102.8
3319.549	106.8
3322.574	92.8
3325.597	97.8
3328.617	96.8
3331.635	102.8
3334.65	104.8
3337.663	98.8
3340.674	91.8
3343.682	96.8
3346.688	95.8
3349.691	104.8
3352.692	98.8
3355.691	103.8
3358.687	99.8
3361.681	102.8
3364.673	97.8
3367.662	95.8
3370.649	96.8
3373.633	91.8
3376.615	90.8
3379.595	86.8
3382.572	80.8
3385.547	83.8
3388.52	83.8
3391.49	74.8
3394.458	68.8
3397.424	78.8
3400.387	77.8
3403.348	65.8
3406.307	66.8
3409.263	77.8
3412.217	74.8
3415.168	81.8
3418.118	71.8
3421.065	67.8
3424.009	64.8
3426.951	66.8
3429.891	63.8
3432.829	60.8
3435.764	62.8
3438.697	57.8
3441.628	42.8
3444.557	49.8
3447.483	53.8
3450.407	40.8
3453.328	41.8
3456.247	40.8
3459.164	36.8
3462.079	29.8
3464.991	38.8
3467.902	32.8
3470.809	29.8
3473.715	28.8
3476.618	22.8
3479.519	17.8
3482.418	17.8
3485.315	18.8
3488.209	11.8
3491.101	14.8
3493.99	16.8
3496.878	0.8
3499.763	0.8
3502.646	4.8
3505.527	1.8
3508.405	0.8
3511.281	-0.2
3514.155	-6.2
3517.027	-9.2
3519.897	0.8
3522.764	-1.2
3525.629	0.8
3528.492	-10.2
3531.352	-7.2
3534.211	-15.2
3537.067	-12.2
3539.921	-12.2
3542.773	-22.2
3545.622	-15.2
3548.469	-14.2
3551.315	-18.2
3554.157	-20.2
3556.998	-23.2
3559.837	-28.2
3562.673	-25.2
3565.507	-20.2
3568.339	-19.2
3571.169	-31.2
3573.996	-25.2
3576.822	-33.2
3579.645	-30.2
3582.466	-31.2
3585.285	-31.2
3588.101	-32.2
3590.916	-26.2
3593.728	-37.2
3596.538	-33.2
3599.346	-32.2
3602.152	-32.2
3604.956	-30.2
3607.757	-29.2
3610.556	-31.2
3613.354	-42.2
3616.149	-42.2
3618.942	-38.2
3621.732	-37.2
3624.521	-40.2
3627.307	-37.2
3630.092	-38.2
3632.874	-44.2
3635.654	-40.2
3638.432	-39.2
3641.208	-40.2
3643.982	-38.2
3646.753	-40.2
3649.523	-41.2
3652.29	-45.2
3655.055	-45.2
3657.818	-49.2
3660.579	-49.2
3663.338	-39.2
3666.095	-47.2
3668.849	-52.2
3671.602	-50.2
3674.352	-40.2
3677.101	-46.2
3679.847	-45.2
3682.591	-50.2
3685.333	-42.2
3688.073	-56.2
3690.811	-40.2
3693.547	-50.2
3696.281	-45.2
3699.013	-45.2
3701.742	-49.2
3704.47	-47.2
3707.195	-44.2
3709.919	-51.2
3712.64	-51.2
3715.359	-49.2
3718.076	-55.2
3720.792	-51.2
3723.505	-51.2
3726.216	-49.2
3728.925	-54.2
3731.632	-47.2
3734.336	-53.2
3737.039	-50.2
3739.74	-50.2
3742.439	-59.2
3745.136	-51.2
3747.83	-44.2
3750.523	-57.2
3753.213	-61.2
3755.902	-55.2
3758.589	-51.2
3761.273	-53.2
3763.956	-54.2
3766.636	-52.2
3769.315	-50.2
3771.991	-51.2
3774.665	-57.2
3777.338	-55.2
3780.008	-54.2
3782.677	-57.2
3785.343	-56.2
3788.007	-51.2
3790.67	-50.2
3793.33	-46.2
3795.989	-54.2
3798.645	-55.2
3801.299	-49.2
3803.952	-55.2
3806.602	-60.2
3809.251	-57.2
3811.897	-56.2
3814.542	-62.2
3817.184	-58.2
3819.825	-51.2
3822.463	-55.2
3825.1	-52.2
3827.735	-61.2
3830.367	-59.2
3832.998	-54.2
3835.627	-53.2
3838.253	-50.2
3840.878	-47.2
3843.501	-49.2
3846.122	-54.2
3848.741	-52.2
3851.358	-49.2
3853.973	-52.2
3856.586	-52.2
3859.197	-52.2
3861.806	-58.2
3864.414	-54.2
3867.019	-53.2
3869.622	-51.2
3872.224	-48.2
3874.823	-38.2
3877.421	-38.2
3880.016	-26.2
3882.61	-7.2
3885.202	-9.2
3887.792	-11.2
3890.38	-24.2
3892.966	-40.2
3895.55	-50.2
3898.132	-51.2
3900.713	-55.2
3903.291	-56.2
3905.868	-52.2
3908.442	-54.2
3911.015	-56.2
3913.586	-59.2
3916.155	-57.2
3918.722	-54.2
3921.287	-54.2
3923.85	-50.2
3926.411	-59.2
3928.971	-61.2
3931.528	-58.2
3934.084	-53.2
3936.638	-51.2
3939.19	-57.2
3941.74	-54.2
3944.288	-52.2
3946.834	-54.2
3949.378	-56.2
3951.921	-60.2
3954.462	-59.2
3957	-50.2
3959.537	-48.2
3962.072	-49.2
3964.606	-52.2
3967.137	-56.2
3969.667	-56.2
3972.194	-53.2
3974.72	-50.2
3977.244	-50.2
3979.766	-57.2
3982.286	-53.2
3984.805	-61.2
3987.321	-52.2
3989.836	-54.2
3992.349	-54.2
3994.86	-51.2
3997.369	-61.2
3999.877	-54.2
4002.382	-56.2
4004.886	-54.2
4007.388	-61.2
4009.888	-55.2
4012.386	-60.2
4014.883	-50.2
4017.377	-52.2
4019.87	-49.2
4022.361	-59.2
4024.85	-51.2
4027.338	-52.2
4029.823	-53.2
4032.307	-56.2
4034.789	-49.2
4037.269	-52.2
4039.747	-53.2
4042.224	-54.2
4044.699	-63.2
4047.172	-56.2
4049.643	-58.2
4052.112	-57.2
4054.58	-57.2
4057.046	-51.2
4059.51	-59.2
4061.972	-57.2
4064.432	-50.2
4066.891	-52.2
4069.348	-52.2
4071.803	-45.2
4074.256	-51.2
4076.708	-54.2
4079.158	-57.2
4081.606	-53.2
4084.052	-56.2
4086.497	-49.2
4088.939	-56.2
4091.38	-60.2
4093.819	-62.2
4096.257	-58.2
4098.693	-58.2
4101.127	-50.2
4103.559	-60.2
4105.989	16.8
4108.418	10.8
4110.845	4.8
4113.27	5.8
4115.694	6.8
4118.115	6.8
4120.535	-54.2
4122.954	-50.2
4125.37	-51.2
4127.785	-49.2
4130.198	-56.2
4132.609	-55.2
4135.019	-57.2
4137.427	-54.2
4139.833	-55.2
4142.237	-54.2
