Data from 2018-3-7_conc=4_n=4_RamanShift_02.txt Node
Date: Wed Mar 07 11:58:22 IST 2018
User: aro
Spectrometer: QEPB0276
Trigger mode: 0
Integration Time (sec): 3.000000E1
Scans to average: 1
Electric dark correction enabled: true
Nonlinearity correction enabled: false
Boxcar width: 0
XAxis mode: Raman Shifts
Number of Pixels in Spectrum: 1044
>>>>>Begin Spectral Data<<<<<
160.701	12.5
166.742	22.5
172.777	48.5
178.805	139.5
184.826	352.5
190.841	756.5
196.849	1237.5
202.85	1605.5
208.845	1778.5
214.833	1764.5
220.815	1749.5
226.789	1726.5
232.758	1728.5
238.719	1745.5
244.674	1734.5
250.623	1735.5
256.565	1717.5
262.5	1673.5
268.429	1674.5
274.351	1658.5
280.267	1643.5
286.176	1645.5
292.079	1644.5
297.975	1640.5
303.865	1650.5
309.748	1637.5
315.625	1621.5
321.495	1622.5
327.359	1629.5
333.217	1637.5
339.068	1641.5
344.912	1644.5
350.751	1642.5
356.583	1630.5
362.408	1652.5
368.227	1661.5
374.04	1661.5
379.847	1661.5
385.647	1668.5
391.44	1706.5
397.228	1677.5
403.009	1693.5
408.784	1709.5
414.553	1734.5
420.315	1715.5
426.071	1730.5
431.821	1706.5
437.565	1722.5
443.302	1721.5
449.033	1715.5
454.758	1689.5
460.477	1697.5
466.189	1673.5
471.896	1673.5
477.596	1659.5
483.29	1630.5
488.978	1646.5
494.66	1644.5
500.335	1609.5
506.005	1548.5
511.668	1484.5
517.325	1430.5
522.977	1390.5
528.622	1362.5
534.261	1338.5
539.894	1306.5
545.521	1303.5
551.141	1288.5
556.756	1277.5
562.365	1264.5
567.968	1255.5
573.565	1247.5
579.155	1241.5
584.74	1241.5
590.319	1232.5
595.892	1236.5
601.459	1216.5
607.02	1235.5
612.575	1221.5
618.124	1190.5
623.667	1186.5
629.204	1175.5
634.735	1169.5
640.261	1152.5
645.781	1146.5
651.294	1160.5
656.802	1137.5
662.304	1137.5
667.8	1139.5
673.29	1127.5
678.775	1126.5
684.254	1139.5
689.726	1112.5
695.193	1118.5
700.655	1117.5
706.11	1109.5
711.56	1097.5
717.004	1080.5
722.442	1058.5
727.874	1068.5
733.301	1066.5
738.722	1075.5
744.137	1063.5
749.547	1073.5
754.951	1047.5
760.349	1058.5
765.741	1080.5
771.128	1062.5
776.509	1088.5
781.885	1099.5
787.254	1094.5
792.618	1096.5
797.977	1082.5
803.33	1077.5
808.677	1072.5
814.019	1054.5
819.355	1058.5
824.686	1028.5
830.011	1027.5
835.33	1043.5
840.644	1034.5
845.952	1036.5
851.255	1012.5
856.552	1036.5
861.844	1020.5
867.13	1011.5
872.41	1006.5
877.686	1001.5
882.955	986.5
888.219	990.5
893.478	972.5
898.731	951.5
903.979	939.5
909.221	930.5
914.458	928.5
919.69	928.5
924.916	927.5
930.136	926.5
935.351	940.5
940.561	931.5
945.766	929.5
950.965	922.5
956.158	921.5
961.347	902.5
966.529	901.5
971.707	882.5
976.879	870.5
982.046	865.5
987.208	862.5
992.364	857.5
997.515	860.5
1002.66	866.5
1007.801	886.5
1012.936	884.5
1018.066	897.5
1023.19	888.5
1028.309	893.5
1033.423	873.5
1038.532	878.5
1043.636	877.5
1048.734	868.5
1053.827	854.5
1058.915	856.5
1063.998	827.5
1069.075	837.5
1074.147	850.5
1079.214	833.5
1084.276	850.5
1089.333	846.5
1094.385	857.5
1099.431	843.5
1104.472	846.5
1109.509	835.5
1114.54	821.5
1119.565	818.5
1124.586	802.5
1129.602	780.5
1134.613	783.5
1139.618	778.5
1144.619	780.5
1149.614	786.5
1154.604	791.5
1159.589	790.5
1164.57	811.5
1169.545	786.5
1174.515	802.5
1179.48	784.5
1184.44	787.5
1189.395	766.5
1194.345	767.5
1199.29	745.5
1204.23	755.5
1209.165	758.5
1214.095	772.5
1219.021	769.5
1223.941	773.5
1228.856	777.5
1233.766	790.5
1238.672	785.5
1243.572	775.5
1248.467	776.5
1253.358	767.5
1258.244	758.5
1263.124	736.5
1268	728.5
1272.871	711.5
1277.737	705.5
1282.599	707.5
1287.455	710.5
1292.306	704.5
1297.153	715.5
1301.995	707.5
1306.832	717.5
1311.664	730.5
1316.491	728.5
1321.314	719.5
1326.132	720.5
1330.945	699.5
1335.753	686.5
1340.556	673.5
1345.354	670.5
1350.148	659.5
1354.937	637.5
1359.722	619.5
1364.501	617.5
1369.276	600.5
1374.046	586.5
1378.811	582.5
1383.572	588.5
1388.327	592.5
1393.079	578.5
1397.825	587.5
1402.567	593.5
1407.304	599.5
1412.036	608.5
1416.764	580.5
1421.487	586.5
1426.205	584.5
1430.919	591.5
1435.628	600.5
1440.333	603.5
1445.032	605.5
1449.727	614.5
1454.418	612.5
1459.104	602.5
1463.785	588.5
1468.462	583.5
1473.134	566.5
1477.802	561.5
1482.465	536.5
1487.123	533.5
1491.777	525.5
1496.426	521.5
1501.071	516.5
1505.711	505.5
1510.347	506.5
1514.978	508.5
1519.604	495.5
1524.226	486.5
1528.844	505.5
1533.457	485.5
1538.065	483.5
1542.669	493.5
1547.269	481.5
1551.864	483.5
1556.454	502.5
1561.041	508.5
1565.622	513.5
1570.199	522.5
1574.772	517.5
1579.34	530.5
1583.904	529.5
1588.464	532.5
1593.019	536.5
1597.569	535.5
1602.115	528.5
1606.657	543.5
1611.195	527.5
1615.728	523.5
1620.256	513.5
1624.78	516.5
1629.3	531.5
1633.816	528.5
1638.327	538.5
1642.834	535.5
1647.336	521.5
1651.834	530.5
1656.328	528.5
1660.817	534.5
1665.302	524.5
1669.783	516.5
1674.259	485.5
1678.732	487.5
1683.199	458.5
1687.663	446.5
1692.122	428.5
1696.577	410.5
1701.028	393.5
1705.474	377.5
1709.917	359.5
1714.355	363.5
1718.788	352.5
1723.218	352.5
1727.643	348.5
1732.064	357.5
1736.481	361.5
1740.893	350.5
1745.301	344.5
1749.705	346.5
1754.105	325.5
1758.501	316.5
1762.893	319.5
1767.28	298.5
1771.663	301.5
1776.042	299.5
1780.417	285.5
1784.787	293.5
1789.154	285.5
1793.516	273.5
1797.874	268.5
1802.228	277.5
1806.578	272.5
1810.924	266.5
1815.266	267.5
1819.603	267.5
1823.937	261.5
1828.266	259.5
1832.591	264.5
1836.913	261.5
1841.23	269.5
1845.543	267.5
1849.852	263.5
1854.156	271.5
1858.457	264.5
1862.754	272.5
1867.047	264.5
1871.335	269.5
1875.62	263.5
1879.9	266.5
1884.177	258.5
1888.449	273.5
1892.718	258.5
1896.982	253.5
1901.243	238.5
1905.499	240.5
1909.752	230.5
1914	231.5
1918.245	234.5
1922.485	223.5
1926.722	222.5
1930.954	219.5
1935.183	220.5
1939.408	218.5
1943.628	218.5
1947.845	215.5
1952.058	217.5
1956.267	210.5
1960.472	203.5
1964.673	203.5
1968.87	204.5
1973.063	203.5
1977.252	197.5
1981.438	203.5
1985.619	198.5
1989.797	202.5
1993.971	204.5
1998.14	204.5
2002.306	212.5
2006.469	204.5
2010.627	204.5
2014.781	213.5
2018.932	207.5
2023.078	215.5
2027.221	205.5
2031.36	203.5
2035.495	199.5
2039.627	193.5
2043.754	186.5
2047.878	191.5
2051.998	192.5
2056.114	192.5
2060.226	183.5
2064.334	187.5
2068.439	181.5
2072.54	183.5
2076.637	179.5
2080.73	171.5
2084.82	182.5
2088.906	172.5
2092.988	170.5
2097.066	167.5
2101.14	171.5
2105.211	170.5
2109.278	169.5
2113.342	159.5
2117.401	153.5
2121.457	154.5
2125.509	161.5
2129.558	162.5
2133.602	156.5
2137.643	156.5
2141.681	150.5
2145.714	157.5
2149.744	156.5
2153.77	151.5
2157.793	160.5
2161.812	157.5
2165.827	159.5
2169.838	151.5
2173.846	147.5
2177.851	149.5
2181.851	151.5
2185.848	147.5
2189.841	148.5
2193.831	138.5
2197.817	143.5
2201.799	134.5
2205.778	144.5
2209.753	143.5
2213.725	140.5
2217.693	153.5
2221.657	142.5
2225.618	134.5
2229.575	139.5
2233.529	127.5
2237.479	135.5
2241.425	134.5
2245.368	129.5
2249.307	134.5
2253.243	123.5
2257.175	133.5
2261.104	121.5
2265.029	126.5
2268.95	132.5
2272.868	117.5
2276.783	124.5
2280.694	116.5
2284.601	106.5
2288.505	122.5
2292.405	125.5
2296.302	122.5
2300.195	104.5
2304.085	107.5
2307.971	102.5
2311.854	100.5
2315.734	97.5
2319.609	114.5
2323.482	113.5
2327.351	109.5
2331.216	116.5
2335.078	131.5
2338.937	112.5
2342.792	110.5
2346.643	111.5
2350.492	106.5
2354.336	100.5
2358.178	98.5
2362.015	105.5
2365.85	103.5
2369.681	111.5
2373.508	108.5
2377.333	107.5
2381.153	104.5
2384.971	100.5
2388.785	101.5
2392.595	104.5
2396.402	104.5
2400.206	99.5
2404.007	96.5
2407.804	103.5
2411.597	95.5
2415.388	94.5
2419.174	107.5
2422.958	96.5
2426.738	105.5
2430.515	91.5
2434.289	92.5
2438.059	95.5
2441.825	88.5
2445.589	84.5
2449.349	86.5
2453.106	93.5
2456.859	92.5
2460.61	90.5
2464.356	84.5
2468.1	87.5
2471.84	85.5
2475.577	79.5
2479.311	87.5
2483.041	88.5
2486.768	85.5
2490.492	76.5
2494.213	79.5
2497.93	84.5
2501.644	81.5
2505.355	71.5
2509.062	77.5
2512.766	79.5
2516.467	71.5
2520.165	74.5
2523.859	79.5
2527.551	69.5
2531.239	76.5
2534.923	66.5
2538.605	65.5
2542.283	63.5
2545.958	62.5
2549.63	62.5
2553.299	64.5
2556.964	56.5
2560.626	61.5
2564.285	65.5
2567.941	60.5
2571.594	54.5
2575.243	53.5
2578.89	56.5
2582.533	49.5
2586.173	50.5
2589.809	53.5
2593.443	65.5
2597.073	50.5
2600.701	60.5
2604.325	45.5
2607.946	41.5
2611.564	51.5
2615.178	51.5
2618.79	52.5
2622.398	51.5
2626.004	48.5
2629.606	41.5
2633.205	43.5
2636.801	42.5
2640.394	48.5
2643.983	41.5
2647.57	40.5
2651.153	41.5
2654.734	35.5
2658.311	38.5
2661.885	45.5
2665.456	48.5
2669.025	43.5
2672.589	45.5
2676.151	37.5
2679.71	39.5
2683.266	34.5
2686.819	48.5
2690.368	44.5
2693.915	40.5
2697.458	34.5
2700.999	40.5
2704.536	38.5
2708.071	33.5
2711.602	31.5
2715.13	25.5
2718.656	30.5
2722.178	27.5
2725.697	27.5
2729.214	30.5
2732.727	39.5
2736.237	30.5
2739.744	26.5
2743.249	23.5
2746.75	25.5
2750.248	22.5
2753.743	23.5
2757.236	22.5
2760.725	20.5
2764.211	20.5
2767.695	15.5
2771.175	20.5
2774.652	16.5
2778.127	16.5
2781.598	19.5
2785.067	13.5
2788.532	10.5
2791.995	23.5
2795.455	20.5
2798.911	21.5
2802.365	24.5
2805.816	26.5
2809.264	19.5
2812.709	13.5
2816.151	19.5
2819.59	25.5
2823.026	18.5
2826.46	21.5
2829.89	17.5
2833.318	17.5
2836.742	20.5
2840.164	17.5
2843.583	17.5
2846.999	24.5
2850.412	18.5
2853.822	22.5
2857.229	27.5
2860.634	18.5
2864.035	21.5
2867.434	27.5
2870.83	28.5
2874.223	27.5
2877.613	30.5
2881	33.5
2884.385	32.5
2887.766	29.5
2891.145	28.5
2894.521	34.5
2897.894	28.5
2901.264	33.5
2904.631	21.5
2907.996	32.5
2911.358	36.5
2914.717	37.5
2918.073	33.5
2921.426	30.5
2924.777	32.5
2928.124	40.5
2931.469	45.5
2934.811	49.5
2938.15	41.5
2941.487	52.5
2944.821	42.5
2948.152	49.5
2951.48	40.5
2954.805	45.5
2958.128	34.5
2961.447	47.5
2964.765	40.5
2968.079	37.5
2971.39	36.5
2974.699	41.5
2978.005	51.5
2981.308	44.5
2984.609	39.5
2987.907	39.5
2991.202	42.5
2994.494	40.5
2997.784	38.5
3001.07	38.5
3004.355	43.5
3007.636	45.5
3010.915	44.5
3014.191	46.5
3017.464	38.5
3020.734	45.5
3024.002	46.5
3027.267	47.5
3030.53	48.5
3033.789	48.5
3037.046	49.5
3040.301	56.5
3043.552	55.5
3046.801	58.5
3050.048	56.5
3053.291	61.5
3056.532	64.5
3059.771	63.5
3063.006	64.5
3066.239	65.5
3069.469	77.5
3072.697	76.5
3075.922	88.5
3079.144	82.5
3082.364	91.5
3085.581	89.5
3088.795	95.5
3092.007	97.5
3095.216	100.5
3098.423	98.5
3101.627	96.5
3104.828	111.5
3108.026	106.5
3111.222	106.5
3114.416	101.5
3117.607	112.5
3120.795	117.5
3123.98	117.5
3127.163	132.5
3130.344	125.5
3133.521	122.5
3136.696	126.5
3139.869	134.5
3143.039	132.5
3146.206	144.5
3149.371	138.5
3152.533	147.5
3155.693	147.5
3158.85	138.5
3162.005	147.5
3165.157	138.5
3168.306	140.5
3171.453	152.5
3174.597	148.5
3177.739	148.5
3180.878	150.5
3184.014	140.5
3187.149	145.5
3190.28	153.5
3193.409	144.5
3196.536	147.5
3199.659	153.5
3202.781	147.5
3205.9	148.5
3209.016	147.5
3212.13	148.5
3215.241	149.5
3218.35	141.5
3221.456	147.5
3224.56	140.5
3227.661	138.5
3230.76	135.5
3233.856	128.5
3236.95	131.5
3240.041	126.5
3243.13	132.5
3246.216	123.5
3249.3	125.5
3252.382	123.5
3255.46	122.5
3258.537	126.5
3261.611	111.5
3264.682	113.5
3267.751	114.5
3270.818	103.5
3273.882	115.5
3276.943	108.5
3280.002	111.5
3283.059	105.5
3286.113	102.5
3289.165	109.5
3292.214	97.5
3295.261	112.5
3298.306	104.5
3301.348	108.5
3304.387	97.5
3307.425	106.5
3310.459	97.5
3313.492	102.5
3316.521	93.5
3319.549	102.5
3322.574	95.5
3325.597	97.5
3328.617	99.5
3331.635	92.5
3334.65	100.5
3337.663	94.5
3340.674	90.5
3343.682	103.5
3346.688	97.5
3349.691	98.5
3352.692	97.5
3355.691	102.5
3358.687	97.5
3361.681	102.5
3364.673	99.5
3367.662	93.5
3370.649	91.5
3373.633	84.5
3376.615	84.5
3379.595	78.5
3382.572	73.5
3385.547	78.5
3388.52	78.5
3391.49	78.5
3394.458	76.5
3397.424	76.5
3400.387	78.5
3403.348	67.5
3406.307	71.5
3409.263	77.5
3412.217	74.5
3415.168	74.5
3418.118	67.5
3421.065	64.5
3424.009	61.5
3426.951	55.5
3429.891	57.5
3432.829	49.5
3435.764	63.5
3438.697	57.5
3441.628	46.5
3444.557	51.5
3447.483	48.5
3450.407	41.5
3453.328	48.5
3456.247	39.5
3459.164	44.5
3462.079	30.5
3464.991	33.5
3467.902	30.5
3470.809	24.5
3473.715	29.5
3476.618	18.5
3479.519	20.5
3482.418	18.5
3485.315	20.5
3488.209	11.5
3491.101	10.5
3493.99	13.5
3496.878	6.5
3499.763	3.5
3502.646	6.5
3505.527	10.5
3508.405	8.5
3511.281	4.5
3514.155	2.5
3517.027	-4.5
3519.897	2.5
3522.764	-3.5
3525.629	-1.5
3528.492	-5.5
3531.352	-14.5
3534.211	-15.5
3537.067	-14.5
3539.921	-12.5
3542.773	-17.5
3545.622	-18.5
3548.469	-14.5
3551.315	-18.5
3554.157	-16.5
3556.998	-19.5
3559.837	-22.5
3562.673	-24.5
3565.507	-22.5
3568.339	-18.5
3571.169	-25.5
3573.996	-21.5
3576.822	-33.5
3579.645	-25.5
3582.466	-24.5
3585.285	-29.5
3588.101	-31.5
3590.916	-25.5
3593.728	-34.5
3596.538	-36.5
3599.346	-39.5
3602.152	-33.5
3604.956	-39.5
3607.757	-31.5
3610.556	-33.5
3613.354	-44.5
3616.149	-37.5
3618.942	-32.5
3621.732	-38.5
3624.521	-31.5
3627.307	-35.5
3630.092	-38.5
3632.874	-40.5
3635.654	-40.5
3638.432	-38.5
3641.208	-41.5
3643.982	-37.5
3646.753	-42.5
3649.523	-39.5
3652.29	-48.5
3655.055	-41.5
3657.818	-48.5
3660.579	-43.5
3663.338	-39.5
3666.095	-44.5
3668.849	-42.5
3671.602	-50.5
3674.352	-38.5
3677.101	-42.5
3679.847	-41.5
3682.591	-49.5
3685.333	-46.5
3688.073	-45.5
3690.811	-46.5
3693.547	-46.5
3696.281	-44.5
3699.013	-47.5
3701.742	-48.5
3704.47	-44.5
3707.195	-50.5
3709.919	-52.5
3712.64	-44.5
3715.359	-46.5
3718.076	-49.5
3720.792	-41.5
3723.505	-45.5
3726.216	-45.5
3728.925	-54.5
3731.632	-49.5
3734.336	-48.5
3737.039	-50.5
3739.74	-56.5
3742.439	-62.5
3745.136	-51.5
3747.83	-53.5
3750.523	-55.5
3753.213	-53.5
3755.902	-50.5
3758.589	-51.5
3761.273	-48.5
3763.956	-50.5
3766.636	-44.5
3769.315	-46.5
3771.991	-44.5
3774.665	-55.5
3777.338	-53.5
3780.008	-51.5
3782.677	-57.5
3785.343	-48.5
3788.007	-50.5
3790.67	-53.5
3793.33	-53.5
3795.989	-61.5
3798.645	-55.5
3801.299	-55.5
3803.952	-57.5
3806.602	-54.5
3809.251	-56.5
3811.897	-53.5
3814.542	-56.5
3817.184	-52.5
3819.825	-47.5
3822.463	-52.5
3825.1	-45.5
3827.735	-55.5
3830.367	-52.5
3832.998	-57.5
3835.627	-54.5
3838.253	-48.5
3840.878	-45.5
3843.501	-49.5
3846.122	-57.5
3848.741	-53.5
3851.358	-51.5
3853.973	-48.5
3856.586	-51.5
3859.197	-53.5
3861.806	-52.5
3864.414	-50.5
3867.019	-52.5
3869.622	-42.5
3872.224	-44.5
3874.823	-36.5
3877.421	-27.5
3880.016	-6.5
3882.61	4.5
3885.202	5.5
3887.792	4.5
3890.38	-21.5
3892.966	-37.5
3895.55	-48.5
3898.132	-53.5
3900.713	-57.5
3903.291	-55.5
3905.868	-55.5
3908.442	-52.5
3911.015	-50.5
3913.586	-56.5
3916.155	-50.5
3918.722	-52.5
3921.287	-50.5
3923.85	-45.5
3926.411	-52.5
3928.971	-63.5
3931.528	-54.5
3934.084	-47.5
3936.638	-52.5
3939.19	-60.5
3941.74	-51.5
3944.288	-55.5
3946.834	-55.5
3949.378	-55.5
3951.921	-54.5
3954.462	-54.5
3957	-47.5
3959.537	-42.5
3962.072	-48.5
3964.606	-45.5
3967.137	-46.5
3969.667	-50.5
3972.194	-50.5
3974.72	-45.5
3977.244	-48.5
3979.766	-53.5
3982.286	-51.5
3984.805	-60.5
3987.321	-53.5
3989.836	-53.5
3992.349	-56.5
3994.86	-58.5
3997.369	-56.5
3999.877	-50.5
4002.382	-53.5
4004.886	-51.5
4007.388	-55.5
4009.888	-53.5
4012.386	-53.5
4014.883	-51.5
4017.377	-47.5
4019.87	-49.5
4022.361	-55.5
4024.85	-51.5
4027.338	-56.5
4029.823	-55.5
4032.307	-58.5
4034.789	-56.5
4037.269	-53.5
4039.747	-51.5
4042.224	-51.5
4044.699	-54.5
4047.172	-53.5
4049.643	-53.5
4052.112	-54.5
4054.58	-46.5
4057.046	-44.5
4059.51	-52.5
4061.972	-55.5
4064.432	-52.5
4066.891	-49.5
4069.348	-52.5
4071.803	-45.5
4074.256	-51.5
4076.708	-53.5
4079.158	-56.5
4081.606	-50.5
4084.052	-60.5
4086.497	-49.5
4088.939	-51.5
4091.38	-58.5
4093.819	-59.5
4096.257	-55.5
4098.693	-54.5
4101.127	-52.5
4103.559	-58.5
4105.989	15.5
4108.418	20.5
4110.845	15.5
4113.27	12.5
4115.694	14.5
4118.115	19.5
4120.535	-53.5
4122.954	-49.5
4125.37	-50.5
4127.785	-52.5
4130.198	-52.5
4132.609	-54.5
4135.019	-51.5
4137.427	-55.5
4139.833	-55.5
4142.237	-60.5
