Data from 2018-3-7_conc=4_n=10_RamanShift_05.txt Node
Date: Wed Mar 07 12:20:22 IST 2018
User: aro
Spectrometer: QEPB0276
Trigger mode: 0
Integration Time (sec): 3.000000E1
Scans to average: 1
Electric dark correction enabled: true
Nonlinearity correction enabled: false
Boxcar width: 0
XAxis mode: Raman Shifts
Number of Pixels in Spectrum: 1044
>>>>>Begin Spectral Data<<<<<
160.701	8.8
166.742	14.8
172.777	49.8
178.805	155.8
184.826	398.8
190.841	865.8
196.849	1437.8
202.85	1893.8
208.845	2056.8
214.833	2054.8
220.815	2036.8
226.789	2031.8
232.758	2049.8
238.719	2036.8
244.674	2025.8
250.623	2021.8
256.565	1985.8
262.5	1965.8
268.429	1917.8
274.351	1939.8
280.267	1909.8
286.176	1911.8
292.079	1899.8
297.975	1893.8
303.865	1908.8
309.748	1897.8
315.625	1875.8
321.495	1885.8
327.359	1899.8
333.217	1896.8
339.068	1890.8
344.912	1912.8
350.751	1895.8
356.583	1888.8
362.408	1894.8
368.227	1900.8
374.04	1898.8
379.847	1903.8
385.647	1924.8
391.44	1915.8
397.228	1940.8
403.009	1960.8
408.784	1962.8
414.553	1966.8
420.315	1968.8
426.071	1952.8
431.821	1964.8
437.565	1958.8
443.302	1972.8
449.033	1964.8
454.758	1947.8
460.477	1930.8
466.189	1930.8
471.896	1910.8
477.596	1895.8
483.29	1912.8
488.978	1892.8
494.66	1888.8
500.335	1849.8
506.005	1778.8
511.668	1741.8
517.325	1694.8
522.977	1635.8
528.622	1603.8
534.261	1579.8
539.894	1559.8
545.521	1559.8
551.141	1529.8
556.756	1521.8
562.365	1513.8
567.968	1494.8
573.565	1485.8
579.155	1481.8
584.74	1485.8
590.319	1468.8
595.892	1470.8
601.459	1462.8
607.02	1454.8
612.575	1463.8
618.124	1429.8
623.667	1422.8
629.204	1401.8
634.735	1389.8
640.261	1372.8
645.781	1378.8
651.294	1371.8
656.802	1372.8
662.304	1375.8
667.8	1360.8
673.29	1355.8
678.775	1345.8
684.254	1352.8
689.726	1337.8
695.193	1334.8
700.655	1339.8
706.11	1328.8
711.56	1311.8
717.004	1315.8
722.442	1296.8
727.874	1293.8
733.301	1303.8
738.722	1274.8
744.137	1288.8
749.547	1271.8
754.951	1281.8
760.349	1267.8
765.741	1276.8
771.128	1289.8
776.509	1299.8
781.885	1304.8
787.254	1294.8
792.618	1317.8
797.977	1291.8
803.33	1277.8
808.677	1282.8
814.019	1280.8
819.355	1268.8
824.686	1257.8
830.011	1249.8
835.33	1255.8
840.644	1235.8
845.952	1237.8
851.255	1228.8
856.552	1237.8
861.844	1211.8
867.13	1218.8
872.41	1210.8
877.686	1210.8
882.955	1204.8
888.219	1176.8
893.478	1161.8
898.731	1143.8
903.979	1139.8
909.221	1130.8
914.458	1117.8
919.69	1134.8
924.916	1116.8
930.136	1129.8
935.351	1119.8
940.561	1119.8
945.766	1129.8
950.965	1127.8
956.158	1112.8
961.347	1096.8
966.529	1096.8
971.707	1068.8
976.879	1056.8
982.046	1039.8
987.208	1036.8
992.364	1032.8
997.515	1052.8
1002.66	1059.8
1007.801	1063.8
1012.936	1072.8
1018.066	1075.8
1023.19	1078.8
1028.309	1075.8
1033.423	1074.8
1038.532	1073.8
1043.636	1058.8
1048.734	1056.8
1053.827	1033.8
1058.915	1025.8
1063.998	1009.8
1069.075	1003.8
1074.147	1010.8
1079.214	1023.8
1084.276	1010.8
1089.333	1023.8
1094.385	1032.8
1099.431	1023.8
1104.472	1011.8
1109.509	1017.8
1114.54	991.8
1119.565	981.8
1124.586	973.8
1129.602	972.8
1134.613	961.8
1139.618	959.8
1144.619	947.8
1149.614	958.8
1154.604	951.8
1159.589	959.8
1164.57	958.8
1169.545	962.8
1174.515	971.8
1179.48	967.8
1184.44	947.8
1189.395	947.8
1194.345	935.8
1199.29	930.8
1204.23	920.8
1209.165	936.8
1214.095	926.8
1219.021	926.8
1223.941	938.8
1228.856	947.8
1233.766	961.8
1238.672	954.8
1243.572	954.8
1248.467	947.8
1253.358	934.8
1258.244	911.8
1263.124	896.8
1268	894.8
1272.871	875.8
1277.737	867.8
1282.599	865.8
1287.455	853.8
1292.306	861.8
1297.153	864.8
1301.995	868.8
1306.832	875.8
1311.664	899.8
1316.491	893.8
1321.314	888.8
1326.132	866.8
1330.945	860.8
1335.753	833.8
1340.556	832.8
1345.354	819.8
1350.148	807.8
1354.937	783.8
1359.722	762.8
1364.501	745.8
1369.276	741.8
1374.046	708.8
1378.811	711.8
1383.572	713.8
1388.327	706.8
1393.079	710.8
1397.825	717.8
1402.567	718.8
1407.304	732.8
1412.036	717.8
1416.764	731.8
1421.487	729.8
1426.205	717.8
1430.919	727.8
1435.628	741.8
1440.333	745.8
1445.032	729.8
1449.727	766.8
1454.418	757.8
1459.104	749.8
1463.785	740.8
1468.462	717.8
1473.134	707.8
1477.802	687.8
1482.465	657.8
1487.123	650.8
1491.777	649.8
1496.426	626.8
1501.071	638.8
1505.711	618.8
1510.347	618.8
1514.978	607.8
1519.604	595.8
1524.226	609.8
1528.844	599.8
1533.457	605.8
1538.065	595.8
1542.669	586.8
1547.269	589.8
1551.864	603.8
1556.454	613.8
1561.041	629.8
1565.622	625.8
1570.199	627.8
1574.772	621.8
1579.34	626.8
1583.904	648.8
1588.464	655.8
1593.019	664.8
1597.569	654.8
1602.115	652.8
1606.657	660.8
1611.195	650.8
1615.728	649.8
1620.256	642.8
1624.78	645.8
1629.3	651.8
1633.816	660.8
1638.327	667.8
1642.834	653.8
1647.336	639.8
1651.834	647.8
1656.328	662.8
1660.817	651.8
1665.302	632.8
1669.783	621.8
1674.259	607.8
1678.732	597.8
1683.199	570.8
1687.663	547.8
1692.122	517.8
1696.577	498.8
1701.028	477.8
1705.474	448.8
1709.917	442.8
1714.355	429.8
1718.788	428.8
1723.218	434.8
1727.643	441.8
1732.064	427.8
1736.481	425.8
1740.893	422.8
1745.301	418.8
1749.705	403.8
1754.105	388.8
1758.501	378.8
1762.893	382.8
1767.28	367.8
1771.663	359.8
1776.042	357.8
1780.417	366.8
1784.787	352.8
1789.154	343.8
1793.516	329.8
1797.874	323.8
1802.228	325.8
1806.578	318.8
1810.924	308.8
1815.266	318.8
1819.603	314.8
1823.937	321.8
1828.266	315.8
1832.591	318.8
1836.913	326.8
1841.23	332.8
1845.543	325.8
1849.852	330.8
1854.156	331.8
1858.457	322.8
1862.754	330.8
1867.047	332.8
1871.335	324.8
1875.62	320.8
1879.9	319.8
1884.177	309.8
1888.449	307.8
1892.718	319.8
1896.982	308.8
1901.243	292.8
1905.499	292.8
1909.752	286.8
1914	278.8
1918.245	275.8
1922.485	265.8
1926.722	255.8
1930.954	264.8
1935.183	262.8
1939.408	261.8
1943.628	249.8
1947.845	256.8
1952.058	254.8
1956.267	246.8
1960.472	249.8
1964.673	233.8
1968.87	241.8
1973.063	245.8
1977.252	247.8
1981.438	250.8
1985.619	246.8
1989.797	245.8
1993.971	256.8
1998.14	258.8
2002.306	248.8
2006.469	255.8
2010.627	254.8
2014.781	255.8
2018.932	248.8
2023.078	252.8
2027.221	255.8
2031.36	241.8
2035.495	233.8
2039.627	238.8
2043.754	231.8
2047.878	230.8
2051.998	239.8
2056.114	236.8
2060.226	225.8
2064.334	222.8
2068.439	227.8
2072.54	221.8
2076.637	224.8
2080.73	222.8
2084.82	221.8
2088.906	209.8
2092.988	213.8
2097.066	209.8
2101.14	206.8
2105.211	204.8
2109.278	188.8
2113.342	194.8
2117.401	197.8
2121.457	196.8
2125.509	193.8
2129.558	189.8
2133.602	196.8
2137.643	194.8
2141.681	197.8
2145.714	189.8
2149.744	194.8
2153.77	195.8
2157.793	188.8
2161.812	197.8
2165.827	204.8
2169.838	188.8
2173.846	187.8
2177.851	192.8
2181.851	185.8
2185.848	182.8
2189.841	181.8
2193.831	177.8
2197.817	176.8
2201.799	180.8
2205.778	179.8
2209.753	179.8
2213.725	174.8
2217.693	183.8
2221.657	177.8
2225.618	170.8
2229.575	174.8
2233.529	172.8
2237.479	173.8
2241.425	172.8
2245.368	169.8
2249.307	169.8
2253.243	163.8
2257.175	165.8
2261.104	151.8
2265.029	147.8
2268.95	154.8
2272.868	153.8
2276.783	149.8
2280.694	137.8
2284.601	146.8
2288.505	149.8
2292.405	154.8
2296.302	157.8
2300.195	150.8
2304.085	138.8
2307.971	135.8
2311.854	139.8
2315.734	136.8
2319.609	148.8
2323.482	143.8
2327.351	145.8
2331.216	140.8
2335.078	154.8
2338.937	145.8
2342.792	137.8
2346.643	141.8
2350.492	130.8
2354.336	140.8
2358.178	131.8
2362.015	134.8
2365.85	128.8
2369.681	141.8
2373.508	149.8
2377.333	145.8
2381.153	148.8
2384.971	132.8
2388.785	133.8
2392.595	140.8
2396.402	140.8
2400.206	134.8
2404.007	131.8
2407.804	131.8
2411.597	136.8
2415.388	131.8
2419.174	137.8
2422.958	132.8
2426.738	131.8
2430.515	126.8
2434.289	134.8
2438.059	126.8
2441.825	121.8
2445.589	128.8
2449.349	122.8
2453.106	131.8
2456.859	122.8
2460.61	126.8
2464.356	115.8
2468.1	122.8
2471.84	116.8
2475.577	106.8
2479.311	112.8
2483.041	106.8
2486.768	104.8
2490.492	108.8
2494.213	111.8
2497.93	111.8
2501.644	110.8
2505.355	103.8
2509.062	105.8
2512.766	112.8
2516.467	101.8
2520.165	99.8
2523.859	104.8
2527.551	99.8
2531.239	92.8
2534.923	95.8
2538.605	90.8
2542.283	93.8
2545.958	84.8
2549.63	87.8
2553.299	85.8
2556.964	78.8
2560.626	82.8
2564.285	78.8
2567.941	82.8
2571.594	74.8
2575.243	86.8
2578.89	85.8
2582.533	80.8
2586.173	78.8
2589.809	82.8
2593.443	86.8
2597.073	71.8
2600.701	72.8
2604.325	67.8
2607.946	62.8
2611.564	75.8
2615.178	73.8
2618.79	70.8
2622.398	82.8
2626.004	64.8
2629.606	61.8
2633.205	65.8
2636.801	63.8
2640.394	75.8
2643.983	72.8
2647.57	69.8
2651.153	66.8
2654.734	63.8
2658.311	69.8
2661.885	66.8
2665.456	69.8
2669.025	66.8
2672.589	55.8
2676.151	61.8
2679.71	52.8
2683.266	56.8
2686.819	64.8
2690.368	56.8
2693.915	58.8
2697.458	47.8
2700.999	59.8
2704.536	55.8
2708.071	51.8
2711.602	49.8
2715.13	45.8
2718.656	46.8
2722.178	49.8
2725.697	46.8
2729.214	48.8
2732.727	51.8
2736.237	45.8
2739.744	31.8
2743.249	34.8
2746.75	38.8
2750.248	37.8
2753.743	32.8
2757.236	36.8
2760.725	34.8
2764.211	30.8
2767.695	29.8
2771.175	27.8
2774.652	28.8
2778.127	26.8
2781.598	32.8
2785.067	28.8
2788.532	33.8
2791.995	31.8
2795.455	29.8
2798.911	32.8
2802.365	37.8
2805.816	33.8
2809.264	31.8
2812.709	32.8
2816.151	33.8
2819.59	35.8
2823.026	31.8
2826.46	31.8
2829.89	32.8
2833.318	31.8
2836.742	40.8
2840.164	29.8
2843.583	35.8
2846.999	34.8
2850.412	35.8
2853.822	36.8
2857.229	39.8
2860.634	33.8
2864.035	34.8
2867.434	41.8
2870.83	39.8
2874.223	37.8
2877.613	44.8
2881	48.8
2884.385	46.8
2887.766	44.8
2891.145	39.8
2894.521	47.8
2897.894	42.8
2901.264	41.8
2904.631	38.8
2907.996	49.8
2911.358	49.8
2914.717	48.8
2918.073	45.8
2921.426	51.8
2924.777	58.8
2928.124	56.8
2931.469	55.8
2934.811	64.8
2938.15	66.8
2941.487	68.8
2944.821	62.8
2948.152	62.8
2951.48	58.8
2954.805	63.8
2958.128	55.8
2961.447	59.8
2964.765	55.8
2968.079	58.8
2971.39	59.8
2974.699	55.8
2978.005	64.8
2981.308	59.8
2984.609	61.8
2987.907	56.8
2991.202	65.8
2994.494	55.8
2997.784	59.8
3001.07	57.8
3004.355	56.8
3007.636	62.8
3010.915	62.8
3014.191	63.8
3017.464	60.8
3020.734	65.8
3024.002	68.8
3027.267	62.8
3030.53	66.8
3033.789	68.8
3037.046	63.8
3040.301	60.8
3043.552	77.8
3046.801	72.8
3050.048	76.8
3053.291	83.8
3056.532	85.8
3059.771	88.8
3063.006	94.8
3066.239	102.8
3069.469	100.8
3072.697	101.8
3075.922	109.8
3079.144	109.8
3082.364	112.8
3085.581	112.8
3088.795	116.8
3092.007	122.8
3095.216	123.8
3098.423	124.8
3101.627	122.8
3104.828	131.8
3108.026	137.8
3111.222	134.8
3114.416	142.8
3117.607	149.8
3120.795	144.8
3123.98	144.8
3127.163	161.8
3130.344	161.8
3133.521	148.8
3136.696	162.8
3139.869	175.8
3143.039	172.8
3146.206	178.8
3149.371	175.8
3152.533	183.8
3155.693	179.8
3158.85	178.8
3162.005	188.8
3165.157	180.8
3168.306	178.8
3171.453	184.8
3174.597	176.8
3177.739	182.8
3180.878	187.8
3184.014	189.8
3187.149	186.8
3190.28	196.8
3193.409	187.8
3196.536	191.8
3199.659	191.8
3202.781	192.8
3205.9	189.8
3209.016	181.8
3212.13	191.8
3215.241	183.8
3218.35	185.8
3221.456	185.8
3224.56	178.8
3227.661	175.8
3230.76	175.8
3233.856	175.8
3236.95	165.8
3240.041	159.8
3243.13	162.8
3246.216	158.8
3249.3	152.8
3252.382	156.8
3255.46	161.8
3258.537	159.8
3261.611	153.8
3264.682	147.8
3267.751	150.8
3270.818	136.8
3273.882	141.8
3276.943	137.8
3280.002	144.8
3283.059	136.8
3286.113	135.8
3289.165	133.8
3292.214	140.8
3295.261	132.8
3298.306	133.8
3301.348	131.8
3304.387	128.8
3307.425	129.8
3310.459	127.8
3313.492	128.8
3316.521	139.8
3319.549	132.8
3322.574	126.8
3325.597	123.8
3328.617	131.8
3331.635	127.8
3334.65	134.8
3337.663	115.8
3340.674	122.8
3343.682	128.8
3346.688	119.8
3349.691	128.8
3352.692	121.8
3355.691	121.8
3358.687	122.8
3361.681	121.8
3364.673	122.8
3367.662	125.8
3370.649	118.8
3373.633	107.8
3376.615	116.8
3379.595	111.8
3382.572	109.8
3385.547	113.8
3388.52	107.8
3391.49	104.8
3394.458	97.8
3397.424	103.8
3400.387	95.8
3403.348	97.8
3406.307	90.8
3409.263	91.8
3412.217	95.8
3415.168	91.8
3418.118	87.8
3421.065	86.8
3424.009	83.8
3426.951	78.8
3429.891	77.8
3432.829	79.8
3435.764	82.8
3438.697	80.8
3441.628	70.8
3444.557	69.8
3447.483	74.8
3450.407	59.8
3453.328	63.8
3456.247	60.8
3459.164	54.8
3462.079	43.8
3464.991	45.8
3467.902	44.8
3470.809	43.8
3473.715	36.8
3476.618	29.8
3479.519	29.8
3482.418	30.8
3485.315	26.8
3488.209	19.8
3491.101	17.8
3493.99	25.8
3496.878	18.8
3499.763	19.8
3502.646	18.8
3505.527	16.8
3508.405	11.8
3511.281	15.8
3514.155	4.8
3517.027	-0.2
3519.897	6.8
3522.764	0.8
3525.629	2.8
3528.492	-5.2
3531.352	-8.2
3534.211	-13.2
3537.067	-8.2
3539.921	-1.2
3542.773	-15.2
3545.622	-10.2
3548.469	-9.2
3551.315	-5.2
3554.157	-16.2
3556.998	-15.2
3559.837	-19.2
3562.673	-15.2
3565.507	-20.2
3568.339	-18.2
3571.169	-23.2
3573.996	-18.2
3576.822	-32.2
3579.645	-27.2
3582.466	-32.2
3585.285	-26.2
3588.101	-29.2
3590.916	-24.2
3593.728	-30.2
3596.538	-33.2
3599.346	-35.2
3602.152	-26.2
3604.956	-33.2
3607.757	-27.2
3610.556	-27.2
3613.354	-35.2
3616.149	-37.2
3618.942	-33.2
3621.732	-36.2
3624.521	-36.2
3627.307	-31.2
3630.092	-34.2
3632.874	-42.2
3635.654	-39.2
3638.432	-41.2
3641.208	-39.2
3643.982	-37.2
3646.753	-48.2
3649.523	-37.2
3652.29	-44.2
3655.055	-38.2
3657.818	-48.2
3660.579	-40.2
3663.338	-38.2
3666.095	-43.2
3668.849	-43.2
3671.602	-44.2
3674.352	-42.2
3677.101	-41.2
3679.847	-43.2
3682.591	-52.2
3685.333	-48.2
3688.073	-50.2
3690.811	-46.2
3693.547	-54.2
3696.281	-41.2
3699.013	-45.2
3701.742	-49.2
3704.47	-44.2
3707.195	-43.2
3709.919	-46.2
3712.64	-49.2
3715.359	-50.2
3718.076	-46.2
3720.792	-49.2
3723.505	-51.2
3726.216	-51.2
3728.925	-51.2
3731.632	-49.2
3734.336	-54.2
3737.039	-50.2
3739.74	-54.2
3742.439	-60.2
3745.136	-55.2
3747.83	-53.2
3750.523	-55.2
3753.213	-60.2
3755.902	-51.2
3758.589	-50.2
3761.273	-48.2
3763.956	-54.2
3766.636	-51.2
3769.315	-47.2
3771.991	-55.2
3774.665	-53.2
3777.338	-53.2
3780.008	-56.2
3782.677	-60.2
3785.343	-53.2
3788.007	-56.2
3790.67	-50.2
3793.33	-56.2
3795.989	-51.2
3798.645	-53.2
3801.299	-54.2
3803.952	-54.2
3806.602	-52.2
3809.251	-55.2
3811.897	-55.2
3814.542	-55.2
3817.184	-53.2
3819.825	-49.2
3822.463	-53.2
3825.1	-47.2
3827.735	-59.2
3830.367	-57.2
3832.998	-61.2
3835.627	-55.2
3838.253	-51.2
3840.878	-51.2
3843.501	-49.2
3846.122	-56.2
3848.741	-50.2
3851.358	-54.2
3853.973	-51.2
3856.586	-52.2
3859.197	-55.2
3861.806	-55.2
3864.414	-57.2
3867.019	-58.2
3869.622	-45.2
3872.224	-42.2
3874.823	-35.2
3877.421	-36.2
3880.016	-23.2
3882.61	-20.2
3885.202	-9.2
3887.792	-15.2
3890.38	-32.2
3892.966	-45.2
3895.55	-49.2
3898.132	-56.2
3900.713	-52.2
3903.291	-57.2
3905.868	-52.2
3908.442	-54.2
3911.015	-55.2
3913.586	-59.2
3916.155	-53.2
3918.722	-51.2
3921.287	-56.2
3923.85	-49.2
3926.411	-60.2
3928.971	-61.2
3931.528	-57.2
3934.084	-53.2
3936.638	-57.2
3939.19	-59.2
3941.74	-54.2
3944.288	-57.2
3946.834	-54.2
3949.378	-55.2
3951.921	-60.2
3954.462	-51.2
3957	-48.2
3959.537	-43.2
3962.072	-53.2
3964.606	-50.2
3967.137	-52.2
3969.667	-51.2
3972.194	-50.2
3974.72	-54.2
3977.244	-50.2
3979.766	-57.2
3982.286	-61.2
3984.805	-63.2
3987.321	-52.2
3989.836	-50.2
3992.349	-56.2
3994.86	-58.2
3997.369	-53.2
3999.877	-54.2
4002.382	-50.2
4004.886	-50.2
4007.388	-50.2
4009.888	-55.2
4012.386	-54.2
4014.883	-52.2
4017.377	-49.2
4019.87	-52.2
4022.361	-60.2
4024.85	-56.2
4027.338	-57.2
4029.823	-57.2
4032.307	-55.2
4034.789	-54.2
4037.269	-53.2
4039.747	-57.2
4042.224	-54.2
4044.699	-58.2
4047.172	-52.2
4049.643	-56.2
4052.112	-55.2
4054.58	-56.2
4057.046	-48.2
4059.51	-55.2
4061.972	-57.2
4064.432	-54.2
4066.891	-55.2
4069.348	-51.2
4071.803	-49.2
4074.256	-55.2
4076.708	-58.2
4079.158	-61.2
4081.606	-54.2
4084.052	-50.2
4086.497	-52.2
4088.939	-51.2
4091.38	-55.2
4093.819	-54.2
4096.257	-59.2
4098.693	-57.2
4101.127	-52.2
4103.559	-57.2
4105.989	3.8
4108.418	-2.2
4110.845	1.8
4113.27	6.8
4115.694	8.8
4118.115	6.8
4120.535	-53.2
4122.954	-48.2
4125.37	-53.2
4127.785	-54.2
4130.198	-49.2
4132.609	-60.2
4135.019	-54.2
4137.427	-57.2
4139.833	-58.2
4142.237	-59.2
