Data from 2018-3-7_conc=6_n=10_RamanShift_05.txt Node
Date: Wed Mar 07 13:27:51 IST 2018
User: aro
Spectrometer: QEPB0276
Trigger mode: 0
Integration Time (sec): 3.000000E1
Scans to average: 1
Electric dark correction enabled: true
Nonlinearity correction enabled: false
Boxcar width: 0
XAxis mode: Raman Shifts
Number of Pixels in Spectrum: 1044
>>>>>Begin Spectral Data<<<<<
160.701	17.9
166.742	20.9
172.777	50.9
178.805	143.9
184.826	404.9
190.841	846.9
196.849	1441.9
202.85	1858.9
208.845	2043.9
214.833	2033.9
220.815	1999.9
226.789	1978.9
232.758	1984.9
238.719	1991.9
244.674	1979.9
250.623	1958.9
256.565	1938.9
262.5	1882.9
268.429	1868.9
274.351	1854.9
280.267	1843.9
286.176	1809.9
292.079	1824.9
297.975	1802.9
303.865	1816.9
309.748	1818.9
315.625	1773.9
321.495	1790.9
327.359	1783.9
333.217	1780.9
339.068	1784.9
344.912	1792.9
350.751	1803.9
356.583	1784.9
362.408	1798.9
368.227	1799.9
374.04	1811.9
379.847	1823.9
385.647	1800.9
391.44	1826.9
397.228	1808.9
403.009	1836.9
408.784	1826.9
414.553	1865.9
420.315	1861.9
426.071	1878.9
431.821	1858.9
437.565	1873.9
443.302	1859.9
449.033	1849.9
454.758	1839.9
460.477	1830.9
466.189	1821.9
471.896	1806.9
477.596	1804.9
483.29	1781.9
488.978	1789.9
494.66	1773.9
500.335	1749.9
506.005	1698.9
511.668	1647.9
517.325	1598.9
522.977	1555.9
528.622	1524.9
534.261	1508.9
539.894	1471.9
545.521	1472.9
551.141	1459.9
556.756	1443.9
562.365	1448.9
567.968	1433.9
573.565	1436.9
579.155	1420.9
584.74	1417.9
590.319	1404.9
595.892	1404.9
601.459	1409.9
607.02	1398.9
612.575	1368.9
618.124	1353.9
623.667	1347.9
629.204	1342.9
634.735	1329.9
640.261	1323.9
645.781	1335.9
651.294	1311.9
656.802	1307.9
662.304	1314.9
667.8	1300.9
673.29	1301.9
678.775	1305.9
684.254	1309.9
689.726	1285.9
695.193	1279.9
700.655	1273.9
706.11	1269.9
711.56	1262.9
717.004	1257.9
722.442	1236.9
727.874	1235.9
733.301	1232.9
738.722	1223.9
744.137	1215.9
749.547	1229.9
754.951	1221.9
760.349	1215.9
765.741	1228.9
771.128	1235.9
776.509	1221.9
781.885	1239.9
787.254	1243.9
792.618	1244.9
797.977	1247.9
803.33	1219.9
808.677	1223.9
814.019	1215.9
819.355	1217.9
824.686	1192.9
830.011	1196.9
835.33	1197.9
840.644	1188.9
845.952	1181.9
851.255	1178.9
856.552	1184.9
861.844	1171.9
867.13	1151.9
872.41	1143.9
877.686	1147.9
882.955	1148.9
888.219	1138.9
893.478	1115.9
898.731	1109.9
903.979	1093.9
909.221	1077.9
914.458	1080.9
919.69	1070.9
924.916	1070.9
930.136	1078.9
935.351	1084.9
940.561	1078.9
945.766	1090.9
950.965	1069.9
956.158	1058.9
961.347	1062.9
966.529	1045.9
971.707	1012.9
976.879	1009.9
982.046	999.9
987.208	1005.9
992.364	993.9
997.515	993.9
1002.66	1008.9
1007.801	1019.9
1012.936	1004.9
1018.066	1040.9
1023.19	1038.9
1028.309	1037.9
1033.423	1028.9
1038.532	1038.9
1043.636	1008.9
1048.734	998.9
1053.827	978.9
1058.915	976.9
1063.998	957.9
1069.075	967.9
1074.147	980.9
1079.214	968.9
1084.276	978.9
1089.333	982.9
1094.385	971.9
1099.431	964.9
1104.472	980.9
1109.509	955.9
1114.54	949.9
1119.565	949.9
1124.586	943.9
1129.602	928.9
1134.613	910.9
1139.618	902.9
1144.619	912.9
1149.614	928.9
1154.604	910.9
1159.589	922.9
1164.57	932.9
1169.545	916.9
1174.515	919.9
1179.48	919.9
1184.44	902.9
1189.395	898.9
1194.345	893.9
1199.29	877.9
1204.23	884.9
1209.165	884.9
1214.095	888.9
1219.021	888.9
1223.941	906.9
1228.856	906.9
1233.766	895.9
1238.672	915.9
1243.572	914.9
1248.467	895.9
1253.358	894.9
1258.244	887.9
1263.124	849.9
1268	848.9
1272.871	839.9
1277.737	831.9
1282.599	824.9
1287.455	831.9
1292.306	844.9
1297.153	838.9
1301.995	832.9
1306.832	853.9
1311.664	847.9
1316.491	847.9
1321.314	843.9
1326.132	853.9
1330.945	819.9
1335.753	818.9
1340.556	811.9
1345.354	784.9
1350.148	772.9
1354.937	748.9
1359.722	741.9
1364.501	711.9
1369.276	706.9
1374.046	698.9
1378.811	689.9
1383.572	688.9
1388.327	675.9
1393.079	679.9
1397.825	684.9
1402.567	688.9
1407.304	693.9
1412.036	698.9
1416.764	711.9
1421.487	691.9
1426.205	699.9
1430.919	696.9
1435.628	710.9
1440.333	719.9
1445.032	718.9
1449.727	719.9
1454.418	726.9
1459.104	728.9
1463.785	724.9
1468.462	699.9
1473.134	684.9
1477.802	657.9
1482.465	643.9
1487.123	630.9
1491.777	612.9
1496.426	622.9
1501.071	607.9
1505.711	606.9
1510.347	601.9
1514.978	589.9
1519.604	593.9
1524.226	577.9
1528.844	585.9
1533.457	577.9
1538.065	572.9
1542.669	569.9
1547.269	570.9
1551.864	574.9
1556.454	589.9
1561.041	594.9
1565.622	601.9
1570.199	607.9
1574.772	607.9
1579.34	615.9
1583.904	631.9
1588.464	641.9
1593.019	638.9
1597.569	635.9
1602.115	638.9
1606.657	648.9
1611.195	634.9
1615.728	641.9
1620.256	622.9
1624.78	636.9
1629.3	625.9
1633.816	636.9
1638.327	640.9
1642.834	637.9
1647.336	628.9
1651.834	642.9
1656.328	635.9
1660.817	628.9
1665.302	622.9
1669.783	613.9
1674.259	599.9
1678.732	588.9
1683.199	554.9
1687.663	546.9
1692.122	501.9
1696.577	494.9
1701.028	474.9
1705.474	431.9
1709.917	427.9
1714.355	413.9
1718.788	411.9
1723.218	417.9
1727.643	416.9
1732.064	423.9
1736.481	421.9
1740.893	407.9
1745.301	398.9
1749.705	397.9
1754.105	382.9
1758.501	372.9
1762.893	361.9
1767.28	363.9
1771.663	350.9
1776.042	355.9
1780.417	339.9
1784.787	335.9
1789.154	333.9
1793.516	315.9
1797.874	310.9
1802.228	313.9
1806.578	307.9
1810.924	302.9
1815.266	289.9
1819.603	303.9
1823.937	314.9
1828.266	309.9
1832.591	311.9
1836.913	309.9
1841.23	315.9
1845.543	315.9
1849.852	313.9
1854.156	323.9
1858.457	314.9
1862.754	317.9
1867.047	320.9
1871.335	318.9
1875.62	308.9
1879.9	318.9
1884.177	304.9
1888.449	308.9
1892.718	305.9
1896.982	298.9
1901.243	287.9
1905.499	283.9
1909.752	290.9
1914	277.9
1918.245	277.9
1922.485	257.9
1926.722	261.9
1930.954	250.9
1935.183	253.9
1939.408	254.9
1943.628	251.9
1947.845	237.9
1952.058	252.9
1956.267	239.9
1960.472	239.9
1964.673	227.9
1968.87	224.9
1973.063	238.9
1977.252	241.9
1981.438	239.9
1985.619	236.9
1989.797	238.9
1993.971	245.9
1998.14	237.9
2002.306	247.9
2006.469	251.9
2010.627	242.9
2014.781	248.9
2018.932	243.9
2023.078	246.9
2027.221	250.9
2031.36	231.9
2035.495	237.9
2039.627	224.9
2043.754	236.9
2047.878	233.9
2051.998	237.9
2056.114	225.9
2060.226	219.9
2064.334	222.9
2068.439	216.9
2072.54	216.9
2076.637	220.9
2080.73	221.9
2084.82	218.9
2088.906	208.9
2092.988	206.9
2097.066	205.9
2101.14	206.9
2105.211	196.9
2109.278	197.9
2113.342	195.9
2117.401	197.9
2121.457	184.9
2125.509	189.9
2129.558	188.9
2133.602	188.9
2137.643	192.9
2141.681	185.9
2145.714	202.9
2149.744	193.9
2153.77	190.9
2157.793	189.9
2161.812	200.9
2165.827	191.9
2169.838	182.9
2173.846	187.9
2177.851	180.9
2181.851	180.9
2185.848	180.9
2189.841	177.9
2193.831	171.9
2197.817	175.9
2201.799	174.9
2205.778	173.9
2209.753	179.9
2213.725	169.9
2217.693	179.9
2221.657	170.9
2225.618	172.9
2229.575	166.9
2233.529	170.9
2237.479	176.9
2241.425	164.9
2245.368	169.9
2249.307	169.9
2253.243	155.9
2257.175	154.9
2261.104	150.9
2265.029	150.9
2268.95	158.9
2272.868	151.9
2276.783	147.9
2280.694	139.9
2284.601	141.9
2288.505	140.9
2292.405	146.9
2296.302	148.9
2300.195	137.9
2304.085	142.9
2307.971	138.9
2311.854	132.9
2315.734	132.9
2319.609	134.9
2323.482	135.9
2327.351	133.9
2331.216	141.9
2335.078	148.9
2338.937	136.9
2342.792	135.9
2346.643	138.9
2350.492	134.9
2354.336	132.9
2358.178	119.9
2362.015	126.9
2365.85	130.9
2369.681	131.9
2373.508	137.9
2377.333	139.9
2381.153	132.9
2384.971	128.9
2388.785	129.9
2392.595	121.9
2396.402	129.9
2400.206	136.9
2404.007	128.9
2407.804	132.9
2411.597	125.9
2415.388	127.9
2419.174	139.9
2422.958	127.9
2426.738	131.9
2430.515	120.9
2434.289	129.9
2438.059	122.9
2441.825	113.9
2445.589	120.9
2449.349	114.9
2453.106	112.9
2456.859	112.9
2460.61	117.9
2464.356	118.9
2468.1	111.9
2471.84	105.9
2475.577	103.9
2479.311	108.9
2483.041	105.9
2486.768	109.9
2490.492	109.9
2494.213	107.9
2497.93	105.9
2501.644	107.9
2505.355	96.9
2509.062	102.9
2512.766	97.9
2516.467	93.9
2520.165	98.9
2523.859	98.9
2527.551	91.9
2531.239	94.9
2534.923	78.9
2538.605	94.9
2542.283	82.9
2545.958	82.9
2549.63	80.9
2553.299	81.9
2556.964	76.9
2560.626	83.9
2564.285	85.9
2567.941	80.9
2571.594	79.9
2575.243	74.9
2578.89	75.9
2582.533	68.9
2586.173	77.9
2589.809	77.9
2593.443	77.9
2597.073	73.9
2600.701	77.9
2604.325	63.9
2607.946	59.9
2611.564	72.9
2615.178	65.9
2618.79	69.9
2622.398	65.9
2626.004	66.9
2629.606	56.9
2633.205	61.9
2636.801	61.9
2640.394	67.9
2643.983	60.9
2647.57	69.9
2651.153	60.9
2654.734	63.9
2658.311	54.9
2661.885	62.9
2665.456	65.9
2669.025	62.9
2672.589	61.9
2676.151	58.9
2679.71	79.9
2683.266	94.9
2686.819	64.9
2690.368	50.9
2693.915	51.9
2697.458	49.9
2700.999	58.9
2704.536	51.9
2708.071	46.9
2711.602	46.9
2715.13	38.9
2718.656	43.9
2722.178	40.9
2725.697	42.9
2729.214	46.9
2732.727	45.9
2736.237	49.9
2739.744	38.9
2743.249	46.9
2746.75	41.9
2750.248	34.9
2753.743	35.9
2757.236	30.9
2760.725	34.9
2764.211	27.9
2767.695	24.9
2771.175	25.9
2774.652	27.9
2778.127	32.9
2781.598	24.9
2785.067	25.9
2788.532	22.9
2791.995	27.9
2795.455	27.9
2798.911	27.9
2802.365	39.9
2805.816	28.9
2809.264	27.9
2812.709	36.9
2816.151	40.9
2819.59	45.9
2823.026	29.9
2826.46	35.9
2829.89	35.9
2833.318	30.9
2836.742	32.9
2840.164	31.9
2843.583	27.9
2846.999	36.9
2850.412	36.9
2853.822	35.9
2857.229	38.9
2860.634	35.9
2864.035	38.9
2867.434	36.9
2870.83	41.9
2874.223	35.9
2877.613	46.9
2881	47.9
2884.385	49.9
2887.766	58.9
2891.145	49.9
2894.521	45.9
2897.894	50.9
2901.264	49.9
2904.631	43.9
2907.996	51.9
2911.358	58.9
2914.717	49.9
2918.073	51.9
2921.426	48.9
2924.777	50.9
2928.124	52.9
2931.469	60.9
2934.811	61.9
2938.15	61.9
2941.487	69.9
2944.821	67.9
2948.152	66.9
2951.48	66.9
2954.805	66.9
2958.128	63.9
2961.447	67.9
2964.765	59.9
2968.079	56.9
2971.39	53.9
2974.699	61.9
2978.005	65.9
2981.308	58.9
2984.609	54.9
2987.907	57.9
2991.202	60.9
2994.494	52.9
2997.784	54.9
3001.07	59.9
3004.355	60.9
3007.636	66.9
3010.915	65.9
3014.191	53.9
3017.464	68.9
3020.734	68.9
3024.002	73.9
3027.267	75.9
3030.53	77.9
3033.789	77.9
3037.046	67.9
3040.301	67.9
3043.552	77.9
3046.801	83.9
3050.048	86.9
3053.291	87.9
3056.532	93.9
3059.771	90.9
3063.006	97.9
3066.239	105.9
3069.469	109.9
3072.697	114.9
3075.922	113.9
3079.144	107.9
3082.364	127.9
3085.581	127.9
3088.795	129.9
3092.007	138.9
3095.216	135.9
3098.423	133.9
3101.627	138.9
3104.828	144.9
3108.026	152.9
3111.222	143.9
3114.416	156.9
3117.607	156.9
3120.795	155.9
3123.98	156.9
3127.163	178.9
3130.344	169.9
3133.521	167.9
3136.696	173.9
3139.869	186.9
3143.039	185.9
3146.206	186.9
3149.371	187.9
3152.533	196.9
3155.693	200.9
3158.85	192.9
3162.005	197.9
3165.157	193.9
3168.306	197.9
3171.453	204.9
3174.597	193.9
3177.739	209.9
3180.878	207.9
3184.014	195.9
3187.149	201.9
3190.28	207.9
3193.409	206.9
3196.536	211.9
3199.659	205.9
3202.781	207.9
3205.9	204.9
3209.016	198.9
3212.13	200.9
3215.241	199.9
3218.35	196.9
3221.456	201.9
3224.56	192.9
3227.661	194.9
3230.76	191.9
3233.856	187.9
3236.95	183.9
3240.041	177.9
3243.13	180.9
3246.216	176.9
3249.3	165.9
3252.382	173.9
3255.46	170.9
3258.537	163.9
3261.611	163.9
3264.682	163.9
3267.751	163.9
3270.818	153.9
3273.882	161.9
3276.943	157.9
3280.002	157.9
3283.059	158.9
3286.113	152.9
3289.165	146.9
3292.214	145.9
3295.261	147.9
3298.306	138.9
3301.348	148.9
3304.387	146.9
3307.425	143.9
3310.459	134.9
3313.492	138.9
3316.521	137.9
3319.549	142.9
3322.574	135.9
3325.597	127.9
3328.617	138.9
3331.635	144.9
3334.65	139.9
3337.663	127.9
3340.674	135.9
3343.682	143.9
3346.688	138.9
3349.691	142.9
3352.692	138.9
3355.691	144.9
3358.687	140.9
3361.681	136.9
3364.673	136.9
3367.662	137.9
3370.649	130.9
3373.633	122.9
3376.615	128.9
3379.595	127.9
3382.572	122.9
3385.547	119.9
3388.52	115.9
3391.49	118.9
3394.458	106.9
3397.424	114.9
3400.387	112.9
3403.348	110.9
3406.307	95.9
3409.263	111.9
3412.217	105.9
3415.168	111.9
3418.118	102.9
3421.065	99.9
3424.009	95.9
3426.951	93.9
3429.891	96.9
3432.829	90.9
3435.764	93.9
3438.697	91.9
3441.628	72.9
3444.557	82.9
3447.483	74.9
3450.407	67.9
3453.328	73.9
3456.247	63.9
3459.164	66.9
3462.079	62.9
3464.991	50.9
3467.902	52.9
3470.809	48.9
3473.715	48.9
3476.618	42.9
3479.519	41.9
3482.418	37.9
3485.315	42.9
3488.209	31.9
3491.101	32.9
3493.99	31.9
3496.878	20.9
3499.763	18.9
3502.646	22.9
3505.527	23.9
3508.405	22.9
3511.281	13.9
3514.155	14.9
3517.027	7.9
3519.897	12.9
3522.764	7.9
3525.629	7.9
3528.492	2.9
3531.352	-5.1
3534.211	-3.1
3537.067	-5.1
3539.921	-3.1
3542.773	-13.1
3545.622	-9.1
3548.469	-6.1
3551.315	-10.1
3554.157	-8.1
3556.998	-11.1
3559.837	-13.1
3562.673	-13.1
3565.507	-17.1
3568.339	-9.1
3571.169	-19.1
3573.996	-12.1
3576.822	-26.1
3579.645	-24.1
3582.466	-21.1
3585.285	-25.1
3588.101	-27.1
3590.916	-17.1
3593.728	-30.1
3596.538	-26.1
3599.346	-32.1
3602.152	-30.1
3604.956	-25.1
3607.757	-25.1
3610.556	-31.1
3613.354	-42.1
3616.149	-37.1
3618.942	-29.1
3621.732	-34.1
3624.521	-31.1
3627.307	-29.1
3630.092	-36.1
3632.874	-33.1
3635.654	-35.1
3638.432	-27.1
3641.208	-38.1
3643.982	-34.1
3646.753	-42.1
3649.523	-34.1
3652.29	-48.1
3655.055	-38.1
3657.818	-44.1
3660.579	-41.1
3663.338	-36.1
3666.095	-48.1
3668.849	-45.1
3671.602	-41.1
3674.352	-47.1
3677.101	-42.1
3679.847	-43.1
3682.591	-49.1
3685.333	-44.1
3688.073	-45.1
3690.811	-38.1
3693.547	-45.1
3696.281	-44.1
3699.013	-45.1
3701.742	-47.1
3704.47	-44.1
3707.195	-48.1
3709.919	-49.1
3712.64	-48.1
3715.359	-42.1
3718.076	-49.1
3720.792	-48.1
3723.505	-54.1
3726.216	-49.1
3728.925	-57.1
3731.632	-50.1
3734.336	-51.1
3737.039	-46.1
3739.74	-52.1
3742.439	-61.1
3745.136	-51.1
3747.83	-55.1
3750.523	-52.1
3753.213	-54.1
3755.902	-50.1
3758.589	-54.1
3761.273	-46.1
3763.956	-50.1
3766.636	-52.1
3769.315	-44.1
3771.991	-52.1
3774.665	-52.1
3777.338	-53.1
3780.008	-54.1
3782.677	-58.1
3785.343	-53.1
3788.007	-54.1
3790.67	-52.1
3793.33	-55.1
3795.989	-58.1
3798.645	-57.1
3801.299	-49.1
3803.952	-58.1
3806.602	-51.1
3809.251	-57.1
3811.897	-56.1
3814.542	-59.1
3817.184	-48.1
3819.825	-51.1
3822.463	-50.1
3825.1	-49.1
3827.735	-57.1
3830.367	-54.1
3832.998	-55.1
3835.627	-56.1
3838.253	-51.1
3840.878	-47.1
3843.501	-47.1
3846.122	-58.1
3848.741	-58.1
3851.358	-53.1
3853.973	-50.1
3856.586	-52.1
3859.197	-52.1
3861.806	-56.1
3864.414	-57.1
3867.019	-54.1
3869.622	-50.1
3872.224	-42.1
3874.823	-30.1
3877.421	-22.1
3880.016	-5.1
3882.61	11.9
3885.202	2.9
3887.792	-1.1
3890.38	-20.1
3892.966	-41.1
3895.55	-48.1
3898.132	-51.1
3900.713	-53.1
3903.291	-59.1
3905.868	-54.1
3908.442	-55.1
3911.015	-51.1
3913.586	-62.1
3916.155	-48.1
3918.722	-57.1
3921.287	-50.1
3923.85	-49.1
3926.411	-56.1
3928.971	-61.1
3931.528	-53.1
3934.084	-53.1
3936.638	-52.1
3939.19	-58.1
3941.74	-51.1
3944.288	-52.1
3946.834	-53.1
3949.378	-56.1
3951.921	-58.1
3954.462	-57.1
3957	-47.1
3959.537	-49.1
3962.072	-48.1
3964.606	-55.1
3967.137	-54.1
3969.667	-57.1
3972.194	-55.1
3974.72	-51.1
3977.244	-46.1
3979.766	-50.1
3982.286	-49.1
3984.805	-61.1
3987.321	-51.1
3989.836	-47.1
3992.349	-50.1
3994.86	-51.1
3997.369	-52.1
3999.877	-55.1
4002.382	-55.1
4004.886	-50.1
4007.388	-59.1
4009.888	-52.1
4012.386	-55.1
4014.883	-54.1
4017.377	-52.1
4019.87	-52.1
4022.361	-61.1
4024.85	-52.1
4027.338	-56.1
4029.823	-58.1
4032.307	-57.1
4034.789	-53.1
4037.269	-54.1
4039.747	-47.1
4042.224	-55.1
4044.699	-53.1
4047.172	-52.1
4049.643	-52.1
4052.112	-54.1
4054.58	-54.1
4057.046	-53.1
4059.51	-56.1
4061.972	-58.1
4064.432	-57.1
4066.891	-58.1
4069.348	-52.1
4071.803	-49.1
4074.256	-52.1
4076.708	-51.1
4079.158	-57.1
4081.606	-55.1
4084.052	-53.1
4086.497	-51.1
4088.939	-49.1
4091.38	-55.1
4093.819	-57.1
4096.257	-60.1
4098.693	-55.1
4101.127	-53.1
4103.559	-60.1
4105.989	13.9
4108.418	10.9
4110.845	5.9
4113.27	7.9
4115.694	12.9
4118.115	7.9
4120.535	-57.1
4122.954	-50.1
4125.37	-53.1
4127.785	-48.1
4130.198	-48.1
4132.609	-53.1
4135.019	-58.1
4137.427	-63.1
4139.833	-52.1
4142.237	-60.1
