Data from 2018-3-7_conc=4_n=6_RamanShift_05.txt Node
Date: Wed Mar 07 12:07:22 IST 2018
User: aro
Spectrometer: QEPB0276
Trigger mode: 0
Integration Time (sec): 3.000000E1
Scans to average: 1
Electric dark correction enabled: true
Nonlinearity correction enabled: false
Boxcar width: 0
XAxis mode: Raman Shifts
Number of Pixels in Spectrum: 1044
>>>>>Begin Spectral Data<<<<<
160.701	11.8
166.742	20.8
172.777	46.8
178.805	145.8
184.826	382.8
190.841	820.8
196.849	1344.8
202.85	1756.8
208.845	1935.8
214.833	1933.8
220.815	1891.8
226.789	1888.8
232.758	1915.8
238.719	1920.8
244.674	1888.8
250.623	1879.8
256.565	1858.8
262.5	1828.8
268.429	1794.8
274.351	1810.8
280.267	1786.8
286.176	1764.8
292.079	1786.8
297.975	1791.8
303.865	1783.8
309.748	1764.8
315.625	1782.8
321.495	1771.8
327.359	1778.8
333.217	1772.8
339.068	1783.8
344.912	1789.8
350.751	1790.8
356.583	1780.8
362.408	1770.8
368.227	1785.8
374.04	1781.8
379.847	1788.8
385.647	1818.8
391.44	1801.8
397.228	1824.8
403.009	1831.8
408.784	1835.8
414.553	1867.8
420.315	1861.8
426.071	1856.8
431.821	1862.8
437.565	1846.8
443.302	1823.8
449.033	1854.8
454.758	1826.8
460.477	1815.8
466.189	1805.8
471.896	1785.8
477.596	1787.8
483.29	1784.8
488.978	1768.8
494.66	1769.8
500.335	1737.8
506.005	1680.8
511.668	1632.8
517.325	1579.8
522.977	1526.8
528.622	1496.8
534.261	1467.8
539.894	1443.8
545.521	1438.8
551.141	1432.8
556.756	1400.8
562.365	1405.8
567.968	1399.8
573.565	1371.8
579.155	1357.8
584.74	1360.8
590.319	1355.8
595.892	1365.8
601.459	1350.8
607.02	1343.8
612.575	1335.8
618.124	1314.8
623.667	1316.8
629.204	1299.8
634.735	1289.8
640.261	1282.8
645.781	1267.8
651.294	1263.8
656.802	1260.8
662.304	1256.8
667.8	1252.8
673.29	1277.8
678.775	1261.8
684.254	1255.8
689.726	1236.8
695.193	1242.8
700.655	1235.8
706.11	1230.8
711.56	1216.8
717.004	1197.8
722.442	1193.8
727.874	1201.8
733.301	1186.8
738.722	1173.8
744.137	1184.8
749.547	1184.8
754.951	1190.8
760.349	1188.8
765.741	1183.8
771.128	1194.8
776.509	1198.8
781.885	1200.8
787.254	1207.8
792.618	1207.8
797.977	1204.8
803.33	1196.8
808.677	1193.8
814.019	1182.8
819.355	1169.8
824.686	1157.8
830.011	1159.8
835.33	1153.8
840.644	1146.8
845.952	1149.8
851.255	1131.8
856.552	1158.8
861.844	1127.8
867.13	1107.8
872.41	1118.8
877.686	1112.8
882.955	1113.8
888.219	1095.8
893.478	1085.8
898.731	1067.8
903.979	1049.8
909.221	1031.8
914.458	1047.8
919.69	1041.8
924.916	1037.8
930.136	1034.8
935.351	1051.8
940.561	1047.8
945.766	1040.8
950.965	1043.8
956.158	1043.8
961.347	1024.8
966.529	1001.8
971.707	984.8
976.879	970.8
982.046	960.8
987.208	965.8
992.364	949.8
997.515	966.8
1002.66	972.8
1007.801	982.8
1012.936	1001.8
1018.066	994.8
1023.19	988.8
1028.309	989.8
1033.423	987.8
1038.532	986.8
1043.636	976.8
1048.734	961.8
1053.827	963.8
1058.915	949.8
1063.998	948.8
1069.075	932.8
1074.147	947.8
1079.214	946.8
1084.276	937.8
1089.333	954.8
1094.385	956.8
1099.431	939.8
1104.472	933.8
1109.509	944.8
1114.54	917.8
1119.565	910.8
1124.586	908.8
1129.602	887.8
1134.613	891.8
1139.618	875.8
1144.619	881.8
1149.614	886.8
1154.604	887.8
1159.589	882.8
1164.57	888.8
1169.545	883.8
1174.515	892.8
1179.48	879.8
1184.44	873.8
1189.395	874.8
1194.345	858.8
1199.29	848.8
1204.23	867.8
1209.165	849.8
1214.095	852.8
1219.021	861.8
1223.941	863.8
1228.856	880.8
1233.766	878.8
1238.672	890.8
1243.572	882.8
1248.467	863.8
1253.358	855.8
1258.244	849.8
1263.124	833.8
1268	811.8
1272.871	798.8
1277.737	795.8
1282.599	792.8
1287.455	790.8
1292.306	796.8
1297.153	802.8
1301.995	806.8
1306.832	821.8
1311.664	821.8
1316.491	815.8
1321.314	818.8
1326.132	811.8
1330.945	785.8
1335.753	778.8
1340.556	758.8
1345.354	745.8
1350.148	727.8
1354.937	722.8
1359.722	708.8
1364.501	679.8
1369.276	673.8
1374.046	652.8
1378.811	656.8
1383.572	660.8
1388.327	650.8
1393.079	654.8
1397.825	659.8
1402.567	668.8
1407.304	670.8
1412.036	682.8
1416.764	686.8
1421.487	671.8
1426.205	665.8
1430.919	671.8
1435.628	676.8
1440.333	675.8
1445.032	675.8
1449.727	703.8
1454.418	696.8
1459.104	684.8
1463.785	678.8
1468.462	660.8
1473.134	642.8
1477.802	632.8
1482.465	624.8
1487.123	599.8
1491.777	583.8
1496.426	600.8
1501.071	585.8
1505.711	561.8
1510.347	567.8
1514.978	563.8
1519.604	558.8
1524.226	545.8
1528.844	550.8
1533.457	545.8
1538.065	550.8
1542.669	543.8
1547.269	541.8
1551.864	545.8
1556.454	569.8
1561.041	572.8
1565.622	576.8
1570.199	574.8
1574.772	565.8
1579.34	591.8
1583.904	609.8
1588.464	613.8
1593.019	617.8
1597.569	601.8
1602.115	606.8
1606.657	607.8
1611.195	601.8
1615.728	603.8
1620.256	585.8
1624.78	595.8
1629.3	588.8
1633.816	599.8
1638.327	605.8
1642.834	601.8
1647.336	596.8
1651.834	591.8
1656.328	594.8
1660.817	595.8
1665.302	590.8
1669.783	568.8
1674.259	556.8
1678.732	544.8
1683.199	532.8
1687.663	503.8
1692.122	468.8
1696.577	455.8
1701.028	436.8
1705.474	411.8
1709.917	404.8
1714.355	392.8
1718.788	396.8
1723.218	400.8
1727.643	393.8
1732.064	406.8
1736.481	394.8
1740.893	394.8
1745.301	381.8
1749.705	374.8
1754.105	358.8
1758.501	348.8
1762.893	356.8
1767.28	345.8
1771.663	341.8
1776.042	334.8
1780.417	319.8
1784.787	317.8
1789.154	313.8
1793.516	306.8
1797.874	293.8
1802.228	294.8
1806.578	299.8
1810.924	284.8
1815.266	290.8
1819.603	280.8
1823.937	294.8
1828.266	292.8
1832.591	295.8
1836.913	297.8
1841.23	304.8
1845.543	293.8
1849.852	307.8
1854.156	302.8
1858.457	308.8
1862.754	308.8
1867.047	307.8
1871.335	293.8
1875.62	295.8
1879.9	300.8
1884.177	294.8
1888.449	302.8
1892.718	290.8
1896.982	277.8
1901.243	282.8
1905.499	270.8
1909.752	256.8
1914	259.8
1918.245	246.8
1922.485	238.8
1926.722	235.8
1930.954	241.8
1935.183	247.8
1939.408	245.8
1943.628	238.8
1947.845	240.8
1952.058	241.8
1956.267	232.8
1960.472	237.8
1964.673	222.8
1968.87	222.8
1973.063	228.8
1977.252	229.8
1981.438	227.8
1985.619	227.8
1989.797	223.8
1993.971	225.8
1998.14	227.8
2002.306	231.8
2006.469	229.8
2010.627	228.8
2014.781	235.8
2018.932	231.8
2023.078	237.8
2027.221	232.8
2031.36	231.8
2035.495	219.8
2039.627	216.8
2043.754	213.8
2047.878	211.8
2051.998	209.8
2056.114	204.8
2060.226	201.8
2064.334	207.8
2068.439	201.8
2072.54	201.8
2076.637	205.8
2080.73	202.8
2084.82	198.8
2088.906	201.8
2092.988	195.8
2097.066	194.8
2101.14	193.8
2105.211	189.8
2109.278	190.8
2113.342	176.8
2117.401	181.8
2121.457	179.8
2125.509	191.8
2129.558	175.8
2133.602	175.8
2137.643	174.8
2141.681	173.8
2145.714	177.8
2149.744	185.8
2153.77	181.8
2157.793	182.8
2161.812	173.8
2165.827	183.8
2169.838	174.8
2173.846	174.8
2177.851	171.8
2181.851	174.8
2185.848	165.8
2189.841	167.8
2193.831	163.8
2197.817	162.8
2201.799	163.8
2205.778	167.8
2209.753	170.8
2213.725	165.8
2217.693	177.8
2221.657	162.8
2225.618	151.8
2229.575	160.8
2233.529	149.8
2237.479	162.8
2241.425	148.8
2245.368	155.8
2249.307	151.8
2253.243	151.8
2257.175	146.8
2261.104	136.8
2265.029	140.8
2268.95	147.8
2272.868	137.8
2276.783	140.8
2280.694	137.8
2284.601	128.8
2288.505	138.8
2292.405	136.8
2296.302	138.8
2300.195	129.8
2304.085	129.8
2307.971	125.8
2311.854	126.8
2315.734	116.8
2319.609	129.8
2323.482	118.8
2327.351	133.8
2331.216	130.8
2335.078	146.8
2338.937	140.8
2342.792	124.8
2346.643	129.8
2350.492	130.8
2354.336	124.8
2358.178	128.8
2362.015	130.8
2365.85	120.8
2369.681	136.8
2373.508	128.8
2377.333	129.8
2381.153	128.8
2384.971	120.8
2388.785	117.8
2392.595	123.8
2396.402	132.8
2400.206	126.8
2404.007	120.8
2407.804	126.8
2411.597	125.8
2415.388	119.8
2419.174	130.8
2422.958	115.8
2426.738	122.8
2430.515	119.8
2434.289	124.8
2438.059	114.8
2441.825	116.8
2445.589	108.8
2449.349	109.8
2453.106	111.8
2456.859	104.8
2460.61	109.8
2464.356	108.8
2468.1	110.8
2471.84	109.8
2475.577	96.8
2479.311	102.8
2483.041	99.8
2486.768	99.8
2490.492	103.8
2494.213	97.8
2497.93	96.8
2501.644	97.8
2505.355	94.8
2509.062	87.8
2512.766	94.8
2516.467	92.8
2520.165	87.8
2523.859	82.8
2527.551	84.8
2531.239	80.8
2534.923	80.8
2538.605	76.8
2542.283	79.8
2545.958	80.8
2549.63	75.8
2553.299	77.8
2556.964	73.8
2560.626	72.8
2564.285	77.8
2567.941	72.8
2571.594	73.8
2575.243	72.8
2578.89	68.8
2582.533	62.8
2586.173	61.8
2589.809	70.8
2593.443	70.8
2597.073	70.8
2600.701	65.8
2604.325	53.8
2607.946	52.8
2611.564	64.8
2615.178	64.8
2618.79	67.8
2622.398	61.8
2626.004	64.8
2629.606	53.8
2633.205	56.8
2636.801	55.8
2640.394	69.8
2643.983	59.8
2647.57	53.8
2651.153	52.8
2654.734	58.8
2658.311	48.8
2661.885	64.8
2665.456	59.8
2669.025	57.8
2672.589	52.8
2676.151	51.8
2679.71	46.8
2683.266	51.8
2686.819	54.8
2690.368	50.8
2693.915	52.8
2697.458	49.8
2700.999	58.8
2704.536	52.8
2708.071	50.8
2711.602	38.8
2715.13	39.8
2718.656	44.8
2722.178	39.8
2725.697	36.8
2729.214	38.8
2732.727	39.8
2736.237	43.8
2739.744	33.8
2743.249	37.8
2746.75	28.8
2750.248	29.8
2753.743	23.8
2757.236	31.8
2760.725	28.8
2764.211	24.8
2767.695	25.8
2771.175	28.8
2774.652	25.8
2778.127	27.8
2781.598	23.8
2785.067	27.8
2788.532	21.8
2791.995	33.8
2795.455	24.8
2798.911	22.8
2802.365	22.8
2805.816	25.8
2809.264	26.8
2812.709	23.8
2816.151	33.8
2819.59	41.8
2823.026	26.8
2826.46	28.8
2829.89	31.8
2833.318	26.8
2836.742	32.8
2840.164	28.8
2843.583	28.8
2846.999	33.8
2850.412	32.8
2853.822	26.8
2857.229	36.8
2860.634	27.8
2864.035	30.8
2867.434	32.8
2870.83	39.8
2874.223	33.8
2877.613	37.8
2881	41.8
2884.385	46.8
2887.766	46.8
2891.145	40.8
2894.521	40.8
2897.894	37.8
2901.264	45.8
2904.631	41.8
2907.996	38.8
2911.358	49.8
2914.717	45.8
2918.073	44.8
2921.426	42.8
2924.777	46.8
2928.124	50.8
2931.469	51.8
2934.811	63.8
2938.15	60.8
2941.487	66.8
2944.821	58.8
2948.152	64.8
2951.48	60.8
2954.805	54.8
2958.128	56.8
2961.447	56.8
2964.765	51.8
2968.079	54.8
2971.39	43.8
2974.699	50.8
2978.005	57.8
2981.308	52.8
2984.609	50.8
2987.907	52.8
2991.202	57.8
2994.494	44.8
2997.784	45.8
3001.07	57.8
3004.355	54.8
3007.636	57.8
3010.915	54.8
3014.191	57.8
3017.464	58.8
3020.734	63.8
3024.002	60.8
3027.267	59.8
3030.53	56.8
3033.789	61.8
3037.046	62.8
3040.301	64.8
3043.552	68.8
3046.801	74.8
3050.048	71.8
3053.291	76.8
3056.532	77.8
3059.771	79.8
3063.006	88.8
3066.239	92.8
3069.469	101.8
3072.697	91.8
3075.922	101.8
3079.144	105.8
3082.364	105.8
3085.581	107.8
3088.795	111.8
3092.007	105.8
3095.216	117.8
3098.423	117.8
3101.627	116.8
3104.828	130.8
3108.026	123.8
3111.222	123.8
3114.416	133.8
3117.607	136.8
3120.795	130.8
3123.98	136.8
3127.163	147.8
3130.344	144.8
3133.521	140.8
3136.696	155.8
3139.869	154.8
3143.039	155.8
3146.206	160.8
3149.371	156.8
3152.533	168.8
3155.693	167.8
3158.85	168.8
3162.005	168.8
3165.157	167.8
3168.306	159.8
3171.453	173.8
3174.597	172.8
3177.739	168.8
3180.878	172.8
3184.014	174.8
3187.149	162.8
3190.28	169.8
3193.409	171.8
3196.536	164.8
3199.659	167.8
3202.781	173.8
3205.9	178.8
3209.016	168.8
3212.13	180.8
3215.241	171.8
3218.35	178.8
3221.456	173.8
3224.56	163.8
3227.661	161.8
3230.76	158.8
3233.856	163.8
3236.95	148.8
3240.041	144.8
3243.13	157.8
3246.216	138.8
3249.3	134.8
3252.382	142.8
3255.46	146.8
3258.537	142.8
3261.611	130.8
3264.682	138.8
3267.751	144.8
3270.818	129.8
3273.882	130.8
3276.943	133.8
3280.002	125.8
3283.059	128.8
3286.113	124.8
3289.165	122.8
3292.214	124.8
3295.261	123.8
3298.306	122.8
3301.348	124.8
3304.387	121.8
3307.425	119.8
3310.459	110.8
3313.492	113.8
3316.521	121.8
3319.549	122.8
3322.574	115.8
3325.597	116.8
3328.617	112.8
3331.635	121.8
3334.65	125.8
3337.663	108.8
3340.674	116.8
3343.682	112.8
3346.688	116.8
3349.691	123.8
3352.692	120.8
3355.691	121.8
3358.687	112.8
3361.681	112.8
3364.673	104.8
3367.662	111.8
3370.649	114.8
3373.633	108.8
3376.615	106.8
3379.595	103.8
3382.572	104.8
3385.547	103.8
3388.52	98.8
3391.49	96.8
3394.458	92.8
3397.424	92.8
3400.387	96.8
3403.348	84.8
3406.307	85.8
3409.263	79.8
3412.217	83.8
3415.168	91.8
3418.118	79.8
3421.065	74.8
3424.009	74.8
3426.951	78.8
3429.891	70.8
3432.829	80.8
3435.764	75.8
3438.697	71.8
3441.628	62.8
3444.557	66.8
3447.483	61.8
3450.407	52.8
3453.328	57.8
3456.247	51.8
3459.164	51.8
3462.079	43.8
3464.991	39.8
3467.902	40.8
3470.809	37.8
3473.715	37.8
3476.618	28.8
3479.519	26.8
3482.418	32.8
3485.315	24.8
3488.209	21.8
3491.101	16.8
3493.99	23.8
3496.878	17.8
3499.763	10.8
3502.646	9.8
3505.527	9.8
3508.405	10.8
3511.281	6.8
3514.155	3.8
3517.027	-1.2
3519.897	-1.2
3522.764	-0.2
3525.629	-8.2
3528.492	-4.2
3531.352	-9.2
3534.211	-14.2
3537.067	-9.2
3539.921	-6.2
3542.773	-16.2
3545.622	-11.2
3548.469	-14.2
3551.315	-15.2
3554.157	-14.2
3556.998	-17.2
3559.837	-18.2
3562.673	-18.2
3565.507	-17.2
3568.339	-18.2
3571.169	-22.2
3573.996	-19.2
3576.822	-23.2
3579.645	-23.2
3582.466	-30.2
3585.285	-27.2
3588.101	-33.2
3590.916	-20.2
3593.728	-31.2
3596.538	-31.2
3599.346	-31.2
3602.152	-30.2
3604.956	-27.2
3607.757	-23.2
3610.556	-27.2
3613.354	-35.2
3616.149	-38.2
3618.942	-32.2
3621.732	-36.2
3624.521	-35.2
3627.307	-32.2
3630.092	-40.2
3632.874	-38.2
3635.654	-42.2
3638.432	-36.2
3641.208	-35.2
3643.982	-29.2
3646.753	-36.2
3649.523	-37.2
3652.29	-35.2
3655.055	-36.2
3657.818	-46.2
3660.579	-39.2
3663.338	-37.2
3666.095	-41.2
3668.849	-42.2
3671.602	-41.2
3674.352	-44.2
3677.101	-48.2
3679.847	-39.2
3682.591	-55.2
3685.333	-42.2
3688.073	-49.2
3690.811	-42.2
3693.547	-48.2
3696.281	-42.2
3699.013	-46.2
3701.742	-47.2
3704.47	-39.2
3707.195	-47.2
3709.919	-47.2
3712.64	-47.2
3715.359	-46.2
3718.076	-51.2
3720.792	-47.2
3723.505	-49.2
3726.216	-43.2
3728.925	-50.2
3731.632	-49.2
3734.336	-50.2
3737.039	-46.2
3739.74	-53.2
3742.439	-58.2
3745.136	-51.2
3747.83	-51.2
3750.523	-49.2
3753.213	-45.2
3755.902	-45.2
3758.589	-47.2
3761.273	-46.2
3763.956	-50.2
3766.636	-40.2
3769.315	-44.2
3771.991	-44.2
3774.665	-53.2
3777.338	-50.2
3780.008	-51.2
3782.677	-57.2
3785.343	-53.2
3788.007	-49.2
3790.67	-53.2
3793.33	-54.2
3795.989	-50.2
3798.645	-54.2
3801.299	-50.2
3803.952	-49.2
3806.602	-50.2
3809.251	-50.2
3811.897	-55.2
3814.542	-51.2
3817.184	-46.2
3819.825	-44.2
3822.463	-46.2
3825.1	-47.2
3827.735	-52.2
3830.367	-49.2
3832.998	-51.2
3835.627	-51.2
3838.253	-53.2
3840.878	-48.2
3843.501	-50.2
3846.122	-54.2
3848.741	-54.2
3851.358	-46.2
3853.973	-46.2
3856.586	-47.2
3859.197	-50.2
3861.806	-49.2
3864.414	-55.2
3867.019	-47.2
3869.622	-46.2
3872.224	-42.2
3874.823	-34.2
3877.421	-30.2
3880.016	-22.2
3882.61	-11.2
3885.202	-10.2
3887.792	-18.2
3890.38	-29.2
3892.966	-42.2
3895.55	-49.2
3898.132	-49.2
3900.713	-55.2
3903.291	-52.2
3905.868	-49.2
3908.442	-49.2
3911.015	-48.2
3913.586	-56.2
3916.155	-50.2
3918.722	-53.2
3921.287	-54.2
3923.85	-47.2
3926.411	-55.2
3928.971	-63.2
3931.528	-53.2
3934.084	-52.2
3936.638	-53.2
3939.19	-59.2
3941.74	-52.2
3944.288	-48.2
3946.834	-54.2
3949.378	-50.2
3951.921	-51.2
3954.462	-49.2
3957	-48.2
3959.537	-43.2
3962.072	-50.2
3964.606	-49.2
3967.137	-52.2
3969.667	-53.2
3972.194	-50.2
3974.72	-49.2
3977.244	-46.2
3979.766	-51.2
3982.286	-53.2
3984.805	-57.2
3987.321	-50.2
3989.836	-50.2
3992.349	-52.2
3994.86	-53.2
3997.369	-52.2
3999.877	-50.2
4002.382	-45.2
4004.886	-49.2
4007.388	-51.2
4009.888	-49.2
4012.386	-56.2
4014.883	-47.2
4017.377	-46.2
4019.87	-50.2
4022.361	-58.2
4024.85	-53.2
4027.338	-57.2
4029.823	-54.2
4032.307	-59.2
4034.789	-51.2
4037.269	-53.2
4039.747	-51.2
4042.224	-54.2
4044.699	-54.2
4047.172	-55.2
4049.643	-57.2
4052.112	-54.2
4054.58	-49.2
4057.046	-53.2
4059.51	-52.2
4061.972	-54.2
4064.432	-57.2
4066.891	-52.2
4069.348	-50.2
4071.803	-50.2
4074.256	-52.2
4076.708	-49.2
4079.158	-55.2
4081.606	-51.2
4084.052	-48.2
4086.497	-47.2
4088.939	-44.2
4091.38	-57.2
4093.819	-55.2
4096.257	-56.2
4098.693	-52.2
4101.127	-48.2
4103.559	-58.2
4105.989	14.8
4108.418	6.8
4110.845	5.8
4113.27	6.8
4115.694	9.8
4118.115	11.8
4120.535	-50.2
4122.954	-50.2
4125.37	-49.2
4127.785	-45.2
4130.198	-48.2
4132.609	-53.2
4135.019	-56.2
4137.427	-57.2
4139.833	-55.2
4142.237	-56.2
