Data from 2018-3-7_conc=6_n=6_RamanShift_01.txt Node
Date: Wed Mar 07 13:12:22 IST 2018
User: aro
Spectrometer: QEPB0276
Trigger mode: 0
Integration Time (sec): 3.000000E1
Scans to average: 1
Electric dark correction enabled: true
Nonlinearity correction enabled: false
Boxcar width: 0
XAxis mode: Raman Shifts
Number of Pixels in Spectrum: 1044
>>>>>Begin Spectral Data<<<<<
160.701	10.9
166.742	17.9
172.777	52.9
178.805	143.9
184.826	383.9
190.841	837.9
196.849	1407.9
202.85	1828.9
208.845	2009.9
214.833	2015.9
220.815	1974.9
226.789	1977.9
232.758	1975.9
238.719	1973.9
244.674	1962.9
250.623	1945.9
256.565	1918.9
262.5	1876.9
268.429	1860.9
274.351	1842.9
280.267	1820.9
286.176	1813.9
292.079	1808.9
297.975	1838.9
303.865	1806.9
309.748	1798.9
315.625	1808.9
321.495	1784.9
327.359	1802.9
333.217	1803.9
339.068	1793.9
344.912	1806.9
350.751	1809.9
356.583	1803.9
362.408	1800.9
368.227	1803.9
374.04	1812.9
379.847	1818.9
385.647	1814.9
391.44	1839.9
397.228	1831.9
403.009	1845.9
408.784	1854.9
414.553	1868.9
420.315	1864.9
426.071	1880.9
431.821	1869.9
437.565	1869.9
443.302	1862.9
449.033	1866.9
454.758	1847.9
460.477	1838.9
466.189	1810.9
471.896	1815.9
477.596	1806.9
483.29	1801.9
488.978	1807.9
494.66	1797.9
500.335	1771.9
506.005	1701.9
511.668	1642.9
517.325	1600.9
522.977	1549.9
528.622	1511.9
534.261	1501.9
539.894	1476.9
545.521	1462.9
551.141	1465.9
556.756	1452.9
562.365	1443.9
567.968	1416.9
573.565	1413.9
579.155	1409.9
584.74	1417.9
590.319	1394.9
595.892	1402.9
601.459	1379.9
607.02	1399.9
612.575	1380.9
618.124	1357.9
623.667	1368.9
629.204	1323.9
634.735	1314.9
640.261	1316.9
645.781	1305.9
651.294	1309.9
656.802	1282.9
662.304	1291.9
667.8	1300.9
673.29	1277.9
678.775	1283.9
684.254	1278.9
689.726	1271.9
695.193	1283.9
700.655	1255.9
706.11	1249.9
711.56	1248.9
717.004	1229.9
722.442	1221.9
727.874	1221.9
733.301	1226.9
738.722	1199.9
744.137	1214.9
749.547	1220.9
754.951	1202.9
760.349	1209.9
765.741	1213.9
771.128	1219.9
776.509	1235.9
781.885	1241.9
787.254	1254.9
792.618	1227.9
797.977	1222.9
803.33	1217.9
808.677	1225.9
814.019	1209.9
819.355	1190.9
824.686	1196.9
830.011	1191.9
835.33	1181.9
840.644	1171.9
845.952	1166.9
851.255	1157.9
856.552	1171.9
861.844	1165.9
867.13	1150.9
872.41	1158.9
877.686	1141.9
882.955	1139.9
888.219	1125.9
893.478	1108.9
898.731	1100.9
903.979	1073.9
909.221	1082.9
914.458	1057.9
919.69	1075.9
924.916	1074.9
930.136	1069.9
935.351	1086.9
940.561	1085.9
945.766	1070.9
950.965	1063.9
956.158	1052.9
961.347	1039.9
966.529	1034.9
971.707	1000.9
976.879	1002.9
982.046	997.9
987.208	994.9
992.364	983.9
997.515	996.9
1002.66	1008.9
1007.801	1013.9
1012.936	1015.9
1018.066	1028.9
1023.19	1020.9
1028.309	1009.9
1033.423	1010.9
1038.532	1008.9
1043.636	1006.9
1048.734	988.9
1053.827	973.9
1058.915	970.9
1063.998	954.9
1069.075	946.9
1074.147	955.9
1079.214	951.9
1084.276	968.9
1089.333	974.9
1094.385	977.9
1099.431	974.9
1104.472	959.9
1109.509	953.9
1114.54	934.9
1119.565	942.9
1124.586	911.9
1129.602	920.9
1134.613	913.9
1139.618	899.9
1144.619	900.9
1149.614	906.9
1154.604	892.9
1159.589	910.9
1164.57	897.9
1169.545	910.9
1174.515	902.9
1179.48	915.9
1184.44	906.9
1189.395	889.9
1194.345	873.9
1199.29	868.9
1204.23	873.9
1209.165	878.9
1214.095	875.9
1219.021	895.9
1223.941	893.9
1228.856	894.9
1233.766	898.9
1238.672	916.9
1243.572	899.9
1248.467	887.9
1253.358	885.9
1258.244	869.9
1263.124	848.9
1268	840.9
1272.871	827.9
1277.737	819.9
1282.599	819.9
1287.455	830.9
1292.306	821.9
1297.153	814.9
1301.995	824.9
1306.832	832.9
1311.664	833.9
1316.491	845.9
1321.314	836.9
1326.132	833.9
1330.945	809.9
1335.753	798.9
1340.556	787.9
1345.354	774.9
1350.148	760.9
1354.937	743.9
1359.722	732.9
1364.501	716.9
1369.276	697.9
1374.046	688.9
1378.811	685.9
1383.572	672.9
1388.327	677.9
1393.079	674.9
1397.825	688.9
1402.567	680.9
1407.304	691.9
1412.036	695.9
1416.764	697.9
1421.487	695.9
1426.205	682.9
1430.919	689.9
1435.628	692.9
1440.333	704.9
1445.032	708.9
1449.727	729.9
1454.418	719.9
1459.104	711.9
1463.785	699.9
1468.462	697.9
1473.134	669.9
1477.802	656.9
1482.465	644.9
1487.123	624.9
1491.777	611.9
1496.426	605.9
1501.071	595.9
1505.711	584.9
1510.347	586.9
1514.978	580.9
1519.604	576.9
1524.226	574.9
1528.844	565.9
1533.457	567.9
1538.065	563.9
1542.669	562.9
1547.269	555.9
1551.864	575.9
1556.454	586.9
1561.041	584.9
1565.622	593.9
1570.199	600.9
1574.772	604.9
1579.34	610.9
1583.904	614.9
1588.464	624.9
1593.019	623.9
1597.569	623.9
1602.115	624.9
1606.657	627.9
1611.195	618.9
1615.728	621.9
1620.256	624.9
1624.78	617.9
1629.3	625.9
1633.816	626.9
1638.327	617.9
1642.834	614.9
1647.336	622.9
1651.834	627.9
1656.328	629.9
1660.817	630.9
1665.302	603.9
1669.783	598.9
1674.259	580.9
1678.732	579.9
1683.199	556.9
1687.663	529.9
1692.122	502.9
1696.577	482.9
1701.028	461.9
1705.474	422.9
1709.917	407.9
1714.355	409.9
1718.788	416.9
1723.218	402.9
1727.643	404.9
1732.064	404.9
1736.481	411.9
1740.893	389.9
1745.301	403.9
1749.705	381.9
1754.105	375.9
1758.501	364.9
1762.893	364.9
1767.28	356.9
1771.663	352.9
1776.042	340.9
1780.417	335.9
1784.787	346.9
1789.154	326.9
1793.516	309.9
1797.874	304.9
1802.228	301.9
1806.578	294.9
1810.924	293.9
1815.266	295.9
1819.603	289.9
1823.937	299.9
1828.266	302.9
1832.591	305.9
1836.913	303.9
1841.23	305.9
1845.543	301.9
1849.852	317.9
1854.156	320.9
1858.457	314.9
1862.754	312.9
1867.047	311.9
1871.335	311.9
1875.62	297.9
1879.9	318.9
1884.177	293.9
1888.449	299.9
1892.718	297.9
1896.982	299.9
1901.243	276.9
1905.499	271.9
1909.752	269.9
1914	261.9
1918.245	262.9
1922.485	259.9
1926.722	249.9
1930.954	248.9
1935.183	246.9
1939.408	246.9
1943.628	240.9
1947.845	237.9
1952.058	233.9
1956.267	234.9
1960.472	237.9
1964.673	227.9
1968.87	225.9
1973.063	231.9
1977.252	229.9
1981.438	236.9
1985.619	228.9
1989.797	232.9
1993.971	235.9
1998.14	238.9
2002.306	236.9
2006.469	245.9
2010.627	237.9
2014.781	233.9
2018.932	236.9
2023.078	242.9
2027.221	245.9
2031.36	243.9
2035.495	231.9
2039.627	227.9
2043.754	231.9
2047.878	223.9
2051.998	223.9
2056.114	213.9
2060.226	216.9
2064.334	213.9
2068.439	205.9
2072.54	201.9
2076.637	203.9
2080.73	210.9
2084.82	209.9
2088.906	197.9
2092.988	198.9
2097.066	198.9
2101.14	193.9
2105.211	195.9
2109.278	182.9
2113.342	184.9
2117.401	182.9
2121.457	180.9
2125.509	184.9
2129.558	183.9
2133.602	185.9
2137.643	187.9
2141.681	181.9
2145.714	184.9
2149.744	187.9
2153.77	183.9
2157.793	192.9
2161.812	187.9
2165.827	188.9
2169.838	178.9
2173.846	178.9
2177.851	170.9
2181.851	168.9
2185.848	170.9
2189.841	171.9
2193.831	167.9
2197.817	176.9
2201.799	177.9
2205.778	166.9
2209.753	171.9
2213.725	166.9
2217.693	176.9
2221.657	164.9
2225.618	169.9
2229.575	163.9
2233.529	161.9
2237.479	164.9
2241.425	160.9
2245.368	166.9
2249.307	159.9
2253.243	160.9
2257.175	156.9
2261.104	143.9
2265.029	137.9
2268.95	151.9
2272.868	148.9
2276.783	140.9
2280.694	133.9
2284.601	131.9
2288.505	147.9
2292.405	139.9
2296.302	141.9
2300.195	143.9
2304.085	123.9
2307.971	136.9
2311.854	125.9
2315.734	129.9
2319.609	130.9
2323.482	125.9
2327.351	134.9
2331.216	136.9
2335.078	144.9
2338.937	134.9
2342.792	129.9
2346.643	130.9
2350.492	133.9
2354.336	125.9
2358.178	124.9
2362.015	126.9
2365.85	128.9
2369.681	135.9
2373.508	131.9
2377.333	134.9
2381.153	126.9
2384.971	124.9
2388.785	125.9
2392.595	118.9
2396.402	131.9
2400.206	132.9
2404.007	121.9
2407.804	122.9
2411.597	123.9
2415.388	124.9
2419.174	137.9
2422.958	117.9
2426.738	126.9
2430.515	123.9
2434.289	123.9
2438.059	116.9
2441.825	112.9
2445.589	108.9
2449.349	110.9
2453.106	116.9
2456.859	112.9
2460.61	109.9
2464.356	106.9
2468.1	108.9
2471.84	108.9
2475.577	93.9
2479.311	102.9
2483.041	112.9
2486.768	103.9
2490.492	112.9
2494.213	100.9
2497.93	112.9
2501.644	107.9
2505.355	93.9
2509.062	95.9
2512.766	96.9
2516.467	97.9
2520.165	92.9
2523.859	90.9
2527.551	86.9
2531.239	88.9
2534.923	83.9
2538.605	83.9
2542.283	77.9
2545.958	92.9
2549.63	82.9
2553.299	86.9
2556.964	70.9
2560.626	80.9
2564.285	78.9
2567.941	79.9
2571.594	72.9
2575.243	75.9
2578.89	72.9
2582.533	71.9
2586.173	63.9
2589.809	72.9
2593.443	80.9
2597.073	72.9
2600.701	76.9
2604.325	64.9
2607.946	61.9
2611.564	69.9
2615.178	70.9
2618.79	63.9
2622.398	72.9
2626.004	65.9
2629.606	59.9
2633.205	62.9
2636.801	60.9
2640.394	67.9
2643.983	56.9
2647.57	58.9
2651.153	57.9
2654.734	58.9
2658.311	56.9
2661.885	64.9
2665.456	63.9
2669.025	60.9
2672.589	55.9
2676.151	52.9
2679.71	50.9
2683.266	47.9
2686.819	54.9
2690.368	51.9
2693.915	49.9
2697.458	47.9
2700.999	49.9
2704.536	49.9
2708.071	43.9
2711.602	36.9
2715.13	34.9
2718.656	35.9
2722.178	39.9
2725.697	40.9
2729.214	35.9
2732.727	44.9
2736.237	38.9
2739.744	34.9
2743.249	42.9
2746.75	35.9
2750.248	32.9
2753.743	32.9
2757.236	33.9
2760.725	25.9
2764.211	23.9
2767.695	19.9
2771.175	27.9
2774.652	24.9
2778.127	26.9
2781.598	20.9
2785.067	27.9
2788.532	24.9
2791.995	29.9
2795.455	19.9
2798.911	20.9
2802.365	24.9
2805.816	25.9
2809.264	29.9
2812.709	23.9
2816.151	29.9
2819.59	39.9
2823.026	26.9
2826.46	33.9
2829.89	28.9
2833.318	31.9
2836.742	37.9
2840.164	25.9
2843.583	28.9
2846.999	34.9
2850.412	31.9
2853.822	28.9
2857.229	38.9
2860.634	27.9
2864.035	32.9
2867.434	32.9
2870.83	37.9
2874.223	39.9
2877.613	39.9
2881	43.9
2884.385	39.9
2887.766	46.9
2891.145	35.9
2894.521	46.9
2897.894	39.9
2901.264	44.9
2904.631	38.9
2907.996	39.9
2911.358	52.9
2914.717	51.9
2918.073	44.9
2921.426	46.9
2924.777	51.9
2928.124	57.9
2931.469	52.9
2934.811	60.9
2938.15	61.9
2941.487	66.9
2944.821	58.9
2948.152	67.9
2951.48	56.9
2954.805	56.9
2958.128	55.9
2961.447	55.9
2964.765	53.9
2968.079	47.9
2971.39	55.9
2974.699	54.9
2978.005	63.9
2981.308	54.9
2984.609	50.9
2987.907	57.9
2991.202	52.9
2994.494	57.9
2997.784	45.9
3001.07	54.9
3004.355	60.9
3007.636	60.9
3010.915	59.9
3014.191	51.9
3017.464	61.9
3020.734	65.9
3024.002	66.9
3027.267	66.9
3030.53	63.9
3033.789	63.9
3037.046	68.9
3040.301	69.9
3043.552	77.9
3046.801	84.9
3050.048	81.9
3053.291	82.9
3056.532	86.9
3059.771	94.9
3063.006	94.9
3066.239	99.9
3069.469	105.9
3072.697	103.9
3075.922	111.9
3079.144	109.9
3082.364	117.9
3085.581	122.9
3088.795	125.9
3092.007	131.9
3095.216	130.9
3098.423	133.9
3101.627	123.9
3104.828	133.9
3108.026	141.9
3111.222	142.9
3114.416	135.9
3117.607	143.9
3120.795	148.9
3123.98	158.9
3127.163	167.9
3130.344	162.9
3133.521	163.9
3136.696	175.9
3139.869	167.9
3143.039	176.9
3146.206	177.9
3149.371	174.9
3152.533	192.9
3155.693	192.9
3158.85	183.9
3162.005	185.9
3165.157	189.9
3168.306	181.9
3171.453	185.9
3174.597	178.9
3177.739	187.9
3180.878	187.9
3184.014	183.9
3187.149	194.9
3190.28	195.9
3193.409	192.9
3196.536	187.9
3199.659	198.9
3202.781	197.9
3205.9	193.9
3209.016	189.9
3212.13	195.9
3215.241	190.9
3218.35	189.9
3221.456	186.9
3224.56	183.9
3227.661	184.9
3230.76	183.9
3233.856	173.9
3236.95	162.9
3240.041	166.9
3243.13	170.9
3246.216	159.9
3249.3	163.9
3252.382	159.9
3255.46	160.9
3258.537	161.9
3261.611	149.9
3264.682	149.9
3267.751	153.9
3270.818	138.9
3273.882	152.9
3276.943	150.9
3280.002	151.9
3283.059	138.9
3286.113	139.9
3289.165	126.9
3292.214	130.9
3295.261	132.9
3298.306	134.9
3301.348	135.9
3304.387	133.9
3307.425	128.9
3310.459	127.9
3313.492	128.9
3316.521	129.9
3319.549	134.9
3322.574	121.9
3325.597	129.9
3328.617	130.9
3331.635	140.9
3334.65	141.9
3337.663	129.9
3340.674	132.9
3343.682	129.9
3346.688	126.9
3349.691	130.9
3352.692	127.9
3355.691	134.9
3358.687	128.9
3361.681	120.9
3364.673	127.9
3367.662	124.9
3370.649	126.9
3373.633	114.9
3376.615	116.9
3379.595	112.9
3382.572	112.9
3385.547	120.9
3388.52	110.9
3391.49	107.9
3394.458	107.9
3397.424	104.9
3400.387	101.9
3403.348	101.9
3406.307	93.9
3409.263	98.9
3412.217	98.9
3415.168	103.9
3418.118	96.9
3421.065	86.9
3424.009	93.9
3426.951	82.9
3429.891	81.9
3432.829	77.9
3435.764	87.9
3438.697	76.9
3441.628	69.9
3444.557	71.9
3447.483	68.9
3450.407	58.9
3453.328	63.9
3456.247	54.9
3459.164	58.9
3462.079	44.9
3464.991	53.9
3467.902	43.9
3470.809	43.9
3473.715	44.9
3476.618	39.9
3479.519	33.9
3482.418	34.9
3485.315	27.9
3488.209	23.9
3491.101	20.9
3493.99	22.9
3496.878	19.9
3499.763	15.9
3502.646	18.9
3505.527	17.9
3508.405	14.9
3511.281	16.9
3514.155	8.9
3517.027	5.9
3519.897	11.9
3522.764	5.9
3525.629	4.9
3528.492	-0.1
3531.352	-7.1
3534.211	-5.1
3537.067	-7.1
3539.921	-6.1
3542.773	-19.1
3545.622	-11.1
3548.469	-11.1
3551.315	-10.1
3554.157	-16.1
3556.998	-16.1
3559.837	-18.1
3562.673	-19.1
3565.507	-20.1
3568.339	-14.1
3571.169	-16.1
3573.996	-18.1
3576.822	-28.1
3579.645	-21.1
3582.466	-24.1
3585.285	-24.1
3588.101	-29.1
3590.916	-25.1
3593.728	-33.1
3596.538	-35.1
3599.346	-28.1
3602.152	-27.1
3604.956	-31.1
3607.757	-28.1
3610.556	-32.1
3613.354	-41.1
3616.149	-38.1
3618.942	-32.1
3621.732	-38.1
3624.521	-37.1
3627.307	-37.1
3630.092	-40.1
3632.874	-39.1
3635.654	-39.1
3638.432	-36.1
3641.208	-38.1
3643.982	-37.1
3646.753	-38.1
3649.523	-42.1
3652.29	-42.1
3655.055	-34.1
3657.818	-44.1
3660.579	-47.1
3663.338	-41.1
3666.095	-48.1
3668.849	-47.1
3671.602	-45.1
3674.352	-40.1
3677.101	-46.1
3679.847	-45.1
3682.591	-51.1
3685.333	-50.1
3688.073	-52.1
3690.811	-44.1
3693.547	-50.1
3696.281	-45.1
3699.013	-47.1
3701.742	-51.1
3704.47	-45.1
3707.195	-50.1
3709.919	-47.1
3712.64	-52.1
3715.359	-49.1
3718.076	-46.1
3720.792	-50.1
3723.505	-56.1
3726.216	-50.1
3728.925	-56.1
3731.632	-51.1
3734.336	-54.1
3737.039	-56.1
3739.74	-52.1
3742.439	-62.1
3745.136	-57.1
3747.83	-57.1
3750.523	-55.1
3753.213	-54.1
3755.902	-51.1
3758.589	-50.1
3761.273	-49.1
3763.956	-54.1
3766.636	-47.1
3769.315	-44.1
3771.991	-53.1
3774.665	-53.1
3777.338	-54.1
3780.008	-56.1
3782.677	-56.1
3785.343	-53.1
3788.007	-51.1
3790.67	-54.1
3793.33	-57.1
3795.989	-57.1
3798.645	-58.1
3801.299	-54.1
3803.952	-53.1
3806.602	-59.1
3809.251	-58.1
3811.897	-59.1
3814.542	-60.1
3817.184	-57.1
3819.825	-51.1
3822.463	-53.1
3825.1	-49.1
3827.735	-62.1
3830.367	-56.1
3832.998	-54.1
3835.627	-52.1
3838.253	-50.1
3840.878	-42.1
3843.501	-47.1
3846.122	-55.1
3848.741	-52.1
3851.358	-57.1
3853.973	-54.1
3856.586	-54.1
3859.197	-50.1
3861.806	-57.1
3864.414	-55.1
3867.019	-57.1
3869.622	-54.1
3872.224	-42.1
3874.823	-39.1
3877.421	-26.1
3880.016	-17.1
3882.61	7.9
3885.202	8.9
3887.792	-1.1
3890.38	-24.1
3892.966	-40.1
3895.55	-48.1
3898.132	-49.1
3900.713	-53.1
3903.291	-56.1
3905.868	-56.1
3908.442	-54.1
3911.015	-54.1
3913.586	-59.1
3916.155	-54.1
3918.722	-60.1
3921.287	-59.1
3923.85	-51.1
3926.411	-56.1
3928.971	-66.1
3931.528	-60.1
3934.084	-51.1
3936.638	-51.1
3939.19	-63.1
3941.74	-55.1
3944.288	-51.1
3946.834	-51.1
3949.378	-51.1
3951.921	-55.1
3954.462	-55.1
3957	-49.1
3959.537	-45.1
3962.072	-51.1
3964.606	-53.1
3967.137	-54.1
3969.667	-56.1
3972.194	-53.1
3974.72	-53.1
3977.244	-55.1
3979.766	-59.1
3982.286	-57.1
3984.805	-62.1
3987.321	-58.1
3989.836	-50.1
3992.349	-54.1
3994.86	-55.1
3997.369	-53.1
3999.877	-55.1
4002.382	-53.1
4004.886	-50.1
4007.388	-59.1
4009.888	-53.1
4012.386	-52.1
4014.883	-49.1
4017.377	-48.1
4019.87	-52.1
4022.361	-57.1
4024.85	-55.1
4027.338	-56.1
4029.823	-52.1
4032.307	-56.1
4034.789	-53.1
4037.269	-59.1
4039.747	-59.1
4042.224	-61.1
4044.699	-60.1
4047.172	-61.1
4049.643	-60.1
4052.112	-58.1
4054.58	-55.1
4057.046	-58.1
4059.51	-57.1
4061.972	-55.1
4064.432	-51.1
4066.891	-46.1
4069.348	-51.1
4071.803	-53.1
4074.256	-52.1
4076.708	-52.1
4079.158	-56.1
4081.606	-55.1
4084.052	-56.1
4086.497	-55.1
4088.939	-51.1
4091.38	-57.1
4093.819	-62.1
4096.257	-58.1
4098.693	-57.1
4101.127	-55.1
4103.559	-58.1
4105.989	6.9
4108.418	4.9
4110.845	-0.1
4113.27	4.9
4115.694	11.9
4118.115	9.9
4120.535	-59.1
4122.954	-52.1
4125.37	-53.1
4127.785	-56.1
4130.198	-54.1
4132.609	-55.1
4135.019	-53.1
4137.427	-58.1
4139.833	-56.1
4142.237	-58.1
