Data from 2018-3-7_conc=5_n=1_RamanShift_05.txt Node
Date: Wed Mar 07 12:24:52 IST 2018
User: aro
Spectrometer: QEPB0276
Trigger mode: 0
Integration Time (sec): 3.000000E1
Scans to average: 1
Electric dark correction enabled: true
Nonlinearity correction enabled: false
Boxcar width: 0
XAxis mode: Raman Shifts
Number of Pixels in Spectrum: 1044
>>>>>Begin Spectral Data<<<<<
160.701	7.1
166.742	21.1
172.777	46.1
178.805	156.1
184.826	401.1
190.841	849.1
196.849	1408.1
202.85	1851.1
208.845	2036.1
214.833	2049.1
220.815	2000.1
226.789	2001.1
232.758	2007.1
238.719	2024.1
244.674	2014.1
250.623	1986.1
256.565	1955.1
262.5	1922.1
268.429	1915.1
274.351	1898.1
280.267	1886.1
286.176	1894.1
292.079	1898.1
297.975	1866.1
303.865	1885.1
309.748	1862.1
315.625	1866.1
321.495	1851.1
327.359	1882.1
333.217	1851.1
339.068	1887.1
344.912	1889.1
350.751	1896.1
356.583	1856.1
362.408	1881.1
368.227	1872.1
374.04	1890.1
379.847	1878.1
385.647	1902.1
391.44	1915.1
397.228	1913.1
403.009	1942.1
408.784	1938.1
414.553	1949.1
420.315	1940.1
426.071	1963.1
431.821	1945.1
437.565	1938.1
443.302	1919.1
449.033	1954.1
454.758	1912.1
460.477	1915.1
466.189	1893.1
471.896	1886.1
477.596	1897.1
483.29	1854.1
488.978	1861.1
494.66	1856.1
500.335	1839.1
506.005	1776.1
511.668	1718.1
517.325	1684.1
522.977	1606.1
528.622	1583.1
534.261	1567.1
539.894	1546.1
545.521	1531.1
551.141	1514.1
556.756	1524.1
562.365	1498.1
567.968	1484.1
573.565	1480.1
579.155	1469.1
584.74	1457.1
590.319	1470.1
595.892	1480.1
601.459	1448.1
607.02	1447.1
612.575	1441.1
618.124	1433.1
623.667	1420.1
629.204	1388.1
634.735	1380.1
640.261	1381.1
645.781	1370.1
651.294	1368.1
656.802	1357.1
662.304	1357.1
667.8	1352.1
673.29	1349.1
678.775	1354.1
684.254	1347.1
689.726	1343.1
695.193	1329.1
700.655	1317.1
706.11	1325.1
711.56	1300.1
717.004	1297.1
722.442	1300.1
727.874	1283.1
733.301	1293.1
738.722	1263.1
744.137	1266.1
749.547	1280.1
754.951	1268.1
760.349	1265.1
765.741	1280.1
771.128	1268.1
776.509	1274.1
781.885	1296.1
787.254	1302.1
792.618	1295.1
797.977	1296.1
803.33	1286.1
808.677	1281.1
814.019	1280.1
819.355	1252.1
824.686	1224.1
830.011	1232.1
835.33	1244.1
840.644	1241.1
845.952	1237.1
851.255	1226.1
856.552	1220.1
861.844	1214.1
867.13	1202.1
872.41	1200.1
877.686	1203.1
882.955	1188.1
888.219	1188.1
893.478	1159.1
898.731	1142.1
903.979	1123.1
909.221	1126.1
914.458	1114.1
919.69	1119.1
924.916	1127.1
930.136	1127.1
935.351	1139.1
940.561	1133.1
945.766	1130.1
950.965	1130.1
956.158	1113.1
961.347	1087.1
966.529	1085.1
971.707	1065.1
976.879	1048.1
982.046	1042.1
987.208	1054.1
992.364	1037.1
997.515	1040.1
1002.66	1042.1
1007.801	1070.1
1012.936	1075.1
1018.066	1061.1
1023.19	1072.1
1028.309	1082.1
1033.423	1071.1
1038.532	1075.1
1043.636	1051.1
1048.734	1041.1
1053.827	1027.1
1058.915	1018.1
1063.998	1018.1
1069.075	996.1
1074.147	1006.1
1079.214	1008.1
1084.276	1024.1
1089.333	1030.1
1094.385	1020.1
1099.431	1017.1
1104.472	1024.1
1109.509	1013.1
1114.54	999.1
1119.565	990.1
1124.586	977.1
1129.602	977.1
1134.613	957.1
1139.618	937.1
1144.619	946.1
1149.614	964.1
1154.604	957.1
1159.589	946.1
1164.57	965.1
1169.545	948.1
1174.515	955.1
1179.48	956.1
1184.44	942.1
1189.395	947.1
1194.345	926.1
1199.29	920.1
1204.23	932.1
1209.165	928.1
1214.095	930.1
1219.021	927.1
1223.941	943.1
1228.856	949.1
1233.766	955.1
1238.672	938.1
1243.572	948.1
1248.467	944.1
1253.358	927.1
1258.244	917.1
1263.124	899.1
1268	891.1
1272.871	883.1
1277.737	872.1
1282.599	873.1
1287.455	867.1
1292.306	863.1
1297.153	870.1
1301.995	866.1
1306.832	887.1
1311.664	877.1
1316.491	893.1
1321.314	868.1
1326.132	871.1
1330.945	852.1
1335.753	847.1
1340.556	830.1
1345.354	806.1
1350.148	793.1
1354.937	785.1
1359.722	761.1
1364.501	755.1
1369.276	729.1
1374.046	720.1
1378.811	711.1
1383.572	715.1
1388.327	704.1
1393.079	700.1
1397.825	720.1
1402.567	723.1
1407.304	726.1
1412.036	724.1
1416.764	724.1
1421.487	729.1
1426.205	725.1
1430.919	727.1
1435.628	740.1
1440.333	748.1
1445.032	738.1
1449.727	761.1
1454.418	752.1
1459.104	742.1
1463.785	717.1
1468.462	713.1
1473.134	696.1
1477.802	690.1
1482.465	667.1
1487.123	658.1
1491.777	644.1
1496.426	630.1
1501.071	625.1
1505.711	619.1
1510.347	609.1
1514.978	606.1
1519.604	604.1
1524.226	590.1
1528.844	594.1
1533.457	594.1
1538.065	590.1
1542.669	588.1
1547.269	589.1
1551.864	588.1
1556.454	604.1
1561.041	627.1
1565.622	615.1
1570.199	618.1
1574.772	628.1
1579.34	635.1
1583.904	638.1
1588.464	654.1
1593.019	655.1
1597.569	656.1
1602.115	659.1
1606.657	652.1
1611.195	653.1
1615.728	646.1
1620.256	652.1
1624.78	651.1
1629.3	650.1
1633.816	634.1
1638.327	647.1
1642.834	644.1
1647.336	629.1
1651.834	637.1
1656.328	637.1
1660.817	641.1
1665.302	634.1
1669.783	624.1
1674.259	599.1
1678.732	588.1
1683.199	564.1
1687.663	548.1
1692.122	510.1
1696.577	485.1
1701.028	478.1
1705.474	445.1
1709.917	431.1
1714.355	422.1
1718.788	432.1
1723.218	419.1
1727.643	422.1
1732.064	432.1
1736.481	430.1
1740.893	415.1
1745.301	405.1
1749.705	403.1
1754.105	388.1
1758.501	377.1
1762.893	385.1
1767.28	372.1
1771.663	359.1
1776.042	352.1
1780.417	356.1
1784.787	353.1
1789.154	335.1
1793.516	325.1
1797.874	326.1
1802.228	321.1
1806.578	314.1
1810.924	308.1
1815.266	310.1
1819.603	311.1
1823.937	319.1
1828.266	320.1
1832.591	326.1
1836.913	312.1
1841.23	322.1
1845.543	322.1
1849.852	329.1
1854.156	340.1
1858.457	324.1
1862.754	341.1
1867.047	325.1
1871.335	332.1
1875.62	319.1
1879.9	328.1
1884.177	311.1
1888.449	315.1
1892.718	313.1
1896.982	300.1
1901.243	291.1
1905.499	286.1
1909.752	284.1
1914	277.1
1918.245	265.1
1922.485	266.1
1926.722	269.1
1930.954	260.1
1935.183	261.1
1939.408	266.1
1943.628	253.1
1947.845	258.1
1952.058	245.1
1956.267	248.1
1960.472	248.1
1964.673	237.1
1968.87	245.1
1973.063	242.1
1977.252	243.1
1981.438	246.1
1985.619	241.1
1989.797	242.1
1993.971	245.1
1998.14	251.1
2002.306	250.1
2006.469	253.1
2010.627	256.1
2014.781	250.1
2018.932	251.1
2023.078	254.1
2027.221	250.1
2031.36	249.1
2035.495	248.1
2039.627	234.1
2043.754	242.1
2047.878	232.1
2051.998	237.1
2056.114	229.1
2060.226	229.1
2064.334	225.1
2068.439	216.1
2072.54	218.1
2076.637	217.1
2080.73	221.1
2084.82	225.1
2088.906	218.1
2092.988	207.1
2097.066	212.1
2101.14	207.1
2105.211	206.1
2109.278	208.1
2113.342	197.1
2117.401	203.1
2121.457	192.1
2125.509	193.1
2129.558	192.1
2133.602	184.1
2137.643	193.1
2141.681	186.1
2145.714	191.1
2149.744	195.1
2153.77	195.1
2157.793	183.1
2161.812	201.1
2165.827	197.1
2169.838	198.1
2173.846	187.1
2177.851	191.1
2181.851	187.1
2185.848	186.1
2189.841	176.1
2193.831	181.1
2197.817	186.1
2201.799	177.1
2205.778	174.1
2209.753	183.1
2213.725	174.1
2217.693	184.1
2221.657	173.1
2225.618	172.1
2229.575	176.1
2233.529	172.1
2237.479	174.1
2241.425	164.1
2245.368	174.1
2249.307	164.1
2253.243	157.1
2257.175	168.1
2261.104	152.1
2265.029	163.1
2268.95	168.1
2272.868	160.1
2276.783	143.1
2280.694	145.1
2284.601	142.1
2288.505	152.1
2292.405	147.1
2296.302	150.1
2300.195	151.1
2304.085	137.1
2307.971	135.1
2311.854	139.1
2315.734	133.1
2319.609	147.1
2323.482	133.1
2327.351	151.1
2331.216	147.1
2335.078	155.1
2338.937	147.1
2342.792	138.1
2346.643	144.1
2350.492	150.1
2354.336	132.1
2358.178	130.1
2362.015	140.1
2365.85	138.1
2369.681	139.1
2373.508	137.1
2377.333	139.1
2381.153	139.1
2384.971	135.1
2388.785	135.1
2392.595	137.1
2396.402	146.1
2400.206	137.1
2404.007	136.1
2407.804	136.1
2411.597	136.1
2415.388	134.1
2419.174	145.1
2422.958	135.1
2426.738	134.1
2430.515	134.1
2434.289	140.1
2438.059	123.1
2441.825	123.1
2445.589	127.1
2449.349	123.1
2453.106	127.1
2456.859	115.1
2460.61	123.1
2464.356	124.1
2468.1	120.1
2471.84	122.1
2475.577	111.1
2479.311	115.1
2483.041	114.1
2486.768	112.1
2490.492	113.1
2494.213	108.1
2497.93	108.1
2501.644	111.1
2505.355	102.1
2509.062	103.1
2512.766	98.1
2516.467	102.1
2520.165	93.1
2523.859	104.1
2527.551	93.1
2531.239	94.1
2534.923	90.1
2538.605	94.1
2542.283	88.1
2545.958	95.1
2549.63	97.1
2553.299	93.1
2556.964	85.1
2560.626	82.1
2564.285	82.1
2567.941	83.1
2571.594	82.1
2575.243	86.1
2578.89	79.1
2582.533	70.1
2586.173	76.1
2589.809	82.1
2593.443	84.1
2597.073	74.1
2600.701	72.1
2604.325	67.1
2607.946	57.1
2611.564	69.1
2615.178	79.1
2618.79	77.1
2622.398	80.1
2626.004	68.1
2629.606	69.1
2633.205	69.1
2636.801	70.1
2640.394	73.1
2643.983	68.1
2647.57	62.1
2651.153	57.1
2654.734	64.1
2658.311	64.1
2661.885	67.1
2665.456	64.1
2669.025	67.1
2672.589	54.1
2676.151	58.1
2679.71	56.1
2683.266	61.1
2686.819	64.1
2690.368	62.1
2693.915	60.1
2697.458	56.1
2700.999	65.1
2704.536	59.1
2708.071	52.1
2711.602	47.1
2715.13	41.1
2718.656	50.1
2722.178	47.1
2725.697	45.1
2729.214	48.1
2732.727	48.1
2736.237	51.1
2739.744	41.1
2743.249	43.1
2746.75	42.1
2750.248	30.1
2753.743	42.1
2757.236	32.1
2760.725	32.1
2764.211	28.1
2767.695	25.1
2771.175	27.1
2774.652	29.1
2778.127	29.1
2781.598	26.1
2785.067	31.1
2788.532	31.1
2791.995	34.1
2795.455	27.1
2798.911	32.1
2802.365	39.1
2805.816	32.1
2809.264	37.1
2812.709	32.1
2816.151	38.1
2819.59	44.1
2823.026	30.1
2826.46	32.1
2829.89	32.1
2833.318	32.1
2836.742	35.1
2840.164	35.1
2843.583	34.1
2846.999	41.1
2850.412	36.1
2853.822	42.1
2857.229	37.1
2860.634	37.1
2864.035	34.1
2867.434	40.1
2870.83	44.1
2874.223	40.1
2877.613	42.1
2881	43.1
2884.385	48.1
2887.766	48.1
2891.145	45.1
2894.521	47.1
2897.894	45.1
2901.264	40.1
2904.631	44.1
2907.996	51.1
2911.358	53.1
2914.717	46.1
2918.073	48.1
2921.426	51.1
2924.777	58.1
2928.124	54.1
2931.469	57.1
2934.811	63.1
2938.15	69.1
2941.487	74.1
2944.821	64.1
2948.152	63.1
2951.48	62.1
2954.805	62.1
2958.128	61.1
2961.447	56.1
2964.765	48.1
2968.079	52.1
2971.39	56.1
2974.699	52.1
2978.005	62.1
2981.308	57.1
2984.609	52.1
2987.907	53.1
2991.202	57.1
2994.494	58.1
2997.784	54.1
3001.07	57.1
3004.355	58.1
3007.636	65.1
3010.915	62.1
3014.191	60.1
3017.464	68.1
3020.734	68.1
3024.002	66.1
3027.267	70.1
3030.53	66.1
3033.789	59.1
3037.046	69.1
3040.301	67.1
3043.552	78.1
3046.801	75.1
3050.048	78.1
3053.291	80.1
3056.532	85.1
3059.771	87.1
3063.006	94.1
3066.239	87.1
3069.469	104.1
3072.697	112.1
3075.922	112.1
3079.144	102.1
3082.364	118.1
3085.581	116.1
3088.795	121.1
3092.007	127.1
3095.216	128.1
3098.423	126.1
3101.627	119.1
3104.828	133.1
3108.026	136.1
3111.222	135.1
3114.416	143.1
3117.607	139.1
3120.795	146.1
3123.98	150.1
3127.163	156.1
3130.344	156.1
3133.521	164.1
3136.696	159.1
3139.869	167.1
3143.039	166.1
3146.206	174.1
3149.371	177.1
3152.533	179.1
3155.693	193.1
3158.85	178.1
3162.005	180.1
3165.157	179.1
3168.306	178.1
3171.453	181.1
3174.597	179.1
3177.739	184.1
3180.878	187.1
3184.014	179.1
3187.149	187.1
3190.28	189.1
3193.409	186.1
3196.536	183.1
3199.659	193.1
3202.781	186.1
3205.9	184.1
3209.016	187.1
3212.13	185.1
3215.241	191.1
3218.35	174.1
3221.456	183.1
3224.56	175.1
3227.661	169.1
3230.76	165.1
3233.856	170.1
3236.95	160.1
3240.041	160.1
3243.13	160.1
3246.216	153.1
3249.3	150.1
3252.382	156.1
3255.46	159.1
3258.537	154.1
3261.611	148.1
3264.682	144.1
3267.751	154.1
3270.818	143.1
3273.882	145.1
3276.943	143.1
3280.002	143.1
3283.059	138.1
3286.113	138.1
3289.165	135.1
3292.214	138.1
3295.261	132.1
3298.306	136.1
3301.348	138.1
3304.387	126.1
3307.425	130.1
3310.459	123.1
3313.492	136.1
3316.521	128.1
3319.549	133.1
3322.574	128.1
3325.597	126.1
3328.617	129.1
3331.635	126.1
3334.65	130.1
3337.663	119.1
3340.674	121.1
3343.682	126.1
3346.688	128.1
3349.691	129.1
3352.692	122.1
3355.691	127.1
3358.687	122.1
3361.681	119.1
3364.673	119.1
3367.662	123.1
3370.649	121.1
3373.633	116.1
3376.615	119.1
3379.595	113.1
3382.572	100.1
3385.547	115.1
3388.52	103.1
3391.49	102.1
3394.458	95.1
3397.424	96.1
3400.387	99.1
3403.348	92.1
3406.307	89.1
3409.263	98.1
3412.217	91.1
3415.168	98.1
3418.118	91.1
3421.065	79.1
3424.009	84.1
3426.951	82.1
3429.891	83.1
3432.829	88.1
3435.764	84.1
3438.697	78.1
3441.628	71.1
3444.557	67.1
3447.483	69.1
3450.407	59.1
3453.328	61.1
3456.247	59.1
3459.164	50.1
3462.079	50.1
3464.991	49.1
3467.902	42.1
3470.809	39.1
3473.715	36.1
3476.618	31.1
3479.519	28.1
3482.418	29.1
3485.315	30.1
3488.209	25.1
3491.101	27.1
3493.99	27.1
3496.878	15.1
3499.763	18.1
3502.646	19.1
3505.527	12.1
3508.405	11.1
3511.281	8.1
3514.155	5.1
3517.027	-0.9
3519.897	11.1
3522.764	1.1
3525.629	-2.9
3528.492	1.1
3531.352	-5.9
3534.211	-11.9
3537.067	-9.9
3539.921	-5.9
3542.773	-10.9
3545.622	-3.9
3548.469	-10.9
3551.315	-7.9
3554.157	-16.9
3556.998	-17.9
3559.837	-14.9
3562.673	-15.9
3565.507	-20.9
3568.339	-18.9
3571.169	-17.9
3573.996	-20.9
3576.822	-31.9
3579.645	-22.9
3582.466	-24.9
3585.285	-30.9
3588.101	-26.9
3590.916	-27.9
3593.728	-27.9
3596.538	-33.9
3599.346	-31.9
3602.152	-32.9
3604.956	-28.9
3607.757	-23.9
3610.556	-32.9
3613.354	-36.9
3616.149	-39.9
3618.942	-33.9
3621.732	-36.9
3624.521	-34.9
3627.307	-39.9
3630.092	-42.9
3632.874	-38.9
3635.654	-36.9
3638.432	-37.9
3641.208	-36.9
3643.982	-33.9
3646.753	-37.9
3649.523	-33.9
3652.29	-37.9
3655.055	-36.9
3657.818	-38.9
3660.579	-44.9
3663.338	-36.9
3666.095	-43.9
3668.849	-47.9
3671.602	-44.9
3674.352	-38.9
3677.101	-38.9
3679.847	-43.9
3682.591	-44.9
3685.333	-46.9
3688.073	-50.9
3690.811	-47.9
3693.547	-45.9
3696.281	-41.9
3699.013	-48.9
3701.742	-50.9
3704.47	-42.9
3707.195	-42.9
3709.919	-44.9
3712.64	-46.9
3715.359	-51.9
3718.076	-49.9
3720.792	-51.9
3723.505	-48.9
3726.216	-44.9
3728.925	-49.9
3731.632	-48.9
3734.336	-52.9
3737.039	-47.9
3739.74	-50.9
3742.439	-61.9
3745.136	-50.9
3747.83	-51.9
3750.523	-52.9
3753.213	-62.9
3755.902	-51.9
3758.589	-49.9
3761.273	-52.9
3763.956	-48.9
3766.636	-45.9
3769.315	-45.9
3771.991	-46.9
3774.665	-48.9
3777.338	-53.9
3780.008	-53.9
3782.677	-55.9
3785.343	-51.9
3788.007	-54.9
3790.67	-56.9
3793.33	-52.9
3795.989	-56.9
3798.645	-50.9
3801.299	-48.9
3803.952	-54.9
3806.602	-55.9
3809.251	-53.9
3811.897	-51.9
3814.542	-57.9
3817.184	-52.9
3819.825	-48.9
3822.463	-49.9
3825.1	-50.9
3827.735	-58.9
3830.367	-55.9
3832.998	-52.9
3835.627	-57.9
3838.253	-48.9
3840.878	-51.9
3843.501	-51.9
3846.122	-52.9
3848.741	-51.9
3851.358	-52.9
3853.973	-50.9
3856.586	-52.9
3859.197	-52.9
3861.806	-51.9
3864.414	-54.9
3867.019	-52.9
3869.622	-49.9
3872.224	-40.9
3874.823	-33.9
3877.421	-28.9
3880.016	-17.9
3882.61	2.1
3885.202	-3.9
3887.792	-8.9
3890.38	-23.9
3892.966	-41.9
3895.55	-49.9
3898.132	-52.9
3900.713	-50.9
3903.291	-55.9
3905.868	-50.9
3908.442	-53.9
3911.015	-51.9
3913.586	-57.9
3916.155	-53.9
3918.722	-54.9
3921.287	-52.9
3923.85	-49.9
3926.411	-52.9
3928.971	-59.9
3931.528	-51.9
3934.084	-56.9
3936.638	-50.9
3939.19	-58.9
3941.74	-49.9
3944.288	-54.9
3946.834	-53.9
3949.378	-52.9
3951.921	-51.9
3954.462	-59.9
3957	-46.9
3959.537	-47.9
3962.072	-48.9
3964.606	-50.9
3967.137	-51.9
3969.667	-53.9
3972.194	-53.9
3974.72	-49.9
3977.244	-50.9
3979.766	-49.9
3982.286	-51.9
3984.805	-58.9
3987.321	-47.9
3989.836	-52.9
3992.349	-52.9
3994.86	-56.9
3997.369	-54.9
3999.877	-52.9
4002.382	-54.9
4004.886	-49.9
4007.388	-54.9
4009.888	-50.9
4012.386	-54.9
4014.883	-56.9
4017.377	-46.9
4019.87	-59.9
4022.361	-56.9
4024.85	-53.9
4027.338	-54.9
4029.823	-52.9
4032.307	-56.9
4034.789	-48.9
4037.269	-51.9
4039.747	-51.9
4042.224	-52.9
4044.699	-54.9
4047.172	-56.9
4049.643	-51.9
4052.112	-52.9
4054.58	-55.9
4057.046	-51.9
4059.51	-59.9
4061.972	-56.9
4064.432	-53.9
4066.891	-48.9
4069.348	-48.9
4071.803	-47.9
4074.256	-52.9
4076.708	-58.9
4079.158	-55.9
4081.606	-49.9
4084.052	-50.9
4086.497	-47.9
4088.939	-53.9
4091.38	-54.9
4093.819	-55.9
4096.257	-49.9
4098.693	-53.9
4101.127	-49.9
4103.559	-55.9
4105.989	13.1
4108.418	5.1
4110.845	1.1
4113.27	-1.9
4115.694	8.1
4118.115	6.1
4120.535	-53.9
4122.954	-47.9
4125.37	-51.9
4127.785	-49.9
4130.198	-52.9
4132.609	-56.9
4135.019	-57.9
4137.427	-57.9
4139.833	-57.9
4142.237	-56.9
