Data from 2018-3-7_conc=0_n=10_RamanShift_05.txt Node
Date: Wed Mar 07 10:37:52 IST 2018
User: aro
Spectrometer: QEPB0276
Trigger mode: 0
Integration Time (sec): 3.000000E1
Scans to average: 1
Electric dark correction enabled: true
Nonlinearity correction enabled: false
Boxcar width: 0
XAxis mode: Raman Shifts
Number of Pixels in Spectrum: 1044
>>>>>Begin Spectral Data<<<<<
160.701	8.6
166.742	17.6
172.777	55.6
178.805	148.6
184.826	383.6
190.841	796.6
196.849	1319.6
202.85	1691.6
208.845	1856.6
214.833	1862.6
220.815	1858.6
226.789	1834.6
232.758	1862.6
238.719	1881.6
244.674	1867.6
250.623	1837.6
256.565	1852.6
262.5	1823.6
268.429	1806.6
274.351	1810.6
280.267	1786.6
286.176	1814.6
292.079	1814.6
297.975	1782.6
303.865	1801.6
309.748	1797.6
315.625	1800.6
321.495	1790.6
327.359	1803.6
333.217	1810.6
339.068	1800.6
344.912	1826.6
350.751	1830.6
356.583	1829.6
362.408	1815.6
368.227	1843.6
374.04	1868.6
379.847	1861.6
385.647	1863.6
391.44	1888.6
397.228	1876.6
403.009	1893.6
408.784	1925.6
414.553	1923.6
420.315	1943.6
426.071	1916.6
431.821	1945.6
437.565	1936.6
443.302	1921.6
449.033	1922.6
454.758	1908.6
460.477	1904.6
466.189	1877.6
471.896	1858.6
477.596	1836.6
483.29	1823.6
488.978	1838.6
494.66	1827.6
500.335	1782.6
506.005	1708.6
511.668	1625.6
517.325	1566.6
522.977	1508.6
528.622	1468.6
534.261	1433.6
539.894	1398.6
545.521	1381.6
551.141	1378.6
556.756	1345.6
562.365	1355.6
567.968	1323.6
573.565	1304.6
579.155	1317.6
584.74	1312.6
590.319	1319.6
595.892	1307.6
601.459	1297.6
607.02	1285.6
612.575	1292.6
618.124	1269.6
623.667	1249.6
629.204	1220.6
634.735	1222.6
640.261	1222.6
645.781	1210.6
651.294	1215.6
656.802	1200.6
662.304	1187.6
667.8	1195.6
673.29	1199.6
678.775	1192.6
684.254	1183.6
689.726	1176.6
695.193	1173.6
700.655	1160.6
706.11	1159.6
711.56	1150.6
717.004	1150.6
722.442	1119.6
727.874	1126.6
733.301	1132.6
738.722	1132.6
744.137	1113.6
749.547	1104.6
754.951	1110.6
760.349	1105.6
765.741	1130.6
771.128	1108.6
776.509	1132.6
781.885	1157.6
787.254	1166.6
792.618	1164.6
797.977	1148.6
803.33	1148.6
808.677	1136.6
814.019	1135.6
819.355	1127.6
824.686	1113.6
830.011	1106.6
835.33	1108.6
840.644	1106.6
845.952	1081.6
851.255	1092.6
856.552	1085.6
861.844	1074.6
867.13	1070.6
872.41	1066.6
877.686	1107.6
882.955	1106.6
888.219	1084.6
893.478	1060.6
898.731	1021.6
903.979	998.6
909.221	998.6
914.458	985.6
919.69	978.6
924.916	979.6
930.136	967.6
935.351	972.6
940.561	989.6
945.766	965.6
950.965	967.6
956.158	954.6
961.347	947.6
966.529	950.6
971.707	910.6
976.879	908.6
982.046	899.6
987.208	897.6
992.364	905.6
997.515	895.6
1002.66	902.6
1007.801	928.6
1012.936	923.6
1018.066	940.6
1023.19	928.6
1028.309	941.6
1033.423	949.6
1038.532	930.6
1043.636	932.6
1048.734	928.6
1053.827	924.6
1058.915	916.6
1063.998	904.6
1069.075	891.6
1074.147	890.6
1079.214	896.6
1084.276	912.6
1089.333	923.6
1094.385	907.6
1099.431	896.6
1104.472	895.6
1109.509	888.6
1114.54	862.6
1119.565	849.6
1124.586	847.6
1129.602	829.6
1134.613	829.6
1139.618	824.6
1144.619	832.6
1149.614	840.6
1154.604	828.6
1159.589	829.6
1164.57	839.6
1169.545	822.6
1174.515	831.6
1179.48	813.6
1184.44	823.6
1189.395	817.6
1194.345	792.6
1199.29	804.6
1204.23	802.6
1209.165	802.6
1214.095	808.6
1219.021	810.6
1223.941	811.6
1228.856	806.6
1233.766	816.6
1238.672	815.6
1243.572	825.6
1248.467	822.6
1253.358	802.6
1258.244	806.6
1263.124	768.6
1268	762.6
1272.871	759.6
1277.737	742.6
1282.599	767.6
1287.455	749.6
1292.306	747.6
1297.153	733.6
1301.995	745.6
1306.832	746.6
1311.664	755.6
1316.491	757.6
1321.314	753.6
1326.132	753.6
1330.945	730.6
1335.753	723.6
1340.556	691.6
1345.354	693.6
1350.148	693.6
1354.937	663.6
1359.722	646.6
1364.501	636.6
1369.276	633.6
1374.046	612.6
1378.811	617.6
1383.572	623.6
1388.327	617.6
1393.079	617.6
1397.825	618.6
1402.567	621.6
1407.304	621.6
1412.036	631.6
1416.764	628.6
1421.487	633.6
1426.205	630.6
1430.919	631.6
1435.628	635.6
1440.333	641.6
1445.032	648.6
1449.727	665.6
1454.418	668.6
1459.104	671.6
1463.785	656.6
1468.462	636.6
1473.134	618.6
1477.802	590.6
1482.465	583.6
1487.123	562.6
1491.777	548.6
1496.426	535.6
1501.071	544.6
1505.711	523.6
1510.347	527.6
1514.978	526.6
1519.604	516.6
1524.226	510.6
1528.844	521.6
1533.457	520.6
1538.065	508.6
1542.669	512.6
1547.269	505.6
1551.864	516.6
1556.454	530.6
1561.041	538.6
1565.622	539.6
1570.199	536.6
1574.772	534.6
1579.34	538.6
1583.904	536.6
1588.464	566.6
1593.019	566.6
1597.569	560.6
1602.115	563.6
1606.657	551.6
1611.195	548.6
1615.728	554.6
1620.256	548.6
1624.78	545.6
1629.3	543.6
1633.816	534.6
1638.327	554.6
1642.834	535.6
1647.336	537.6
1651.834	545.6
1656.328	532.6
1660.817	527.6
1665.302	525.6
1669.783	517.6
1674.259	501.6
1678.732	493.6
1683.199	478.6
1687.663	465.6
1692.122	431.6
1696.577	415.6
1701.028	409.6
1705.474	381.6
1709.917	373.6
1714.355	367.6
1718.788	372.6
1723.218	374.6
1727.643	371.6
1732.064	373.6
1736.481	377.6
1740.893	353.6
1745.301	354.6
1749.705	351.6
1754.105	330.6
1758.501	327.6
1762.893	327.6
1767.28	316.6
1771.663	309.6
1776.042	311.6
1780.417	304.6
1784.787	296.6
1789.154	285.6
1793.516	279.6
1797.874	270.6
1802.228	278.6
1806.578	274.6
1810.924	270.6
1815.266	284.6
1819.603	277.6
1823.937	278.6
1828.266	277.6
1832.591	281.6
1836.913	279.6
1841.23	266.6
1845.543	279.6
1849.852	275.6
1854.156	293.6
1858.457	277.6
1862.754	279.6
1867.047	278.6
1871.335	275.6
1875.62	270.6
1879.9	285.6
1884.177	261.6
1888.449	266.6
1892.718	249.6
1896.982	258.6
1901.243	244.6
1905.499	247.6
1909.752	246.6
1914	233.6
1918.245	239.6
1922.485	233.6
1926.722	217.6
1930.954	227.6
1935.183	217.6
1939.408	222.6
1943.628	217.6
1947.845	211.6
1952.058	223.6
1956.267	207.6
1960.472	224.6
1964.673	212.6
1968.87	204.6
1973.063	200.6
1977.252	208.6
1981.438	209.6
1985.619	208.6
1989.797	210.6
1993.971	217.6
1998.14	223.6
2002.306	213.6
2006.469	223.6
2010.627	213.6
2014.781	213.6
2018.932	204.6
2023.078	217.6
2027.221	205.6
2031.36	210.6
2035.495	197.6
2039.627	189.6
2043.754	196.6
2047.878	200.6
2051.998	195.6
2056.114	191.6
2060.226	185.6
2064.334	183.6
2068.439	176.6
2072.54	184.6
2076.637	182.6
2080.73	180.6
2084.82	187.6
2088.906	175.6
2092.988	178.6
2097.066	175.6
2101.14	173.6
2105.211	170.6
2109.278	170.6
2113.342	166.6
2117.401	162.6
2121.457	160.6
2125.509	165.6
2129.558	159.6
2133.602	164.6
2137.643	165.6
2141.681	160.6
2145.714	174.6
2149.744	162.6
2153.77	167.6
2157.793	162.6
2161.812	177.6
2165.827	170.6
2169.838	160.6
2173.846	162.6
2177.851	158.6
2181.851	153.6
2185.848	152.6
2189.841	145.6
2193.831	154.6
2197.817	159.6
2201.799	154.6
2205.778	151.6
2209.753	153.6
2213.725	151.6
2217.693	155.6
2221.657	150.6
2225.618	144.6
2229.575	138.6
2233.529	146.6
2237.479	142.6
2241.425	144.6
2245.368	144.6
2249.307	146.6
2253.243	136.6
2257.175	140.6
2261.104	138.6
2265.029	135.6
2268.95	135.6
2272.868	130.6
2276.783	122.6
2280.694	126.6
2284.601	119.6
2288.505	129.6
2292.405	131.6
2296.302	128.6
2300.195	124.6
2304.085	117.6
2307.971	120.6
2311.854	110.6
2315.734	111.6
2319.609	116.6
2323.482	110.6
2327.351	120.6
2331.216	136.6
2335.078	146.6
2338.937	135.6
2342.792	118.6
2346.643	114.6
2350.492	117.6
2354.336	118.6
2358.178	106.6
2362.015	118.6
2365.85	118.6
2369.681	119.6
2373.508	126.6
2377.333	121.6
2381.153	110.6
2384.971	106.6
2388.785	109.6
2392.595	111.6
2396.402	118.6
2400.206	114.6
2404.007	121.6
2407.804	113.6
2411.597	114.6
2415.388	115.6
2419.174	113.6
2422.958	113.6
2426.738	115.6
2430.515	105.6
2434.289	109.6
2438.059	100.6
2441.825	105.6
2445.589	99.6
2449.349	104.6
2453.106	107.6
2456.859	98.6
2460.61	94.6
2464.356	92.6
2468.1	93.6
2471.84	92.6
2475.577	86.6
2479.311	93.6
2483.041	92.6
2486.768	95.6
2490.492	97.6
2494.213	85.6
2497.93	88.6
2501.644	84.6
2505.355	75.6
2509.062	80.6
2512.766	78.6
2516.467	78.6
2520.165	79.6
2523.859	84.6
2527.551	80.6
2531.239	78.6
2534.923	70.6
2538.605	68.6
2542.283	67.6
2545.958	74.6
2549.63	75.6
2553.299	71.6
2556.964	62.6
2560.626	66.6
2564.285	71.6
2567.941	67.6
2571.594	63.6
2575.243	67.6
2578.89	61.6
2582.533	62.6
2586.173	55.6
2589.809	60.6
2593.443	61.6
2597.073	56.6
2600.701	63.6
2604.325	53.6
2607.946	50.6
2611.564	55.6
2615.178	53.6
2618.79	58.6
2622.398	47.6
2626.004	50.6
2629.606	52.6
2633.205	55.6
2636.801	59.6
2640.394	60.6
2643.983	50.6
2647.57	45.6
2651.153	44.6
2654.734	50.6
2658.311	45.6
2661.885	52.6
2665.456	52.6
2669.025	53.6
2672.589	43.6
2676.151	46.6
2679.71	42.6
2683.266	49.6
2686.819	47.6
2690.368	45.6
2693.915	42.6
2697.458	37.6
2700.999	46.6
2704.536	46.6
2708.071	43.6
2711.602	39.6
2715.13	31.6
2718.656	40.6
2722.178	38.6
2725.697	32.6
2729.214	29.6
2732.727	35.6
2736.237	35.6
2739.744	24.6
2743.249	31.6
2746.75	32.6
2750.248	30.6
2753.743	25.6
2757.236	23.6
2760.725	21.6
2764.211	18.6
2767.695	20.6
2771.175	18.6
2774.652	19.6
2778.127	22.6
2781.598	23.6
2785.067	20.6
2788.532	21.6
2791.995	28.6
2795.455	22.6
2798.911	23.6
2802.365	28.6
2805.816	19.6
2809.264	22.6
2812.709	19.6
2816.151	29.6
2819.59	34.6
2823.026	24.6
2826.46	30.6
2829.89	21.6
2833.318	25.6
2836.742	33.6
2840.164	25.6
2843.583	29.6
2846.999	27.6
2850.412	31.6
2853.822	27.6
2857.229	34.6
2860.634	32.6
2864.035	37.6
2867.434	31.6
2870.83	44.6
2874.223	38.6
2877.613	47.6
2881	52.6
2884.385	44.6
2887.766	49.6
2891.145	52.6
2894.521	54.6
2897.894	53.6
2901.264	52.6
2904.631	43.6
2907.996	52.6
2911.358	59.6
2914.717	50.6
2918.073	42.6
2921.426	50.6
2924.777	58.6
2928.124	57.6
2931.469	59.6
2934.811	68.6
2938.15	73.6
2941.487	77.6
2944.821	71.6
2948.152	67.6
2951.48	61.6
2954.805	62.6
2958.128	59.6
2961.447	51.6
2964.765	44.6
2968.079	50.6
2971.39	47.6
2974.699	47.6
2978.005	54.6
2981.308	51.6
2984.609	52.6
2987.907	50.6
2991.202	49.6
2994.494	48.6
2997.784	40.6
3001.07	42.6
3004.355	42.6
3007.636	50.6
3010.915	48.6
3014.191	45.6
3017.464	48.6
3020.734	52.6
3024.002	54.6
3027.267	50.6
3030.53	54.6
3033.789	57.6
3037.046	50.6
3040.301	52.6
3043.552	55.6
3046.801	63.6
3050.048	62.6
3053.291	58.6
3056.532	61.6
3059.771	66.6
3063.006	73.6
3066.239	71.6
3069.469	73.6
3072.697	77.6
3075.922	86.6
3079.144	81.6
3082.364	94.6
3085.581	82.6
3088.795	92.6
3092.007	94.6
3095.216	88.6
3098.423	93.6
3101.627	93.6
3104.828	97.6
3108.026	99.6
3111.222	108.6
3114.416	109.6
3117.607	109.6
3120.795	112.6
3123.98	112.6
3127.163	119.6
3130.344	119.6
3133.521	121.6
3136.696	123.6
3139.869	134.6
3143.039	131.6
3146.206	139.6
3149.371	139.6
3152.533	153.6
3155.693	137.6
3158.85	138.6
3162.005	140.6
3165.157	141.6
3168.306	135.6
3171.453	144.6
3174.597	137.6
3177.739	147.6
3180.878	149.6
3184.014	142.6
3187.149	146.6
3190.28	146.6
3193.409	154.6
3196.536	139.6
3199.659	144.6
3202.781	146.6
3205.9	143.6
3209.016	142.6
3212.13	140.6
3215.241	141.6
3218.35	135.6
3221.456	146.6
3224.56	136.6
3227.661	133.6
3230.76	127.6
3233.856	128.6
3236.95	118.6
3240.041	119.6
3243.13	119.6
3246.216	106.6
3249.3	109.6
3252.382	111.6
3255.46	118.6
3258.537	105.6
3261.611	98.6
3264.682	109.6
3267.751	103.6
3270.818	96.6
3273.882	102.6
3276.943	99.6
3280.002	100.6
3283.059	100.6
3286.113	100.6
3289.165	103.6
3292.214	92.6
3295.261	98.6
3298.306	99.6
3301.348	101.6
3304.387	89.6
3307.425	87.6
3310.459	87.6
3313.492	89.6
3316.521	92.6
3319.549	99.6
3322.574	93.6
3325.597	88.6
3328.617	90.6
3331.635	92.6
3334.65	98.6
3337.663	83.6
3340.674	86.6
3343.682	89.6
3346.688	81.6
3349.691	99.6
3352.692	87.6
3355.691	95.6
3358.687	84.6
3361.681	86.6
3364.673	92.6
3367.662	83.6
3370.649	87.6
3373.633	79.6
3376.615	86.6
3379.595	79.6
3382.572	79.6
3385.547	76.6
3388.52	77.6
3391.49	67.6
3394.458	66.6
3397.424	74.6
3400.387	76.6
3403.348	57.6
3406.307	60.6
3409.263	63.6
3412.217	63.6
3415.168	71.6
3418.118	61.6
3421.065	63.6
3424.009	53.6
3426.951	53.6
3429.891	50.6
3432.829	53.6
3435.764	52.6
3438.697	48.6
3441.628	40.6
3444.557	46.6
3447.483	39.6
3450.407	37.6
3453.328	41.6
3456.247	35.6
3459.164	28.6
3462.079	30.6
3464.991	27.6
3467.902	17.6
3470.809	19.6
3473.715	22.6
3476.618	16.6
3479.519	15.6
3482.418	17.6
3485.315	8.6
3488.209	8.6
3491.101	2.6
3493.99	8.6
3496.878	2.6
3499.763	3.6
3502.646	-2.4
3505.527	-3.4
3508.405	-0.4
3511.281	-5.4
3514.155	0.6
3517.027	-6.4
3519.897	-4.4
3522.764	-6.4
3525.629	-6.4
3528.492	-16.4
3531.352	-22.4
3534.211	-20.4
3537.067	-18.4
3539.921	-17.4
3542.773	-27.4
3545.622	-21.4
3548.469	-23.4
3551.315	-20.4
3554.157	-27.4
3556.998	-26.4
3559.837	-25.4
3562.673	-29.4
3565.507	-26.4
3568.339	-22.4
3571.169	-24.4
3573.996	-22.4
3576.822	-37.4
3579.645	-31.4
3582.466	-26.4
3585.285	-31.4
3588.101	-38.4
3590.916	-30.4
3593.728	-30.4
3596.538	-39.4
3599.346	-40.4
3602.152	-35.4
3604.956	-35.4
3607.757	-32.4
3610.556	-33.4
3613.354	-49.4
3616.149	-46.4
3618.942	-41.4
3621.732	-42.4
3624.521	-37.4
3627.307	-34.4
3630.092	-40.4
3632.874	-43.4
3635.654	-43.4
3638.432	-43.4
3641.208	-44.4
3643.982	-40.4
3646.753	-42.4
3649.523	-39.4
3652.29	-45.4
3655.055	-39.4
3657.818	-46.4
3660.579	-45.4
3663.338	-39.4
3666.095	-48.4
3668.849	-48.4
3671.602	-46.4
3674.352	-40.4
3677.101	-45.4
3679.847	-42.4
3682.591	-44.4
3685.333	-42.4
3688.073	-50.4
3690.811	-47.4
3693.547	-49.4
3696.281	-50.4
3699.013	-49.4
3701.742	-47.4
3704.47	-42.4
3707.195	-47.4
3709.919	-49.4
3712.64	-44.4
3715.359	-45.4
3718.076	-52.4
3720.792	-53.4
3723.505	-52.4
3726.216	-45.4
3728.925	-53.4
3731.632	-46.4
3734.336	-49.4
3737.039	-51.4
3739.74	-56.4
3742.439	-56.4
3745.136	-53.4
3747.83	-51.4
3750.523	-54.4
3753.213	-56.4
3755.902	-52.4
3758.589	-50.4
3761.273	-54.4
3763.956	-50.4
3766.636	-52.4
3769.315	-50.4
3771.991	-51.4
3774.665	-52.4
3777.338	-55.4
3780.008	-55.4
3782.677	-62.4
3785.343	-50.4
3788.007	-53.4
3790.67	-54.4
3793.33	-48.4
3795.989	-54.4
3798.645	-53.4
3801.299	-49.4
3803.952	-54.4
3806.602	-54.4
3809.251	-60.4
3811.897	-57.4
3814.542	-54.4
3817.184	-53.4
3819.825	-48.4
3822.463	-51.4
3825.1	-47.4
3827.735	-57.4
3830.367	-53.4
3832.998	-56.4
3835.627	-55.4
3838.253	-51.4
3840.878	-52.4
3843.501	-44.4
3846.122	-53.4
3848.741	-54.4
3851.358	-55.4
3853.973	-49.4
3856.586	-52.4
3859.197	-57.4
3861.806	-58.4
3864.414	-53.4
3867.019	-55.4
3869.622	-49.4
3872.224	-44.4
3874.823	-37.4
3877.421	-30.4
3880.016	-21.4
3882.61	-3.4
3885.202	-3.4
3887.792	-11.4
3890.38	-24.4
3892.966	-41.4
3895.55	-49.4
3898.132	-49.4
3900.713	-49.4
3903.291	-55.4
3905.868	-47.4
3908.442	-56.4
3911.015	-54.4
3913.586	-60.4
3916.155	-59.4
3918.722	-58.4
3921.287	-59.4
3923.85	-47.4
3926.411	-55.4
3928.971	-60.4
3931.528	-55.4
3934.084	-49.4
3936.638	-54.4
3939.19	-61.4
3941.74	-54.4
3944.288	-61.4
3946.834	-62.4
3949.378	-54.4
3951.921	-56.4
3954.462	-52.4
3957	-46.4
3959.537	-44.4
3962.072	-49.4
3964.606	-54.4
3967.137	-55.4
3969.667	-56.4
3972.194	-52.4
3974.72	-51.4
3977.244	-49.4
3979.766	-58.4
3982.286	-53.4
3984.805	-62.4
3987.321	-54.4
3989.836	-52.4
3992.349	-56.4
3994.86	-59.4
3997.369	-55.4
3999.877	-56.4
4002.382	-55.4
4004.886	-53.4
4007.388	-58.4
4009.888	-54.4
4012.386	-50.4
4014.883	-50.4
4017.377	-51.4
4019.87	-55.4
4022.361	-58.4
4024.85	-51.4
4027.338	-57.4
4029.823	-53.4
4032.307	-53.4
4034.789	-52.4
4037.269	-52.4
4039.747	-55.4
4042.224	-51.4
4044.699	-60.4
4047.172	-56.4
4049.643	-59.4
4052.112	-52.4
4054.58	-58.4
4057.046	-52.4
4059.51	-57.4
4061.972	-57.4
4064.432	-58.4
4066.891	-47.4
4069.348	-53.4
4071.803	-48.4
4074.256	-56.4
4076.708	-54.4
4079.158	-63.4
4081.606	-57.4
4084.052	-55.4
4086.497	-51.4
4088.939	-53.4
4091.38	-55.4
4093.819	-54.4
4096.257	-53.4
4098.693	-58.4
4101.127	-49.4
4103.559	-59.4
4105.989	10.6
4108.418	5.6
4110.845	-3.4
4113.27	4.6
4115.694	7.6
4118.115	4.6
4120.535	-56.4
4122.954	-51.4
4125.37	-53.4
4127.785	-50.4
4130.198	-53.4
4132.609	-59.4
4135.019	-59.4
4137.427	-60.4
4139.833	-52.4
4142.237	-58.4
