Data from 2018-3-7_conc=6_n=6_RamanShift_04.txt Node
Date: Wed Mar 07 13:13:52 IST 2018
User: aro
Spectrometer: QEPB0276
Trigger mode: 0
Integration Time (sec): 3.000000E1
Scans to average: 1
Electric dark correction enabled: true
Nonlinearity correction enabled: false
Boxcar width: 0
XAxis mode: Raman Shifts
Number of Pixels in Spectrum: 1044
>>>>>Begin Spectral Data<<<<<
160.701	7.4
166.742	18.4
172.777	46.4
178.805	144.4
184.826	387.4
190.841	825.4
196.849	1362.4
202.85	1812.4
208.845	1980.4
214.833	1991.4
220.815	1944.4
226.789	1949.4
232.758	1944.4
238.719	1951.4
244.674	1966.4
250.623	1919.4
256.565	1888.4
262.5	1855.4
268.429	1840.4
274.351	1837.4
280.267	1811.4
286.176	1834.4
292.079	1795.4
297.975	1797.4
303.865	1807.4
309.748	1776.4
315.625	1769.4
321.495	1797.4
327.359	1787.4
333.217	1782.4
339.068	1788.4
344.912	1795.4
350.751	1804.4
356.583	1798.4
362.408	1794.4
368.227	1796.4
374.04	1796.4
379.847	1810.4
385.647	1825.4
391.44	1826.4
397.228	1836.4
403.009	1825.4
408.784	1845.4
414.553	1866.4
420.315	1863.4
426.071	1870.4
431.821	1863.4
437.565	1846.4
443.302	1849.4
449.033	1857.4
454.758	1846.4
460.477	1829.4
466.189	1813.4
471.896	1801.4
477.596	1794.4
483.29	1788.4
488.978	1789.4
494.66	1775.4
500.335	1748.4
506.005	1697.4
511.668	1639.4
517.325	1584.4
522.977	1541.4
528.622	1524.4
534.261	1485.4
539.894	1468.4
545.521	1468.4
551.141	1472.4
556.756	1445.4
562.365	1441.4
567.968	1427.4
573.565	1406.4
579.155	1411.4
584.74	1389.4
590.319	1400.4
595.892	1401.4
601.459	1372.4
607.02	1392.4
612.575	1380.4
618.124	1355.4
623.667	1351.4
629.204	1338.4
634.735	1319.4
640.261	1298.4
645.781	1298.4
651.294	1313.4
656.802	1296.4
662.304	1289.4
667.8	1306.4
673.29	1302.4
678.775	1303.4
684.254	1291.4
689.726	1291.4
695.193	1287.4
700.655	1261.4
706.11	1258.4
711.56	1247.4
717.004	1240.4
722.442	1233.4
727.874	1213.4
733.301	1219.4
738.722	1221.4
744.137	1222.4
749.547	1228.4
754.951	1203.4
760.349	1230.4
765.741	1224.4
771.128	1220.4
776.509	1209.4
781.885	1245.4
787.254	1236.4
792.618	1248.4
797.977	1241.4
803.33	1220.4
808.677	1234.4
814.019	1209.4
819.355	1201.4
824.686	1194.4
830.011	1179.4
835.33	1183.4
840.644	1187.4
845.952	1170.4
851.255	1175.4
856.552	1171.4
861.844	1148.4
867.13	1151.4
872.41	1145.4
877.686	1153.4
882.955	1142.4
888.219	1116.4
893.478	1114.4
898.731	1100.4
903.979	1084.4
909.221	1071.4
914.458	1077.4
919.69	1081.4
924.916	1087.4
930.136	1069.4
935.351	1076.4
940.561	1078.4
945.766	1090.4
950.965	1071.4
956.158	1056.4
961.347	1059.4
966.529	1033.4
971.707	1006.4
976.879	1008.4
982.046	1005.4
987.208	1009.4
992.364	993.4
997.515	997.4
1002.66	1003.4
1007.801	1019.4
1012.936	1022.4
1018.066	1023.4
1023.19	1038.4
1028.309	1032.4
1033.423	1017.4
1038.532	1024.4
1043.636	1010.4
1048.734	1007.4
1053.827	986.4
1058.915	980.4
1063.998	970.4
1069.075	961.4
1074.147	968.4
1079.214	964.4
1084.276	978.4
1089.333	991.4
1094.385	978.4
1099.431	987.4
1104.472	973.4
1109.509	968.4
1114.54	952.4
1119.565	931.4
1124.586	941.4
1129.602	919.4
1134.613	904.4
1139.618	909.4
1144.619	899.4
1149.614	915.4
1154.604	921.4
1159.589	919.4
1164.57	927.4
1169.545	907.4
1174.515	917.4
1179.48	908.4
1184.44	908.4
1189.395	897.4
1194.345	892.4
1199.29	878.4
1204.23	895.4
1209.165	879.4
1214.095	885.4
1219.021	909.4
1223.941	908.4
1228.856	905.4
1233.766	900.4
1238.672	922.4
1243.572	915.4
1248.467	916.4
1253.358	886.4
1258.244	876.4
1263.124	854.4
1268	844.4
1272.871	839.4
1277.737	835.4
1282.599	841.4
1287.455	829.4
1292.306	832.4
1297.153	820.4
1301.995	837.4
1306.832	843.4
1311.664	841.4
1316.491	845.4
1321.314	841.4
1326.132	846.4
1330.945	822.4
1335.753	809.4
1340.556	804.4
1345.354	793.4
1350.148	770.4
1354.937	761.4
1359.722	732.4
1364.501	712.4
1369.276	708.4
1374.046	691.4
1378.811	693.4
1383.572	691.4
1388.327	678.4
1393.079	666.4
1397.825	692.4
1402.567	680.4
1407.304	688.4
1412.036	705.4
1416.764	705.4
1421.487	698.4
1426.205	702.4
1430.919	687.4
1435.628	709.4
1440.333	716.4
1445.032	708.4
1449.727	723.4
1454.418	718.4
1459.104	715.4
1463.785	701.4
1468.462	680.4
1473.134	689.4
1477.802	663.4
1482.465	653.4
1487.123	632.4
1491.777	619.4
1496.426	615.4
1501.071	617.4
1505.711	603.4
1510.347	599.4
1514.978	590.4
1519.604	582.4
1524.226	583.4
1528.844	562.4
1533.457	571.4
1538.065	567.4
1542.669	577.4
1547.269	569.4
1551.864	575.4
1556.454	591.4
1561.041	593.4
1565.622	598.4
1570.199	587.4
1574.772	611.4
1579.34	620.4
1583.904	616.4
1588.464	641.4
1593.019	635.4
1597.569	641.4
1602.115	633.4
1606.657	626.4
1611.195	613.4
1615.728	632.4
1620.256	627.4
1624.78	636.4
1629.3	623.4
1633.816	625.4
1638.327	625.4
1642.834	621.4
1647.336	624.4
1651.834	629.4
1656.328	632.4
1660.817	618.4
1665.302	617.4
1669.783	596.4
1674.259	586.4
1678.732	579.4
1683.199	546.4
1687.663	529.4
1692.122	503.4
1696.577	490.4
1701.028	456.4
1705.474	442.4
1709.917	426.4
1714.355	420.4
1718.788	406.4
1723.218	425.4
1727.643	414.4
1732.064	421.4
1736.481	419.4
1740.893	401.4
1745.301	399.4
1749.705	391.4
1754.105	389.4
1758.501	369.4
1762.893	364.4
1767.28	365.4
1771.663	349.4
1776.042	347.4
1780.417	340.4
1784.787	333.4
1789.154	328.4
1793.516	320.4
1797.874	316.4
1802.228	309.4
1806.578	309.4
1810.924	302.4
1815.266	300.4
1819.603	303.4
1823.937	312.4
1828.266	310.4
1832.591	307.4
1836.913	316.4
1841.23	319.4
1845.543	313.4
1849.852	323.4
1854.156	316.4
1858.457	321.4
1862.754	321.4
1867.047	315.4
1871.335	316.4
1875.62	324.4
1879.9	321.4
1884.177	303.4
1888.449	306.4
1892.718	311.4
1896.982	295.4
1901.243	289.4
1905.499	292.4
1909.752	281.4
1914	276.4
1918.245	266.4
1922.485	265.4
1926.722	260.4
1930.954	252.4
1935.183	263.4
1939.408	253.4
1943.628	241.4
1947.845	249.4
1952.058	248.4
1956.267	234.4
1960.472	242.4
1964.673	242.4
1968.87	229.4
1973.063	239.4
1977.252	239.4
1981.438	238.4
1985.619	235.4
1989.797	244.4
1993.971	245.4
1998.14	238.4
2002.306	247.4
2006.469	254.4
2010.627	243.4
2014.781	247.4
2018.932	240.4
2023.078	244.4
2027.221	244.4
2031.36	250.4
2035.495	232.4
2039.627	226.4
2043.754	236.4
2047.878	230.4
2051.998	230.4
2056.114	224.4
2060.226	221.4
2064.334	215.4
2068.439	220.4
2072.54	215.4
2076.637	219.4
2080.73	221.4
2084.82	219.4
2088.906	207.4
2092.988	206.4
2097.066	208.4
2101.14	207.4
2105.211	208.4
2109.278	194.4
2113.342	192.4
2117.401	204.4
2121.457	193.4
2125.509	188.4
2129.558	182.4
2133.602	196.4
2137.643	192.4
2141.681	185.4
2145.714	195.4
2149.744	194.4
2153.77	198.4
2157.793	188.4
2161.812	198.4
2165.827	196.4
2169.838	193.4
2173.846	197.4
2177.851	191.4
2181.851	182.4
2185.848	178.4
2189.841	184.4
2193.831	181.4
2197.817	183.4
2201.799	176.4
2205.778	177.4
2209.753	187.4
2213.725	179.4
2217.693	181.4
2221.657	182.4
2225.618	171.4
2229.575	179.4
2233.529	164.4
2237.479	176.4
2241.425	163.4
2245.368	168.4
2249.307	170.4
2253.243	162.4
2257.175	160.4
2261.104	153.4
2265.029	152.4
2268.95	159.4
2272.868	150.4
2276.783	153.4
2280.694	154.4
2284.601	146.4
2288.505	156.4
2292.405	156.4
2296.302	149.4
2300.195	145.4
2304.085	139.4
2307.971	139.4
2311.854	132.4
2315.734	129.4
2319.609	138.4
2323.482	134.4
2327.351	135.4
2331.216	139.4
2335.078	150.4
2338.937	142.4
2342.792	142.4
2346.643	138.4
2350.492	135.4
2354.336	140.4
2358.178	125.4
2362.015	139.4
2365.85	135.4
2369.681	143.4
2373.508	144.4
2377.333	136.4
2381.153	138.4
2384.971	136.4
2388.785	132.4
2392.595	136.4
2396.402	140.4
2400.206	131.4
2404.007	136.4
2407.804	138.4
2411.597	130.4
2415.388	132.4
2419.174	142.4
2422.958	130.4
2426.738	136.4
2430.515	128.4
2434.289	128.4
2438.059	124.4
2441.825	123.4
2445.589	120.4
2449.349	127.4
2453.106	127.4
2456.859	113.4
2460.61	122.4
2464.356	121.4
2468.1	114.4
2471.84	115.4
2475.577	114.4
2479.311	119.4
2483.041	113.4
2486.768	109.4
2490.492	115.4
2494.213	106.4
2497.93	114.4
2501.644	110.4
2505.355	105.4
2509.062	111.4
2512.766	96.4
2516.467	101.4
2520.165	103.4
2523.859	100.4
2527.551	99.4
2531.239	96.4
2534.923	89.4
2538.605	94.4
2542.283	92.4
2545.958	86.4
2549.63	89.4
2553.299	90.4
2556.964	88.4
2560.626	90.4
2564.285	82.4
2567.941	81.4
2571.594	83.4
2575.243	81.4
2578.89	80.4
2582.533	79.4
2586.173	71.4
2589.809	84.4
2593.443	87.4
2597.073	78.4
2600.701	81.4
2604.325	72.4
2607.946	63.4
2611.564	74.4
2615.178	74.4
2618.79	78.4
2622.398	80.4
2626.004	70.4
2629.606	70.4
2633.205	73.4
2636.801	66.4
2640.394	71.4
2643.983	66.4
2647.57	69.4
2651.153	67.4
2654.734	65.4
2658.311	60.4
2661.885	63.4
2665.456	76.4
2669.025	67.4
2672.589	58.4
2676.151	61.4
2679.71	50.4
2683.266	62.4
2686.819	74.4
2690.368	59.4
2693.915	60.4
2697.458	58.4
2700.999	61.4
2704.536	61.4
2708.071	61.4
2711.602	57.4
2715.13	46.4
2718.656	53.4
2722.178	44.4
2725.697	47.4
2729.214	43.4
2732.727	49.4
2736.237	50.4
2739.744	42.4
2743.249	38.4
2746.75	40.4
2750.248	36.4
2753.743	39.4
2757.236	35.4
2760.725	40.4
2764.211	38.4
2767.695	34.4
2771.175	35.4
2774.652	30.4
2778.127	38.4
2781.598	31.4
2785.067	31.4
2788.532	39.4
2791.995	37.4
2795.455	26.4
2798.911	32.4
2802.365	38.4
2805.816	30.4
2809.264	31.4
2812.709	31.4
2816.151	37.4
2819.59	41.4
2823.026	34.4
2826.46	36.4
2829.89	35.4
2833.318	31.4
2836.742	43.4
2840.164	31.4
2843.583	39.4
2846.999	37.4
2850.412	37.4
2853.822	38.4
2857.229	49.4
2860.634	38.4
2864.035	46.4
2867.434	38.4
2870.83	44.4
2874.223	45.4
2877.613	47.4
2881	44.4
2884.385	48.4
2887.766	50.4
2891.145	44.4
2894.521	50.4
2897.894	46.4
2901.264	45.4
2904.631	46.4
2907.996	49.4
2911.358	60.4
2914.717	59.4
2918.073	48.4
2921.426	45.4
2924.777	54.4
2928.124	61.4
2931.469	66.4
2934.811	62.4
2938.15	69.4
2941.487	71.4
2944.821	59.4
2948.152	64.4
2951.48	63.4
2954.805	60.4
2958.128	64.4
2961.447	64.4
2964.765	59.4
2968.079	58.4
2971.39	66.4
2974.699	62.4
2978.005	67.4
2981.308	56.4
2984.609	59.4
2987.907	59.4
2991.202	57.4
2994.494	58.4
2997.784	51.4
3001.07	57.4
3004.355	60.4
3007.636	70.4
3010.915	68.4
3014.191	58.4
3017.464	64.4
3020.734	65.4
3024.002	74.4
3027.267	72.4
3030.53	77.4
3033.789	69.4
3037.046	69.4
3040.301	81.4
3043.552	79.4
3046.801	82.4
3050.048	87.4
3053.291	87.4
3056.532	88.4
3059.771	99.4
3063.006	95.4
3066.239	101.4
3069.469	115.4
3072.697	103.4
3075.922	110.4
3079.144	111.4
3082.364	114.4
3085.581	121.4
3088.795	124.4
3092.007	128.4
3095.216	121.4
3098.423	119.4
3101.627	131.4
3104.828	132.4
3108.026	140.4
3111.222	145.4
3114.416	140.4
3117.607	153.4
3120.795	149.4
3123.98	147.4
3127.163	163.4
3130.344	162.4
3133.521	163.4
3136.696	169.4
3139.869	168.4
3143.039	174.4
3146.206	179.4
3149.371	182.4
3152.533	184.4
3155.693	175.4
3158.85	182.4
3162.005	183.4
3165.157	185.4
3168.306	176.4
3171.453	179.4
3174.597	188.4
3177.739	190.4
3180.878	192.4
3184.014	184.4
3187.149	191.4
3190.28	196.4
3193.409	194.4
3196.536	191.4
3199.659	198.4
3202.781	192.4
3205.9	183.4
3209.016	189.4
3212.13	195.4
3215.241	189.4
3218.35	191.4
3221.456	192.4
3224.56	174.4
3227.661	185.4
3230.76	177.4
3233.856	183.4
3236.95	165.4
3240.041	165.4
3243.13	172.4
3246.216	161.4
3249.3	149.4
3252.382	151.4
3255.46	154.4
3258.537	151.4
3261.611	141.4
3264.682	154.4
3267.751	150.4
3270.818	136.4
3273.882	147.4
3276.943	146.4
3280.002	152.4
3283.059	142.4
3286.113	139.4
3289.165	139.4
3292.214	140.4
3295.261	140.4
3298.306	139.4
3301.348	129.4
3304.387	137.4
3307.425	136.4
3310.459	123.4
3313.492	134.4
3316.521	127.4
3319.549	131.4
3322.574	123.4
3325.597	128.4
3328.617	124.4
3331.635	130.4
3334.65	135.4
3337.663	123.4
3340.674	129.4
3343.682	127.4
3346.688	127.4
3349.691	129.4
3352.692	127.4
3355.691	134.4
3358.687	123.4
3361.681	128.4
3364.673	122.4
3367.662	136.4
3370.649	124.4
3373.633	115.4
3376.615	119.4
3379.595	117.4
3382.572	118.4
3385.547	116.4
3388.52	110.4
3391.49	108.4
3394.458	98.4
3397.424	106.4
3400.387	98.4
3403.348	98.4
3406.307	98.4
3409.263	102.4
3412.217	97.4
3415.168	100.4
3418.118	98.4
3421.065	86.4
3424.009	87.4
3426.951	89.4
3429.891	84.4
3432.829	87.4
3435.764	88.4
3438.697	85.4
3441.628	71.4
3444.557	78.4
3447.483	67.4
3450.407	65.4
3453.328	63.4
3456.247	63.4
3459.164	61.4
3462.079	48.4
3464.991	53.4
3467.902	50.4
3470.809	45.4
3473.715	46.4
3476.618	39.4
3479.519	36.4
3482.418	35.4
3485.315	32.4
3488.209	28.4
3491.101	30.4
3493.99	34.4
3496.878	23.4
3499.763	16.4
3502.646	25.4
3505.527	17.4
3508.405	17.4
3511.281	15.4
3514.155	17.4
3517.027	6.4
3519.897	11.4
3522.764	5.4
3525.629	2.4
3528.492	2.4
3531.352	-3.6
3534.211	-5.6
3537.067	-1.6
3539.921	-5.6
3542.773	-5.6
3545.622	-7.6
3548.469	-3.6
3551.315	-1.6
3554.157	-12.6
3556.998	-9.6
3559.837	-12.6
3562.673	-11.6
3565.507	-12.6
3568.339	-12.6
3571.169	-17.6
3573.996	-14.6
3576.822	-22.6
3579.645	-19.6
3582.466	-19.6
3585.285	-28.6
3588.101	-24.6
3590.916	-24.6
3593.728	-23.6
3596.538	-31.6
3599.346	-28.6
3602.152	-32.6
3604.956	-22.6
3607.757	-22.6
3610.556	-28.6
3613.354	-39.6
3616.149	-31.6
3618.942	-29.6
3621.732	-31.6
3624.521	-25.6
3627.307	-29.6
3630.092	-28.6
3632.874	-38.6
3635.654	-31.6
3638.432	-32.6
3641.208	-30.6
3643.982	-32.6
3646.753	-38.6
3649.523	-30.6
3652.29	-40.6
3655.055	-32.6
3657.818	-45.6
3660.579	-40.6
3663.338	-39.6
3666.095	-40.6
3668.849	-45.6
3671.602	-41.6
3674.352	-36.6
3677.101	-38.6
3679.847	-43.6
3682.591	-42.6
3685.333	-42.6
3688.073	-42.6
3690.811	-43.6
3693.547	-41.6
3696.281	-42.6
3699.013	-37.6
3701.742	-45.6
3704.47	-38.6
3707.195	-43.6
3709.919	-42.6
3712.64	-43.6
3715.359	-45.6
3718.076	-49.6
3720.792	-43.6
3723.505	-48.6
3726.216	-41.6
3728.925	-50.6
3731.632	-44.6
3734.336	-47.6
3737.039	-41.6
3739.74	-48.6
3742.439	-50.6
3745.136	-50.6
3747.83	-48.6
3750.523	-52.6
3753.213	-54.6
3755.902	-52.6
3758.589	-45.6
3761.273	-44.6
3763.956	-46.6
3766.636	-44.6
3769.315	-43.6
3771.991	-44.6
3774.665	-50.6
3777.338	-46.6
3780.008	-51.6
3782.677	-52.6
3785.343	-47.6
3788.007	-51.6
3790.67	-50.6
3793.33	-49.6
3795.989	-55.6
3798.645	-54.6
3801.299	-47.6
3803.952	-50.6
3806.602	-49.6
3809.251	-51.6
3811.897	-50.6
3814.542	-48.6
3817.184	-48.6
3819.825	-43.6
3822.463	-53.6
3825.1	-45.6
3827.735	-53.6
3830.367	-50.6
3832.998	-49.6
3835.627	-53.6
3838.253	-48.6
3840.878	-49.6
3843.501	-41.6
3846.122	-53.6
3848.741	-52.6
3851.358	-50.6
3853.973	-45.6
3856.586	-49.6
3859.197	-51.6
3861.806	-48.6
3864.414	-44.6
3867.019	-46.6
3869.622	-46.6
3872.224	-37.6
3874.823	-28.6
3877.421	-22.6
3880.016	-16.6
3882.61	2.4
3885.202	6.4
3887.792	-2.6
3890.38	-20.6
3892.966	-37.6
3895.55	-40.6
3898.132	-48.6
3900.713	-53.6
3903.291	-55.6
3905.868	-44.6
3908.442	-49.6
3911.015	-45.6
3913.586	-50.6
3916.155	-50.6
3918.722	-51.6
3921.287	-46.6
3923.85	-41.6
3926.411	-47.6
3928.971	-58.6
3931.528	-47.6
3934.084	-46.6
3936.638	-41.6
3939.19	-55.6
3941.74	-45.6
3944.288	-46.6
3946.834	-52.6
3949.378	-48.6
3951.921	-53.6
3954.462	-53.6
3957	-41.6
3959.537	-43.6
3962.072	-50.6
3964.606	-47.6
3967.137	-45.6
3969.667	-48.6
3972.194	-48.6
3974.72	-44.6
3977.244	-41.6
3979.766	-46.6
3982.286	-45.6
3984.805	-53.6
3987.321	-47.6
3989.836	-48.6
3992.349	-48.6
3994.86	-52.6
3997.369	-51.6
3999.877	-53.6
4002.382	-50.6
4004.886	-50.6
4007.388	-55.6
4009.888	-53.6
4012.386	-50.6
4014.883	-51.6
4017.377	-46.6
4019.87	-50.6
4022.361	-51.6
4024.85	-44.6
4027.338	-53.6
4029.823	-51.6
4032.307	-49.6
4034.789	-41.6
4037.269	-42.6
4039.747	-53.6
4042.224	-52.6
4044.699	-49.6
4047.172	-52.6
4049.643	-50.6
4052.112	-49.6
4054.58	-51.6
4057.046	-38.6
4059.51	-54.6
4061.972	-54.6
4064.432	-48.6
4066.891	-48.6
4069.348	-44.6
4071.803	-44.6
4074.256	-45.6
4076.708	-46.6
4079.158	-54.6
4081.606	-50.6
4084.052	-50.6
4086.497	-41.6
4088.939	-45.6
4091.38	-51.6
4093.819	-52.6
4096.257	-45.6
4098.693	-50.6
4101.127	-45.6
4103.559	-56.6
4105.989	10.4
4108.418	3.4
4110.845	-0.6
4113.27	1.4
4115.694	6.4
4118.115	5.4
4120.535	-47.6
4122.954	-47.6
4125.37	-49.6
4127.785	-47.6
4130.198	-47.6
4132.609	-57.6
4135.019	-51.6
4137.427	-56.6
4139.833	-53.6
4142.237	-54.6
