Data from 2018-3-7_conc=4_n=1_RamanShift_02.txt Node
Date: Wed Mar 07 11:49:22 IST 2018
User: aro
Spectrometer: QEPB0276
Trigger mode: 0
Integration Time (sec): 3.000000E1
Scans to average: 1
Electric dark correction enabled: true
Nonlinearity correction enabled: false
Boxcar width: 0
XAxis mode: Raman Shifts
Number of Pixels in Spectrum: 1044
>>>>>Begin Spectral Data<<<<<
160.701	18.9
166.742	28.9
172.777	48.9
178.805	136.9
184.826	344.9
190.841	738.9
196.849	1207.9
202.85	1568.9
208.845	1719.9
214.833	1715.9
220.815	1688.9
226.789	1700.9
232.758	1702.9
238.719	1697.9
244.674	1706.9
250.623	1670.9
256.565	1666.9
262.5	1641.9
268.429	1627.9
274.351	1627.9
280.267	1625.9
286.176	1616.9
292.079	1593.9
297.975	1605.9
303.865	1625.9
309.748	1600.9
315.625	1586.9
321.495	1616.9
327.359	1608.9
333.217	1597.9
339.068	1623.9
344.912	1615.9
350.751	1612.9
356.583	1616.9
362.408	1621.9
368.227	1639.9
374.04	1636.9
379.847	1650.9
385.647	1642.9
391.44	1658.9
397.228	1679.9
403.009	1663.9
408.784	1689.9
414.553	1686.9
420.315	1684.9
426.071	1701.9
431.821	1693.9
437.565	1691.9
443.302	1702.9
449.033	1673.9
454.758	1675.9
460.477	1667.9
466.189	1638.9
471.896	1631.9
477.596	1632.9
483.29	1609.9
488.978	1606.9
494.66	1622.9
500.335	1573.9
506.005	1518.9
511.668	1461.9
517.325	1408.9
522.977	1356.9
528.622	1322.9
534.261	1295.9
539.894	1277.9
545.521	1277.9
551.141	1252.9
556.756	1251.9
562.365	1234.9
567.968	1224.9
573.565	1222.9
579.155	1202.9
584.74	1218.9
590.319	1208.9
595.892	1205.9
601.459	1193.9
607.02	1176.9
612.575	1187.9
618.124	1155.9
623.667	1160.9
629.204	1136.9
634.735	1123.9
640.261	1115.9
645.781	1121.9
651.294	1121.9
656.802	1109.9
662.304	1099.9
667.8	1100.9
673.29	1105.9
678.775	1091.9
684.254	1103.9
689.726	1083.9
695.193	1079.9
700.655	1071.9
706.11	1054.9
711.56	1059.9
717.004	1034.9
722.442	1036.9
727.874	1040.9
733.301	1040.9
738.722	1036.9
744.137	1030.9
749.547	1039.9
754.951	1034.9
760.349	1035.9
765.741	1026.9
771.128	1034.9
776.509	1060.9
781.885	1070.9
787.254	1064.9
792.618	1057.9
797.977	1059.9
803.33	1047.9
808.677	1048.9
814.019	1026.9
819.355	1028.9
824.686	1015.9
830.011	1016.9
835.33	1008.9
840.644	1005.9
845.952	1006.9
851.255	1011.9
856.552	1001.9
861.844	986.9
867.13	973.9
872.41	967.9
877.686	949.9
882.955	951.9
888.219	960.9
893.478	940.9
898.731	903.9
903.979	902.9
909.221	900.9
914.458	902.9
919.69	894.9
924.916	913.9
930.136	901.9
935.351	906.9
940.561	900.9
945.766	905.9
950.965	895.9
956.158	886.9
961.347	882.9
966.529	863.9
971.707	843.9
976.879	839.9
982.046	828.9
987.208	832.9
992.364	836.9
997.515	821.9
1002.66	847.9
1007.801	847.9
1012.936	843.9
1018.066	879.9
1023.19	866.9
1028.309	865.9
1033.423	858.9
1038.532	851.9
1043.636	847.9
1048.734	834.9
1053.827	832.9
1058.915	813.9
1063.998	815.9
1069.075	810.9
1074.147	828.9
1079.214	810.9
1084.276	812.9
1089.333	822.9
1094.385	823.9
1099.431	818.9
1104.472	816.9
1109.509	808.9
1114.54	806.9
1119.565	790.9
1124.586	774.9
1129.602	762.9
1134.613	758.9
1139.618	763.9
1144.619	744.9
1149.614	751.9
1154.604	744.9
1159.589	757.9
1164.57	758.9
1169.545	762.9
1174.515	759.9
1179.48	760.9
1184.44	760.9
1189.395	753.9
1194.345	743.9
1199.29	730.9
1204.23	735.9
1209.165	723.9
1214.095	743.9
1219.021	738.9
1223.941	753.9
1228.856	741.9
1233.766	744.9
1238.672	752.9
1243.572	742.9
1248.467	750.9
1253.358	731.9
1258.244	735.9
1263.124	713.9
1268	699.9
1272.871	691.9
1277.737	700.9
1282.599	689.9
1287.455	684.9
1292.306	675.9
1297.153	674.9
1301.995	686.9
1306.832	696.9
1311.664	691.9
1316.491	699.9
1321.314	695.9
1326.132	699.9
1330.945	675.9
1335.753	666.9
1340.556	641.9
1345.354	634.9
1350.148	627.9
1354.937	622.9
1359.722	594.9
1364.501	584.9
1369.276	579.9
1374.046	567.9
1378.811	578.9
1383.572	574.9
1388.327	557.9
1393.079	557.9
1397.825	578.9
1402.567	571.9
1407.304	573.9
1412.036	568.9
1416.764	578.9
1421.487	567.9
1426.205	563.9
1430.919	569.9
1435.628	570.9
1440.333	587.9
1445.032	567.9
1449.727	585.9
1454.418	606.9
1459.104	582.9
1463.785	581.9
1468.462	576.9
1473.134	551.9
1477.802	529.9
1482.465	531.9
1487.123	523.9
1491.777	503.9
1496.426	511.9
1501.071	492.9
1505.711	487.9
1510.347	474.9
1514.978	477.9
1519.604	482.9
1524.226	478.9
1528.844	477.9
1533.457	470.9
1538.065	475.9
1542.669	472.9
1547.269	478.9
1551.864	469.9
1556.454	490.9
1561.041	495.9
1565.622	486.9
1570.199	500.9
1574.772	490.9
1579.34	501.9
1583.904	498.9
1588.464	516.9
1593.019	526.9
1597.569	509.9
1602.115	525.9
1606.657	515.9
1611.195	505.9
1615.728	510.9
1620.256	508.9
1624.78	510.9
1629.3	502.9
1633.816	504.9
1638.327	515.9
1642.834	504.9
1647.336	511.9
1651.834	507.9
1656.328	506.9
1660.817	508.9
1665.302	498.9
1669.783	479.9
1674.259	481.9
1678.732	460.9
1683.199	433.9
1687.663	431.9
1692.122	413.9
1696.577	397.9
1701.028	387.9
1705.474	361.9
1709.917	351.9
1714.355	353.9
1718.788	347.9
1723.218	339.9
1727.643	331.9
1732.064	345.9
1736.481	343.9
1740.893	330.9
1745.301	334.9
1749.705	321.9
1754.105	305.9
1758.501	297.9
1762.893	294.9
1767.28	287.9
1771.663	285.9
1776.042	288.9
1780.417	276.9
1784.787	279.9
1789.154	267.9
1793.516	262.9
1797.874	265.9
1802.228	262.9
1806.578	249.9
1810.924	250.9
1815.266	251.9
1819.603	256.9
1823.937	258.9
1828.266	253.9
1832.591	259.9
1836.913	262.9
1841.23	259.9
1845.543	253.9
1849.852	257.9
1854.156	261.9
1858.457	257.9
1862.754	261.9
1867.047	262.9
1871.335	253.9
1875.62	257.9
1879.9	258.9
1884.177	244.9
1888.449	253.9
1892.718	244.9
1896.982	240.9
1901.243	228.9
1905.499	232.9
1909.752	220.9
1914	226.9
1918.245	220.9
1922.485	216.9
1926.722	208.9
1930.954	208.9
1935.183	211.9
1939.408	210.9
1943.628	205.9
1947.845	212.9
1952.058	207.9
1956.267	198.9
1960.472	200.9
1964.673	185.9
1968.87	191.9
1973.063	202.9
1977.252	193.9
1981.438	191.9
1985.619	186.9
1989.797	187.9
1993.971	196.9
1998.14	194.9
2002.306	193.9
2006.469	201.9
2010.627	193.9
2014.781	190.9
2018.932	195.9
2023.078	188.9
2027.221	181.9
2031.36	195.9
2035.495	184.9
2039.627	175.9
2043.754	188.9
2047.878	183.9
2051.998	187.9
2056.114	179.9
2060.226	166.9
2064.334	171.9
2068.439	173.9
2072.54	176.9
2076.637	176.9
2080.73	171.9
2084.82	166.9
2088.906	167.9
2092.988	168.9
2097.066	169.9
2101.14	159.9
2105.211	159.9
2109.278	159.9
2113.342	146.9
2117.401	155.9
2121.457	158.9
2125.509	149.9
2129.558	140.9
2133.602	149.9
2137.643	154.9
2141.681	147.9
2145.714	144.9
2149.744	147.9
2153.77	154.9
2157.793	149.9
2161.812	160.9
2165.827	149.9
2169.838	149.9
2173.846	140.9
2177.851	140.9
2181.851	138.9
2185.848	130.9
2189.841	132.9
2193.831	132.9
2197.817	136.9
2201.799	134.9
2205.778	129.9
2209.753	137.9
2213.725	134.9
2217.693	136.9
2221.657	129.9
2225.618	134.9
2229.575	132.9
2233.529	125.9
2237.479	128.9
2241.425	124.9
2245.368	123.9
2249.307	128.9
2253.243	118.9
2257.175	115.9
2261.104	115.9
2265.029	114.9
2268.95	116.9
2272.868	118.9
2276.783	114.9
2280.694	104.9
2284.601	99.9
2288.505	118.9
2292.405	110.9
2296.302	110.9
2300.195	105.9
2304.085	102.9
2307.971	100.9
2311.854	96.9
2315.734	92.9
2319.609	100.9
2323.482	93.9
2327.351	104.9
2331.216	106.9
2335.078	130.9
2338.937	106.9
2342.792	106.9
2346.643	100.9
2350.492	102.9
2354.336	94.9
2358.178	90.9
2362.015	108.9
2365.85	93.9
2369.681	93.9
2373.508	98.9
2377.333	101.9
2381.153	97.9
2384.971	91.9
2388.785	83.9
2392.595	88.9
2396.402	93.9
2400.206	96.9
2404.007	86.9
2407.804	95.9
2411.597	90.9
2415.388	91.9
2419.174	94.9
2422.958	94.9
2426.738	96.9
2430.515	87.9
2434.289	94.9
2438.059	83.9
2441.825	84.9
2445.589	78.9
2449.349	80.9
2453.106	85.9
2456.859	80.9
2460.61	80.9
2464.356	75.9
2468.1	81.9
2471.84	72.9
2475.577	70.9
2479.311	79.9
2483.041	75.9
2486.768	73.9
2490.492	76.9
2494.213	67.9
2497.93	70.9
2501.644	76.9
2505.355	63.9
2509.062	68.9
2512.766	69.9
2516.467	66.9
2520.165	60.9
2523.859	73.9
2527.551	64.9
2531.239	58.9
2534.923	54.9
2538.605	54.9
2542.283	56.9
2545.958	59.9
2549.63	55.9
2553.299	56.9
2556.964	50.9
2560.626	48.9
2564.285	54.9
2567.941	51.9
2571.594	48.9
2575.243	59.9
2578.89	45.9
2582.533	42.9
2586.173	42.9
2589.809	50.9
2593.443	49.9
2597.073	47.9
2600.701	49.9
2604.325	39.9
2607.946	32.9
2611.564	38.9
2615.178	46.9
2618.79	40.9
2622.398	45.9
2626.004	43.9
2629.606	42.9
2633.205	38.9
2636.801	38.9
2640.394	40.9
2643.983	38.9
2647.57	37.9
2651.153	39.9
2654.734	37.9
2658.311	39.9
2661.885	33.9
2665.456	43.9
2669.025	39.9
2672.589	33.9
2676.151	30.9
2679.71	30.9
2683.266	29.9
2686.819	33.9
2690.368	32.9
2693.915	33.9
2697.458	26.9
2700.999	28.9
2704.536	33.9
2708.071	30.9
2711.602	28.9
2715.13	16.9
2718.656	24.9
2722.178	20.9
2725.697	21.9
2729.214	25.9
2732.727	22.9
2736.237	20.9
2739.744	14.9
2743.249	20.9
2746.75	13.9
2750.248	15.9
2753.743	16.9
2757.236	19.9
2760.725	13.9
2764.211	16.9
2767.695	7.9
2771.175	13.9
2774.652	15.9
2778.127	17.9
2781.598	5.9
2785.067	11.9
2788.532	10.9
2791.995	17.9
2795.455	10.9
2798.911	4.9
2802.365	14.9
2805.816	13.9
2809.264	12.9
2812.709	10.9
2816.151	16.9
2819.59	28.9
2823.026	17.9
2826.46	17.9
2829.89	7.9
2833.318	13.9
2836.742	17.9
2840.164	16.9
2843.583	7.9
2846.999	10.9
2850.412	11.9
2853.822	11.9
2857.229	16.9
2860.634	13.9
2864.035	11.9
2867.434	15.9
2870.83	17.9
2874.223	19.9
2877.613	22.9
2881	26.9
2884.385	23.9
2887.766	23.9
2891.145	25.9
2894.521	27.9
2897.894	25.9
2901.264	24.9
2904.631	19.9
2907.996	25.9
2911.358	28.9
2914.717	24.9
2918.073	22.9
2921.426	24.9
2924.777	26.9
2928.124	25.9
2931.469	32.9
2934.811	42.9
2938.15	39.9
2941.487	48.9
2944.821	32.9
2948.152	41.9
2951.48	39.9
2954.805	30.9
2958.128	28.9
2961.447	40.9
2964.765	32.9
2968.079	27.9
2971.39	34.9
2974.699	30.9
2978.005	37.9
2981.308	28.9
2984.609	28.9
2987.907	29.9
2991.202	33.9
2994.494	30.9
2997.784	27.9
3001.07	34.9
3004.355	33.9
3007.636	40.9
3010.915	39.9
3014.191	43.9
3017.464	41.9
3020.734	48.9
3024.002	41.9
3027.267	36.9
3030.53	45.9
3033.789	44.9
3037.046	41.9
3040.301	41.9
3043.552	49.9
3046.801	50.9
3050.048	51.9
3053.291	50.9
3056.532	55.9
3059.771	60.9
3063.006	61.9
3066.239	60.9
3069.469	78.9
3072.697	69.9
3075.922	71.9
3079.144	78.9
3082.364	77.9
3085.581	86.9
3088.795	85.9
3092.007	89.9
3095.216	91.9
3098.423	89.9
3101.627	83.9
3104.828	92.9
3108.026	96.9
3111.222	101.9
3114.416	99.9
3117.607	103.9
3120.795	108.9
3123.98	95.9
3127.163	118.9
3130.344	112.9
3133.521	117.9
3136.696	121.9
3139.869	126.9
3143.039	127.9
3146.206	129.9
3149.371	123.9
3152.533	133.9
3155.693	136.9
3158.85	135.9
3162.005	133.9
3165.157	139.9
3168.306	130.9
3171.453	133.9
3174.597	138.9
3177.739	141.9
3180.878	141.9
3184.014	129.9
3187.149	142.9
3190.28	141.9
3193.409	134.9
3196.536	135.9
3199.659	141.9
3202.781	136.9
3205.9	132.9
3209.016	131.9
3212.13	133.9
3215.241	142.9
3218.35	128.9
3221.456	131.9
3224.56	127.9
3227.661	126.9
3230.76	128.9
3233.856	133.9
3236.95	131.9
3240.041	115.9
3243.13	124.9
3246.216	113.9
3249.3	117.9
3252.382	113.9
3255.46	112.9
3258.537	117.9
3261.611	102.9
3264.682	110.9
3267.751	106.9
3270.818	90.9
3273.882	105.9
3276.943	101.9
3280.002	107.9
3283.059	98.9
3286.113	101.9
3289.165	100.9
3292.214	92.9
3295.261	104.9
3298.306	102.9
3301.348	105.9
3304.387	94.9
3307.425	92.9
3310.459	89.9
3313.492	91.9
3316.521	86.9
3319.549	99.9
3322.574	84.9
3325.597	76.9
3328.617	86.9
3331.635	88.9
3334.65	96.9
3337.663	85.9
3340.674	95.9
3343.682	94.9
3346.688	85.9
3349.691	91.9
3352.692	86.9
3355.691	93.9
3358.687	93.9
3361.681	85.9
3364.673	86.9
3367.662	91.9
3370.649	85.9
3373.633	81.9
3376.615	76.9
3379.595	80.9
3382.572	71.9
3385.547	74.9
3388.52	76.9
3391.49	69.9
3394.458	63.9
3397.424	71.9
3400.387	67.9
3403.348	62.9
3406.307	61.9
3409.263	63.9
3412.217	65.9
3415.168	67.9
3418.118	58.9
3421.065	51.9
3424.009	53.9
3426.951	53.9
3429.891	51.9
3432.829	50.9
3435.764	51.9
3438.697	55.9
3441.628	36.9
3444.557	41.9
3447.483	43.9
3450.407	39.9
3453.328	36.9
3456.247	35.9
3459.164	32.9
3462.079	26.9
3464.991	22.9
3467.902	19.9
3470.809	25.9
3473.715	20.9
3476.618	15.9
3479.519	11.9
3482.418	10.9
3485.315	12.9
3488.209	9.9
3491.101	2.9
3493.99	9.9
3496.878	5.9
3499.763	1.9
3502.646	-2.1
3505.527	6.9
3508.405	-1.1
3511.281	-5.1
3514.155	-5.1
3517.027	-14.1
3519.897	-1.1
3522.764	-12.1
3525.629	-16.1
3528.492	-18.1
3531.352	-21.1
3534.211	-17.1
3537.067	-15.1
3539.921	-17.1
3542.773	-25.1
3545.622	-17.1
3548.469	-20.1
3551.315	-18.1
3554.157	-28.1
3556.998	-23.1
3559.837	-26.1
3562.673	-25.1
3565.507	-27.1
3568.339	-23.1
3571.169	-33.1
3573.996	-25.1
3576.822	-40.1
3579.645	-36.1
3582.466	-26.1
3585.285	-30.1
3588.101	-38.1
3590.916	-30.1
3593.728	-31.1
3596.538	-34.1
3599.346	-36.1
3602.152	-35.1
3604.956	-33.1
3607.757	-35.1
3610.556	-40.1
3613.354	-41.1
3616.149	-45.1
3618.942	-41.1
3621.732	-40.1
3624.521	-38.1
3627.307	-37.1
3630.092	-44.1
3632.874	-46.1
3635.654	-43.1
3638.432	-41.1
3641.208	-39.1
3643.982	-37.1
3646.753	-42.1
3649.523	-45.1
3652.29	-47.1
3655.055	-39.1
3657.818	-52.1
3660.579	-55.1
3663.338	-41.1
3666.095	-51.1
3668.849	-44.1
3671.602	-48.1
3674.352	-38.1
3677.101	-49.1
3679.847	-47.1
3682.591	-46.1
3685.333	-47.1
3688.073	-50.1
3690.811	-49.1
3693.547	-53.1
3696.281	-47.1
3699.013	-50.1
3701.742	-57.1
3704.47	-46.1
3707.195	-51.1
3709.919	-49.1
3712.64	-50.1
3715.359	-52.1
3718.076	-55.1
3720.792	-54.1
3723.505	-51.1
3726.216	-51.1
3728.925	-51.1
3731.632	-53.1
3734.336	-50.1
3737.039	-50.1
3739.74	-52.1
3742.439	-61.1
3745.136	-55.1
3747.83	-55.1
3750.523	-60.1
3753.213	-69.1
3755.902	-56.1
3758.589	-59.1
3761.273	-54.1
3763.956	-59.1
3766.636	-49.1
3769.315	-46.1
3771.991	-57.1
3774.665	-57.1
3777.338	-52.1
3780.008	-54.1
3782.677	-56.1
3785.343	-54.1
3788.007	-61.1
3790.67	-55.1
3793.33	-58.1
3795.989	-57.1
3798.645	-61.1
3801.299	-51.1
3803.952	-55.1
3806.602	-54.1
3809.251	-59.1
3811.897	-60.1
3814.542	-59.1
3817.184	-55.1
3819.825	-51.1
3822.463	-55.1
3825.1	-53.1
3827.735	-60.1
3830.367	-58.1
3832.998	-60.1
3835.627	-57.1
3838.253	-52.1
3840.878	-51.1
3843.501	-50.1
3846.122	-56.1
3848.741	-58.1
3851.358	-55.1
3853.973	-57.1
3856.586	-51.1
3859.197	-55.1
3861.806	-59.1
3864.414	-54.1
3867.019	-56.1
3869.622	-51.1
3872.224	-40.1
3874.823	-39.1
3877.421	-33.1
3880.016	-19.1
3882.61	-4.1
3885.202	-1.1
3887.792	-7.1
3890.38	-26.1
3892.966	-44.1
3895.55	-42.1
3898.132	-49.1
3900.713	-56.1
3903.291	-55.1
3905.868	-57.1
3908.442	-56.1
3911.015	-54.1
3913.586	-65.1
3916.155	-56.1
3918.722	-57.1
3921.287	-60.1
3923.85	-49.1
3926.411	-59.1
3928.971	-64.1
3931.528	-60.1
3934.084	-56.1
3936.638	-55.1
3939.19	-61.1
3941.74	-58.1
3944.288	-57.1
3946.834	-55.1
3949.378	-56.1
3951.921	-59.1
3954.462	-57.1
3957	-55.1
3959.537	-46.1
3962.072	-56.1
3964.606	-52.1
3967.137	-57.1
3969.667	-58.1
3972.194	-56.1
3974.72	-52.1
3977.244	-51.1
3979.766	-52.1
3982.286	-56.1
3984.805	-62.1
3987.321	-55.1
3989.836	-52.1
3992.349	-55.1
3994.86	-57.1
3997.369	-56.1
3999.877	-58.1
4002.382	-57.1
4004.886	-56.1
4007.388	-62.1
4009.888	-57.1
4012.386	-60.1
4014.883	-52.1
4017.377	-52.1
4019.87	-56.1
4022.361	-60.1
4024.85	-51.1
4027.338	-55.1
4029.823	-60.1
4032.307	-59.1
4034.789	-54.1
4037.269	-53.1
4039.747	-61.1
4042.224	-54.1
4044.699	-60.1
4047.172	-63.1
4049.643	-60.1
4052.112	-58.1
4054.58	-58.1
4057.046	-58.1
4059.51	-57.1
4061.972	-60.1
4064.432	-55.1
4066.891	-49.1
4069.348	-50.1
4071.803	-47.1
4074.256	-53.1
4076.708	-56.1
4079.158	-63.1
4081.606	-56.1
4084.052	-57.1
4086.497	-57.1
4088.939	-53.1
4091.38	-62.1
4093.819	-62.1
4096.257	-62.1
4098.693	-58.1
4101.127	-55.1
4103.559	-59.1
4105.989	23.9
4108.418	16.9
4110.845	16.9
4113.27	16.9
4115.694	22.9
4118.115	17.9
4120.535	-58.1
4122.954	-54.1
4125.37	-57.1
4127.785	-49.1
4130.198	-57.1
4132.609	-58.1
4135.019	-56.1
4137.427	-60.1
4139.833	-58.1
4142.237	-59.1
