Data from 2018-3-7_conc=2_n=9_RamanShift_04.txt Node
Date: Wed Mar 07 11:05:52 IST 2018
User: aro
Spectrometer: QEPB0276
Trigger mode: 0
Integration Time (sec): 3.000000E1
Scans to average: 1
Electric dark correction enabled: true
Nonlinearity correction enabled: false
Boxcar width: 0
XAxis mode: Raman Shifts
Number of Pixels in Spectrum: 1044
>>>>>Begin Spectral Data<<<<<
160.701	16.9
166.742	15.9
172.777	46.9
178.805	141.9
184.826	355.9
190.841	745.9
196.849	1210.9
202.85	1599.9
208.845	1741.9
214.833	1748.9
220.815	1743.9
226.789	1704.9
232.758	1739.9
238.719	1745.9
244.674	1721.9
250.623	1708.9
256.565	1704.9
262.5	1676.9
268.429	1677.9
274.351	1678.9
280.267	1666.9
286.176	1647.9
292.079	1674.9
297.975	1666.9
303.865	1672.9
309.748	1646.9
315.625	1662.9
321.495	1663.9
327.359	1687.9
333.217	1670.9
339.068	1709.9
344.912	1667.9
350.751	1689.9
356.583	1710.9
362.408	1699.9
368.227	1679.9
374.04	1709.9
379.847	1716.9
385.647	1727.9
391.44	1734.9
397.228	1754.9
403.009	1754.9
408.784	1760.9
414.553	1787.9
420.315	1775.9
426.071	1768.9
431.821	1774.9
437.565	1770.9
443.302	1774.9
449.033	1780.9
454.758	1750.9
460.477	1744.9
466.189	1725.9
471.896	1724.9
477.596	1701.9
483.29	1699.9
488.978	1686.9
494.66	1677.9
500.335	1615.9
506.005	1572.9
511.668	1517.9
517.325	1461.9
522.977	1410.9
528.622	1365.9
534.261	1341.9
539.894	1329.9
545.521	1302.9
551.141	1304.9
556.756	1263.9
562.365	1270.9
567.968	1242.9
573.565	1243.9
579.155	1246.9
584.74	1228.9
590.319	1213.9
595.892	1231.9
601.459	1219.9
607.02	1218.9
612.575	1217.9
618.124	1204.9
623.667	1175.9
629.204	1149.9
634.735	1155.9
640.261	1140.9
645.781	1137.9
651.294	1136.9
656.802	1128.9
662.304	1121.9
667.8	1119.9
673.29	1126.9
678.775	1114.9
684.254	1122.9
689.726	1092.9
695.193	1092.9
700.655	1079.9
706.11	1079.9
711.56	1082.9
717.004	1077.9
722.442	1062.9
727.874	1068.9
733.301	1060.9
738.722	1054.9
744.137	1054.9
749.547	1060.9
754.951	1045.9
760.349	1038.9
765.741	1045.9
771.128	1054.9
776.509	1078.9
781.885	1078.9
787.254	1092.9
792.618	1088.9
797.977	1084.9
803.33	1073.9
808.677	1069.9
814.019	1064.9
819.355	1046.9
824.686	1023.9
830.011	1046.9
835.33	1029.9
840.644	1034.9
845.952	1036.9
851.255	1030.9
856.552	1013.9
861.844	1005.9
867.13	995.9
872.41	998.9
877.686	993.9
882.955	987.9
888.219	977.9
893.478	960.9
898.731	940.9
903.979	929.9
909.221	936.9
914.458	912.9
919.69	902.9
924.916	925.9
930.136	913.9
935.351	920.9
940.561	924.9
945.766	926.9
950.965	908.9
956.158	898.9
961.347	898.9
966.529	896.9
971.707	873.9
976.879	861.9
982.046	851.9
987.208	850.9
992.364	847.9
997.515	850.9
1002.66	858.9
1007.801	870.9
1012.936	888.9
1018.066	880.9
1023.19	880.9
1028.309	890.9
1033.423	855.9
1038.532	882.9
1043.636	874.9
1048.734	863.9
1053.827	851.9
1058.915	825.9
1063.998	836.9
1069.075	821.9
1074.147	818.9
1079.214	828.9
1084.276	838.9
1089.333	838.9
1094.385	840.9
1099.431	837.9
1104.472	831.9
1109.509	815.9
1114.54	808.9
1119.565	797.9
1124.586	784.9
1129.602	786.9
1134.613	766.9
1139.618	768.9
1144.619	760.9
1149.614	790.9
1154.604	763.9
1159.589	775.9
1164.57	769.9
1169.545	775.9
1174.515	782.9
1179.48	768.9
1184.44	779.9
1189.395	762.9
1194.345	754.9
1199.29	748.9
1204.23	750.9
1209.165	758.9
1214.095	746.9
1219.021	762.9
1223.941	764.9
1228.856	762.9
1233.766	761.9
1238.672	766.9
1243.572	767.9
1248.467	764.9
1253.358	741.9
1258.244	732.9
1263.124	736.9
1268	713.9
1272.871	702.9
1277.737	703.9
1282.599	698.9
1287.455	692.9
1292.306	694.9
1297.153	698.9
1301.995	717.9
1306.832	692.9
1311.664	708.9
1316.491	715.9
1321.314	708.9
1326.132	713.9
1330.945	693.9
1335.753	686.9
1340.556	664.9
1345.354	637.9
1350.148	637.9
1354.937	622.9
1359.722	610.9
1364.501	596.9
1369.276	605.9
1374.046	582.9
1378.811	576.9
1383.572	582.9
1388.327	576.9
1393.079	567.9
1397.825	576.9
1402.567	593.9
1407.304	581.9
1412.036	591.9
1416.764	582.9
1421.487	581.9
1426.205	576.9
1430.919	581.9
1435.628	582.9
1440.333	597.9
1445.032	593.9
1449.727	615.9
1454.418	613.9
1459.104	603.9
1463.785	598.9
1468.462	586.9
1473.134	572.9
1477.802	544.9
1482.465	530.9
1487.123	523.9
1491.777	505.9
1496.426	507.9
1501.071	492.9
1505.711	498.9
1510.347	490.9
1514.978	494.9
1519.604	484.9
1524.226	489.9
1528.844	480.9
1533.457	481.9
1538.065	483.9
1542.669	474.9
1547.269	479.9
1551.864	484.9
1556.454	495.9
1561.041	504.9
1565.622	507.9
1570.199	499.9
1574.772	508.9
1579.34	512.9
1583.904	514.9
1588.464	523.9
1593.019	534.9
1597.569	524.9
1602.115	539.9
1606.657	523.9
1611.195	513.9
1615.728	521.9
1620.256	516.9
1624.78	512.9
1629.3	515.9
1633.816	521.9
1638.327	520.9
1642.834	510.9
1647.336	504.9
1651.834	515.9
1656.328	510.9
1660.817	507.9
1665.302	500.9
1669.783	491.9
1674.259	485.9
1678.732	470.9
1683.199	446.9
1687.663	439.9
1692.122	402.9
1696.577	396.9
1701.028	381.9
1705.474	358.9
1709.917	347.9
1714.355	350.9
1718.788	342.9
1723.218	353.9
1727.643	351.9
1732.064	355.9
1736.481	353.9
1740.893	334.9
1745.301	329.9
1749.705	331.9
1754.105	315.9
1758.501	308.9
1762.893	301.9
1767.28	294.9
1771.663	289.9
1776.042	286.9
1780.417	286.9
1784.787	282.9
1789.154	276.9
1793.516	266.9
1797.874	266.9
1802.228	259.9
1806.578	255.9
1810.924	244.9
1815.266	260.9
1819.603	258.9
1823.937	256.9
1828.266	262.9
1832.591	262.9
1836.913	253.9
1841.23	260.9
1845.543	262.9
1849.852	274.9
1854.156	270.9
1858.457	276.9
1862.754	266.9
1867.047	267.9
1871.335	255.9
1875.62	257.9
1879.9	263.9
1884.177	254.9
1888.449	253.9
1892.718	257.9
1896.982	244.9
1901.243	232.9
1905.499	240.9
1909.752	224.9
1914	224.9
1918.245	217.9
1922.485	213.9
1926.722	204.9
1930.954	213.9
1935.183	215.9
1939.408	215.9
1943.628	207.9
1947.845	207.9
1952.058	206.9
1956.267	200.9
1960.472	204.9
1964.673	196.9
1968.87	202.9
1973.063	194.9
1977.252	203.9
1981.438	201.9
1985.619	193.9
1989.797	197.9
1993.971	201.9
1998.14	197.9
2002.306	201.9
2006.469	205.9
2010.627	207.9
2014.781	206.9
2018.932	204.9
2023.078	201.9
2027.221	203.9
2031.36	207.9
2035.495	188.9
2039.627	179.9
2043.754	191.9
2047.878	183.9
2051.998	191.9
2056.114	180.9
2060.226	179.9
2064.334	177.9
2068.439	170.9
2072.54	171.9
2076.637	174.9
2080.73	170.9
2084.82	173.9
2088.906	165.9
2092.988	171.9
2097.066	161.9
2101.14	161.9
2105.211	162.9
2109.278	160.9
2113.342	156.9
2117.401	158.9
2121.457	155.9
2125.509	158.9
2129.558	150.9
2133.602	146.9
2137.643	152.9
2141.681	148.9
2145.714	161.9
2149.744	146.9
2153.77	155.9
2157.793	157.9
2161.812	159.9
2165.827	146.9
2169.838	144.9
2173.846	148.9
2177.851	144.9
2181.851	149.9
2185.848	144.9
2189.841	137.9
2193.831	133.9
2197.817	142.9
2201.799	138.9
2205.778	133.9
2209.753	144.9
2213.725	139.9
2217.693	137.9
2221.657	129.9
2225.618	135.9
2229.575	133.9
2233.529	128.9
2237.479	133.9
2241.425	127.9
2245.368	135.9
2249.307	137.9
2253.243	125.9
2257.175	122.9
2261.104	115.9
2265.029	120.9
2268.95	114.9
2272.868	116.9
2276.783	114.9
2280.694	106.9
2284.601	102.9
2288.505	111.9
2292.405	111.9
2296.302	114.9
2300.195	104.9
2304.085	115.9
2307.971	111.9
2311.854	97.9
2315.734	97.9
2319.609	109.9
2323.482	102.9
2327.351	111.9
2331.216	121.9
2335.078	130.9
2338.937	120.9
2342.792	101.9
2346.643	106.9
2350.492	106.9
2354.336	116.9
2358.178	100.9
2362.015	100.9
2365.85	96.9
2369.681	106.9
2373.508	110.9
2377.333	110.9
2381.153	99.9
2384.971	101.9
2388.785	99.9
2392.595	107.9
2396.402	109.9
2400.206	99.9
2404.007	98.9
2407.804	92.9
2411.597	104.9
2415.388	101.9
2419.174	104.9
2422.958	92.9
2426.738	98.9
2430.515	95.9
2434.289	98.9
2438.059	88.9
2441.825	91.9
2445.589	93.9
2449.349	96.9
2453.106	95.9
2456.859	89.9
2460.61	87.9
2464.356	86.9
2468.1	83.9
2471.84	73.9
2475.577	82.9
2479.311	78.9
2483.041	86.9
2486.768	81.9
2490.492	81.9
2494.213	81.9
2497.93	74.9
2501.644	82.9
2505.355	72.9
2509.062	72.9
2512.766	68.9
2516.467	66.9
2520.165	71.9
2523.859	73.9
2527.551	64.9
2531.239	71.9
2534.923	62.9
2538.605	62.9
2542.283	56.9
2545.958	62.9
2549.63	60.9
2553.299	61.9
2556.964	52.9
2560.626	60.9
2564.285	57.9
2567.941	50.9
2571.594	50.9
2575.243	53.9
2578.89	55.9
2582.533	49.9
2586.173	52.9
2589.809	58.9
2593.443	59.9
2597.073	56.9
2600.701	51.9
2604.325	47.9
2607.946	40.9
2611.564	54.9
2615.178	48.9
2618.79	45.9
2622.398	46.9
2626.004	39.9
2629.606	45.9
2633.205	50.9
2636.801	44.9
2640.394	49.9
2643.983	49.9
2647.57	39.9
2651.153	39.9
2654.734	37.9
2658.311	41.9
2661.885	43.9
2665.456	43.9
2669.025	40.9
2672.589	36.9
2676.151	37.9
2679.71	33.9
2683.266	34.9
2686.819	41.9
2690.368	41.9
2693.915	35.9
2697.458	36.9
2700.999	37.9
2704.536	36.9
2708.071	29.9
2711.602	32.9
2715.13	30.9
2718.656	27.9
2722.178	25.9
2725.697	24.9
2729.214	26.9
2732.727	30.9
2736.237	34.9
2739.744	26.9
2743.249	28.9
2746.75	26.9
2750.248	27.9
2753.743	18.9
2757.236	18.9
2760.725	22.9
2764.211	15.9
2767.695	10.9
2771.175	15.9
2774.652	20.9
2778.127	13.9
2781.598	16.9
2785.067	17.9
2788.532	9.9
2791.995	18.9
2795.455	12.9
2798.911	16.9
2802.365	20.9
2805.816	15.9
2809.264	15.9
2812.709	16.9
2816.151	20.9
2819.59	28.9
2823.026	13.9
2826.46	20.9
2829.89	16.9
2833.318	24.9
2836.742	19.9
2840.164	16.9
2843.583	21.9
2846.999	20.9
2850.412	23.9
2853.822	19.9
2857.229	24.9
2860.634	17.9
2864.035	18.9
2867.434	15.9
2870.83	20.9
2874.223	23.9
2877.613	26.9
2881	24.9
2884.385	30.9
2887.766	34.9
2891.145	29.9
2894.521	32.9
2897.894	33.9
2901.264	33.9
2904.631	31.9
2907.996	31.9
2911.358	36.9
2914.717	24.9
2918.073	26.9
2921.426	28.9
2924.777	38.9
2928.124	34.9
2931.469	39.9
2934.811	42.9
2938.15	45.9
2941.487	47.9
2944.821	41.9
2948.152	42.9
2951.48	39.9
2954.805	42.9
2958.128	37.9
2961.447	39.9
2964.765	35.9
2968.079	30.9
2971.39	43.9
2974.699	32.9
2978.005	37.9
2981.308	32.9
2984.609	33.9
2987.907	35.9
2991.202	36.9
2994.494	34.9
2997.784	35.9
3001.07	33.9
3004.355	31.9
3007.636	38.9
3010.915	40.9
3014.191	37.9
3017.464	44.9
3020.734	40.9
3024.002	48.9
3027.267	48.9
3030.53	40.9
3033.789	50.9
3037.046	46.9
3040.301	51.9
3043.552	53.9
3046.801	54.9
3050.048	48.9
3053.291	52.9
3056.532	57.9
3059.771	61.9
3063.006	58.9
3066.239	62.9
3069.469	74.9
3072.697	69.9
3075.922	76.9
3079.144	75.9
3082.364	84.9
3085.581	79.9
3088.795	85.9
3092.007	89.9
3095.216	89.9
3098.423	88.9
3101.627	83.9
3104.828	94.9
3108.026	94.9
3111.222	96.9
3114.416	104.9
3117.607	104.9
3120.795	105.9
3123.98	101.9
3127.163	121.9
3130.344	119.9
3133.521	117.9
3136.696	114.9
3139.869	125.9
3143.039	126.9
3146.206	124.9
3149.371	128.9
3152.533	130.9
3155.693	130.9
3158.85	130.9
3162.005	138.9
3165.157	129.9
3168.306	137.9
3171.453	135.9
3174.597	132.9
3177.739	137.9
3180.878	138.9
3184.014	133.9
3187.149	138.9
3190.28	135.9
3193.409	137.9
3196.536	130.9
3199.659	141.9
3202.781	139.9
3205.9	129.9
3209.016	131.9
3212.13	132.9
3215.241	135.9
3218.35	129.9
3221.456	132.9
3224.56	135.9
3227.661	129.9
3230.76	124.9
3233.856	124.9
3236.95	116.9
3240.041	115.9
3243.13	109.9
3246.216	113.9
3249.3	106.9
3252.382	111.9
3255.46	108.9
3258.537	110.9
3261.611	104.9
3264.682	104.9
3267.751	99.9
3270.818	96.9
3273.882	101.9
3276.943	99.9
3280.002	95.9
3283.059	100.9
3286.113	94.9
3289.165	92.9
3292.214	94.9
3295.261	96.9
3298.306	94.9
3301.348	93.9
3304.387	92.9
3307.425	90.9
3310.459	85.9
3313.492	92.9
3316.521	87.9
3319.549	89.9
3322.574	86.9
3325.597	83.9
3328.617	87.9
3331.635	93.9
3334.65	92.9
3337.663	78.9
3340.674	87.9
3343.682	85.9
3346.688	84.9
3349.691	86.9
3352.692	81.9
3355.691	89.9
3358.687	89.9
3361.681	80.9
3364.673	82.9
3367.662	77.9
3370.649	84.9
3373.633	78.9
3376.615	74.9
3379.595	76.9
3382.572	69.9
3385.547	78.9
3388.52	70.9
3391.49	66.9
3394.458	62.9
3397.424	71.9
3400.387	69.9
3403.348	59.9
3406.307	53.9
3409.263	66.9
3412.217	54.9
3415.168	61.9
3418.118	56.9
3421.065	56.9
3424.009	60.9
3426.951	54.9
3429.891	56.9
3432.829	51.9
3435.764	52.9
3438.697	48.9
3441.628	37.9
3444.557	39.9
3447.483	31.9
3450.407	36.9
3453.328	37.9
3456.247	36.9
3459.164	27.9
3462.079	28.9
3464.991	21.9
3467.902	26.9
3470.809	24.9
3473.715	24.9
3476.618	16.9
3479.519	9.9
3482.418	12.9
3485.315	6.9
3488.209	2.9
3491.101	2.9
3493.99	5.9
3496.878	-2.1
3499.763	0.9
3502.646	1.9
3505.527	2.9
3508.405	0.9
3511.281	4.9
3514.155	-5.1
3517.027	-9.1
3519.897	-1.1
3522.764	-8.1
3525.629	-12.1
3528.492	-13.1
3531.352	-15.1
3534.211	-19.1
3537.067	-18.1
3539.921	-20.1
3542.773	-25.1
3545.622	-21.1
3548.469	-15.1
3551.315	-17.1
3554.157	-23.1
3556.998	-22.1
3559.837	-30.1
3562.673	-26.1
3565.507	-26.1
3568.339	-24.1
3571.169	-27.1
3573.996	-26.1
3576.822	-30.1
3579.645	-30.1
3582.466	-22.1
3585.285	-29.1
3588.101	-30.1
3590.916	-27.1
3593.728	-37.1
3596.538	-41.1
3599.346	-38.1
3602.152	-37.1
3604.956	-34.1
3607.757	-29.1
3610.556	-36.1
3613.354	-43.1
3616.149	-38.1
3618.942	-34.1
3621.732	-37.1
3624.521	-37.1
3627.307	-40.1
3630.092	-45.1
3632.874	-44.1
3635.654	-46.1
3638.432	-40.1
3641.208	-42.1
3643.982	-37.1
3646.753	-50.1
3649.523	-37.1
3652.29	-45.1
3655.055	-38.1
3657.818	-45.1
3660.579	-45.1
3663.338	-38.1
3666.095	-43.1
3668.849	-46.1
3671.602	-45.1
3674.352	-40.1
3677.101	-45.1
3679.847	-43.1
3682.591	-47.1
3685.333	-47.1
3688.073	-50.1
3690.811	-48.1
3693.547	-48.1
3696.281	-47.1
3699.013	-42.1
3701.742	-49.1
3704.47	-45.1
3707.195	-47.1
3709.919	-48.1
3712.64	-49.1
3715.359	-47.1
3718.076	-52.1
3720.792	-48.1
3723.505	-50.1
3726.216	-44.1
3728.925	-49.1
3731.632	-49.1
3734.336	-50.1
3737.039	-52.1
3739.74	-54.1
3742.439	-51.1
3745.136	-51.1
3747.83	-49.1
3750.523	-53.1
3753.213	-64.1
3755.902	-51.1
3758.589	-50.1
3761.273	-49.1
3763.956	-46.1
3766.636	-48.1
3769.315	-53.1
3771.991	-57.1
3774.665	-51.1
3777.338	-52.1
3780.008	-54.1
3782.677	-63.1
3785.343	-47.1
3788.007	-52.1
3790.67	-49.1
3793.33	-47.1
3795.989	-50.1
3798.645	-52.1
3801.299	-48.1
3803.952	-49.1
3806.602	-54.1
3809.251	-57.1
3811.897	-57.1
3814.542	-60.1
3817.184	-54.1
3819.825	-47.1
3822.463	-46.1
3825.1	-49.1
3827.735	-56.1
3830.367	-57.1
3832.998	-54.1
3835.627	-53.1
3838.253	-47.1
3840.878	-50.1
3843.501	-46.1
3846.122	-57.1
3848.741	-55.1
3851.358	-53.1
3853.973	-52.1
3856.586	-52.1
3859.197	-52.1
3861.806	-47.1
3864.414	-53.1
3867.019	-51.1
3869.622	-42.1
3872.224	-40.1
3874.823	-38.1
3877.421	-28.1
3880.016	-14.1
3882.61	3.9
3885.202	4.9
3887.792	-6.1
3890.38	-21.1
3892.966	-37.1
3895.55	-48.1
3898.132	-49.1
3900.713	-49.1
3903.291	-47.1
3905.868	-48.1
3908.442	-53.1
3911.015	-49.1
3913.586	-59.1
3916.155	-54.1
3918.722	-52.1
3921.287	-57.1
3923.85	-49.1
3926.411	-56.1
3928.971	-62.1
3931.528	-54.1
3934.084	-53.1
3936.638	-51.1
3939.19	-53.1
3941.74	-51.1
3944.288	-55.1
3946.834	-56.1
3949.378	-55.1
3951.921	-56.1
3954.462	-53.1
3957	-49.1
3959.537	-45.1
3962.072	-50.1
3964.606	-50.1
3967.137	-47.1
3969.667	-55.1
3972.194	-50.1
3974.72	-48.1
3977.244	-47.1
3979.766	-50.1
3982.286	-57.1
3984.805	-66.1
3987.321	-55.1
3989.836	-47.1
3992.349	-54.1
3994.86	-57.1
3997.369	-58.1
3999.877	-51.1
4002.382	-53.1
4004.886	-45.1
4007.388	-54.1
4009.888	-54.1
4012.386	-54.1
4014.883	-50.1
4017.377	-48.1
4019.87	-51.1
4022.361	-58.1
4024.85	-49.1
4027.338	-56.1
4029.823	-57.1
4032.307	-58.1
4034.789	-52.1
4037.269	-54.1
4039.747	-56.1
4042.224	-53.1
4044.699	-57.1
4047.172	-54.1
4049.643	-55.1
4052.112	-50.1
4054.58	-55.1
4057.046	-49.1
4059.51	-52.1
4061.972	-58.1
4064.432	-53.1
4066.891	-50.1
4069.348	-51.1
4071.803	-49.1
4074.256	-54.1
4076.708	-48.1
4079.158	-59.1
4081.606	-51.1
4084.052	-57.1
4086.497	-49.1
4088.939	-54.1
4091.38	-56.1
4093.819	-55.1
4096.257	-56.1
4098.693	-60.1
4101.127	-50.1
4103.559	-58.1
4105.989	10.9
4108.418	9.9
4110.845	4.9
4113.27	12.9
4115.694	11.9
4118.115	9.9
4120.535	-53.1
4122.954	-50.1
4125.37	-52.1
4127.785	-50.1
4130.198	-53.1
4132.609	-58.1
4135.019	-59.1
4137.427	-55.1
4139.833	-53.1
4142.237	-54.1
