Data from 2018-3-7_conc=5_n=1_RamanShift_01.txt Node
Date: Wed Mar 07 12:22:52 IST 2018
User: aro
Spectrometer: QEPB0276
Trigger mode: 0
Integration Time (sec): 3.000000E1
Scans to average: 1
Electric dark correction enabled: true
Nonlinearity correction enabled: false
Boxcar width: 0
XAxis mode: Raman Shifts
Number of Pixels in Spectrum: 1044
>>>>>Begin Spectral Data<<<<<
160.701	9.4
166.742	28.4
172.777	54.4
178.805	162.4
184.826	410.4
190.841	874.4
196.849	1453.4
202.85	1904.4
208.845	2080.4
214.833	2078.4
220.815	2064.4
226.789	2036.4
232.758	2051.4
238.719	2052.4
244.674	2010.4
250.623	2020.4
256.565	2012.4
262.5	1968.4
268.429	1949.4
274.351	1948.4
280.267	1918.4
286.176	1923.4
292.079	1917.4
297.975	1914.4
303.865	1907.4
309.748	1906.4
315.625	1897.4
321.495	1903.4
327.359	1925.4
333.217	1890.4
339.068	1907.4
344.912	1919.4
350.751	1907.4
356.583	1908.4
362.408	1909.4
368.227	1904.4
374.04	1924.4
379.847	1934.4
385.647	1944.4
391.44	1954.4
397.228	1938.4
403.009	1966.4
408.784	1979.4
414.553	1991.4
420.315	1980.4
426.071	1996.4
431.821	1982.4
437.565	1994.4
443.302	1979.4
449.033	1970.4
454.758	1965.4
460.477	1976.4
466.189	1941.4
471.896	1943.4
477.596	1921.4
483.29	1925.4
488.978	1900.4
494.66	1895.4
500.335	1863.4
506.005	1803.4
511.668	1741.4
517.325	1700.4
522.977	1650.4
528.622	1599.4
534.261	1578.4
539.894	1550.4
545.521	1546.4
551.141	1552.4
556.756	1528.4
562.365	1503.4
567.968	1506.4
573.565	1485.4
579.155	1489.4
584.74	1486.4
590.319	1484.4
595.892	1478.4
601.459	1470.4
607.02	1452.4
612.575	1442.4
618.124	1429.4
623.667	1434.4
629.204	1408.4
634.735	1401.4
640.261	1374.4
645.781	1376.4
651.294	1382.4
656.802	1374.4
662.304	1363.4
667.8	1368.4
673.29	1356.4
678.775	1367.4
684.254	1363.4
689.726	1361.4
695.193	1359.4
700.655	1332.4
706.11	1332.4
711.56	1319.4
717.004	1296.4
722.442	1282.4
727.874	1295.4
733.301	1286.4
738.722	1274.4
744.137	1279.4
749.547	1283.4
754.951	1281.4
760.349	1291.4
765.741	1288.4
771.128	1275.4
776.509	1296.4
781.885	1310.4
787.254	1290.4
792.618	1308.4
797.977	1301.4
803.33	1293.4
808.677	1286.4
814.019	1284.4
819.355	1250.4
824.686	1259.4
830.011	1255.4
835.33	1234.4
840.644	1245.4
845.952	1251.4
851.255	1239.4
856.552	1242.4
861.844	1221.4
867.13	1211.4
872.41	1186.4
877.686	1211.4
882.955	1193.4
888.219	1176.4
893.478	1175.4
898.731	1149.4
903.979	1126.4
909.221	1129.4
914.458	1114.4
919.69	1143.4
924.916	1110.4
930.136	1138.4
935.351	1152.4
940.561	1132.4
945.766	1131.4
950.965	1129.4
956.158	1126.4
961.347	1111.4
966.529	1095.4
971.707	1069.4
976.879	1048.4
982.046	1048.4
987.208	1040.4
992.364	1031.4
997.515	1034.4
1002.66	1045.4
1007.801	1067.4
1012.936	1077.4
1018.066	1078.4
1023.19	1082.4
1028.309	1071.4
1033.423	1063.4
1038.532	1073.4
1043.636	1059.4
1048.734	1062.4
1053.827	1037.4
1058.915	1023.4
1063.998	1006.4
1069.075	1005.4
1074.147	1012.4
1079.214	1009.4
1084.276	1021.4
1089.333	1021.4
1094.385	1027.4
1099.431	1013.4
1104.472	1001.4
1109.509	1016.4
1114.54	991.4
1119.565	973.4
1124.586	965.4
1129.602	961.4
1134.613	957.4
1139.618	939.4
1144.619	952.4
1149.614	955.4
1154.604	953.4
1159.589	956.4
1164.57	946.4
1169.545	958.4
1174.515	958.4
1179.48	963.4
1184.44	945.4
1189.395	938.4
1194.345	936.4
1199.29	898.4
1204.23	927.4
1209.165	923.4
1214.095	922.4
1219.021	934.4
1223.941	945.4
1228.856	930.4
1233.766	946.4
1238.672	935.4
1243.572	946.4
1248.467	943.4
1253.358	928.4
1258.244	910.4
1263.124	888.4
1268	889.4
1272.871	873.4
1277.737	864.4
1282.599	864.4
1287.455	859.4
1292.306	854.4
1297.153	877.4
1301.995	872.4
1306.832	878.4
1311.664	881.4
1316.491	880.4
1321.314	883.4
1326.132	872.4
1330.945	860.4
1335.753	839.4
1340.556	818.4
1345.354	799.4
1350.148	795.4
1354.937	784.4
1359.722	767.4
1364.501	731.4
1369.276	740.4
1374.046	716.4
1378.811	703.4
1383.572	707.4
1388.327	696.4
1393.079	700.4
1397.825	702.4
1402.567	712.4
1407.304	714.4
1412.036	716.4
1416.764	722.4
1421.487	723.4
1426.205	721.4
1430.919	723.4
1435.628	728.4
1440.333	726.4
1445.032	728.4
1449.727	737.4
1454.418	744.4
1459.104	728.4
1463.785	732.4
1468.462	711.4
1473.134	703.4
1477.802	678.4
1482.465	658.4
1487.123	654.4
1491.777	636.4
1496.426	633.4
1501.071	617.4
1505.711	622.4
1510.347	614.4
1514.978	598.4
1519.604	582.4
1524.226	596.4
1528.844	592.4
1533.457	582.4
1538.065	592.4
1542.669	578.4
1547.269	585.4
1551.864	583.4
1556.454	609.4
1561.041	602.4
1565.622	619.4
1570.199	614.4
1574.772	623.4
1579.34	645.4
1583.904	628.4
1588.464	643.4
1593.019	650.4
1597.569	658.4
1602.115	640.4
1606.657	648.4
1611.195	643.4
1615.728	648.4
1620.256	630.4
1624.78	651.4
1629.3	646.4
1633.816	641.4
1638.327	644.4
1642.834	636.4
1647.336	648.4
1651.834	640.4
1656.328	640.4
1660.817	636.4
1665.302	623.4
1669.783	611.4
1674.259	601.4
1678.732	591.4
1683.199	564.4
1687.663	532.4
1692.122	512.4
1696.577	499.4
1701.028	471.4
1705.474	440.4
1709.917	439.4
1714.355	416.4
1718.788	414.4
1723.218	414.4
1727.643	428.4
1732.064	412.4
1736.481	417.4
1740.893	409.4
1745.301	397.4
1749.705	398.4
1754.105	393.4
1758.501	369.4
1762.893	370.4
1767.28	362.4
1771.663	366.4
1776.042	353.4
1780.417	338.4
1784.787	347.4
1789.154	330.4
1793.516	322.4
1797.874	311.4
1802.228	318.4
1806.578	309.4
1810.924	304.4
1815.266	310.4
1819.603	306.4
1823.937	314.4
1828.266	310.4
1832.591	317.4
1836.913	314.4
1841.23	319.4
1845.543	321.4
1849.852	327.4
1854.156	326.4
1858.457	324.4
1862.754	335.4
1867.047	325.4
1871.335	318.4
1875.62	318.4
1879.9	328.4
1884.177	303.4
1888.449	305.4
1892.718	306.4
1896.982	297.4
1901.243	283.4
1905.499	285.4
1909.752	271.4
1914	270.4
1918.245	271.4
1922.485	260.4
1926.722	261.4
1930.954	251.4
1935.183	259.4
1939.408	255.4
1943.628	250.4
1947.845	242.4
1952.058	244.4
1956.267	237.4
1960.472	245.4
1964.673	227.4
1968.87	237.4
1973.063	236.4
1977.252	234.4
1981.438	241.4
1985.619	237.4
1989.797	233.4
1993.971	239.4
1998.14	242.4
2002.306	240.4
2006.469	254.4
2010.627	236.4
2014.781	244.4
2018.932	249.4
2023.078	253.4
2027.221	235.4
2031.36	251.4
2035.495	240.4
2039.627	221.4
2043.754	231.4
2047.878	225.4
2051.998	229.4
2056.114	215.4
2060.226	218.4
2064.334	221.4
2068.439	222.4
2072.54	212.4
2076.637	210.4
2080.73	206.4
2084.82	212.4
2088.906	207.4
2092.988	210.4
2097.066	201.4
2101.14	200.4
2105.211	200.4
2109.278	193.4
2113.342	180.4
2117.401	186.4
2121.457	189.4
2125.509	186.4
2129.558	195.4
2133.602	180.4
2137.643	183.4
2141.681	178.4
2145.714	183.4
2149.744	185.4
2153.77	187.4
2157.793	193.4
2161.812	192.4
2165.827	188.4
2169.838	183.4
2173.846	183.4
2177.851	177.4
2181.851	177.4
2185.848	171.4
2189.841	170.4
2193.831	173.4
2197.817	174.4
2201.799	163.4
2205.778	166.4
2209.753	170.4
2213.725	169.4
2217.693	173.4
2221.657	171.4
2225.618	169.4
2229.575	164.4
2233.529	159.4
2237.479	173.4
2241.425	156.4
2245.368	163.4
2249.307	165.4
2253.243	154.4
2257.175	152.4
2261.104	140.4
2265.029	156.4
2268.95	147.4
2272.868	143.4
2276.783	145.4
2280.694	144.4
2284.601	146.4
2288.505	141.4
2292.405	137.4
2296.302	143.4
2300.195	136.4
2304.085	130.4
2307.971	133.4
2311.854	132.4
2315.734	119.4
2319.609	129.4
2323.482	133.4
2327.351	129.4
2331.216	140.4
2335.078	147.4
2338.937	137.4
2342.792	134.4
2346.643	137.4
2350.492	130.4
2354.336	131.4
2358.178	128.4
2362.015	125.4
2365.85	125.4
2369.681	135.4
2373.508	137.4
2377.333	126.4
2381.153	134.4
2384.971	132.4
2388.785	128.4
2392.595	126.4
2396.402	133.4
2400.206	133.4
2404.007	130.4
2407.804	127.4
2411.597	122.4
2415.388	122.4
2419.174	127.4
2422.958	128.4
2426.738	120.4
2430.515	124.4
2434.289	120.4
2438.059	118.4
2441.825	119.4
2445.589	111.4
2449.349	118.4
2453.106	113.4
2456.859	117.4
2460.61	113.4
2464.356	114.4
2468.1	111.4
2471.84	106.4
2475.577	101.4
2479.311	108.4
2483.041	107.4
2486.768	103.4
2490.492	96.4
2494.213	87.4
2497.93	102.4
2501.644	94.4
2505.355	91.4
2509.062	99.4
2512.766	91.4
2516.467	93.4
2520.165	94.4
2523.859	103.4
2527.551	85.4
2531.239	88.4
2534.923	86.4
2538.605	80.4
2542.283	77.4
2545.958	85.4
2549.63	84.4
2553.299	70.4
2556.964	74.4
2560.626	83.4
2564.285	78.4
2567.941	64.4
2571.594	69.4
2575.243	73.4
2578.89	67.4
2582.533	67.4
2586.173	60.4
2589.809	67.4
2593.443	72.4
2597.073	74.4
2600.701	76.4
2604.325	57.4
2607.946	57.4
2611.564	63.4
2615.178	63.4
2618.79	67.4
2622.398	63.4
2626.004	57.4
2629.606	57.4
2633.205	60.4
2636.801	60.4
2640.394	65.4
2643.983	55.4
2647.57	60.4
2651.153	49.4
2654.734	52.4
2658.311	55.4
2661.885	57.4
2665.456	59.4
2669.025	61.4
2672.589	50.4
2676.151	52.4
2679.71	51.4
2683.266	58.4
2686.819	58.4
2690.368	55.4
2693.915	52.4
2697.458	45.4
2700.999	45.4
2704.536	47.4
2708.071	50.4
2711.602	37.4
2715.13	32.4
2718.656	40.4
2722.178	34.4
2725.697	38.4
2729.214	45.4
2732.727	42.4
2736.237	43.4
2739.744	30.4
2743.249	36.4
2746.75	36.4
2750.248	29.4
2753.743	28.4
2757.236	32.4
2760.725	31.4
2764.211	24.4
2767.695	23.4
2771.175	20.4
2774.652	23.4
2778.127	22.4
2781.598	19.4
2785.067	17.4
2788.532	19.4
2791.995	30.4
2795.455	20.4
2798.911	21.4
2802.365	28.4
2805.816	28.4
2809.264	27.4
2812.709	19.4
2816.151	34.4
2819.59	34.4
2823.026	25.4
2826.46	28.4
2829.89	27.4
2833.318	30.4
2836.742	29.4
2840.164	26.4
2843.583	29.4
2846.999	29.4
2850.412	29.4
2853.822	29.4
2857.229	33.4
2860.634	27.4
2864.035	26.4
2867.434	31.4
2870.83	42.4
2874.223	30.4
2877.613	45.4
2881	40.4
2884.385	40.4
2887.766	41.4
2891.145	41.4
2894.521	37.4
2897.894	46.4
2901.264	32.4
2904.631	34.4
2907.996	39.4
2911.358	44.4
2914.717	43.4
2918.073	42.4
2921.426	40.4
2924.777	54.4
2928.124	49.4
2931.469	53.4
2934.811	57.4
2938.15	59.4
2941.487	64.4
2944.821	57.4
2948.152	71.4
2951.48	57.4
2954.805	55.4
2958.128	55.4
2961.447	61.4
2964.765	48.4
2968.079	46.4
2971.39	52.4
2974.699	55.4
2978.005	60.4
2981.308	49.4
2984.609	48.4
2987.907	53.4
2991.202	48.4
2994.494	54.4
2997.784	49.4
3001.07	59.4
3004.355	59.4
3007.636	55.4
3010.915	61.4
3014.191	50.4
3017.464	63.4
3020.734	57.4
3024.002	64.4
3027.267	64.4
3030.53	63.4
3033.789	66.4
3037.046	62.4
3040.301	67.4
3043.552	67.4
3046.801	82.4
3050.048	71.4
3053.291	79.4
3056.532	82.4
3059.771	88.4
3063.006	96.4
3066.239	90.4
3069.469	99.4
3072.697	100.4
3075.922	108.4
3079.144	108.4
3082.364	115.4
3085.581	111.4
3088.795	117.4
3092.007	124.4
3095.216	122.4
3098.423	123.4
3101.627	121.4
3104.828	130.4
3108.026	133.4
3111.222	134.4
3114.416	149.4
3117.607	144.4
3120.795	137.4
3123.98	146.4
3127.163	161.4
3130.344	157.4
3133.521	151.4
3136.696	162.4
3139.869	169.4
3143.039	169.4
3146.206	172.4
3149.371	178.4
3152.533	179.4
3155.693	184.4
3158.85	178.4
3162.005	181.4
3165.157	186.4
3168.306	177.4
3171.453	178.4
3174.597	179.4
3177.739	185.4
3180.878	187.4
3184.014	177.4
3187.149	182.4
3190.28	189.4
3193.409	187.4
3196.536	183.4
3199.659	190.4
3202.781	188.4
3205.9	190.4
3209.016	191.4
3212.13	184.4
3215.241	180.4
3218.35	182.4
3221.456	176.4
3224.56	171.4
3227.661	175.4
3230.76	168.4
3233.856	174.4
3236.95	161.4
3240.041	158.4
3243.13	165.4
3246.216	152.4
3249.3	154.4
3252.382	154.4
3255.46	163.4
3258.537	153.4
3261.611	152.4
3264.682	142.4
3267.751	145.4
3270.818	131.4
3273.882	146.4
3276.943	130.4
3280.002	140.4
3283.059	137.4
3286.113	124.4
3289.165	130.4
3292.214	131.4
3295.261	126.4
3298.306	134.4
3301.348	135.4
3304.387	137.4
3307.425	122.4
3310.459	134.4
3313.492	124.4
3316.521	127.4
3319.549	132.4
3322.574	121.4
3325.597	129.4
3328.617	120.4
3331.635	126.4
3334.65	126.4
3337.663	116.4
3340.674	122.4
3343.682	122.4
3346.688	120.4
3349.691	130.4
3352.692	128.4
3355.691	126.4
3358.687	122.4
3361.681	126.4
3364.673	123.4
3367.662	124.4
3370.649	120.4
3373.633	108.4
3376.615	111.4
3379.595	112.4
3382.572	99.4
3385.547	114.4
3388.52	102.4
3391.49	103.4
3394.458	100.4
3397.424	103.4
3400.387	101.4
3403.348	84.4
3406.307	87.4
3409.263	92.4
3412.217	87.4
3415.168	93.4
3418.118	89.4
3421.065	78.4
3424.009	84.4
3426.951	75.4
3429.891	82.4
3432.829	76.4
3435.764	85.4
3438.697	78.4
3441.628	64.4
3444.557	70.4
3447.483	69.4
3450.407	54.4
3453.328	57.4
3456.247	58.4
3459.164	49.4
3462.079	47.4
3464.991	43.4
3467.902	42.4
3470.809	33.4
3473.715	34.4
3476.618	28.4
3479.519	22.4
3482.418	26.4
3485.315	25.4
3488.209	16.4
3491.101	18.4
3493.99	27.4
3496.878	16.4
3499.763	12.4
3502.646	17.4
3505.527	9.4
3508.405	10.4
3511.281	9.4
3514.155	9.4
3517.027	-0.6
3519.897	5.4
3522.764	-1.6
3525.629	-4.6
3528.492	-8.6
3531.352	-9.6
3534.211	-17.6
3537.067	-13.6
3539.921	-10.6
3542.773	-16.6
3545.622	-13.6
3548.469	-19.6
3551.315	-17.6
3554.157	-22.6
3556.998	-16.6
3559.837	-20.6
3562.673	-20.6
3565.507	-26.6
3568.339	-19.6
3571.169	-22.6
3573.996	-25.6
3576.822	-33.6
3579.645	-32.6
3582.466	-30.6
3585.285	-32.6
3588.101	-34.6
3590.916	-25.6
3593.728	-40.6
3596.538	-37.6
3599.346	-37.6
3602.152	-42.6
3604.956	-34.6
3607.757	-28.6
3610.556	-30.6
3613.354	-39.6
3616.149	-36.6
3618.942	-33.6
3621.732	-36.6
3624.521	-35.6
3627.307	-37.6
3630.092	-42.6
3632.874	-43.6
3635.654	-42.6
3638.432	-44.6
3641.208	-43.6
3643.982	-42.6
3646.753	-46.6
3649.523	-44.6
3652.29	-49.6
3655.055	-43.6
3657.818	-49.6
3660.579	-48.6
3663.338	-41.6
3666.095	-47.6
3668.849	-49.6
3671.602	-48.6
3674.352	-48.6
3677.101	-46.6
3679.847	-48.6
3682.591	-51.6
3685.333	-47.6
3688.073	-53.6
3690.811	-53.6
3693.547	-50.6
3696.281	-50.6
3699.013	-54.6
3701.742	-50.6
3704.47	-55.6
3707.195	-52.6
3709.919	-53.6
3712.64	-52.6
3715.359	-56.6
3718.076	-59.6
3720.792	-53.6
3723.505	-54.6
3726.216	-47.6
3728.925	-57.6
3731.632	-49.6
3734.336	-53.6
3737.039	-51.6
3739.74	-56.6
3742.439	-65.6
3745.136	-57.6
3747.83	-59.6
3750.523	-57.6
3753.213	-72.6
3755.902	-57.6
3758.589	-54.6
3761.273	-59.6
3763.956	-59.6
3766.636	-56.6
3769.315	-55.6
3771.991	-59.6
3774.665	-60.6
3777.338	-59.6
3780.008	-58.6
3782.677	-58.6
3785.343	-57.6
3788.007	-51.6
3790.67	-60.6
3793.33	-57.6
3795.989	-55.6
3798.645	-57.6
3801.299	-52.6
3803.952	-58.6
3806.602	-56.6
3809.251	-63.6
3811.897	-60.6
3814.542	-60.6
3817.184	-55.6
3819.825	-58.6
3822.463	-63.6
3825.1	-56.6
3827.735	-62.6
3830.367	-59.6
3832.998	-60.6
3835.627	-58.6
3838.253	-53.6
3840.878	-47.6
3843.501	-48.6
3846.122	-58.6
3848.741	-56.6
3851.358	-59.6
3853.973	-51.6
3856.586	-56.6
3859.197	-54.6
3861.806	-61.6
3864.414	-60.6
3867.019	-62.6
3869.622	-50.6
3872.224	-47.6
3874.823	-41.6
3877.421	-29.6
3880.016	-19.6
3882.61	-1.6
3885.202	-0.6
3887.792	-9.6
3890.38	-23.6
3892.966	-41.6
3895.55	-53.6
3898.132	-51.6
3900.713	-58.6
3903.291	-58.6
3905.868	-55.6
3908.442	-55.6
3911.015	-55.6
3913.586	-63.6
3916.155	-57.6
3918.722	-65.6
3921.287	-63.6
3923.85	-53.6
3926.411	-62.6
3928.971	-71.6
3931.528	-60.6
3934.084	-57.6
3936.638	-56.6
3939.19	-61.6
3941.74	-55.6
3944.288	-59.6
3946.834	-61.6
3949.378	-57.6
3951.921	-63.6
3954.462	-60.6
3957	-50.6
3959.537	-50.6
3962.072	-50.6
3964.606	-54.6
3967.137	-55.6
3969.667	-57.6
3972.194	-59.6
3974.72	-56.6
3977.244	-57.6
3979.766	-62.6
3982.286	-60.6
3984.805	-69.6
3987.321	-53.6
3989.836	-52.6
3992.349	-57.6
3994.86	-59.6
3997.369	-58.6
3999.877	-59.6
4002.382	-58.6
4004.886	-57.6
4007.388	-63.6
4009.888	-59.6
4012.386	-59.6
4014.883	-59.6
4017.377	-54.6
4019.87	-57.6
4022.361	-60.6
4024.85	-60.6
4027.338	-60.6
4029.823	-62.6
4032.307	-64.6
4034.789	-58.6
4037.269	-59.6
4039.747	-58.6
4042.224	-56.6
4044.699	-57.6
4047.172	-62.6
4049.643	-58.6
4052.112	-59.6
4054.58	-62.6
4057.046	-61.6
4059.51	-61.6
4061.972	-64.6
4064.432	-61.6
4066.891	-55.6
4069.348	-60.6
4071.803	-54.6
4074.256	-57.6
4076.708	-56.6
4079.158	-62.6
4081.606	-58.6
4084.052	-59.6
4086.497	-51.6
4088.939	-51.6
4091.38	-62.6
4093.819	-62.6
4096.257	-63.6
4098.693	-61.6
4101.127	-55.6
4103.559	-68.6
4105.989	18.4
4108.418	9.4
4110.845	4.4
4113.27	10.4
4115.694	13.4
4118.115	15.4
4120.535	-55.6
4122.954	-53.6
4125.37	-60.6
4127.785	-57.6
4130.198	-54.6
4132.609	-61.6
4135.019	-63.6
4137.427	-64.6
4139.833	-64.6
4142.237	-61.6
