Data from 2018-3-7_conc=5_n=6_RamanShift_01.txt Node
Date: Wed Mar 07 12:40:22 IST 2018
User: aro
Spectrometer: QEPB0276
Trigger mode: 0
Integration Time (sec): 3.000000E1
Scans to average: 1
Electric dark correction enabled: true
Nonlinearity correction enabled: false
Boxcar width: 0
XAxis mode: Raman Shifts
Number of Pixels in Spectrum: 1044
>>>>>Begin Spectral Data<<<<<
160.701	5.9
166.742	16.9
172.777	57.9
178.805	184.9
184.826	501.9
190.841	1069.9
196.849	1787.9
202.85	2340.9
208.845	2591.9
214.833	2569.9
220.815	2534.9
226.789	2542.9
232.758	2549.9
238.719	2535.9
244.674	2514.9
250.623	2503.9
256.565	2452.9
262.5	2402.9
268.429	2369.9
274.351	2354.9
280.267	2346.9
286.176	2331.9
292.079	2324.9
297.975	2312.9
303.865	2304.9
309.748	2292.9
315.625	2291.9
321.495	2286.9
327.359	2298.9
333.217	2271.9
339.068	2282.9
344.912	2271.9
350.751	2274.9
356.583	2288.9
362.408	2289.9
368.227	2297.9
374.04	2321.9
379.847	2302.9
385.647	2297.9
391.44	2322.9
397.228	2328.9
403.009	2340.9
408.784	2339.9
414.553	2369.9
420.315	2362.9
426.071	2354.9
431.821	2356.9
437.565	2350.9
443.302	2331.9
449.033	2354.9
454.758	2338.9
460.477	2305.9
466.189	2326.9
471.896	2300.9
477.596	2282.9
483.29	2272.9
488.978	2269.9
494.66	2285.9
500.335	2217.9
506.005	2195.9
511.668	2108.9
517.325	2087.9
522.977	2005.9
528.622	1988.9
534.261	1941.9
539.894	1928.9
545.521	1915.9
551.141	1909.9
556.756	1901.9
562.365	1887.9
567.968	1876.9
573.565	1891.9
579.155	1875.9
584.74	1866.9
590.319	1852.9
595.892	1842.9
601.459	1847.9
607.02	1828.9
612.575	1813.9
618.124	1807.9
623.667	1787.9
629.204	1756.9
634.735	1753.9
640.261	1754.9
645.781	1747.9
651.294	1743.9
656.802	1719.9
662.304	1736.9
667.8	1719.9
673.29	1714.9
678.775	1718.9
684.254	1706.9
689.726	1696.9
695.193	1694.9
700.655	1678.9
706.11	1687.9
711.56	1661.9
717.004	1653.9
722.442	1621.9
727.874	1616.9
733.301	1645.9
738.722	1627.9
744.137	1624.9
749.547	1617.9
754.951	1620.9
760.349	1616.9
765.741	1632.9
771.128	1619.9
776.509	1631.9
781.885	1644.9
787.254	1646.9
792.618	1638.9
797.977	1632.9
803.33	1614.9
808.677	1592.9
814.019	1605.9
819.355	1591.9
824.686	1566.9
830.011	1566.9
835.33	1558.9
840.644	1563.9
845.952	1581.9
851.255	1564.9
856.552	1566.9
861.844	1543.9
867.13	1531.9
872.41	1549.9
877.686	1541.9
882.955	1524.9
888.219	1497.9
893.478	1487.9
898.731	1456.9
903.979	1460.9
909.221	1428.9
914.458	1405.9
919.69	1426.9
924.916	1449.9
930.136	1424.9
935.351	1435.9
940.561	1444.9
945.766	1431.9
950.965	1411.9
956.158	1418.9
961.347	1407.9
966.529	1378.9
971.707	1355.9
976.879	1353.9
982.046	1328.9
987.208	1312.9
992.364	1331.9
997.515	1321.9
1002.66	1350.9
1007.801	1361.9
1012.936	1367.9
1018.066	1379.9
1023.19	1380.9
1028.309	1375.9
1033.423	1368.9
1038.532	1336.9
1043.636	1344.9
1048.734	1335.9
1053.827	1302.9
1058.915	1301.9
1063.998	1298.9
1069.075	1280.9
1074.147	1283.9
1079.214	1297.9
1084.276	1306.9
1089.333	1298.9
1094.385	1300.9
1099.431	1295.9
1104.472	1302.9
1109.509	1278.9
1114.54	1271.9
1119.565	1254.9
1124.586	1254.9
1129.602	1232.9
1134.613	1230.9
1139.618	1224.9
1144.619	1218.9
1149.614	1223.9
1154.604	1202.9
1159.589	1218.9
1164.57	1217.9
1169.545	1214.9
1174.515	1226.9
1179.48	1212.9
1184.44	1225.9
1189.395	1187.9
1194.345	1183.9
1199.29	1176.9
1204.23	1197.9
1209.165	1191.9
1214.095	1184.9
1219.021	1197.9
1223.941	1195.9
1228.856	1220.9
1233.766	1202.9
1238.672	1210.9
1243.572	1194.9
1248.467	1199.9
1253.358	1193.9
1258.244	1174.9
1263.124	1149.9
1268	1142.9
1272.871	1128.9
1277.737	1112.9
1282.599	1108.9
1287.455	1104.9
1292.306	1118.9
1297.153	1116.9
1301.995	1107.9
1306.832	1127.9
1311.664	1122.9
1316.491	1137.9
1321.314	1132.9
1326.132	1115.9
1330.945	1114.9
1335.753	1088.9
1340.556	1069.9
1345.354	1057.9
1350.148	1035.9
1354.937	995.9
1359.722	981.9
1364.501	951.9
1369.276	954.9
1374.046	918.9
1378.811	890.9
1383.572	897.9
1388.327	895.9
1393.079	902.9
1397.825	909.9
1402.567	908.9
1407.304	916.9
1412.036	928.9
1416.764	923.9
1421.487	929.9
1426.205	937.9
1430.919	931.9
1435.628	947.9
1440.333	942.9
1445.032	956.9
1449.727	971.9
1454.418	954.9
1459.104	957.9
1463.785	946.9
1468.462	917.9
1473.134	903.9
1477.802	883.9
1482.465	858.9
1487.123	837.9
1491.777	819.9
1496.426	810.9
1501.071	803.9
1505.711	793.9
1510.347	789.9
1514.978	765.9
1519.604	767.9
1524.226	764.9
1528.844	758.9
1533.457	748.9
1538.065	745.9
1542.669	750.9
1547.269	736.9
1551.864	750.9
1556.454	771.9
1561.041	789.9
1565.622	791.9
1570.199	789.9
1574.772	800.9
1579.34	813.9
1583.904	813.9
1588.464	829.9
1593.019	834.9
1597.569	844.9
1602.115	835.9
1606.657	833.9
1611.195	835.9
1615.728	826.9
1620.256	818.9
1624.78	826.9
1629.3	827.9
1633.816	819.9
1638.327	837.9
1642.834	827.9
1647.336	830.9
1651.834	841.9
1656.328	828.9
1660.817	828.9
1665.302	819.9
1669.783	796.9
1674.259	789.9
1678.732	761.9
1683.199	727.9
1687.663	700.9
1692.122	664.9
1696.577	640.9
1701.028	603.9
1705.474	558.9
1709.917	549.9
1714.355	532.9
1718.788	541.9
1723.218	541.9
1727.643	541.9
1732.064	538.9
1736.481	547.9
1740.893	513.9
1745.301	514.9
1749.705	515.9
1754.105	503.9
1758.501	477.9
1762.893	480.9
1767.28	472.9
1771.663	458.9
1776.042	455.9
1780.417	446.9
1784.787	442.9
1789.154	432.9
1793.516	413.9
1797.874	401.9
1802.228	401.9
1806.578	394.9
1810.924	387.9
1815.266	381.9
1819.603	395.9
1823.937	397.9
1828.266	393.9
1832.591	401.9
1836.913	405.9
1841.23	406.9
1845.543	400.9
1849.852	408.9
1854.156	413.9
1858.457	417.9
1862.754	415.9
1867.047	410.9
1871.335	412.9
1875.62	418.9
1879.9	412.9
1884.177	409.9
1888.449	399.9
1892.718	396.9
1896.982	390.9
1901.243	377.9
1905.499	376.9
1909.752	358.9
1914	358.9
1918.245	340.9
1922.485	339.9
1926.722	331.9
1930.954	324.9
1935.183	327.9
1939.408	322.9
1943.628	315.9
1947.845	308.9
1952.058	307.9
1956.267	304.9
1960.472	306.9
1964.673	285.9
1968.87	290.9
1973.063	303.9
1977.252	299.9
1981.438	304.9
1985.619	304.9
1989.797	302.9
1993.971	311.9
1998.14	314.9
2002.306	317.9
2006.469	323.9
2010.627	319.9
2014.781	316.9
2018.932	312.9
2023.078	318.9
2027.221	311.9
2031.36	304.9
2035.495	299.9
2039.627	291.9
2043.754	289.9
2047.878	300.9
2051.998	292.9
2056.114	297.9
2060.226	286.9
2064.334	279.9
2068.439	279.9
2072.54	282.9
2076.637	280.9
2080.73	277.9
2084.82	274.9
2088.906	264.9
2092.988	263.9
2097.066	259.9
2101.14	258.9
2105.211	243.9
2109.278	255.9
2113.342	238.9
2117.401	244.9
2121.457	233.9
2125.509	239.9
2129.558	239.9
2133.602	233.9
2137.643	246.9
2141.681	241.9
2145.714	240.9
2149.744	247.9
2153.77	250.9
2157.793	250.9
2161.812	247.9
2165.827	247.9
2169.838	238.9
2173.846	238.9
2177.851	242.9
2181.851	241.9
2185.848	228.9
2189.841	228.9
2193.831	233.9
2197.817	230.9
2201.799	229.9
2205.778	226.9
2209.753	226.9
2213.725	224.9
2217.693	230.9
2221.657	223.9
2225.618	226.9
2229.575	217.9
2233.529	225.9
2237.479	221.9
2241.425	222.9
2245.368	222.9
2249.307	211.9
2253.243	208.9
2257.175	207.9
2261.104	200.9
2265.029	200.9
2268.95	207.9
2272.868	194.9
2276.783	191.9
2280.694	186.9
2284.601	181.9
2288.505	188.9
2292.405	193.9
2296.302	194.9
2300.195	190.9
2304.085	185.9
2307.971	174.9
2311.854	176.9
2315.734	171.9
2319.609	178.9
2323.482	171.9
2327.351	180.9
2331.216	186.9
2335.078	199.9
2338.937	182.9
2342.792	176.9
2346.643	174.9
2350.492	182.9
2354.336	172.9
2358.178	164.9
2362.015	175.9
2365.85	170.9
2369.681	178.9
2373.508	189.9
2377.333	183.9
2381.153	183.9
2384.971	177.9
2388.785	176.9
2392.595	176.9
2396.402	182.9
2400.206	174.9
2404.007	179.9
2407.804	174.9
2411.597	172.9
2415.388	170.9
2419.174	202.9
2422.958	239.9
2426.738	170.9
2430.515	170.9
2434.289	168.9
2438.059	158.9
2441.825	166.9
2445.589	165.9
2449.349	164.9
2453.106	164.9
2456.859	157.9
2460.61	148.9
2464.356	158.9
2468.1	153.9
2471.84	149.9
2475.577	145.9
2479.311	146.9
2483.041	148.9
2486.768	144.9
2490.492	145.9
2494.213	148.9
2497.93	140.9
2501.644	147.9
2505.355	131.9
2509.062	132.9
2512.766	132.9
2516.467	133.9
2520.165	137.9
2523.859	132.9
2527.551	123.9
2531.239	124.9
2534.923	124.9
2538.605	118.9
2542.283	113.9
2545.958	118.9
2549.63	119.9
2553.299	111.9
2556.964	105.9
2560.626	113.9
2564.285	113.9
2567.941	110.9
2571.594	99.9
2575.243	109.9
2578.89	105.9
2582.533	96.9
2586.173	95.9
2589.809	105.9
2593.443	104.9
2597.073	100.9
2600.701	97.9
2604.325	91.9
2607.946	90.9
2611.564	98.9
2615.178	94.9
2618.79	96.9
2622.398	93.9
2626.004	89.9
2629.606	84.9
2633.205	89.9
2636.801	87.9
2640.394	91.9
2643.983	86.9
2647.57	84.9
2651.153	79.9
2654.734	85.9
2658.311	83.9
2661.885	88.9
2665.456	89.9
2669.025	88.9
2672.589	82.9
2676.151	82.9
2679.71	78.9
2683.266	76.9
2686.819	90.9
2690.368	79.9
2693.915	79.9
2697.458	70.9
2700.999	79.9
2704.536	84.9
2708.071	68.9
2711.602	69.9
2715.13	66.9
2718.656	66.9
2722.178	63.9
2725.697	60.9
2729.214	58.9
2732.727	59.9
2736.237	57.9
2739.744	52.9
2743.249	60.9
2746.75	52.9
2750.248	53.9
2753.743	53.9
2757.236	45.9
2760.725	45.9
2764.211	47.9
2767.695	38.9
2771.175	39.9
2774.652	40.9
2778.127	45.9
2781.598	38.9
2785.067	33.9
2788.532	40.9
2791.995	41.9
2795.455	40.9
2798.911	38.9
2802.365	47.9
2805.816	43.9
2809.264	38.9
2812.709	41.9
2816.151	51.9
2819.59	52.9
2823.026	46.9
2826.46	50.9
2829.89	40.9
2833.318	47.9
2836.742	44.9
2840.164	51.9
2843.583	50.9
2846.999	55.9
2850.412	43.9
2853.822	50.9
2857.229	53.9
2860.634	51.9
2864.035	51.9
2867.434	53.9
2870.83	54.9
2874.223	55.9
2877.613	56.9
2881	58.9
2884.385	60.9
2887.766	69.9
2891.145	63.9
2894.521	69.9
2897.894	66.9
2901.264	66.9
2904.631	59.9
2907.996	71.9
2911.358	71.9
2914.717	78.9
2918.073	66.9
2921.426	70.9
2924.777	76.9
2928.124	81.9
2931.469	83.9
2934.811	88.9
2938.15	83.9
2941.487	91.9
2944.821	83.9
2948.152	90.9
2951.48	88.9
2954.805	90.9
2958.128	86.9
2961.447	86.9
2964.765	82.9
2968.079	80.9
2971.39	82.9
2974.699	83.9
2978.005	83.9
2981.308	76.9
2984.609	71.9
2987.907	77.9
2991.202	82.9
2994.494	86.9
2997.784	76.9
3001.07	77.9
3004.355	81.9
3007.636	86.9
3010.915	87.9
3014.191	83.9
3017.464	83.9
3020.734	89.9
3024.002	101.9
3027.267	101.9
3030.53	97.9
3033.789	94.9
3037.046	96.9
3040.301	103.9
3043.552	111.9
3046.801	115.9
3050.048	110.9
3053.291	115.9
3056.532	126.9
3059.771	125.9
3063.006	137.9
3066.239	132.9
3069.469	145.9
3072.697	143.9
3075.922	152.9
3079.144	143.9
3082.364	153.9
3085.581	160.9
3088.795	170.9
3092.007	171.9
3095.216	178.9
3098.423	177.9
3101.627	168.9
3104.828	180.9
3108.026	188.9
3111.222	177.9
3114.416	190.9
3117.607	204.9
3120.795	202.9
3123.98	199.9
3127.163	215.9
3130.344	219.9
3133.521	223.9
3136.696	227.9
3139.869	232.9
3143.039	226.9
3146.206	244.9
3149.371	242.9
3152.533	248.9
3155.693	246.9
3158.85	243.9
3162.005	258.9
3165.157	251.9
3168.306	242.9
3171.453	248.9
3174.597	255.9
3177.739	254.9
3180.878	255.9
3184.014	255.9
3187.149	262.9
3190.28	258.9
3193.409	265.9
3196.536	264.9
3199.659	272.9
3202.781	268.9
3205.9	253.9
3209.016	256.9
3212.13	257.9
3215.241	255.9
3218.35	250.9
3221.456	250.9
3224.56	246.9
3227.661	242.9
3230.76	231.9
3233.856	242.9
3236.95	227.9
3240.041	223.9
3243.13	237.9
3246.216	219.9
3249.3	219.9
3252.382	218.9
3255.46	219.9
3258.537	205.9
3261.611	209.9
3264.682	199.9
3267.751	215.9
3270.818	198.9
3273.882	205.9
3276.943	193.9
3280.002	196.9
3283.059	200.9
3286.113	188.9
3289.165	188.9
3292.214	194.9
3295.261	188.9
3298.306	195.9
3301.348	184.9
3304.387	190.9
3307.425	178.9
3310.459	168.9
3313.492	178.9
3316.521	176.9
3319.549	190.9
3322.574	181.9
3325.597	179.9
3328.617	181.9
3331.635	183.9
3334.65	182.9
3337.663	171.9
3340.674	183.9
3343.682	187.9
3346.688	179.9
3349.691	183.9
3352.692	180.9
3355.691	183.9
3358.687	178.9
3361.681	181.9
3364.673	173.9
3367.662	173.9
3370.649	168.9
3373.633	162.9
3376.615	161.9
3379.595	154.9
3382.572	159.9
3385.547	155.9
3388.52	152.9
3391.49	140.9
3394.458	143.9
3397.424	147.9
3400.387	150.9
3403.348	143.9
3406.307	139.9
3409.263	137.9
3412.217	141.9
3415.168	135.9
3418.118	131.9
3421.065	122.9
3424.009	121.9
3426.951	115.9
3429.891	117.9
3432.829	110.9
3435.764	116.9
3438.697	115.9
3441.628	101.9
3444.557	96.9
3447.483	97.9
3450.407	87.9
3453.328	90.9
3456.247	87.9
3459.164	84.9
3462.079	73.9
3464.991	71.9
3467.902	70.9
3470.809	68.9
3473.715	59.9
3476.618	62.9
3479.519	54.9
3482.418	52.9
3485.315	53.9
3488.209	33.9
3491.101	37.9
3493.99	42.9
3496.878	35.9
3499.763	28.9
3502.646	26.9
3505.527	31.9
3508.405	26.9
3511.281	29.9
3514.155	17.9
3517.027	19.9
3519.897	20.9
3522.764	11.9
3525.629	9.9
3528.492	10.9
3531.352	6.9
3534.211	1.9
3537.067	-0.1
3539.921	5.9
3542.773	-8.1
3545.622	-6.1
3548.469	-8.1
3551.315	-7.1
3554.157	-12.1
3556.998	-10.1
3559.837	-11.1
3562.673	-14.1
3565.507	-18.1
3568.339	-16.1
3571.169	-18.1
3573.996	-19.1
3576.822	-21.1
3579.645	-24.1
3582.466	-21.1
3585.285	-24.1
3588.101	-24.1
3590.916	-20.1
3593.728	-28.1
3596.538	-31.1
3599.346	-35.1
3602.152	-33.1
3604.956	-30.1
3607.757	-29.1
3610.556	-33.1
3613.354	-40.1
3616.149	-42.1
3618.942	-36.1
3621.732	-41.1
3624.521	-38.1
3627.307	-44.1
3630.092	-41.1
3632.874	-43.1
3635.654	-41.1
3638.432	-43.1
3641.208	-40.1
3643.982	-36.1
3646.753	-45.1
3649.523	-40.1
3652.29	-45.1
3655.055	-44.1
3657.818	-48.1
3660.579	-44.1
3663.338	-43.1
3666.095	-51.1
3668.849	-49.1
3671.602	-51.1
3674.352	-45.1
3677.101	-45.1
3679.847	-50.1
3682.591	-58.1
3685.333	-48.1
3688.073	-50.1
3690.811	-49.1
3693.547	-52.1
3696.281	-50.1
3699.013	-49.1
3701.742	-51.1
3704.47	-46.1
3707.195	-52.1
3709.919	-50.1
3712.64	-53.1
3715.359	-52.1
3718.076	-56.1
3720.792	-54.1
3723.505	-59.1
3726.216	-54.1
3728.925	-58.1
3731.632	-52.1
3734.336	-55.1
3737.039	-51.1
3739.74	-60.1
3742.439	-66.1
3745.136	-57.1
3747.83	-52.1
3750.523	-58.1
3753.213	-62.1
3755.902	-58.1
3758.589	-56.1
3761.273	-51.1
3763.956	-57.1
3766.636	-50.1
3769.315	-56.1
3771.991	-50.1
3774.665	-63.1
3777.338	-63.1
3780.008	-61.1
3782.677	-63.1
3785.343	-60.1
3788.007	-56.1
3790.67	-58.1
3793.33	-58.1
3795.989	-62.1
3798.645	-59.1
3801.299	-59.1
3803.952	-59.1
3806.602	-60.1
3809.251	-64.1
3811.897	-64.1
3814.542	-66.1
3817.184	-58.1
3819.825	-53.1
3822.463	-57.1
3825.1	-63.1
3827.735	-66.1
3830.367	-63.1
3832.998	-62.1
3835.627	-60.1
3838.253	-60.1
3840.878	-53.1
3843.501	-60.1
3846.122	-60.1
3848.741	-63.1
3851.358	-54.1
3853.973	-57.1
3856.586	-56.1
3859.197	-55.1
3861.806	-63.1
3864.414	-60.1
3867.019	-60.1
3869.622	-54.1
3872.224	-55.1
3874.823	-43.1
3877.421	-40.1
3880.016	-33.1
3882.61	-13.1
3885.202	-16.1
3887.792	-19.1
3890.38	-34.1
3892.966	-50.1
3895.55	-55.1
3898.132	-59.1
3900.713	-61.1
3903.291	-64.1
3905.868	-58.1
3908.442	-56.1
3911.015	-60.1
3913.586	-61.1
3916.155	-60.1
3918.722	-64.1
3921.287	-64.1
3923.85	-55.1
3926.411	-63.1
3928.971	-72.1
3931.528	-64.1
3934.084	-58.1
3936.638	-54.1
3939.19	-70.1
3941.74	-60.1
3944.288	-62.1
3946.834	-59.1
3949.378	-64.1
3951.921	-65.1
3954.462	-63.1
3957	-59.1
3959.537	-50.1
3962.072	-57.1
3964.606	-59.1
3967.137	-61.1
3969.667	-57.1
3972.194	-61.1
3974.72	-57.1
3977.244	-57.1
3979.766	-64.1
3982.286	-59.1
3984.805	-70.1
3987.321	-63.1
3989.836	-58.1
3992.349	-64.1
3994.86	-57.1
3997.369	-65.1
3999.877	-63.1
4002.382	-61.1
4004.886	-60.1
4007.388	-64.1
4009.888	-63.1
4012.386	-56.1
4014.883	-58.1
4017.377	-58.1
4019.87	-55.1
4022.361	-62.1
4024.85	-56.1
4027.338	-61.1
4029.823	-61.1
4032.307	-62.1
4034.789	-60.1
4037.269	-58.1
4039.747	-61.1
4042.224	-66.1
4044.699	-61.1
4047.172	-65.1
4049.643	-62.1
4052.112	-59.1
4054.58	-62.1
4057.046	-59.1
4059.51	-63.1
4061.972	-63.1
4064.432	-55.1
4066.891	-55.1
4069.348	-57.1
4071.803	-56.1
4074.256	-59.1
4076.708	-60.1
4079.158	-61.1
4081.606	-60.1
4084.052	-64.1
4086.497	-57.1
4088.939	-53.1
4091.38	-68.1
4093.819	-64.1
4096.257	-66.1
4098.693	-65.1
4101.127	-62.1
4103.559	-66.1
4105.989	-1.1
4108.418	-1.1
4110.845	-9.1
4113.27	1.9
4115.694	7.9
4118.115	7.9
4120.535	-64.1
4122.954	-60.1
4125.37	-63.1
4127.785	-61.1
4130.198	-60.1
4132.609	-64.1
4135.019	-67.1
4137.427	-69.1
4139.833	-62.1
4142.237	-67.1
