Data from 2018-3-7_conc=4_n=4_RamanShift_05.txt Node
Date: Wed Mar 07 11:59:52 IST 2018
User: aro
Spectrometer: QEPB0276
Trigger mode: 0
Integration Time (sec): 3.000000E1
Scans to average: 1
Electric dark correction enabled: true
Nonlinearity correction enabled: false
Boxcar width: 0
XAxis mode: Raman Shifts
Number of Pixels in Spectrum: 1044
>>>>>Begin Spectral Data<<<<<
160.701	7.8
166.742	15.8
172.777	46.8
178.805	136.8
184.826	339.8
190.841	723.8
196.849	1205.8
202.85	1559.8
208.845	1709.8
214.833	1705.8
220.815	1681.8
226.789	1688.8
232.758	1699.8
238.719	1700.8
244.674	1674.8
250.623	1675.8
256.565	1654.8
262.5	1647.8
268.429	1629.8
274.351	1620.8
280.267	1620.8
286.176	1613.8
292.079	1601.8
297.975	1600.8
303.865	1614.8
309.748	1596.8
315.625	1613.8
321.495	1586.8
327.359	1603.8
333.217	1595.8
339.068	1610.8
344.912	1596.8
350.751	1625.8
356.583	1622.8
362.408	1617.8
368.227	1629.8
374.04	1627.8
379.847	1648.8
385.647	1641.8
391.44	1657.8
397.228	1658.8
403.009	1668.8
408.784	1673.8
414.553	1686.8
420.315	1681.8
426.071	1700.8
431.821	1689.8
437.565	1673.8
443.302	1669.8
449.033	1670.8
454.758	1677.8
460.477	1657.8
466.189	1643.8
471.896	1628.8
477.596	1634.8
483.29	1612.8
488.978	1618.8
494.66	1594.8
500.335	1578.8
506.005	1517.8
511.668	1463.8
517.325	1400.8
522.977	1365.8
528.622	1329.8
534.261	1302.8
539.894	1274.8
545.521	1256.8
551.141	1263.8
556.756	1241.8
562.365	1245.8
567.968	1214.8
573.565	1221.8
579.155	1215.8
584.74	1208.8
590.319	1198.8
595.892	1214.8
601.459	1197.8
607.02	1195.8
612.575	1186.8
618.124	1172.8
623.667	1154.8
629.204	1147.8
634.735	1132.8
640.261	1125.8
645.781	1114.8
651.294	1104.8
656.802	1111.8
662.304	1115.8
667.8	1116.8
673.29	1102.8
678.775	1094.8
684.254	1107.8
689.726	1086.8
695.193	1092.8
700.655	1078.8
706.11	1075.8
711.56	1054.8
717.004	1062.8
722.442	1042.8
727.874	1040.8
733.301	1051.8
738.722	1050.8
744.137	1044.8
749.547	1032.8
754.951	1041.8
760.349	1055.8
765.741	1039.8
771.128	1040.8
776.509	1059.8
781.885	1081.8
787.254	1072.8
792.618	1077.8
797.977	1058.8
803.33	1050.8
808.677	1059.8
814.019	1050.8
819.355	1020.8
824.686	1021.8
830.011	1002.8
835.33	1007.8
840.644	1016.8
845.952	1024.8
851.255	1008.8
856.552	1015.8
861.844	996.8
867.13	976.8
872.41	981.8
877.686	961.8
882.955	989.8
888.219	960.8
893.478	949.8
898.731	919.8
903.979	910.8
909.221	918.8
914.458	903.8
919.69	911.8
924.916	905.8
930.136	905.8
935.351	900.8
940.561	913.8
945.766	916.8
950.965	901.8
956.158	899.8
961.347	890.8
966.529	879.8
971.707	857.8
976.879	853.8
982.046	852.8
987.208	852.8
992.364	836.8
997.515	855.8
1002.66	846.8
1007.801	869.8
1012.936	871.8
1018.066	868.8
1023.19	868.8
1028.309	866.8
1033.423	868.8
1038.532	857.8
1043.636	851.8
1048.734	859.8
1053.827	833.8
1058.915	839.8
1063.998	819.8
1069.075	827.8
1074.147	822.8
1079.214	832.8
1084.276	827.8
1089.333	842.8
1094.385	835.8
1099.431	833.8
1104.472	828.8
1109.509	816.8
1114.54	813.8
1119.565	796.8
1124.586	793.8
1129.602	774.8
1134.613	771.8
1139.618	762.8
1144.619	770.8
1149.614	789.8
1154.604	766.8
1159.589	772.8
1164.57	777.8
1169.545	773.8
1174.515	774.8
1179.48	768.8
1184.44	774.8
1189.395	758.8
1194.345	752.8
1199.29	740.8
1204.23	749.8
1209.165	739.8
1214.095	753.8
1219.021	755.8
1223.941	763.8
1228.856	769.8
1233.766	759.8
1238.672	773.8
1243.572	755.8
1248.467	769.8
1253.358	755.8
1258.244	748.8
1263.124	721.8
1268	707.8
1272.871	703.8
1277.737	691.8
1282.599	698.8
1287.455	700.8
1292.306	698.8
1297.153	701.8
1301.995	704.8
1306.832	707.8
1311.664	708.8
1316.491	723.8
1321.314	709.8
1326.132	704.8
1330.945	695.8
1335.753	668.8
1340.556	675.8
1345.354	651.8
1350.148	640.8
1354.937	638.8
1359.722	608.8
1364.501	600.8
1369.276	596.8
1374.046	577.8
1378.811	582.8
1383.572	573.8
1388.327	575.8
1393.079	559.8
1397.825	589.8
1402.567	582.8
1407.304	579.8
1412.036	587.8
1416.764	586.8
1421.487	593.8
1426.205	593.8
1430.919	570.8
1435.628	600.8
1440.333	602.8
1445.032	591.8
1449.727	620.8
1454.418	610.8
1459.104	606.8
1463.785	588.8
1468.462	576.8
1473.134	566.8
1477.802	550.8
1482.465	547.8
1487.123	521.8
1491.777	501.8
1496.426	514.8
1501.071	502.8
1505.711	491.8
1510.347	502.8
1514.978	493.8
1519.604	488.8
1524.226	500.8
1528.844	488.8
1533.457	476.8
1538.065	481.8
1542.669	482.8
1547.269	485.8
1551.864	489.8
1556.454	501.8
1561.041	507.8
1565.622	510.8
1570.199	500.8
1574.772	498.8
1579.34	513.8
1583.904	516.8
1588.464	526.8
1593.019	526.8
1597.569	539.8
1602.115	533.8
1606.657	528.8
1611.195	533.8
1615.728	519.8
1620.256	519.8
1624.78	530.8
1629.3	527.8
1633.816	526.8
1638.327	527.8
1642.834	517.8
1647.336	517.8
1651.834	519.8
1656.328	519.8
1660.817	512.8
1665.302	500.8
1669.783	504.8
1674.259	494.8
1678.732	479.8
1683.199	469.8
1687.663	435.8
1692.122	422.8
1696.577	408.8
1701.028	390.8
1705.474	369.8
1709.917	356.8
1714.355	358.8
1718.788	349.8
1723.218	352.8
1727.643	358.8
1732.064	351.8
1736.481	360.8
1740.893	342.8
1745.301	338.8
1749.705	330.8
1754.105	320.8
1758.501	309.8
1762.893	312.8
1767.28	299.8
1771.663	302.8
1776.042	304.8
1780.417	287.8
1784.787	281.8
1789.154	282.8
1793.516	262.8
1797.874	270.8
1802.228	265.8
1806.578	262.8
1810.924	253.8
1815.266	267.8
1819.603	259.8
1823.937	267.8
1828.266	268.8
1832.591	269.8
1836.913	266.8
1841.23	264.8
1845.543	265.8
1849.852	270.8
1854.156	267.8
1858.457	275.8
1862.754	272.8
1867.047	269.8
1871.335	264.8
1875.62	264.8
1879.9	268.8
1884.177	262.8
1888.449	257.8
1892.718	258.8
1896.982	251.8
1901.243	248.8
1905.499	247.8
1909.752	241.8
1914	228.8
1918.245	230.8
1922.485	219.8
1926.722	224.8
1930.954	224.8
1935.183	214.8
1939.408	221.8
1943.628	211.8
1947.845	218.8
1952.058	215.8
1956.267	209.8
1960.472	207.8
1964.673	203.8
1968.87	201.8
1973.063	207.8
1977.252	206.8
1981.438	208.8
1985.619	200.8
1989.797	201.8
1993.971	212.8
1998.14	211.8
2002.306	204.8
2006.469	212.8
2010.627	197.8
2014.781	207.8
2018.932	201.8
2023.078	207.8
2027.221	202.8
2031.36	204.8
2035.495	198.8
2039.627	189.8
2043.754	190.8
2047.878	187.8
2051.998	192.8
2056.114	182.8
2060.226	184.8
2064.334	182.8
2068.439	181.8
2072.54	183.8
2076.637	176.8
2080.73	179.8
2084.82	179.8
2088.906	176.8
2092.988	175.8
2097.066	173.8
2101.14	169.8
2105.211	168.8
2109.278	163.8
2113.342	157.8
2117.401	161.8
2121.457	164.8
2125.509	156.8
2129.558	163.8
2133.602	154.8
2137.643	166.8
2141.681	156.8
2145.714	159.8
2149.744	155.8
2153.77	156.8
2157.793	162.8
2161.812	162.8
2165.827	166.8
2169.838	151.8
2173.846	154.8
2177.851	152.8
2181.851	153.8
2185.848	154.8
2189.841	141.8
2193.831	139.8
2197.817	146.8
2201.799	146.8
2205.778	144.8
2209.753	141.8
2213.725	144.8
2217.693	141.8
2221.657	134.8
2225.618	140.8
2229.575	134.8
2233.529	137.8
2237.479	142.8
2241.425	136.8
2245.368	140.8
2249.307	135.8
2253.243	133.8
2257.175	130.8
2261.104	121.8
2265.029	123.8
2268.95	135.8
2272.868	126.8
2276.783	125.8
2280.694	115.8
2284.601	112.8
2288.505	115.8
2292.405	115.8
2296.302	115.8
2300.195	114.8
2304.085	103.8
2307.971	116.8
2311.854	110.8
2315.734	106.8
2319.609	111.8
2323.482	107.8
2327.351	112.8
2331.216	118.8
2335.078	127.8
2338.937	120.8
2342.792	104.8
2346.643	110.8
2350.492	110.8
2354.336	103.8
2358.178	98.8
2362.015	110.8
2365.85	100.8
2369.681	105.8
2373.508	110.8
2377.333	110.8
2381.153	112.8
2384.971	107.8
2388.785	107.8
2392.595	109.8
2396.402	108.8
2400.206	104.8
2404.007	100.8
2407.804	107.8
2411.597	98.8
2415.388	111.8
2419.174	103.8
2422.958	92.8
2426.738	100.8
2430.515	100.8
2434.289	105.8
2438.059	94.8
2441.825	94.8
2445.589	103.8
2449.349	97.8
2453.106	98.8
2456.859	92.8
2460.61	91.8
2464.356	94.8
2468.1	91.8
2471.84	87.8
2475.577	83.8
2479.311	84.8
2483.041	82.8
2486.768	83.8
2490.492	81.8
2494.213	82.8
2497.93	85.8
2501.644	84.8
2505.355	75.8
2509.062	77.8
2512.766	72.8
2516.467	73.8
2520.165	74.8
2523.859	78.8
2527.551	75.8
2531.239	71.8
2534.923	69.8
2538.605	72.8
2542.283	63.8
2545.958	68.8
2549.63	67.8
2553.299	63.8
2556.964	59.8
2560.626	61.8
2564.285	63.8
2567.941	55.8
2571.594	60.8
2575.243	65.8
2578.89	61.8
2582.533	54.8
2586.173	52.8
2589.809	59.8
2593.443	61.8
2597.073	57.8
2600.701	60.8
2604.325	44.8
2607.946	44.8
2611.564	56.8
2615.178	54.8
2618.79	50.8
2622.398	50.8
2626.004	49.8
2629.606	42.8
2633.205	45.8
2636.801	46.8
2640.394	53.8
2643.983	47.8
2647.57	50.8
2651.153	45.8
2654.734	48.8
2658.311	47.8
2661.885	54.8
2665.456	49.8
2669.025	43.8
2672.589	40.8
2676.151	42.8
2679.71	40.8
2683.266	38.8
2686.819	44.8
2690.368	43.8
2693.915	37.8
2697.458	37.8
2700.999	42.8
2704.536	45.8
2708.071	36.8
2711.602	35.8
2715.13	22.8
2718.656	34.8
2722.178	33.8
2725.697	29.8
2729.214	27.8
2732.727	37.8
2736.237	41.8
2739.744	25.8
2743.249	27.8
2746.75	30.8
2750.248	28.8
2753.743	24.8
2757.236	18.8
2760.725	22.8
2764.211	20.8
2767.695	12.8
2771.175	21.8
2774.652	19.8
2778.127	22.8
2781.598	16.8
2785.067	15.8
2788.532	15.8
2791.995	19.8
2795.455	12.8
2798.911	18.8
2802.365	23.8
2805.816	18.8
2809.264	20.8
2812.709	17.8
2816.151	20.8
2819.59	27.8
2823.026	25.8
2826.46	21.8
2829.89	23.8
2833.318	20.8
2836.742	21.8
2840.164	19.8
2843.583	19.8
2846.999	30.8
2850.412	26.8
2853.822	20.8
2857.229	28.8
2860.634	17.8
2864.035	22.8
2867.434	27.8
2870.83	33.8
2874.223	25.8
2877.613	33.8
2881	25.8
2884.385	33.8
2887.766	35.8
2891.145	25.8
2894.521	31.8
2897.894	32.8
2901.264	34.8
2904.631	25.8
2907.996	30.8
2911.358	34.8
2914.717	33.8
2918.073	33.8
2921.426	32.8
2924.777	42.8
2928.124	37.8
2931.469	41.8
2934.811	53.8
2938.15	52.8
2941.487	45.8
2944.821	35.8
2948.152	52.8
2951.48	40.8
2954.805	46.8
2958.128	41.8
2961.447	37.8
2964.765	42.8
2968.079	42.8
2971.39	45.8
2974.699	37.8
2978.005	43.8
2981.308	42.8
2984.609	35.8
2987.907	39.8
2991.202	43.8
2994.494	34.8
2997.784	29.8
3001.07	43.8
3004.355	39.8
3007.636	39.8
3010.915	46.8
3014.191	39.8
3017.464	45.8
3020.734	43.8
3024.002	50.8
3027.267	53.8
3030.53	48.8
3033.789	47.8
3037.046	53.8
3040.301	53.8
3043.552	58.8
3046.801	51.8
3050.048	55.8
3053.291	59.8
3056.532	61.8
3059.771	64.8
3063.006	66.8
3066.239	68.8
3069.469	74.8
3072.697	70.8
3075.922	85.8
3079.144	79.8
3082.364	78.8
3085.581	87.8
3088.795	91.8
3092.007	87.8
3095.216	98.8
3098.423	90.8
3101.627	94.8
3104.828	100.8
3108.026	104.8
3111.222	96.8
3114.416	103.8
3117.607	105.8
3120.795	109.8
3123.98	110.8
3127.163	123.8
3130.344	118.8
3133.521	125.8
3136.696	118.8
3139.869	121.8
3143.039	129.8
3146.206	130.8
3149.371	139.8
3152.533	137.8
3155.693	140.8
3158.85	139.8
3162.005	134.8
3165.157	141.8
3168.306	142.8
3171.453	137.8
3174.597	142.8
3177.739	144.8
3180.878	141.8
3184.014	137.8
3187.149	129.8
3190.28	140.8
3193.409	144.8
3196.536	140.8
3199.659	145.8
3202.781	146.8
3205.9	143.8
3209.016	136.8
3212.13	142.8
3215.241	145.8
3218.35	141.8
3221.456	142.8
3224.56	133.8
3227.661	132.8
3230.76	137.8
3233.856	129.8
3236.95	118.8
3240.041	114.8
3243.13	121.8
3246.216	117.8
3249.3	112.8
3252.382	111.8
3255.46	117.8
3258.537	114.8
3261.611	110.8
3264.682	106.8
3267.751	114.8
3270.818	104.8
3273.882	112.8
3276.943	106.8
3280.002	111.8
3283.059	104.8
3286.113	95.8
3289.165	97.8
3292.214	94.8
3295.261	99.8
3298.306	105.8
3301.348	98.8
3304.387	96.8
3307.425	92.8
3310.459	92.8
3313.492	95.8
3316.521	94.8
3319.549	103.8
3322.574	102.8
3325.597	91.8
3328.617	89.8
3331.635	97.8
3334.65	98.8
3337.663	81.8
3340.674	88.8
3343.682	94.8
3346.688	90.8
3349.691	94.8
3352.692	91.8
3355.691	100.8
3358.687	90.8
3361.681	84.8
3364.673	95.8
3367.662	91.8
3370.649	92.8
3373.633	86.8
3376.615	82.8
3379.595	77.8
3382.572	75.8
3385.547	78.8
3388.52	65.8
3391.49	74.8
3394.458	67.8
3397.424	70.8
3400.387	72.8
3403.348	62.8
3406.307	63.8
3409.263	67.8
3412.217	67.8
3415.168	69.8
3418.118	62.8
3421.065	57.8
3424.009	60.8
3426.951	54.8
3429.891	56.8
3432.829	59.8
3435.764	59.8
3438.697	59.8
3441.628	42.8
3444.557	47.8
3447.483	49.8
3450.407	34.8
3453.328	45.8
3456.247	34.8
3459.164	38.8
3462.079	37.8
3464.991	35.8
3467.902	34.8
3470.809	25.8
3473.715	23.8
3476.618	22.8
3479.519	17.8
3482.418	18.8
3485.315	17.8
3488.209	11.8
3491.101	4.8
3493.99	12.8
3496.878	1.8
3499.763	4.8
3502.646	4.8
3505.527	5.8
3508.405	11.8
3511.281	4.8
3514.155	-1.2
3517.027	-8.2
3519.897	5.8
3522.764	-4.2
3525.629	-3.2
3528.492	-6.2
3531.352	-14.2
3534.211	-15.2
3537.067	-17.2
3539.921	-11.2
3542.773	-16.2
3545.622	-12.2
3548.469	-12.2
3551.315	-13.2
3554.157	-17.2
3556.998	-16.2
3559.837	-23.2
3562.673	-26.2
3565.507	-20.2
3568.339	-17.2
3571.169	-28.2
3573.996	-20.2
3576.822	-30.2
3579.645	-26.2
3582.466	-27.2
3585.285	-32.2
3588.101	-36.2
3590.916	-30.2
3593.728	-29.2
3596.538	-35.2
3599.346	-32.2
3602.152	-36.2
3604.956	-26.2
3607.757	-27.2
3610.556	-26.2
3613.354	-35.2
3616.149	-39.2
3618.942	-36.2
3621.732	-33.2
3624.521	-34.2
3627.307	-34.2
3630.092	-37.2
3632.874	-35.2
3635.654	-36.2
3638.432	-37.2
3641.208	-36.2
3643.982	-35.2
3646.753	-40.2
3649.523	-31.2
3652.29	-36.2
3655.055	-32.2
3657.818	-42.2
3660.579	-44.2
3663.338	-41.2
3666.095	-42.2
3668.849	-46.2
3671.602	-44.2
3674.352	-45.2
3677.101	-44.2
3679.847	-42.2
3682.591	-42.2
3685.333	-50.2
3688.073	-44.2
3690.811	-41.2
3693.547	-44.2
3696.281	-42.2
3699.013	-42.2
3701.742	-52.2
3704.47	-39.2
3707.195	-41.2
3709.919	-45.2
3712.64	-49.2
3715.359	-47.2
3718.076	-45.2
3720.792	-46.2
3723.505	-45.2
3726.216	-44.2
3728.925	-51.2
3731.632	-46.2
3734.336	-48.2
3737.039	-47.2
3739.74	-50.2
3742.439	-54.2
3745.136	-46.2
3747.83	-43.2
3750.523	-46.2
3753.213	-56.2
3755.902	-49.2
3758.589	-50.2
3761.273	-48.2
3763.956	-50.2
3766.636	-46.2
3769.315	-42.2
3771.991	-46.2
3774.665	-55.2
3777.338	-49.2
3780.008	-48.2
3782.677	-54.2
3785.343	-43.2
3788.007	-54.2
3790.67	-45.2
3793.33	-50.2
3795.989	-45.2
3798.645	-50.2
3801.299	-50.2
3803.952	-53.2
3806.602	-49.2
3809.251	-50.2
3811.897	-56.2
3814.542	-55.2
3817.184	-51.2
3819.825	-47.2
3822.463	-50.2
3825.1	-49.2
3827.735	-55.2
3830.367	-53.2
3832.998	-51.2
3835.627	-52.2
3838.253	-42.2
3840.878	-43.2
3843.501	-45.2
3846.122	-51.2
3848.741	-47.2
3851.358	-42.2
3853.973	-49.2
3856.586	-50.2
3859.197	-49.2
3861.806	-51.2
3864.414	-52.2
3867.019	-53.2
3869.622	-44.2
3872.224	-40.2
3874.823	-31.2
3877.421	-32.2
3880.016	-14.2
3882.61	-5.2
3885.202	-4.2
3887.792	-16.2
3890.38	-25.2
3892.966	-38.2
3895.55	-45.2
3898.132	-47.2
3900.713	-49.2
3903.291	-50.2
3905.868	-47.2
3908.442	-45.2
3911.015	-48.2
3913.586	-54.2
3916.155	-49.2
3918.722	-52.2
3921.287	-52.2
3923.85	-43.2
3926.411	-51.2
3928.971	-61.2
3931.528	-53.2
3934.084	-49.2
3936.638	-48.2
3939.19	-57.2
3941.74	-47.2
3944.288	-50.2
3946.834	-47.2
3949.378	-50.2
3951.921	-51.2
3954.462	-53.2
3957	-45.2
3959.537	-43.2
3962.072	-46.2
3964.606	-46.2
3967.137	-49.2
3969.667	-48.2
3972.194	-47.2
3974.72	-47.2
3977.244	-48.2
3979.766	-48.2
3982.286	-50.2
3984.805	-56.2
3987.321	-49.2
3989.836	-45.2
3992.349	-47.2
3994.86	-47.2
3997.369	-54.2
3999.877	-50.2
4002.382	-46.2
4004.886	-49.2
4007.388	-54.2
4009.888	-53.2
4012.386	-54.2
4014.883	-47.2
4017.377	-45.2
4019.87	-48.2
4022.361	-46.2
4024.85	-44.2
4027.338	-46.2
4029.823	-51.2
4032.307	-54.2
4034.789	-41.2
4037.269	-49.2
4039.747	-48.2
4042.224	-52.2
4044.699	-54.2
4047.172	-53.2
4049.643	-52.2
4052.112	-56.2
4054.58	-48.2
4057.046	-50.2
4059.51	-51.2
4061.972	-55.2
4064.432	-47.2
4066.891	-45.2
4069.348	-46.2
4071.803	-42.2
4074.256	-49.2
4076.708	-46.2
4079.158	-52.2
4081.606	-52.2
4084.052	-51.2
4086.497	-41.2
4088.939	-47.2
4091.38	-53.2
4093.819	-53.2
4096.257	-51.2
4098.693	-53.2
4101.127	-43.2
4103.559	-52.2
4105.989	12.8
4108.418	8.8
4110.845	13.8
4113.27	6.8
4115.694	11.8
4118.115	10.8
4120.535	-53.2
4122.954	-49.2
4125.37	-49.2
4127.785	-51.2
4130.198	-46.2
4132.609	-49.2
4135.019	-51.2
4137.427	-55.2
4139.833	-49.2
4142.237	-51.2
