Data from 2018-3-7_conc=6_n=3_RamanShift_03.txt Node
Date: Wed Mar 07 13:03:52 IST 2018
User: aro
Spectrometer: QEPB0276
Trigger mode: 0
Integration Time (sec): 3.000000E1
Scans to average: 1
Electric dark correction enabled: true
Nonlinearity correction enabled: false
Boxcar width: 0
XAxis mode: Raman Shifts
Number of Pixels in Spectrum: 1044
>>>>>Begin Spectral Data<<<<<
160.701	4.5
166.742	16.5
172.777	49.5
178.805	142.5
184.826	396.5
190.841	861.5
196.849	1462.5
202.85	1912.5
208.845	2102.5
214.833	2098.5
220.815	2072.5
226.789	2084.5
232.758	2060.5
238.719	2073.5
244.674	2066.5
250.623	2032.5
256.565	2020.5
262.5	1982.5
268.429	1975.5
274.351	1964.5
280.267	1920.5
286.176	1924.5
292.079	1920.5
297.975	1909.5
303.865	1928.5
309.748	1912.5
315.625	1909.5
321.495	1891.5
327.359	1897.5
333.217	1886.5
339.068	1904.5
344.912	1902.5
350.751	1902.5
356.583	1907.5
362.408	1900.5
368.227	1926.5
374.04	1911.5
379.847	1920.5
385.647	1923.5
391.44	1932.5
397.228	1936.5
403.009	1962.5
408.784	1959.5
414.553	1973.5
420.315	1976.5
426.071	1959.5
431.821	1980.5
437.565	1972.5
443.302	1969.5
449.033	1971.5
454.758	1945.5
460.477	1920.5
466.189	1942.5
471.896	1910.5
477.596	1901.5
483.29	1902.5
488.978	1893.5
494.66	1884.5
500.335	1844.5
506.005	1786.5
511.668	1756.5
517.325	1711.5
522.977	1647.5
528.622	1629.5
534.261	1603.5
539.894	1579.5
545.521	1573.5
551.141	1581.5
556.756	1542.5
562.365	1538.5
567.968	1533.5
573.565	1528.5
579.155	1515.5
584.74	1508.5
590.319	1496.5
595.892	1492.5
601.459	1487.5
607.02	1495.5
612.575	1468.5
618.124	1462.5
623.667	1457.5
629.204	1433.5
634.735	1422.5
640.261	1427.5
645.781	1409.5
651.294	1403.5
656.802	1384.5
662.304	1404.5
667.8	1389.5
673.29	1406.5
678.775	1370.5
684.254	1394.5
689.726	1383.5
695.193	1367.5
700.655	1348.5
706.11	1345.5
711.56	1337.5
717.004	1329.5
722.442	1313.5
727.874	1314.5
733.301	1309.5
738.722	1293.5
744.137	1310.5
749.547	1302.5
754.951	1309.5
760.349	1307.5
765.741	1318.5
771.128	1310.5
776.509	1317.5
781.885	1349.5
787.254	1357.5
792.618	1322.5
797.977	1328.5
803.33	1316.5
808.677	1318.5
814.019	1301.5
819.355	1279.5
824.686	1289.5
830.011	1279.5
835.33	1269.5
840.644	1260.5
845.952	1266.5
851.255	1259.5
856.552	1272.5
861.844	1247.5
867.13	1245.5
872.41	1239.5
877.686	1229.5
882.955	1230.5
888.219	1214.5
893.478	1206.5
898.731	1173.5
903.979	1183.5
909.221	1183.5
914.458	1153.5
919.69	1149.5
924.916	1162.5
930.136	1162.5
935.351	1178.5
940.561	1161.5
945.766	1164.5
950.965	1155.5
956.158	1133.5
961.347	1154.5
966.529	1127.5
971.707	1095.5
976.879	1087.5
982.046	1080.5
987.208	1069.5
992.364	1079.5
997.515	1086.5
1002.66	1101.5
1007.801	1100.5
1012.936	1110.5
1018.066	1113.5
1023.19	1090.5
1028.309	1111.5
1033.423	1085.5
1038.532	1096.5
1043.636	1089.5
1048.734	1088.5
1053.827	1070.5
1058.915	1054.5
1063.998	1047.5
1069.075	1047.5
1074.147	1044.5
1079.214	1036.5
1084.276	1045.5
1089.333	1055.5
1094.385	1056.5
1099.431	1059.5
1104.472	1060.5
1109.509	1053.5
1114.54	1036.5
1119.565	1018.5
1124.586	1022.5
1129.602	1001.5
1134.613	975.5
1139.618	987.5
1144.619	977.5
1149.614	990.5
1154.604	961.5
1159.589	991.5
1164.57	991.5
1169.545	990.5
1174.515	995.5
1179.48	976.5
1184.44	977.5
1189.395	980.5
1194.345	971.5
1199.29	955.5
1204.23	960.5
1209.165	957.5
1214.095	965.5
1219.021	976.5
1223.941	975.5
1228.856	967.5
1233.766	979.5
1238.672	981.5
1243.572	985.5
1248.467	985.5
1253.358	955.5
1258.244	952.5
1263.124	934.5
1268	915.5
1272.871	909.5
1277.737	908.5
1282.599	903.5
1287.455	883.5
1292.306	897.5
1297.153	892.5
1301.995	910.5
1306.832	921.5
1311.664	921.5
1316.491	929.5
1321.314	906.5
1326.132	913.5
1330.945	888.5
1335.753	875.5
1340.556	866.5
1345.354	835.5
1350.148	836.5
1354.937	826.5
1359.722	804.5
1364.501	788.5
1369.276	767.5
1374.046	744.5
1378.811	742.5
1383.572	742.5
1388.327	737.5
1393.079	735.5
1397.825	742.5
1402.567	748.5
1407.304	746.5
1412.036	762.5
1416.764	754.5
1421.487	759.5
1426.205	755.5
1430.919	758.5
1435.628	764.5
1440.333	773.5
1445.032	766.5
1449.727	788.5
1454.418	764.5
1459.104	771.5
1463.785	763.5
1468.462	748.5
1473.134	736.5
1477.802	716.5
1482.465	689.5
1487.123	691.5
1491.777	659.5
1496.426	667.5
1501.071	668.5
1505.711	645.5
1510.347	648.5
1514.978	628.5
1519.604	627.5
1524.226	625.5
1528.844	619.5
1533.457	622.5
1538.065	612.5
1542.669	600.5
1547.269	610.5
1551.864	631.5
1556.454	632.5
1561.041	639.5
1565.622	633.5
1570.199	646.5
1574.772	646.5
1579.34	657.5
1583.904	669.5
1588.464	684.5
1593.019	684.5
1597.569	683.5
1602.115	682.5
1606.657	691.5
1611.195	679.5
1615.728	673.5
1620.256	680.5
1624.78	679.5
1629.3	687.5
1633.816	673.5
1638.327	689.5
1642.834	682.5
1647.336	670.5
1651.834	679.5
1656.328	680.5
1660.817	664.5
1665.302	659.5
1669.783	638.5
1674.259	626.5
1678.732	625.5
1683.199	597.5
1687.663	571.5
1692.122	548.5
1696.577	518.5
1701.028	487.5
1705.474	460.5
1709.917	455.5
1714.355	452.5
1718.788	443.5
1723.218	436.5
1727.643	444.5
1732.064	445.5
1736.481	451.5
1740.893	436.5
1745.301	425.5
1749.705	428.5
1754.105	407.5
1758.501	394.5
1762.893	398.5
1767.28	397.5
1771.663	389.5
1776.042	379.5
1780.417	365.5
1784.787	364.5
1789.154	352.5
1793.516	333.5
1797.874	335.5
1802.228	329.5
1806.578	327.5
1810.924	315.5
1815.266	324.5
1819.603	318.5
1823.937	332.5
1828.266	327.5
1832.591	336.5
1836.913	329.5
1841.23	331.5
1845.543	345.5
1849.852	343.5
1854.156	336.5
1858.457	336.5
1862.754	346.5
1867.047	347.5
1871.335	340.5
1875.62	342.5
1879.9	341.5
1884.177	339.5
1888.449	328.5
1892.718	323.5
1896.982	319.5
1901.243	315.5
1905.499	296.5
1909.752	302.5
1914	300.5
1918.245	286.5
1922.485	278.5
1926.722	279.5
1930.954	282.5
1935.183	266.5
1939.408	273.5
1943.628	257.5
1947.845	262.5
1952.058	261.5
1956.267	255.5
1960.472	257.5
1964.673	249.5
1968.87	250.5
1973.063	257.5
1977.252	249.5
1981.438	242.5
1985.619	240.5
1989.797	255.5
1993.971	256.5
1998.14	258.5
2002.306	263.5
2006.469	262.5
2010.627	265.5
2014.781	268.5
2018.932	265.5
2023.078	267.5
2027.221	258.5
2031.36	262.5
2035.495	256.5
2039.627	251.5
2043.754	251.5
2047.878	241.5
2051.998	248.5
2056.114	241.5
2060.226	243.5
2064.334	233.5
2068.439	228.5
2072.54	236.5
2076.637	226.5
2080.73	232.5
2084.82	236.5
2088.906	230.5
2092.988	225.5
2097.066	219.5
2101.14	223.5
2105.211	220.5
2109.278	211.5
2113.342	202.5
2117.401	204.5
2121.457	199.5
2125.509	194.5
2129.558	200.5
2133.602	208.5
2137.643	202.5
2141.681	213.5
2145.714	204.5
2149.744	208.5
2153.77	206.5
2157.793	209.5
2161.812	211.5
2165.827	199.5
2169.838	202.5
2173.846	194.5
2177.851	199.5
2181.851	196.5
2185.848	197.5
2189.841	191.5
2193.831	185.5
2197.817	192.5
2201.799	198.5
2205.778	188.5
2209.753	195.5
2213.725	185.5
2217.693	194.5
2221.657	190.5
2225.618	187.5
2229.575	181.5
2233.529	183.5
2237.479	183.5
2241.425	178.5
2245.368	175.5
2249.307	181.5
2253.243	171.5
2257.175	164.5
2261.104	169.5
2265.029	170.5
2268.95	174.5
2272.868	171.5
2276.783	159.5
2280.694	159.5
2284.601	157.5
2288.505	163.5
2292.405	164.5
2296.302	165.5
2300.195	157.5
2304.085	156.5
2307.971	149.5
2311.854	151.5
2315.734	137.5
2319.609	153.5
2323.482	142.5
2327.351	153.5
2331.216	151.5
2335.078	165.5
2338.937	154.5
2342.792	149.5
2346.643	149.5
2350.492	150.5
2354.336	148.5
2358.178	144.5
2362.015	145.5
2365.85	150.5
2369.681	158.5
2373.508	153.5
2377.333	157.5
2381.153	150.5
2384.971	146.5
2388.785	142.5
2392.595	145.5
2396.402	151.5
2400.206	145.5
2404.007	143.5
2407.804	143.5
2411.597	136.5
2415.388	143.5
2419.174	150.5
2422.958	148.5
2426.738	150.5
2430.515	141.5
2434.289	138.5
2438.059	135.5
2441.825	139.5
2445.589	132.5
2449.349	135.5
2453.106	131.5
2456.859	130.5
2460.61	136.5
2464.356	130.5
2468.1	129.5
2471.84	130.5
2475.577	126.5
2479.311	123.5
2483.041	127.5
2486.768	124.5
2490.492	122.5
2494.213	111.5
2497.93	119.5
2501.644	125.5
2505.355	115.5
2509.062	111.5
2512.766	117.5
2516.467	109.5
2520.165	106.5
2523.859	115.5
2527.551	109.5
2531.239	115.5
2534.923	107.5
2538.605	101.5
2542.283	90.5
2545.958	102.5
2549.63	97.5
2553.299	94.5
2556.964	91.5
2560.626	87.5
2564.285	93.5
2567.941	87.5
2571.594	89.5
2575.243	87.5
2578.89	85.5
2582.533	84.5
2586.173	89.5
2589.809	90.5
2593.443	89.5
2597.073	81.5
2600.701	89.5
2604.325	79.5
2607.946	71.5
2611.564	88.5
2615.178	85.5
2618.79	76.5
2622.398	79.5
2626.004	78.5
2629.606	77.5
2633.205	80.5
2636.801	75.5
2640.394	79.5
2643.983	75.5
2647.57	78.5
2651.153	64.5
2654.734	75.5
2658.311	74.5
2661.885	70.5
2665.456	75.5
2669.025	70.5
2672.589	67.5
2676.151	69.5
2679.71	62.5
2683.266	69.5
2686.819	70.5
2690.368	67.5
2693.915	65.5
2697.458	61.5
2700.999	68.5
2704.536	66.5
2708.071	67.5
2711.602	62.5
2715.13	55.5
2718.656	55.5
2722.178	48.5
2725.697	47.5
2729.214	53.5
2732.727	54.5
2736.237	53.5
2739.744	46.5
2743.249	48.5
2746.75	45.5
2750.248	47.5
2753.743	43.5
2757.236	42.5
2760.725	44.5
2764.211	35.5
2767.695	39.5
2771.175	35.5
2774.652	39.5
2778.127	35.5
2781.598	33.5
2785.067	37.5
2788.532	37.5
2791.995	42.5
2795.455	31.5
2798.911	42.5
2802.365	38.5
2805.816	37.5
2809.264	34.5
2812.709	39.5
2816.151	42.5
2819.59	45.5
2823.026	41.5
2826.46	37.5
2829.89	36.5
2833.318	32.5
2836.742	42.5
2840.164	40.5
2843.583	36.5
2846.999	47.5
2850.412	37.5
2853.822	40.5
2857.229	42.5
2860.634	43.5
2864.035	47.5
2867.434	43.5
2870.83	48.5
2874.223	46.5
2877.613	47.5
2881	50.5
2884.385	61.5
2887.766	52.5
2891.145	52.5
2894.521	56.5
2897.894	48.5
2901.264	50.5
2904.631	36.5
2907.996	52.5
2911.358	55.5
2914.717	56.5
2918.073	54.5
2921.426	52.5
2924.777	61.5
2928.124	61.5
2931.469	65.5
2934.811	68.5
2938.15	74.5
2941.487	80.5
2944.821	73.5
2948.152	79.5
2951.48	71.5
2954.805	72.5
2958.128	66.5
2961.447	62.5
2964.765	69.5
2968.079	58.5
2971.39	62.5
2974.699	66.5
2978.005	71.5
2981.308	60.5
2984.609	58.5
2987.907	61.5
2991.202	69.5
2994.494	55.5
2997.784	59.5
3001.07	60.5
3004.355	60.5
3007.636	59.5
3010.915	70.5
3014.191	59.5
3017.464	66.5
3020.734	71.5
3024.002	76.5
3027.267	76.5
3030.53	74.5
3033.789	81.5
3037.046	79.5
3040.301	77.5
3043.552	78.5
3046.801	88.5
3050.048	91.5
3053.291	86.5
3056.532	95.5
3059.771	99.5
3063.006	100.5
3066.239	104.5
3069.469	109.5
3072.697	115.5
3075.922	123.5
3079.144	115.5
3082.364	128.5
3085.581	125.5
3088.795	132.5
3092.007	138.5
3095.216	142.5
3098.423	142.5
3101.627	138.5
3104.828	146.5
3108.026	141.5
3111.222	154.5
3114.416	155.5
3117.607	158.5
3120.795	156.5
3123.98	164.5
3127.163	165.5
3130.344	167.5
3133.521	176.5
3136.696	170.5
3139.869	178.5
3143.039	184.5
3146.206	193.5
3149.371	188.5
3152.533	196.5
3155.693	190.5
3158.85	199.5
3162.005	193.5
3165.157	196.5
3168.306	193.5
3171.453	196.5
3174.597	201.5
3177.739	204.5
3180.878	204.5
3184.014	205.5
3187.149	199.5
3190.28	202.5
3193.409	196.5
3196.536	205.5
3199.659	206.5
3202.781	202.5
3205.9	194.5
3209.016	195.5
3212.13	199.5
3215.241	198.5
3218.35	196.5
3221.456	200.5
3224.56	183.5
3227.661	192.5
3230.76	183.5
3233.856	188.5
3236.95	181.5
3240.041	174.5
3243.13	181.5
3246.216	172.5
3249.3	160.5
3252.382	165.5
3255.46	165.5
3258.537	160.5
3261.611	156.5
3264.682	154.5
3267.751	161.5
3270.818	138.5
3273.882	152.5
3276.943	150.5
3280.002	157.5
3283.059	147.5
3286.113	143.5
3289.165	154.5
3292.214	142.5
3295.261	145.5
3298.306	151.5
3301.348	140.5
3304.387	142.5
3307.425	141.5
3310.459	139.5
3313.492	136.5
3316.521	140.5
3319.549	146.5
3322.574	131.5
3325.597	137.5
3328.617	141.5
3331.635	143.5
3334.65	143.5
3337.663	131.5
3340.674	145.5
3343.682	135.5
3346.688	133.5
3349.691	146.5
3352.692	138.5
3355.691	141.5
3358.687	135.5
3361.681	137.5
3364.673	133.5
3367.662	124.5
3370.649	129.5
3373.633	123.5
3376.615	125.5
3379.595	118.5
3382.572	118.5
3385.547	123.5
3388.52	117.5
3391.49	114.5
3394.458	102.5
3397.424	114.5
3400.387	121.5
3403.348	101.5
3406.307	105.5
3409.263	110.5
3412.217	102.5
3415.168	105.5
3418.118	96.5
3421.065	93.5
3424.009	95.5
3426.951	87.5
3429.891	84.5
3432.829	92.5
3435.764	96.5
3438.697	93.5
3441.628	83.5
3444.557	78.5
3447.483	78.5
3450.407	68.5
3453.328	66.5
3456.247	62.5
3459.164	63.5
3462.079	57.5
3464.991	57.5
3467.902	60.5
3470.809	49.5
3473.715	44.5
3476.618	43.5
3479.519	33.5
3482.418	33.5
3485.315	38.5
3488.209	18.5
3491.101	32.5
3493.99	29.5
3496.878	26.5
3499.763	22.5
3502.646	18.5
3505.527	19.5
3508.405	18.5
3511.281	13.5
3514.155	10.5
3517.027	7.5
3519.897	14.5
3522.764	13.5
3525.629	7.5
3528.492	3.5
3531.352	-2.5
3534.211	-5.5
3537.067	-4.5
3539.921	-5.5
3542.773	-13.5
3545.622	-9.5
3548.469	-5.5
3551.315	-13.5
3554.157	-13.5
3556.998	-13.5
3559.837	-18.5
3562.673	-16.5
3565.507	-17.5
3568.339	-8.5
3571.169	-16.5
3573.996	-11.5
3576.822	-22.5
3579.645	-23.5
3582.466	-23.5
3585.285	-22.5
3588.101	-24.5
3590.916	-20.5
3593.728	-24.5
3596.538	-25.5
3599.346	-31.5
3602.152	-28.5
3604.956	-31.5
3607.757	-26.5
3610.556	-27.5
3613.354	-35.5
3616.149	-37.5
3618.942	-32.5
3621.732	-34.5
3624.521	-28.5
3627.307	-33.5
3630.092	-38.5
3632.874	-34.5
3635.654	-29.5
3638.432	-31.5
3641.208	-36.5
3643.982	-34.5
3646.753	-38.5
3649.523	-40.5
3652.29	-39.5
3655.055	-40.5
3657.818	-45.5
3660.579	-38.5
3663.338	-36.5
3666.095	-41.5
3668.849	-40.5
3671.602	-40.5
3674.352	-39.5
3677.101	-40.5
3679.847	-44.5
3682.591	-47.5
3685.333	-44.5
3688.073	-47.5
3690.811	-39.5
3693.547	-42.5
3696.281	-39.5
3699.013	-41.5
3701.742	-47.5
3704.47	-44.5
3707.195	-45.5
3709.919	-45.5
3712.64	-47.5
3715.359	-44.5
3718.076	-50.5
3720.792	-50.5
3723.505	-49.5
3726.216	-43.5
3728.925	-51.5
3731.632	-51.5
3734.336	-52.5
3737.039	-45.5
3739.74	-52.5
3742.439	-54.5
3745.136	-44.5
3747.83	-50.5
3750.523	-51.5
3753.213	-57.5
3755.902	-47.5
3758.589	-45.5
3761.273	-47.5
3763.956	-50.5
3766.636	-44.5
3769.315	-48.5
3771.991	-50.5
3774.665	-52.5
3777.338	-53.5
3780.008	-49.5
3782.677	-58.5
3785.343	-57.5
3788.007	-50.5
3790.67	-52.5
3793.33	-52.5
3795.989	-52.5
3798.645	-52.5
3801.299	-49.5
3803.952	-50.5
3806.602	-51.5
3809.251	-51.5
3811.897	-52.5
3814.542	-54.5
3817.184	-49.5
3819.825	-43.5
3822.463	-48.5
3825.1	-46.5
3827.735	-55.5
3830.367	-50.5
3832.998	-54.5
3835.627	-53.5
3838.253	-52.5
3840.878	-52.5
3843.501	-48.5
3846.122	-56.5
3848.741	-56.5
3851.358	-53.5
3853.973	-49.5
3856.586	-47.5
3859.197	-48.5
3861.806	-51.5
3864.414	-55.5
3867.019	-51.5
3869.622	-44.5
3872.224	-42.5
3874.823	-33.5
3877.421	-27.5
3880.016	-18.5
3882.61	2.5
3885.202	0.5
3887.792	-14.5
3890.38	-28.5
3892.966	-42.5
3895.55	-47.5
3898.132	-49.5
3900.713	-48.5
3903.291	-55.5
3905.868	-50.5
3908.442	-51.5
3911.015	-48.5
3913.586	-56.5
3916.155	-48.5
3918.722	-52.5
3921.287	-53.5
3923.85	-51.5
3926.411	-52.5
3928.971	-62.5
3931.528	-50.5
3934.084	-51.5
3936.638	-49.5
3939.19	-59.5
3941.74	-52.5
3944.288	-54.5
3946.834	-54.5
3949.378	-53.5
3951.921	-60.5
3954.462	-56.5
3957	-51.5
3959.537	-47.5
3962.072	-49.5
3964.606	-52.5
3967.137	-52.5
3969.667	-57.5
3972.194	-53.5
3974.72	-45.5
3977.244	-47.5
3979.766	-49.5
3982.286	-51.5
3984.805	-57.5
3987.321	-47.5
3989.836	-49.5
3992.349	-46.5
3994.86	-53.5
3997.369	-55.5
3999.877	-55.5
4002.382	-47.5
4004.886	-46.5
4007.388	-57.5
4009.888	-51.5
4012.386	-51.5
4014.883	-52.5
4017.377	-52.5
4019.87	-49.5
4022.361	-57.5
4024.85	-56.5
4027.338	-60.5
4029.823	-55.5
4032.307	-54.5
4034.789	-49.5
4037.269	-53.5
4039.747	-53.5
4042.224	-53.5
4044.699	-53.5
4047.172	-56.5
4049.643	-54.5
4052.112	-56.5
4054.58	-52.5
4057.046	-50.5
4059.51	-54.5
4061.972	-54.5
4064.432	-48.5
4066.891	-50.5
4069.348	-46.5
4071.803	-46.5
4074.256	-51.5
4076.708	-49.5
4079.158	-55.5
4081.606	-51.5
4084.052	-54.5
4086.497	-47.5
4088.939	-54.5
4091.38	-56.5
4093.819	-55.5
4096.257	-54.5
4098.693	-54.5
4101.127	-47.5
4103.559	-55.5
4105.989	7.5
4108.418	-0.5
4110.845	0.5
4113.27	-1.5
4115.694	3.5
4118.115	6.5
4120.535	-52.5
4122.954	-52.5
4125.37	-56.5
4127.785	-49.5
4130.198	-49.5
4132.609	-54.5
4135.019	-52.5
4137.427	-53.5
4139.833	-51.5
4142.237	-55.5
