Data from 2018-3-7_conc=0_n=5_RamanShift_06.txt Node
Date: Wed Mar 07 10:20:53 IST 2018
User: aro
Spectrometer: QEPB0276
Trigger mode: 0
Integration Time (sec): 3.000000E1
Scans to average: 1
Electric dark correction enabled: true
Nonlinearity correction enabled: false
Boxcar width: 0
XAxis mode: Raman Shifts
Number of Pixels in Spectrum: 1044
>>>>>Begin Spectral Data<<<<<
160.701	9.8
166.742	15.8
172.777	51.8
178.805	150.8
184.826	391.8
190.841	802.8
196.849	1326.8
202.85	1729.8
208.845	1905.8
214.833	1912.8
220.815	1879.8
226.789	1878.8
232.758	1900.8
238.719	1886.8
244.674	1874.8
250.623	1886.8
256.565	1885.8
262.5	1848.8
268.429	1847.8
274.351	1859.8
280.267	1833.8
286.176	1847.8
292.079	1856.8
297.975	1852.8
303.865	1866.8
309.748	1867.8
315.625	1875.8
321.495	1868.8
327.359	1877.8
333.217	1877.8
339.068	1904.8
344.912	1891.8
350.751	1892.8
356.583	1900.8
362.408	1927.8
368.227	1920.8
374.04	1941.8
379.847	1954.8
385.647	1954.8
391.44	1977.8
397.228	1974.8
403.009	2006.8
408.784	2033.8
414.553	2033.8
420.315	2020.8
426.071	2049.8
431.821	2036.8
437.565	2034.8
443.302	2027.8
449.033	2049.8
454.758	2024.8
460.477	1979.8
466.189	1975.8
471.896	1939.8
477.596	1928.8
483.29	1909.8
488.978	1908.8
494.66	1902.8
500.335	1862.8
506.005	1762.8
511.668	1695.8
517.325	1598.8
522.977	1518.8
528.622	1459.8
534.261	1422.8
539.894	1377.8
545.521	1384.8
551.141	1347.8
556.756	1337.8
562.365	1333.8
567.968	1311.8
573.565	1282.8
579.155	1284.8
584.74	1285.8
590.319	1280.8
595.892	1279.8
601.459	1267.8
607.02	1264.8
612.575	1253.8
618.124	1235.8
623.667	1223.8
629.204	1205.8
634.735	1212.8
640.261	1162.8
645.781	1176.8
651.294	1170.8
656.802	1156.8
662.304	1149.8
667.8	1162.8
673.29	1164.8
678.775	1134.8
684.254	1148.8
689.726	1114.8
695.193	1123.8
700.655	1122.8
706.11	1120.8
711.56	1113.8
717.004	1088.8
722.442	1097.8
727.874	1081.8
733.301	1090.8
738.722	1082.8
744.137	1089.8
749.547	1075.8
754.951	1070.8
760.349	1061.8
765.741	1087.8
771.128	1087.8
776.509	1110.8
781.885	1140.8
787.254	1145.8
792.618	1137.8
797.977	1139.8
803.33	1139.8
808.677	1135.8
814.019	1126.8
819.355	1102.8
824.686	1087.8
830.011	1097.8
835.33	1084.8
840.644	1072.8
845.952	1078.8
851.255	1068.8
856.552	1068.8
861.844	1058.8
867.13	1065.8
872.41	1075.8
877.686	1119.8
882.955	1161.8
888.219	1162.8
893.478	1084.8
898.731	1011.8
903.979	977.8
909.221	953.8
914.458	938.8
919.69	946.8
924.916	944.8
930.136	938.8
935.351	932.8
940.561	945.8
945.766	942.8
950.965	928.8
956.158	923.8
961.347	910.8
966.529	905.8
971.707	874.8
976.879	865.8
982.046	877.8
987.208	874.8
992.364	879.8
997.515	859.8
1002.66	871.8
1007.801	879.8
1012.936	909.8
1018.066	903.8
1023.19	890.8
1028.309	899.8
1033.423	914.8
1038.532	918.8
1043.636	925.8
1048.734	935.8
1053.827	932.8
1058.915	916.8
1063.998	900.8
1069.075	886.8
1074.147	895.8
1079.214	883.8
1084.276	900.8
1089.333	915.8
1094.385	908.8
1099.431	903.8
1104.472	883.8
1109.509	873.8
1114.54	851.8
1119.565	834.8
1124.586	832.8
1129.602	795.8
1134.613	805.8
1139.618	791.8
1144.619	796.8
1149.614	798.8
1154.604	803.8
1159.589	795.8
1164.57	799.8
1169.545	792.8
1174.515	798.8
1179.48	796.8
1184.44	800.8
1189.395	790.8
1194.345	781.8
1199.29	761.8
1204.23	778.8
1209.165	784.8
1214.095	778.8
1219.021	776.8
1223.941	785.8
1228.856	791.8
1233.766	792.8
1238.672	795.8
1243.572	792.8
1248.467	798.8
1253.358	756.8
1258.244	765.8
1263.124	746.8
1268	745.8
1272.871	739.8
1277.737	730.8
1282.599	737.8
1287.455	734.8
1292.306	728.8
1297.153	736.8
1301.995	740.8
1306.832	734.8
1311.664	730.8
1316.491	732.8
1321.314	730.8
1326.132	733.8
1330.945	705.8
1335.753	707.8
1340.556	680.8
1345.354	665.8
1350.148	647.8
1354.937	636.8
1359.722	630.8
1364.501	611.8
1369.276	600.8
1374.046	589.8
1378.811	584.8
1383.572	597.8
1388.327	595.8
1393.079	604.8
1397.825	612.8
1402.567	602.8
1407.304	617.8
1412.036	611.8
1416.764	612.8
1421.487	626.8
1426.205	615.8
1430.919	627.8
1435.628	642.8
1440.333	646.8
1445.032	640.8
1449.727	665.8
1454.418	674.8
1459.104	685.8
1463.785	676.8
1468.462	648.8
1473.134	620.8
1477.802	582.8
1482.465	568.8
1487.123	555.8
1491.777	539.8
1496.426	537.8
1501.071	524.8
1505.711	510.8
1510.347	503.8
1514.978	496.8
1519.604	497.8
1524.226	497.8
1528.844	499.8
1533.457	491.8
1538.065	498.8
1542.669	488.8
1547.269	482.8
1551.864	499.8
1556.454	505.8
1561.041	528.8
1565.622	521.8
1570.199	511.8
1574.772	511.8
1579.34	536.8
1583.904	526.8
1588.464	550.8
1593.019	538.8
1597.569	518.8
1602.115	533.8
1606.657	535.8
1611.195	528.8
1615.728	532.8
1620.256	523.8
1624.78	523.8
1629.3	517.8
1633.816	516.8
1638.327	531.8
1642.834	514.8
1647.336	512.8
1651.834	518.8
1656.328	516.8
1660.817	521.8
1665.302	512.8
1669.783	496.8
1674.259	492.8
1678.732	466.8
1683.199	452.8
1687.663	436.8
1692.122	414.8
1696.577	398.8
1701.028	377.8
1705.474	359.8
1709.917	352.8
1714.355	353.8
1718.788	349.8
1723.218	352.8
1727.643	350.8
1732.064	355.8
1736.481	350.8
1740.893	331.8
1745.301	329.8
1749.705	332.8
1754.105	319.8
1758.501	307.8
1762.893	309.8
1767.28	292.8
1771.663	290.8
1776.042	294.8
1780.417	282.8
1784.787	275.8
1789.154	266.8
1793.516	254.8
1797.874	260.8
1802.228	266.8
1806.578	257.8
1810.924	247.8
1815.266	252.8
1819.603	253.8
1823.937	260.8
1828.266	266.8
1832.591	259.8
1836.913	268.8
1841.23	270.8
1845.543	254.8
1849.852	272.8
1854.156	268.8
1858.457	265.8
1862.754	272.8
1867.047	269.8
1871.335	254.8
1875.62	253.8
1879.9	266.8
1884.177	247.8
1888.449	262.8
1892.718	250.8
1896.982	247.8
1901.243	225.8
1905.499	220.8
1909.752	217.8
1914	213.8
1918.245	220.8
1922.485	218.8
1926.722	202.8
1930.954	208.8
1935.183	209.8
1939.408	204.8
1943.628	196.8
1947.845	203.8
1952.058	207.8
1956.267	197.8
1960.472	203.8
1964.673	193.8
1968.87	193.8
1973.063	193.8
1977.252	201.8
1981.438	191.8
1985.619	204.8
1989.797	199.8
1993.971	205.8
1998.14	199.8
2002.306	199.8
2006.469	204.8
2010.627	202.8
2014.781	195.8
2018.932	201.8
2023.078	212.8
2027.221	199.8
2031.36	202.8
2035.495	191.8
2039.627	180.8
2043.754	195.8
2047.878	186.8
2051.998	184.8
2056.114	185.8
2060.226	180.8
2064.334	173.8
2068.439	174.8
2072.54	170.8
2076.637	173.8
2080.73	170.8
2084.82	172.8
2088.906	162.8
2092.988	165.8
2097.066	166.8
2101.14	162.8
2105.211	154.8
2109.278	158.8
2113.342	143.8
2117.401	158.8
2121.457	153.8
2125.509	154.8
2129.558	158.8
2133.602	148.8
2137.643	159.8
2141.681	152.8
2145.714	158.8
2149.744	154.8
2153.77	156.8
2157.793	154.8
2161.812	159.8
2165.827	160.8
2169.838	150.8
2173.846	146.8
2177.851	152.8
2181.851	145.8
2185.848	144.8
2189.841	140.8
2193.831	138.8
2197.817	149.8
2201.799	140.8
2205.778	140.8
2209.753	143.8
2213.725	142.8
2217.693	143.8
2221.657	145.8
2225.618	135.8
2229.575	137.8
2233.529	135.8
2237.479	134.8
2241.425	125.8
2245.368	132.8
2249.307	135.8
2253.243	127.8
2257.175	129.8
2261.104	117.8
2265.029	122.8
2268.95	127.8
2272.868	121.8
2276.783	119.8
2280.694	113.8
2284.601	117.8
2288.505	115.8
2292.405	117.8
2296.302	117.8
2300.195	118.8
2304.085	108.8
2307.971	111.8
2311.854	112.8
2315.734	111.8
2319.609	111.8
2323.482	107.8
2327.351	115.8
2331.216	136.8
2335.078	138.8
2338.937	134.8
2342.792	109.8
2346.643	110.8
2350.492	120.8
2354.336	106.8
2358.178	108.8
2362.015	109.8
2365.85	109.8
2369.681	115.8
2373.508	109.8
2377.333	113.8
2381.153	105.8
2384.971	108.8
2388.785	112.8
2392.595	111.8
2396.402	111.8
2400.206	111.8
2404.007	107.8
2407.804	102.8
2411.597	101.8
2415.388	103.8
2419.174	109.8
2422.958	106.8
2426.738	106.8
2430.515	108.8
2434.289	103.8
2438.059	100.8
2441.825	105.8
2445.589	98.8
2449.349	98.8
2453.106	100.8
2456.859	97.8
2460.61	96.8
2464.356	95.8
2468.1	95.8
2471.84	89.8
2475.577	82.8
2479.311	92.8
2483.041	84.8
2486.768	89.8
2490.492	84.8
2494.213	85.8
2497.93	93.8
2501.644	85.8
2505.355	75.8
2509.062	77.8
2512.766	83.8
2516.467	77.8
2520.165	76.8
2523.859	75.8
2527.551	72.8
2531.239	74.8
2534.923	73.8
2538.605	64.8
2542.283	62.8
2545.958	65.8
2549.63	69.8
2553.299	66.8
2556.964	62.8
2560.626	65.8
2564.285	64.8
2567.941	63.8
2571.594	62.8
2575.243	55.8
2578.89	57.8
2582.533	53.8
2586.173	63.8
2589.809	68.8
2593.443	54.8
2597.073	54.8
2600.701	58.8
2604.325	47.8
2607.946	45.8
2611.564	56.8
2615.178	55.8
2618.79	50.8
2622.398	57.8
2626.004	52.8
2629.606	45.8
2633.205	53.8
2636.801	42.8
2640.394	53.8
2643.983	52.8
2647.57	53.8
2651.153	49.8
2654.734	45.8
2658.311	45.8
2661.885	52.8
2665.456	44.8
2669.025	50.8
2672.589	37.8
2676.151	47.8
2679.71	40.8
2683.266	40.8
2686.819	49.8
2690.368	40.8
2693.915	43.8
2697.458	43.8
2700.999	43.8
2704.536	43.8
2708.071	45.8
2711.602	33.8
2715.13	31.8
2718.656	32.8
2722.178	33.8
2725.697	30.8
2729.214	34.8
2732.727	42.8
2736.237	38.8
2739.744	35.8
2743.249	34.8
2746.75	34.8
2750.248	29.8
2753.743	22.8
2757.236	23.8
2760.725	28.8
2764.211	24.8
2767.695	22.8
2771.175	23.8
2774.652	21.8
2778.127	26.8
2781.598	21.8
2785.067	18.8
2788.532	15.8
2791.995	23.8
2795.455	25.8
2798.911	24.8
2802.365	27.8
2805.816	23.8
2809.264	26.8
2812.709	23.8
2816.151	26.8
2819.59	36.8
2823.026	31.8
2826.46	31.8
2829.89	31.8
2833.318	27.8
2836.742	37.8
2840.164	29.8
2843.583	31.8
2846.999	45.8
2850.412	36.8
2853.822	32.8
2857.229	44.8
2860.634	37.8
2864.035	40.8
2867.434	47.8
2870.83	49.8
2874.223	49.8
2877.613	59.8
2881	63.8
2884.385	67.8
2887.766	78.8
2891.145	71.8
2894.521	72.8
2897.894	68.8
2901.264	69.8
2904.631	63.8
2907.996	69.8
2911.358	70.8
2914.717	71.8
2918.073	65.8
2921.426	65.8
2924.777	81.8
2928.124	80.8
2931.469	90.8
2934.811	110.8
2938.15	108.8
2941.487	114.8
2944.821	96.8
2948.152	100.8
2951.48	84.8
2954.805	83.8
2958.128	80.8
2961.447	81.8
2964.765	66.8
2968.079	66.8
2971.39	68.8
2974.699	63.8
2978.005	68.8
2981.308	63.8
2984.609	58.8
2987.907	71.8
2991.202	64.8
2994.494	58.8
2997.784	55.8
3001.07	58.8
3004.355	53.8
3007.636	52.8
3010.915	58.8
3014.191	44.8
3017.464	55.8
3020.734	49.8
3024.002	55.8
3027.267	56.8
3030.53	54.8
3033.789	55.8
3037.046	56.8
3040.301	55.8
3043.552	61.8
3046.801	62.8
3050.048	61.8
3053.291	62.8
3056.532	67.8
3059.771	62.8
3063.006	69.8
3066.239	79.8
3069.469	85.8
3072.697	84.8
3075.922	80.8
3079.144	77.8
3082.364	87.8
3085.581	85.8
3088.795	92.8
3092.007	88.8
3095.216	93.8
3098.423	103.8
3101.627	98.8
3104.828	102.8
3108.026	103.8
3111.222	102.8
3114.416	107.8
3117.607	114.8
3120.795	110.8
3123.98	113.8
3127.163	128.8
3130.344	119.8
3133.521	132.8
3136.696	122.8
3139.869	128.8
3143.039	130.8
3146.206	134.8
3149.371	131.8
3152.533	147.8
3155.693	140.8
3158.85	142.8
3162.005	147.8
3165.157	143.8
3168.306	135.8
3171.453	139.8
3174.597	142.8
3177.739	139.8
3180.878	142.8
3184.014	131.8
3187.149	138.8
3190.28	138.8
3193.409	139.8
3196.536	141.8
3199.659	150.8
3202.781	146.8
3205.9	147.8
3209.016	140.8
3212.13	138.8
3215.241	131.8
3218.35	139.8
3221.456	134.8
3224.56	129.8
3227.661	119.8
3230.76	123.8
3233.856	123.8
3236.95	120.8
3240.041	115.8
3243.13	110.8
3246.216	105.8
3249.3	107.8
3252.382	105.8
3255.46	114.8
3258.537	112.8
3261.611	100.8
3264.682	99.8
3267.751	104.8
3270.818	97.8
3273.882	108.8
3276.943	97.8
3280.002	104.8
3283.059	94.8
3286.113	94.8
3289.165	92.8
3292.214	88.8
3295.261	103.8
3298.306	96.8
3301.348	95.8
3304.387	93.8
3307.425	89.8
3310.459	88.8
3313.492	90.8
3316.521	88.8
3319.549	96.8
3322.574	88.8
3325.597	89.8
3328.617	85.8
3331.635	88.8
3334.65	90.8
3337.663	87.8
3340.674	92.8
3343.682	87.8
3346.688	86.8
3349.691	89.8
3352.692	93.8
3355.691	87.8
3358.687	84.8
3361.681	87.8
3364.673	88.8
3367.662	83.8
3370.649	85.8
3373.633	84.8
3376.615	78.8
3379.595	74.8
3382.572	69.8
3385.547	74.8
3388.52	74.8
3391.49	70.8
3394.458	60.8
3397.424	71.8
3400.387	67.8
3403.348	53.8
3406.307	57.8
3409.263	70.8
3412.217	61.8
3415.168	64.8
3418.118	56.8
3421.065	55.8
3424.009	49.8
3426.951	55.8
3429.891	53.8
3432.829	51.8
3435.764	50.8
3438.697	55.8
3441.628	43.8
3444.557	40.8
3447.483	38.8
3450.407	33.8
3453.328	38.8
3456.247	34.8
3459.164	32.8
3462.079	29.8
3464.991	21.8
3467.902	27.8
3470.809	20.8
3473.715	14.8
3476.618	17.8
3479.519	8.8
3482.418	11.8
3485.315	6.8
3488.209	-0.2
3491.101	6.8
3493.99	7.8
3496.878	6.8
3499.763	-4.2
3502.646	1.8
3505.527	2.8
3508.405	-0.2
3511.281	-7.2
3514.155	-9.2
3517.027	-14.2
3519.897	-3.2
3522.764	-13.2
3525.629	-10.2
3528.492	-12.2
3531.352	-20.2
3534.211	-23.2
3537.067	-18.2
3539.921	-14.2
3542.773	-25.2
3545.622	-20.2
3548.469	-15.2
3551.315	-18.2
3554.157	-21.2
3556.998	-27.2
3559.837	-30.2
3562.673	-25.2
3565.507	-25.2
3568.339	-23.2
3571.169	-30.2
3573.996	-27.2
3576.822	-38.2
3579.645	-32.2
3582.466	-30.2
3585.285	-30.2
3588.101	-31.2
3590.916	-27.2
3593.728	-37.2
3596.538	-39.2
3599.346	-38.2
3602.152	-37.2
3604.956	-34.2
3607.757	-34.2
3610.556	-34.2
3613.354	-37.2
3616.149	-42.2
3618.942	-40.2
3621.732	-40.2
3624.521	-38.2
3627.307	-37.2
3630.092	-38.2
3632.874	-39.2
3635.654	-43.2
3638.432	-39.2
3641.208	-43.2
3643.982	-36.2
3646.753	-44.2
3649.523	-37.2
3652.29	-44.2
3655.055	-36.2
3657.818	-47.2
3660.579	-43.2
3663.338	-48.2
3666.095	-43.2
3668.849	-47.2
3671.602	-47.2
3674.352	-42.2
3677.101	-47.2
3679.847	-45.2
3682.591	-48.2
3685.333	-44.2
3688.073	-51.2
3690.811	-46.2
3693.547	-52.2
3696.281	-42.2
3699.013	-49.2
3701.742	-51.2
3704.47	-45.2
3707.195	-53.2
3709.919	-47.2
3712.64	-47.2
3715.359	-46.2
3718.076	-50.2
3720.792	-51.2
3723.505	-51.2
3726.216	-47.2
3728.925	-56.2
3731.632	-48.2
3734.336	-53.2
3737.039	-46.2
3739.74	-51.2
3742.439	-53.2
3745.136	-55.2
3747.83	-50.2
3750.523	-50.2
3753.213	-62.2
3755.902	-49.2
3758.589	-50.2
3761.273	-55.2
3763.956	-56.2
3766.636	-50.2
3769.315	-47.2
3771.991	-54.2
3774.665	-54.2
3777.338	-47.2
3780.008	-53.2
3782.677	-58.2
3785.343	-57.2
3788.007	-55.2
3790.67	-56.2
3793.33	-53.2
3795.989	-53.2
3798.645	-54.2
3801.299	-49.2
3803.952	-50.2
3806.602	-55.2
3809.251	-54.2
3811.897	-56.2
3814.542	-59.2
3817.184	-53.2
3819.825	-47.2
3822.463	-54.2
3825.1	-49.2
3827.735	-58.2
3830.367	-53.2
3832.998	-61.2
3835.627	-53.2
3838.253	-53.2
3840.878	-46.2
3843.501	-50.2
3846.122	-57.2
3848.741	-57.2
3851.358	-54.2
3853.973	-48.2
3856.586	-52.2
3859.197	-52.2
3861.806	-52.2
3864.414	-52.2
3867.019	-52.2
3869.622	-47.2
3872.224	-45.2
3874.823	-40.2
3877.421	-35.2
3880.016	-18.2
3882.61	-9.2
3885.202	-5.2
3887.792	-13.2
3890.38	-29.2
3892.966	-46.2
3895.55	-48.2
3898.132	-51.2
3900.713	-50.2
3903.291	-55.2
3905.868	-51.2
3908.442	-56.2
3911.015	-52.2
3913.586	-63.2
3916.155	-53.2
3918.722	-54.2
3921.287	-49.2
3923.85	-50.2
3926.411	-55.2
3928.971	-60.2
3931.528	-54.2
3934.084	-52.2
3936.638	-52.2
3939.19	-65.2
3941.74	-55.2
3944.288	-52.2
3946.834	-51.2
3949.378	-55.2
3951.921	-57.2
3954.462	-57.2
3957	-50.2
3959.537	-47.2
3962.072	-53.2
3964.606	-51.2
3967.137	-48.2
3969.667	-54.2
3972.194	-53.2
3974.72	-52.2
3977.244	-49.2
3979.766	-57.2
3982.286	-55.2
3984.805	-58.2
3987.321	-54.2
3989.836	-52.2
3992.349	-52.2
3994.86	-56.2
3997.369	-57.2
3999.877	-53.2
4002.382	-56.2
4004.886	-46.2
4007.388	-53.2
4009.888	-50.2
4012.386	-56.2
4014.883	-52.2
4017.377	-51.2
4019.87	-50.2
4022.361	-57.2
4024.85	-48.2
4027.338	-52.2
4029.823	-52.2
4032.307	-57.2
4034.789	-53.2
4037.269	-57.2
4039.747	-56.2
4042.224	-58.2
4044.699	-52.2
4047.172	-56.2
4049.643	-54.2
4052.112	-55.2
4054.58	-52.2
4057.046	-51.2
4059.51	-57.2
4061.972	-53.2
4064.432	-49.2
4066.891	-46.2
4069.348	-53.2
4071.803	-51.2
4074.256	-56.2
4076.708	-57.2
4079.158	-56.2
4081.606	-51.2
4084.052	-50.2
4086.497	-45.2
4088.939	-51.2
4091.38	-57.2
4093.819	-55.2
4096.257	-54.2
4098.693	-57.2
4101.127	-50.2
4103.559	-59.2
4105.989	14.8
4108.418	2.8
4110.845	2.8
4113.27	5.8
4115.694	7.8
4118.115	7.8
4120.535	-51.2
4122.954	-53.2
4125.37	-56.2
4127.785	-52.2
4130.198	-57.2
4132.609	-55.2
4135.019	-55.2
4137.427	-56.2
4139.833	-56.2
4142.237	-60.2
