Data from 2018-3-7_conc=2_n=8_RamanShift_04.txt Node
Date: Wed Mar 07 11:02:52 IST 2018
User: aro
Spectrometer: QEPB0276
Trigger mode: 0
Integration Time (sec): 3.000000E1
Scans to average: 1
Electric dark correction enabled: true
Nonlinearity correction enabled: false
Boxcar width: 0
XAxis mode: Raman Shifts
Number of Pixels in Spectrum: 1044
>>>>>Begin Spectral Data<<<<<
160.701	12.8
166.742	25.8
172.777	52.8
178.805	139.8
184.826	352.8
190.841	731.8
196.849	1209.8
202.85	1576.8
208.845	1724.8
214.833	1729.8
220.815	1693.8
226.789	1709.8
232.758	1713.8
238.719	1714.8
244.674	1696.8
250.623	1705.8
256.565	1688.8
262.5	1637.8
268.429	1633.8
274.351	1626.8
280.267	1622.8
286.176	1624.8
292.079	1621.8
297.975	1627.8
303.865	1644.8
309.748	1628.8
315.625	1631.8
321.495	1619.8
327.359	1614.8
333.217	1634.8
339.068	1649.8
344.912	1654.8
350.751	1640.8
356.583	1648.8
362.408	1639.8
368.227	1646.8
374.04	1673.8
379.847	1667.8
385.647	1683.8
391.44	1683.8
397.228	1679.8
403.009	1721.8
408.784	1727.8
414.553	1727.8
420.315	1732.8
426.071	1724.8
431.821	1731.8
437.565	1735.8
443.302	1713.8
449.033	1713.8
454.758	1710.8
460.477	1682.8
466.189	1691.8
471.896	1656.8
477.596	1654.8
483.29	1651.8
488.978	1644.8
494.66	1632.8
500.335	1616.8
506.005	1524.8
511.668	1475.8
517.325	1408.8
522.977	1357.8
528.622	1310.8
534.261	1278.8
539.894	1256.8
545.521	1238.8
551.141	1239.8
556.756	1217.8
562.365	1212.8
567.968	1195.8
573.565	1193.8
579.155	1189.8
584.74	1184.8
590.319	1188.8
595.892	1181.8
601.459	1176.8
607.02	1170.8
612.575	1160.8
618.124	1149.8
623.667	1133.8
629.204	1125.8
634.735	1117.8
640.261	1092.8
645.781	1090.8
651.294	1089.8
656.802	1083.8
662.304	1071.8
667.8	1076.8
673.29	1066.8
678.775	1068.8
684.254	1074.8
689.726	1072.8
695.193	1052.8
700.655	1056.8
706.11	1043.8
711.56	1039.8
717.004	1039.8
722.442	1021.8
727.874	1022.8
733.301	1015.8
738.722	1014.8
744.137	1005.8
749.547	1011.8
754.951	992.8
760.349	999.8
765.741	1007.8
771.128	1010.8
776.509	1037.8
781.885	1043.8
787.254	1045.8
792.618	1052.8
797.977	1038.8
803.33	1021.8
808.677	1023.8
814.019	1018.8
819.355	1006.8
824.686	989.8
830.011	1002.8
835.33	996.8
840.644	988.8
845.952	978.8
851.255	982.8
856.552	979.8
861.844	961.8
867.13	949.8
872.41	933.8
877.686	946.8
882.955	955.8
888.219	925.8
893.478	919.8
898.731	898.8
903.979	882.8
909.221	882.8
914.458	878.8
919.69	876.8
924.916	876.8
930.136	876.8
935.351	889.8
940.561	883.8
945.766	871.8
950.965	871.8
956.158	858.8
961.347	851.8
966.529	852.8
971.707	826.8
976.879	809.8
982.046	805.8
987.208	809.8
992.364	808.8
997.515	815.8
1002.66	823.8
1007.801	833.8
1012.936	835.8
1018.066	832.8
1023.19	840.8
1028.309	837.8
1033.423	841.8
1038.532	834.8
1043.636	819.8
1048.734	833.8
1053.827	807.8
1058.915	813.8
1063.998	791.8
1069.075	787.8
1074.147	797.8
1079.214	793.8
1084.276	807.8
1089.333	796.8
1094.385	798.8
1099.431	803.8
1104.472	798.8
1109.509	787.8
1114.54	780.8
1119.565	759.8
1124.586	760.8
1129.602	750.8
1134.613	746.8
1139.618	739.8
1144.619	736.8
1149.614	737.8
1154.604	731.8
1159.589	734.8
1164.57	737.8
1169.545	748.8
1174.515	739.8
1179.48	744.8
1184.44	744.8
1189.395	743.8
1194.345	725.8
1199.29	709.8
1204.23	729.8
1209.165	719.8
1214.095	722.8
1219.021	722.8
1223.941	716.8
1228.856	745.8
1233.766	734.8
1238.672	737.8
1243.572	725.8
1248.467	737.8
1253.358	727.8
1258.244	705.8
1263.124	699.8
1268	694.8
1272.871	691.8
1277.737	666.8
1282.599	678.8
1287.455	658.8
1292.306	669.8
1297.153	664.8
1301.995	679.8
1306.832	681.8
1311.664	678.8
1316.491	685.8
1321.314	681.8
1326.132	686.8
1330.945	669.8
1335.753	644.8
1340.556	624.8
1345.354	615.8
1350.148	611.8
1354.937	594.8
1359.722	573.8
1364.501	568.8
1369.276	560.8
1374.046	555.8
1378.811	561.8
1383.572	545.8
1388.327	559.8
1393.079	549.8
1397.825	544.8
1402.567	558.8
1407.304	562.8
1412.036	562.8
1416.764	567.8
1421.487	576.8
1426.205	551.8
1430.919	560.8
1435.628	568.8
1440.333	572.8
1445.032	557.8
1449.727	582.8
1454.418	574.8
1459.104	579.8
1463.785	559.8
1468.462	561.8
1473.134	530.8
1477.802	521.8
1482.465	504.8
1487.123	507.8
1491.777	488.8
1496.426	489.8
1501.071	478.8
1505.711	466.8
1510.347	472.8
1514.978	463.8
1519.604	474.8
1524.226	464.8
1528.844	465.8
1533.457	455.8
1538.065	463.8
1542.669	461.8
1547.269	457.8
1551.864	463.8
1556.454	473.8
1561.041	490.8
1565.622	488.8
1570.199	477.8
1574.772	487.8
1579.34	494.8
1583.904	495.8
1588.464	503.8
1593.019	502.8
1597.569	500.8
1602.115	505.8
1606.657	503.8
1611.195	506.8
1615.728	497.8
1620.256	498.8
1624.78	504.8
1629.3	503.8
1633.816	503.8
1638.327	499.8
1642.834	491.8
1647.336	498.8
1651.834	498.8
1656.328	496.8
1660.817	495.8
1665.302	476.8
1669.783	470.8
1674.259	454.8
1678.732	453.8
1683.199	434.8
1687.663	414.8
1692.122	391.8
1696.577	393.8
1701.028	370.8
1705.474	348.8
1709.917	346.8
1714.355	337.8
1718.788	332.8
1723.218	330.8
1727.643	335.8
1732.064	331.8
1736.481	339.8
1740.893	321.8
1745.301	319.8
1749.705	309.8
1754.105	300.8
1758.501	299.8
1762.893	296.8
1767.28	289.8
1771.663	281.8
1776.042	267.8
1780.417	270.8
1784.787	261.8
1789.154	259.8
1793.516	257.8
1797.874	256.8
1802.228	253.8
1806.578	252.8
1810.924	247.8
1815.266	247.8
1819.603	250.8
1823.937	251.8
1828.266	249.8
1832.591	240.8
1836.913	243.8
1841.23	248.8
1845.543	246.8
1849.852	264.8
1854.156	254.8
1858.457	258.8
1862.754	259.8
1867.047	254.8
1871.335	251.8
1875.62	244.8
1879.9	239.8
1884.177	234.8
1888.449	241.8
1892.718	238.8
1896.982	236.8
1901.243	224.8
1905.499	224.8
1909.752	216.8
1914	212.8
1918.245	215.8
1922.485	212.8
1926.722	210.8
1930.954	204.8
1935.183	203.8
1939.408	200.8
1943.628	195.8
1947.845	201.8
1952.058	194.8
1956.267	197.8
1960.472	198.8
1964.673	186.8
1968.87	190.8
1973.063	193.8
1977.252	192.8
1981.438	196.8
1985.619	186.8
1989.797	188.8
1993.971	193.8
1998.14	187.8
2002.306	190.8
2006.469	206.8
2010.627	187.8
2014.781	197.8
2018.932	194.8
2023.078	190.8
2027.221	189.8
2031.36	195.8
2035.495	189.8
2039.627	175.8
2043.754	176.8
2047.878	178.8
2051.998	182.8
2056.114	168.8
2060.226	169.8
2064.334	166.8
2068.439	165.8
2072.54	166.8
2076.637	165.8
2080.73	168.8
2084.82	169.8
2088.906	169.8
2092.988	163.8
2097.066	160.8
2101.14	167.8
2105.211	152.8
2109.278	153.8
2113.342	152.8
2117.401	145.8
2121.457	148.8
2125.509	144.8
2129.558	148.8
2133.602	146.8
2137.643	148.8
2141.681	144.8
2145.714	148.8
2149.744	148.8
2153.77	151.8
2157.793	152.8
2161.812	164.8
2165.827	150.8
2169.838	136.8
2173.846	142.8
2177.851	132.8
2181.851	138.8
2185.848	144.8
2189.841	139.8
2193.831	139.8
2197.817	139.8
2201.799	136.8
2205.778	136.8
2209.753	135.8
2213.725	131.8
2217.693	130.8
2221.657	136.8
2225.618	129.8
2229.575	116.8
2233.529	126.8
2237.479	128.8
2241.425	123.8
2245.368	121.8
2249.307	128.8
2253.243	124.8
2257.175	119.8
2261.104	115.8
2265.029	112.8
2268.95	116.8
2272.868	112.8
2276.783	114.8
2280.694	100.8
2284.601	108.8
2288.505	107.8
2292.405	100.8
2296.302	106.8
2300.195	107.8
2304.085	101.8
2307.971	97.8
2311.854	98.8
2315.734	92.8
2319.609	106.8
2323.482	102.8
2327.351	106.8
2331.216	114.8
2335.078	116.8
2338.937	112.8
2342.792	99.8
2346.643	101.8
2350.492	100.8
2354.336	104.8
2358.178	95.8
2362.015	99.8
2365.85	94.8
2369.681	99.8
2373.508	105.8
2377.333	104.8
2381.153	97.8
2384.971	87.8
2388.785	92.8
2392.595	98.8
2396.402	94.8
2400.206	96.8
2404.007	91.8
2407.804	94.8
2411.597	91.8
2415.388	95.8
2419.174	97.8
2422.958	87.8
2426.738	92.8
2430.515	86.8
2434.289	91.8
2438.059	83.8
2441.825	84.8
2445.589	82.8
2449.349	89.8
2453.106	85.8
2456.859	80.8
2460.61	80.8
2464.356	80.8
2468.1	83.8
2471.84	76.8
2475.577	74.8
2479.311	75.8
2483.041	73.8
2486.768	71.8
2490.492	76.8
2494.213	71.8
2497.93	75.8
2501.644	77.8
2505.355	68.8
2509.062	68.8
2512.766	70.8
2516.467	68.8
2520.165	64.8
2523.859	69.8
2527.551	67.8
2531.239	62.8
2534.923	61.8
2538.605	63.8
2542.283	56.8
2545.958	56.8
2549.63	55.8
2553.299	57.8
2556.964	49.8
2560.626	53.8
2564.285	57.8
2567.941	53.8
2571.594	52.8
2575.243	55.8
2578.89	49.8
2582.533	50.8
2586.173	45.8
2589.809	54.8
2593.443	49.8
2597.073	44.8
2600.701	52.8
2604.325	41.8
2607.946	34.8
2611.564	48.8
2615.178	48.8
2618.79	48.8
2622.398	48.8
2626.004	43.8
2629.606	39.8
2633.205	40.8
2636.801	41.8
2640.394	47.8
2643.983	38.8
2647.57	43.8
2651.153	33.8
2654.734	37.8
2658.311	39.8
2661.885	41.8
2665.456	43.8
2669.025	43.8
2672.589	39.8
2676.151	40.8
2679.71	30.8
2683.266	30.8
2686.819	35.8
2690.368	32.8
2693.915	33.8
2697.458	19.8
2700.999	31.8
2704.536	38.8
2708.071	31.8
2711.602	29.8
2715.13	24.8
2718.656	27.8
2722.178	28.8
2725.697	23.8
2729.214	23.8
2732.727	29.8
2736.237	27.8
2739.744	22.8
2743.249	19.8
2746.75	21.8
2750.248	15.8
2753.743	17.8
2757.236	13.8
2760.725	18.8
2764.211	13.8
2767.695	16.8
2771.175	15.8
2774.652	18.8
2778.127	22.8
2781.598	8.8
2785.067	14.8
2788.532	13.8
2791.995	15.8
2795.455	11.8
2798.911	14.8
2802.365	18.8
2805.816	16.8
2809.264	15.8
2812.709	14.8
2816.151	20.8
2819.59	25.8
2823.026	18.8
2826.46	16.8
2829.89	16.8
2833.318	13.8
2836.742	22.8
2840.164	13.8
2843.583	15.8
2846.999	20.8
2850.412	15.8
2853.822	21.8
2857.229	26.8
2860.634	15.8
2864.035	21.8
2867.434	21.8
2870.83	25.8
2874.223	27.8
2877.613	26.8
2881	27.8
2884.385	28.8
2887.766	28.8
2891.145	27.8
2894.521	24.8
2897.894	26.8
2901.264	36.8
2904.631	28.8
2907.996	24.8
2911.358	43.8
2914.717	32.8
2918.073	34.8
2921.426	32.8
2924.777	39.8
2928.124	33.8
2931.469	37.8
2934.811	40.8
2938.15	41.8
2941.487	47.8
2944.821	41.8
2948.152	46.8
2951.48	42.8
2954.805	46.8
2958.128	47.8
2961.447	40.8
2964.765	36.8
2968.079	38.8
2971.39	38.8
2974.699	29.8
2978.005	36.8
2981.308	33.8
2984.609	34.8
2987.907	37.8
2991.202	39.8
2994.494	32.8
2997.784	30.8
3001.07	41.8
3004.355	40.8
3007.636	41.8
3010.915	43.8
3014.191	37.8
3017.464	35.8
3020.734	43.8
3024.002	48.8
3027.267	49.8
3030.53	48.8
3033.789	49.8
3037.046	43.8
3040.301	45.8
3043.552	51.8
3046.801	56.8
3050.048	53.8
3053.291	55.8
3056.532	52.8
3059.771	60.8
3063.006	63.8
3066.239	71.8
3069.469	76.8
3072.697	74.8
3075.922	80.8
3079.144	80.8
3082.364	78.8
3085.581	78.8
3088.795	87.8
3092.007	87.8
3095.216	90.8
3098.423	91.8
3101.627	87.8
3104.828	93.8
3108.026	89.8
3111.222	97.8
3114.416	98.8
3117.607	103.8
3120.795	106.8
3123.98	115.8
3127.163	124.8
3130.344	123.8
3133.521	126.8
3136.696	115.8
3139.869	120.8
3143.039	118.8
3146.206	131.8
3149.371	124.8
3152.533	136.8
3155.693	143.8
3158.85	138.8
3162.005	132.8
3165.157	129.8
3168.306	138.8
3171.453	132.8
3174.597	130.8
3177.739	135.8
3180.878	141.8
3184.014	137.8
3187.149	136.8
3190.28	137.8
3193.409	148.8
3196.536	139.8
3199.659	136.8
3202.781	143.8
3205.9	129.8
3209.016	134.8
3212.13	134.8
3215.241	133.8
3218.35	127.8
3221.456	127.8
3224.56	129.8
3227.661	122.8
3230.76	117.8
3233.856	119.8
3236.95	125.8
3240.041	116.8
3243.13	128.8
3246.216	107.8
3249.3	117.8
3252.382	115.8
3255.46	114.8
3258.537	109.8
3261.611	101.8
3264.682	101.8
3267.751	107.8
3270.818	93.8
3273.882	104.8
3276.943	100.8
3280.002	104.8
3283.059	99.8
3286.113	96.8
3289.165	99.8
3292.214	101.8
3295.261	99.8
3298.306	97.8
3301.348	98.8
3304.387	96.8
3307.425	91.8
3310.459	88.8
3313.492	87.8
3316.521	90.8
3319.549	101.8
3322.574	95.8
3325.597	91.8
3328.617	90.8
3331.635	95.8
3334.65	94.8
3337.663	83.8
3340.674	88.8
3343.682	88.8
3346.688	84.8
3349.691	91.8
3352.692	85.8
3355.691	92.8
3358.687	86.8
3361.681	87.8
3364.673	86.8
3367.662	85.8
3370.649	85.8
3373.633	81.8
3376.615	75.8
3379.595	81.8
3382.572	71.8
3385.547	65.8
3388.52	69.8
3391.49	71.8
3394.458	64.8
3397.424	67.8
3400.387	68.8
3403.348	59.8
3406.307	62.8
3409.263	60.8
3412.217	68.8
3415.168	63.8
3418.118	57.8
3421.065	55.8
3424.009	54.8
3426.951	51.8
3429.891	55.8
3432.829	57.8
3435.764	60.8
3438.697	52.8
3441.628	39.8
3444.557	49.8
3447.483	41.8
3450.407	36.8
3453.328	46.8
3456.247	35.8
3459.164	34.8
3462.079	22.8
3464.991	30.8
3467.902	24.8
3470.809	26.8
3473.715	19.8
3476.618	17.8
3479.519	16.8
3482.418	16.8
3485.315	15.8
3488.209	7.8
3491.101	10.8
3493.99	12.8
3496.878	2.8
3499.763	4.8
3502.646	-1.2
3505.527	-1.2
3508.405	1.8
3511.281	2.8
3514.155	-0.2
3517.027	-8.2
3519.897	0.8
3522.764	-2.2
3525.629	-4.2
3528.492	-5.2
3531.352	-14.2
3534.211	-14.2
3537.067	-21.2
3539.921	-13.2
3542.773	-19.2
3545.622	-21.2
3548.469	-17.2
3551.315	-15.2
3554.157	-20.2
3556.998	-23.2
3559.837	-16.2
3562.673	-24.2
3565.507	-17.2
3568.339	-19.2
3571.169	-19.2
3573.996	-20.2
3576.822	-29.2
3579.645	-27.2
3582.466	-26.2
3585.285	-31.2
3588.101	-37.2
3590.916	-28.2
3593.728	-32.2
3596.538	-31.2
3599.346	-34.2
3602.152	-31.2
3604.956	-31.2
3607.757	-25.2
3610.556	-34.2
3613.354	-42.2
3616.149	-40.2
3618.942	-37.2
3621.732	-41.2
3624.521	-33.2
3627.307	-37.2
3630.092	-38.2
3632.874	-41.2
3635.654	-40.2
3638.432	-34.2
3641.208	-37.2
3643.982	-39.2
3646.753	-39.2
3649.523	-41.2
3652.29	-42.2
3655.055	-45.2
3657.818	-43.2
3660.579	-46.2
3663.338	-39.2
3666.095	-41.2
3668.849	-43.2
3671.602	-43.2
3674.352	-39.2
3677.101	-42.2
3679.847	-37.2
3682.591	-46.2
3685.333	-41.2
3688.073	-49.2
3690.811	-42.2
3693.547	-51.2
3696.281	-43.2
3699.013	-46.2
3701.742	-48.2
3704.47	-40.2
3707.195	-48.2
3709.919	-48.2
3712.64	-43.2
3715.359	-44.2
3718.076	-46.2
3720.792	-47.2
3723.505	-50.2
3726.216	-46.2
3728.925	-54.2
3731.632	-50.2
3734.336	-52.2
3737.039	-47.2
3739.74	-52.2
3742.439	-52.2
3745.136	-57.2
3747.83	-42.2
3750.523	-47.2
3753.213	-53.2
3755.902	-49.2
3758.589	-46.2
3761.273	-50.2
3763.956	-51.2
3766.636	-43.2
3769.315	-45.2
3771.991	-52.2
3774.665	-50.2
3777.338	-51.2
3780.008	-49.2
3782.677	-59.2
3785.343	-51.2
3788.007	-50.2
3790.67	-48.2
3793.33	-48.2
3795.989	-50.2
3798.645	-53.2
3801.299	-48.2
3803.952	-47.2
3806.602	-47.2
3809.251	-52.2
3811.897	-53.2
3814.542	-59.2
3817.184	-55.2
3819.825	-49.2
3822.463	-49.2
3825.1	-47.2
3827.735	-53.2
3830.367	-47.2
3832.998	-53.2
3835.627	-52.2
3838.253	-44.2
3840.878	-46.2
3843.501	-47.2
3846.122	-52.2
3848.741	-54.2
3851.358	-54.2
3853.973	-43.2
3856.586	-51.2
3859.197	-51.2
3861.806	-48.2
3864.414	-54.2
3867.019	-56.2
3869.622	-42.2
3872.224	-39.2
3874.823	-29.2
3877.421	-22.2
3880.016	-13.2
3882.61	7.8
3885.202	3.8
3887.792	3.8
3890.38	-20.2
3892.966	-36.2
3895.55	-43.2
3898.132	-48.2
3900.713	-50.2
3903.291	-47.2
3905.868	-51.2
3908.442	-51.2
3911.015	-51.2
3913.586	-57.2
3916.155	-53.2
3918.722	-54.2
3921.287	-55.2
3923.85	-45.2
3926.411	-54.2
3928.971	-60.2
3931.528	-54.2
3934.084	-47.2
3936.638	-48.2
3939.19	-57.2
3941.74	-51.2
3944.288	-52.2
3946.834	-53.2
3949.378	-58.2
3951.921	-59.2
3954.462	-53.2
3957	-48.2
3959.537	-42.2
3962.072	-46.2
3964.606	-49.2
3967.137	-48.2
3969.667	-55.2
3972.194	-47.2
3974.72	-47.2
3977.244	-43.2
3979.766	-54.2
3982.286	-52.2
3984.805	-62.2
3987.321	-54.2
3989.836	-52.2
3992.349	-56.2
3994.86	-53.2
3997.369	-56.2
3999.877	-48.2
4002.382	-48.2
4004.886	-48.2
4007.388	-55.2
4009.888	-49.2
4012.386	-50.2
4014.883	-49.2
4017.377	-53.2
4019.87	-51.2
4022.361	-54.2
4024.85	-51.2
4027.338	-54.2
4029.823	-52.2
4032.307	-52.2
4034.789	-46.2
4037.269	-52.2
4039.747	-48.2
4042.224	-52.2
4044.699	-53.2
4047.172	-59.2
4049.643	-57.2
4052.112	-50.2
4054.58	-56.2
4057.046	-49.2
4059.51	-53.2
4061.972	-53.2
4064.432	-50.2
4066.891	-48.2
4069.348	-44.2
4071.803	-45.2
4074.256	-47.2
4076.708	-51.2
4079.158	-57.2
4081.606	-47.2
4084.052	-53.2
4086.497	-50.2
4088.939	-50.2
4091.38	-56.2
4093.819	-55.2
4096.257	-53.2
4098.693	-51.2
4101.127	-47.2
4103.559	-57.2
4105.989	18.8
4108.418	20.8
4110.845	16.8
4113.27	14.8
4115.694	16.8
4118.115	18.8
4120.535	-51.2
4122.954	-51.2
4125.37	-53.2
4127.785	-46.2
4130.198	-51.2
4132.609	-54.2
4135.019	-57.2
4137.427	-60.2
4139.833	-56.2
4142.237	-57.2
