Data from 2018-3-7_conc=0_n=9_RamanShift_05.txt Node
Date: Wed Mar 07 10:34:52 IST 2018
User: aro
Spectrometer: QEPB0276
Trigger mode: 0
Integration Time (sec): 3.000000E1
Scans to average: 1
Electric dark correction enabled: true
Nonlinearity correction enabled: false
Boxcar width: 0
XAxis mode: Raman Shifts
Number of Pixels in Spectrum: 1044
>>>>>Begin Spectral Data<<<<<
160.701	5.8
166.742	21.8
172.777	54.8
178.805	149.8
184.826	378.8
190.841	786.8
196.849	1274.8
202.85	1654.8
208.845	1803.8
214.833	1813.8
220.815	1800.8
226.789	1806.8
232.758	1830.8
238.719	1828.8
244.674	1812.8
250.623	1808.8
256.565	1805.8
262.5	1789.8
268.429	1766.8
274.351	1766.8
280.267	1755.8
286.176	1766.8
292.079	1767.8
297.975	1788.8
303.865	1772.8
309.748	1774.8
315.625	1767.8
321.495	1787.8
327.359	1793.8
333.217	1785.8
339.068	1803.8
344.912	1826.8
350.751	1806.8
356.583	1818.8
362.408	1816.8
368.227	1815.8
374.04	1844.8
379.847	1861.8
385.647	1858.8
391.44	1862.8
397.228	1873.8
403.009	1900.8
408.784	1896.8
414.553	1916.8
420.315	1926.8
426.071	1916.8
431.821	1907.8
437.565	1915.8
443.302	1918.8
449.033	1904.8
454.758	1897.8
460.477	1874.8
466.189	1886.8
471.896	1834.8
477.596	1836.8
483.29	1825.8
488.978	1820.8
494.66	1806.8
500.335	1767.8
506.005	1691.8
511.668	1604.8
517.325	1543.8
522.977	1473.8
528.622	1432.8
534.261	1398.8
539.894	1355.8
545.521	1351.8
551.141	1321.8
556.756	1319.8
562.365	1305.8
567.968	1289.8
573.565	1276.8
579.155	1278.8
584.74	1252.8
590.319	1250.8
595.892	1261.8
601.459	1274.8
607.02	1249.8
612.575	1247.8
618.124	1222.8
623.667	1210.8
629.204	1190.8
634.735	1187.8
640.261	1179.8
645.781	1160.8
651.294	1167.8
656.802	1145.8
662.304	1153.8
667.8	1148.8
673.29	1148.8
678.775	1138.8
684.254	1130.8
689.726	1127.8
695.193	1127.8
700.655	1117.8
706.11	1120.8
711.56	1101.8
717.004	1112.8
722.442	1072.8
727.874	1078.8
733.301	1088.8
738.722	1081.8
744.137	1088.8
749.547	1071.8
754.951	1074.8
760.349	1065.8
765.741	1076.8
771.128	1079.8
776.509	1094.8
781.885	1109.8
787.254	1124.8
792.618	1129.8
797.977	1125.8
803.33	1110.8
808.677	1111.8
814.019	1100.8
819.355	1093.8
824.686	1073.8
830.011	1072.8
835.33	1065.8
840.644	1059.8
845.952	1062.8
851.255	1055.8
856.552	1051.8
861.844	1035.8
867.13	1029.8
872.41	1041.8
877.686	1064.8
882.955	1078.8
888.219	1056.8
893.478	1016.8
898.731	974.8
903.979	959.8
909.221	950.8
914.458	929.8
919.69	943.8
924.916	938.8
930.136	940.8
935.351	943.8
940.561	927.8
945.766	918.8
950.965	927.8
956.158	931.8
961.347	921.8
966.529	900.8
971.707	880.8
976.879	879.8
982.046	868.8
987.208	860.8
992.364	851.8
997.515	870.8
1002.66	867.8
1007.801	873.8
1012.936	890.8
1018.066	906.8
1023.19	901.8
1028.309	904.8
1033.423	905.8
1038.532	899.8
1043.636	896.8
1048.734	899.8
1053.827	886.8
1058.915	880.8
1063.998	859.8
1069.075	872.8
1074.147	858.8
1079.214	858.8
1084.276	862.8
1089.333	877.8
1094.385	888.8
1099.431	877.8
1104.472	864.8
1109.509	858.8
1114.54	827.8
1119.565	817.8
1124.586	816.8
1129.602	792.8
1134.613	801.8
1139.618	791.8
1144.619	786.8
1149.614	796.8
1154.604	792.8
1159.589	790.8
1164.57	789.8
1169.545	794.8
1174.515	786.8
1179.48	780.8
1184.44	773.8
1189.395	777.8
1194.345	769.8
1199.29	762.8
1204.23	765.8
1209.165	769.8
1214.095	777.8
1219.021	766.8
1223.941	780.8
1228.856	780.8
1233.766	782.8
1238.672	781.8
1243.572	793.8
1248.467	769.8
1253.358	752.8
1258.244	754.8
1263.124	736.8
1268	731.8
1272.871	717.8
1277.737	729.8
1282.599	719.8
1287.455	702.8
1292.306	730.8
1297.153	715.8
1301.995	715.8
1306.832	717.8
1311.664	725.8
1316.491	720.8
1321.314	710.8
1326.132	708.8
1330.945	698.8
1335.753	682.8
1340.556	670.8
1345.354	663.8
1350.148	647.8
1354.937	635.8
1359.722	626.8
1364.501	609.8
1369.276	583.8
1374.046	602.8
1378.811	574.8
1383.572	592.8
1388.327	590.8
1393.079	584.8
1397.825	595.8
1402.567	594.8
1407.304	606.8
1412.036	598.8
1416.764	598.8
1421.487	594.8
1426.205	599.8
1430.919	595.8
1435.628	617.8
1440.333	617.8
1445.032	619.8
1449.727	640.8
1454.418	641.8
1459.104	643.8
1463.785	620.8
1468.462	606.8
1473.134	589.8
1477.802	569.8
1482.465	551.8
1487.123	535.8
1491.777	525.8
1496.426	515.8
1501.071	515.8
1505.711	506.8
1510.347	504.8
1514.978	495.8
1519.604	493.8
1524.226	498.8
1528.844	500.8
1533.457	498.8
1538.065	501.8
1542.669	491.8
1547.269	489.8
1551.864	503.8
1556.454	511.8
1561.041	517.8
1565.622	514.8
1570.199	511.8
1574.772	515.8
1579.34	530.8
1583.904	520.8
1588.464	540.8
1593.019	535.8
1597.569	524.8
1602.115	523.8
1606.657	536.8
1611.195	523.8
1615.728	523.8
1620.256	522.8
1624.78	522.8
1629.3	532.8
1633.816	527.8
1638.327	522.8
1642.834	517.8
1647.336	512.8
1651.834	514.8
1656.328	522.8
1660.817	520.8
1665.302	504.8
1669.783	487.8
1674.259	472.8
1678.732	479.8
1683.199	445.8
1687.663	431.8
1692.122	410.8
1696.577	387.8
1701.028	378.8
1705.474	358.8
1709.917	353.8
1714.355	355.8
1718.788	350.8
1723.218	353.8
1727.643	356.8
1732.064	356.8
1736.481	342.8
1740.893	345.8
1745.301	338.8
1749.705	332.8
1754.105	326.8
1758.501	303.8
1762.893	314.8
1767.28	294.8
1771.663	297.8
1776.042	280.8
1780.417	278.8
1784.787	280.8
1789.154	273.8
1793.516	272.8
1797.874	261.8
1802.228	267.8
1806.578	259.8
1810.924	260.8
1815.266	259.8
1819.603	261.8
1823.937	274.8
1828.266	254.8
1832.591	275.8
1836.913	258.8
1841.23	266.8
1845.543	262.8
1849.852	271.8
1854.156	270.8
1858.457	263.8
1862.754	271.8
1867.047	263.8
1871.335	259.8
1875.62	267.8
1879.9	268.8
1884.177	258.8
1888.449	254.8
1892.718	251.8
1896.982	233.8
1901.243	236.8
1905.499	225.8
1909.752	214.8
1914	222.8
1918.245	220.8
1922.485	222.8
1926.722	212.8
1930.954	209.8
1935.183	210.8
1939.408	214.8
1943.628	203.8
1947.845	213.8
1952.058	208.8
1956.267	200.8
1960.472	204.8
1964.673	197.8
1968.87	201.8
1973.063	205.8
1977.252	211.8
1981.438	204.8
1985.619	193.8
1989.797	199.8
1993.971	202.8
1998.14	208.8
2002.306	202.8
2006.469	208.8
2010.627	203.8
2014.781	205.8
2018.932	206.8
2023.078	203.8
2027.221	196.8
2031.36	192.8
2035.495	191.8
2039.627	183.8
2043.754	184.8
2047.878	180.8
2051.998	188.8
2056.114	183.8
2060.226	172.8
2064.334	187.8
2068.439	178.8
2072.54	175.8
2076.637	169.8
2080.73	181.8
2084.82	170.8
2088.906	177.8
2092.988	172.8
2097.066	169.8
2101.14	163.8
2105.211	160.8
2109.278	155.8
2113.342	151.8
2117.401	159.8
2121.457	154.8
2125.509	156.8
2129.558	149.8
2133.602	155.8
2137.643	155.8
2141.681	157.8
2145.714	160.8
2149.744	152.8
2153.77	159.8
2157.793	160.8
2161.812	166.8
2165.827	155.8
2169.838	156.8
2173.846	152.8
2177.851	152.8
2181.851	149.8
2185.848	145.8
2189.841	143.8
2193.831	140.8
2197.817	139.8
2201.799	142.8
2205.778	138.8
2209.753	146.8
2213.725	151.8
2217.693	143.8
2221.657	142.8
2225.618	137.8
2229.575	136.8
2233.529	138.8
2237.479	141.8
2241.425	133.8
2245.368	138.8
2249.307	134.8
2253.243	136.8
2257.175	130.8
2261.104	119.8
2265.029	129.8
2268.95	121.8
2272.868	124.8
2276.783	113.8
2280.694	117.8
2284.601	115.8
2288.505	122.8
2292.405	117.8
2296.302	125.8
2300.195	112.8
2304.085	112.8
2307.971	104.8
2311.854	105.8
2315.734	98.8
2319.609	108.8
2323.482	113.8
2327.351	123.8
2331.216	126.8
2335.078	143.8
2338.937	128.8
2342.792	114.8
2346.643	107.8
2350.492	119.8
2354.336	107.8
2358.178	104.8
2362.015	108.8
2365.85	110.8
2369.681	119.8
2373.508	113.8
2377.333	109.8
2381.153	108.8
2384.971	103.8
2388.785	106.8
2392.595	106.8
2396.402	107.8
2400.206	106.8
2404.007	102.8
2407.804	104.8
2411.597	106.8
2415.388	107.8
2419.174	114.8
2422.958	99.8
2426.738	100.8
2430.515	100.8
2434.289	103.8
2438.059	91.8
2441.825	99.8
2445.589	99.8
2449.349	95.8
2453.106	99.8
2456.859	96.8
2460.61	86.8
2464.356	92.8
2468.1	86.8
2471.84	82.8
2475.577	77.8
2479.311	87.8
2483.041	85.8
2486.768	79.8
2490.492	89.8
2494.213	82.8
2497.93	82.8
2501.644	85.8
2505.355	71.8
2509.062	72.8
2512.766	75.8
2516.467	80.8
2520.165	74.8
2523.859	82.8
2527.551	65.8
2531.239	74.8
2534.923	64.8
2538.605	65.8
2542.283	57.8
2545.958	63.8
2549.63	69.8
2553.299	68.8
2556.964	58.8
2560.626	64.8
2564.285	62.8
2567.941	56.8
2571.594	53.8
2575.243	60.8
2578.89	55.8
2582.533	50.8
2586.173	50.8
2589.809	62.8
2593.443	60.8
2597.073	55.8
2600.701	62.8
2604.325	54.8
2607.946	46.8
2611.564	49.8
2615.178	49.8
2618.79	48.8
2622.398	52.8
2626.004	55.8
2629.606	47.8
2633.205	50.8
2636.801	57.8
2640.394	56.8
2643.983	48.8
2647.57	50.8
2651.153	43.8
2654.734	38.8
2658.311	45.8
2661.885	54.8
2665.456	44.8
2669.025	44.8
2672.589	43.8
2676.151	43.8
2679.71	40.8
2683.266	41.8
2686.819	46.8
2690.368	45.8
2693.915	45.8
2697.458	36.8
2700.999	41.8
2704.536	36.8
2708.071	34.8
2711.602	32.8
2715.13	30.8
2718.656	40.8
2722.178	32.8
2725.697	32.8
2729.214	35.8
2732.727	33.8
2736.237	32.8
2739.744	29.8
2743.249	27.8
2746.75	28.8
2750.248	29.8
2753.743	28.8
2757.236	28.8
2760.725	23.8
2764.211	15.8
2767.695	17.8
2771.175	14.8
2774.652	16.8
2778.127	26.8
2781.598	17.8
2785.067	16.8
2788.532	14.8
2791.995	24.8
2795.455	19.8
2798.911	20.8
2802.365	21.8
2805.816	15.8
2809.264	21.8
2812.709	25.8
2816.151	24.8
2819.59	36.8
2823.026	28.8
2826.46	29.8
2829.89	25.8
2833.318	26.8
2836.742	25.8
2840.164	17.8
2843.583	18.8
2846.999	30.8
2850.412	20.8
2853.822	32.8
2857.229	32.8
2860.634	27.8
2864.035	33.8
2867.434	31.8
2870.83	41.8
2874.223	29.8
2877.613	37.8
2881	39.8
2884.385	44.8
2887.766	41.8
2891.145	50.8
2894.521	55.8
2897.894	47.8
2901.264	50.8
2904.631	46.8
2907.996	46.8
2911.358	50.8
2914.717	44.8
2918.073	44.8
2921.426	50.8
2924.777	56.8
2928.124	57.8
2931.469	64.8
2934.811	70.8
2938.15	70.8
2941.487	75.8
2944.821	65.8
2948.152	68.8
2951.48	64.8
2954.805	58.8
2958.128	46.8
2961.447	61.8
2964.765	50.8
2968.079	43.8
2971.39	49.8
2974.699	43.8
2978.005	56.8
2981.308	41.8
2984.609	47.8
2987.907	47.8
2991.202	48.8
2994.494	48.8
2997.784	42.8
3001.07	47.8
3004.355	42.8
3007.636	45.8
3010.915	40.8
3014.191	44.8
3017.464	36.8
3020.734	41.8
3024.002	49.8
3027.267	50.8
3030.53	53.8
3033.789	49.8
3037.046	51.8
3040.301	51.8
3043.552	48.8
3046.801	54.8
3050.048	53.8
3053.291	63.8
3056.532	58.8
3059.771	63.8
3063.006	65.8
3066.239	68.8
3069.469	76.8
3072.697	76.8
3075.922	74.8
3079.144	69.8
3082.364	77.8
3085.581	82.8
3088.795	84.8
3092.007	87.8
3095.216	93.8
3098.423	90.8
3101.627	87.8
3104.828	98.8
3108.026	95.8
3111.222	97.8
3114.416	101.8
3117.607	104.8
3120.795	103.8
3123.98	107.8
3127.163	124.8
3130.344	112.8
3133.521	119.8
3136.696	115.8
3139.869	117.8
3143.039	126.8
3146.206	124.8
3149.371	124.8
3152.533	131.8
3155.693	138.8
3158.85	137.8
3162.005	140.8
3165.157	129.8
3168.306	142.8
3171.453	131.8
3174.597	131.8
3177.739	136.8
3180.878	135.8
3184.014	137.8
3187.149	131.8
3190.28	139.8
3193.409	135.8
3196.536	126.8
3199.659	136.8
3202.781	129.8
3205.9	126.8
3209.016	127.8
3212.13	138.8
3215.241	130.8
3218.35	127.8
3221.456	134.8
3224.56	115.8
3227.661	123.8
3230.76	123.8
3233.856	117.8
3236.95	111.8
3240.041	109.8
3243.13	114.8
3246.216	105.8
3249.3	99.8
3252.382	112.8
3255.46	108.8
3258.537	94.8
3261.611	99.8
3264.682	97.8
3267.751	107.8
3270.818	85.8
3273.882	103.8
3276.943	91.8
3280.002	98.8
3283.059	94.8
3286.113	86.8
3289.165	91.8
3292.214	89.8
3295.261	89.8
3298.306	87.8
3301.348	90.8
3304.387	87.8
3307.425	89.8
3310.459	86.8
3313.492	81.8
3316.521	87.8
3319.549	90.8
3322.574	82.8
3325.597	81.8
3328.617	79.8
3331.635	86.8
3334.65	89.8
3337.663	77.8
3340.674	84.8
3343.682	86.8
3346.688	82.8
3349.691	85.8
3352.692	85.8
3355.691	89.8
3358.687	83.8
3361.681	88.8
3364.673	77.8
3367.662	80.8
3370.649	83.8
3373.633	79.8
3376.615	78.8
3379.595	66.8
3382.572	68.8
3385.547	73.8
3388.52	71.8
3391.49	65.8
3394.458	64.8
3397.424	65.8
3400.387	65.8
3403.348	59.8
3406.307	63.8
3409.263	61.8
3412.217	54.8
3415.168	63.8
3418.118	56.8
3421.065	56.8
3424.009	47.8
3426.951	48.8
3429.891	48.8
3432.829	47.8
3435.764	51.8
3438.697	52.8
3441.628	38.8
3444.557	38.8
3447.483	41.8
3450.407	37.8
3453.328	34.8
3456.247	29.8
3459.164	26.8
3462.079	23.8
3464.991	20.8
3467.902	19.8
3470.809	20.8
3473.715	17.8
3476.618	11.8
3479.519	11.8
3482.418	19.8
3485.315	8.8
3488.209	4.8
3491.101	4.8
3493.99	3.8
3496.878	1.8
3499.763	-6.2
3502.646	-0.2
3505.527	7.8
3508.405	-1.2
3511.281	-2.2
3514.155	-0.2
3517.027	-16.2
3519.897	-4.2
3522.764	-16.2
3525.629	-13.2
3528.492	-18.2
3531.352	-19.2
3534.211	-18.2
3537.067	-18.2
3539.921	-15.2
3542.773	-25.2
3545.622	-26.2
3548.469	-21.2
3551.315	-23.2
3554.157	-27.2
3556.998	-29.2
3559.837	-26.2
3562.673	-24.2
3565.507	-27.2
3568.339	-24.2
3571.169	-28.2
3573.996	-26.2
3576.822	-33.2
3579.645	-37.2
3582.466	-30.2
3585.285	-33.2
3588.101	-33.2
3590.916	-28.2
3593.728	-33.2
3596.538	-34.2
3599.346	-34.2
3602.152	-32.2
3604.956	-33.2
3607.757	-36.2
3610.556	-34.2
3613.354	-44.2
3616.149	-43.2
3618.942	-36.2
3621.732	-38.2
3624.521	-37.2
3627.307	-39.2
3630.092	-38.2
3632.874	-41.2
3635.654	-46.2
3638.432	-38.2
3641.208	-36.2
3643.982	-37.2
3646.753	-42.2
3649.523	-40.2
3652.29	-40.2
3655.055	-37.2
3657.818	-44.2
3660.579	-43.2
3663.338	-42.2
3666.095	-45.2
3668.849	-50.2
3671.602	-39.2
3674.352	-40.2
3677.101	-43.2
3679.847	-41.2
3682.591	-48.2
3685.333	-43.2
3688.073	-49.2
3690.811	-43.2
3693.547	-51.2
3696.281	-47.2
3699.013	-45.2
3701.742	-51.2
3704.47	-41.2
3707.195	-46.2
3709.919	-44.2
3712.64	-44.2
3715.359	-47.2
3718.076	-49.2
3720.792	-50.2
3723.505	-55.2
3726.216	-50.2
3728.925	-51.2
3731.632	-49.2
3734.336	-49.2
3737.039	-47.2
3739.74	-52.2
3742.439	-56.2
3745.136	-50.2
3747.83	-47.2
3750.523	-57.2
3753.213	-49.2
3755.902	-48.2
3758.589	-51.2
3761.273	-48.2
3763.956	-52.2
3766.636	-49.2
3769.315	-42.2
3771.991	-51.2
3774.665	-55.2
3777.338	-50.2
3780.008	-51.2
3782.677	-55.2
3785.343	-55.2
3788.007	-52.2
3790.67	-57.2
3793.33	-48.2
3795.989	-53.2
3798.645	-49.2
3801.299	-50.2
3803.952	-52.2
3806.602	-51.2
3809.251	-55.2
3811.897	-58.2
3814.542	-57.2
3817.184	-55.2
3819.825	-48.2
3822.463	-46.2
3825.1	-45.2
3827.735	-58.2
3830.367	-53.2
3832.998	-55.2
3835.627	-53.2
3838.253	-45.2
3840.878	-50.2
3843.501	-46.2
3846.122	-53.2
3848.741	-50.2
3851.358	-49.2
3853.973	-46.2
3856.586	-50.2
3859.197	-50.2
3861.806	-52.2
3864.414	-54.2
3867.019	-55.2
3869.622	-49.2
3872.224	-37.2
3874.823	-34.2
3877.421	-34.2
3880.016	-17.2
3882.61	-5.2
3885.202	0.8
3887.792	-7.2
3890.38	-23.2
3892.966	-44.2
3895.55	-46.2
3898.132	-50.2
3900.713	-52.2
3903.291	-54.2
3905.868	-50.2
3908.442	-53.2
3911.015	-51.2
3913.586	-60.2
3916.155	-54.2
3918.722	-53.2
3921.287	-55.2
3923.85	-48.2
3926.411	-54.2
3928.971	-57.2
3931.528	-54.2
3934.084	-50.2
3936.638	-52.2
3939.19	-58.2
3941.74	-50.2
3944.288	-57.2
3946.834	-52.2
3949.378	-55.2
3951.921	-48.2
3954.462	-49.2
3957	-48.2
3959.537	-44.2
3962.072	-45.2
3964.606	-52.2
3967.137	-53.2
3969.667	-55.2
3972.194	-51.2
3974.72	-48.2
3977.244	-46.2
3979.766	-51.2
3982.286	-51.2
3984.805	-55.2
3987.321	-56.2
3989.836	-48.2
3992.349	-52.2
3994.86	-57.2
3997.369	-57.2
3999.877	-57.2
4002.382	-49.2
4004.886	-45.2
4007.388	-52.2
4009.888	-52.2
4012.386	-54.2
4014.883	-54.2
4017.377	-47.2
4019.87	-50.2
4022.361	-57.2
4024.85	-48.2
4027.338	-53.2
4029.823	-53.2
4032.307	-53.2
4034.789	-45.2
4037.269	-52.2
4039.747	-50.2
4042.224	-51.2
4044.699	-53.2
4047.172	-57.2
4049.643	-58.2
4052.112	-51.2
4054.58	-50.2
4057.046	-50.2
4059.51	-51.2
4061.972	-55.2
4064.432	-51.2
4066.891	-47.2
4069.348	-54.2
4071.803	-44.2
4074.256	-53.2
4076.708	-55.2
4079.158	-51.2
4081.606	-52.2
4084.052	-53.2
4086.497	-49.2
4088.939	-48.2
4091.38	-59.2
4093.819	-61.2
4096.257	-51.2
4098.693	-54.2
4101.127	-48.2
4103.559	-58.2
4105.989	16.8
4108.418	7.8
4110.845	4.8
4113.27	5.8
4115.694	6.8
4118.115	6.8
4120.535	-57.2
4122.954	-52.2
4125.37	-50.2
4127.785	-46.2
4130.198	-45.2
4132.609	-56.2
4135.019	-57.2
4137.427	-57.2
4139.833	-58.2
4142.237	-59.2
