Data from 2018-3-7_conc=6_n=2_RamanShift_01.txt Node
Date: Wed Mar 07 12:59:52 IST 2018
User: aro
Spectrometer: QEPB0276
Trigger mode: 0
Integration Time (sec): 3.000000E1
Scans to average: 1
Electric dark correction enabled: true
Nonlinearity correction enabled: false
Boxcar width: 0
XAxis mode: Raman Shifts
Number of Pixels in Spectrum: 1044
>>>>>Begin Spectral Data<<<<<
160.701	8.8
166.742	22.8
172.777	54.8
178.805	171.8
184.826	471.8
190.841	1008.8
196.849	1693.8
202.85	2196.8
208.845	2422.8
214.833	2414.8
220.815	2379.8
226.789	2378.8
232.758	2368.8
238.719	2377.8
244.674	2343.8
250.623	2328.8
256.565	2288.8
262.5	2244.8
268.429	2255.8
274.351	2211.8
280.267	2200.8
286.176	2183.8
292.079	2167.8
297.975	2163.8
303.865	2158.8
309.748	2146.8
315.625	2152.8
321.495	2148.8
327.359	2156.8
333.217	2129.8
339.068	2144.8
344.912	2150.8
350.751	2161.8
356.583	2148.8
362.408	2154.8
368.227	2162.8
374.04	2165.8
379.847	2179.8
385.647	2150.8
391.44	2192.8
397.228	2188.8
403.009	2212.8
408.784	2201.8
414.553	2234.8
420.315	2223.8
426.071	2227.8
431.821	2219.8
437.565	2221.8
443.302	2208.8
449.033	2208.8
454.758	2205.8
460.477	2183.8
466.189	2172.8
471.896	2154.8
477.596	2153.8
483.29	2158.8
488.978	2152.8
494.66	2126.8
500.335	2092.8
506.005	2051.8
511.668	1993.8
517.325	1947.8
522.977	1883.8
528.622	1864.8
534.261	1823.8
539.894	1800.8
545.521	1803.8
551.141	1783.8
556.756	1772.8
562.365	1760.8
567.968	1741.8
573.565	1753.8
579.155	1729.8
584.74	1738.8
590.319	1720.8
595.892	1715.8
601.459	1704.8
607.02	1699.8
612.575	1684.8
618.124	1674.8
623.667	1653.8
629.204	1642.8
634.735	1642.8
640.261	1619.8
645.781	1622.8
651.294	1608.8
656.802	1591.8
662.304	1612.8
667.8	1601.8
673.29	1590.8
678.775	1611.8
684.254	1600.8
689.726	1580.8
695.193	1583.8
700.655	1555.8
706.11	1566.8
711.56	1550.8
717.004	1522.8
722.442	1513.8
727.874	1509.8
733.301	1534.8
738.722	1515.8
744.137	1511.8
749.547	1507.8
754.951	1492.8
760.349	1507.8
765.741	1512.8
771.128	1496.8
776.509	1524.8
781.885	1532.8
787.254	1546.8
792.618	1549.8
797.977	1527.8
803.33	1503.8
808.677	1495.8
814.019	1498.8
819.355	1479.8
824.686	1468.8
830.011	1456.8
835.33	1467.8
840.644	1455.8
845.952	1448.8
851.255	1465.8
856.552	1446.8
861.844	1441.8
867.13	1416.8
872.41	1420.8
877.686	1428.8
882.955	1418.8
888.219	1386.8
893.478	1396.8
898.731	1351.8
903.979	1335.8
909.221	1352.8
914.458	1331.8
919.69	1331.8
924.916	1337.8
930.136	1349.8
935.351	1358.8
940.561	1325.8
945.766	1339.8
950.965	1319.8
956.158	1322.8
961.347	1301.8
966.529	1288.8
971.707	1252.8
976.879	1245.8
982.046	1235.8
987.208	1236.8
992.364	1234.8
997.515	1227.8
1002.66	1247.8
1007.801	1241.8
1012.936	1268.8
1018.066	1269.8
1023.19	1282.8
1028.309	1268.8
1033.423	1279.8
1038.532	1267.8
1043.636	1261.8
1048.734	1249.8
1053.827	1224.8
1058.915	1226.8
1063.998	1199.8
1069.075	1200.8
1074.147	1205.8
1079.214	1200.8
1084.276	1208.8
1089.333	1218.8
1094.385	1223.8
1099.431	1213.8
1104.472	1202.8
1109.509	1197.8
1114.54	1177.8
1119.565	1179.8
1124.586	1150.8
1129.602	1155.8
1134.613	1144.8
1139.618	1136.8
1144.619	1128.8
1149.614	1142.8
1154.604	1124.8
1159.589	1135.8
1164.57	1132.8
1169.545	1137.8
1174.515	1141.8
1179.48	1135.8
1184.44	1122.8
1189.395	1116.8
1194.345	1101.8
1199.29	1101.8
1204.23	1108.8
1209.165	1097.8
1214.095	1106.8
1219.021	1133.8
1223.941	1118.8
1228.856	1127.8
1233.766	1139.8
1238.672	1129.8
1243.572	1125.8
1248.467	1123.8
1253.358	1118.8
1258.244	1094.8
1263.124	1065.8
1268	1055.8
1272.871	1037.8
1277.737	1028.8
1282.599	1043.8
1287.455	1033.8
1292.306	1036.8
1297.153	1031.8
1301.995	1042.8
1306.832	1056.8
1311.664	1055.8
1316.491	1040.8
1321.314	1066.8
1326.132	1037.8
1330.945	1028.8
1335.753	1023.8
1340.556	992.8
1345.354	976.8
1350.148	956.8
1354.937	942.8
1359.722	908.8
1364.501	881.8
1369.276	867.8
1374.046	843.8
1378.811	836.8
1383.572	832.8
1388.327	831.8
1393.079	831.8
1397.825	847.8
1402.567	874.8
1407.304	860.8
1412.036	871.8
1416.764	871.8
1421.487	869.8
1426.205	869.8
1430.919	863.8
1435.628	880.8
1440.333	886.8
1445.032	890.8
1449.727	913.8
1454.418	911.8
1459.104	896.8
1463.785	871.8
1468.462	869.8
1473.134	841.8
1477.802	810.8
1482.465	809.8
1487.123	783.8
1491.777	759.8
1496.426	755.8
1501.071	751.8
1505.711	723.8
1510.347	720.8
1514.978	719.8
1519.604	711.8
1524.226	703.8
1528.844	711.8
1533.457	693.8
1538.065	695.8
1542.669	702.8
1547.269	688.8
1551.864	701.8
1556.454	722.8
1561.041	735.8
1565.622	747.8
1570.199	737.8
1574.772	740.8
1579.34	758.8
1583.904	770.8
1588.464	797.8
1593.019	785.8
1597.569	799.8
1602.115	796.8
1606.657	788.8
1611.195	786.8
1615.728	774.8
1620.256	776.8
1624.78	773.8
1629.3	776.8
1633.816	774.8
1638.327	782.8
1642.834	779.8
1647.336	773.8
1651.834	777.8
1656.328	766.8
1660.817	767.8
1665.302	743.8
1669.783	729.8
1674.259	730.8
1678.732	705.8
1683.199	668.8
1687.663	662.8
1692.122	602.8
1696.577	581.8
1701.028	548.8
1705.474	502.8
1709.917	492.8
1714.355	494.8
1718.788	503.8
1723.218	500.8
1727.643	498.8
1732.064	501.8
1736.481	505.8
1740.893	486.8
1745.301	477.8
1749.705	476.8
1754.105	465.8
1758.501	452.8
1762.893	450.8
1767.28	436.8
1771.663	431.8
1776.042	423.8
1780.417	412.8
1784.787	414.8
1789.154	398.8
1793.516	378.8
1797.874	373.8
1802.228	372.8
1806.578	357.8
1810.924	348.8
1815.266	354.8
1819.603	367.8
1823.937	366.8
1828.266	374.8
1832.591	376.8
1836.913	375.8
1841.23	383.8
1845.543	377.8
1849.852	387.8
1854.156	386.8
1858.457	393.8
1862.754	387.8
1867.047	388.8
1871.335	381.8
1875.62	375.8
1879.9	382.8
1884.177	372.8
1888.449	369.8
1892.718	358.8
1896.982	357.8
1901.243	337.8
1905.499	343.8
1909.752	330.8
1914	325.8
1918.245	314.8
1922.485	306.8
1926.722	299.8
1930.954	292.8
1935.183	300.8
1939.408	288.8
1943.628	293.8
1947.845	288.8
1952.058	280.8
1956.267	281.8
1960.472	284.8
1964.673	269.8
1968.87	276.8
1973.063	273.8
1977.252	287.8
1981.438	278.8
1985.619	270.8
1989.797	283.8
1993.971	292.8
1998.14	287.8
2002.306	301.8
2006.469	307.8
2010.627	295.8
2014.781	302.8
2018.932	289.8
2023.078	290.8
2027.221	296.8
2031.36	284.8
2035.495	290.8
2039.627	273.8
2043.754	274.8
2047.878	279.8
2051.998	271.8
2056.114	267.8
2060.226	265.8
2064.334	257.8
2068.439	259.8
2072.54	257.8
2076.637	256.8
2080.73	253.8
2084.82	249.8
2088.906	246.8
2092.988	240.8
2097.066	236.8
2101.14	238.8
2105.211	241.8
2109.278	227.8
2113.342	223.8
2117.401	226.8
2121.457	225.8
2125.509	219.8
2129.558	214.8
2133.602	223.8
2137.643	217.8
2141.681	212.8
2145.714	224.8
2149.744	235.8
2153.77	226.8
2157.793	229.8
2161.812	238.8
2165.827	224.8
2169.838	223.8
2173.846	231.8
2177.851	223.8
2181.851	218.8
2185.848	217.8
2189.841	216.8
2193.831	220.8
2197.817	209.8
2201.799	218.8
2205.778	218.8
2209.753	220.8
2213.725	212.8
2217.693	223.8
2221.657	212.8
2225.618	206.8
2229.575	208.8
2233.529	210.8
2237.479	205.8
2241.425	207.8
2245.368	205.8
2249.307	209.8
2253.243	196.8
2257.175	196.8
2261.104	184.8
2265.029	190.8
2268.95	181.8
2272.868	181.8
2276.783	179.8
2280.694	179.8
2284.601	174.8
2288.505	173.8
2292.405	179.8
2296.302	187.8
2300.195	167.8
2304.085	168.8
2307.971	173.8
2311.854	166.8
2315.734	166.8
2319.609	165.8
2323.482	167.8
2327.351	170.8
2331.216	172.8
2335.078	185.8
2338.937	178.8
2342.792	171.8
2346.643	169.8
2350.492	168.8
2354.336	166.8
2358.178	161.8
2362.015	176.8
2365.85	168.8
2369.681	177.8
2373.508	170.8
2377.333	171.8
2381.153	171.8
2384.971	165.8
2388.785	168.8
2392.595	165.8
2396.402	172.8
2400.206	170.8
2404.007	167.8
2407.804	163.8
2411.597	163.8
2415.388	167.8
2419.174	176.8
2422.958	169.8
2426.738	171.8
2430.515	163.8
2434.289	158.8
2438.059	159.8
2441.825	154.8
2445.589	157.8
2449.349	153.8
2453.106	154.8
2456.859	141.8
2460.61	145.8
2464.356	149.8
2468.1	144.8
2471.84	145.8
2475.577	144.8
2479.311	145.8
2483.041	135.8
2486.768	140.8
2490.492	144.8
2494.213	141.8
2497.93	140.8
2501.644	136.8
2505.355	124.8
2509.062	131.8
2512.766	134.8
2516.467	124.8
2520.165	126.8
2523.859	135.8
2527.551	114.8
2531.239	113.8
2534.923	113.8
2538.605	109.8
2542.283	111.8
2545.958	109.8
2549.63	99.8
2553.299	105.8
2556.964	100.8
2560.626	106.8
2564.285	99.8
2567.941	104.8
2571.594	93.8
2575.243	112.8
2578.89	105.8
2582.533	93.8
2586.173	93.8
2589.809	105.8
2593.443	102.8
2597.073	92.8
2600.701	97.8
2604.325	84.8
2607.946	82.8
2611.564	94.8
2615.178	91.8
2618.79	92.8
2622.398	92.8
2626.004	82.8
2629.606	80.8
2633.205	81.8
2636.801	85.8
2640.394	93.8
2643.983	80.8
2647.57	81.8
2651.153	83.8
2654.734	81.8
2658.311	84.8
2661.885	87.8
2665.456	86.8
2669.025	85.8
2672.589	78.8
2676.151	83.8
2679.71	76.8
2683.266	75.8
2686.819	75.8
2690.368	75.8
2693.915	76.8
2697.458	72.8
2700.999	70.8
2704.536	70.8
2708.071	69.8
2711.602	70.8
2715.13	58.8
2718.656	61.8
2722.178	59.8
2725.697	58.8
2729.214	57.8
2732.727	59.8
2736.237	56.8
2739.744	49.8
2743.249	53.8
2746.75	51.8
2750.248	47.8
2753.743	45.8
2757.236	45.8
2760.725	47.8
2764.211	43.8
2767.695	38.8
2771.175	34.8
2774.652	39.8
2778.127	41.8
2781.598	35.8
2785.067	38.8
2788.532	32.8
2791.995	38.8
2795.455	41.8
2798.911	41.8
2802.365	45.8
2805.816	43.8
2809.264	40.8
2812.709	41.8
2816.151	42.8
2819.59	55.8
2823.026	41.8
2826.46	48.8
2829.89	47.8
2833.318	43.8
2836.742	44.8
2840.164	43.8
2843.583	42.8
2846.999	50.8
2850.412	48.8
2853.822	47.8
2857.229	55.8
2860.634	45.8
2864.035	49.8
2867.434	54.8
2870.83	54.8
2874.223	51.8
2877.613	58.8
2881	56.8
2884.385	68.8
2887.766	61.8
2891.145	63.8
2894.521	58.8
2897.894	57.8
2901.264	59.8
2904.631	51.8
2907.996	66.8
2911.358	72.8
2914.717	68.8
2918.073	71.8
2921.426	67.8
2924.777	73.8
2928.124	71.8
2931.469	73.8
2934.811	88.8
2938.15	82.8
2941.487	85.8
2944.821	84.8
2948.152	78.8
2951.48	76.8
2954.805	80.8
2958.128	82.8
2961.447	76.8
2964.765	70.8
2968.079	73.8
2971.39	78.8
2974.699	69.8
2978.005	78.8
2981.308	71.8
2984.609	79.8
2987.907	73.8
2991.202	71.8
2994.494	73.8
2997.784	66.8
3001.07	70.8
3004.355	86.8
3007.636	80.8
3010.915	76.8
3014.191	75.8
3017.464	88.8
3020.734	86.8
3024.002	91.8
3027.267	91.8
3030.53	88.8
3033.789	87.8
3037.046	84.8
3040.301	95.8
3043.552	91.8
3046.801	103.8
3050.048	111.8
3053.291	109.8
3056.532	109.8
3059.771	113.8
3063.006	132.8
3066.239	122.8
3069.469	131.8
3072.697	138.8
3075.922	139.8
3079.144	141.8
3082.364	153.8
3085.581	146.8
3088.795	149.8
3092.007	156.8
3095.216	156.8
3098.423	155.8
3101.627	155.8
3104.828	164.8
3108.026	169.8
3111.222	172.8
3114.416	173.8
3117.607	178.8
3120.795	189.8
3123.98	188.8
3127.163	197.8
3130.344	197.8
3133.521	200.8
3136.696	213.8
3139.869	218.8
3143.039	213.8
3146.206	224.8
3149.371	213.8
3152.533	224.8
3155.693	230.8
3158.85	222.8
3162.005	225.8
3165.157	230.8
3168.306	224.8
3171.453	227.8
3174.597	228.8
3177.739	231.8
3180.878	238.8
3184.014	229.8
3187.149	228.8
3190.28	238.8
3193.409	237.8
3196.536	237.8
3199.659	243.8
3202.781	236.8
3205.9	237.8
3209.016	231.8
3212.13	241.8
3215.241	232.8
3218.35	225.8
3221.456	235.8
3224.56	223.8
3227.661	221.8
3230.76	215.8
3233.856	217.8
3236.95	207.8
3240.041	193.8
3243.13	203.8
3246.216	201.8
3249.3	195.8
3252.382	188.8
3255.46	199.8
3258.537	189.8
3261.611	180.8
3264.682	193.8
3267.751	188.8
3270.818	172.8
3273.882	176.8
3276.943	183.8
3280.002	176.8
3283.059	173.8
3286.113	168.8
3289.165	167.8
3292.214	169.8
3295.261	168.8
3298.306	172.8
3301.348	165.8
3304.387	169.8
3307.425	168.8
3310.459	163.8
3313.492	168.8
3316.521	161.8
3319.549	169.8
3322.574	161.8
3325.597	160.8
3328.617	160.8
3331.635	166.8
3334.65	165.8
3337.663	160.8
3340.674	163.8
3343.682	161.8
3346.688	162.8
3349.691	165.8
3352.692	167.8
3355.691	169.8
3358.687	160.8
3361.681	158.8
3364.673	161.8
3367.662	157.8
3370.649	152.8
3373.633	151.8
3376.615	150.8
3379.595	141.8
3382.572	134.8
3385.547	144.8
3388.52	141.8
3391.49	129.8
3394.458	127.8
3397.424	137.8
3400.387	129.8
3403.348	126.8
3406.307	116.8
3409.263	120.8
3412.217	122.8
3415.168	128.8
3418.118	119.8
3421.065	109.8
3424.009	105.8
3426.951	107.8
3429.891	104.8
3432.829	107.8
3435.764	102.8
3438.697	97.8
3441.628	96.8
3444.557	84.8
3447.483	95.8
3450.407	84.8
3453.328	80.8
3456.247	75.8
3459.164	73.8
3462.079	62.8
3464.991	67.8
3467.902	61.8
3470.809	61.8
3473.715	53.8
3476.618	56.8
3479.519	38.8
3482.418	39.8
3485.315	37.8
3488.209	33.8
3491.101	27.8
3493.99	38.8
3496.878	29.8
3499.763	24.8
3502.646	25.8
3505.527	22.8
3508.405	24.8
3511.281	19.8
3514.155	16.8
3517.027	14.8
3519.897	14.8
3522.764	7.8
3525.629	8.8
3528.492	2.8
3531.352	-0.2
3534.211	-2.2
3537.067	-9.2
3539.921	-4.2
3542.773	-11.2
3545.622	-15.2
3548.469	-7.2
3551.315	-16.2
3554.157	-16.2
3556.998	-17.2
3559.837	-23.2
3562.673	-18.2
3565.507	-19.2
3568.339	-17.2
3571.169	-17.2
3573.996	-19.2
3576.822	-24.2
3579.645	-25.2
3582.466	-25.2
3585.285	-27.2
3588.101	-24.2
3590.916	-26.2
3593.728	-28.2
3596.538	-32.2
3599.346	-32.2
3602.152	-32.2
3604.956	-30.2
3607.757	-29.2
3610.556	-30.2
3613.354	-40.2
3616.149	-40.2
3618.942	-37.2
3621.732	-42.2
3624.521	-33.2
3627.307	-36.2
3630.092	-38.2
3632.874	-42.2
3635.654	-39.2
3638.432	-43.2
3641.208	-39.2
3643.982	-36.2
3646.753	-47.2
3649.523	-37.2
3652.29	-45.2
3655.055	-37.2
3657.818	-45.2
3660.579	-44.2
3663.338	-35.2
3666.095	-42.2
3668.849	-46.2
3671.602	-47.2
3674.352	-45.2
3677.101	-50.2
3679.847	-45.2
3682.591	-49.2
3685.333	-52.2
3688.073	-53.2
3690.811	-49.2
3693.547	-54.2
3696.281	-49.2
3699.013	-53.2
3701.742	-58.2
3704.47	-54.2
3707.195	-52.2
3709.919	-54.2
3712.64	-55.2
3715.359	-54.2
3718.076	-54.2
3720.792	-56.2
3723.505	-53.2
3726.216	-48.2
3728.925	-56.2
3731.632	-47.2
3734.336	-54.2
3737.039	-59.2
3739.74	-56.2
3742.439	-63.2
3745.136	-61.2
3747.83	-57.2
3750.523	-59.2
3753.213	-69.2
3755.902	-59.2
3758.589	-60.2
3761.273	-56.2
3763.956	-56.2
3766.636	-54.2
3769.315	-46.2
3771.991	-54.2
3774.665	-63.2
3777.338	-61.2
3780.008	-56.2
3782.677	-61.2
3785.343	-54.2
3788.007	-57.2
3790.67	-56.2
3793.33	-52.2
3795.989	-57.2
3798.645	-61.2
3801.299	-55.2
3803.952	-55.2
3806.602	-57.2
3809.251	-61.2
3811.897	-65.2
3814.542	-62.2
3817.184	-65.2
3819.825	-58.2
3822.463	-56.2
3825.1	-54.2
3827.735	-60.2
3830.367	-56.2
3832.998	-58.2
3835.627	-58.2
3838.253	-53.2
3840.878	-50.2
3843.501	-50.2
3846.122	-63.2
3848.741	-57.2
3851.358	-57.2
3853.973	-56.2
3856.586	-52.2
3859.197	-61.2
3861.806	-60.2
3864.414	-68.2
3867.019	-62.2
3869.622	-54.2
3872.224	-51.2
3874.823	-40.2
3877.421	-34.2
3880.016	-23.2
3882.61	-1.2
3885.202	2.8
3887.792	-3.2
3890.38	-29.2
3892.966	-43.2
3895.55	-53.2
3898.132	-56.2
3900.713	-57.2
3903.291	-61.2
3905.868	-60.2
3908.442	-57.2
3911.015	-59.2
3913.586	-62.2
3916.155	-55.2
3918.722	-59.2
3921.287	-61.2
3923.85	-53.2
3926.411	-62.2
3928.971	-68.2
3931.528	-63.2
3934.084	-58.2
3936.638	-53.2
3939.19	-67.2
3941.74	-63.2
3944.288	-67.2
3946.834	-61.2
3949.378	-56.2
3951.921	-66.2
3954.462	-62.2
3957	-58.2
3959.537	-52.2
3962.072	-54.2
3964.606	-53.2
3967.137	-54.2
3969.667	-62.2
3972.194	-53.2
3974.72	-52.2
3977.244	-56.2
3979.766	-62.2
3982.286	-63.2
3984.805	-67.2
3987.321	-57.2
3989.836	-59.2
3992.349	-56.2
3994.86	-64.2
3997.369	-61.2
3999.877	-60.2
4002.382	-59.2
4004.886	-60.2
4007.388	-55.2
4009.888	-61.2
4012.386	-57.2
4014.883	-59.2
4017.377	-56.2
4019.87	-57.2
4022.361	-59.2
4024.85	-56.2
4027.338	-63.2
4029.823	-61.2
4032.307	-61.2
4034.789	-56.2
4037.269	-59.2
4039.747	-64.2
4042.224	-58.2
4044.699	-59.2
4047.172	-64.2
4049.643	-65.2
4052.112	-63.2
4054.58	-58.2
4057.046	-57.2
4059.51	-59.2
4061.972	-66.2
4064.432	-59.2
4066.891	-59.2
4069.348	-55.2
4071.803	-53.2
4074.256	-61.2
4076.708	-55.2
4079.158	-65.2
4081.606	-56.2
4084.052	-60.2
4086.497	-53.2
4088.939	-53.2
4091.38	-61.2
4093.819	-64.2
4096.257	-65.2
4098.693	-65.2
4101.127	-55.2
4103.559	-66.2
4105.989	12.8
4108.418	6.8
4110.845	2.8
4113.27	5.8
4115.694	12.8
4118.115	6.8
4120.535	-63.2
4122.954	-57.2
4125.37	-59.2
4127.785	-59.2
4130.198	-55.2
4132.609	-66.2
4135.019	-65.2
4137.427	-67.2
4139.833	-64.2
4142.237	-61.2
