Data from 2018-3-7_conc=2_n=2_RamanShift_05.txt Node
Date: Wed Mar 07 10:44:22 IST 2018
User: aro
Spectrometer: QEPB0276
Trigger mode: 0
Integration Time (sec): 3.000000E1
Scans to average: 1
Electric dark correction enabled: true
Nonlinearity correction enabled: false
Boxcar width: 0
XAxis mode: Raman Shifts
Number of Pixels in Spectrum: 1044
>>>>>Begin Spectral Data<<<<<
160.701	13.5
166.742	22.5
172.777	53.5
178.805	155.5
184.826	416.5
190.841	876.5
196.849	1457.5
202.85	1906.5
208.845	2075.5
214.833	2079.5
220.815	2074.5
226.789	2069.5
232.758	2078.5
238.719	2085.5
244.674	2090.5
250.623	2072.5
256.565	2051.5
262.5	2051.5
268.429	2029.5
274.351	2015.5
280.267	2013.5
286.176	2003.5
292.079	2017.5
297.975	2007.5
303.865	2003.5
309.748	1996.5
315.625	2027.5
321.495	2038.5
327.359	2024.5
333.217	2035.5
339.068	2038.5
344.912	2034.5
350.751	2054.5
356.583	2048.5
362.408	2055.5
368.227	2061.5
374.04	2073.5
379.847	2084.5
385.647	2092.5
391.44	2117.5
397.228	2104.5
403.009	2124.5
408.784	2152.5
414.553	2157.5
420.315	2159.5
426.071	2143.5
431.821	2141.5
437.565	2168.5
443.302	2147.5
449.033	2149.5
454.758	2113.5
460.477	2091.5
466.189	2089.5
471.896	2075.5
477.596	2067.5
483.29	2049.5
488.978	2044.5
494.66	2026.5
500.335	1984.5
506.005	1915.5
511.668	1824.5
517.325	1764.5
522.977	1681.5
528.622	1626.5
534.261	1603.5
539.894	1560.5
545.521	1566.5
551.141	1541.5
556.756	1515.5
562.365	1509.5
567.968	1494.5
573.565	1482.5
579.155	1468.5
584.74	1484.5
590.319	1469.5
595.892	1462.5
601.459	1458.5
607.02	1443.5
612.575	1428.5
618.124	1419.5
623.667	1413.5
629.204	1384.5
634.735	1382.5
640.261	1359.5
645.781	1374.5
651.294	1358.5
656.802	1337.5
662.304	1340.5
667.8	1331.5
673.29	1334.5
678.775	1332.5
684.254	1324.5
689.726	1327.5
695.193	1324.5
700.655	1307.5
706.11	1295.5
711.56	1285.5
717.004	1294.5
722.442	1263.5
727.874	1263.5
733.301	1261.5
738.722	1256.5
744.137	1243.5
749.547	1256.5
754.951	1246.5
760.349	1235.5
765.741	1245.5
771.128	1265.5
776.509	1285.5
781.885	1292.5
787.254	1314.5
792.618	1309.5
797.977	1287.5
803.33	1269.5
808.677	1272.5
814.019	1263.5
819.355	1251.5
824.686	1260.5
830.011	1244.5
835.33	1238.5
840.644	1234.5
845.952	1222.5
851.255	1210.5
856.552	1222.5
861.844	1195.5
867.13	1187.5
872.41	1197.5
877.686	1193.5
882.955	1175.5
888.219	1166.5
893.478	1155.5
898.731	1114.5
903.979	1097.5
909.221	1096.5
914.458	1087.5
919.69	1085.5
924.916	1094.5
930.136	1096.5
935.351	1096.5
940.561	1100.5
945.766	1089.5
950.965	1089.5
956.158	1085.5
961.347	1082.5
966.529	1060.5
971.707	1034.5
976.879	1015.5
982.046	1024.5
987.208	1009.5
992.364	1006.5
997.515	1010.5
1002.66	1020.5
1007.801	1030.5
1012.936	1030.5
1018.066	1035.5
1023.19	1046.5
1028.309	1040.5
1033.423	1035.5
1038.532	1044.5
1043.636	1053.5
1048.734	1026.5
1053.827	1026.5
1058.915	1010.5
1063.998	1007.5
1069.075	986.5
1074.147	988.5
1079.214	989.5
1084.276	1002.5
1089.333	1007.5
1094.385	1008.5
1099.431	989.5
1104.472	992.5
1109.509	984.5
1114.54	961.5
1119.565	955.5
1124.586	948.5
1129.602	934.5
1134.613	920.5
1139.618	916.5
1144.619	915.5
1149.614	924.5
1154.604	926.5
1159.589	937.5
1164.57	923.5
1169.545	924.5
1174.515	937.5
1179.48	922.5
1184.44	919.5
1189.395	918.5
1194.345	914.5
1199.29	893.5
1204.23	892.5
1209.165	894.5
1214.095	908.5
1219.021	907.5
1223.941	914.5
1228.856	909.5
1233.766	921.5
1238.672	922.5
1243.572	917.5
1248.467	910.5
1253.358	896.5
1258.244	878.5
1263.124	874.5
1268	855.5
1272.871	852.5
1277.737	826.5
1282.599	838.5
1287.455	829.5
1292.306	843.5
1297.153	828.5
1301.995	843.5
1306.832	849.5
1311.664	854.5
1316.491	859.5
1321.314	842.5
1326.132	835.5
1330.945	817.5
1335.753	808.5
1340.556	787.5
1345.354	774.5
1350.148	769.5
1354.937	746.5
1359.722	714.5
1364.501	722.5
1369.276	699.5
1374.046	681.5
1378.811	688.5
1383.572	686.5
1388.327	684.5
1393.079	676.5
1397.825	699.5
1402.567	696.5
1407.304	697.5
1412.036	698.5
1416.764	695.5
1421.487	701.5
1426.205	692.5
1430.919	690.5
1435.628	707.5
1440.333	719.5
1445.032	720.5
1449.727	723.5
1454.418	729.5
1459.104	716.5
1463.785	706.5
1468.462	685.5
1473.134	665.5
1477.802	654.5
1482.465	629.5
1487.123	626.5
1491.777	594.5
1496.426	596.5
1501.071	591.5
1505.711	578.5
1510.347	573.5
1514.978	576.5
1519.604	572.5
1524.226	570.5
1528.844	561.5
1533.457	566.5
1538.065	562.5
1542.669	558.5
1547.269	574.5
1551.864	561.5
1556.454	584.5
1561.041	594.5
1565.622	603.5
1570.199	587.5
1574.772	604.5
1579.34	602.5
1583.904	617.5
1588.464	627.5
1593.019	629.5
1597.569	625.5
1602.115	626.5
1606.657	634.5
1611.195	608.5
1615.728	603.5
1620.256	616.5
1624.78	620.5
1629.3	612.5
1633.816	612.5
1638.327	612.5
1642.834	618.5
1647.336	613.5
1651.834	603.5
1656.328	600.5
1660.817	587.5
1665.302	591.5
1669.783	576.5
1674.259	562.5
1678.732	548.5
1683.199	530.5
1687.663	501.5
1692.122	475.5
1696.577	454.5
1701.028	449.5
1705.474	418.5
1709.917	414.5
1714.355	404.5
1718.788	396.5
1723.218	414.5
1727.643	415.5
1732.064	410.5
1736.481	408.5
1740.893	398.5
1745.301	384.5
1749.705	383.5
1754.105	369.5
1758.501	349.5
1762.893	354.5
1767.28	352.5
1771.663	348.5
1776.042	346.5
1780.417	327.5
1784.787	324.5
1789.154	316.5
1793.516	301.5
1797.874	302.5
1802.228	303.5
1806.578	304.5
1810.924	300.5
1815.266	299.5
1819.603	302.5
1823.937	301.5
1828.266	308.5
1832.591	303.5
1836.913	315.5
1841.23	300.5
1845.543	307.5
1849.852	305.5
1854.156	311.5
1858.457	304.5
1862.754	315.5
1867.047	306.5
1871.335	305.5
1875.62	306.5
1879.9	306.5
1884.177	288.5
1888.449	295.5
1892.718	288.5
1896.982	277.5
1901.243	268.5
1905.499	267.5
1909.752	254.5
1914	259.5
1918.245	256.5
1922.485	246.5
1926.722	245.5
1930.954	236.5
1935.183	246.5
1939.408	240.5
1943.628	230.5
1947.845	236.5
1952.058	234.5
1956.267	228.5
1960.472	227.5
1964.673	219.5
1968.87	221.5
1973.063	231.5
1977.252	238.5
1981.438	233.5
1985.619	230.5
1989.797	225.5
1993.971	234.5
1998.14	237.5
2002.306	236.5
2006.469	230.5
2010.627	230.5
2014.781	237.5
2018.932	231.5
2023.078	234.5
2027.221	220.5
2031.36	232.5
2035.495	219.5
2039.627	209.5
2043.754	218.5
2047.878	216.5
2051.998	215.5
2056.114	208.5
2060.226	204.5
2064.334	200.5
2068.439	195.5
2072.54	199.5
2076.637	209.5
2080.73	201.5
2084.82	196.5
2088.906	196.5
2092.988	192.5
2097.066	190.5
2101.14	183.5
2105.211	191.5
2109.278	177.5
2113.342	176.5
2117.401	179.5
2121.457	183.5
2125.509	176.5
2129.558	177.5
2133.602	167.5
2137.643	185.5
2141.681	172.5
2145.714	179.5
2149.744	176.5
2153.77	184.5
2157.793	180.5
2161.812	184.5
2165.827	184.5
2169.838	177.5
2173.846	166.5
2177.851	171.5
2181.851	175.5
2185.848	167.5
2189.841	173.5
2193.831	157.5
2197.817	162.5
2201.799	163.5
2205.778	161.5
2209.753	166.5
2213.725	161.5
2217.693	173.5
2221.657	175.5
2225.618	167.5
2229.575	162.5
2233.529	148.5
2237.479	158.5
2241.425	147.5
2245.368	147.5
2249.307	154.5
2253.243	149.5
2257.175	149.5
2261.104	139.5
2265.029	143.5
2268.95	144.5
2272.868	135.5
2276.783	141.5
2280.694	141.5
2284.601	131.5
2288.505	140.5
2292.405	136.5
2296.302	138.5
2300.195	128.5
2304.085	130.5
2307.971	131.5
2311.854	124.5
2315.734	120.5
2319.609	127.5
2323.482	124.5
2327.351	125.5
2331.216	134.5
2335.078	149.5
2338.937	141.5
2342.792	133.5
2346.643	129.5
2350.492	125.5
2354.336	128.5
2358.178	121.5
2362.015	129.5
2365.85	121.5
2369.681	122.5
2373.508	128.5
2377.333	130.5
2381.153	123.5
2384.971	122.5
2388.785	119.5
2392.595	129.5
2396.402	132.5
2400.206	132.5
2404.007	126.5
2407.804	128.5
2411.597	123.5
2415.388	115.5
2419.174	125.5
2422.958	122.5
2426.738	116.5
2430.515	115.5
2434.289	114.5
2438.059	116.5
2441.825	110.5
2445.589	106.5
2449.349	109.5
2453.106	110.5
2456.859	103.5
2460.61	107.5
2464.356	110.5
2468.1	108.5
2471.84	101.5
2475.577	95.5
2479.311	98.5
2483.041	97.5
2486.768	96.5
2490.492	98.5
2494.213	91.5
2497.93	98.5
2501.644	96.5
2505.355	88.5
2509.062	91.5
2512.766	95.5
2516.467	86.5
2520.165	94.5
2523.859	88.5
2527.551	84.5
2531.239	80.5
2534.923	78.5
2538.605	71.5
2542.283	70.5
2545.958	78.5
2549.63	75.5
2553.299	70.5
2556.964	71.5
2560.626	75.5
2564.285	78.5
2567.941	68.5
2571.594	68.5
2575.243	70.5
2578.89	66.5
2582.533	62.5
2586.173	56.5
2589.809	70.5
2593.443	69.5
2597.073	67.5
2600.701	68.5
2604.325	63.5
2607.946	53.5
2611.564	61.5
2615.178	69.5
2618.79	58.5
2622.398	58.5
2626.004	64.5
2629.606	62.5
2633.205	52.5
2636.801	60.5
2640.394	61.5
2643.983	60.5
2647.57	57.5
2651.153	48.5
2654.734	50.5
2658.311	51.5
2661.885	52.5
2665.456	55.5
2669.025	53.5
2672.589	47.5
2676.151	54.5
2679.71	49.5
2683.266	46.5
2686.819	57.5
2690.368	52.5
2693.915	52.5
2697.458	44.5
2700.999	45.5
2704.536	40.5
2708.071	46.5
2711.602	38.5
2715.13	34.5
2718.656	39.5
2722.178	35.5
2725.697	33.5
2729.214	37.5
2732.727	40.5
2736.237	39.5
2739.744	28.5
2743.249	31.5
2746.75	29.5
2750.248	32.5
2753.743	27.5
2757.236	27.5
2760.725	23.5
2764.211	25.5
2767.695	19.5
2771.175	25.5
2774.652	19.5
2778.127	23.5
2781.598	20.5
2785.067	27.5
2788.532	15.5
2791.995	28.5
2795.455	23.5
2798.911	23.5
2802.365	29.5
2805.816	25.5
2809.264	24.5
2812.709	23.5
2816.151	29.5
2819.59	40.5
2823.026	23.5
2826.46	32.5
2829.89	25.5
2833.318	29.5
2836.742	28.5
2840.164	28.5
2843.583	27.5
2846.999	26.5
2850.412	26.5
2853.822	24.5
2857.229	24.5
2860.634	24.5
2864.035	29.5
2867.434	35.5
2870.83	36.5
2874.223	30.5
2877.613	39.5
2881	36.5
2884.385	43.5
2887.766	39.5
2891.145	35.5
2894.521	41.5
2897.894	37.5
2901.264	42.5
2904.631	38.5
2907.996	44.5
2911.358	42.5
2914.717	40.5
2918.073	42.5
2921.426	37.5
2924.777	55.5
2928.124	48.5
2931.469	48.5
2934.811	55.5
2938.15	49.5
2941.487	67.5
2944.821	54.5
2948.152	64.5
2951.48	52.5
2954.805	54.5
2958.128	58.5
2961.447	57.5
2964.765	49.5
2968.079	41.5
2971.39	47.5
2974.699	40.5
2978.005	56.5
2981.308	47.5
2984.609	51.5
2987.907	46.5
2991.202	54.5
2994.494	52.5
2997.784	43.5
3001.07	45.5
3004.355	49.5
3007.636	52.5
3010.915	50.5
3014.191	53.5
3017.464	51.5
3020.734	58.5
3024.002	57.5
3027.267	56.5
3030.53	56.5
3033.789	56.5
3037.046	64.5
3040.301	60.5
3043.552	65.5
3046.801	61.5
3050.048	69.5
3053.291	72.5
3056.532	71.5
3059.771	78.5
3063.006	87.5
3066.239	88.5
3069.469	93.5
3072.697	90.5
3075.922	101.5
3079.144	95.5
3082.364	93.5
3085.581	100.5
3088.795	98.5
3092.007	103.5
3095.216	105.5
3098.423	105.5
3101.627	98.5
3104.828	119.5
3108.026	115.5
3111.222	112.5
3114.416	118.5
3117.607	118.5
3120.795	123.5
3123.98	120.5
3127.163	141.5
3130.344	137.5
3133.521	142.5
3136.696	143.5
3139.869	147.5
3143.039	147.5
3146.206	155.5
3149.371	155.5
3152.533	162.5
3155.693	163.5
3158.85	155.5
3162.005	162.5
3165.157	153.5
3168.306	155.5
3171.453	145.5
3174.597	160.5
3177.739	158.5
3180.878	164.5
3184.014	160.5
3187.149	164.5
3190.28	163.5
3193.409	160.5
3196.536	164.5
3199.659	169.5
3202.781	167.5
3205.9	163.5
3209.016	157.5
3212.13	161.5
3215.241	157.5
3218.35	164.5
3221.456	152.5
3224.56	156.5
3227.661	158.5
3230.76	147.5
3233.856	145.5
3236.95	136.5
3240.041	134.5
3243.13	143.5
3246.216	131.5
3249.3	125.5
3252.382	129.5
3255.46	130.5
3258.537	130.5
3261.611	122.5
3264.682	128.5
3267.751	125.5
3270.818	116.5
3273.882	117.5
3276.943	112.5
3280.002	121.5
3283.059	115.5
3286.113	117.5
3289.165	111.5
3292.214	116.5
3295.261	112.5
3298.306	117.5
3301.348	111.5
3304.387	109.5
3307.425	105.5
3310.459	106.5
3313.492	105.5
3316.521	107.5
3319.549	112.5
3322.574	98.5
3325.597	106.5
3328.617	105.5
3331.635	108.5
3334.65	109.5
3337.663	97.5
3340.674	104.5
3343.682	105.5
3346.688	103.5
3349.691	108.5
3352.692	105.5
3355.691	111.5
3358.687	106.5
3361.681	97.5
3364.673	102.5
3367.662	100.5
3370.649	98.5
3373.633	96.5
3376.615	93.5
3379.595	86.5
3382.572	83.5
3385.547	88.5
3388.52	87.5
3391.49	79.5
3394.458	84.5
3397.424	80.5
3400.387	81.5
3403.348	76.5
3406.307	75.5
3409.263	76.5
3412.217	68.5
3415.168	72.5
3418.118	69.5
3421.065	67.5
3424.009	68.5
3426.951	67.5
3429.891	66.5
3432.829	62.5
3435.764	63.5
3438.697	61.5
3441.628	53.5
3444.557	51.5
3447.483	49.5
3450.407	46.5
3453.328	39.5
3456.247	39.5
3459.164	34.5
3462.079	36.5
3464.991	37.5
3467.902	30.5
3470.809	27.5
3473.715	23.5
3476.618	23.5
3479.519	13.5
3482.418	16.5
3485.315	13.5
3488.209	6.5
3491.101	8.5
3493.99	15.5
3496.878	8.5
3499.763	4.5
3502.646	13.5
3505.527	87.5
3508.405	13.5
3511.281	-3.5
3514.155	-1.5
3517.027	-12.5
3519.897	-3.5
3522.764	-11.5
3525.629	-8.5
3528.492	-10.5
3531.352	-16.5
3534.211	-19.5
3537.067	-17.5
3539.921	-16.5
3542.773	-21.5
3545.622	-16.5
3548.469	-24.5
3551.315	-22.5
3554.157	-21.5
3556.998	-26.5
3559.837	-30.5
3562.673	-21.5
3565.507	-24.5
3568.339	-22.5
3571.169	-31.5
3573.996	-23.5
3576.822	-37.5
3579.645	-33.5
3582.466	-34.5
3585.285	-37.5
3588.101	-33.5
3590.916	-25.5
3593.728	-38.5
3596.538	-35.5
3599.346	-30.5
3602.152	-36.5
3604.956	-32.5
3607.757	-33.5
3610.556	-37.5
3613.354	-42.5
3616.149	-46.5
3618.942	-38.5
3621.732	-38.5
3624.521	-34.5
3627.307	-39.5
3630.092	-46.5
3632.874	-39.5
3635.654	-43.5
3638.432	-41.5
3641.208	-44.5
3643.982	-42.5
3646.753	-47.5
3649.523	-43.5
3652.29	-50.5
3655.055	-39.5
3657.818	-48.5
3660.579	-46.5
3663.338	-41.5
3666.095	-47.5
3668.849	-45.5
3671.602	-48.5
3674.352	-48.5
3677.101	-48.5
3679.847	-47.5
3682.591	-52.5
3685.333	-48.5
3688.073	-53.5
3690.811	-48.5
3693.547	-52.5
3696.281	-46.5
3699.013	-45.5
3701.742	-53.5
3704.47	-47.5
3707.195	-50.5
3709.919	-54.5
3712.64	-51.5
3715.359	-51.5
3718.076	-49.5
3720.792	-49.5
3723.505	-52.5
3726.216	-47.5
3728.925	-57.5
3731.632	-53.5
3734.336	-52.5
3737.039	-50.5
3739.74	-56.5
3742.439	-58.5
3745.136	-52.5
3747.83	-51.5
3750.523	-52.5
3753.213	-52.5
3755.902	-54.5
3758.589	-55.5
3761.273	-56.5
3763.956	-60.5
3766.636	-56.5
3769.315	-49.5
3771.991	-56.5
3774.665	-60.5
3777.338	-49.5
3780.008	-53.5
3782.677	-60.5
3785.343	-54.5
3788.007	-56.5
3790.67	-61.5
3793.33	-58.5
3795.989	-61.5
3798.645	-62.5
3801.299	-60.5
3803.952	-56.5
3806.602	-53.5
3809.251	-56.5
3811.897	-61.5
3814.542	-62.5
3817.184	-51.5
3819.825	-54.5
3822.463	-60.5
3825.1	-53.5
3827.735	-62.5
3830.367	-58.5
3832.998	-59.5
3835.627	-58.5
3838.253	-51.5
3840.878	-49.5
3843.501	-51.5
3846.122	-58.5
3848.741	-55.5
3851.358	-60.5
3853.973	-58.5
3856.586	-52.5
3859.197	-56.5
3861.806	-55.5
3864.414	-56.5
3867.019	-55.5
3869.622	-52.5
3872.224	-47.5
3874.823	-40.5
3877.421	-35.5
3880.016	-32.5
3882.61	-16.5
3885.202	-14.5
3887.792	-14.5
3890.38	-29.5
3892.966	-43.5
3895.55	-52.5
3898.132	-46.5
3900.713	-56.5
3903.291	-59.5
3905.868	-56.5
3908.442	-55.5
3911.015	-55.5
3913.586	-59.5
3916.155	-61.5
3918.722	-56.5
3921.287	-58.5
3923.85	-46.5
3926.411	-59.5
3928.971	-61.5
3931.528	-57.5
3934.084	-55.5
3936.638	-57.5
3939.19	-63.5
3941.74	-57.5
3944.288	-59.5
3946.834	-57.5
3949.378	-55.5
3951.921	-60.5
3954.462	-58.5
3957	-50.5
3959.537	-49.5
3962.072	-55.5
3964.606	-59.5
3967.137	-56.5
3969.667	-60.5
3972.194	-57.5
3974.72	-52.5
3977.244	-53.5
3979.766	-56.5
3982.286	-53.5
3984.805	-64.5
3987.321	-56.5
3989.836	-55.5
3992.349	-62.5
3994.86	-57.5
3997.369	-62.5
3999.877	-57.5
4002.382	-58.5
4004.886	-52.5
4007.388	-59.5
4009.888	-58.5
4012.386	-54.5
4014.883	-53.5
4017.377	-49.5
4019.87	-58.5
4022.361	-64.5
4024.85	-51.5
4027.338	-59.5
4029.823	-60.5
4032.307	-61.5
4034.789	-55.5
4037.269	-55.5
4039.747	-55.5
4042.224	-59.5
4044.699	-61.5
4047.172	-61.5
4049.643	-57.5
4052.112	-58.5
4054.58	-55.5
4057.046	-57.5
4059.51	-62.5
4061.972	-59.5
4064.432	-54.5
4066.891	-54.5
4069.348	-48.5
4071.803	-55.5
4074.256	-58.5
4076.708	-57.5
4079.158	-63.5
4081.606	-57.5
4084.052	-60.5
4086.497	-53.5
4088.939	-52.5
4091.38	-61.5
4093.819	-57.5
4096.257	-60.5
4098.693	-59.5
4101.127	-57.5
4103.559	-63.5
4105.989	12.5
4108.418	10.5
4110.845	6.5
4113.27	14.5
4115.694	4.5
4118.115	13.5
4120.535	-57.5
4122.954	-53.5
4125.37	-60.5
4127.785	-55.5
4130.198	-58.5
4132.609	-58.5
4135.019	-62.5
4137.427	-62.5
4139.833	-60.5
4142.237	-59.5
