Data from 2018-3-7_conc=0_n=5_RamanShift_04.txt Node
Date: Wed Mar 07 10:19:53 IST 2018
User: aro
Spectrometer: QEPB0276
Trigger mode: 0
Integration Time (sec): 3.000000E1
Scans to average: 1
Electric dark correction enabled: true
Nonlinearity correction enabled: false
Boxcar width: 0
XAxis mode: Raman Shifts
Number of Pixels in Spectrum: 1044
>>>>>Begin Spectral Data<<<<<
160.701	10.5
166.742	22.5
172.777	47.5
178.805	160.5
184.826	413.5
190.841	869.5
196.849	1401.5
202.85	1852.5
208.845	2028.5
214.833	2030.5
220.815	2006.5
226.789	2005.5
232.758	2049.5
238.719	2052.5
244.674	2045.5
250.623	2024.5
256.565	2012.5
262.5	1993.5
268.429	1972.5
274.351	1982.5
280.267	1982.5
286.176	1999.5
292.079	1997.5
297.975	2015.5
303.865	1994.5
309.748	1998.5
315.625	2021.5
321.495	2013.5
327.359	2021.5
333.217	2014.5
339.068	2052.5
344.912	2047.5
350.751	2050.5
356.583	2044.5
362.408	2049.5
368.227	2081.5
374.04	2088.5
379.847	2098.5
385.647	2099.5
391.44	2105.5
397.228	2120.5
403.009	2159.5
408.784	2165.5
414.553	2151.5
420.315	2190.5
426.071	2184.5
431.821	2211.5
437.565	2180.5
443.302	2191.5
449.033	2189.5
454.758	2148.5
460.477	2130.5
466.189	2126.5
471.896	2103.5
477.596	2084.5
483.29	2066.5
488.978	2044.5
494.66	2052.5
500.335	1999.5
506.005	1907.5
511.668	1814.5
517.325	1737.5
522.977	1644.5
528.622	1594.5
534.261	1554.5
539.894	1524.5
545.521	1500.5
551.141	1480.5
556.756	1455.5
562.365	1445.5
567.968	1432.5
573.565	1424.5
579.155	1415.5
584.74	1398.5
590.319	1393.5
595.892	1422.5
601.459	1409.5
607.02	1413.5
612.575	1376.5
618.124	1371.5
623.667	1345.5
629.204	1308.5
634.735	1303.5
640.261	1286.5
645.781	1303.5
651.294	1287.5
656.802	1278.5
662.304	1275.5
667.8	1269.5
673.29	1257.5
678.775	1280.5
684.254	1277.5
689.726	1238.5
695.193	1246.5
700.655	1234.5
706.11	1232.5
711.56	1230.5
717.004	1223.5
722.442	1206.5
727.874	1201.5
733.301	1196.5
738.722	1198.5
744.137	1185.5
749.547	1198.5
754.951	1189.5
760.349	1191.5
765.741	1203.5
771.128	1200.5
776.509	1233.5
781.885	1256.5
787.254	1258.5
792.618	1260.5
797.977	1243.5
803.33	1246.5
808.677	1235.5
814.019	1239.5
819.355	1217.5
824.686	1214.5
830.011	1218.5
835.33	1198.5
840.644	1193.5
845.952	1179.5
851.255	1173.5
856.552	1180.5
861.844	1168.5
867.13	1165.5
872.41	1194.5
877.686	1239.5
882.955	1263.5
888.219	1261.5
893.478	1202.5
898.731	1125.5
903.979	1080.5
909.221	1068.5
914.458	1051.5
919.69	1047.5
924.916	1041.5
930.136	1047.5
935.351	1038.5
940.561	1049.5
945.766	1034.5
950.965	1035.5
956.158	1028.5
961.347	1020.5
966.529	1007.5
971.707	987.5
976.879	974.5
982.046	961.5
987.208	963.5
992.364	961.5
997.515	968.5
1002.66	958.5
1007.801	996.5
1012.936	995.5
1018.066	996.5
1023.19	1010.5
1028.309	1019.5
1033.423	996.5
1038.532	1022.5
1043.636	1026.5
1048.734	1035.5
1053.827	1022.5
1058.915	1016.5
1063.998	993.5
1069.075	985.5
1074.147	990.5
1079.214	985.5
1084.276	1004.5
1089.333	1010.5
1094.385	1021.5
1099.431	980.5
1104.472	978.5
1109.509	949.5
1114.54	936.5
1119.565	932.5
1124.586	913.5
1129.602	905.5
1134.613	877.5
1139.618	887.5
1144.619	873.5
1149.614	888.5
1154.604	872.5
1159.589	879.5
1164.57	879.5
1169.545	891.5
1174.515	881.5
1179.48	876.5
1184.44	883.5
1189.395	864.5
1194.345	858.5
1199.29	850.5
1204.23	849.5
1209.165	842.5
1214.095	857.5
1219.021	863.5
1223.941	873.5
1228.856	867.5
1233.766	875.5
1238.672	861.5
1243.572	870.5
1248.467	874.5
1253.358	852.5
1258.244	849.5
1263.124	821.5
1268	814.5
1272.871	813.5
1277.737	808.5
1282.599	805.5
1287.455	805.5
1292.306	803.5
1297.153	800.5
1301.995	820.5
1306.832	807.5
1311.664	808.5
1316.491	817.5
1321.314	801.5
1326.132	805.5
1330.945	782.5
1335.753	771.5
1340.556	750.5
1345.354	736.5
1350.148	722.5
1354.937	701.5
1359.722	672.5
1364.501	675.5
1369.276	651.5
1374.046	652.5
1378.811	653.5
1383.572	663.5
1388.327	673.5
1393.079	650.5
1397.825	666.5
1402.567	657.5
1407.304	668.5
1412.036	680.5
1416.764	666.5
1421.487	678.5
1426.205	680.5
1430.919	671.5
1435.628	682.5
1440.333	700.5
1445.032	704.5
1449.727	733.5
1454.418	741.5
1459.104	747.5
1463.785	725.5
1468.462	703.5
1473.134	683.5
1477.802	651.5
1482.465	623.5
1487.123	600.5
1491.777	594.5
1496.426	572.5
1501.071	572.5
1505.711	575.5
1510.347	552.5
1514.978	540.5
1519.604	534.5
1524.226	537.5
1528.844	543.5
1533.457	528.5
1538.065	538.5
1542.669	525.5
1547.269	532.5
1551.864	549.5
1556.454	545.5
1561.041	566.5
1565.622	579.5
1570.199	565.5
1574.772	566.5
1579.34	574.5
1583.904	569.5
1588.464	579.5
1593.019	591.5
1597.569	585.5
1602.115	573.5
1606.657	586.5
1611.195	576.5
1615.728	582.5
1620.256	570.5
1624.78	561.5
1629.3	567.5
1633.816	567.5
1638.327	580.5
1642.834	559.5
1647.336	562.5
1651.834	556.5
1656.328	565.5
1660.817	556.5
1665.302	562.5
1669.783	537.5
1674.259	523.5
1678.732	504.5
1683.199	492.5
1687.663	478.5
1692.122	437.5
1696.577	429.5
1701.028	415.5
1705.474	393.5
1709.917	380.5
1714.355	380.5
1718.788	361.5
1723.218	377.5
1727.643	384.5
1732.064	379.5
1736.481	386.5
1740.893	349.5
1745.301	368.5
1749.705	364.5
1754.105	342.5
1758.501	336.5
1762.893	335.5
1767.28	330.5
1771.663	318.5
1776.042	315.5
1780.417	299.5
1784.787	305.5
1789.154	298.5
1793.516	286.5
1797.874	286.5
1802.228	283.5
1806.578	276.5
1810.924	276.5
1815.266	274.5
1819.603	279.5
1823.937	278.5
1828.266	280.5
1832.591	290.5
1836.913	288.5
1841.23	289.5
1845.543	279.5
1849.852	287.5
1854.156	294.5
1858.457	289.5
1862.754	293.5
1867.047	285.5
1871.335	292.5
1875.62	286.5
1879.9	287.5
1884.177	272.5
1888.449	273.5
1892.718	276.5
1896.982	261.5
1901.243	246.5
1905.499	244.5
1909.752	245.5
1914	244.5
1918.245	241.5
1922.485	228.5
1926.722	226.5
1930.954	222.5
1935.183	221.5
1939.408	220.5
1943.628	219.5
1947.845	210.5
1952.058	210.5
1956.267	210.5
1960.472	219.5
1964.673	215.5
1968.87	200.5
1973.063	202.5
1977.252	210.5
1981.438	213.5
1985.619	212.5
1989.797	210.5
1993.971	215.5
1998.14	215.5
2002.306	224.5
2006.469	222.5
2010.627	218.5
2014.781	221.5
2018.932	219.5
2023.078	216.5
2027.221	210.5
2031.36	207.5
2035.495	204.5
2039.627	197.5
2043.754	196.5
2047.878	202.5
2051.998	201.5
2056.114	200.5
2060.226	183.5
2064.334	189.5
2068.439	180.5
2072.54	179.5
2076.637	184.5
2080.73	187.5
2084.82	189.5
2088.906	175.5
2092.988	178.5
2097.066	172.5
2101.14	174.5
2105.211	169.5
2109.278	171.5
2113.342	171.5
2117.401	173.5
2121.457	158.5
2125.509	167.5
2129.558	165.5
2133.602	164.5
2137.643	172.5
2141.681	168.5
2145.714	166.5
2149.744	164.5
2153.77	169.5
2157.793	164.5
2161.812	173.5
2165.827	172.5
2169.838	163.5
2173.846	163.5
2177.851	153.5
2181.851	154.5
2185.848	157.5
2189.841	153.5
2193.831	153.5
2197.817	148.5
2201.799	158.5
2205.778	148.5
2209.753	154.5
2213.725	143.5
2217.693	162.5
2221.657	152.5
2225.618	145.5
2229.575	145.5
2233.529	151.5
2237.479	155.5
2241.425	148.5
2245.368	136.5
2249.307	147.5
2253.243	139.5
2257.175	139.5
2261.104	135.5
2265.029	140.5
2268.95	136.5
2272.868	137.5
2276.783	125.5
2280.694	119.5
2284.601	128.5
2288.505	130.5
2292.405	133.5
2296.302	136.5
2300.195	126.5
2304.085	122.5
2307.971	120.5
2311.854	115.5
2315.734	117.5
2319.609	116.5
2323.482	126.5
2327.351	128.5
2331.216	137.5
2335.078	146.5
2338.937	142.5
2342.792	127.5
2346.643	124.5
2350.492	115.5
2354.336	123.5
2358.178	113.5
2362.015	125.5
2365.85	118.5
2369.681	124.5
2373.508	124.5
2377.333	126.5
2381.153	117.5
2384.971	118.5
2388.785	116.5
2392.595	120.5
2396.402	121.5
2400.206	118.5
2404.007	124.5
2407.804	122.5
2411.597	116.5
2415.388	121.5
2419.174	127.5
2422.958	117.5
2426.738	118.5
2430.515	114.5
2434.289	116.5
2438.059	113.5
2441.825	103.5
2445.589	104.5
2449.349	108.5
2453.106	104.5
2456.859	108.5
2460.61	105.5
2464.356	101.5
2468.1	98.5
2471.84	96.5
2475.577	91.5
2479.311	91.5
2483.041	96.5
2486.768	98.5
2490.492	93.5
2494.213	97.5
2497.93	97.5
2501.644	91.5
2505.355	80.5
2509.062	88.5
2512.766	85.5
2516.467	78.5
2520.165	89.5
2523.859	87.5
2527.551	80.5
2531.239	76.5
2534.923	76.5
2538.605	75.5
2542.283	69.5
2545.958	78.5
2549.63	75.5
2553.299	76.5
2556.964	65.5
2560.626	68.5
2564.285	66.5
2567.941	63.5
2571.594	66.5
2575.243	66.5
2578.89	67.5
2582.533	62.5
2586.173	65.5
2589.809	68.5
2593.443	73.5
2597.073	62.5
2600.701	65.5
2604.325	58.5
2607.946	56.5
2611.564	59.5
2615.178	66.5
2618.79	60.5
2622.398	52.5
2626.004	60.5
2629.606	52.5
2633.205	55.5
2636.801	55.5
2640.394	61.5
2643.983	56.5
2647.57	53.5
2651.153	46.5
2654.734	55.5
2658.311	53.5
2661.885	55.5
2665.456	56.5
2669.025	55.5
2672.589	50.5
2676.151	52.5
2679.71	42.5
2683.266	46.5
2686.819	59.5
2690.368	53.5
2693.915	50.5
2697.458	39.5
2700.999	46.5
2704.536	48.5
2708.071	45.5
2711.602	41.5
2715.13	41.5
2718.656	41.5
2722.178	40.5
2725.697	37.5
2729.214	37.5
2732.727	47.5
2736.237	40.5
2739.744	33.5
2743.249	35.5
2746.75	31.5
2750.248	27.5
2753.743	26.5
2757.236	30.5
2760.725	27.5
2764.211	25.5
2767.695	23.5
2771.175	15.5
2774.652	23.5
2778.127	26.5
2781.598	22.5
2785.067	18.5
2788.532	25.5
2791.995	27.5
2795.455	21.5
2798.911	27.5
2802.365	31.5
2805.816	31.5
2809.264	25.5
2812.709	25.5
2816.151	27.5
2819.59	36.5
2823.026	31.5
2826.46	35.5
2829.89	29.5
2833.318	30.5
2836.742	35.5
2840.164	26.5
2843.583	34.5
2846.999	40.5
2850.412	44.5
2853.822	42.5
2857.229	41.5
2860.634	36.5
2864.035	46.5
2867.434	44.5
2870.83	58.5
2874.223	54.5
2877.613	60.5
2881	68.5
2884.385	73.5
2887.766	80.5
2891.145	76.5
2894.521	80.5
2897.894	73.5
2901.264	77.5
2904.631	72.5
2907.996	73.5
2911.358	75.5
2914.717	77.5
2918.073	75.5
2921.426	72.5
2924.777	86.5
2928.124	90.5
2931.469	93.5
2934.811	108.5
2938.15	116.5
2941.487	109.5
2944.821	106.5
2948.152	99.5
2951.48	94.5
2954.805	90.5
2958.128	84.5
2961.447	85.5
2964.765	69.5
2968.079	70.5
2971.39	71.5
2974.699	61.5
2978.005	75.5
2981.308	63.5
2984.609	74.5
2987.907	73.5
2991.202	70.5
2994.494	60.5
2997.784	55.5
3001.07	57.5
3004.355	59.5
3007.636	59.5
3010.915	57.5
3014.191	52.5
3017.464	55.5
3020.734	60.5
3024.002	55.5
3027.267	63.5
3030.53	56.5
3033.789	59.5
3037.046	57.5
3040.301	55.5
3043.552	56.5
3046.801	60.5
3050.048	61.5
3053.291	56.5
3056.532	70.5
3059.771	69.5
3063.006	75.5
3066.239	79.5
3069.469	83.5
3072.697	79.5
3075.922	85.5
3079.144	84.5
3082.364	85.5
3085.581	94.5
3088.795	89.5
3092.007	99.5
3095.216	91.5
3098.423	96.5
3101.627	90.5
3104.828	106.5
3108.026	103.5
3111.222	110.5
3114.416	108.5
3117.607	112.5
3120.795	117.5
3123.98	117.5
3127.163	127.5
3130.344	127.5
3133.521	124.5
3136.696	130.5
3139.869	138.5
3143.039	133.5
3146.206	137.5
3149.371	141.5
3152.533	141.5
3155.693	143.5
3158.85	140.5
3162.005	142.5
3165.157	148.5
3168.306	139.5
3171.453	142.5
3174.597	138.5
3177.739	147.5
3180.878	144.5
3184.014	142.5
3187.149	145.5
3190.28	149.5
3193.409	142.5
3196.536	141.5
3199.659	154.5
3202.781	146.5
3205.9	139.5
3209.016	142.5
3212.13	143.5
3215.241	143.5
3218.35	137.5
3221.456	136.5
3224.56	140.5
3227.661	129.5
3230.76	119.5
3233.856	128.5
3236.95	114.5
3240.041	118.5
3243.13	126.5
3246.216	114.5
3249.3	110.5
3252.382	116.5
3255.46	112.5
3258.537	113.5
3261.611	108.5
3264.682	105.5
3267.751	109.5
3270.818	98.5
3273.882	102.5
3276.943	95.5
3280.002	102.5
3283.059	99.5
3286.113	98.5
3289.165	101.5
3292.214	105.5
3295.261	102.5
3298.306	105.5
3301.348	93.5
3304.387	94.5
3307.425	95.5
3310.459	90.5
3313.492	95.5
3316.521	91.5
3319.549	99.5
3322.574	88.5
3325.597	94.5
3328.617	98.5
3331.635	92.5
3334.65	97.5
3337.663	87.5
3340.674	90.5
3343.682	93.5
3346.688	81.5
3349.691	90.5
3352.692	90.5
3355.691	97.5
3358.687	92.5
3361.681	87.5
3364.673	90.5
3367.662	79.5
3370.649	88.5
3373.633	79.5
3376.615	83.5
3379.595	81.5
3382.572	74.5
3385.547	73.5
3388.52	73.5
3391.49	66.5
3394.458	65.5
3397.424	71.5
3400.387	72.5
3403.348	66.5
3406.307	60.5
3409.263	63.5
3412.217	60.5
3415.168	65.5
3418.118	55.5
3421.065	61.5
3424.009	54.5
3426.951	55.5
3429.891	54.5
3432.829	57.5
3435.764	50.5
3438.697	50.5
3441.628	40.5
3444.557	40.5
3447.483	39.5
3450.407	35.5
3453.328	31.5
3456.247	33.5
3459.164	24.5
3462.079	17.5
3464.991	22.5
3467.902	25.5
3470.809	18.5
3473.715	23.5
3476.618	15.5
3479.519	10.5
3482.418	5.5
3485.315	9.5
3488.209	-3.5
3491.101	-0.5
3493.99	14.5
3496.878	2.5
3499.763	-3.5
3502.646	-1.5
3505.527	-2.5
3508.405	-4.5
3511.281	-5.5
3514.155	-4.5
3517.027	-8.5
3519.897	-3.5
3522.764	-14.5
3525.629	-8.5
3528.492	-16.5
3531.352	-19.5
3534.211	-22.5
3537.067	-17.5
3539.921	-15.5
3542.773	-27.5
3545.622	-24.5
3548.469	-24.5
3551.315	-22.5
3554.157	-28.5
3556.998	-25.5
3559.837	-24.5
3562.673	-32.5
3565.507	-27.5
3568.339	-22.5
3571.169	-35.5
3573.996	-25.5
3576.822	-39.5
3579.645	-34.5
3582.466	-27.5
3585.285	-38.5
3588.101	-36.5
3590.916	-34.5
3593.728	-38.5
3596.538	-42.5
3599.346	-35.5
3602.152	-37.5
3604.956	-32.5
3607.757	-35.5
3610.556	-37.5
3613.354	-42.5
3616.149	-44.5
3618.942	-39.5
3621.732	-46.5
3624.521	-36.5
3627.307	-42.5
3630.092	-44.5
3632.874	-42.5
3635.654	-49.5
3638.432	-43.5
3641.208	-40.5
3643.982	-38.5
3646.753	-48.5
3649.523	-42.5
3652.29	-52.5
3655.055	-40.5
3657.818	-46.5
3660.579	-46.5
3663.338	-42.5
3666.095	-43.5
3668.849	-50.5
3671.602	-47.5
3674.352	-46.5
3677.101	-46.5
3679.847	-45.5
3682.591	-53.5
3685.333	-47.5
3688.073	-54.5
3690.811	-49.5
3693.547	-58.5
3696.281	-53.5
3699.013	-53.5
3701.742	-53.5
3704.47	-44.5
3707.195	-52.5
3709.919	-49.5
3712.64	-50.5
3715.359	-53.5
3718.076	-60.5
3720.792	-58.5
3723.505	-55.5
3726.216	-50.5
3728.925	-56.5
3731.632	-52.5
3734.336	-50.5
3737.039	-50.5
3739.74	-57.5
3742.439	-60.5
3745.136	-58.5
3747.83	-50.5
3750.523	-57.5
3753.213	-64.5
3755.902	-58.5
3758.589	-54.5
3761.273	-51.5
3763.956	-52.5
3766.636	-54.5
3769.315	-47.5
3771.991	-57.5
3774.665	-63.5
3777.338	-56.5
3780.008	-52.5
3782.677	-58.5
3785.343	-53.5
3788.007	-55.5
3790.67	-57.5
3793.33	-58.5
3795.989	-60.5
3798.645	-60.5
3801.299	-55.5
3803.952	-54.5
3806.602	-52.5
3809.251	-55.5
3811.897	-58.5
3814.542	-64.5
3817.184	-56.5
3819.825	-51.5
3822.463	-58.5
3825.1	-54.5
3827.735	-59.5
3830.367	-54.5
3832.998	-57.5
3835.627	-64.5
3838.253	-44.5
3840.878	-49.5
3843.501	-47.5
3846.122	-63.5
3848.741	-63.5
3851.358	-54.5
3853.973	-53.5
3856.586	-54.5
3859.197	-56.5
3861.806	-56.5
3864.414	-57.5
3867.019	-55.5
3869.622	-52.5
3872.224	-46.5
3874.823	-43.5
3877.421	-39.5
3880.016	-25.5
3882.61	-10.5
3885.202	-10.5
3887.792	-13.5
3890.38	-28.5
3892.966	-42.5
3895.55	-51.5
3898.132	-56.5
3900.713	-57.5
3903.291	-55.5
3905.868	-50.5
3908.442	-55.5
3911.015	-57.5
3913.586	-67.5
3916.155	-60.5
3918.722	-60.5
3921.287	-56.5
3923.85	-49.5
3926.411	-58.5
3928.971	-68.5
3931.528	-61.5
3934.084	-57.5
3936.638	-55.5
3939.19	-62.5
3941.74	-55.5
3944.288	-54.5
3946.834	-59.5
3949.378	-55.5
3951.921	-64.5
3954.462	-60.5
3957	-49.5
3959.537	-47.5
3962.072	-52.5
3964.606	-56.5
3967.137	-56.5
3969.667	-60.5
3972.194	-56.5
3974.72	-52.5
3977.244	-52.5
3979.766	-59.5
3982.286	-58.5
3984.805	-64.5
3987.321	-55.5
3989.836	-57.5
3992.349	-58.5
3994.86	-58.5
3997.369	-59.5
3999.877	-54.5
4002.382	-58.5
4004.886	-54.5
4007.388	-59.5
4009.888	-58.5
4012.386	-63.5
4014.883	-57.5
4017.377	-52.5
4019.87	-54.5
4022.361	-61.5
4024.85	-58.5
4027.338	-60.5
4029.823	-57.5
4032.307	-56.5
4034.789	-53.5
4037.269	-55.5
4039.747	-58.5
4042.224	-59.5
4044.699	-61.5
4047.172	-61.5
4049.643	-61.5
4052.112	-56.5
4054.58	-56.5
4057.046	-47.5
4059.51	-56.5
4061.972	-60.5
4064.432	-57.5
4066.891	-53.5
4069.348	-56.5
4071.803	-53.5
4074.256	-52.5
4076.708	-54.5
4079.158	-52.5
4081.606	-60.5
4084.052	-59.5
4086.497	-52.5
4088.939	-54.5
4091.38	-63.5
4093.819	-63.5
4096.257	-59.5
4098.693	-59.5
4101.127	-50.5
4103.559	-60.5
4105.989	10.5
4108.418	6.5
4110.845	4.5
4113.27	4.5
4115.694	11.5
4118.115	11.5
4120.535	-54.5
4122.954	-53.5
4125.37	-56.5
4127.785	-52.5
4130.198	-54.5
4132.609	-60.5
4135.019	-60.5
4137.427	-62.5
4139.833	-60.5
4142.237	-57.5
