Data from 2018-3-7_conc=0_n=4_RamanShift_02.txt Node
Date: Wed Mar 07 10:15:23 IST 2018
User: aro
Spectrometer: QEPB0276
Trigger mode: 0
Integration Time (sec): 3.000000E1
Scans to average: 1
Electric dark correction enabled: true
Nonlinearity correction enabled: false
Boxcar width: 0
XAxis mode: Raman Shifts
Number of Pixels in Spectrum: 1044
>>>>>Begin Spectral Data<<<<<
160.701	14.4
166.742	33.4
172.777	51.4
178.805	168.4
184.826	439.4
190.841	919.4
196.849	1560.4
202.85	2020.4
208.845	2218.4
214.833	2249.4
220.815	2219.4
226.789	2209.4
232.758	2236.4
238.719	2241.4
244.674	2228.4
250.623	2231.4
256.565	2219.4
262.5	2181.4
268.429	2170.4
274.351	2190.4
280.267	2169.4
286.176	2183.4
292.079	2170.4
297.975	2182.4
303.865	2179.4
309.748	2187.4
315.625	2168.4
321.495	2179.4
327.359	2183.4
333.217	2178.4
339.068	2210.4
344.912	2229.4
350.751	2234.4
356.583	2226.4
362.408	2217.4
368.227	2250.4
374.04	2282.4
379.847	2275.4
385.647	2279.4
391.44	2291.4
397.228	2301.4
403.009	2322.4
408.784	2355.4
414.553	2357.4
420.315	2360.4
426.071	2363.4
431.821	2389.4
437.565	2402.4
443.302	2391.4
449.033	2371.4
454.758	2358.4
460.477	2319.4
466.189	2309.4
471.896	2278.4
477.596	2246.4
483.29	2241.4
488.978	2242.4
494.66	2247.4
500.335	2204.4
506.005	2114.4
511.668	2016.4
517.325	1906.4
522.977	1807.4
528.622	1767.4
534.261	1742.4
539.894	1684.4
545.521	1668.4
551.141	1658.4
556.756	1631.4
562.365	1610.4
567.968	1590.4
573.565	1582.4
579.155	1564.4
584.74	1571.4
590.319	1550.4
595.892	1587.4
601.459	1553.4
607.02	1547.4
612.575	1547.4
618.124	1535.4
623.667	1506.4
629.204	1487.4
634.735	1474.4
640.261	1454.4
645.781	1441.4
651.294	1441.4
656.802	1422.4
662.304	1442.4
667.8	1418.4
673.29	1425.4
678.775	1413.4
684.254	1406.4
689.726	1400.4
695.193	1397.4
700.655	1384.4
706.11	1387.4
711.56	1377.4
717.004	1350.4
722.442	1353.4
727.874	1345.4
733.301	1327.4
738.722	1326.4
744.137	1325.4
749.547	1339.4
754.951	1320.4
760.349	1336.4
765.741	1336.4
771.128	1338.4
776.509	1365.4
781.885	1390.4
787.254	1387.4
792.618	1400.4
797.977	1399.4
803.33	1371.4
808.677	1376.4
814.019	1379.4
819.355	1368.4
824.686	1336.4
830.011	1339.4
835.33	1327.4
840.644	1328.4
845.952	1326.4
851.255	1306.4
856.552	1316.4
861.844	1299.4
867.13	1308.4
872.41	1365.4
877.686	1400.4
882.955	1471.4
888.219	1451.4
893.478	1377.4
898.731	1280.4
903.979	1217.4
909.221	1192.4
914.458	1171.4
919.69	1168.4
924.916	1167.4
930.136	1173.4
935.351	1173.4
940.561	1169.4
945.766	1167.4
950.965	1156.4
956.158	1137.4
961.347	1134.4
966.529	1124.4
971.707	1108.4
976.879	1097.4
982.046	1085.4
987.208	1089.4
992.364	1090.4
997.515	1081.4
1002.66	1071.4
1007.801	1091.4
1012.936	1120.4
1018.066	1128.4
1023.19	1148.4
1028.309	1135.4
1033.423	1148.4
1038.532	1141.4
1043.636	1145.4
1048.734	1152.4
1053.827	1150.4
1058.915	1149.4
1063.998	1120.4
1069.075	1095.4
1074.147	1098.4
1079.214	1109.4
1084.276	1138.4
1089.333	1146.4
1094.385	1148.4
1099.431	1128.4
1104.472	1112.4
1109.509	1075.4
1114.54	1057.4
1119.565	1037.4
1124.586	1024.4
1129.602	1015.4
1134.613	1007.4
1139.618	993.4
1144.619	985.4
1149.614	1001.4
1154.604	984.4
1159.589	979.4
1164.57	996.4
1169.545	989.4
1174.515	992.4
1179.48	989.4
1184.44	982.4
1189.395	986.4
1194.345	956.4
1199.29	947.4
1204.23	945.4
1209.165	947.4
1214.095	978.4
1219.021	974.4
1223.941	975.4
1228.856	971.4
1233.766	989.4
1238.672	985.4
1243.572	973.4
1248.467	968.4
1253.358	949.4
1258.244	941.4
1263.124	921.4
1268	926.4
1272.871	915.4
1277.737	908.4
1282.599	920.4
1287.455	915.4
1292.306	901.4
1297.153	908.4
1301.995	895.4
1306.832	907.4
1311.664	918.4
1316.491	904.4
1321.314	903.4
1326.132	894.4
1330.945	872.4
1335.753	854.4
1340.556	840.4
1345.354	819.4
1350.148	808.4
1354.937	782.4
1359.722	774.4
1364.501	756.4
1369.276	738.4
1374.046	734.4
1378.811	734.4
1383.572	730.4
1388.327	725.4
1393.079	723.4
1397.825	736.4
1402.567	750.4
1407.304	744.4
1412.036	753.4
1416.764	747.4
1421.487	756.4
1426.205	766.4
1430.919	759.4
1435.628	775.4
1440.333	793.4
1445.032	797.4
1449.727	834.4
1454.418	838.4
1459.104	857.4
1463.785	849.4
1468.462	803.4
1473.134	755.4
1477.802	715.4
1482.465	687.4
1487.123	676.4
1491.777	667.4
1496.426	650.4
1501.071	639.4
1505.711	620.4
1510.347	610.4
1514.978	605.4
1519.604	607.4
1524.226	599.4
1528.844	590.4
1533.457	598.4
1538.065	602.4
1542.669	595.4
1547.269	593.4
1551.864	611.4
1556.454	614.4
1561.041	619.4
1565.622	634.4
1570.199	625.4
1574.772	645.4
1579.34	641.4
1583.904	645.4
1588.464	654.4
1593.019	646.4
1597.569	641.4
1602.115	660.4
1606.657	643.4
1611.195	638.4
1615.728	641.4
1620.256	645.4
1624.78	620.4
1629.3	636.4
1633.816	629.4
1638.327	641.4
1642.834	628.4
1647.336	624.4
1651.834	629.4
1656.328	614.4
1660.817	618.4
1665.302	611.4
1669.783	595.4
1674.259	588.4
1678.732	562.4
1683.199	533.4
1687.663	522.4
1692.122	486.4
1696.577	468.4
1701.028	457.4
1705.474	427.4
1709.917	426.4
1714.355	412.4
1718.788	410.4
1723.218	406.4
1727.643	413.4
1732.064	411.4
1736.481	418.4
1740.893	402.4
1745.301	400.4
1749.705	386.4
1754.105	392.4
1758.501	380.4
1762.893	373.4
1767.28	351.4
1771.663	355.4
1776.042	334.4
1780.417	332.4
1784.787	328.4
1789.154	316.4
1793.516	308.4
1797.874	305.4
1802.228	305.4
1806.578	303.4
1810.924	296.4
1815.266	303.4
1819.603	302.4
1823.937	305.4
1828.266	308.4
1832.591	323.4
1836.913	309.4
1841.23	312.4
1845.543	305.4
1849.852	324.4
1854.156	318.4
1858.457	322.4
1862.754	318.4
1867.047	303.4
1871.335	309.4
1875.62	315.4
1879.9	313.4
1884.177	294.4
1888.449	303.4
1892.718	297.4
1896.982	283.4
1901.243	274.4
1905.499	271.4
1909.752	265.4
1914	259.4
1918.245	252.4
1922.485	249.4
1926.722	243.4
1930.954	232.4
1935.183	237.4
1939.408	233.4
1943.628	227.4
1947.845	231.4
1952.058	237.4
1956.267	236.4
1960.472	236.4
1964.673	221.4
1968.87	224.4
1973.063	224.4
1977.252	224.4
1981.438	237.4
1985.619	227.4
1989.797	224.4
1993.971	233.4
1998.14	232.4
2002.306	233.4
2006.469	242.4
2010.627	227.4
2014.781	242.4
2018.932	233.4
2023.078	243.4
2027.221	234.4
2031.36	232.4
2035.495	224.4
2039.627	220.4
2043.754	214.4
2047.878	215.4
2051.998	217.4
2056.114	207.4
2060.226	209.4
2064.334	205.4
2068.439	202.4
2072.54	204.4
2076.637	206.4
2080.73	196.4
2084.82	195.4
2088.906	189.4
2092.988	194.4
2097.066	183.4
2101.14	191.4
2105.211	179.4
2109.278	185.4
2113.342	176.4
2117.401	177.4
2121.457	176.4
2125.509	174.4
2129.558	181.4
2133.602	183.4
2137.643	174.4
2141.681	189.4
2145.714	181.4
2149.744	184.4
2153.77	184.4
2157.793	183.4
2161.812	193.4
2165.827	184.4
2169.838	173.4
2173.846	179.4
2177.851	172.4
2181.851	176.4
2185.848	171.4
2189.841	171.4
2193.831	167.4
2197.817	172.4
2201.799	164.4
2205.778	171.4
2209.753	165.4
2213.725	173.4
2217.693	171.4
2221.657	168.4
2225.618	167.4
2229.575	157.4
2233.529	164.4
2237.479	164.4
2241.425	156.4
2245.368	156.4
2249.307	162.4
2253.243	158.4
2257.175	151.4
2261.104	147.4
2265.029	148.4
2268.95	152.4
2272.868	149.4
2276.783	147.4
2280.694	142.4
2284.601	139.4
2288.505	147.4
2292.405	145.4
2296.302	139.4
2300.195	137.4
2304.085	130.4
2307.971	131.4
2311.854	141.4
2315.734	127.4
2319.609	135.4
2323.482	128.4
2327.351	133.4
2331.216	151.4
2335.078	161.4
2338.937	155.4
2342.792	133.4
2346.643	135.4
2350.492	135.4
2354.336	129.4
2358.178	128.4
2362.015	134.4
2365.85	134.4
2369.681	138.4
2373.508	141.4
2377.333	143.4
2381.153	132.4
2384.971	134.4
2388.785	127.4
2392.595	138.4
2396.402	134.4
2400.206	136.4
2404.007	135.4
2407.804	128.4
2411.597	123.4
2415.388	125.4
2419.174	128.4
2422.958	125.4
2426.738	134.4
2430.515	128.4
2434.289	130.4
2438.059	122.4
2441.825	114.4
2445.589	120.4
2449.349	116.4
2453.106	120.4
2456.859	114.4
2460.61	114.4
2464.356	115.4
2468.1	111.4
2471.84	110.4
2475.577	106.4
2479.311	106.4
2483.041	115.4
2486.768	102.4
2490.492	106.4
2494.213	102.4
2497.93	100.4
2501.644	97.4
2505.355	94.4
2509.062	98.4
2512.766	100.4
2516.467	93.4
2520.165	91.4
2523.859	94.4
2527.551	87.4
2531.239	78.4
2534.923	76.4
2538.605	77.4
2542.283	77.4
2545.958	88.4
2549.63	86.4
2553.299	74.4
2556.964	69.4
2560.626	73.4
2564.285	78.4
2567.941	74.4
2571.594	74.4
2575.243	75.4
2578.89	67.4
2582.533	67.4
2586.173	72.4
2589.809	67.4
2593.443	70.4
2597.073	67.4
2600.701	74.4
2604.325	63.4
2607.946	63.4
2611.564	63.4
2615.178	59.4
2618.79	64.4
2622.398	58.4
2626.004	59.4
2629.606	59.4
2633.205	60.4
2636.801	62.4
2640.394	65.4
2643.983	55.4
2647.57	59.4
2651.153	54.4
2654.734	61.4
2658.311	59.4
2661.885	64.4
2665.456	52.4
2669.025	55.4
2672.589	48.4
2676.151	61.4
2679.71	51.4
2683.266	56.4
2686.819	62.4
2690.368	49.4
2693.915	52.4
2697.458	49.4
2700.999	54.4
2704.536	49.4
2708.071	50.4
2711.602	42.4
2715.13	41.4
2718.656	48.4
2722.178	47.4
2725.697	46.4
2729.214	44.4
2732.727	50.4
2736.237	49.4
2739.744	37.4
2743.249	41.4
2746.75	37.4
2750.248	34.4
2753.743	31.4
2757.236	29.4
2760.725	31.4
2764.211	34.4
2767.695	27.4
2771.175	20.4
2774.652	20.4
2778.127	28.4
2781.598	25.4
2785.067	26.4
2788.532	22.4
2791.995	32.4
2795.455	25.4
2798.911	32.4
2802.365	28.4
2805.816	34.4
2809.264	28.4
2812.709	25.4
2816.151	30.4
2819.59	48.4
2823.026	30.4
2826.46	37.4
2829.89	36.4
2833.318	37.4
2836.742	34.4
2840.164	39.4
2843.583	40.4
2846.999	46.4
2850.412	44.4
2853.822	51.4
2857.229	53.4
2860.634	42.4
2864.035	52.4
2867.434	56.4
2870.83	60.4
2874.223	58.4
2877.613	71.4
2881	92.4
2884.385	96.4
2887.766	99.4
2891.145	91.4
2894.521	87.4
2897.894	85.4
2901.264	89.4
2904.631	89.4
2907.996	90.4
2911.358	103.4
2914.717	94.4
2918.073	95.4
2921.426	90.4
2924.777	103.4
2928.124	117.4
2931.469	122.4
2934.811	135.4
2938.15	141.4
2941.487	152.4
2944.821	138.4
2948.152	130.4
2951.48	118.4
2954.805	107.4
2958.128	106.4
2961.447	98.4
2964.765	89.4
2968.079	89.4
2971.39	85.4
2974.699	85.4
2978.005	90.4
2981.308	84.4
2984.609	85.4
2987.907	87.4
2991.202	80.4
2994.494	75.4
2997.784	67.4
3001.07	68.4
3004.355	65.4
3007.636	68.4
3010.915	67.4
3014.191	58.4
3017.464	62.4
3020.734	65.4
3024.002	67.4
3027.267	69.4
3030.53	67.4
3033.789	66.4
3037.046	65.4
3040.301	64.4
3043.552	66.4
3046.801	80.4
3050.048	72.4
3053.291	72.4
3056.532	81.4
3059.771	76.4
3063.006	78.4
3066.239	88.4
3069.469	90.4
3072.697	97.4
3075.922	98.4
3079.144	94.4
3082.364	95.4
3085.581	91.4
3088.795	104.4
3092.007	112.4
3095.216	118.4
3098.423	110.4
3101.627	101.4
3104.828	117.4
3108.026	115.4
3111.222	123.4
3114.416	121.4
3117.607	122.4
3120.795	130.4
3123.98	132.4
3127.163	144.4
3130.344	138.4
3133.521	145.4
3136.696	151.4
3139.869	153.4
3143.039	148.4
3146.206	152.4
3149.371	147.4
3152.533	161.4
3155.693	161.4
3158.85	160.4
3162.005	161.4
3165.157	155.4
3168.306	156.4
3171.453	151.4
3174.597	157.4
3177.739	156.4
3180.878	163.4
3184.014	157.4
3187.149	158.4
3190.28	161.4
3193.409	164.4
3196.536	163.4
3199.659	171.4
3202.781	165.4
3205.9	156.4
3209.016	161.4
3212.13	166.4
3215.241	159.4
3218.35	155.4
3221.456	160.4
3224.56	149.4
3227.661	150.4
3230.76	149.4
3233.856	146.4
3236.95	126.4
3240.041	126.4
3243.13	130.4
3246.216	130.4
3249.3	131.4
3252.382	129.4
3255.46	125.4
3258.537	117.4
3261.611	118.4
3264.682	122.4
3267.751	117.4
3270.818	111.4
3273.882	112.4
3276.943	118.4
3280.002	117.4
3283.059	112.4
3286.113	105.4
3289.165	106.4
3292.214	115.4
3295.261	109.4
3298.306	105.4
3301.348	116.4
3304.387	107.4
3307.425	102.4
3310.459	97.4
3313.492	102.4
3316.521	109.4
3319.549	114.4
3322.574	105.4
3325.597	104.4
3328.617	98.4
3331.635	102.4
3334.65	107.4
3337.663	93.4
3340.674	104.4
3343.682	102.4
3346.688	104.4
3349.691	110.4
3352.692	99.4
3355.691	102.4
3358.687	99.4
3361.681	98.4
3364.673	106.4
3367.662	95.4
3370.649	99.4
3373.633	92.4
3376.615	93.4
3379.595	92.4
3382.572	80.4
3385.547	96.4
3388.52	88.4
3391.49	82.4
3394.458	75.4
3397.424	72.4
3400.387	80.4
3403.348	73.4
3406.307	68.4
3409.263	74.4
3412.217	70.4
3415.168	72.4
3418.118	68.4
3421.065	61.4
3424.009	62.4
3426.951	60.4
3429.891	64.4
3432.829	59.4
3435.764	64.4
3438.697	54.4
3441.628	48.4
3444.557	47.4
3447.483	52.4
3450.407	38.4
3453.328	41.4
3456.247	40.4
3459.164	33.4
3462.079	28.4
3464.991	27.4
3467.902	26.4
3470.809	25.4
3473.715	21.4
3476.618	22.4
3479.519	13.4
3482.418	8.4
3485.315	9.4
3488.209	2.4
3491.101	5.4
3493.99	15.4
3496.878	3.4
3499.763	-2.6
3502.646	1.4
3505.527	0.4
3508.405	-6.6
3511.281	1.4
3514.155	-8.6
3517.027	-12.6
3519.897	-10.6
3522.764	-15.6
3525.629	-8.6
3528.492	-18.6
3531.352	-23.6
3534.211	-20.6
3537.067	-23.6
3539.921	-18.6
3542.773	-25.6
3545.622	-20.6
3548.469	-31.6
3551.315	-27.6
3554.157	-30.6
3556.998	-28.6
3559.837	-27.6
3562.673	-27.6
3565.507	-32.6
3568.339	-32.6
3571.169	-31.6
3573.996	-30.6
3576.822	-39.6
3579.645	-36.6
3582.466	-33.6
3585.285	-33.6
3588.101	-40.6
3590.916	-34.6
3593.728	-43.6
3596.538	-41.6
3599.346	-46.6
3602.152	-39.6
3604.956	-42.6
3607.757	-35.6
3610.556	-40.6
3613.354	-46.6
3616.149	-46.6
3618.942	-42.6
3621.732	-44.6
3624.521	-45.6
3627.307	-47.6
3630.092	-44.6
3632.874	-52.6
3635.654	-50.6
3638.432	-49.6
3641.208	-46.6
3643.982	-41.6
3646.753	-48.6
3649.523	-53.6
3652.29	-56.6
3655.055	-52.6
3657.818	-55.6
3660.579	-53.6
3663.338	-49.6
3666.095	-58.6
3668.849	-57.6
3671.602	-54.6
3674.352	-47.6
3677.101	-56.6
3679.847	-51.6
3682.591	-54.6
3685.333	-51.6
3688.073	-60.6
3690.811	-52.6
3693.547	-57.6
3696.281	-54.6
3699.013	-61.6
3701.742	-55.6
3704.47	-47.6
3707.195	-54.6
3709.919	-56.6
3712.64	-57.6
3715.359	-56.6
3718.076	-61.6
3720.792	-58.6
3723.505	-56.6
3726.216	-55.6
3728.925	-60.6
3731.632	-57.6
3734.336	-57.6
3737.039	-57.6
3739.74	-60.6
3742.439	-62.6
3745.136	-60.6
3747.83	-52.6
3750.523	-60.6
3753.213	-77.6
3755.902	-61.6
3758.589	-60.6
3761.273	-57.6
3763.956	-64.6
3766.636	-55.6
3769.315	-54.6
3771.991	-58.6
3774.665	-67.6
3777.338	-56.6
3780.008	-59.6
3782.677	-65.6
3785.343	-57.6
3788.007	-61.6
3790.67	-59.6
3793.33	-59.6
3795.989	-65.6
3798.645	-63.6
3801.299	-59.6
3803.952	-62.6
3806.602	-56.6
3809.251	-57.6
3811.897	-67.6
3814.542	-62.6
3817.184	-66.6
3819.825	-57.6
3822.463	-60.6
3825.1	-54.6
3827.735	-67.6
3830.367	-57.6
3832.998	-66.6
3835.627	-63.6
3838.253	-59.6
3840.878	-57.6
3843.501	-58.6
3846.122	-62.6
3848.741	-61.6
3851.358	-58.6
3853.973	-59.6
3856.586	-59.6
3859.197	-60.6
3861.806	-61.6
3864.414	-61.6
3867.019	-58.6
3869.622	-55.6
3872.224	-51.6
3874.823	-48.6
3877.421	-40.6
3880.016	-29.6
3882.61	-14.6
3885.202	-11.6
3887.792	-14.6
3890.38	-34.6
3892.966	-45.6
3895.55	-57.6
3898.132	-60.6
3900.713	-58.6
3903.291	-62.6
3905.868	-59.6
3908.442	-64.6
3911.015	-60.6
3913.586	-65.6
3916.155	-61.6
3918.722	-60.6
3921.287	-60.6
3923.85	-54.6
3926.411	-65.6
3928.971	-69.6
3931.528	-67.6
3934.084	-62.6
3936.638	-63.6
3939.19	-67.6
3941.74	-58.6
3944.288	-63.6
3946.834	-62.6
3949.378	-63.6
3951.921	-65.6
3954.462	-61.6
3957	-53.6
3959.537	-51.6
3962.072	-55.6
3964.606	-63.6
3967.137	-63.6
3969.667	-63.6
3972.194	-65.6
3974.72	-58.6
3977.244	-59.6
3979.766	-61.6
3982.286	-61.6
3984.805	-65.6
3987.321	-65.6
3989.836	-58.6
3992.349	-60.6
3994.86	-67.6
3997.369	-60.6
3999.877	-60.6
4002.382	-63.6
4004.886	-59.6
4007.388	-63.6
4009.888	-64.6
4012.386	-63.6
4014.883	-58.6
4017.377	-58.6
4019.87	-61.6
4022.361	-71.6
4024.85	-62.6
4027.338	-66.6
4029.823	-64.6
4032.307	-65.6
4034.789	-60.6
4037.269	-60.6
4039.747	-64.6
4042.224	-66.6
4044.699	-59.6
4047.172	-67.6
4049.643	-61.6
4052.112	-59.6
4054.58	-59.6
4057.046	-58.6
4059.51	-64.6
4061.972	-69.6
4064.432	-60.6
4066.891	-56.6
4069.348	-60.6
4071.803	-56.6
4074.256	-60.6
4076.708	-57.6
4079.158	-61.6
4081.606	-56.6
4084.052	-58.6
4086.497	-59.6
4088.939	-57.6
4091.38	-64.6
4093.819	-66.6
4096.257	-64.6
4098.693	-68.6
4101.127	-59.6
4103.559	-64.6
4105.989	20.4
4108.418	17.4
4110.845	13.4
4113.27	5.4
4115.694	9.4
4118.115	11.4
4120.535	-61.6
4122.954	-60.6
4125.37	-62.6
4127.785	-53.6
4130.198	-61.6
4132.609	-60.6
4135.019	-66.6
4137.427	-71.6
4139.833	-63.6
4142.237	-65.6
