Data from 2018-3-7_conc=0_n=6_RamanShift_06.txt Node
Date: Wed Mar 07 10:24:52 IST 2018
User: aro
Spectrometer: QEPB0276
Trigger mode: 0
Integration Time (sec): 3.000000E1
Scans to average: 1
Electric dark correction enabled: true
Nonlinearity correction enabled: false
Boxcar width: 0
XAxis mode: Raman Shifts
Number of Pixels in Spectrum: 1044
>>>>>Begin Spectral Data<<<<<
160.701	12.9
166.742	20.9
172.777	55.9
178.805	144.9
184.826	392.9
190.841	816.9
196.849	1369.9
202.85	1746.9
208.845	1927.9
214.833	1924.9
220.815	1922.9
226.789	1927.9
232.758	1935.9
238.719	1938.9
244.674	1928.9
250.623	1946.9
256.565	1933.9
262.5	1913.9
268.429	1903.9
274.351	1901.9
280.267	1911.9
286.176	1893.9
292.079	1929.9
297.975	1918.9
303.865	1932.9
309.748	1916.9
315.625	1942.9
321.495	1947.9
327.359	1955.9
333.217	1948.9
339.068	1980.9
344.912	1983.9
350.751	1965.9
356.583	1979.9
362.408	1999.9
368.227	1984.9
374.04	2023.9
379.847	1996.9
385.647	2033.9
391.44	2055.9
397.228	2069.9
403.009	2086.9
408.784	2070.9
414.553	2114.9
420.315	2094.9
426.071	2105.9
431.821	2098.9
437.565	2122.9
443.302	2115.9
449.033	2116.9
454.758	2101.9
460.477	2039.9
466.189	2044.9
471.896	2023.9
477.596	2000.9
483.29	1996.9
488.978	1977.9
494.66	1963.9
500.335	1916.9
506.005	1840.9
511.668	1751.9
517.325	1656.9
522.977	1563.9
528.622	1527.9
534.261	1497.9
539.894	1451.9
545.521	1441.9
551.141	1409.9
556.756	1398.9
562.365	1380.9
567.968	1363.9
573.565	1349.9
579.155	1339.9
584.74	1339.9
590.319	1342.9
595.892	1343.9
601.459	1334.9
607.02	1328.9
612.575	1310.9
618.124	1309.9
623.667	1284.9
629.204	1264.9
634.735	1248.9
640.261	1246.9
645.781	1222.9
651.294	1229.9
656.802	1202.9
662.304	1219.9
667.8	1206.9
673.29	1201.9
678.775	1208.9
684.254	1193.9
689.726	1182.9
695.193	1175.9
700.655	1157.9
706.11	1176.9
711.56	1156.9
717.004	1143.9
722.442	1153.9
727.874	1133.9
733.301	1138.9
738.722	1125.9
744.137	1118.9
749.547	1114.9
754.951	1120.9
760.349	1140.9
765.741	1122.9
771.128	1143.9
776.509	1154.9
781.885	1187.9
787.254	1185.9
792.618	1207.9
797.977	1177.9
803.33	1176.9
808.677	1191.9
814.019	1161.9
819.355	1165.9
824.686	1149.9
830.011	1145.9
835.33	1139.9
840.644	1117.9
845.952	1119.9
851.255	1103.9
856.552	1115.9
861.844	1084.9
867.13	1098.9
872.41	1107.9
877.686	1154.9
882.955	1168.9
888.219	1158.9
893.478	1110.9
898.731	1051.9
903.979	1018.9
909.221	993.9
914.458	994.9
919.69	991.9
924.916	976.9
930.136	977.9
935.351	1000.9
940.561	992.9
945.766	981.9
950.965	979.9
956.158	967.9
961.347	954.9
966.529	955.9
971.707	932.9
976.879	913.9
982.046	905.9
987.208	916.9
992.364	899.9
997.515	901.9
1002.66	907.9
1007.801	926.9
1012.936	941.9
1018.066	950.9
1023.19	946.9
1028.309	947.9
1033.423	950.9
1038.532	952.9
1043.636	962.9
1048.734	962.9
1053.827	962.9
1058.915	956.9
1063.998	928.9
1069.075	916.9
1074.147	926.9
1079.214	920.9
1084.276	930.9
1089.333	956.9
1094.385	951.9
1099.431	919.9
1104.472	925.9
1109.509	895.9
1114.54	881.9
1119.565	862.9
1124.586	876.9
1129.602	841.9
1134.613	838.9
1139.618	838.9
1144.619	831.9
1149.614	839.9
1154.604	831.9
1159.589	831.9
1164.57	835.9
1169.545	840.9
1174.515	827.9
1179.48	840.9
1184.44	836.9
1189.395	819.9
1194.345	815.9
1199.29	804.9
1204.23	814.9
1209.165	802.9
1214.095	821.9
1219.021	814.9
1223.941	825.9
1228.856	826.9
1233.766	833.9
1238.672	821.9
1243.572	821.9
1248.467	820.9
1253.358	801.9
1258.244	801.9
1263.124	778.9
1268	771.9
1272.871	761.9
1277.737	767.9
1282.599	771.9
1287.455	759.9
1292.306	765.9
1297.153	753.9
1301.995	756.9
1306.832	765.9
1311.664	754.9
1316.491	769.9
1321.314	756.9
1326.132	761.9
1330.945	726.9
1335.753	719.9
1340.556	701.9
1345.354	699.9
1350.148	688.9
1354.937	664.9
1359.722	652.9
1364.501	641.9
1369.276	630.9
1374.046	622.9
1378.811	611.9
1383.572	627.9
1388.327	616.9
1393.079	622.9
1397.825	632.9
1402.567	628.9
1407.304	637.9
1412.036	631.9
1416.764	638.9
1421.487	635.9
1426.205	644.9
1430.919	636.9
1435.628	654.9
1440.333	659.9
1445.032	658.9
1449.727	678.9
1454.418	691.9
1459.104	686.9
1463.785	671.9
1468.462	655.9
1473.134	634.9
1477.802	599.9
1482.465	581.9
1487.123	570.9
1491.777	550.9
1496.426	553.9
1501.071	544.9
1505.711	539.9
1510.347	533.9
1514.978	512.9
1519.604	516.9
1524.226	508.9
1528.844	515.9
1533.457	507.9
1538.065	516.9
1542.669	499.9
1547.269	507.9
1551.864	525.9
1556.454	533.9
1561.041	539.9
1565.622	555.9
1570.199	539.9
1574.772	550.9
1579.34	558.9
1583.904	554.9
1588.464	561.9
1593.019	565.9
1597.569	554.9
1602.115	559.9
1606.657	553.9
1611.195	542.9
1615.728	547.9
1620.256	537.9
1624.78	544.9
1629.3	542.9
1633.816	541.9
1638.327	541.9
1642.834	545.9
1647.336	537.9
1651.834	528.9
1656.328	538.9
1660.817	528.9
1665.302	513.9
1669.783	501.9
1674.259	495.9
1678.732	488.9
1683.199	467.9
1687.663	451.9
1692.122	425.9
1696.577	419.9
1701.028	396.9
1705.474	380.9
1709.917	368.9
1714.355	370.9
1718.788	361.9
1723.218	356.9
1727.643	367.9
1732.064	368.9
1736.481	365.9
1740.893	358.9
1745.301	345.9
1749.705	352.9
1754.105	330.9
1758.501	312.9
1762.893	321.9
1767.28	304.9
1771.663	307.9
1776.042	308.9
1780.417	306.9
1784.787	296.9
1789.154	278.9
1793.516	281.9
1797.874	274.9
1802.228	272.9
1806.578	270.9
1810.924	263.9
1815.266	257.9
1819.603	270.9
1823.937	278.9
1828.266	267.9
1832.591	285.9
1836.913	267.9
1841.23	276.9
1845.543	273.9
1849.852	282.9
1854.156	293.9
1858.457	278.9
1862.754	273.9
1867.047	270.9
1871.335	266.9
1875.62	270.9
1879.9	271.9
1884.177	262.9
1888.449	261.9
1892.718	259.9
1896.982	253.9
1901.243	234.9
1905.499	249.9
1909.752	232.9
1914	235.9
1918.245	223.9
1922.485	222.9
1926.722	213.9
1930.954	215.9
1935.183	215.9
1939.408	212.9
1943.628	209.9
1947.845	214.9
1952.058	219.9
1956.267	205.9
1960.472	213.9
1964.673	204.9
1968.87	201.9
1973.063	205.9
1977.252	211.9
1981.438	206.9
1985.619	210.9
1989.797	205.9
1993.971	210.9
1998.14	212.9
2002.306	212.9
2006.469	216.9
2010.627	210.9
2014.781	215.9
2018.932	201.9
2023.078	211.9
2027.221	202.9
2031.36	204.9
2035.495	200.9
2039.627	191.9
2043.754	190.9
2047.878	190.9
2051.998	197.9
2056.114	194.9
2060.226	187.9
2064.334	184.9
2068.439	173.9
2072.54	180.9
2076.637	177.9
2080.73	172.9
2084.82	174.9
2088.906	176.9
2092.988	169.9
2097.066	170.9
2101.14	172.9
2105.211	167.9
2109.278	168.9
2113.342	162.9
2117.401	164.9
2121.457	159.9
2125.509	157.9
2129.558	153.9
2133.602	159.9
2137.643	172.9
2141.681	162.9
2145.714	159.9
2149.744	161.9
2153.77	165.9
2157.793	158.9
2161.812	173.9
2165.827	167.9
2169.838	150.9
2173.846	155.9
2177.851	153.9
2181.851	154.9
2185.848	147.9
2189.841	148.9
2193.831	142.9
2197.817	152.9
2201.799	153.9
2205.778	151.9
2209.753	152.9
2213.725	158.9
2217.693	142.9
2221.657	138.9
2225.618	146.9
2229.575	138.9
2233.529	142.9
2237.479	145.9
2241.425	140.9
2245.368	143.9
2249.307	139.9
2253.243	140.9
2257.175	133.9
2261.104	129.9
2265.029	128.9
2268.95	129.9
2272.868	134.9
2276.783	129.9
2280.694	124.9
2284.601	113.9
2288.505	120.9
2292.405	123.9
2296.302	126.9
2300.195	116.9
2304.085	121.9
2307.971	113.9
2311.854	113.9
2315.734	112.9
2319.609	116.9
2323.482	108.9
2327.351	122.9
2331.216	129.9
2335.078	143.9
2338.937	133.9
2342.792	124.9
2346.643	117.9
2350.492	118.9
2354.336	117.9
2358.178	112.9
2362.015	114.9
2365.85	108.9
2369.681	120.9
2373.508	117.9
2377.333	123.9
2381.153	114.9
2384.971	114.9
2388.785	108.9
2392.595	116.9
2396.402	117.9
2400.206	110.9
2404.007	112.9
2407.804	112.9
2411.597	108.9
2415.388	112.9
2419.174	115.9
2422.958	107.9
2426.738	114.9
2430.515	108.9
2434.289	103.9
2438.059	112.9
2441.825	104.9
2445.589	102.9
2449.349	106.9
2453.106	109.9
2456.859	95.9
2460.61	93.9
2464.356	99.9
2468.1	90.9
2471.84	92.9
2475.577	90.9
2479.311	96.9
2483.041	89.9
2486.768	89.9
2490.492	87.9
2494.213	79.9
2497.93	90.9
2501.644	85.9
2505.355	83.9
2509.062	81.9
2512.766	77.9
2516.467	84.9
2520.165	79.9
2523.859	73.9
2527.551	67.9
2531.239	81.9
2534.923	64.9
2538.605	76.9
2542.283	61.9
2545.958	69.9
2549.63	70.9
2553.299	68.9
2556.964	59.9
2560.626	62.9
2564.285	66.9
2567.941	64.9
2571.594	61.9
2575.243	66.9
2578.89	57.9
2582.533	61.9
2586.173	60.9
2589.809	62.9
2593.443	58.9
2597.073	59.9
2600.701	57.9
2604.325	52.9
2607.946	49.9
2611.564	61.9
2615.178	57.9
2618.79	57.9
2622.398	51.9
2626.004	53.9
2629.606	48.9
2633.205	54.9
2636.801	50.9
2640.394	60.9
2643.983	54.9
2647.57	52.9
2651.153	45.9
2654.734	47.9
2658.311	51.9
2661.885	48.9
2665.456	55.9
2669.025	53.9
2672.589	45.9
2676.151	50.9
2679.71	40.9
2683.266	40.9
2686.819	48.9
2690.368	41.9
2693.915	40.9
2697.458	44.9
2700.999	43.9
2704.536	49.9
2708.071	41.9
2711.602	39.9
2715.13	30.9
2718.656	34.9
2722.178	29.9
2725.697	34.9
2729.214	33.9
2732.727	40.9
2736.237	35.9
2739.744	35.9
2743.249	29.9
2746.75	31.9
2750.248	23.9
2753.743	28.9
2757.236	24.9
2760.725	25.9
2764.211	21.9
2767.695	21.9
2771.175	19.9
2774.652	20.9
2778.127	18.9
2781.598	17.9
2785.067	20.9
2788.532	18.9
2791.995	29.9
2795.455	27.9
2798.911	25.9
2802.365	29.9
2805.816	25.9
2809.264	21.9
2812.709	20.9
2816.151	24.9
2819.59	34.9
2823.026	28.9
2826.46	28.9
2829.89	33.9
2833.318	29.9
2836.742	26.9
2840.164	27.9
2843.583	34.9
2846.999	32.9
2850.412	36.9
2853.822	35.9
2857.229	41.9
2860.634	33.9
2864.035	33.9
2867.434	39.9
2870.83	43.9
2874.223	44.9
2877.613	46.9
2881	56.9
2884.385	59.9
2887.766	61.9
2891.145	58.9
2894.521	61.9
2897.894	60.9
2901.264	63.9
2904.631	52.9
2907.996	60.9
2911.358	67.9
2914.717	61.9
2918.073	55.9
2921.426	61.9
2924.777	65.9
2928.124	69.9
2931.469	78.9
2934.811	91.9
2938.15	102.9
2941.487	95.9
2944.821	86.9
2948.152	90.9
2951.48	77.9
2954.805	70.9
2958.128	73.9
2961.447	64.9
2964.765	63.9
2968.079	64.9
2971.39	60.9
2974.699	57.9
2978.005	69.9
2981.308	58.9
2984.609	53.9
2987.907	58.9
2991.202	59.9
2994.494	55.9
2997.784	48.9
3001.07	51.9
3004.355	54.9
3007.636	52.9
3010.915	46.9
3014.191	46.9
3017.464	46.9
3020.734	51.9
3024.002	52.9
3027.267	54.9
3030.53	54.9
3033.789	51.9
3037.046	47.9
3040.301	46.9
3043.552	60.9
3046.801	61.9
3050.048	65.9
3053.291	57.9
3056.532	60.9
3059.771	53.9
3063.006	67.9
3066.239	66.9
3069.469	70.9
3072.697	78.9
3075.922	83.9
3079.144	76.9
3082.364	83.9
3085.581	83.9
3088.795	86.9
3092.007	91.9
3095.216	91.9
3098.423	89.9
3101.627	93.9
3104.828	100.9
3108.026	99.9
3111.222	99.9
3114.416	99.9
3117.607	101.9
3120.795	102.9
3123.98	107.9
3127.163	121.9
3130.344	112.9
3133.521	109.9
3136.696	118.9
3139.869	131.9
3143.039	120.9
3146.206	129.9
3149.371	123.9
3152.533	136.9
3155.693	127.9
3158.85	131.9
3162.005	133.9
3165.157	136.9
3168.306	127.9
3171.453	129.9
3174.597	135.9
3177.739	135.9
3180.878	141.9
3184.014	127.9
3187.149	130.9
3190.28	131.9
3193.409	134.9
3196.536	128.9
3199.659	133.9
3202.781	130.9
3205.9	129.9
3209.016	130.9
3212.13	137.9
3215.241	132.9
3218.35	129.9
3221.456	139.9
3224.56	124.9
3227.661	126.9
3230.76	122.9
3233.856	119.9
3236.95	112.9
3240.041	102.9
3243.13	112.9
3246.216	97.9
3249.3	104.9
3252.382	103.9
3255.46	108.9
3258.537	104.9
3261.611	94.9
3264.682	98.9
3267.751	98.9
3270.818	92.9
3273.882	99.9
3276.943	97.9
3280.002	97.9
3283.059	88.9
3286.113	92.9
3289.165	88.9
3292.214	84.9
3295.261	92.9
3298.306	88.9
3301.348	90.9
3304.387	93.9
3307.425	84.9
3310.459	80.9
3313.492	79.9
3316.521	84.9
3319.549	88.9
3322.574	87.9
3325.597	85.9
3328.617	86.9
3331.635	90.9
3334.65	90.9
3337.663	79.9
3340.674	81.9
3343.682	82.9
3346.688	73.9
3349.691	78.9
3352.692	82.9
3355.691	92.9
3358.687	86.9
3361.681	81.9
3364.673	85.9
3367.662	73.9
3370.649	77.9
3373.633	66.9
3376.615	74.9
3379.595	71.9
3382.572	63.9
3385.547	75.9
3388.52	68.9
3391.49	64.9
3394.458	58.9
3397.424	60.9
3400.387	55.9
3403.348	59.9
3406.307	56.9
3409.263	61.9
3412.217	55.9
3415.168	60.9
3418.118	51.9
3421.065	50.9
3424.009	49.9
3426.951	46.9
3429.891	42.9
3432.829	45.9
3435.764	48.9
3438.697	42.9
3441.628	32.9
3444.557	32.9
3447.483	39.9
3450.407	21.9
3453.328	30.9
3456.247	28.9
3459.164	25.9
3462.079	20.9
3464.991	21.9
3467.902	21.9
3470.809	14.9
3473.715	12.9
3476.618	7.9
3479.519	5.9
3482.418	10.9
3485.315	6.9
3488.209	-2.1
3491.101	2.9
3493.99	-0.1
3496.878	-1.1
3499.763	-7.1
3502.646	-3.1
3505.527	1.9
3508.405	-1.1
3511.281	-8.1
3514.155	-8.1
3517.027	-13.1
3519.897	-6.1
3522.764	-15.1
3525.629	-10.1
3528.492	-16.1
3531.352	-16.1
3534.211	-18.1
3537.067	-17.1
3539.921	-20.1
3542.773	-24.1
3545.622	-24.1
3548.469	-24.1
3551.315	-23.1
3554.157	-26.1
3556.998	-24.1
3559.837	-26.1
3562.673	-32.1
3565.507	-27.1
3568.339	-23.1
3571.169	-28.1
3573.996	-25.1
3576.822	-42.1
3579.645	-30.1
3582.466	-27.1
3585.285	-35.1
3588.101	-36.1
3590.916	-26.1
3593.728	-37.1
3596.538	-41.1
3599.346	-38.1
3602.152	-36.1
3604.956	-37.1
3607.757	-31.1
3610.556	-36.1
3613.354	-39.1
3616.149	-41.1
3618.942	-46.1
3621.732	-39.1
3624.521	-39.1
3627.307	-38.1
3630.092	-46.1
3632.874	-44.1
3635.654	-41.1
3638.432	-44.1
3641.208	-41.1
3643.982	-38.1
3646.753	-50.1
3649.523	-43.1
3652.29	-48.1
3655.055	-43.1
3657.818	-49.1
3660.579	-45.1
3663.338	-41.1
3666.095	-46.1
3668.849	-43.1
3671.602	-46.1
3674.352	-44.1
3677.101	-50.1
3679.847	-44.1
3682.591	-50.1
3685.333	-48.1
3688.073	-51.1
3690.811	-43.1
3693.547	-49.1
3696.281	-45.1
3699.013	-49.1
3701.742	-52.1
3704.47	-50.1
3707.195	-47.1
3709.919	-49.1
3712.64	-43.1
3715.359	-45.1
3718.076	-51.1
3720.792	-53.1
3723.505	-54.1
3726.216	-48.1
3728.925	-54.1
3731.632	-47.1
3734.336	-50.1
3737.039	-47.1
3739.74	-54.1
3742.439	-56.1
3745.136	-53.1
3747.83	-50.1
3750.523	-58.1
3753.213	-59.1
3755.902	-53.1
3758.589	-52.1
3761.273	-52.1
3763.956	-54.1
3766.636	-53.1
3769.315	-48.1
3771.991	-51.1
3774.665	-57.1
3777.338	-53.1
3780.008	-47.1
3782.677	-58.1
3785.343	-53.1
3788.007	-52.1
3790.67	-58.1
3793.33	-53.1
3795.989	-53.1
3798.645	-58.1
3801.299	-50.1
3803.952	-55.1
3806.602	-54.1
3809.251	-59.1
3811.897	-60.1
3814.542	-56.1
3817.184	-57.1
3819.825	-44.1
3822.463	-55.1
3825.1	-49.1
3827.735	-58.1
3830.367	-54.1
3832.998	-55.1
3835.627	-65.1
3838.253	-54.1
3840.878	-51.1
3843.501	-51.1
3846.122	-59.1
3848.741	-50.1
3851.358	-51.1
3853.973	-51.1
3856.586	-53.1
3859.197	-57.1
3861.806	-60.1
3864.414	-60.1
3867.019	-53.1
3869.622	-45.1
3872.224	-37.1
3874.823	-36.1
3877.421	-37.1
3880.016	-27.1
3882.61	-16.1
3885.202	-16.1
3887.792	-17.1
3890.38	-27.1
3892.966	-36.1
3895.55	-43.1
3898.132	-48.1
3900.713	-52.1
3903.291	-56.1
3905.868	-51.1
3908.442	-57.1
3911.015	-53.1
3913.586	-54.1
3916.155	-58.1
3918.722	-55.1
3921.287	-53.1
3923.85	-49.1
3926.411	-55.1
3928.971	-63.1
3931.528	-59.1
3934.084	-54.1
3936.638	-51.1
3939.19	-57.1
3941.74	-48.1
3944.288	-59.1
3946.834	-55.1
3949.378	-55.1
3951.921	-62.1
3954.462	-58.1
3957	-47.1
3959.537	-45.1
3962.072	-51.1
3964.606	-49.1
3967.137	-51.1
3969.667	-58.1
3972.194	-53.1
3974.72	-51.1
3977.244	-55.1
3979.766	-52.1
3982.286	-54.1
3984.805	-60.1
3987.321	-52.1
3989.836	-52.1
3992.349	-56.1
3994.86	-53.1
3997.369	-57.1
3999.877	-55.1
4002.382	-51.1
4004.886	-53.1
4007.388	-55.1
4009.888	-49.1
4012.386	-55.1
4014.883	-57.1
4017.377	-50.1
4019.87	-56.1
4022.361	-60.1
4024.85	-51.1
4027.338	-55.1
4029.823	-54.1
4032.307	-56.1
4034.789	-53.1
4037.269	-58.1
4039.747	-60.1
4042.224	-55.1
4044.699	-59.1
4047.172	-56.1
4049.643	-55.1
4052.112	-52.1
4054.58	-54.1
4057.046	-51.1
4059.51	-60.1
4061.972	-58.1
4064.432	-53.1
4066.891	-54.1
4069.348	-49.1
4071.803	-49.1
4074.256	-50.1
4076.708	-57.1
4079.158	-55.1
4081.606	-56.1
4084.052	-56.1
4086.497	-48.1
4088.939	-51.1
4091.38	-55.1
4093.819	-58.1
4096.257	-55.1
4098.693	-59.1
4101.127	-53.1
4103.559	-60.1
4105.989	8.9
4108.418	10.9
4110.845	1.9
4113.27	7.9
4115.694	4.9
4118.115	4.9
4120.535	-54.1
4122.954	-54.1
4125.37	-54.1
4127.785	-50.1
4130.198	-55.1
4132.609	-55.1
4135.019	-56.1
4137.427	-59.1
4139.833	-60.1
4142.237	-59.1
