Data from 2018-3-7_conc=5_n=4_RamanShift_01.txt Node
Date: Wed Mar 07 12:34:22 IST 2018
User: aro
Spectrometer: QEPB0276
Trigger mode: 0
Integration Time (sec): 3.000000E1
Scans to average: 1
Electric dark correction enabled: true
Nonlinearity correction enabled: false
Boxcar width: 0
XAxis mode: Raman Shifts
Number of Pixels in Spectrum: 1044
>>>>>Begin Spectral Data<<<<<
160.701	10.4
166.742	20.4
172.777	57.4
178.805	167.4
184.826	452.4
190.841	981.4
196.849	1631.4
202.85	2112.4
208.845	2322.4
214.833	2319.4
220.815	2310.4
226.789	2284.4
232.758	2286.4
238.719	2269.4
244.674	2256.4
250.623	2227.4
256.565	2198.4
262.5	2183.4
268.429	2140.4
274.351	2123.4
280.267	2107.4
286.176	2096.4
292.079	2075.4
297.975	2070.4
303.865	2067.4
309.748	2058.4
315.625	2056.4
321.495	2041.4
327.359	2052.4
333.217	2056.4
339.068	2067.4
344.912	2078.4
350.751	2058.4
356.583	2078.4
362.408	2051.4
368.227	2048.4
374.04	2077.4
379.847	2079.4
385.647	2065.4
391.44	2101.4
397.228	2098.4
403.009	2117.4
408.784	2142.4
414.553	2132.4
420.315	2143.4
426.071	2124.4
431.821	2134.4
437.565	2143.4
443.302	2124.4
449.033	2115.4
454.758	2140.4
460.477	2094.4
466.189	2105.4
471.896	2071.4
477.596	2069.4
483.29	2057.4
488.978	2065.4
494.66	2034.4
500.335	2004.4
506.005	1964.4
511.668	1902.4
517.325	1855.4
522.977	1802.4
528.622	1768.4
534.261	1759.4
539.894	1735.4
545.521	1710.4
551.141	1693.4
556.756	1688.4
562.365	1683.4
567.968	1663.4
573.565	1656.4
579.155	1635.4
584.74	1652.4
590.319	1621.4
595.892	1620.4
601.459	1632.4
607.02	1619.4
612.575	1602.4
618.124	1598.4
623.667	1576.4
629.204	1555.4
634.735	1533.4
640.261	1536.4
645.781	1538.4
651.294	1528.4
656.802	1516.4
662.304	1521.4
667.8	1516.4
673.29	1509.4
678.775	1496.4
684.254	1513.4
689.726	1497.4
695.193	1484.4
700.655	1488.4
706.11	1476.4
711.56	1456.4
717.004	1439.4
722.442	1424.4
727.874	1421.4
733.301	1440.4
738.722	1426.4
744.137	1432.4
749.547	1430.4
754.951	1412.4
760.349	1429.4
765.741	1411.4
771.128	1419.4
776.509	1444.4
781.885	1446.4
787.254	1461.4
792.618	1457.4
797.977	1436.4
803.33	1417.4
808.677	1413.4
814.019	1420.4
819.355	1404.4
824.686	1383.4
830.011	1371.4
835.33	1359.4
840.644	1374.4
845.952	1382.4
851.255	1367.4
856.552	1378.4
861.844	1355.4
867.13	1349.4
872.41	1352.4
877.686	1335.4
882.955	1321.4
888.219	1318.4
893.478	1306.4
898.731	1273.4
903.979	1276.4
909.221	1265.4
914.458	1271.4
919.69	1244.4
924.916	1250.4
930.136	1269.4
935.351	1258.4
940.561	1249.4
945.766	1259.4
950.965	1264.4
956.158	1235.4
961.347	1231.4
966.529	1210.4
971.707	1201.4
976.879	1179.4
982.046	1151.4
987.208	1163.4
992.364	1151.4
997.515	1166.4
1002.66	1179.4
1007.801	1198.4
1012.936	1208.4
1018.066	1199.4
1023.19	1199.4
1028.309	1195.4
1033.423	1183.4
1038.532	1205.4
1043.636	1180.4
1048.734	1164.4
1053.827	1159.4
1058.915	1145.4
1063.998	1128.4
1069.075	1119.4
1074.147	1128.4
1079.214	1130.4
1084.276	1143.4
1089.333	1147.4
1094.385	1136.4
1099.431	1125.4
1104.472	1129.4
1109.509	1125.4
1114.54	1115.4
1119.565	1109.4
1124.586	1086.4
1129.602	1065.4
1134.613	1081.4
1139.618	1065.4
1144.619	1057.4
1149.614	1069.4
1154.604	1057.4
1159.589	1070.4
1164.57	1067.4
1169.545	1060.4
1174.515	1072.4
1179.48	1061.4
1184.44	1047.4
1189.395	1044.4
1194.345	1037.4
1199.29	1023.4
1204.23	1040.4
1209.165	1032.4
1214.095	1054.4
1219.021	1043.4
1223.941	1061.4
1228.856	1057.4
1233.766	1058.4
1238.672	1061.4
1243.572	1069.4
1248.467	1047.4
1253.358	1037.4
1258.244	1023.4
1263.124	1005.4
1268	990.4
1272.871	976.4
1277.737	967.4
1282.599	968.4
1287.455	958.4
1292.306	973.4
1297.153	978.4
1301.995	982.4
1306.832	985.4
1311.664	987.4
1316.491	989.4
1321.314	982.4
1326.132	982.4
1330.945	962.4
1335.753	953.4
1340.556	934.4
1345.354	912.4
1350.148	888.4
1354.937	886.4
1359.722	861.4
1364.501	834.4
1369.276	826.4
1374.046	801.4
1378.811	805.4
1383.572	805.4
1388.327	797.4
1393.079	791.4
1397.825	796.4
1402.567	801.4
1407.304	802.4
1412.036	822.4
1416.764	818.4
1421.487	820.4
1426.205	822.4
1430.919	821.4
1435.628	811.4
1440.333	831.4
1445.032	828.4
1449.727	851.4
1454.418	839.4
1459.104	837.4
1463.785	823.4
1468.462	809.4
1473.134	796.4
1477.802	771.4
1482.465	755.4
1487.123	737.4
1491.777	728.4
1496.426	725.4
1501.071	716.4
1505.711	708.4
1510.347	699.4
1514.978	676.4
1519.604	677.4
1524.226	678.4
1528.844	680.4
1533.457	667.4
1538.065	655.4
1542.669	667.4
1547.269	662.4
1551.864	672.4
1556.454	687.4
1561.041	697.4
1565.622	707.4
1570.199	693.4
1574.772	707.4
1579.34	719.4
1583.904	722.4
1588.464	740.4
1593.019	739.4
1597.569	733.4
1602.115	743.4
1606.657	738.4
1611.195	737.4
1615.728	740.4
1620.256	731.4
1624.78	736.4
1629.3	727.4
1633.816	730.4
1638.327	756.4
1642.834	728.4
1647.336	731.4
1651.834	740.4
1656.328	736.4
1660.817	735.4
1665.302	728.4
1669.783	701.4
1674.259	700.4
1678.732	670.4
1683.199	647.4
1687.663	624.4
1692.122	599.4
1696.577	558.4
1701.028	545.4
1705.474	507.4
1709.917	494.4
1714.355	478.4
1718.788	480.4
1723.218	489.4
1727.643	480.4
1732.064	475.4
1736.481	478.4
1740.893	464.4
1745.301	457.4
1749.705	454.4
1754.105	438.4
1758.501	430.4
1762.893	417.4
1767.28	411.4
1771.663	403.4
1776.042	405.4
1780.417	403.4
1784.787	390.4
1789.154	379.4
1793.516	360.4
1797.874	355.4
1802.228	358.4
1806.578	342.4
1810.924	343.4
1815.266	335.4
1819.603	341.4
1823.937	351.4
1828.266	344.4
1832.591	356.4
1836.913	351.4
1841.23	357.4
1845.543	351.4
1849.852	365.4
1854.156	369.4
1858.457	361.4
1862.754	371.4
1867.047	372.4
1871.335	366.4
1875.62	360.4
1879.9	371.4
1884.177	350.4
1888.449	348.4
1892.718	349.4
1896.982	339.4
1901.243	330.4
1905.499	327.4
1909.752	318.4
1914	315.4
1918.245	302.4
1922.485	293.4
1926.722	283.4
1930.954	285.4
1935.183	292.4
1939.408	281.4
1943.628	282.4
1947.845	284.4
1952.058	276.4
1956.267	267.4
1960.472	273.4
1964.673	261.4
1968.87	272.4
1973.063	271.4
1977.252	273.4
1981.438	272.4
1985.619	266.4
1989.797	266.4
1993.971	271.4
1998.14	274.4
2002.306	283.4
2006.469	278.4
2010.627	282.4
2014.781	282.4
2018.932	282.4
2023.078	282.4
2027.221	273.4
2031.36	275.4
2035.495	269.4
2039.627	267.4
2043.754	265.4
2047.878	261.4
2051.998	268.4
2056.114	252.4
2060.226	251.4
2064.334	250.4
2068.439	248.4
2072.54	240.4
2076.637	242.4
2080.73	243.4
2084.82	252.4
2088.906	237.4
2092.988	229.4
2097.066	226.4
2101.14	227.4
2105.211	227.4
2109.278	221.4
2113.342	217.4
2117.401	212.4
2121.457	214.4
2125.509	217.4
2129.558	213.4
2133.602	217.4
2137.643	222.4
2141.681	211.4
2145.714	221.4
2149.744	218.4
2153.77	214.4
2157.793	212.4
2161.812	222.4
2165.827	218.4
2169.838	212.4
2173.846	211.4
2177.851	207.4
2181.851	203.4
2185.848	198.4
2189.841	202.4
2193.831	203.4
2197.817	201.4
2201.799	203.4
2205.778	201.4
2209.753	204.4
2213.725	200.4
2217.693	206.4
2221.657	198.4
2225.618	195.4
2229.575	189.4
2233.529	188.4
2237.479	199.4
2241.425	184.4
2245.368	190.4
2249.307	189.4
2253.243	176.4
2257.175	182.4
2261.104	170.4
2265.029	175.4
2268.95	175.4
2272.868	169.4
2276.783	169.4
2280.694	163.4
2284.601	165.4
2288.505	163.4
2292.405	165.4
2296.302	167.4
2300.195	152.4
2304.085	152.4
2307.971	151.4
2311.854	152.4
2315.734	146.4
2319.609	151.4
2323.482	151.4
2327.351	158.4
2331.216	155.4
2335.078	172.4
2338.937	156.4
2342.792	150.4
2346.643	158.4
2350.492	154.4
2354.336	148.4
2358.178	144.4
2362.015	158.4
2365.85	153.4
2369.681	158.4
2373.508	151.4
2377.333	161.4
2381.153	152.4
2384.971	148.4
2388.785	144.4
2392.595	158.4
2396.402	149.4
2400.206	151.4
2404.007	142.4
2407.804	149.4
2411.597	144.4
2415.388	142.4
2419.174	154.4
2422.958	142.4
2426.738	156.4
2430.515	150.4
2434.289	147.4
2438.059	138.4
2441.825	138.4
2445.589	142.4
2449.349	137.4
2453.106	135.4
2456.859	127.4
2460.61	135.4
2464.356	131.4
2468.1	128.4
2471.84	127.4
2475.577	126.4
2479.311	122.4
2483.041	122.4
2486.768	113.4
2490.492	121.4
2494.213	122.4
2497.93	124.4
2501.644	125.4
2505.355	114.4
2509.062	121.4
2512.766	122.4
2516.467	117.4
2520.165	111.4
2523.859	114.4
2527.551	111.4
2531.239	108.4
2534.923	109.4
2538.605	98.4
2542.283	90.4
2545.958	104.4
2549.63	96.4
2553.299	91.4
2556.964	93.4
2560.626	92.4
2564.285	87.4
2567.941	84.4
2571.594	86.4
2575.243	88.4
2578.89	82.4
2582.533	87.4
2586.173	87.4
2589.809	88.4
2593.443	89.4
2597.073	88.4
2600.701	87.4
2604.325	76.4
2607.946	71.4
2611.564	81.4
2615.178	85.4
2618.79	76.4
2622.398	77.4
2626.004	76.4
2629.606	73.4
2633.205	68.4
2636.801	72.4
2640.394	80.4
2643.983	68.4
2647.57	74.4
2651.153	71.4
2654.734	71.4
2658.311	69.4
2661.885	71.4
2665.456	72.4
2669.025	73.4
2672.589	61.4
2676.151	63.4
2679.71	56.4
2683.266	66.4
2686.819	67.4
2690.368	63.4
2693.915	60.4
2697.458	55.4
2700.999	59.4
2704.536	62.4
2708.071	63.4
2711.602	53.4
2715.13	46.4
2718.656	51.4
2722.178	48.4
2725.697	47.4
2729.214	49.4
2732.727	58.4
2736.237	52.4
2739.744	45.4
2743.249	43.4
2746.75	44.4
2750.248	39.4
2753.743	40.4
2757.236	40.4
2760.725	34.4
2764.211	24.4
2767.695	31.4
2771.175	33.4
2774.652	27.4
2778.127	29.4
2781.598	28.4
2785.067	24.4
2788.532	28.4
2791.995	33.4
2795.455	29.4
2798.911	31.4
2802.365	36.4
2805.816	33.4
2809.264	33.4
2812.709	31.4
2816.151	43.4
2819.59	51.4
2823.026	43.4
2826.46	44.4
2829.89	39.4
2833.318	33.4
2836.742	40.4
2840.164	38.4
2843.583	38.4
2846.999	42.4
2850.412	37.4
2853.822	38.4
2857.229	45.4
2860.634	33.4
2864.035	38.4
2867.434	40.4
2870.83	43.4
2874.223	45.4
2877.613	52.4
2881	53.4
2884.385	56.4
2887.766	55.4
2891.145	51.4
2894.521	58.4
2897.894	55.4
2901.264	57.4
2904.631	49.4
2907.996	62.4
2911.358	65.4
2914.717	61.4
2918.073	59.4
2921.426	59.4
2924.777	63.4
2928.124	70.4
2931.469	65.4
2934.811	72.4
2938.15	75.4
2941.487	84.4
2944.821	75.4
2948.152	78.4
2951.48	75.4
2954.805	82.4
2958.128	73.4
2961.447	75.4
2964.765	70.4
2968.079	68.4
2971.39	71.4
2974.699	66.4
2978.005	76.4
2981.308	67.4
2984.609	67.4
2987.907	71.4
2991.202	67.4
2994.494	66.4
2997.784	63.4
3001.07	64.4
3004.355	69.4
3007.636	74.4
3010.915	67.4
3014.191	65.4
3017.464	71.4
3020.734	78.4
3024.002	79.4
3027.267	79.4
3030.53	85.4
3033.789	89.4
3037.046	84.4
3040.301	87.4
3043.552	95.4
3046.801	98.4
3050.048	101.4
3053.291	102.4
3056.532	106.4
3059.771	110.4
3063.006	120.4
3066.239	123.4
3069.469	126.4
3072.697	128.4
3075.922	133.4
3079.144	137.4
3082.364	145.4
3085.581	149.4
3088.795	159.4
3092.007	154.4
3095.216	158.4
3098.423	157.4
3101.627	161.4
3104.828	175.4
3108.026	168.4
3111.222	176.4
3114.416	186.4
3117.607	193.4
3120.795	189.4
3123.98	189.4
3127.163	202.4
3130.344	198.4
3133.521	215.4
3136.696	202.4
3139.869	218.4
3143.039	217.4
3146.206	229.4
3149.371	220.4
3152.533	231.4
3155.693	229.4
3158.85	229.4
3162.005	229.4
3165.157	225.4
3168.306	232.4
3171.453	232.4
3174.597	234.4
3177.739	243.4
3180.878	243.4
3184.014	232.4
3187.149	240.4
3190.28	243.4
3193.409	237.4
3196.536	232.4
3199.659	230.4
3202.781	233.4
3205.9	227.4
3209.016	231.4
3212.13	242.4
3215.241	241.4
3218.35	232.4
3221.456	235.4
3224.56	222.4
3227.661	215.4
3230.76	218.4
3233.856	212.4
3236.95	209.4
3240.041	207.4
3243.13	205.4
3246.216	202.4
3249.3	194.4
3252.382	198.4
3255.46	199.4
3258.537	189.4
3261.611	186.4
3264.682	186.4
3267.751	186.4
3270.818	179.4
3273.882	181.4
3276.943	173.4
3280.002	179.4
3283.059	174.4
3286.113	172.4
3289.165	164.4
3292.214	178.4
3295.261	166.4
3298.306	164.4
3301.348	168.4
3304.387	166.4
3307.425	162.4
3310.459	167.4
3313.492	166.4
3316.521	170.4
3319.549	168.4
3322.574	163.4
3325.597	161.4
3328.617	158.4
3331.635	166.4
3334.65	158.4
3337.663	153.4
3340.674	170.4
3343.682	163.4
3346.688	157.4
3349.691	163.4
3352.692	160.4
3355.691	160.4
3358.687	157.4
3361.681	156.4
3364.673	158.4
3367.662	156.4
3370.649	160.4
3373.633	147.4
3376.615	150.4
3379.595	142.4
3382.572	137.4
3385.547	145.4
3388.52	144.4
3391.49	139.4
3394.458	132.4
3397.424	134.4
3400.387	133.4
3403.348	126.4
3406.307	123.4
3409.263	121.4
3412.217	117.4
3415.168	126.4
3418.118	118.4
3421.065	116.4
3424.009	113.4
3426.951	108.4
3429.891	106.4
3432.829	102.4
3435.764	110.4
3438.697	107.4
3441.628	95.4
3444.557	97.4
3447.483	98.4
3450.407	83.4
3453.328	83.4
3456.247	77.4
3459.164	73.4
3462.079	67.4
3464.991	70.4
3467.902	59.4
3470.809	51.4
3473.715	59.4
3476.618	53.4
3479.519	48.4
3482.418	47.4
3485.315	37.4
3488.209	32.4
3491.101	40.4
3493.99	39.4
3496.878	27.4
3499.763	29.4
3502.646	27.4
3505.527	21.4
3508.405	29.4
3511.281	21.4
3514.155	14.4
3517.027	7.4
3519.897	14.4
3522.764	9.4
3525.629	7.4
3528.492	-0.6
3531.352	2.4
3534.211	0.4
3537.067	-1.6
3539.921	0.4
3542.773	-9.6
3545.622	-4.6
3548.469	-5.6
3551.315	-5.6
3554.157	-16.6
3556.998	-11.6
3559.837	-18.6
3562.673	-17.6
3565.507	-18.6
3568.339	-19.6
3571.169	-20.6
3573.996	-21.6
3576.822	-25.6
3579.645	-28.6
3582.466	-24.6
3585.285	-28.6
3588.101	-29.6
3590.916	-26.6
3593.728	-29.6
3596.538	-29.6
3599.346	-31.6
3602.152	-28.6
3604.956	-28.6
3607.757	-26.6
3610.556	-31.6
3613.354	-41.6
3616.149	-44.6
3618.942	-35.6
3621.732	-39.6
3624.521	-30.6
3627.307	-37.6
3630.092	-39.6
3632.874	-45.6
3635.654	-42.6
3638.432	-43.6
3641.208	-44.6
3643.982	-45.6
3646.753	-46.6
3649.523	-42.6
3652.29	-46.6
3655.055	-41.6
3657.818	-43.6
3660.579	-45.6
3663.338	-41.6
3666.095	-47.6
3668.849	-50.6
3671.602	-46.6
3674.352	-44.6
3677.101	-50.6
3679.847	-48.6
3682.591	-54.6
3685.333	-46.6
3688.073	-54.6
3690.811	-48.6
3693.547	-53.6
3696.281	-48.6
3699.013	-52.6
3701.742	-52.6
3704.47	-52.6
3707.195	-46.6
3709.919	-52.6
3712.64	-55.6
3715.359	-53.6
3718.076	-52.6
3720.792	-54.6
3723.505	-56.6
3726.216	-51.6
3728.925	-58.6
3731.632	-51.6
3734.336	-59.6
3737.039	-54.6
3739.74	-57.6
3742.439	-68.6
3745.136	-57.6
3747.83	-57.6
3750.523	-58.6
3753.213	-61.6
3755.902	-54.6
3758.589	-59.6
3761.273	-56.6
3763.956	-55.6
3766.636	-56.6
3769.315	-51.6
3771.991	-56.6
3774.665	-54.6
3777.338	-58.6
3780.008	-60.6
3782.677	-64.6
3785.343	-58.6
3788.007	-59.6
3790.67	-64.6
3793.33	-58.6
3795.989	-58.6
3798.645	-65.6
3801.299	-59.6
3803.952	-59.6
3806.602	-60.6
3809.251	-64.6
3811.897	-59.6
3814.542	-60.6
3817.184	-58.6
3819.825	-51.6
3822.463	-61.6
3825.1	-55.6
3827.735	-60.6
3830.367	-63.6
3832.998	-60.6
3835.627	-59.6
3838.253	-52.6
3840.878	-57.6
3843.501	-52.6
3846.122	-63.6
3848.741	-63.6
3851.358	-61.6
3853.973	-61.6
3856.586	-61.6
3859.197	-57.6
3861.806	-60.6
3864.414	-58.6
3867.019	-59.6
3869.622	-49.6
3872.224	-48.6
3874.823	-34.6
3877.421	-35.6
3880.016	-13.6
3882.61	6.4
3885.202	0.4
3887.792	-5.6
3890.38	-27.6
3892.966	-44.6
3895.55	-55.6
3898.132	-59.6
3900.713	-65.6
3903.291	-66.6
3905.868	-59.6
3908.442	-58.6
3911.015	-58.6
3913.586	-64.6
3916.155	-61.6
3918.722	-56.6
3921.287	-63.6
3923.85	-54.6
3926.411	-60.6
3928.971	-69.6
3931.528	-63.6
3934.084	-58.6
3936.638	-56.6
3939.19	-70.6
3941.74	-58.6
3944.288	-63.6
3946.834	-61.6
3949.378	-64.6
3951.921	-64.6
3954.462	-62.6
3957	-59.6
3959.537	-52.6
3962.072	-62.6
3964.606	-59.6
3967.137	-54.6
3969.667	-67.6
3972.194	-53.6
3974.72	-52.6
3977.244	-51.6
3979.766	-61.6
3982.286	-60.6
3984.805	-68.6
3987.321	-60.6
3989.836	-51.6
3992.349	-56.6
3994.86	-61.6
3997.369	-61.6
3999.877	-58.6
4002.382	-62.6
4004.886	-55.6
4007.388	-63.6
4009.888	-62.6
4012.386	-63.6
4014.883	-59.6
4017.377	-56.6
4019.87	-62.6
4022.361	-61.6
4024.85	-59.6
4027.338	-63.6
4029.823	-65.6
4032.307	-62.6
4034.789	-57.6
4037.269	-57.6
4039.747	-64.6
4042.224	-59.6
4044.699	-59.6
4047.172	-62.6
4049.643	-57.6
4052.112	-59.6
4054.58	-58.6
4057.046	-55.6
4059.51	-62.6
4061.972	-63.6
4064.432	-59.6
4066.891	-56.6
4069.348	-51.6
4071.803	-56.6
4074.256	-61.6
4076.708	-62.6
4079.158	-64.6
4081.606	-63.6
4084.052	-67.6
4086.497	-55.6
4088.939	-58.6
4091.38	-63.6
4093.819	-60.6
4096.257	-64.6
4098.693	-62.6
4101.127	-58.6
4103.559	-66.6
4105.989	9.4
4108.418	3.4
4110.845	3.4
4113.27	2.4
4115.694	7.4
4118.115	6.4
4120.535	-59.6
4122.954	-56.6
4125.37	-61.6
4127.785	-58.6
4130.198	-56.6
4132.609	-55.6
4135.019	-63.6
4137.427	-65.6
4139.833	-62.6
4142.237	-63.6
