Data from 2018-3-7_conc=0_n=2_RamanShift_02.txt Node
Date: Wed Mar 07 10:07:53 IST 2018
User: aro
Spectrometer: QEPB0276
Trigger mode: 0
Integration Time (sec): 3.000000E1
Scans to average: 1
Electric dark correction enabled: true
Nonlinearity correction enabled: false
Boxcar width: 0
XAxis mode: Raman Shifts
Number of Pixels in Spectrum: 1044
>>>>>Begin Spectral Data<<<<<
160.701	4.6
166.742	22.6
172.777	72.6
178.805	204.6
184.826	541.6
190.841	1144.6
196.849	1904.6
202.85	2525.6
208.845	2778.6
214.833	2782.6
220.815	2777.6
226.789	2741.6
232.758	2769.6
238.719	2774.6
244.674	2786.6
250.623	2771.6
256.565	2760.6
262.5	2709.6
268.429	2684.6
274.351	2696.6
280.267	2644.6
286.176	2667.6
292.079	2683.6
297.975	2650.6
303.865	2698.6
309.748	2656.6
315.625	2648.6
321.495	2640.6
327.359	2662.6
333.217	2664.6
339.068	2694.6
344.912	2688.6
350.751	2705.6
356.583	2713.6
362.408	2718.6
368.227	2713.6
374.04	2738.6
379.847	2762.6
385.647	2778.6
391.44	2796.6
397.228	2799.6
403.009	2807.6
408.784	2844.6
414.553	2856.6
420.315	2857.6
426.071	2878.6
431.821	2883.6
437.565	2887.6
443.302	2907.6
449.033	2849.6
454.758	2868.6
460.477	2828.6
466.189	2809.6
471.896	2768.6
477.596	2747.6
483.29	2724.6
488.978	2723.6
494.66	2712.6
500.335	2671.6
506.005	2567.6
511.668	2436.6
517.325	2362.6
522.977	2262.6
528.622	2195.6
534.261	2169.6
539.894	2097.6
545.521	2093.6
551.141	2041.6
556.756	2038.6
562.365	2026.6
567.968	2017.6
573.565	1983.6
579.155	1989.6
584.74	1976.6
590.319	1962.6
595.892	1985.6
601.459	1964.6
607.02	1968.6
612.575	1932.6
618.124	1928.6
623.667	1886.6
629.204	1863.6
634.735	1852.6
640.261	1826.6
645.781	1808.6
651.294	1844.6
656.802	1816.6
662.304	1812.6
667.8	1798.6
673.29	1792.6
678.775	1793.6
684.254	1774.6
689.726	1757.6
695.193	1768.6
700.655	1754.6
706.11	1741.6
711.56	1746.6
717.004	1723.6
722.442	1704.6
727.874	1701.6
733.301	1699.6
738.722	1685.6
744.137	1691.6
749.547	1696.6
754.951	1697.6
760.349	1700.6
765.741	1691.6
771.128	1705.6
776.509	1720.6
781.885	1741.6
787.254	1763.6
792.618	1764.6
797.977	1740.6
803.33	1749.6
808.677	1748.6
814.019	1737.6
819.355	1721.6
824.686	1699.6
830.011	1687.6
835.33	1674.6
840.644	1679.6
845.952	1677.6
851.255	1661.6
856.552	1673.6
861.844	1671.6
867.13	1701.6
872.41	1755.6
877.686	1914.6
882.955	2009.6
888.219	2019.6
893.478	1880.6
898.731	1684.6
903.979	1588.6
909.221	1547.6
914.458	1507.6
919.69	1489.6
924.916	1483.6
930.136	1480.6
935.351	1487.6
940.561	1464.6
945.766	1489.6
950.965	1485.6
956.158	1481.6
961.347	1458.6
966.529	1440.6
971.707	1421.6
976.879	1409.6
982.046	1374.6
987.208	1380.6
992.364	1375.6
997.515	1388.6
1002.66	1408.6
1007.801	1421.6
1012.936	1427.6
1018.066	1461.6
1023.19	1454.6
1028.309	1459.6
1033.423	1469.6
1038.532	1480.6
1043.636	1511.6
1048.734	1527.6
1053.827	1528.6
1058.915	1514.6
1063.998	1463.6
1069.075	1428.6
1074.147	1421.6
1079.214	1454.6
1084.276	1476.6
1089.333	1505.6
1094.385	1501.6
1099.431	1473.6
1104.472	1437.6
1109.509	1414.6
1114.54	1370.6
1119.565	1359.6
1124.586	1330.6
1129.602	1292.6
1134.613	1289.6
1139.618	1281.6
1144.619	1273.6
1149.614	1275.6
1154.604	1259.6
1159.589	1272.6
1164.57	1269.6
1169.545	1256.6
1174.515	1277.6
1179.48	1278.6
1184.44	1252.6
1189.395	1233.6
1194.345	1228.6
1199.29	1214.6
1204.23	1214.6
1209.165	1227.6
1214.095	1223.6
1219.021	1228.6
1223.941	1256.6
1228.856	1245.6
1233.766	1241.6
1238.672	1254.6
1243.572	1253.6
1248.467	1248.6
1253.358	1223.6
1258.244	1222.6
1263.124	1202.6
1268	1178.6
1272.871	1176.6
1277.737	1178.6
1282.599	1200.6
1287.455	1192.6
1292.306	1186.6
1297.153	1169.6
1301.995	1174.6
1306.832	1174.6
1311.664	1170.6
1316.491	1171.6
1321.314	1174.6
1326.132	1157.6
1330.945	1134.6
1335.753	1111.6
1340.556	1084.6
1345.354	1058.6
1350.148	1039.6
1354.937	1000.6
1359.722	991.6
1364.501	959.6
1369.276	947.6
1374.046	937.6
1378.811	926.6
1383.572	924.6
1388.327	929.6
1393.079	948.6
1397.825	952.6
1402.567	956.6
1407.304	973.6
1412.036	980.6
1416.764	985.6
1421.487	978.6
1426.205	978.6
1430.919	996.6
1435.628	1009.6
1440.333	1028.6
1445.032	1041.6
1449.727	1087.6
1454.418	1124.6
1459.104	1153.6
1463.785	1153.6
1468.462	1068.6
1473.134	1007.6
1477.802	944.6
1482.465	906.6
1487.123	890.6
1491.777	853.6
1496.426	850.6
1501.071	829.6
1505.711	792.6
1510.347	774.6
1514.978	755.6
1519.604	766.6
1524.226	746.6
1528.844	752.6
1533.457	744.6
1538.065	742.6
1542.669	743.6
1547.269	741.6
1551.864	745.6
1556.454	774.6
1561.041	787.6
1565.622	794.6
1570.199	785.6
1574.772	789.6
1579.34	817.6
1583.904	809.6
1588.464	822.6
1593.019	826.6
1597.569	826.6
1602.115	825.6
1606.657	827.6
1611.195	810.6
1615.728	807.6
1620.256	805.6
1624.78	799.6
1629.3	805.6
1633.816	803.6
1638.327	807.6
1642.834	800.6
1647.336	793.6
1651.834	784.6
1656.328	779.6
1660.817	798.6
1665.302	763.6
1669.783	748.6
1674.259	740.6
1678.732	711.6
1683.199	664.6
1687.663	640.6
1692.122	604.6
1696.577	591.6
1701.028	543.6
1705.474	529.6
1709.917	501.6
1714.355	491.6
1718.788	496.6
1723.218	499.6
1727.643	505.6
1732.064	499.6
1736.481	509.6
1740.893	493.6
1745.301	491.6
1749.705	486.6
1754.105	471.6
1758.501	456.6
1762.893	445.6
1767.28	434.6
1771.663	435.6
1776.042	425.6
1780.417	409.6
1784.787	392.6
1789.154	387.6
1793.516	358.6
1797.874	358.6
1802.228	360.6
1806.578	348.6
1810.924	342.6
1815.266	363.6
1819.603	360.6
1823.937	372.6
1828.266	375.6
1832.591	381.6
1836.913	380.6
1841.23	390.6
1845.543	390.6
1849.852	390.6
1854.156	391.6
1858.457	382.6
1862.754	402.6
1867.047	384.6
1871.335	381.6
1875.62	372.6
1879.9	374.6
1884.177	351.6
1888.449	359.6
1892.718	353.6
1896.982	337.6
1901.243	321.6
1905.499	321.6
1909.752	310.6
1914	307.6
1918.245	304.6
1922.485	289.6
1926.722	272.6
1930.954	278.6
1935.183	265.6
1939.408	271.6
1943.628	266.6
1947.845	258.6
1952.058	260.6
1956.267	263.6
1960.472	257.6
1964.673	252.6
1968.87	267.6
1973.063	270.6
1977.252	268.6
1981.438	277.6
1985.619	282.6
1989.797	271.6
1993.971	276.6
1998.14	279.6
2002.306	288.6
2006.469	285.6
2010.627	280.6
2014.781	292.6
2018.932	291.6
2023.078	288.6
2027.221	286.6
2031.36	282.6
2035.495	280.6
2039.627	273.6
2043.754	264.6
2047.878	253.6
2051.998	260.6
2056.114	250.6
2060.226	252.6
2064.334	245.6
2068.439	239.6
2072.54	242.6
2076.637	238.6
2080.73	233.6
2084.82	230.6
2088.906	228.6
2092.988	227.6
2097.066	221.6
2101.14	211.6
2105.211	202.6
2109.278	214.6
2113.342	205.6
2117.401	208.6
2121.457	211.6
2125.509	209.6
2129.558	207.6
2133.602	207.6
2137.643	216.6
2141.681	220.6
2145.714	218.6
2149.744	214.6
2153.77	218.6
2157.793	216.6
2161.812	225.6
2165.827	224.6
2169.838	214.6
2173.846	220.6
2177.851	209.6
2181.851	213.6
2185.848	208.6
2189.841	200.6
2193.831	207.6
2197.817	205.6
2201.799	206.6
2205.778	207.6
2209.753	207.6
2213.725	210.6
2217.693	207.6
2221.657	210.6
2225.618	202.6
2229.575	205.6
2233.529	198.6
2237.479	201.6
2241.425	191.6
2245.368	199.6
2249.307	203.6
2253.243	195.6
2257.175	182.6
2261.104	176.6
2265.029	187.6
2268.95	180.6
2272.868	177.6
2276.783	179.6
2280.694	174.6
2284.601	177.6
2288.505	184.6
2292.405	180.6
2296.302	176.6
2300.195	172.6
2304.085	172.6
2307.971	174.6
2311.854	169.6
2315.734	160.6
2319.609	166.6
2323.482	159.6
2327.351	169.6
2331.216	187.6
2335.078	198.6
2338.937	183.6
2342.792	177.6
2346.643	175.6
2350.492	165.6
2354.336	169.6
2358.178	167.6
2362.015	173.6
2365.85	176.6
2369.681	181.6
2373.508	175.6
2377.333	173.6
2381.153	174.6
2384.971	165.6
2388.785	172.6
2392.595	176.6
2396.402	179.6
2400.206	169.6
2404.007	168.6
2407.804	171.6
2411.597	167.6
2415.388	165.6
2419.174	179.6
2422.958	164.6
2426.738	174.6
2430.515	160.6
2434.289	164.6
2438.059	154.6
2441.825	146.6
2445.589	148.6
2449.349	149.6
2453.106	153.6
2456.859	145.6
2460.61	149.6
2464.356	140.6
2468.1	149.6
2471.84	143.6
2475.577	143.6
2479.311	140.6
2483.041	132.6
2486.768	133.6
2490.492	133.6
2494.213	135.6
2497.93	132.6
2501.644	136.6
2505.355	130.6
2509.062	119.6
2512.766	123.6
2516.467	124.6
2520.165	120.6
2523.859	116.6
2527.551	110.6
2531.239	114.6
2534.923	105.6
2538.605	109.6
2542.283	102.6
2545.958	110.6
2549.63	110.6
2553.299	102.6
2556.964	99.6
2560.626	92.6
2564.285	104.6
2567.941	93.6
2571.594	93.6
2575.243	92.6
2578.89	86.6
2582.533	81.6
2586.173	83.6
2589.809	87.6
2593.443	91.6
2597.073	87.6
2600.701	88.6
2604.325	82.6
2607.946	78.6
2611.564	82.6
2615.178	81.6
2618.79	90.6
2622.398	80.6
2626.004	83.6
2629.606	76.6
2633.205	80.6
2636.801	80.6
2640.394	81.6
2643.983	80.6
2647.57	80.6
2651.153	77.6
2654.734	76.6
2658.311	76.6
2661.885	80.6
2665.456	72.6
2669.025	72.6
2672.589	72.6
2676.151	83.6
2679.71	71.6
2683.266	71.6
2686.819	79.6
2690.368	71.6
2693.915	70.6
2697.458	68.6
2700.999	72.6
2704.536	76.6
2708.071	72.6
2711.602	64.6
2715.13	61.6
2718.656	68.6
2722.178	58.6
2725.697	68.6
2729.214	59.6
2732.727	64.6
2736.237	68.6
2739.744	62.6
2743.249	53.6
2746.75	53.6
2750.248	51.6
2753.743	50.6
2757.236	44.6
2760.725	47.6
2764.211	43.6
2767.695	40.6
2771.175	34.6
2774.652	37.6
2778.127	45.6
2781.598	40.6
2785.067	39.6
2788.532	34.6
2791.995	39.6
2795.455	39.6
2798.911	42.6
2802.365	48.6
2805.816	49.6
2809.264	51.6
2812.709	50.6
2816.151	48.6
2819.59	63.6
2823.026	48.6
2826.46	55.6
2829.89	58.6
2833.318	55.6
2836.742	64.6
2840.164	61.6
2843.583	61.6
2846.999	76.6
2850.412	73.6
2853.822	76.6
2857.229	80.6
2860.634	83.6
2864.035	87.6
2867.434	92.6
2870.83	103.6
2874.223	110.6
2877.613	125.6
2881	135.6
2884.385	162.6
2887.766	163.6
2891.145	161.6
2894.521	162.6
2897.894	165.6
2901.264	152.6
2904.631	149.6
2907.996	151.6
2911.358	159.6
2914.717	156.6
2918.073	153.6
2921.426	162.6
2924.777	173.6
2928.124	185.6
2931.469	203.6
2934.811	233.6
2938.15	241.6
2941.487	245.6
2944.821	236.6
2948.152	222.6
2951.48	203.6
2954.805	187.6
2958.128	167.6
2961.447	163.6
2964.765	146.6
2968.079	136.6
2971.39	141.6
2974.699	138.6
2978.005	141.6
2981.308	135.6
2984.609	133.6
2987.907	132.6
2991.202	126.6
2994.494	113.6
2997.784	109.6
3001.07	105.6
3004.355	105.6
3007.636	95.6
3010.915	95.6
3014.191	91.6
3017.464	96.6
3020.734	95.6
3024.002	96.6
3027.267	91.6
3030.53	94.6
3033.789	96.6
3037.046	95.6
3040.301	93.6
3043.552	99.6
3046.801	104.6
3050.048	100.6
3053.291	100.6
3056.532	109.6
3059.771	106.6
3063.006	116.6
3066.239	122.6
3069.469	135.6
3072.697	136.6
3075.922	131.6
3079.144	129.6
3082.364	139.6
3085.581	145.6
3088.795	151.6
3092.007	151.6
3095.216	151.6
3098.423	151.6
3101.627	147.6
3104.828	164.6
3108.026	165.6
3111.222	158.6
3114.416	171.6
3117.607	165.6
3120.795	181.6
3123.98	173.6
3127.163	181.6
3130.344	186.6
3133.521	186.6
3136.696	186.6
3139.869	203.6
3143.039	195.6
3146.206	212.6
3149.371	201.6
3152.533	206.6
3155.693	208.6
3158.85	212.6
3162.005	213.6
3165.157	220.6
3168.306	213.6
3171.453	208.6
3174.597	210.6
3177.739	217.6
3180.878	216.6
3184.014	215.6
3187.149	214.6
3190.28	211.6
3193.409	218.6
3196.536	214.6
3199.659	219.6
3202.781	220.6
3205.9	214.6
3209.016	220.6
3212.13	222.6
3215.241	219.6
3218.35	204.6
3221.456	201.6
3224.56	201.6
3227.661	200.6
3230.76	192.6
3233.856	193.6
3236.95	177.6
3240.041	177.6
3243.13	177.6
3246.216	175.6
3249.3	173.6
3252.382	172.6
3255.46	164.6
3258.537	155.6
3261.611	150.6
3264.682	157.6
3267.751	155.6
3270.818	147.6
3273.882	158.6
3276.943	147.6
3280.002	149.6
3283.059	149.6
3286.113	142.6
3289.165	145.6
3292.214	144.6
3295.261	147.6
3298.306	148.6
3301.348	151.6
3304.387	143.6
3307.425	141.6
3310.459	134.6
3313.492	140.6
3316.521	142.6
3319.549	147.6
3322.574	136.6
3325.597	140.6
3328.617	141.6
3331.635	147.6
3334.65	147.6
3337.663	132.6
3340.674	141.6
3343.682	138.6
3346.688	136.6
3349.691	139.6
3352.692	136.6
3355.691	148.6
3358.687	131.6
3361.681	131.6
3364.673	135.6
3367.662	131.6
3370.649	134.6
3373.633	132.6
3376.615	129.6
3379.595	117.6
3382.572	111.6
3385.547	125.6
3388.52	103.6
3391.49	110.6
3394.458	108.6
3397.424	113.6
3400.387	104.6
3403.348	99.6
3406.307	96.6
3409.263	98.6
3412.217	94.6
3415.168	99.6
3418.118	82.6
3421.065	90.6
3424.009	85.6
3426.951	89.6
3429.891	81.6
3432.829	81.6
3435.764	86.6
3438.697	78.6
3441.628	69.6
3444.557	69.6
3447.483	64.6
3450.407	48.6
3453.328	57.6
3456.247	55.6
3459.164	52.6
3462.079	46.6
3464.991	44.6
3467.902	42.6
3470.809	34.6
3473.715	32.6
3476.618	23.6
3479.519	23.6
3482.418	19.6
3485.315	18.6
3488.209	12.6
3491.101	8.6
3493.99	15.6
3496.878	15.6
3499.763	2.6
3502.646	2.6
3505.527	-0.4
3508.405	-2.4
3511.281	-0.4
3514.155	0.6
3517.027	-6.4
3519.897	-7.4
3522.764	-9.4
3525.629	-13.4
3528.492	-21.4
3531.352	-22.4
3534.211	-22.4
3537.067	-24.4
3539.921	-26.4
3542.773	-35.4
3545.622	-30.4
3548.469	-28.4
3551.315	-24.4
3554.157	-32.4
3556.998	-31.4
3559.837	-33.4
3562.673	-32.4
3565.507	-36.4
3568.339	-35.4
3571.169	-37.4
3573.996	-33.4
3576.822	-46.4
3579.645	-49.4
3582.466	-37.4
3585.285	-43.4
3588.101	-51.4
3590.916	-40.4
3593.728	-46.4
3596.538	-48.4
3599.346	-45.4
3602.152	-48.4
3604.956	-49.4
3607.757	-48.4
3610.556	-47.4
3613.354	-55.4
3616.149	-51.4
3618.942	-53.4
3621.732	-52.4
3624.521	-52.4
3627.307	-54.4
3630.092	-58.4
3632.874	-58.4
3635.654	-53.4
3638.432	-55.4
3641.208	-59.4
3643.982	-59.4
3646.753	-61.4
3649.523	-55.4
3652.29	-62.4
3655.055	-59.4
3657.818	-58.4
3660.579	-59.4
3663.338	-58.4
3666.095	-60.4
3668.849	-60.4
3671.602	-62.4
3674.352	-60.4
3677.101	-56.4
3679.847	-62.4
3682.591	-66.4
3685.333	-63.4
3688.073	-60.4
3690.811	-67.4
3693.547	-61.4
3696.281	-62.4
3699.013	-58.4
3701.742	-69.4
3704.47	-62.4
3707.195	-65.4
3709.919	-65.4
3712.64	-69.4
3715.359	-64.4
3718.076	-68.4
3720.792	-70.4
3723.505	-69.4
3726.216	-68.4
3728.925	-71.4
3731.632	-63.4
3734.336	-71.4
3737.039	-59.4
3739.74	-69.4
3742.439	-66.4
3745.136	-72.4
3747.83	-69.4
3750.523	-72.4
3753.213	-71.4
3755.902	-74.4
3758.589	-72.4
3761.273	-64.4
3763.956	-69.4
3766.636	-72.4
3769.315	-69.4
3771.991	-66.4
3774.665	-72.4
3777.338	-71.4
3780.008	-71.4
3782.677	-77.4
3785.343	-75.4
3788.007	-74.4
3790.67	-70.4
3793.33	-70.4
3795.989	-72.4
3798.645	-78.4
3801.299	-70.4
3803.952	-73.4
3806.602	-75.4
3809.251	-72.4
3811.897	-72.4
3814.542	-77.4
3817.184	-69.4
3819.825	-73.4
3822.463	-74.4
3825.1	-69.4
3827.735	-76.4
3830.367	-73.4
3832.998	-74.4
3835.627	-73.4
3838.253	-67.4
3840.878	-74.4
3843.501	-66.4
3846.122	-73.4
3848.741	-67.4
3851.358	-74.4
3853.973	-72.4
3856.586	-66.4
3859.197	-71.4
3861.806	-71.4
3864.414	-72.4
3867.019	-73.4
3869.622	-63.4
3872.224	-66.4
3874.823	-60.4
3877.421	-53.4
3880.016	-38.4
3882.61	-26.4
3885.202	-29.4
3887.792	-34.4
3890.38	-43.4
3892.966	-61.4
3895.55	-68.4
3898.132	-73.4
3900.713	-75.4
3903.291	-69.4
3905.868	-69.4
3908.442	-74.4
3911.015	-72.4
3913.586	-73.4
3916.155	-74.4
3918.722	-73.4
3921.287	-75.4
3923.85	-71.4
3926.411	-73.4
3928.971	-84.4
3931.528	-81.4
3934.084	-72.4
3936.638	-73.4
3939.19	-72.4
3941.74	-71.4
3944.288	-74.4
3946.834	-76.4
3949.378	-73.4
3951.921	-75.4
3954.462	-72.4
3957	-62.4
3959.537	-65.4
3962.072	-75.4
3964.606	-76.4
3967.137	-71.4
3969.667	-74.4
3972.194	-68.4
3974.72	-64.4
3977.244	-74.4
3979.766	-73.4
3982.286	-78.4
3984.805	-82.4
3987.321	-77.4
3989.836	-70.4
3992.349	-73.4
3994.86	-76.4
3997.369	-71.4
3999.877	-77.4
4002.382	-76.4
4004.886	-66.4
4007.388	-71.4
4009.888	-72.4
4012.386	-71.4
4014.883	-71.4
4017.377	-70.4
4019.87	-72.4
4022.361	-75.4
4024.85	-68.4
4027.338	-70.4
4029.823	-73.4
4032.307	-73.4
4034.789	-70.4
4037.269	-74.4
4039.747	-77.4
4042.224	-68.4
4044.699	-75.4
4047.172	-76.4
4049.643	-73.4
4052.112	-69.4
4054.58	-74.4
4057.046	-72.4
4059.51	-71.4
4061.972	-74.4
4064.432	-71.4
4066.891	-68.4
4069.348	-76.4
4071.803	-71.4
4074.256	-73.4
4076.708	-72.4
4079.158	-70.4
4081.606	-70.4
4084.052	-65.4
4086.497	-70.4
4088.939	-71.4
4091.38	-75.4
4093.819	-78.4
4096.257	-71.4
4098.693	-75.4
4101.127	-74.4
4103.559	-81.4
4105.989	10.6
4108.418	7.6
4110.845	6.6
4113.27	11.6
4115.694	7.6
4118.115	11.6
4120.535	-68.4
4122.954	-67.4
4125.37	-72.4
4127.785	-70.4
4130.198	-72.4
4132.609	-75.4
4135.019	-74.4
4137.427	-77.4
4139.833	-75.4
4142.237	-77.4
