Data from 2018-3-7_conc=3_n=5_RamanShift_01.txt Node
Date: Wed Mar 07 11:27:52 IST 2018
User: aro
Spectrometer: QEPB0276
Trigger mode: 0
Integration Time (sec): 3.000000E1
Scans to average: 1
Electric dark correction enabled: true
Nonlinearity correction enabled: false
Boxcar width: 0
XAxis mode: Raman Shifts
Number of Pixels in Spectrum: 1044
>>>>>Begin Spectral Data<<<<<
160.701	10.4
166.742	21.4
172.777	47.4
178.805	142.4
184.826	350.4
190.841	727.4
196.849	1201.4
202.85	1568.4
208.845	1715.4
214.833	1727.4
220.815	1711.4
226.789	1681.4
232.758	1698.4
238.719	1698.4
244.674	1681.4
250.623	1696.4
256.565	1672.4
262.5	1651.4
268.429	1636.4
274.351	1626.4
280.267	1610.4
286.176	1619.4
292.079	1627.4
297.975	1620.4
303.865	1616.4
309.748	1613.4
315.625	1613.4
321.495	1608.4
327.359	1615.4
333.217	1619.4
339.068	1637.4
344.912	1645.4
350.751	1634.4
356.583	1631.4
362.408	1639.4
368.227	1643.4
374.04	1659.4
379.847	1672.4
385.647	1667.4
391.44	1668.4
397.228	1698.4
403.009	1688.4
408.784	1711.4
414.553	1706.4
420.315	1710.4
426.071	1715.4
431.821	1729.4
437.565	1703.4
443.302	1717.4
449.033	1714.4
454.758	1705.4
460.477	1690.4
466.189	1663.4
471.896	1647.4
477.596	1647.4
483.29	1631.4
488.978	1649.4
494.66	1625.4
500.335	1575.4
506.005	1525.4
511.668	1476.4
517.325	1402.4
522.977	1364.4
528.622	1325.4
534.261	1298.4
539.894	1278.4
545.521	1274.4
551.141	1260.4
556.756	1248.4
562.365	1242.4
567.968	1222.4
573.565	1208.4
579.155	1214.4
584.74	1201.4
590.319	1177.4
595.892	1198.4
601.459	1199.4
607.02	1195.4
612.575	1183.4
618.124	1148.4
623.667	1157.4
629.204	1126.4
634.735	1134.4
640.261	1122.4
645.781	1115.4
651.294	1111.4
656.802	1113.4
662.304	1087.4
667.8	1098.4
673.29	1091.4
678.775	1080.4
684.254	1081.4
689.726	1091.4
695.193	1078.4
700.655	1067.4
706.11	1065.4
711.56	1060.4
717.004	1034.4
722.442	1037.4
727.874	1030.4
733.301	1023.4
738.722	1028.4
744.137	1023.4
749.547	1028.4
754.951	1015.4
760.349	1014.4
765.741	1031.4
771.128	1015.4
776.509	1038.4
781.885	1058.4
787.254	1060.4
792.618	1064.4
797.977	1063.4
803.33	1054.4
808.677	1044.4
814.019	1051.4
819.355	1002.4
824.686	1010.4
830.011	1006.4
835.33	997.4
840.644	998.4
845.952	993.4
851.255	984.4
856.552	1002.4
861.844	982.4
867.13	955.4
872.41	967.4
877.686	976.4
882.955	961.4
888.219	952.4
893.478	940.4
898.731	904.4
903.979	897.4
909.221	909.4
914.458	900.4
919.69	885.4
924.916	900.4
930.136	887.4
935.351	891.4
940.561	897.4
945.766	909.4
950.965	901.4
956.158	876.4
961.347	875.4
966.529	869.4
971.707	843.4
976.879	832.4
982.046	835.4
987.208	830.4
992.364	815.4
997.515	830.4
1002.66	818.4
1007.801	848.4
1012.936	848.4
1018.066	856.4
1023.19	857.4
1028.309	855.4
1033.423	856.4
1038.532	846.4
1043.636	855.4
1048.734	828.4
1053.827	823.4
1058.915	805.4
1063.998	806.4
1069.075	799.4
1074.147	803.4
1079.214	815.4
1084.276	809.4
1089.333	825.4
1094.385	814.4
1099.431	804.4
1104.472	806.4
1109.509	807.4
1114.54	785.4
1119.565	777.4
1124.586	770.4
1129.602	762.4
1134.613	750.4
1139.618	749.4
1144.619	749.4
1149.614	768.4
1154.604	755.4
1159.589	759.4
1164.57	763.4
1169.545	758.4
1174.515	764.4
1179.48	759.4
1184.44	745.4
1189.395	735.4
1194.345	726.4
1199.29	724.4
1204.23	739.4
1209.165	724.4
1214.095	730.4
1219.021	739.4
1223.941	741.4
1228.856	740.4
1233.766	741.4
1238.672	750.4
1243.572	750.4
1248.467	749.4
1253.358	743.4
1258.244	719.4
1263.124	703.4
1268	695.4
1272.871	686.4
1277.737	687.4
1282.599	678.4
1287.455	683.4
1292.306	670.4
1297.153	675.4
1301.995	689.4
1306.832	691.4
1311.664	697.4
1316.491	698.4
1321.314	695.4
1326.132	687.4
1330.945	674.4
1335.753	662.4
1340.556	641.4
1345.354	623.4
1350.148	622.4
1354.937	604.4
1359.722	601.4
1364.501	583.4
1369.276	583.4
1374.046	571.4
1378.811	564.4
1383.572	574.4
1388.327	568.4
1393.079	555.4
1397.825	574.4
1402.567	573.4
1407.304	585.4
1412.036	579.4
1416.764	570.4
1421.487	582.4
1426.205	579.4
1430.919	569.4
1435.628	583.4
1440.333	576.4
1445.032	570.4
1449.727	597.4
1454.418	596.4
1459.104	578.4
1463.785	573.4
1468.462	570.4
1473.134	563.4
1477.802	532.4
1482.465	512.4
1487.123	505.4
1491.777	499.4
1496.426	500.4
1501.071	481.4
1505.711	482.4
1510.347	473.4
1514.978	479.4
1519.604	477.4
1524.226	472.4
1528.844	469.4
1533.457	478.4
1538.065	465.4
1542.669	461.4
1547.269	470.4
1551.864	478.4
1556.454	487.4
1561.041	501.4
1565.622	486.4
1570.199	497.4
1574.772	490.4
1579.34	498.4
1583.904	501.4
1588.464	515.4
1593.019	507.4
1597.569	523.4
1602.115	520.4
1606.657	503.4
1611.195	516.4
1615.728	508.4
1620.256	504.4
1624.78	507.4
1629.3	513.4
1633.816	498.4
1638.327	522.4
1642.834	505.4
1647.336	507.4
1651.834	500.4
1656.328	500.4
1660.817	491.4
1665.302	496.4
1669.783	494.4
1674.259	473.4
1678.732	464.4
1683.199	436.4
1687.663	428.4
1692.122	417.4
1696.577	386.4
1701.028	382.4
1705.474	358.4
1709.917	341.4
1714.355	343.4
1718.788	336.4
1723.218	339.4
1727.643	338.4
1732.064	333.4
1736.481	344.4
1740.893	325.4
1745.301	326.4
1749.705	319.4
1754.105	312.4
1758.501	307.4
1762.893	298.4
1767.28	298.4
1771.663	292.4
1776.042	289.4
1780.417	280.4
1784.787	279.4
1789.154	272.4
1793.516	249.4
1797.874	256.4
1802.228	254.4
1806.578	256.4
1810.924	249.4
1815.266	258.4
1819.603	249.4
1823.937	255.4
1828.266	257.4
1832.591	264.4
1836.913	265.4
1841.23	261.4
1845.543	255.4
1849.852	265.4
1854.156	261.4
1858.457	262.4
1862.754	256.4
1867.047	259.4
1871.335	249.4
1875.62	250.4
1879.9	264.4
1884.177	246.4
1888.449	241.4
1892.718	245.4
1896.982	239.4
1901.243	232.4
1905.499	231.4
1909.752	227.4
1914	220.4
1918.245	224.4
1922.485	213.4
1926.722	210.4
1930.954	197.4
1935.183	210.4
1939.408	207.4
1943.628	205.4
1947.845	204.4
1952.058	205.4
1956.267	194.4
1960.472	210.4
1964.673	194.4
1968.87	195.4
1973.063	200.4
1977.252	203.4
1981.438	198.4
1985.619	191.4
1989.797	182.4
1993.971	198.4
1998.14	197.4
2002.306	194.4
2006.469	199.4
2010.627	192.4
2014.781	201.4
2018.932	196.4
2023.078	198.4
2027.221	195.4
2031.36	192.4
2035.495	191.4
2039.627	183.4
2043.754	191.4
2047.878	176.4
2051.998	175.4
2056.114	170.4
2060.226	173.4
2064.334	174.4
2068.439	169.4
2072.54	171.4
2076.637	169.4
2080.73	171.4
2084.82	170.4
2088.906	174.4
2092.988	164.4
2097.066	169.4
2101.14	166.4
2105.211	162.4
2109.278	157.4
2113.342	148.4
2117.401	150.4
2121.457	142.4
2125.509	152.4
2129.558	154.4
2133.602	146.4
2137.643	154.4
2141.681	147.4
2145.714	153.4
2149.744	153.4
2153.77	159.4
2157.793	152.4
2161.812	154.4
2165.827	154.4
2169.838	151.4
2173.846	142.4
2177.851	146.4
2181.851	148.4
2185.848	141.4
2189.841	137.4
2193.831	140.4
2197.817	140.4
2201.799	133.4
2205.778	131.4
2209.753	138.4
2213.725	135.4
2217.693	141.4
2221.657	131.4
2225.618	127.4
2229.575	134.4
2233.529	135.4
2237.479	131.4
2241.425	122.4
2245.368	126.4
2249.307	126.4
2253.243	124.4
2257.175	114.4
2261.104	115.4
2265.029	111.4
2268.95	113.4
2272.868	118.4
2276.783	113.4
2280.694	115.4
2284.601	112.4
2288.505	115.4
2292.405	114.4
2296.302	117.4
2300.195	110.4
2304.085	102.4
2307.971	101.4
2311.854	102.4
2315.734	91.4
2319.609	101.4
2323.482	105.4
2327.351	107.4
2331.216	108.4
2335.078	124.4
2338.937	110.4
2342.792	106.4
2346.643	107.4
2350.492	106.4
2354.336	101.4
2358.178	90.4
2362.015	100.4
2365.85	99.4
2369.681	104.4
2373.508	103.4
2377.333	91.4
2381.153	96.4
2384.971	102.4
2388.785	91.4
2392.595	93.4
2396.402	103.4
2400.206	91.4
2404.007	97.4
2407.804	93.4
2411.597	99.4
2415.388	96.4
2419.174	100.4
2422.958	88.4
2426.738	94.4
2430.515	93.4
2434.289	91.4
2438.059	85.4
2441.825	88.4
2445.589	87.4
2449.349	81.4
2453.106	93.4
2456.859	88.4
2460.61	88.4
2464.356	84.4
2468.1	87.4
2471.84	82.4
2475.577	75.4
2479.311	76.4
2483.041	76.4
2486.768	76.4
2490.492	78.4
2494.213	76.4
2497.93	78.4
2501.644	76.4
2505.355	70.4
2509.062	77.4
2512.766	71.4
2516.467	67.4
2520.165	71.4
2523.859	77.4
2527.551	69.4
2531.239	63.4
2534.923	61.4
2538.605	60.4
2542.283	56.4
2545.958	61.4
2549.63	61.4
2553.299	54.4
2556.964	58.4
2560.626	56.4
2564.285	56.4
2567.941	56.4
2571.594	51.4
2575.243	58.4
2578.89	60.4
2582.533	54.4
2586.173	50.4
2589.809	50.4
2593.443	61.4
2597.073	54.4
2600.701	49.4
2604.325	46.4
2607.946	36.4
2611.564	48.4
2615.178	46.4
2618.79	50.4
2622.398	43.4
2626.004	46.4
2629.606	43.4
2633.205	51.4
2636.801	45.4
2640.394	51.4
2643.983	40.4
2647.57	42.4
2651.153	39.4
2654.734	33.4
2658.311	46.4
2661.885	43.4
2665.456	40.4
2669.025	46.4
2672.589	43.4
2676.151	39.4
2679.71	32.4
2683.266	32.4
2686.819	41.4
2690.368	35.4
2693.915	31.4
2697.458	26.4
2700.999	31.4
2704.536	36.4
2708.071	32.4
2711.602	23.4
2715.13	26.4
2718.656	30.4
2722.178	30.4
2725.697	25.4
2729.214	30.4
2732.727	31.4
2736.237	31.4
2739.744	22.4
2743.249	23.4
2746.75	23.4
2750.248	20.4
2753.743	23.4
2757.236	19.4
2760.725	16.4
2764.211	12.4
2767.695	11.4
2771.175	18.4
2774.652	16.4
2778.127	16.4
2781.598	18.4
2785.067	18.4
2788.532	14.4
2791.995	22.4
2795.455	17.4
2798.911	18.4
2802.365	16.4
2805.816	17.4
2809.264	14.4
2812.709	8.4
2816.151	17.4
2819.59	20.4
2823.026	15.4
2826.46	23.4
2829.89	23.4
2833.318	17.4
2836.742	23.4
2840.164	19.4
2843.583	15.4
2846.999	17.4
2850.412	19.4
2853.822	21.4
2857.229	21.4
2860.634	14.4
2864.035	19.4
2867.434	25.4
2870.83	33.4
2874.223	23.4
2877.613	24.4
2881	29.4
2884.385	30.4
2887.766	34.4
2891.145	28.4
2894.521	36.4
2897.894	29.4
2901.264	32.4
2904.631	29.4
2907.996	30.4
2911.358	37.4
2914.717	27.4
2918.073	30.4
2921.426	26.4
2924.777	38.4
2928.124	39.4
2931.469	35.4
2934.811	48.4
2938.15	42.4
2941.487	47.4
2944.821	39.4
2948.152	43.4
2951.48	43.4
2954.805	37.4
2958.128	36.4
2961.447	46.4
2964.765	35.4
2968.079	32.4
2971.39	33.4
2974.699	35.4
2978.005	40.4
2981.308	31.4
2984.609	37.4
2987.907	39.4
2991.202	36.4
2994.494	38.4
2997.784	38.4
3001.07	40.4
3004.355	38.4
3007.636	44.4
3010.915	39.4
3014.191	34.4
3017.464	40.4
3020.734	38.4
3024.002	36.4
3027.267	50.4
3030.53	47.4
3033.789	52.4
3037.046	48.4
3040.301	44.4
3043.552	53.4
3046.801	50.4
3050.048	51.4
3053.291	55.4
3056.532	61.4
3059.771	60.4
3063.006	66.4
3066.239	67.4
3069.469	68.4
3072.697	67.4
3075.922	84.4
3079.144	71.4
3082.364	84.4
3085.581	78.4
3088.795	88.4
3092.007	89.4
3095.216	88.4
3098.423	89.4
3101.627	93.4
3104.828	98.4
3108.026	95.4
3111.222	98.4
3114.416	104.4
3117.607	103.4
3120.795	104.4
3123.98	108.4
3127.163	114.4
3130.344	112.4
3133.521	121.4
3136.696	122.4
3139.869	120.4
3143.039	123.4
3146.206	124.4
3149.371	134.4
3152.533	136.4
3155.693	141.4
3158.85	141.4
3162.005	140.4
3165.157	137.4
3168.306	125.4
3171.453	136.4
3174.597	137.4
3177.739	139.4
3180.878	140.4
3184.014	134.4
3187.149	138.4
3190.28	144.4
3193.409	144.4
3196.536	138.4
3199.659	140.4
3202.781	140.4
3205.9	142.4
3209.016	135.4
3212.13	148.4
3215.241	141.4
3218.35	137.4
3221.456	136.4
3224.56	130.4
3227.661	128.4
3230.76	120.4
3233.856	132.4
3236.95	120.4
3240.041	119.4
3243.13	121.4
3246.216	117.4
3249.3	115.4
3252.382	115.4
3255.46	114.4
3258.537	114.4
3261.611	107.4
3264.682	104.4
3267.751	111.4
3270.818	96.4
3273.882	103.4
3276.943	100.4
3280.002	105.4
3283.059	105.4
3286.113	96.4
3289.165	100.4
3292.214	101.4
3295.261	105.4
3298.306	93.4
3301.348	99.4
3304.387	89.4
3307.425	88.4
3310.459	92.4
3313.492	95.4
3316.521	92.4
3319.549	96.4
3322.574	89.4
3325.597	91.4
3328.617	91.4
3331.635	91.4
3334.65	99.4
3337.663	84.4
3340.674	93.4
3343.682	93.4
3346.688	91.4
3349.691	91.4
3352.692	98.4
3355.691	101.4
3358.687	87.4
3361.681	80.4
3364.673	87.4
3367.662	86.4
3370.649	88.4
3373.633	82.4
3376.615	81.4
3379.595	81.4
3382.572	67.4
3385.547	82.4
3388.52	75.4
3391.49	71.4
3394.458	69.4
3397.424	73.4
3400.387	65.4
3403.348	63.4
3406.307	62.4
3409.263	65.4
3412.217	60.4
3415.168	67.4
3418.118	57.4
3421.065	54.4
3424.009	57.4
3426.951	59.4
3429.891	51.4
3432.829	54.4
3435.764	60.4
3438.697	51.4
3441.628	45.4
3444.557	45.4
3447.483	47.4
3450.407	35.4
3453.328	38.4
3456.247	34.4
3459.164	34.4
3462.079	27.4
3464.991	23.4
3467.902	21.4
3470.809	25.4
3473.715	18.4
3476.618	21.4
3479.519	13.4
3482.418	17.4
3485.315	17.4
3488.209	13.4
3491.101	7.4
3493.99	13.4
3496.878	11.4
3499.763	5.4
3502.646	4.4
3505.527	6.4
3508.405	5.4
3511.281	1.4
3514.155	-2.6
3517.027	-8.6
3519.897	-1.6
3522.764	-4.6
3525.629	-6.6
3528.492	-8.6
3531.352	-12.6
3534.211	-15.6
3537.067	-15.6
3539.921	-11.6
3542.773	-23.6
3545.622	-21.6
3548.469	-17.6
3551.315	-17.6
3554.157	-20.6
3556.998	-22.6
3559.837	-26.6
3562.673	-27.6
3565.507	-27.6
3568.339	-15.6
3571.169	-20.6
3573.996	-21.6
3576.822	-31.6
3579.645	-28.6
3582.466	-25.6
3585.285	-27.6
3588.101	-35.6
3590.916	-26.6
3593.728	-33.6
3596.538	-36.6
3599.346	-32.6
3602.152	-36.6
3604.956	-35.6
3607.757	-28.6
3610.556	-32.6
3613.354	-37.6
3616.149	-37.6
3618.942	-32.6
3621.732	-33.6
3624.521	-35.6
3627.307	-39.6
3630.092	-38.6
3632.874	-38.6
3635.654	-38.6
3638.432	-37.6
3641.208	-39.6
3643.982	-35.6
3646.753	-40.6
3649.523	-35.6
3652.29	-41.6
3655.055	-36.6
3657.818	-45.6
3660.579	-40.6
3663.338	-34.6
3666.095	-45.6
3668.849	-39.6
3671.602	-40.6
3674.352	-35.6
3677.101	-40.6
3679.847	-46.6
3682.591	-48.6
3685.333	-45.6
3688.073	-55.6
3690.811	-46.6
3693.547	-45.6
3696.281	-44.6
3699.013	-43.6
3701.742	-45.6
3704.47	-38.6
3707.195	-44.6
3709.919	-48.6
3712.64	-48.6
3715.359	-45.6
3718.076	-53.6
3720.792	-46.6
3723.505	-45.6
3726.216	-45.6
3728.925	-50.6
3731.632	-47.6
3734.336	-50.6
3737.039	-47.6
3739.74	-52.6
3742.439	-51.6
3745.136	-49.6
3747.83	-42.6
3750.523	-54.6
3753.213	-48.6
3755.902	-51.6
3758.589	-50.6
3761.273	-46.6
3763.956	-51.6
3766.636	-54.6
3769.315	-46.6
3771.991	-52.6
3774.665	-52.6
3777.338	-50.6
3780.008	-50.6
3782.677	-54.6
3785.343	-49.6
3788.007	-45.6
3790.67	-50.6
3793.33	-51.6
3795.989	-54.6
3798.645	-58.6
3801.299	-51.6
3803.952	-50.6
3806.602	-50.6
3809.251	-57.6
3811.897	-56.6
3814.542	-57.6
3817.184	-50.6
3819.825	-46.6
3822.463	-48.6
3825.1	-48.6
3827.735	-54.6
3830.367	-51.6
3832.998	-53.6
3835.627	-51.6
3838.253	-48.6
3840.878	-43.6
3843.501	-46.6
3846.122	-51.6
3848.741	-48.6
3851.358	-53.6
3853.973	-46.6
3856.586	-47.6
3859.197	-50.6
3861.806	-53.6
3864.414	-52.6
3867.019	-46.6
3869.622	-46.6
3872.224	-42.6
3874.823	-27.6
3877.421	-23.6
3880.016	-5.6
3882.61	12.4
3885.202	11.4
3887.792	11.4
3890.38	-14.6
3892.966	-33.6
3895.55	-41.6
3898.132	-47.6
3900.713	-49.6
3903.291	-53.6
3905.868	-49.6
3908.442	-52.6
3911.015	-48.6
3913.586	-59.6
3916.155	-50.6
3918.722	-54.6
3921.287	-52.6
3923.85	-50.6
3926.411	-53.6
3928.971	-58.6
3931.528	-56.6
3934.084	-49.6
3936.638	-48.6
3939.19	-55.6
3941.74	-51.6
3944.288	-49.6
3946.834	-54.6
3949.378	-52.6
3951.921	-53.6
3954.462	-57.6
3957	-50.6
3959.537	-39.6
3962.072	-52.6
3964.606	-51.6
3967.137	-45.6
3969.667	-50.6
3972.194	-49.6
3974.72	-47.6
3977.244	-49.6
3979.766	-46.6
3982.286	-53.6
3984.805	-58.6
3987.321	-51.6
3989.836	-48.6
3992.349	-51.6
3994.86	-58.6
3997.369	-57.6
3999.877	-51.6
4002.382	-49.6
4004.886	-52.6
4007.388	-44.6
4009.888	-48.6
4012.386	-48.6
4014.883	-49.6
4017.377	-47.6
4019.87	-53.6
4022.361	-55.6
4024.85	-48.6
4027.338	-53.6
4029.823	-54.6
4032.307	-55.6
4034.789	-56.6
4037.269	-57.6
4039.747	-52.6
4042.224	-52.6
4044.699	-52.6
4047.172	-56.6
4049.643	-54.6
4052.112	-45.6
4054.58	-51.6
4057.046	-49.6
4059.51	-50.6
4061.972	-53.6
4064.432	-55.6
4066.891	-47.6
4069.348	-54.6
4071.803	-47.6
4074.256	-46.6
4076.708	-51.6
4079.158	-53.6
4081.606	-50.6
4084.052	-53.6
4086.497	-48.6
4088.939	-47.6
4091.38	-54.6
4093.819	-53.6
4096.257	-53.6
4098.693	-52.6
4101.127	-49.6
4103.559	-55.6
4105.989	35.4
4108.418	22.4
4110.845	16.4
4113.27	18.4
4115.694	24.4
4118.115	20.4
4120.535	-53.6
4122.954	-47.6
4125.37	-53.6
4127.785	-49.6
4130.198	-52.6
4132.609	-55.6
4135.019	-55.6
4137.427	-56.6
4139.833	-53.6
4142.237	-55.6
