Data from 2018-3-7_conc=3_n=3_RamanShift_01.txt Node
Date: Wed Mar 07 11:21:52 IST 2018
User: aro
Spectrometer: QEPB0276
Trigger mode: 0
Integration Time (sec): 3.000000E1
Scans to average: 1
Electric dark correction enabled: true
Nonlinearity correction enabled: false
Boxcar width: 0
XAxis mode: Raman Shifts
Number of Pixels in Spectrum: 1044
>>>>>Begin Spectral Data<<<<<
160.701	14.4
166.742	16.4
172.777	56.4
178.805	144.4
184.826	364.4
190.841	746.4
196.849	1223.4
202.85	1590.4
208.845	1740.4
214.833	1744.4
220.815	1717.4
226.789	1732.4
232.758	1727.4
238.719	1742.4
244.674	1729.4
250.623	1710.4
256.565	1695.4
262.5	1680.4
268.429	1667.4
274.351	1638.4
280.267	1633.4
286.176	1652.4
292.079	1647.4
297.975	1670.4
303.865	1657.4
309.748	1637.4
315.625	1660.4
321.495	1647.4
327.359	1641.4
333.217	1634.4
339.068	1665.4
344.912	1665.4
350.751	1665.4
356.583	1668.4
362.408	1667.4
368.227	1672.4
374.04	1704.4
379.847	1701.4
385.647	1700.4
391.44	1713.4
397.228	1704.4
403.009	1728.4
408.784	1726.4
414.553	1741.4
420.315	1743.4
426.071	1738.4
431.821	1744.4
437.565	1762.4
443.302	1733.4
449.033	1738.4
454.758	1729.4
460.477	1715.4
466.189	1706.4
471.896	1667.4
477.596	1673.4
483.29	1676.4
488.978	1663.4
494.66	1654.4
500.335	1613.4
506.005	1555.4
511.668	1497.4
517.325	1450.4
522.977	1383.4
528.622	1344.4
534.261	1338.4
539.894	1292.4
545.521	1275.4
551.141	1269.4
556.756	1266.4
562.365	1252.4
567.968	1250.4
573.565	1235.4
579.155	1221.4
584.74	1219.4
590.319	1212.4
595.892	1225.4
601.459	1205.4
607.02	1207.4
612.575	1208.4
618.124	1181.4
623.667	1180.4
629.204	1154.4
634.735	1134.4
640.261	1133.4
645.781	1135.4
651.294	1124.4
656.802	1116.4
662.304	1126.4
667.8	1112.4
673.29	1106.4
678.775	1097.4
684.254	1116.4
689.726	1103.4
695.193	1093.4
700.655	1088.4
706.11	1082.4
711.56	1072.4
717.004	1078.4
722.442	1042.4
727.874	1049.4
733.301	1056.4
738.722	1045.4
744.137	1045.4
749.547	1033.4
754.951	1054.4
760.349	1031.4
765.741	1051.4
771.128	1043.4
776.509	1060.4
781.885	1085.4
787.254	1081.4
792.618	1076.4
797.977	1083.4
803.33	1053.4
808.677	1065.4
814.019	1044.4
819.355	1036.4
824.686	1041.4
830.011	1035.4
835.33	1010.4
840.644	1016.4
845.952	1007.4
851.255	1006.4
856.552	1008.4
861.844	998.4
867.13	990.4
872.41	986.4
877.686	976.4
882.955	971.4
888.219	963.4
893.478	948.4
898.731	929.4
903.979	921.4
909.221	916.4
914.458	909.4
919.69	912.4
924.916	908.4
930.136	914.4
935.351	915.4
940.561	916.4
945.766	921.4
950.965	905.4
956.158	902.4
961.347	876.4
966.529	872.4
971.707	857.4
976.879	843.4
982.046	852.4
987.208	853.4
992.364	832.4
997.515	853.4
1002.66	851.4
1007.801	873.4
1012.936	870.4
1018.066	863.4
1023.19	866.4
1028.309	875.4
1033.423	871.4
1038.532	864.4
1043.636	846.4
1048.734	844.4
1053.827	848.4
1058.915	831.4
1063.998	822.4
1069.075	808.4
1074.147	829.4
1079.214	814.4
1084.276	816.4
1089.333	840.4
1094.385	829.4
1099.431	827.4
1104.472	820.4
1109.509	818.4
1114.54	792.4
1119.565	784.4
1124.586	784.4
1129.602	763.4
1134.613	761.4
1139.618	764.4
1144.619	770.4
1149.614	771.4
1154.604	759.4
1159.589	771.4
1164.57	789.4
1169.545	765.4
1174.515	770.4
1179.48	756.4
1184.44	772.4
1189.395	754.4
1194.345	748.4
1199.29	729.4
1204.23	738.4
1209.165	738.4
1214.095	755.4
1219.021	765.4
1223.941	762.4
1228.856	760.4
1233.766	761.4
1238.672	771.4
1243.572	749.4
1248.467	757.4
1253.358	740.4
1258.244	729.4
1263.124	712.4
1268	697.4
1272.871	693.4
1277.737	694.4
1282.599	692.4
1287.455	697.4
1292.306	690.4
1297.153	698.4
1301.995	695.4
1306.832	701.4
1311.664	699.4
1316.491	706.4
1321.314	712.4
1326.132	708.4
1330.945	685.4
1335.753	674.4
1340.556	651.4
1345.354	636.4
1350.148	631.4
1354.937	619.4
1359.722	608.4
1364.501	594.4
1369.276	597.4
1374.046	577.4
1378.811	571.4
1383.572	572.4
1388.327	564.4
1393.079	573.4
1397.825	566.4
1402.567	583.4
1407.304	579.4
1412.036	585.4
1416.764	580.4
1421.487	576.4
1426.205	575.4
1430.919	578.4
1435.628	597.4
1440.333	589.4
1445.032	590.4
1449.727	602.4
1454.418	601.4
1459.104	604.4
1463.785	594.4
1468.462	574.4
1473.134	565.4
1477.802	540.4
1482.465	533.4
1487.123	512.4
1491.777	501.4
1496.426	512.4
1501.071	501.4
1505.711	492.4
1510.347	497.4
1514.978	492.4
1519.604	488.4
1524.226	490.4
1528.844	478.4
1533.457	483.4
1538.065	481.4
1542.669	476.4
1547.269	466.4
1551.864	490.4
1556.454	494.4
1561.041	508.4
1565.622	504.4
1570.199	486.4
1574.772	504.4
1579.34	515.4
1583.904	517.4
1588.464	527.4
1593.019	531.4
1597.569	525.4
1602.115	525.4
1606.657	524.4
1611.195	525.4
1615.728	516.4
1620.256	511.4
1624.78	517.4
1629.3	527.4
1633.816	520.4
1638.327	520.4
1642.834	513.4
1647.336	517.4
1651.834	522.4
1656.328	514.4
1660.817	520.4
1665.302	503.4
1669.783	489.4
1674.259	482.4
1678.732	467.4
1683.199	454.4
1687.663	440.4
1692.122	405.4
1696.577	407.4
1701.028	395.4
1705.474	366.4
1709.917	356.4
1714.355	349.4
1718.788	348.4
1723.218	345.4
1727.643	345.4
1732.064	362.4
1736.481	353.4
1740.893	337.4
1745.301	325.4
1749.705	321.4
1754.105	318.4
1758.501	301.4
1762.893	306.4
1767.28	299.4
1771.663	299.4
1776.042	296.4
1780.417	287.4
1784.787	284.4
1789.154	279.4
1793.516	258.4
1797.874	256.4
1802.228	260.4
1806.578	263.4
1810.924	255.4
1815.266	256.4
1819.603	254.4
1823.937	265.4
1828.266	258.4
1832.591	264.4
1836.913	263.4
1841.23	264.4
1845.543	262.4
1849.852	257.4
1854.156	269.4
1858.457	260.4
1862.754	266.4
1867.047	266.4
1871.335	256.4
1875.62	254.4
1879.9	257.4
1884.177	245.4
1888.449	249.4
1892.718	252.4
1896.982	243.4
1901.243	236.4
1905.499	236.4
1909.752	225.4
1914	226.4
1918.245	214.4
1922.485	211.4
1926.722	207.4
1930.954	205.4
1935.183	211.4
1939.408	219.4
1943.628	214.4
1947.845	213.4
1952.058	207.4
1956.267	205.4
1960.472	213.4
1964.673	202.4
1968.87	192.4
1973.063	201.4
1977.252	194.4
1981.438	197.4
1985.619	195.4
1989.797	200.4
1993.971	195.4
1998.14	205.4
2002.306	206.4
2006.469	214.4
2010.627	205.4
2014.781	208.4
2018.932	203.4
2023.078	206.4
2027.221	201.4
2031.36	199.4
2035.495	188.4
2039.627	183.4
2043.754	186.4
2047.878	184.4
2051.998	184.4
2056.114	179.4
2060.226	182.4
2064.334	178.4
2068.439	176.4
2072.54	173.4
2076.637	180.4
2080.73	174.4
2084.82	172.4
2088.906	169.4
2092.988	169.4
2097.066	161.4
2101.14	165.4
2105.211	174.4
2109.278	156.4
2113.342	147.4
2117.401	149.4
2121.457	147.4
2125.509	148.4
2129.558	146.4
2133.602	157.4
2137.643	155.4
2141.681	144.4
2145.714	156.4
2149.744	156.4
2153.77	150.4
2157.793	161.4
2161.812	158.4
2165.827	157.4
2169.838	148.4
2173.846	144.4
2177.851	146.4
2181.851	146.4
2185.848	144.4
2189.841	141.4
2193.831	135.4
2197.817	142.4
2201.799	142.4
2205.778	136.4
2209.753	140.4
2213.725	138.4
2217.693	138.4
2221.657	139.4
2225.618	140.4
2229.575	132.4
2233.529	130.4
2237.479	141.4
2241.425	128.4
2245.368	132.4
2249.307	126.4
2253.243	127.4
2257.175	120.4
2261.104	120.4
2265.029	125.4
2268.95	124.4
2272.868	119.4
2276.783	117.4
2280.694	114.4
2284.601	108.4
2288.505	111.4
2292.405	115.4
2296.302	120.4
2300.195	109.4
2304.085	112.4
2307.971	102.4
2311.854	103.4
2315.734	96.4
2319.609	106.4
2323.482	98.4
2327.351	108.4
2331.216	123.4
2335.078	133.4
2338.937	122.4
2342.792	109.4
2346.643	102.4
2350.492	109.4
2354.336	106.4
2358.178	92.4
2362.015	95.4
2365.85	102.4
2369.681	114.4
2373.508	112.4
2377.333	105.4
2381.153	103.4
2384.971	105.4
2388.785	94.4
2392.595	100.4
2396.402	109.4
2400.206	103.4
2404.007	98.4
2407.804	97.4
2411.597	95.4
2415.388	94.4
2419.174	103.4
2422.958	92.4
2426.738	98.4
2430.515	94.4
2434.289	91.4
2438.059	88.4
2441.825	91.4
2445.589	88.4
2449.349	91.4
2453.106	94.4
2456.859	90.4
2460.61	84.4
2464.356	88.4
2468.1	83.4
2471.84	77.4
2475.577	75.4
2479.311	72.4
2483.041	68.4
2486.768	74.4
2490.492	76.4
2494.213	77.4
2497.93	78.4
2501.644	75.4
2505.355	71.4
2509.062	65.4
2512.766	73.4
2516.467	75.4
2520.165	78.4
2523.859	72.4
2527.551	61.4
2531.239	65.4
2534.923	61.4
2538.605	66.4
2542.283	59.4
2545.958	63.4
2549.63	65.4
2553.299	60.4
2556.964	53.4
2560.626	65.4
2564.285	57.4
2567.941	62.4
2571.594	57.4
2575.243	62.4
2578.89	47.4
2582.533	52.4
2586.173	52.4
2589.809	53.4
2593.443	57.4
2597.073	47.4
2600.701	55.4
2604.325	45.4
2607.946	43.4
2611.564	53.4
2615.178	46.4
2618.79	50.4
2622.398	53.4
2626.004	43.4
2629.606	47.4
2633.205	39.4
2636.801	40.4
2640.394	49.4
2643.983	41.4
2647.57	43.4
2651.153	37.4
2654.734	40.4
2658.311	43.4
2661.885	42.4
2665.456	46.4
2669.025	43.4
2672.589	38.4
2676.151	44.4
2679.71	34.4
2683.266	35.4
2686.819	39.4
2690.368	33.4
2693.915	32.4
2697.458	27.4
2700.999	35.4
2704.536	29.4
2708.071	38.4
2711.602	29.4
2715.13	26.4
2718.656	25.4
2722.178	28.4
2725.697	27.4
2729.214	25.4
2732.727	30.4
2736.237	30.4
2739.744	28.4
2743.249	25.4
2746.75	22.4
2750.248	17.4
2753.743	17.4
2757.236	14.4
2760.725	25.4
2764.211	16.4
2767.695	16.4
2771.175	16.4
2774.652	13.4
2778.127	17.4
2781.598	20.4
2785.067	19.4
2788.532	14.4
2791.995	18.4
2795.455	11.4
2798.911	17.4
2802.365	16.4
2805.816	17.4
2809.264	24.4
2812.709	14.4
2816.151	22.4
2819.59	27.4
2823.026	23.4
2826.46	22.4
2829.89	14.4
2833.318	21.4
2836.742	21.4
2840.164	18.4
2843.583	18.4
2846.999	18.4
2850.412	25.4
2853.822	19.4
2857.229	23.4
2860.634	19.4
2864.035	22.4
2867.434	26.4
2870.83	25.4
2874.223	27.4
2877.613	31.4
2881	28.4
2884.385	29.4
2887.766	30.4
2891.145	25.4
2894.521	24.4
2897.894	30.4
2901.264	25.4
2904.631	26.4
2907.996	23.4
2911.358	37.4
2914.717	28.4
2918.073	28.4
2921.426	33.4
2924.777	41.4
2928.124	41.4
2931.469	44.4
2934.811	45.4
2938.15	44.4
2941.487	49.4
2944.821	36.4
2948.152	44.4
2951.48	43.4
2954.805	43.4
2958.128	39.4
2961.447	43.4
2964.765	39.4
2968.079	37.4
2971.39	38.4
2974.699	37.4
2978.005	39.4
2981.308	34.4
2984.609	37.4
2987.907	35.4
2991.202	35.4
2994.494	35.4
2997.784	32.4
3001.07	36.4
3004.355	39.4
3007.636	41.4
3010.915	43.4
3014.191	42.4
3017.464	42.4
3020.734	54.4
3024.002	48.4
3027.267	48.4
3030.53	52.4
3033.789	47.4
3037.046	45.4
3040.301	48.4
3043.552	58.4
3046.801	57.4
3050.048	58.4
3053.291	57.4
3056.532	66.4
3059.771	68.4
3063.006	69.4
3066.239	73.4
3069.469	77.4
3072.697	73.4
3075.922	81.4
3079.144	77.4
3082.364	85.4
3085.581	86.4
3088.795	86.4
3092.007	96.4
3095.216	93.4
3098.423	96.4
3101.627	95.4
3104.828	105.4
3108.026	103.4
3111.222	97.4
3114.416	111.4
3117.607	111.4
3120.795	112.4
3123.98	117.4
3127.163	125.4
3130.344	121.4
3133.521	119.4
3136.696	123.4
3139.869	130.4
3143.039	123.4
3146.206	133.4
3149.371	129.4
3152.533	139.4
3155.693	136.4
3158.85	141.4
3162.005	138.4
3165.157	141.4
3168.306	144.4
3171.453	140.4
3174.597	139.4
3177.739	142.4
3180.878	152.4
3184.014	141.4
3187.149	141.4
3190.28	142.4
3193.409	142.4
3196.536	145.4
3199.659	138.4
3202.781	142.4
3205.9	140.4
3209.016	137.4
3212.13	149.4
3215.241	141.4
3218.35	135.4
3221.456	143.4
3224.56	139.4
3227.661	136.4
3230.76	133.4
3233.856	131.4
3236.95	124.4
3240.041	122.4
3243.13	128.4
3246.216	123.4
3249.3	116.4
3252.382	122.4
3255.46	117.4
3258.537	121.4
3261.611	120.4
3264.682	114.4
3267.751	110.4
3270.818	101.4
3273.882	119.4
3276.943	107.4
3280.002	111.4
3283.059	106.4
3286.113	103.4
3289.165	101.4
3292.214	102.4
3295.261	107.4
3298.306	104.4
3301.348	98.4
3304.387	97.4
3307.425	100.4
3310.459	97.4
3313.492	93.4
3316.521	98.4
3319.549	99.4
3322.574	94.4
3325.597	96.4
3328.617	92.4
3331.635	101.4
3334.65	100.4
3337.663	84.4
3340.674	87.4
3343.682	97.4
3346.688	83.4
3349.691	97.4
3352.692	95.4
3355.691	98.4
3358.687	89.4
3361.681	88.4
3364.673	94.4
3367.662	92.4
3370.649	90.4
3373.633	86.4
3376.615	84.4
3379.595	80.4
3382.572	72.4
3385.547	80.4
3388.52	78.4
3391.49	79.4
3394.458	64.4
3397.424	78.4
3400.387	73.4
3403.348	66.4
3406.307	65.4
3409.263	71.4
3412.217	71.4
3415.168	69.4
3418.118	63.4
3421.065	60.4
3424.009	55.4
3426.951	60.4
3429.891	60.4
3432.829	52.4
3435.764	55.4
3438.697	56.4
3441.628	45.4
3444.557	49.4
3447.483	43.4
3450.407	39.4
3453.328	46.4
3456.247	38.4
3459.164	39.4
3462.079	31.4
3464.991	38.4
3467.902	31.4
3470.809	22.4
3473.715	23.4
3476.618	20.4
3479.519	15.4
3482.418	17.4
3485.315	13.4
3488.209	8.4
3491.101	8.4
3493.99	16.4
3496.878	9.4
3499.763	7.4
3502.646	6.4
3505.527	10.4
3508.405	7.4
3511.281	8.4
3514.155	-1.6
3517.027	-6.6
3519.897	-2.6
3522.764	-4.6
3525.629	-3.6
3528.492	-9.6
3531.352	-13.6
3534.211	-12.6
3537.067	-16.6
3539.921	-13.6
3542.773	-14.6
3545.622	-13.6
3548.469	-15.6
3551.315	-15.6
3554.157	-15.6
3556.998	-20.6
3559.837	-24.6
3562.673	-23.6
3565.507	-24.6
3568.339	-25.6
3571.169	-30.6
3573.996	-21.6
3576.822	-26.6
3579.645	-30.6
3582.466	-27.6
3585.285	-30.6
3588.101	-32.6
3590.916	-30.6
3593.728	-32.6
3596.538	-32.6
3599.346	-32.6
3602.152	-27.6
3604.956	-30.6
3607.757	-31.6
3610.556	-31.6
3613.354	-38.6
3616.149	-40.6
3618.942	-37.6
3621.732	-38.6
3624.521	-32.6
3627.307	-40.6
3630.092	-38.6
3632.874	-35.6
3635.654	-35.6
3638.432	-39.6
3641.208	-39.6
3643.982	-38.6
3646.753	-41.6
3649.523	-41.6
3652.29	-40.6
3655.055	-34.6
3657.818	-45.6
3660.579	-45.6
3663.338	-38.6
3666.095	-41.6
3668.849	-46.6
3671.602	-40.6
3674.352	-36.6
3677.101	-46.6
3679.847	-37.6
3682.591	-46.6
3685.333	-42.6
3688.073	-49.6
3690.811	-46.6
3693.547	-48.6
3696.281	-42.6
3699.013	-44.6
3701.742	-52.6
3704.47	-42.6
3707.195	-48.6
3709.919	-45.6
3712.64	-42.6
3715.359	-46.6
3718.076	-45.6
3720.792	-49.6
3723.505	-49.6
3726.216	-43.6
3728.925	-56.6
3731.632	-44.6
3734.336	-46.6
3737.039	-49.6
3739.74	-48.6
3742.439	-55.6
3745.136	-50.6
3747.83	-50.6
3750.523	-56.6
3753.213	-49.6
3755.902	-54.6
3758.589	-44.6
3761.273	-49.6
3763.956	-47.6
3766.636	-44.6
3769.315	-40.6
3771.991	-47.6
3774.665	-57.6
3777.338	-51.6
3780.008	-53.6
3782.677	-57.6
3785.343	-48.6
3788.007	-53.6
3790.67	-52.6
3793.33	-54.6
3795.989	-53.6
3798.645	-53.6
3801.299	-49.6
3803.952	-50.6
3806.602	-50.6
3809.251	-52.6
3811.897	-56.6
3814.542	-57.6
3817.184	-50.6
3819.825	-53.6
3822.463	-53.6
3825.1	-46.6
3827.735	-52.6
3830.367	-53.6
3832.998	-52.6
3835.627	-58.6
3838.253	-47.6
3840.878	-46.6
3843.501	-45.6
3846.122	-52.6
3848.741	-52.6
3851.358	-50.6
3853.973	-48.6
3856.586	-49.6
3859.197	-51.6
3861.806	-56.6
3864.414	-54.6
3867.019	-49.6
3869.622	-46.6
3872.224	-40.6
3874.823	-25.6
3877.421	-21.6
3880.016	-5.6
3882.61	14.4
3885.202	22.4
3887.792	11.4
3890.38	-14.6
3892.966	-36.6
3895.55	-45.6
3898.132	-48.6
3900.713	-51.6
3903.291	-57.6
3905.868	-50.6
3908.442	-53.6
3911.015	-48.6
3913.586	-58.6
3916.155	-52.6
3918.722	-51.6
3921.287	-53.6
3923.85	-49.6
3926.411	-52.6
3928.971	-61.6
3931.528	-54.6
3934.084	-52.6
3936.638	-53.6
3939.19	-59.6
3941.74	-51.6
3944.288	-52.6
3946.834	-54.6
3949.378	-49.6
3951.921	-51.6
3954.462	-54.6
3957	-47.6
3959.537	-43.6
3962.072	-49.6
3964.606	-52.6
3967.137	-46.6
3969.667	-52.6
3972.194	-48.6
3974.72	-52.6
3977.244	-50.6
3979.766	-55.6
3982.286	-53.6
3984.805	-61.6
3987.321	-45.6
3989.836	-53.6
3992.349	-48.6
3994.86	-51.6
3997.369	-54.6
3999.877	-54.6
4002.382	-50.6
4004.886	-51.6
4007.388	-55.6
4009.888	-52.6
4012.386	-55.6
4014.883	-47.6
4017.377	-49.6
4019.87	-51.6
4022.361	-52.6
4024.85	-50.6
4027.338	-52.6
4029.823	-54.6
4032.307	-56.6
4034.789	-49.6
4037.269	-51.6
4039.747	-55.6
4042.224	-56.6
4044.699	-55.6
4047.172	-58.6
4049.643	-54.6
4052.112	-54.6
4054.58	-50.6
4057.046	-48.6
4059.51	-56.6
4061.972	-54.6
4064.432	-53.6
4066.891	-43.6
4069.348	-46.6
4071.803	-49.6
4074.256	-52.6
4076.708	-54.6
4079.158	-57.6
4081.606	-51.6
4084.052	-52.6
4086.497	-47.6
4088.939	-48.6
4091.38	-53.6
4093.819	-55.6
4096.257	-52.6
4098.693	-56.6
4101.127	-49.6
4103.559	-54.6
4105.989	32.4
4108.418	23.4
4110.845	19.4
4113.27	17.4
4115.694	22.4
4118.115	17.4
4120.535	-50.6
4122.954	-44.6
4125.37	-48.6
4127.785	-43.6
4130.198	-51.6
4132.609	-56.6
4135.019	-55.6
4137.427	-60.6
4139.833	-56.6
4142.237	-58.6
