Data from 2018-3-7_conc=6_n=2_RamanShift_02.txt Node
Date: Wed Mar 07 13:00:22 IST 2018
User: aro
Spectrometer: QEPB0276
Trigger mode: 0
Integration Time (sec): 3.000000E1
Scans to average: 1
Electric dark correction enabled: true
Nonlinearity correction enabled: false
Boxcar width: 0
XAxis mode: Raman Shifts
Number of Pixels in Spectrum: 1044
>>>>>Begin Spectral Data<<<<<
160.701	1.8
166.742	16.8
172.777	61.8
178.805	182.8
184.826	461.8
190.841	990.8
196.849	1637.8
202.85	2167.8
208.845	2363.8
214.833	2360.8
220.815	2319.8
226.789	2318.8
232.758	2320.8
238.719	2314.8
244.674	2300.8
250.623	2277.8
256.565	2257.8
262.5	2205.8
268.429	2189.8
274.351	2172.8
280.267	2151.8
286.176	2169.8
292.079	2143.8
297.975	2124.8
303.865	2126.8
309.748	2115.8
315.625	2102.8
321.495	2106.8
327.359	2101.8
333.217	2110.8
339.068	2105.8
344.912	2123.8
350.751	2112.8
356.583	2119.8
362.408	2102.8
368.227	2123.8
374.04	2120.8
379.847	2154.8
385.647	2135.8
391.44	2159.8
397.228	2157.8
403.009	2176.8
408.784	2187.8
414.553	2185.8
420.315	2186.8
426.071	2188.8
431.821	2178.8
437.565	2170.8
443.302	2164.8
449.033	2166.8
454.758	2178.8
460.477	2160.8
466.189	2168.8
471.896	2119.8
477.596	2132.8
483.29	2104.8
488.978	2104.8
494.66	2086.8
500.335	2053.8
506.005	2021.8
511.668	1967.8
517.325	1917.8
522.977	1864.8
528.622	1816.8
534.261	1816.8
539.894	1787.8
545.521	1777.8
551.141	1750.8
556.756	1754.8
562.365	1746.8
567.968	1726.8
573.565	1724.8
579.155	1704.8
584.74	1700.8
590.319	1676.8
595.892	1692.8
601.459	1659.8
607.02	1685.8
612.575	1658.8
618.124	1650.8
623.667	1637.8
629.204	1608.8
634.735	1609.8
640.261	1597.8
645.781	1593.8
651.294	1587.8
656.802	1573.8
662.304	1580.8
667.8	1575.8
673.29	1574.8
678.775	1566.8
684.254	1547.8
689.726	1548.8
695.193	1541.8
700.655	1540.8
706.11	1524.8
711.56	1509.8
717.004	1494.8
722.442	1490.8
727.874	1503.8
733.301	1497.8
738.722	1477.8
744.137	1497.8
749.547	1480.8
754.951	1472.8
760.349	1482.8
765.741	1486.8
771.128	1473.8
776.509	1499.8
781.885	1488.8
787.254	1503.8
792.618	1498.8
797.977	1501.8
803.33	1470.8
808.677	1466.8
814.019	1460.8
819.355	1446.8
824.686	1444.8
830.011	1444.8
835.33	1437.8
840.644	1432.8
845.952	1437.8
851.255	1425.8
856.552	1429.8
861.844	1398.8
867.13	1398.8
872.41	1403.8
877.686	1396.8
882.955	1386.8
888.219	1361.8
893.478	1369.8
898.731	1335.8
903.979	1317.8
909.221	1313.8
914.458	1297.8
919.69	1311.8
924.916	1298.8
930.136	1314.8
935.351	1308.8
940.561	1307.8
945.766	1319.8
950.965	1308.8
956.158	1300.8
961.347	1283.8
966.529	1258.8
971.707	1248.8
976.879	1234.8
982.046	1219.8
987.208	1209.8
992.364	1209.8
997.515	1220.8
1002.66	1227.8
1007.801	1252.8
1012.936	1256.8
1018.066	1243.8
1023.19	1250.8
1028.309	1240.8
1033.423	1237.8
1038.532	1230.8
1043.636	1218.8
1048.734	1208.8
1053.827	1201.8
1058.915	1184.8
1063.998	1171.8
1069.075	1173.8
1074.147	1163.8
1079.214	1176.8
1084.276	1182.8
1089.333	1198.8
1094.385	1190.8
1099.431	1198.8
1104.472	1185.8
1109.509	1176.8
1114.54	1166.8
1119.565	1151.8
1124.586	1150.8
1129.602	1114.8
1134.613	1120.8
1139.618	1094.8
1144.619	1102.8
1149.614	1112.8
1154.604	1099.8
1159.589	1122.8
1164.57	1127.8
1169.545	1105.8
1174.515	1107.8
1179.48	1116.8
1184.44	1099.8
1189.395	1107.8
1194.345	1085.8
1199.29	1071.8
1204.23	1073.8
1209.165	1079.8
1214.095	1088.8
1219.021	1106.8
1223.941	1098.8
1228.856	1122.8
1233.766	1110.8
1238.672	1097.8
1243.572	1098.8
1248.467	1100.8
1253.358	1076.8
1258.244	1064.8
1263.124	1054.8
1268	1036.8
1272.871	1016.8
1277.737	1010.8
1282.599	1003.8
1287.455	1012.8
1292.306	1008.8
1297.153	997.8
1301.995	1018.8
1306.832	1024.8
1311.664	1026.8
1316.491	1043.8
1321.314	1018.8
1326.132	1037.8
1330.945	1005.8
1335.753	991.8
1340.556	974.8
1345.354	950.8
1350.148	931.8
1354.937	915.8
1359.722	886.8
1364.501	862.8
1369.276	837.8
1374.046	822.8
1378.811	812.8
1383.572	810.8
1388.327	809.8
1393.079	821.8
1397.825	821.8
1402.567	825.8
1407.304	841.8
1412.036	836.8
1416.764	846.8
1421.487	844.8
1426.205	859.8
1430.919	852.8
1435.628	852.8
1440.333	869.8
1445.032	857.8
1449.727	870.8
1454.418	883.8
1459.104	873.8
1463.785	845.8
1468.462	828.8
1473.134	825.8
1477.802	787.8
1482.465	780.8
1487.123	762.8
1491.777	736.8
1496.426	734.8
1501.071	719.8
1505.711	708.8
1510.347	698.8
1514.978	679.8
1519.604	683.8
1524.226	686.8
1528.844	681.8
1533.457	668.8
1538.065	671.8
1542.669	679.8
1547.269	682.8
1551.864	683.8
1556.454	702.8
1561.041	704.8
1565.622	719.8
1570.199	713.8
1574.772	724.8
1579.34	721.8
1583.904	739.8
1588.464	763.8
1593.019	758.8
1597.569	758.8
1602.115	765.8
1606.657	760.8
1611.195	750.8
1615.728	746.8
1620.256	746.8
1624.78	744.8
1629.3	749.8
1633.816	755.8
1638.327	765.8
1642.834	738.8
1647.336	761.8
1651.834	759.8
1656.328	745.8
1660.817	750.8
1665.302	741.8
1669.783	717.8
1674.259	702.8
1678.732	692.8
1683.199	658.8
1687.663	634.8
1692.122	604.8
1696.577	571.8
1701.028	544.8
1705.474	498.8
1709.917	492.8
1714.355	482.8
1718.788	477.8
1723.218	483.8
1727.643	482.8
1732.064	481.8
1736.481	482.8
1740.893	476.8
1745.301	476.8
1749.705	458.8
1754.105	440.8
1758.501	436.8
1762.893	436.8
1767.28	428.8
1771.663	430.8
1776.042	415.8
1780.417	403.8
1784.787	393.8
1789.154	382.8
1793.516	367.8
1797.874	351.8
1802.228	349.8
1806.578	334.8
1810.924	347.8
1815.266	344.8
1819.603	353.8
1823.937	354.8
1828.266	356.8
1832.591	360.8
1836.913	357.8
1841.23	367.8
1845.543	363.8
1849.852	376.8
1854.156	370.8
1858.457	378.8
1862.754	382.8
1867.047	378.8
1871.335	365.8
1875.62	361.8
1879.9	367.8
1884.177	372.8
1888.449	364.8
1892.718	348.8
1896.982	349.8
1901.243	331.8
1905.499	330.8
1909.752	320.8
1914	316.8
1918.245	307.8
1922.485	297.8
1926.722	290.8
1930.954	285.8
1935.183	289.8
1939.408	284.8
1943.628	283.8
1947.845	269.8
1952.058	273.8
1956.267	274.8
1960.472	269.8
1964.673	257.8
1968.87	268.8
1973.063	274.8
1977.252	275.8
1981.438	269.8
1985.619	265.8
1989.797	280.8
1993.971	281.8
1998.14	281.8
2002.306	286.8
2006.469	288.8
2010.627	281.8
2014.781	286.8
2018.932	283.8
2023.078	287.8
2027.221	287.8
2031.36	283.8
2035.495	276.8
2039.627	259.8
2043.754	269.8
2047.878	263.8
2051.998	262.8
2056.114	252.8
2060.226	254.8
2064.334	251.8
2068.439	246.8
2072.54	246.8
2076.637	256.8
2080.73	247.8
2084.82	250.8
2088.906	244.8
2092.988	240.8
2097.066	238.8
2101.14	237.8
2105.211	224.8
2109.278	224.8
2113.342	213.8
2117.401	213.8
2121.457	213.8
2125.509	216.8
2129.558	213.8
2133.602	210.8
2137.643	220.8
2141.681	209.8
2145.714	213.8
2149.744	222.8
2153.77	222.8
2157.793	216.8
2161.812	222.8
2165.827	222.8
2169.838	212.8
2173.846	216.8
2177.851	209.8
2181.851	201.8
2185.848	212.8
2189.841	216.8
2193.831	203.8
2197.817	205.8
2201.799	205.8
2205.778	194.8
2209.753	197.8
2213.725	207.8
2217.693	212.8
2221.657	201.8
2225.618	195.8
2229.575	194.8
2233.529	197.8
2237.479	197.8
2241.425	186.8
2245.368	195.8
2249.307	190.8
2253.243	185.8
2257.175	183.8
2261.104	179.8
2265.029	183.8
2268.95	179.8
2272.868	172.8
2276.783	177.8
2280.694	171.8
2284.601	164.8
2288.505	175.8
2292.405	168.8
2296.302	169.8
2300.195	156.8
2304.085	166.8
2307.971	158.8
2311.854	160.8
2315.734	149.8
2319.609	163.8
2323.482	157.8
2327.351	162.8
2331.216	163.8
2335.078	177.8
2338.937	168.8
2342.792	161.8
2346.643	167.8
2350.492	165.8
2354.336	160.8
2358.178	150.8
2362.015	162.8
2365.85	156.8
2369.681	161.8
2373.508	166.8
2377.333	166.8
2381.153	160.8
2384.971	153.8
2388.785	158.8
2392.595	163.8
2396.402	166.8
2400.206	154.8
2404.007	154.8
2407.804	163.8
2411.597	152.8
2415.388	153.8
2419.174	165.8
2422.958	153.8
2426.738	157.8
2430.515	157.8
2434.289	157.8
2438.059	150.8
2441.825	149.8
2445.589	153.8
2449.349	145.8
2453.106	149.8
2456.859	141.8
2460.61	143.8
2464.356	137.8
2468.1	135.8
2471.84	136.8
2475.577	126.8
2479.311	131.8
2483.041	137.8
2486.768	126.8
2490.492	133.8
2494.213	128.8
2497.93	133.8
2501.644	137.8
2505.355	118.8
2509.062	128.8
2512.766	125.8
2516.467	119.8
2520.165	119.8
2523.859	122.8
2527.551	114.8
2531.239	107.8
2534.923	108.8
2538.605	104.8
2542.283	100.8
2545.958	98.8
2549.63	106.8
2553.299	100.8
2556.964	97.8
2560.626	99.8
2564.285	93.8
2567.941	90.8
2571.594	95.8
2575.243	97.8
2578.89	87.8
2582.533	87.8
2586.173	84.8
2589.809	89.8
2593.443	97.8
2597.073	85.8
2600.701	86.8
2604.325	80.8
2607.946	72.8
2611.564	85.8
2615.178	84.8
2618.79	78.8
2622.398	89.8
2626.004	77.8
2629.606	76.8
2633.205	80.8
2636.801	76.8
2640.394	81.8
2643.983	78.8
2647.57	75.8
2651.153	73.8
2654.734	70.8
2658.311	76.8
2661.885	75.8
2665.456	79.8
2669.025	77.8
2672.589	67.8
2676.151	73.8
2679.71	73.8
2683.266	71.8
2686.819	73.8
2690.368	66.8
2693.915	69.8
2697.458	60.8
2700.999	70.8
2704.536	59.8
2708.071	67.8
2711.602	53.8
2715.13	52.8
2718.656	59.8
2722.178	51.8
2725.697	49.8
2729.214	53.8
2732.727	57.8
2736.237	54.8
2739.744	46.8
2743.249	45.8
2746.75	46.8
2750.248	46.8
2753.743	39.8
2757.236	33.8
2760.725	40.8
2764.211	35.8
2767.695	28.8
2771.175	33.8
2774.652	34.8
2778.127	30.8
2781.598	31.8
2785.067	34.8
2788.532	32.8
2791.995	36.8
2795.455	30.8
2798.911	35.8
2802.365	43.8
2805.816	41.8
2809.264	34.8
2812.709	38.8
2816.151	39.8
2819.59	50.8
2823.026	42.8
2826.46	40.8
2829.89	30.8
2833.318	30.8
2836.742	40.8
2840.164	36.8
2843.583	37.8
2846.999	37.8
2850.412	34.8
2853.822	37.8
2857.229	41.8
2860.634	35.8
2864.035	42.8
2867.434	36.8
2870.83	48.8
2874.223	55.8
2877.613	53.8
2881	47.8
2884.385	49.8
2887.766	52.8
2891.145	52.8
2894.521	58.8
2897.894	53.8
2901.264	54.8
2904.631	54.8
2907.996	57.8
2911.358	63.8
2914.717	52.8
2918.073	54.8
2921.426	62.8
2924.777	63.8
2928.124	63.8
2931.469	67.8
2934.811	73.8
2938.15	72.8
2941.487	79.8
2944.821	68.8
2948.152	77.8
2951.48	76.8
2954.805	70.8
2958.128	70.8
2961.447	75.8
2964.765	74.8
2968.079	65.8
2971.39	71.8
2974.699	62.8
2978.005	66.8
2981.308	66.8
2984.609	63.8
2987.907	64.8
2991.202	67.8
2994.494	63.8
2997.784	64.8
3001.07	64.8
3004.355	69.8
3007.636	71.8
3010.915	64.8
3014.191	67.8
3017.464	70.8
3020.734	76.8
3024.002	81.8
3027.267	77.8
3030.53	82.8
3033.789	77.8
3037.046	84.8
3040.301	85.8
3043.552	86.8
3046.801	92.8
3050.048	97.8
3053.291	103.8
3056.532	101.8
3059.771	106.8
3063.006	118.8
3066.239	117.8
3069.469	128.8
3072.697	122.8
3075.922	124.8
3079.144	131.8
3082.364	135.8
3085.581	133.8
3088.795	145.8
3092.007	146.8
3095.216	150.8
3098.423	150.8
3101.627	148.8
3104.828	151.8
3108.026	162.8
3111.222	161.8
3114.416	170.8
3117.607	173.8
3120.795	172.8
3123.98	171.8
3127.163	191.8
3130.344	188.8
3133.521	190.8
3136.696	184.8
3139.869	203.8
3143.039	199.8
3146.206	213.8
3149.371	207.8
3152.533	214.8
3155.693	218.8
3158.85	210.8
3162.005	214.8
3165.157	219.8
3168.306	212.8
3171.453	212.8
3174.597	212.8
3177.739	220.8
3180.878	220.8
3184.014	219.8
3187.149	215.8
3190.28	225.8
3193.409	225.8
3196.536	214.8
3199.659	225.8
3202.781	235.8
3205.9	229.8
3209.016	222.8
3212.13	221.8
3215.241	224.8
3218.35	222.8
3221.456	225.8
3224.56	210.8
3227.661	206.8
3230.76	205.8
3233.856	208.8
3236.95	193.8
3240.041	189.8
3243.13	192.8
3246.216	187.8
3249.3	180.8
3252.382	182.8
3255.46	182.8
3258.537	176.8
3261.611	176.8
3264.682	174.8
3267.751	170.8
3270.818	165.8
3273.882	167.8
3276.943	158.8
3280.002	173.8
3283.059	171.8
3286.113	164.8
3289.165	163.8
3292.214	161.8
3295.261	159.8
3298.306	160.8
3301.348	156.8
3304.387	161.8
3307.425	147.8
3310.459	151.8
3313.492	153.8
3316.521	153.8
3319.549	159.8
3322.574	153.8
3325.597	149.8
3328.617	155.8
3331.635	151.8
3334.65	164.8
3337.663	139.8
3340.674	154.8
3343.682	148.8
3346.688	150.8
3349.691	158.8
3352.692	158.8
3355.691	159.8
3358.687	149.8
3361.681	147.8
3364.673	150.8
3367.662	136.8
3370.649	150.8
3373.633	142.8
3376.615	148.8
3379.595	135.8
3382.572	128.8
3385.547	127.8
3388.52	134.8
3391.49	120.8
3394.458	119.8
3397.424	121.8
3400.387	115.8
3403.348	111.8
3406.307	112.8
3409.263	113.8
3412.217	112.8
3415.168	114.8
3418.118	108.8
3421.065	106.8
3424.009	104.8
3426.951	101.8
3429.891	108.8
3432.829	100.8
3435.764	106.8
3438.697	90.8
3441.628	79.8
3444.557	82.8
3447.483	78.8
3450.407	78.8
3453.328	73.8
3456.247	71.8
3459.164	66.8
3462.079	59.8
3464.991	66.8
3467.902	51.8
3470.809	51.8
3473.715	50.8
3476.618	40.8
3479.519	40.8
3482.418	39.8
3485.315	39.8
3488.209	28.8
3491.101	26.8
3493.99	33.8
3496.878	22.8
3499.763	24.8
3502.646	25.8
3505.527	23.8
3508.405	20.8
3511.281	21.8
3514.155	7.8
3517.027	1.8
3519.897	4.8
3522.764	0.8
3525.629	1.8
3528.492	-2.2
3531.352	-5.2
3534.211	-7.2
3537.067	-16.2
3539.921	-6.2
3542.773	-14.2
3545.622	-12.2
3548.469	-10.2
3551.315	-12.2
3554.157	-16.2
3556.998	-18.2
3559.837	-17.2
3562.673	-19.2
3565.507	-21.2
3568.339	-16.2
3571.169	-22.2
3573.996	-18.2
3576.822	-29.2
3579.645	-30.2
3582.466	-30.2
3585.285	-32.2
3588.101	-37.2
3590.916	-26.2
3593.728	-36.2
3596.538	-37.2
3599.346	-37.2
3602.152	-39.2
3604.956	-40.2
3607.757	-34.2
3610.556	-32.2
3613.354	-40.2
3616.149	-45.2
3618.942	-41.2
3621.732	-37.2
3624.521	-35.2
3627.307	-37.2
3630.092	-49.2
3632.874	-43.2
3635.654	-47.2
3638.432	-39.2
3641.208	-43.2
3643.982	-44.2
3646.753	-47.2
3649.523	-43.2
3652.29	-46.2
3655.055	-41.2
3657.818	-52.2
3660.579	-48.2
3663.338	-50.2
3666.095	-54.2
3668.849	-48.2
3671.602	-49.2
3674.352	-46.2
3677.101	-47.2
3679.847	-50.2
3682.591	-56.2
3685.333	-49.2
3688.073	-56.2
3690.811	-47.2
3693.547	-52.2
3696.281	-53.2
3699.013	-53.2
3701.742	-53.2
3704.47	-49.2
3707.195	-58.2
3709.919	-54.2
3712.64	-53.2
3715.359	-59.2
3718.076	-60.2
3720.792	-54.2
3723.505	-57.2
3726.216	-54.2
3728.925	-56.2
3731.632	-51.2
3734.336	-55.2
3737.039	-55.2
3739.74	-59.2
3742.439	-69.2
3745.136	-57.2
3747.83	-58.2
3750.523	-58.2
3753.213	-70.2
3755.902	-54.2
3758.589	-61.2
3761.273	-54.2
3763.956	-61.2
3766.636	-56.2
3769.315	-54.2
3771.991	-66.2
3774.665	-65.2
3777.338	-65.2
3780.008	-62.2
3782.677	-65.2
3785.343	-59.2
3788.007	-58.2
3790.67	-59.2
3793.33	-54.2
3795.989	-64.2
3798.645	-64.2
3801.299	-54.2
3803.952	-59.2
3806.602	-58.2
3809.251	-59.2
3811.897	-62.2
3814.542	-63.2
3817.184	-66.2
3819.825	-57.2
3822.463	-64.2
3825.1	-58.2
3827.735	-65.2
3830.367	-64.2
3832.998	-65.2
3835.627	-60.2
3838.253	-59.2
3840.878	-57.2
3843.501	-55.2
3846.122	-62.2
3848.741	-59.2
3851.358	-61.2
3853.973	-58.2
3856.586	-54.2
3859.197	-59.2
3861.806	-62.2
3864.414	-66.2
3867.019	-63.2
3869.622	-50.2
3872.224	-48.2
3874.823	-42.2
3877.421	-41.2
3880.016	-30.2
3882.61	-9.2
3885.202	-9.2
3887.792	-17.2
3890.38	-39.2
3892.966	-49.2
3895.55	-54.2
3898.132	-57.2
3900.713	-60.2
3903.291	-61.2
3905.868	-56.2
3908.442	-60.2
3911.015	-61.2
3913.586	-63.2
3916.155	-60.2
3918.722	-62.2
3921.287	-62.2
3923.85	-58.2
3926.411	-67.2
3928.971	-67.2
3931.528	-62.2
3934.084	-57.2
3936.638	-62.2
3939.19	-65.2
3941.74	-59.2
3944.288	-64.2
3946.834	-63.2
3949.378	-63.2
3951.921	-68.2
3954.462	-63.2
3957	-56.2
3959.537	-52.2
3962.072	-58.2
3964.606	-57.2
3967.137	-54.2
3969.667	-56.2
3972.194	-59.2
3974.72	-54.2
3977.244	-58.2
3979.766	-58.2
3982.286	-62.2
3984.805	-68.2
3987.321	-59.2
3989.836	-62.2
3992.349	-59.2
3994.86	-65.2
3997.369	-63.2
3999.877	-60.2
4002.382	-63.2
4004.886	-60.2
4007.388	-64.2
4009.888	-55.2
4012.386	-58.2
4014.883	-58.2
4017.377	-55.2
4019.87	-55.2
4022.361	-59.2
4024.85	-54.2
4027.338	-63.2
4029.823	-57.2
4032.307	-62.2
4034.789	-58.2
4037.269	-59.2
4039.747	-66.2
4042.224	-62.2
4044.699	-64.2
4047.172	-67.2
4049.643	-64.2
4052.112	-61.2
4054.58	-65.2
4057.046	-58.2
4059.51	-64.2
4061.972	-62.2
4064.432	-64.2
4066.891	-55.2
4069.348	-58.2
4071.803	-57.2
4074.256	-59.2
4076.708	-60.2
4079.158	-60.2
4081.606	-58.2
4084.052	-62.2
4086.497	-58.2
4088.939	-59.2
4091.38	-64.2
4093.819	-65.2
4096.257	-63.2
4098.693	-70.2
4101.127	-59.2
4103.559	-68.2
4105.989	1.8
4108.418	-9.2
4110.845	-11.2
4113.27	0.8
4115.694	3.8
4118.115	4.8
4120.535	-59.2
4122.954	-54.2
4125.37	-62.2
4127.785	-57.2
4130.198	-62.2
4132.609	-67.2
4135.019	-66.2
4137.427	-66.2
4139.833	-66.2
4142.237	-64.2
