Data from 2018-3-7_conc=0_n=7_RamanShift_04.txt Node
Date: Wed Mar 07 10:27:22 IST 2018
User: aro
Spectrometer: QEPB0276
Trigger mode: 0
Integration Time (sec): 3.000000E1
Scans to average: 1
Electric dark correction enabled: true
Nonlinearity correction enabled: false
Boxcar width: 0
XAxis mode: Raman Shifts
Number of Pixels in Spectrum: 1044
>>>>>Begin Spectral Data<<<<<
160.701	5.8
166.742	21.8
172.777	50.8
178.805	156.8
184.826	398.8
190.841	843.8
196.849	1362.8
202.85	1779.8
208.845	1941.8
214.833	1932.8
220.815	1914.8
226.789	1928.8
232.758	1936.8
238.719	1961.8
244.674	1966.8
250.623	1961.8
256.565	1916.8
262.5	1915.8
268.429	1919.8
274.351	1908.8
280.267	1896.8
286.176	1909.8
292.079	1894.8
297.975	1934.8
303.865	1928.8
309.748	1943.8
315.625	1937.8
321.495	1932.8
327.359	1937.8
333.217	1961.8
339.068	1985.8
344.912	1974.8
350.751	1941.8
356.583	1981.8
362.408	1961.8
368.227	1987.8
374.04	1992.8
379.847	2032.8
385.647	2021.8
391.44	2027.8
397.228	2057.8
403.009	2053.8
408.784	2060.8
414.553	2093.8
420.315	2101.8
426.071	2101.8
431.821	2101.8
437.565	2095.8
443.302	2106.8
449.033	2093.8
454.758	2066.8
460.477	2066.8
466.189	2038.8
471.896	2011.8
477.596	2004.8
483.29	1971.8
488.978	1988.8
494.66	1970.8
500.335	1927.8
506.005	1835.8
511.668	1728.8
517.325	1669.8
522.977	1571.8
528.622	1521.8
534.261	1485.8
539.894	1426.8
545.521	1443.8
551.141	1424.8
556.756	1389.8
562.365	1380.8
567.968	1374.8
573.565	1368.8
579.155	1352.8
584.74	1342.8
590.319	1343.8
595.892	1348.8
601.459	1328.8
607.02	1351.8
612.575	1312.8
618.124	1315.8
623.667	1291.8
629.204	1277.8
634.735	1255.8
640.261	1243.8
645.781	1241.8
651.294	1239.8
656.802	1231.8
662.304	1222.8
667.8	1229.8
673.29	1223.8
678.775	1223.8
684.254	1204.8
689.726	1206.8
695.193	1204.8
700.655	1185.8
706.11	1174.8
711.56	1157.8
717.004	1178.8
722.442	1157.8
727.874	1126.8
733.301	1153.8
738.722	1138.8
744.137	1147.8
749.547	1145.8
754.951	1142.8
760.349	1135.8
765.741	1138.8
771.128	1170.8
776.509	1182.8
781.885	1195.8
787.254	1203.8
792.618	1189.8
797.977	1209.8
803.33	1190.8
808.677	1198.8
814.019	1185.8
819.355	1165.8
824.686	1150.8
830.011	1153.8
835.33	1128.8
840.644	1131.8
845.952	1141.8
851.255	1117.8
856.552	1121.8
861.844	1093.8
867.13	1088.8
872.41	1120.8
877.686	1139.8
882.955	1157.8
888.219	1161.8
893.478	1119.8
898.731	1056.8
903.979	1018.8
909.221	1015.8
914.458	998.8
919.69	991.8
924.916	995.8
930.136	995.8
935.351	993.8
940.561	1000.8
945.766	981.8
950.965	986.8
956.158	974.8
961.347	976.8
966.529	950.8
971.707	933.8
976.879	915.8
982.046	917.8
987.208	915.8
992.364	910.8
997.515	920.8
1002.66	924.8
1007.801	939.8
1012.936	937.8
1018.066	965.8
1023.19	956.8
1028.309	958.8
1033.423	953.8
1038.532	957.8
1043.636	968.8
1048.734	970.8
1053.827	957.8
1058.915	954.8
1063.998	932.8
1069.075	927.8
1074.147	928.8
1079.214	932.8
1084.276	933.8
1089.333	950.8
1094.385	957.8
1099.431	937.8
1104.472	917.8
1109.509	912.8
1114.54	871.8
1119.565	863.8
1124.586	851.8
1129.602	850.8
1134.613	850.8
1139.618	846.8
1144.619	830.8
1149.614	843.8
1154.604	837.8
1159.589	835.8
1164.57	838.8
1169.545	839.8
1174.515	845.8
1179.48	843.8
1184.44	833.8
1189.395	831.8
1194.345	815.8
1199.29	822.8
1204.23	807.8
1209.165	811.8
1214.095	819.8
1219.021	818.8
1223.941	816.8
1228.856	833.8
1233.766	838.8
1238.672	824.8
1243.572	821.8
1248.467	819.8
1253.358	829.8
1258.244	794.8
1263.124	792.8
1268	788.8
1272.871	775.8
1277.737	762.8
1282.599	770.8
1287.455	762.8
1292.306	762.8
1297.153	751.8
1301.995	757.8
1306.832	755.8
1311.664	767.8
1316.491	771.8
1321.314	766.8
1326.132	764.8
1330.945	750.8
1335.753	729.8
1340.556	712.8
1345.354	696.8
1350.148	691.8
1354.937	663.8
1359.722	651.8
1364.501	632.8
1369.276	640.8
1374.046	621.8
1378.811	624.8
1383.572	626.8
1388.327	618.8
1393.079	620.8
1397.825	637.8
1402.567	627.8
1407.304	630.8
1412.036	640.8
1416.764	636.8
1421.487	635.8
1426.205	639.8
1430.919	633.8
1435.628	647.8
1440.333	656.8
1445.032	654.8
1449.727	679.8
1454.418	692.8
1459.104	682.8
1463.785	675.8
1468.462	657.8
1473.134	623.8
1477.802	605.8
1482.465	581.8
1487.123	570.8
1491.777	553.8
1496.426	553.8
1501.071	543.8
1505.711	535.8
1510.347	516.8
1514.978	516.8
1519.604	523.8
1524.226	523.8
1528.844	510.8
1533.457	515.8
1538.065	523.8
1542.669	511.8
1547.269	512.8
1551.864	522.8
1556.454	525.8
1561.041	539.8
1565.622	552.8
1570.199	551.8
1574.772	533.8
1579.34	553.8
1583.904	550.8
1588.464	571.8
1593.019	555.8
1597.569	557.8
1602.115	548.8
1606.657	560.8
1611.195	566.8
1615.728	548.8
1620.256	539.8
1624.78	551.8
1629.3	546.8
1633.816	545.8
1638.327	550.8
1642.834	539.8
1647.336	541.8
1651.834	541.8
1656.328	540.8
1660.817	546.8
1665.302	529.8
1669.783	507.8
1674.259	508.8
1678.732	483.8
1683.199	473.8
1687.663	455.8
1692.122	435.8
1696.577	416.8
1701.028	407.8
1705.474	373.8
1709.917	372.8
1714.355	360.8
1718.788	362.8
1723.218	379.8
1727.643	366.8
1732.064	367.8
1736.481	367.8
1740.893	361.8
1745.301	349.8
1749.705	342.8
1754.105	329.8
1758.501	327.8
1762.893	327.8
1767.28	323.8
1771.663	312.8
1776.042	305.8
1780.417	289.8
1784.787	292.8
1789.154	282.8
1793.516	264.8
1797.874	271.8
1802.228	280.8
1806.578	268.8
1810.924	269.8
1815.266	271.8
1819.603	268.8
1823.937	276.8
1828.266	270.8
1832.591	276.8
1836.913	272.8
1841.23	277.8
1845.543	268.8
1849.852	276.8
1854.156	281.8
1858.457	278.8
1862.754	275.8
1867.047	278.8
1871.335	283.8
1875.62	273.8
1879.9	273.8
1884.177	257.8
1888.449	260.8
1892.718	267.8
1896.982	255.8
1901.243	239.8
1905.499	236.8
1909.752	235.8
1914	232.8
1918.245	228.8
1922.485	223.8
1926.722	212.8
1930.954	215.8
1935.183	212.8
1939.408	216.8
1943.628	207.8
1947.845	215.8
1952.058	211.8
1956.267	213.8
1960.472	210.8
1964.673	198.8
1968.87	206.8
1973.063	205.8
1977.252	207.8
1981.438	204.8
1985.619	211.8
1989.797	204.8
1993.971	200.8
1998.14	212.8
2002.306	211.8
2006.469	217.8
2010.627	204.8
2014.781	215.8
2018.932	209.8
2023.078	214.8
2027.221	210.8
2031.36	210.8
2035.495	194.8
2039.627	192.8
2043.754	193.8
2047.878	187.8
2051.998	194.8
2056.114	183.8
2060.226	177.8
2064.334	183.8
2068.439	177.8
2072.54	172.8
2076.637	185.8
2080.73	183.8
2084.82	184.8
2088.906	175.8
2092.988	172.8
2097.066	161.8
2101.14	174.8
2105.211	172.8
2109.278	170.8
2113.342	160.8
2117.401	160.8
2121.457	157.8
2125.509	158.8
2129.558	162.8
2133.602	151.8
2137.643	159.8
2141.681	156.8
2145.714	158.8
2149.744	164.8
2153.77	161.8
2157.793	152.8
2161.812	170.8
2165.827	160.8
2169.838	161.8
2173.846	161.8
2177.851	155.8
2181.851	155.8
2185.848	150.8
2189.841	150.8
2193.831	139.8
2197.817	147.8
2201.799	142.8
2205.778	154.8
2209.753	148.8
2213.725	145.8
2217.693	141.8
2221.657	149.8
2225.618	137.8
2229.575	134.8
2233.529	140.8
2237.479	139.8
2241.425	140.8
2245.368	136.8
2249.307	135.8
2253.243	129.8
2257.175	131.8
2261.104	127.8
2265.029	134.8
2268.95	129.8
2272.868	131.8
2276.783	127.8
2280.694	125.8
2284.601	114.8
2288.505	122.8
2292.405	117.8
2296.302	125.8
2300.195	112.8
2304.085	113.8
2307.971	118.8
2311.854	112.8
2315.734	108.8
2319.609	116.8
2323.482	119.8
2327.351	116.8
2331.216	125.8
2335.078	143.8
2338.937	125.8
2342.792	118.8
2346.643	115.8
2350.492	114.8
2354.336	109.8
2358.178	105.8
2362.015	114.8
2365.85	112.8
2369.681	122.8
2373.508	114.8
2377.333	115.8
2381.153	108.8
2384.971	107.8
2388.785	105.8
2392.595	115.8
2396.402	112.8
2400.206	117.8
2404.007	105.8
2407.804	112.8
2411.597	110.8
2415.388	112.8
2419.174	111.8
2422.958	102.8
2426.738	109.8
2430.515	106.8
2434.289	108.8
2438.059	104.8
2441.825	96.8
2445.589	96.8
2449.349	95.8
2453.106	106.8
2456.859	99.8
2460.61	92.8
2464.356	95.8
2468.1	97.8
2471.84	87.8
2475.577	79.8
2479.311	83.8
2483.041	88.8
2486.768	80.8
2490.492	92.8
2494.213	80.8
2497.93	85.8
2501.644	82.8
2505.355	78.8
2509.062	82.8
2512.766	81.8
2516.467	83.8
2520.165	80.8
2523.859	81.8
2527.551	76.8
2531.239	71.8
2534.923	61.8
2538.605	68.8
2542.283	60.8
2545.958	71.8
2549.63	69.8
2553.299	71.8
2556.964	58.8
2560.626	68.8
2564.285	64.8
2567.941	59.8
2571.594	66.8
2575.243	59.8
2578.89	59.8
2582.533	54.8
2586.173	59.8
2589.809	60.8
2593.443	64.8
2597.073	57.8
2600.701	65.8
2604.325	49.8
2607.946	44.8
2611.564	50.8
2615.178	51.8
2618.79	57.8
2622.398	57.8
2626.004	53.8
2629.606	48.8
2633.205	55.8
2636.801	48.8
2640.394	60.8
2643.983	47.8
2647.57	50.8
2651.153	37.8
2654.734	44.8
2658.311	39.8
2661.885	53.8
2665.456	47.8
2669.025	51.8
2672.589	39.8
2676.151	44.8
2679.71	33.8
2683.266	41.8
2686.819	48.8
2690.368	44.8
2693.915	41.8
2697.458	35.8
2700.999	43.8
2704.536	42.8
2708.071	36.8
2711.602	34.8
2715.13	27.8
2718.656	34.8
2722.178	33.8
2725.697	34.8
2729.214	33.8
2732.727	34.8
2736.237	31.8
2739.744	21.8
2743.249	30.8
2746.75	20.8
2750.248	22.8
2753.743	25.8
2757.236	20.8
2760.725	23.8
2764.211	17.8
2767.695	21.8
2771.175	22.8
2774.652	19.8
2778.127	20.8
2781.598	20.8
2785.067	20.8
2788.532	17.8
2791.995	24.8
2795.455	20.8
2798.911	24.8
2802.365	20.8
2805.816	19.8
2809.264	19.8
2812.709	19.8
2816.151	21.8
2819.59	30.8
2823.026	27.8
2826.46	31.8
2829.89	28.8
2833.318	21.8
2836.742	24.8
2840.164	23.8
2843.583	25.8
2846.999	32.8
2850.412	29.8
2853.822	34.8
2857.229	36.8
2860.634	24.8
2864.035	32.8
2867.434	35.8
2870.83	46.8
2874.223	35.8
2877.613	49.8
2881	45.8
2884.385	56.8
2887.766	58.8
2891.145	54.8
2894.521	53.8
2897.894	51.8
2901.264	56.8
2904.631	43.8
2907.996	55.8
2911.358	60.8
2914.717	58.8
2918.073	58.8
2921.426	56.8
2924.777	64.8
2928.124	68.8
2931.469	71.8
2934.811	77.8
2938.15	81.8
2941.487	90.8
2944.821	80.8
2948.152	78.8
2951.48	71.8
2954.805	67.8
2958.128	65.8
2961.447	60.8
2964.765	55.8
2968.079	51.8
2971.39	57.8
2974.699	55.8
2978.005	63.8
2981.308	53.8
2984.609	48.8
2987.907	56.8
2991.202	59.8
2994.494	49.8
2997.784	42.8
3001.07	48.8
3004.355	52.8
3007.636	52.8
3010.915	47.8
3014.191	40.8
3017.464	45.8
3020.734	49.8
3024.002	48.8
3027.267	54.8
3030.53	54.8
3033.789	46.8
3037.046	48.8
3040.301	55.8
3043.552	56.8
3046.801	56.8
3050.048	51.8
3053.291	52.8
3056.532	61.8
3059.771	64.8
3063.006	68.8
3066.239	74.8
3069.469	69.8
3072.697	77.8
3075.922	81.8
3079.144	72.8
3082.364	76.8
3085.581	82.8
3088.795	91.8
3092.007	88.8
3095.216	92.8
3098.423	91.8
3101.627	82.8
3104.828	94.8
3108.026	96.8
3111.222	96.8
3114.416	104.8
3117.607	101.8
3120.795	104.8
3123.98	106.8
3127.163	120.8
3130.344	113.8
3133.521	118.8
3136.696	122.8
3139.869	124.8
3143.039	125.8
3146.206	130.8
3149.371	125.8
3152.533	132.8
3155.693	128.8
3158.85	134.8
3162.005	133.8
3165.157	131.8
3168.306	138.8
3171.453	134.8
3174.597	133.8
3177.739	140.8
3180.878	140.8
3184.014	135.8
3187.149	132.8
3190.28	128.8
3193.409	140.8
3196.536	132.8
3199.659	137.8
3202.781	139.8
3205.9	141.8
3209.016	126.8
3212.13	142.8
3215.241	135.8
3218.35	130.8
3221.456	135.8
3224.56	126.8
3227.661	124.8
3230.76	122.8
3233.856	127.8
3236.95	107.8
3240.041	121.8
3243.13	112.8
3246.216	111.8
3249.3	100.8
3252.382	108.8
3255.46	111.8
3258.537	103.8
3261.611	104.8
3264.682	103.8
3267.751	102.8
3270.818	96.8
3273.882	100.8
3276.943	91.8
3280.002	99.8
3283.059	98.8
3286.113	94.8
3289.165	91.8
3292.214	90.8
3295.261	88.8
3298.306	93.8
3301.348	90.8
3304.387	98.8
3307.425	93.8
3310.459	84.8
3313.492	87.8
3316.521	81.8
3319.549	91.8
3322.574	84.8
3325.597	81.8
3328.617	83.8
3331.635	93.8
3334.65	86.8
3337.663	79.8
3340.674	79.8
3343.682	85.8
3346.688	75.8
3349.691	79.8
3352.692	84.8
3355.691	94.8
3358.687	87.8
3361.681	82.8
3364.673	81.8
3367.662	81.8
3370.649	77.8
3373.633	73.8
3376.615	72.8
3379.595	74.8
3382.572	71.8
3385.547	67.8
3388.52	72.8
3391.49	60.8
3394.458	60.8
3397.424	61.8
3400.387	58.8
3403.348	54.8
3406.307	50.8
3409.263	60.8
3412.217	62.8
3415.168	56.8
3418.118	51.8
3421.065	54.8
3424.009	54.8
3426.951	48.8
3429.891	50.8
3432.829	46.8
3435.764	52.8
3438.697	49.8
3441.628	35.8
3444.557	34.8
3447.483	38.8
3450.407	26.8
3453.328	33.8
3456.247	33.8
3459.164	26.8
3462.079	23.8
3464.991	23.8
3467.902	23.8
3470.809	16.8
3473.715	9.8
3476.618	11.8
3479.519	1.8
3482.418	7.8
3485.315	4.8
3488.209	0.8
3491.101	1.8
3493.99	6.8
3496.878	3.8
3499.763	-5.2
3502.646	-0.2
3505.527	0.8
3508.405	-3.2
3511.281	-2.2
3514.155	-7.2
3517.027	-13.2
3519.897	-9.2
3522.764	-18.2
3525.629	-16.2
3528.492	-20.2
3531.352	-18.2
3534.211	-19.2
3537.067	-22.2
3539.921	-16.2
3542.773	-21.2
3545.622	-22.2
3548.469	-28.2
3551.315	-25.2
3554.157	-31.2
3556.998	-27.2
3559.837	-27.2
3562.673	-29.2
3565.507	-30.2
3568.339	-29.2
3571.169	-34.2
3573.996	-29.2
3576.822	-35.2
3579.645	-37.2
3582.466	-31.2
3585.285	-34.2
3588.101	-38.2
3590.916	-33.2
3593.728	-39.2
3596.538	-38.2
3599.346	-39.2
3602.152	-43.2
3604.956	-39.2
3607.757	-36.2
3610.556	-33.2
3613.354	-45.2
3616.149	-41.2
3618.942	-39.2
3621.732	-42.2
3624.521	-39.2
3627.307	-43.2
3630.092	-44.2
3632.874	-48.2
3635.654	-42.2
3638.432	-47.2
3641.208	-44.2
3643.982	-38.2
3646.753	-43.2
3649.523	-42.2
3652.29	-45.2
3655.055	-44.2
3657.818	-46.2
3660.579	-55.2
3663.338	-42.2
3666.095	-47.2
3668.849	-49.2
3671.602	-47.2
3674.352	-43.2
3677.101	-47.2
3679.847	-50.2
3682.591	-52.2
3685.333	-45.2
3688.073	-53.2
3690.811	-54.2
3693.547	-47.2
3696.281	-46.2
3699.013	-50.2
3701.742	-52.2
3704.47	-49.2
3707.195	-51.2
3709.919	-53.2
3712.64	-52.2
3715.359	-53.2
3718.076	-60.2
3720.792	-53.2
3723.505	-54.2
3726.216	-52.2
3728.925	-56.2
3731.632	-49.2
3734.336	-58.2
3737.039	-50.2
3739.74	-56.2
3742.439	-63.2
3745.136	-58.2
3747.83	-54.2
3750.523	-53.2
3753.213	-69.2
3755.902	-55.2
3758.589	-59.2
3761.273	-54.2
3763.956	-57.2
3766.636	-52.2
3769.315	-48.2
3771.991	-54.2
3774.665	-57.2
3777.338	-57.2
3780.008	-59.2
3782.677	-62.2
3785.343	-55.2
3788.007	-60.2
3790.67	-61.2
3793.33	-53.2
3795.989	-55.2
3798.645	-61.2
3801.299	-52.2
3803.952	-55.2
3806.602	-59.2
3809.251	-60.2
3811.897	-57.2
3814.542	-59.2
3817.184	-64.2
3819.825	-54.2
3822.463	-58.2
3825.1	-53.2
3827.735	-63.2
3830.367	-60.2
3832.998	-61.2
3835.627	-59.2
3838.253	-52.2
3840.878	-52.2
3843.501	-48.2
3846.122	-60.2
3848.741	-62.2
3851.358	-59.2
3853.973	-56.2
3856.586	-60.2
3859.197	-57.2
3861.806	-53.2
3864.414	-61.2
3867.019	-51.2
3869.622	-51.2
3872.224	-46.2
3874.823	-44.2
3877.421	-41.2
3880.016	-30.2
3882.61	-13.2
3885.202	-10.2
3887.792	-16.2
3890.38	-35.2
3892.966	-48.2
3895.55	-51.2
3898.132	-52.2
3900.713	-60.2
3903.291	-62.2
3905.868	-54.2
3908.442	-58.2
3911.015	-52.2
3913.586	-59.2
3916.155	-59.2
3918.722	-58.2
3921.287	-62.2
3923.85	-51.2
3926.411	-60.2
3928.971	-62.2
3931.528	-61.2
3934.084	-58.2
3936.638	-53.2
3939.19	-61.2
3941.74	-58.2
3944.288	-60.2
3946.834	-57.2
3949.378	-56.2
3951.921	-62.2
3954.462	-64.2
3957	-49.2
3959.537	-48.2
3962.072	-52.2
3964.606	-49.2
3967.137	-56.2
3969.667	-58.2
3972.194	-55.2
3974.72	-50.2
3977.244	-54.2
3979.766	-57.2
3982.286	-54.2
3984.805	-62.2
3987.321	-53.2
3989.836	-50.2
3992.349	-54.2
3994.86	-60.2
3997.369	-63.2
3999.877	-59.2
4002.382	-59.2
4004.886	-57.2
4007.388	-57.2
4009.888	-56.2
4012.386	-57.2
4014.883	-60.2
4017.377	-56.2
4019.87	-57.2
4022.361	-59.2
4024.85	-55.2
4027.338	-58.2
4029.823	-56.2
4032.307	-59.2
4034.789	-54.2
4037.269	-58.2
4039.747	-58.2
4042.224	-62.2
4044.699	-60.2
4047.172	-64.2
4049.643	-59.2
4052.112	-57.2
4054.58	-61.2
4057.046	-52.2
4059.51	-56.2
4061.972	-63.2
4064.432	-59.2
4066.891	-55.2
4069.348	-55.2
4071.803	-50.2
4074.256	-55.2
4076.708	-54.2
4079.158	-55.2
4081.606	-60.2
4084.052	-52.2
4086.497	-53.2
4088.939	-53.2
4091.38	-59.2
4093.819	-55.2
4096.257	-59.2
4098.693	-61.2
4101.127	-56.2
4103.559	-61.2
4105.989	9.8
4108.418	6.8
4110.845	2.8
4113.27	6.8
4115.694	2.8
4118.115	2.8
4120.535	-54.2
4122.954	-53.2
4125.37	-55.2
4127.785	-52.2
4130.198	-55.2
4132.609	-62.2
4135.019	-58.2
4137.427	-59.2
4139.833	-58.2
4142.237	-59.2
