Data from 2018-3-7_conc=0_n=2_RamanShift_03.txt Node
Date: Wed Mar 07 10:08:53 IST 2018
User: aro
Spectrometer: QEPB0276
Trigger mode: 0
Integration Time (sec): 3.000000E1
Scans to average: 1
Electric dark correction enabled: true
Nonlinearity correction enabled: false
Boxcar width: 0
XAxis mode: Raman Shifts
Number of Pixels in Spectrum: 1044
>>>>>Begin Spectral Data<<<<<
160.701	8.9
166.742	18.9
172.777	62.9
178.805	190.9
184.826	505.9
190.841	1087.9
196.849	1783.9
202.85	2383.9
208.845	2608.9
214.833	2616.9
220.815	2590.9
226.789	2606.9
232.758	2596.9
238.719	2639.9
244.674	2610.9
250.623	2591.9
256.565	2580.9
262.5	2569.9
268.429	2549.9
274.351	2532.9
280.267	2516.9
286.176	2517.9
292.079	2548.9
297.975	2541.9
303.865	2537.9
309.748	2544.9
315.625	2510.9
321.495	2508.9
327.359	2549.9
333.217	2534.9
339.068	2537.9
344.912	2572.9
350.751	2577.9
356.583	2566.9
362.408	2586.9
368.227	2579.9
374.04	2596.9
379.847	2623.9
385.647	2620.9
391.44	2644.9
397.228	2638.9
403.009	2693.9
408.784	2679.9
414.553	2723.9
420.315	2712.9
426.071	2726.9
431.821	2727.9
437.565	2746.9
443.302	2742.9
449.033	2719.9
454.758	2702.9
460.477	2692.9
466.189	2665.9
471.896	2613.9
477.596	2585.9
483.29	2584.9
488.978	2571.9
494.66	2565.9
500.335	2541.9
506.005	2428.9
511.668	2333.9
517.325	2237.9
522.977	2141.9
528.622	2070.9
534.261	2053.9
539.894	1989.9
545.521	1988.9
551.141	1956.9
556.756	1928.9
562.365	1923.9
567.968	1884.9
573.565	1902.9
579.155	1874.9
584.74	1892.9
590.319	1870.9
595.892	1862.9
601.459	1864.9
607.02	1848.9
612.575	1829.9
618.124	1835.9
623.667	1779.9
629.204	1769.9
634.735	1759.9
640.261	1741.9
645.781	1736.9
651.294	1739.9
656.802	1727.9
662.304	1719.9
667.8	1714.9
673.29	1711.9
678.775	1704.9
684.254	1697.9
689.726	1657.9
695.193	1673.9
700.655	1661.9
706.11	1671.9
711.56	1641.9
717.004	1636.9
722.442	1629.9
727.874	1620.9
733.301	1627.9
738.722	1597.9
744.137	1612.9
749.547	1597.9
754.951	1608.9
760.349	1609.9
765.741	1596.9
771.128	1619.9
776.509	1629.9
781.885	1663.9
787.254	1659.9
792.618	1675.9
797.977	1660.9
803.33	1655.9
808.677	1638.9
814.019	1620.9
819.355	1620.9
824.686	1623.9
830.011	1613.9
835.33	1603.9
840.644	1583.9
845.952	1582.9
851.255	1601.9
856.552	1593.9
861.844	1605.9
867.13	1605.9
872.41	1678.9
877.686	1792.9
882.955	1909.9
888.219	1893.9
893.478	1772.9
898.731	1599.9
903.979	1511.9
909.221	1461.9
914.458	1434.9
919.69	1427.9
924.916	1416.9
930.136	1414.9
935.351	1414.9
940.561	1432.9
945.766	1424.9
950.965	1396.9
956.158	1410.9
961.347	1386.9
966.529	1365.9
971.707	1358.9
976.879	1339.9
982.046	1302.9
987.208	1313.9
992.364	1321.9
997.515	1309.9
1002.66	1339.9
1007.801	1347.9
1012.936	1358.9
1018.066	1381.9
1023.19	1379.9
1028.309	1392.9
1033.423	1380.9
1038.532	1409.9
1043.636	1427.9
1048.734	1474.9
1053.827	1468.9
1058.915	1432.9
1063.998	1379.9
1069.075	1356.9
1074.147	1367.9
1079.214	1384.9
1084.276	1412.9
1089.333	1435.9
1094.385	1444.9
1099.431	1421.9
1104.472	1383.9
1109.509	1332.9
1114.54	1293.9
1119.565	1288.9
1124.586	1258.9
1129.602	1238.9
1134.613	1227.9
1139.618	1214.9
1144.619	1221.9
1149.614	1206.9
1154.604	1210.9
1159.589	1213.9
1164.57	1222.9
1169.545	1206.9
1174.515	1213.9
1179.48	1199.9
1184.44	1188.9
1189.395	1190.9
1194.345	1171.9
1199.29	1167.9
1204.23	1180.9
1209.165	1157.9
1214.095	1167.9
1219.021	1177.9
1223.941	1198.9
1228.856	1191.9
1233.766	1195.9
1238.672	1198.9
1243.572	1200.9
1248.467	1171.9
1253.358	1182.9
1258.244	1157.9
1263.124	1127.9
1268	1122.9
1272.871	1127.9
1277.737	1138.9
1282.599	1152.9
1287.455	1129.9
1292.306	1121.9
1297.153	1117.9
1301.995	1117.9
1306.832	1108.9
1311.664	1130.9
1316.491	1108.9
1321.314	1114.9
1326.132	1106.9
1330.945	1065.9
1335.753	1050.9
1340.556	1040.9
1345.354	1017.9
1350.148	997.9
1354.937	971.9
1359.722	943.9
1364.501	922.9
1369.276	911.9
1374.046	912.9
1378.811	876.9
1383.572	887.9
1388.327	892.9
1393.079	893.9
1397.825	903.9
1402.567	928.9
1407.304	920.9
1412.036	927.9
1416.764	943.9
1421.487	944.9
1426.205	956.9
1430.919	956.9
1435.628	978.9
1440.333	990.9
1445.032	1000.9
1449.727	1050.9
1454.418	1086.9
1459.104	1116.9
1463.785	1102.9
1468.462	1030.9
1473.134	971.9
1477.802	900.9
1482.465	873.9
1487.123	852.9
1491.777	829.9
1496.426	818.9
1501.071	777.9
1505.711	745.9
1510.347	739.9
1514.978	734.9
1519.604	727.9
1524.226	714.9
1528.844	718.9
1533.457	717.9
1538.065	714.9
1542.669	708.9
1547.269	725.9
1551.864	728.9
1556.454	754.9
1561.041	760.9
1565.622	761.9
1570.199	761.9
1574.772	766.9
1579.34	785.9
1583.904	785.9
1588.464	793.9
1593.019	785.9
1597.569	808.9
1602.115	787.9
1606.657	790.9
1611.195	779.9
1615.728	784.9
1620.256	776.9
1624.78	771.9
1629.3	784.9
1633.816	765.9
1638.327	772.9
1642.834	753.9
1647.336	750.9
1651.834	768.9
1656.328	769.9
1660.817	761.9
1665.302	740.9
1669.783	714.9
1674.259	704.9
1678.732	684.9
1683.199	658.9
1687.663	629.9
1692.122	592.9
1696.577	564.9
1701.028	538.9
1705.474	493.9
1709.917	489.9
1714.355	477.9
1718.788	477.9
1723.218	483.9
1727.643	498.9
1732.064	499.9
1736.481	507.9
1740.893	477.9
1745.301	475.9
1749.705	468.9
1754.105	452.9
1758.501	447.9
1762.893	430.9
1767.28	422.9
1771.663	415.9
1776.042	412.9
1780.417	397.9
1784.787	400.9
1789.154	376.9
1793.516	356.9
1797.874	357.9
1802.228	352.9
1806.578	348.9
1810.924	345.9
1815.266	360.9
1819.603	355.9
1823.937	365.9
1828.266	369.9
1832.591	371.9
1836.913	375.9
1841.23	370.9
1845.543	379.9
1849.852	378.9
1854.156	377.9
1858.457	386.9
1862.754	381.9
1867.047	372.9
1871.335	368.9
1875.62	376.9
1879.9	363.9
1884.177	352.9
1888.449	343.9
1892.718	350.9
1896.982	336.9
1901.243	324.9
1905.499	308.9
1909.752	313.9
1914	302.9
1918.245	285.9
1922.485	283.9
1926.722	279.9
1930.954	271.9
1935.183	274.9
1939.408	264.9
1943.628	262.9
1947.845	266.9
1952.058	261.9
1956.267	258.9
1960.472	258.9
1964.673	257.9
1968.87	258.9
1973.063	267.9
1977.252	266.9
1981.438	270.9
1985.619	270.9
1989.797	276.9
1993.971	277.9
1998.14	275.9
2002.306	283.9
2006.469	289.9
2010.627	272.9
2014.781	276.9
2018.932	281.9
2023.078	292.9
2027.221	277.9
2031.36	272.9
2035.495	266.9
2039.627	257.9
2043.754	260.9
2047.878	260.9
2051.998	255.9
2056.114	251.9
2060.226	246.9
2064.334	242.9
2068.439	232.9
2072.54	235.9
2076.637	234.9
2080.73	235.9
2084.82	226.9
2088.906	220.9
2092.988	227.9
2097.066	215.9
2101.14	215.9
2105.211	211.9
2109.278	212.9
2113.342	205.9
2117.401	208.9
2121.457	208.9
2125.509	210.9
2129.558	206.9
2133.602	198.9
2137.643	205.9
2141.681	210.9
2145.714	222.9
2149.744	214.9
2153.77	219.9
2157.793	216.9
2161.812	218.9
2165.827	219.9
2169.838	218.9
2173.846	218.9
2177.851	213.9
2181.851	217.9
2185.848	207.9
2189.841	206.9
2193.831	206.9
2197.817	208.9
2201.799	207.9
2205.778	211.9
2209.753	213.9
2213.725	203.9
2217.693	200.9
2221.657	210.9
2225.618	200.9
2229.575	196.9
2233.529	207.9
2237.479	203.9
2241.425	192.9
2245.368	198.9
2249.307	191.9
2253.243	200.9
2257.175	203.9
2261.104	182.9
2265.029	186.9
2268.95	181.9
2272.868	174.9
2276.783	177.9
2280.694	174.9
2284.601	176.9
2288.505	173.9
2292.405	180.9
2296.302	179.9
2300.195	167.9
2304.085	169.9
2307.971	169.9
2311.854	168.9
2315.734	168.9
2319.609	170.9
2323.482	172.9
2327.351	169.9
2331.216	180.9
2335.078	195.9
2338.937	189.9
2342.792	178.9
2346.643	166.9
2350.492	161.9
2354.336	166.9
2358.178	162.9
2362.015	170.9
2365.85	173.9
2369.681	184.9
2373.508	185.9
2377.333	181.9
2381.153	173.9
2384.971	171.9
2388.785	169.9
2392.595	173.9
2396.402	172.9
2400.206	176.9
2404.007	175.9
2407.804	178.9
2411.597	165.9
2415.388	171.9
2419.174	176.9
2422.958	166.9
2426.738	172.9
2430.515	165.9
2434.289	167.9
2438.059	159.9
2441.825	156.9
2445.589	163.9
2449.349	154.9
2453.106	159.9
2456.859	150.9
2460.61	155.9
2464.356	150.9
2468.1	148.9
2471.84	152.9
2475.577	140.9
2479.311	146.9
2483.041	138.9
2486.768	140.9
2490.492	132.9
2494.213	136.9
2497.93	131.9
2501.644	130.9
2505.355	133.9
2509.062	132.9
2512.766	131.9
2516.467	132.9
2520.165	128.9
2523.859	120.9
2527.551	115.9
2531.239	111.9
2534.923	119.9
2538.605	117.9
2542.283	106.9
2545.958	113.9
2549.63	116.9
2553.299	99.9
2556.964	94.9
2560.626	106.9
2564.285	96.9
2567.941	99.9
2571.594	100.9
2575.243	95.9
2578.89	87.9
2582.533	90.9
2586.173	92.9
2589.809	94.9
2593.443	95.9
2597.073	92.9
2600.701	95.9
2604.325	84.9
2607.946	80.9
2611.564	85.9
2615.178	90.9
2618.79	93.9
2622.398	88.9
2626.004	92.9
2629.606	83.9
2633.205	84.9
2636.801	80.9
2640.394	89.9
2643.983	85.9
2647.57	89.9
2651.153	78.9
2654.734	78.9
2658.311	83.9
2661.885	80.9
2665.456	88.9
2669.025	82.9
2672.589	73.9
2676.151	76.9
2679.71	71.9
2683.266	71.9
2686.819	87.9
2690.368	81.9
2693.915	77.9
2697.458	67.9
2700.999	75.9
2704.536	80.9
2708.071	69.9
2711.602	77.9
2715.13	72.9
2718.656	68.9
2722.178	64.9
2725.697	64.9
2729.214	65.9
2732.727	69.9
2736.237	67.9
2739.744	65.9
2743.249	53.9
2746.75	46.9
2750.248	47.9
2753.743	47.9
2757.236	49.9
2760.725	46.9
2764.211	42.9
2767.695	39.9
2771.175	38.9
2774.652	42.9
2778.127	37.9
2781.598	37.9
2785.067	41.9
2788.532	46.9
2791.995	45.9
2795.455	39.9
2798.911	43.9
2802.365	48.9
2805.816	46.9
2809.264	45.9
2812.709	47.9
2816.151	54.9
2819.59	67.9
2823.026	55.9
2826.46	57.9
2829.89	56.9
2833.318	55.9
2836.742	69.9
2840.164	68.9
2843.583	70.9
2846.999	75.9
2850.412	75.9
2853.822	74.9
2857.229	81.9
2860.634	80.9
2864.035	89.9
2867.434	91.9
2870.83	101.9
2874.223	103.9
2877.613	118.9
2881	134.9
2884.385	141.9
2887.766	158.9
2891.145	158.9
2894.521	161.9
2897.894	152.9
2901.264	153.9
2904.631	148.9
2907.996	149.9
2911.358	156.9
2914.717	151.9
2918.073	148.9
2921.426	149.9
2924.777	160.9
2928.124	175.9
2931.469	202.9
2934.811	224.9
2938.15	234.9
2941.487	237.9
2944.821	222.9
2948.152	210.9
2951.48	184.9
2954.805	172.9
2958.128	167.9
2961.447	148.9
2964.765	144.9
2968.079	142.9
2971.39	132.9
2974.699	137.9
2978.005	144.9
2981.308	138.9
2984.609	136.9
2987.907	126.9
2991.202	121.9
2994.494	115.9
2997.784	99.9
3001.07	107.9
3004.355	96.9
3007.636	100.9
3010.915	90.9
3014.191	87.9
3017.464	85.9
3020.734	93.9
3024.002	90.9
3027.267	93.9
3030.53	99.9
3033.789	97.9
3037.046	85.9
3040.301	95.9
3043.552	93.9
3046.801	103.9
3050.048	102.9
3053.291	106.9
3056.532	103.9
3059.771	105.9
3063.006	110.9
3066.239	115.9
3069.469	129.9
3072.697	122.9
3075.922	132.9
3079.144	125.9
3082.364	136.9
3085.581	133.9
3088.795	146.9
3092.007	142.9
3095.216	150.9
3098.423	146.9
3101.627	144.9
3104.828	157.9
3108.026	154.9
3111.222	154.9
3114.416	161.9
3117.607	161.9
3120.795	165.9
3123.98	169.9
3127.163	178.9
3130.344	175.9
3133.521	178.9
3136.696	185.9
3139.869	193.9
3143.039	186.9
3146.206	200.9
3149.371	186.9
3152.533	207.9
3155.693	204.9
3158.85	200.9
3162.005	198.9
3165.157	205.9
3168.306	196.9
3171.453	208.9
3174.597	201.9
3177.739	199.9
3180.878	211.9
3184.014	207.9
3187.149	198.9
3190.28	200.9
3193.409	204.9
3196.536	210.9
3199.659	211.9
3202.781	209.9
3205.9	207.9
3209.016	211.9
3212.13	206.9
3215.241	197.9
3218.35	198.9
3221.456	199.9
3224.56	197.9
3227.661	183.9
3230.76	188.9
3233.856	181.9
3236.95	170.9
3240.041	163.9
3243.13	165.9
3246.216	157.9
3249.3	158.9
3252.382	161.9
3255.46	154.9
3258.537	156.9
3261.611	139.9
3264.682	144.9
3267.751	151.9
3270.818	138.9
3273.882	146.9
3276.943	157.9
3280.002	144.9
3283.059	141.9
3286.113	140.9
3289.165	140.9
3292.214	140.9
3295.261	142.9
3298.306	139.9
3301.348	136.9
3304.387	136.9
3307.425	136.9
3310.459	132.9
3313.492	135.9
3316.521	134.9
3319.549	138.9
3322.574	135.9
3325.597	128.9
3328.617	127.9
3331.635	134.9
3334.65	134.9
3337.663	126.9
3340.674	138.9
3343.682	134.9
3346.688	129.9
3349.691	132.9
3352.692	128.9
3355.691	139.9
3358.687	135.9
3361.681	127.9
3364.673	129.9
3367.662	126.9
3370.649	120.9
3373.633	121.9
3376.615	112.9
3379.595	111.9
3382.572	110.9
3385.547	111.9
3388.52	105.9
3391.49	104.9
3394.458	100.9
3397.424	110.9
3400.387	103.9
3403.348	95.9
3406.307	88.9
3409.263	94.9
3412.217	91.9
3415.168	89.9
3418.118	91.9
3421.065	88.9
3424.009	84.9
3426.951	86.9
3429.891	80.9
3432.829	72.9
3435.764	73.9
3438.697	76.9
3441.628	63.9
3444.557	62.9
3447.483	52.9
3450.407	56.9
3453.328	57.9
3456.247	52.9
3459.164	44.9
3462.079	39.9
3464.991	43.9
3467.902	37.9
3470.809	32.9
3473.715	25.9
3476.618	26.9
3479.519	23.9
3482.418	27.9
3485.315	19.9
3488.209	15.9
3491.101	10.9
3493.99	17.9
3496.878	6.9
3499.763	2.9
3502.646	7.9
3505.527	11.9
3508.405	5.9
3511.281	0.9
3514.155	-8.1
3517.027	-7.1
3519.897	-4.1
3522.764	-1.1
3525.629	-6.1
3528.492	-11.1
3531.352	-24.1
3534.211	-25.1
3537.067	-20.1
3539.921	-21.1
3542.773	-21.1
3545.622	-25.1
3548.469	-25.1
3551.315	-29.1
3554.157	-32.1
3556.998	-26.1
3559.837	-33.1
3562.673	-33.1
3565.507	-34.1
3568.339	-30.1
3571.169	-43.1
3573.996	-32.1
3576.822	-43.1
3579.645	-40.1
3582.466	-31.1
3585.285	-38.1
3588.101	-38.1
3590.916	-33.1
3593.728	-42.1
3596.538	-47.1
3599.346	-48.1
3602.152	-44.1
3604.956	-39.1
3607.757	-39.1
3610.556	-42.1
3613.354	-54.1
3616.149	-55.1
3618.942	-49.1
3621.732	-45.1
3624.521	-49.1
3627.307	-48.1
3630.092	-50.1
3632.874	-51.1
3635.654	-54.1
3638.432	-51.1
3641.208	-42.1
3643.982	-43.1
3646.753	-54.1
3649.523	-47.1
3652.29	-54.1
3655.055	-54.1
3657.818	-56.1
3660.579	-48.1
3663.338	-53.1
3666.095	-54.1
3668.849	-59.1
3671.602	-57.1
3674.352	-56.1
3677.101	-57.1
3679.847	-56.1
3682.591	-59.1
3685.333	-53.1
3688.073	-60.1
3690.811	-59.1
3693.547	-59.1
3696.281	-53.1
3699.013	-59.1
3701.742	-59.1
3704.47	-54.1
3707.195	-56.1
3709.919	-64.1
3712.64	-57.1
3715.359	-64.1
3718.076	-59.1
3720.792	-62.1
3723.505	-60.1
3726.216	-59.1
3728.925	-71.1
3731.632	-64.1
3734.336	-63.1
3737.039	-61.1
3739.74	-65.1
3742.439	-62.1
3745.136	-64.1
3747.83	-63.1
3750.523	-65.1
3753.213	-71.1
3755.902	-63.1
3758.589	-66.1
3761.273	-61.1
3763.956	-65.1
3766.636	-63.1
3769.315	-63.1
3771.991	-65.1
3774.665	-66.1
3777.338	-60.1
3780.008	-63.1
3782.677	-66.1
3785.343	-62.1
3788.007	-65.1
3790.67	-66.1
3793.33	-68.1
3795.989	-66.1
3798.645	-70.1
3801.299	-64.1
3803.952	-66.1
3806.602	-67.1
3809.251	-64.1
3811.897	-70.1
3814.542	-71.1
3817.184	-68.1
3819.825	-65.1
3822.463	-61.1
3825.1	-60.1
3827.735	-71.1
3830.367	-69.1
3832.998	-71.1
3835.627	-69.1
3838.253	-59.1
3840.878	-61.1
3843.501	-61.1
3846.122	-67.1
3848.741	-65.1
3851.358	-69.1
3853.973	-68.1
3856.586	-67.1
3859.197	-64.1
3861.806	-66.1
3864.414	-66.1
3867.019	-67.1
3869.622	-61.1
3872.224	-58.1
3874.823	-51.1
3877.421	-50.1
3880.016	-39.1
3882.61	-31.1
3885.202	-33.1
3887.792	-31.1
3890.38	-46.1
3892.966	-61.1
3895.55	-61.1
3898.132	-61.1
3900.713	-61.1
3903.291	-72.1
3905.868	-63.1
3908.442	-64.1
3911.015	-67.1
3913.586	-73.1
3916.155	-64.1
3918.722	-66.1
3921.287	-64.1
3923.85	-62.1
3926.411	-74.1
3928.971	-74.1
3931.528	-67.1
3934.084	-64.1
3936.638	-63.1
3939.19	-72.1
3941.74	-65.1
3944.288	-63.1
3946.834	-67.1
3949.378	-70.1
3951.921	-67.1
3954.462	-65.1
3957	-62.1
3959.537	-60.1
3962.072	-68.1
3964.606	-68.1
3967.137	-64.1
3969.667	-63.1
3972.194	-65.1
3974.72	-61.1
3977.244	-61.1
3979.766	-70.1
3982.286	-68.1
3984.805	-71.1
3987.321	-65.1
3989.836	-65.1
3992.349	-66.1
3994.86	-68.1
3997.369	-66.1
3999.877	-71.1
4002.382	-66.1
4004.886	-63.1
4007.388	-64.1
4009.888	-64.1
4012.386	-67.1
4014.883	-67.1
4017.377	-66.1
4019.87	-65.1
4022.361	-66.1
4024.85	-63.1
4027.338	-71.1
4029.823	-64.1
4032.307	-71.1
4034.789	-68.1
4037.269	-68.1
4039.747	-68.1
4042.224	-66.1
4044.699	-68.1
4047.172	-74.1
4049.643	-69.1
4052.112	-65.1
4054.58	-65.1
4057.046	-61.1
4059.51	-70.1
4061.972	-68.1
4064.432	-67.1
4066.891	-64.1
4069.348	-67.1
4071.803	-62.1
4074.256	-62.1
4076.708	-66.1
4079.158	-66.1
4081.606	-67.1
4084.052	-68.1
4086.497	-62.1
4088.939	-64.1
4091.38	-67.1
4093.819	-68.1
4096.257	-69.1
4098.693	-69.1
4101.127	-64.1
4103.559	-75.1
4105.989	3.9
4108.418	2.9
4110.845	2.9
4113.27	6.9
4115.694	4.9
4118.115	5.9
4120.535	-65.1
4122.954	-63.1
4125.37	-67.1
4127.785	-60.1
4130.198	-64.1
4132.609	-68.1
4135.019	-71.1
4137.427	-72.1
4139.833	-67.1
4142.237	-71.1
