Data from 2018-3-7_conc=0_n=3_RamanShift_05.txt Node
Date: Wed Mar 07 10:13:23 IST 2018
User: aro
Spectrometer: QEPB0276
Trigger mode: 0
Integration Time (sec): 3.000000E1
Scans to average: 1
Electric dark correction enabled: true
Nonlinearity correction enabled: false
Boxcar width: 0
XAxis mode: Raman Shifts
Number of Pixels in Spectrum: 1044
>>>>>Begin Spectral Data<<<<<
160.701	7.8
166.742	25.8
172.777	62.8
178.805	179.8
184.826	442.8
190.841	938.8
196.849	1571.8
202.85	2097.8
208.845	2303.8
214.833	2313.8
220.815	2311.8
226.789	2262.8
232.758	2288.8
238.719	2312.8
244.674	2316.8
250.623	2297.8
256.565	2298.8
262.5	2241.8
268.429	2239.8
274.351	2228.8
280.267	2231.8
286.176	2213.8
292.079	2249.8
297.975	2245.8
303.865	2216.8
309.748	2234.8
315.625	2216.8
321.495	2215.8
327.359	2249.8
333.217	2247.8
339.068	2254.8
344.912	2264.8
350.751	2279.8
356.583	2250.8
362.408	2268.8
368.227	2292.8
374.04	2309.8
379.847	2328.8
385.647	2305.8
391.44	2335.8
397.228	2355.8
403.009	2370.8
408.784	2377.8
414.553	2403.8
420.315	2395.8
426.071	2421.8
431.821	2407.8
437.565	2418.8
443.302	2425.8
449.033	2407.8
454.758	2409.8
460.477	2377.8
466.189	2345.8
471.896	2306.8
477.596	2301.8
483.29	2277.8
488.978	2267.8
494.66	2281.8
500.335	2225.8
506.005	2147.8
511.668	2029.8
517.325	1954.8
522.977	1880.8
528.622	1830.8
534.261	1788.8
539.894	1731.8
545.521	1714.8
551.141	1681.8
556.756	1676.8
562.365	1682.8
567.968	1664.8
573.565	1647.8
579.155	1618.8
584.74	1620.8
590.319	1598.8
595.892	1610.8
601.459	1603.8
607.02	1618.8
612.575	1596.8
618.124	1584.8
623.667	1554.8
629.204	1543.8
634.735	1539.8
640.261	1493.8
645.781	1498.8
651.294	1482.8
656.802	1477.8
662.304	1498.8
667.8	1464.8
673.29	1473.8
678.775	1457.8
684.254	1455.8
689.726	1459.8
695.193	1460.8
700.655	1453.8
706.11	1425.8
711.56	1415.8
717.004	1422.8
722.442	1396.8
727.874	1380.8
733.301	1407.8
738.722	1370.8
744.137	1391.8
749.547	1378.8
754.951	1377.8
760.349	1379.8
765.741	1393.8
771.128	1396.8
776.509	1422.8
781.885	1430.8
787.254	1452.8
792.618	1454.8
797.977	1444.8
803.33	1428.8
808.677	1420.8
814.019	1432.8
819.355	1403.8
824.686	1380.8
830.011	1390.8
835.33	1350.8
840.644	1383.8
845.952	1361.8
851.255	1363.8
856.552	1372.8
861.844	1366.8
867.13	1360.8
872.41	1419.8
877.686	1511.8
882.955	1556.8
888.219	1578.8
893.478	1491.8
898.731	1347.8
903.979	1287.8
909.221	1250.8
914.458	1229.8
919.69	1213.8
924.916	1203.8
930.136	1226.8
935.351	1218.8
940.561	1220.8
945.766	1203.8
950.965	1200.8
956.158	1208.8
961.347	1177.8
966.529	1178.8
971.707	1159.8
976.879	1133.8
982.046	1134.8
987.208	1130.8
992.364	1120.8
997.515	1131.8
1002.66	1125.8
1007.801	1158.8
1012.936	1156.8
1018.066	1183.8
1023.19	1185.8
1028.309	1181.8
1033.423	1199.8
1038.532	1206.8
1043.636	1222.8
1048.734	1223.8
1053.827	1230.8
1058.915	1204.8
1063.998	1160.8
1069.075	1160.8
1074.147	1140.8
1079.214	1163.8
1084.276	1193.8
1089.333	1208.8
1094.385	1228.8
1099.431	1202.8
1104.472	1160.8
1109.509	1141.8
1114.54	1104.8
1119.565	1092.8
1124.586	1071.8
1129.602	1058.8
1134.613	1048.8
1139.618	1031.8
1144.619	1023.8
1149.614	1028.8
1154.604	1037.8
1159.589	1033.8
1164.57	1045.8
1169.545	1026.8
1174.515	1034.8
1179.48	1022.8
1184.44	1029.8
1189.395	1017.8
1194.345	1003.8
1199.29	995.8
1204.23	998.8
1209.165	995.8
1214.095	1002.8
1219.021	1012.8
1223.941	1027.8
1228.856	1008.8
1233.766	1019.8
1238.672	1026.8
1243.572	1017.8
1248.467	1019.8
1253.358	1006.8
1258.244	992.8
1263.124	981.8
1268	960.8
1272.871	962.8
1277.737	959.8
1282.599	955.8
1287.455	962.8
1292.306	945.8
1297.153	956.8
1301.995	956.8
1306.832	957.8
1311.664	962.8
1316.491	953.8
1321.314	950.8
1326.132	948.8
1330.945	918.8
1335.753	916.8
1340.556	887.8
1345.354	864.8
1350.148	848.8
1354.937	832.8
1359.722	807.8
1364.501	786.8
1369.276	772.8
1374.046	769.8
1378.811	746.8
1383.572	763.8
1388.327	759.8
1393.079	760.8
1397.825	787.8
1402.567	792.8
1407.304	798.8
1412.036	790.8
1416.764	792.8
1421.487	803.8
1426.205	794.8
1430.919	802.8
1435.628	812.8
1440.333	834.8
1445.032	846.8
1449.727	870.8
1454.418	904.8
1459.104	920.8
1463.785	904.8
1468.462	857.8
1473.134	798.8
1477.802	758.8
1482.465	732.8
1487.123	718.8
1491.777	706.8
1496.426	696.8
1501.071	666.8
1505.711	652.8
1510.347	633.8
1514.978	641.8
1519.604	622.8
1524.226	628.8
1528.844	630.8
1533.457	632.8
1538.065	616.8
1542.669	614.8
1547.269	617.8
1551.864	625.8
1556.454	633.8
1561.041	658.8
1565.622	659.8
1570.199	648.8
1574.772	661.8
1579.34	667.8
1583.904	659.8
1588.464	682.8
1593.019	685.8
1597.569	689.8
1602.115	683.8
1606.657	674.8
1611.195	669.8
1615.728	668.8
1620.256	664.8
1624.78	661.8
1629.3	662.8
1633.816	671.8
1638.327	667.8
1642.834	662.8
1647.336	647.8
1651.834	661.8
1656.328	653.8
1660.817	661.8
1665.302	640.8
1669.783	624.8
1674.259	607.8
1678.732	588.8
1683.199	578.8
1687.663	553.8
1692.122	505.8
1696.577	499.8
1701.028	466.8
1705.474	446.8
1709.917	425.8
1714.355	424.8
1718.788	427.8
1723.218	437.8
1727.643	433.8
1732.064	427.8
1736.481	429.8
1740.893	406.8
1745.301	416.8
1749.705	401.8
1754.105	405.8
1758.501	379.8
1762.893	382.8
1767.28	352.8
1771.663	361.8
1776.042	362.8
1780.417	352.8
1784.787	350.8
1789.154	326.8
1793.516	316.8
1797.874	313.8
1802.228	314.8
1806.578	311.8
1810.924	300.8
1815.266	307.8
1819.603	312.8
1823.937	326.8
1828.266	319.8
1832.591	324.8
1836.913	329.8
1841.23	329.8
1845.543	318.8
1849.852	332.8
1854.156	339.8
1858.457	324.8
1862.754	333.8
1867.047	327.8
1871.335	318.8
1875.62	315.8
1879.9	327.8
1884.177	305.8
1888.449	305.8
1892.718	312.8
1896.982	289.8
1901.243	284.8
1905.499	271.8
1909.752	273.8
1914	263.8
1918.245	263.8
1922.485	253.8
1926.722	252.8
1930.954	237.8
1935.183	248.8
1939.408	254.8
1943.628	236.8
1947.845	242.8
1952.058	236.8
1956.267	230.8
1960.472	234.8
1964.673	227.8
1968.87	228.8
1973.063	236.8
1977.252	234.8
1981.438	238.8
1985.619	232.8
1989.797	234.8
1993.971	248.8
1998.14	247.8
2002.306	243.8
2006.469	255.8
2010.627	246.8
2014.781	249.8
2018.932	241.8
2023.078	247.8
2027.221	244.8
2031.36	243.8
2035.495	244.8
2039.627	217.8
2043.754	223.8
2047.878	221.8
2051.998	221.8
2056.114	222.8
2060.226	211.8
2064.334	214.8
2068.439	203.8
2072.54	206.8
2076.637	205.8
2080.73	203.8
2084.82	205.8
2088.906	198.8
2092.988	192.8
2097.066	203.8
2101.14	195.8
2105.211	196.8
2109.278	186.8
2113.342	176.8
2117.401	184.8
2121.457	179.8
2125.509	190.8
2129.558	182.8
2133.602	180.8
2137.643	182.8
2141.681	178.8
2145.714	184.8
2149.744	197.8
2153.77	192.8
2157.793	197.8
2161.812	195.8
2165.827	195.8
2169.838	170.8
2173.846	180.8
2177.851	181.8
2181.851	181.8
2185.848	185.8
2189.841	178.8
2193.831	173.8
2197.817	170.8
2201.799	176.8
2205.778	168.8
2209.753	173.8
2213.725	179.8
2217.693	182.8
2221.657	175.8
2225.618	166.8
2229.575	175.8
2233.529	167.8
2237.479	178.8
2241.425	162.8
2245.368	169.8
2249.307	166.8
2253.243	161.8
2257.175	154.8
2261.104	151.8
2265.029	158.8
2268.95	162.8
2272.868	159.8
2276.783	151.8
2280.694	152.8
2284.601	143.8
2288.505	152.8
2292.405	150.8
2296.302	149.8
2300.195	150.8
2304.085	145.8
2307.971	138.8
2311.854	133.8
2315.734	132.8
2319.609	142.8
2323.482	146.8
2327.351	140.8
2331.216	159.8
2335.078	169.8
2338.937	162.8
2342.792	143.8
2346.643	141.8
2350.492	144.8
2354.336	146.8
2358.178	131.8
2362.015	142.8
2365.85	138.8
2369.681	138.8
2373.508	145.8
2377.333	144.8
2381.153	144.8
2384.971	140.8
2388.785	136.8
2392.595	146.8
2396.402	144.8
2400.206	144.8
2404.007	138.8
2407.804	141.8
2411.597	140.8
2415.388	135.8
2419.174	141.8
2422.958	135.8
2426.738	140.8
2430.515	134.8
2434.289	135.8
2438.059	129.8
2441.825	130.8
2445.589	127.8
2449.349	125.8
2453.106	120.8
2456.859	121.8
2460.61	124.8
2464.356	121.8
2468.1	118.8
2471.84	118.8
2475.577	108.8
2479.311	111.8
2483.041	105.8
2486.768	108.8
2490.492	119.8
2494.213	106.8
2497.93	107.8
2501.644	115.8
2505.355	99.8
2509.062	95.8
2512.766	101.8
2516.467	103.8
2520.165	103.8
2523.859	101.8
2527.551	93.8
2531.239	88.8
2534.923	88.8
2538.605	93.8
2542.283	84.8
2545.958	91.8
2549.63	85.8
2553.299	89.8
2556.964	75.8
2560.626	77.8
2564.285	75.8
2567.941	82.8
2571.594	79.8
2575.243	78.8
2578.89	75.8
2582.533	72.8
2586.173	67.8
2589.809	75.8
2593.443	75.8
2597.073	66.8
2600.701	73.8
2604.325	68.8
2607.946	60.8
2611.564	70.8
2615.178	67.8
2618.79	65.8
2622.398	69.8
2626.004	76.8
2629.606	70.8
2633.205	66.8
2636.801	66.8
2640.394	66.8
2643.983	63.8
2647.57	61.8
2651.153	59.8
2654.734	61.8
2658.311	62.8
2661.885	67.8
2665.456	65.8
2669.025	58.8
2672.589	57.8
2676.151	59.8
2679.71	56.8
2683.266	60.8
2686.819	62.8
2690.368	53.8
2693.915	55.8
2697.458	48.8
2700.999	59.8
2704.536	61.8
2708.071	55.8
2711.602	51.8
2715.13	54.8
2718.656	45.8
2722.178	44.8
2725.697	48.8
2729.214	54.8
2732.727	60.8
2736.237	50.8
2739.744	37.8
2743.249	45.8
2746.75	42.8
2750.248	32.8
2753.743	37.8
2757.236	39.8
2760.725	35.8
2764.211	31.8
2767.695	28.8
2771.175	32.8
2774.652	26.8
2778.127	28.8
2781.598	29.8
2785.067	37.8
2788.532	27.8
2791.995	38.8
2795.455	35.8
2798.911	27.8
2802.365	32.8
2805.816	43.8
2809.264	41.8
2812.709	39.8
2816.151	39.8
2819.59	50.8
2823.026	35.8
2826.46	39.8
2829.89	36.8
2833.318	43.8
2836.742	52.8
2840.164	48.8
2843.583	47.8
2846.999	57.8
2850.412	55.8
2853.822	51.8
2857.229	57.8
2860.634	60.8
2864.035	62.8
2867.434	62.8
2870.83	78.8
2874.223	80.8
2877.613	88.8
2881	101.8
2884.385	103.8
2887.766	112.8
2891.145	109.8
2894.521	115.8
2897.894	107.8
2901.264	114.8
2904.631	104.8
2907.996	107.8
2911.358	115.8
2914.717	115.8
2918.073	110.8
2921.426	107.8
2924.777	117.8
2928.124	138.8
2931.469	149.8
2934.811	165.8
2938.15	165.8
2941.487	179.8
2944.821	154.8
2948.152	158.8
2951.48	146.8
2954.805	134.8
2958.128	118.8
2961.447	116.8
2964.765	103.8
2968.079	107.8
2971.39	99.8
2974.699	95.8
2978.005	106.8
2981.308	99.8
2984.609	96.8
2987.907	100.8
2991.202	103.8
2994.494	87.8
2997.784	78.8
3001.07	80.8
3004.355	80.8
3007.636	81.8
3010.915	71.8
3014.191	59.8
3017.464	69.8
3020.734	74.8
3024.002	70.8
3027.267	74.8
3030.53	79.8
3033.789	79.8
3037.046	72.8
3040.301	70.8
3043.552	83.8
3046.801	80.8
3050.048	81.8
3053.291	90.8
3056.532	81.8
3059.771	89.8
3063.006	89.8
3066.239	96.8
3069.469	101.8
3072.697	110.8
3075.922	111.8
3079.144	103.8
3082.364	113.8
3085.581	111.8
3088.795	116.8
3092.007	120.8
3095.216	122.8
3098.423	116.8
3101.627	119.8
3104.828	131.8
3108.026	125.8
3111.222	130.8
3114.416	137.8
3117.607	137.8
3120.795	139.8
3123.98	140.8
3127.163	158.8
3130.344	152.8
3133.521	163.8
3136.696	151.8
3139.869	165.8
3143.039	165.8
3146.206	164.8
3149.371	159.8
3152.533	172.8
3155.693	180.8
3158.85	174.8
3162.005	176.8
3165.157	175.8
3168.306	172.8
3171.453	173.8
3174.597	169.8
3177.739	173.8
3180.878	190.8
3184.014	174.8
3187.149	173.8
3190.28	169.8
3193.409	184.8
3196.536	174.8
3199.659	179.8
3202.781	185.8
3205.9	172.8
3209.016	167.8
3212.13	177.8
3215.241	175.8
3218.35	177.8
3221.456	168.8
3224.56	159.8
3227.661	159.8
3230.76	147.8
3233.856	152.8
3236.95	149.8
3240.041	144.8
3243.13	148.8
3246.216	141.8
3249.3	136.8
3252.382	131.8
3255.46	131.8
3258.537	131.8
3261.611	127.8
3264.682	125.8
3267.751	131.8
3270.818	126.8
3273.882	119.8
3276.943	118.8
3280.002	127.8
3283.059	124.8
3286.113	120.8
3289.165	123.8
3292.214	117.8
3295.261	122.8
3298.306	124.8
3301.348	111.8
3304.387	110.8
3307.425	113.8
3310.459	114.8
3313.492	115.8
3316.521	118.8
3319.549	124.8
3322.574	114.8
3325.597	116.8
3328.617	113.8
3331.635	114.8
3334.65	119.8
3337.663	106.8
3340.674	112.8
3343.682	106.8
3346.688	111.8
3349.691	105.8
3352.692	112.8
3355.691	113.8
3358.687	104.8
3361.681	112.8
3364.673	108.8
3367.662	108.8
3370.649	111.8
3373.633	97.8
3376.615	95.8
3379.595	93.8
3382.572	94.8
3385.547	101.8
3388.52	85.8
3391.49	83.8
3394.458	85.8
3397.424	84.8
3400.387	91.8
3403.348	79.8
3406.307	76.8
3409.263	83.8
3412.217	77.8
3415.168	80.8
3418.118	74.8
3421.065	75.8
3424.009	67.8
3426.951	62.8
3429.891	62.8
3432.829	62.8
3435.764	59.8
3438.697	62.8
3441.628	57.8
3444.557	55.8
3447.483	57.8
3450.407	41.8
3453.328	39.8
3456.247	40.8
3459.164	39.8
3462.079	30.8
3464.991	32.8
3467.902	29.8
3470.809	26.8
3473.715	17.8
3476.618	18.8
3479.519	15.8
3482.418	7.8
3485.315	13.8
3488.209	4.8
3491.101	12.8
3493.99	11.8
3496.878	9.8
3499.763	-2.2
3502.646	-1.2
3505.527	-0.2
3508.405	-0.2
3511.281	0.8
3514.155	-6.2
3517.027	-5.2
3519.897	-12.2
3522.764	-15.2
3525.629	-13.2
3528.492	-11.2
3531.352	-25.2
3534.211	-23.2
3537.067	-21.2
3539.921	-23.2
3542.773	-32.2
3545.622	-26.2
3548.469	-23.2
3551.315	-25.2
3554.157	-27.2
3556.998	-29.2
3559.837	-34.2
3562.673	-33.2
3565.507	-36.2
3568.339	-30.2
3571.169	-30.2
3573.996	-24.2
3576.822	-45.2
3579.645	-39.2
3582.466	-39.2
3585.285	-38.2
3588.101	-36.2
3590.916	-33.2
3593.728	-45.2
3596.538	-42.2
3599.346	-41.2
3602.152	-41.2
3604.956	-43.2
3607.757	-40.2
3610.556	-39.2
3613.354	-48.2
3616.149	-52.2
3618.942	-45.2
3621.732	-57.2
3624.521	-48.2
3627.307	-44.2
3630.092	-49.2
3632.874	-49.2
3635.654	-50.2
3638.432	-49.2
3641.208	-48.2
3643.982	-48.2
3646.753	-50.2
3649.523	-42.2
3652.29	-52.2
3655.055	-48.2
3657.818	-52.2
3660.579	-56.2
3663.338	-50.2
3666.095	-52.2
3668.849	-54.2
3671.602	-53.2
3674.352	-46.2
3677.101	-53.2
3679.847	-50.2
3682.591	-63.2
3685.333	-56.2
3688.073	-58.2
3690.811	-55.2
3693.547	-57.2
3696.281	-54.2
3699.013	-54.2
3701.742	-63.2
3704.47	-55.2
3707.195	-58.2
3709.919	-58.2
3712.64	-58.2
3715.359	-56.2
3718.076	-59.2
3720.792	-63.2
3723.505	-63.2
3726.216	-54.2
3728.925	-61.2
3731.632	-55.2
3734.336	-59.2
3737.039	-60.2
3739.74	-62.2
3742.439	-63.2
3745.136	-60.2
3747.83	-58.2
3750.523	-66.2
3753.213	-68.2
3755.902	-61.2
3758.589	-64.2
3761.273	-59.2
3763.956	-64.2
3766.636	-59.2
3769.315	-52.2
3771.991	-59.2
3774.665	-65.2
3777.338	-63.2
3780.008	-64.2
3782.677	-68.2
3785.343	-65.2
3788.007	-62.2
3790.67	-59.2
3793.33	-64.2
3795.989	-69.2
3798.645	-68.2
3801.299	-63.2
3803.952	-60.2
3806.602	-65.2
3809.251	-65.2
3811.897	-70.2
3814.542	-67.2
3817.184	-68.2
3819.825	-62.2
3822.463	-64.2
3825.1	-61.2
3827.735	-68.2
3830.367	-64.2
3832.998	-68.2
3835.627	-66.2
3838.253	-60.2
3840.878	-65.2
3843.501	-60.2
3846.122	-63.2
3848.741	-64.2
3851.358	-65.2
3853.973	-59.2
3856.586	-59.2
3859.197	-64.2
3861.806	-64.2
3864.414	-61.2
3867.019	-64.2
3869.622	-55.2
3872.224	-50.2
3874.823	-50.2
3877.421	-48.2
3880.016	-38.2
3882.61	-25.2
3885.202	-23.2
3887.792	-21.2
3890.38	-39.2
3892.966	-52.2
3895.55	-61.2
3898.132	-65.2
3900.713	-67.2
3903.291	-66.2
3905.868	-64.2
3908.442	-63.2
3911.015	-63.2
3913.586	-68.2
3916.155	-70.2
3918.722	-66.2
3921.287	-67.2
3923.85	-57.2
3926.411	-65.2
3928.971	-66.2
3931.528	-68.2
3934.084	-60.2
3936.638	-59.2
3939.19	-71.2
3941.74	-58.2
3944.288	-62.2
3946.834	-63.2
3949.378	-64.2
3951.921	-67.2
3954.462	-65.2
3957	-64.2
3959.537	-58.2
3962.072	-61.2
3964.606	-63.2
3967.137	-62.2
3969.667	-65.2
3972.194	-64.2
3974.72	-59.2
3977.244	-62.2
3979.766	-62.2
3982.286	-63.2
3984.805	-71.2
3987.321	-66.2
3989.836	-61.2
3992.349	-67.2
3994.86	-66.2
3997.369	-63.2
3999.877	-63.2
4002.382	-62.2
4004.886	-63.2
4007.388	-69.2
4009.888	-65.2
4012.386	-67.2
4014.883	-63.2
4017.377	-57.2
4019.87	-58.2
4022.361	-64.2
4024.85	-63.2
4027.338	-67.2
4029.823	-67.2
4032.307	-62.2
4034.789	-60.2
4037.269	-60.2
4039.747	-65.2
4042.224	-62.2
4044.699	-69.2
4047.172	-63.2
4049.643	-61.2
4052.112	-61.2
4054.58	-66.2
4057.046	-64.2
4059.51	-64.2
4061.972	-68.2
4064.432	-63.2
4066.891	-62.2
4069.348	-66.2
4071.803	-60.2
4074.256	-65.2
4076.708	-65.2
4079.158	-64.2
4081.606	-69.2
4084.052	-63.2
4086.497	-58.2
4088.939	-60.2
4091.38	-66.2
4093.819	-66.2
4096.257	-66.2
4098.693	-66.2
4101.127	-59.2
4103.559	-71.2
4105.989	10.8
4108.418	8.8
4110.845	5.8
4113.27	8.8
4115.694	8.8
4118.115	5.8
4120.535	-62.2
4122.954	-61.2
4125.37	-64.2
4127.785	-57.2
4130.198	-62.2
4132.609	-62.2
4135.019	-67.2
4137.427	-71.2
4139.833	-68.2
4142.237	-69.2
