Data from 2018-3-7_conc=0_n=5_RamanShift_05.txt Node
Date: Wed Mar 07 10:20:23 IST 2018
User: aro
Spectrometer: QEPB0276
Trigger mode: 0
Integration Time (sec): 3.000000E1
Scans to average: 1
Electric dark correction enabled: true
Nonlinearity correction enabled: false
Boxcar width: 0
XAxis mode: Raman Shifts
Number of Pixels in Spectrum: 1044
>>>>>Begin Spectral Data<<<<<
160.701	11.8
166.742	18.8
172.777	53.8
178.805	149.8
184.826	408.8
190.841	844.8
196.849	1400.8
202.85	1794.8
208.845	1974.8
214.833	1986.8
220.815	1964.8
226.789	1960.8
232.758	1997.8
238.719	1994.8
244.674	2009.8
250.623	1993.8
256.565	1982.8
262.5	1964.8
268.429	1936.8
274.351	1935.8
280.267	1938.8
286.176	1949.8
292.079	1951.8
297.975	1955.8
303.865	1982.8
309.748	1963.8
315.625	1978.8
321.495	1979.8
327.359	1979.8
333.217	1991.8
339.068	2001.8
344.912	2005.8
350.751	2004.8
356.583	2025.8
362.408	2022.8
368.227	2024.8
374.04	2053.8
379.847	2066.8
385.647	2086.8
391.44	2078.8
397.228	2083.8
403.009	2110.8
408.784	2103.8
414.553	2121.8
420.315	2128.8
426.071	2118.8
431.821	2124.8
437.565	2133.8
443.302	2141.8
449.033	2121.8
454.758	2110.8
460.477	2107.8
466.189	2079.8
471.896	2052.8
477.596	2022.8
483.29	2024.8
488.978	2027.8
494.66	1997.8
500.335	1951.8
506.005	1895.8
511.668	1790.8
517.325	1685.8
522.977	1592.8
528.622	1546.8
534.261	1512.8
539.894	1465.8
545.521	1459.8
551.141	1452.8
556.756	1420.8
562.365	1396.8
567.968	1397.8
573.565	1387.8
579.155	1382.8
584.74	1374.8
590.319	1358.8
595.892	1377.8
601.459	1356.8
607.02	1359.8
612.575	1347.8
618.124	1336.8
623.667	1320.8
629.204	1288.8
634.735	1267.8
640.261	1262.8
645.781	1254.8
651.294	1256.8
656.802	1231.8
662.304	1244.8
667.8	1235.8
673.29	1225.8
678.775	1234.8
684.254	1226.8
689.726	1214.8
695.193	1191.8
700.655	1205.8
706.11	1198.8
711.56	1193.8
717.004	1187.8
722.442	1175.8
727.874	1165.8
733.301	1175.8
738.722	1147.8
744.137	1157.8
749.547	1174.8
754.951	1156.8
760.349	1158.8
765.741	1158.8
771.128	1183.8
776.509	1179.8
781.885	1205.8
787.254	1218.8
792.618	1219.8
797.977	1236.8
803.33	1204.8
808.677	1204.8
814.019	1181.8
819.355	1190.8
824.686	1185.8
830.011	1179.8
835.33	1156.8
840.644	1158.8
845.952	1157.8
851.255	1154.8
856.552	1142.8
861.844	1125.8
867.13	1108.8
872.41	1159.8
877.686	1202.8
882.955	1241.8
888.219	1235.8
893.478	1170.8
898.731	1108.8
903.979	1054.8
909.221	1037.8
914.458	1027.8
919.69	1020.8
924.916	1015.8
930.136	1017.8
935.351	1024.8
940.561	1015.8
945.766	1010.8
950.965	993.8
956.158	998.8
961.347	993.8
966.529	973.8
971.707	961.8
976.879	945.8
982.046	936.8
987.208	936.8
992.364	940.8
997.515	941.8
1002.66	954.8
1007.801	959.8
1012.936	965.8
1018.066	991.8
1023.19	979.8
1028.309	977.8
1033.423	977.8
1038.532	998.8
1043.636	995.8
1048.734	1001.8
1053.827	1002.8
1058.915	979.8
1063.998	957.8
1069.075	960.8
1074.147	946.8
1079.214	947.8
1084.276	972.8
1089.333	989.8
1094.385	979.8
1099.431	962.8
1104.472	958.8
1109.509	932.8
1114.54	907.8
1119.565	896.8
1124.586	882.8
1129.602	877.8
1134.613	861.8
1139.618	860.8
1144.619	861.8
1149.614	857.8
1154.604	857.8
1159.589	861.8
1164.57	859.8
1169.545	849.8
1174.515	872.8
1179.48	858.8
1184.44	857.8
1189.395	843.8
1194.345	851.8
1199.29	810.8
1204.23	825.8
1209.165	832.8
1214.095	841.8
1219.021	838.8
1223.941	849.8
1228.856	840.8
1233.766	855.8
1238.672	850.8
1243.572	849.8
1248.467	832.8
1253.358	842.8
1258.244	829.8
1263.124	802.8
1268	801.8
1272.871	792.8
1277.737	790.8
1282.599	789.8
1287.455	788.8
1292.306	779.8
1297.153	774.8
1301.995	790.8
1306.832	789.8
1311.664	790.8
1316.491	793.8
1321.314	772.8
1326.132	777.8
1330.945	760.8
1335.753	746.8
1340.556	736.8
1345.354	713.8
1350.148	707.8
1354.937	680.8
1359.722	660.8
1364.501	655.8
1369.276	649.8
1374.046	634.8
1378.811	631.8
1383.572	635.8
1388.327	640.8
1393.079	632.8
1397.825	643.8
1402.567	644.8
1407.304	660.8
1412.036	654.8
1416.764	652.8
1421.487	657.8
1426.205	654.8
1430.919	657.8
1435.628	662.8
1440.333	672.8
1445.032	677.8
1449.727	712.8
1454.418	733.8
1459.104	726.8
1463.785	723.8
1468.462	682.8
1473.134	668.8
1477.802	617.8
1482.465	600.8
1487.123	588.8
1491.777	580.8
1496.426	567.8
1501.071	557.8
1505.711	545.8
1510.347	542.8
1514.978	530.8
1519.604	528.8
1524.226	525.8
1528.844	526.8
1533.457	533.8
1538.065	526.8
1542.669	511.8
1547.269	522.8
1551.864	530.8
1556.454	544.8
1561.041	545.8
1565.622	551.8
1570.199	552.8
1574.772	549.8
1579.34	548.8
1583.904	566.8
1588.464	567.8
1593.019	576.8
1597.569	571.8
1602.115	573.8
1606.657	568.8
1611.195	555.8
1615.728	576.8
1620.256	563.8
1624.78	550.8
1629.3	552.8
1633.816	560.8
1638.327	565.8
1642.834	559.8
1647.336	543.8
1651.834	546.8
1656.328	547.8
1660.817	538.8
1665.302	539.8
1669.783	526.8
1674.259	513.8
1678.732	500.8
1683.199	470.8
1687.663	464.8
1692.122	443.8
1696.577	425.8
1701.028	405.8
1705.474	392.8
1709.917	369.8
1714.355	365.8
1718.788	367.8
1723.218	373.8
1727.643	371.8
1732.064	370.8
1736.481	369.8
1740.893	357.8
1745.301	350.8
1749.705	352.8
1754.105	343.8
1758.501	332.8
1762.893	327.8
1767.28	322.8
1771.663	307.8
1776.042	311.8
1780.417	296.8
1784.787	294.8
1789.154	286.8
1793.516	284.8
1797.874	271.8
1802.228	283.8
1806.578	274.8
1810.924	270.8
1815.266	273.8
1819.603	272.8
1823.937	277.8
1828.266	277.8
1832.591	280.8
1836.913	289.8
1841.23	283.8
1845.543	275.8
1849.852	280.8
1854.156	292.8
1858.457	280.8
1862.754	286.8
1867.047	278.8
1871.335	277.8
1875.62	278.8
1879.9	283.8
1884.177	266.8
1888.449	276.8
1892.718	262.8
1896.982	250.8
1901.243	253.8
1905.499	244.8
1909.752	241.8
1914	234.8
1918.245	233.8
1922.485	223.8
1926.722	219.8
1930.954	217.8
1935.183	211.8
1939.408	215.8
1943.628	211.8
1947.845	217.8
1952.058	216.8
1956.267	210.8
1960.472	206.8
1964.673	197.8
1968.87	205.8
1973.063	210.8
1977.252	216.8
1981.438	216.8
1985.619	201.8
1989.797	210.8
1993.971	209.8
1998.14	210.8
2002.306	206.8
2006.469	215.8
2010.627	217.8
2014.781	216.8
2018.932	210.8
2023.078	211.8
2027.221	204.8
2031.36	207.8
2035.495	200.8
2039.627	192.8
2043.754	194.8
2047.878	192.8
2051.998	198.8
2056.114	193.8
2060.226	194.8
2064.334	188.8
2068.439	183.8
2072.54	175.8
2076.637	188.8
2080.73	174.8
2084.82	190.8
2088.906	174.8
2092.988	167.8
2097.066	170.8
2101.14	171.8
2105.211	173.8
2109.278	166.8
2113.342	161.8
2117.401	165.8
2121.457	161.8
2125.509	161.8
2129.558	163.8
2133.602	163.8
2137.643	164.8
2141.681	157.8
2145.714	167.8
2149.744	160.8
2153.77	163.8
2157.793	164.8
2161.812	174.8
2165.827	170.8
2169.838	163.8
2173.846	158.8
2177.851	159.8
2181.851	154.8
2185.848	155.8
2189.841	150.8
2193.831	151.8
2197.817	158.8
2201.799	152.8
2205.778	150.8
2209.753	152.8
2213.725	139.8
2217.693	157.8
2221.657	145.8
2225.618	133.8
2229.575	146.8
2233.529	142.8
2237.479	145.8
2241.425	135.8
2245.368	149.8
2249.307	143.8
2253.243	138.8
2257.175	134.8
2261.104	124.8
2265.029	129.8
2268.95	135.8
2272.868	133.8
2276.783	125.8
2280.694	119.8
2284.601	116.8
2288.505	126.8
2292.405	124.8
2296.302	125.8
2300.195	129.8
2304.085	109.8
2307.971	117.8
2311.854	117.8
2315.734	108.8
2319.609	113.8
2323.482	117.8
2327.351	125.8
2331.216	137.8
2335.078	148.8
2338.937	135.8
2342.792	125.8
2346.643	123.8
2350.492	116.8
2354.336	120.8
2358.178	113.8
2362.015	123.8
2365.85	118.8
2369.681	123.8
2373.508	124.8
2377.333	124.8
2381.153	118.8
2384.971	117.8
2388.785	116.8
2392.595	123.8
2396.402	117.8
2400.206	117.8
2404.007	115.8
2407.804	122.8
2411.597	112.8
2415.388	115.8
2419.174	121.8
2422.958	112.8
2426.738	117.8
2430.515	113.8
2434.289	112.8
2438.059	101.8
2441.825	103.8
2445.589	111.8
2449.349	100.8
2453.106	113.8
2456.859	101.8
2460.61	102.8
2464.356	111.8
2468.1	93.8
2471.84	95.8
2475.577	85.8
2479.311	87.8
2483.041	93.8
2486.768	88.8
2490.492	90.8
2494.213	90.8
2497.93	88.8
2501.644	95.8
2505.355	80.8
2509.062	82.8
2512.766	87.8
2516.467	80.8
2520.165	83.8
2523.859	83.8
2527.551	74.8
2531.239	77.8
2534.923	72.8
2538.605	70.8
2542.283	69.8
2545.958	75.8
2549.63	76.8
2553.299	77.8
2556.964	68.8
2560.626	72.8
2564.285	67.8
2567.941	65.8
2571.594	62.8
2575.243	68.8
2578.89	58.8
2582.533	65.8
2586.173	60.8
2589.809	62.8
2593.443	64.8
2597.073	58.8
2600.701	62.8
2604.325	57.8
2607.946	57.8
2611.564	57.8
2615.178	58.8
2618.79	54.8
2622.398	49.8
2626.004	52.8
2629.606	56.8
2633.205	61.8
2636.801	58.8
2640.394	62.8
2643.983	58.8
2647.57	49.8
2651.153	48.8
2654.734	50.8
2658.311	54.8
2661.885	58.8
2665.456	53.8
2669.025	53.8
2672.589	46.8
2676.151	48.8
2679.71	40.8
2683.266	43.8
2686.819	47.8
2690.368	46.8
2693.915	50.8
2697.458	44.8
2700.999	44.8
2704.536	46.8
2708.071	46.8
2711.602	36.8
2715.13	34.8
2718.656	42.8
2722.178	36.8
2725.697	37.8
2729.214	40.8
2732.727	50.8
2736.237	40.8
2739.744	32.8
2743.249	33.8
2746.75	32.8
2750.248	31.8
2753.743	31.8
2757.236	30.8
2760.725	31.8
2764.211	26.8
2767.695	21.8
2771.175	26.8
2774.652	27.8
2778.127	21.8
2781.598	22.8
2785.067	26.8
2788.532	24.8
2791.995	27.8
2795.455	23.8
2798.911	29.8
2802.365	35.8
2805.816	29.8
2809.264	28.8
2812.709	26.8
2816.151	35.8
2819.59	36.8
2823.026	25.8
2826.46	33.8
2829.89	32.8
2833.318	31.8
2836.742	35.8
2840.164	33.8
2843.583	32.8
2846.999	41.8
2850.412	37.8
2853.822	36.8
2857.229	38.8
2860.634	43.8
2864.035	43.8
2867.434	46.8
2870.83	50.8
2874.223	56.8
2877.613	56.8
2881	62.8
2884.385	75.8
2887.766	77.8
2891.145	78.8
2894.521	84.8
2897.894	69.8
2901.264	73.8
2904.631	66.8
2907.996	73.8
2911.358	79.8
2914.717	79.8
2918.073	72.8
2921.426	75.8
2924.777	77.8
2928.124	87.8
2931.469	88.8
2934.811	103.8
2938.15	105.8
2941.487	113.8
2944.821	101.8
2948.152	108.8
2951.48	91.8
2954.805	84.8
2958.128	78.8
2961.447	80.8
2964.765	78.8
2968.079	72.8
2971.39	65.8
2974.699	65.8
2978.005	68.8
2981.308	60.8
2984.609	68.8
2987.907	65.8
2991.202	65.8
2994.494	65.8
2997.784	67.8
3001.07	51.8
3004.355	53.8
3007.636	55.8
3010.915	47.8
3014.191	51.8
3017.464	60.8
3020.734	51.8
3024.002	59.8
3027.267	61.8
3030.53	53.8
3033.789	57.8
3037.046	48.8
3040.301	58.8
3043.552	57.8
3046.801	64.8
3050.048	66.8
3053.291	69.8
3056.532	68.8
3059.771	64.8
3063.006	70.8
3066.239	75.8
3069.469	84.8
3072.697	76.8
3075.922	84.8
3079.144	82.8
3082.364	87.8
3085.581	85.8
3088.795	92.8
3092.007	97.8
3095.216	92.8
3098.423	95.8
3101.627	94.8
3104.828	104.8
3108.026	100.8
3111.222	95.8
3114.416	101.8
3117.607	113.8
3120.795	108.8
3123.98	117.8
3127.163	125.8
3130.344	122.8
3133.521	127.8
3136.696	126.8
3139.869	135.8
3143.039	129.8
3146.206	139.8
3149.371	130.8
3152.533	141.8
3155.693	138.8
3158.85	136.8
3162.005	143.8
3165.157	134.8
3168.306	138.8
3171.453	138.8
3174.597	142.8
3177.739	142.8
3180.878	143.8
3184.014	132.8
3187.149	143.8
3190.28	139.8
3193.409	144.8
3196.536	142.8
3199.659	144.8
3202.781	141.8
3205.9	135.8
3209.016	134.8
3212.13	146.8
3215.241	137.8
3218.35	140.8
3221.456	132.8
3224.56	135.8
3227.661	120.8
3230.76	122.8
3233.856	123.8
3236.95	121.8
3240.041	110.8
3243.13	121.8
3246.216	110.8
3249.3	110.8
3252.382	108.8
3255.46	108.8
3258.537	106.8
3261.611	104.8
3264.682	111.8
3267.751	108.8
3270.818	95.8
3273.882	105.8
3276.943	97.8
3280.002	100.8
3283.059	104.8
3286.113	96.8
3289.165	97.8
3292.214	95.8
3295.261	96.8
3298.306	96.8
3301.348	91.8
3304.387	93.8
3307.425	94.8
3310.459	90.8
3313.492	89.8
3316.521	92.8
3319.549	97.8
3322.574	84.8
3325.597	92.8
3328.617	89.8
3331.635	97.8
3334.65	96.8
3337.663	78.8
3340.674	79.8
3343.682	86.8
3346.688	81.8
3349.691	94.8
3352.692	94.8
3355.691	101.8
3358.687	87.8
3361.681	87.8
3364.673	89.8
3367.662	81.8
3370.649	95.8
3373.633	82.8
3376.615	85.8
3379.595	77.8
3382.572	75.8
3385.547	73.8
3388.52	70.8
3391.49	72.8
3394.458	60.8
3397.424	74.8
3400.387	72.8
3403.348	66.8
3406.307	56.8
3409.263	62.8
3412.217	61.8
3415.168	64.8
3418.118	61.8
3421.065	58.8
3424.009	60.8
3426.951	55.8
3429.891	56.8
3432.829	47.8
3435.764	50.8
3438.697	47.8
3441.628	39.8
3444.557	44.8
3447.483	42.8
3450.407	32.8
3453.328	32.8
3456.247	24.8
3459.164	26.8
3462.079	23.8
3464.991	26.8
3467.902	27.8
3470.809	20.8
3473.715	12.8
3476.618	10.8
3479.519	9.8
3482.418	15.8
3485.315	4.8
3488.209	6.8
3491.101	3.8
3493.99	6.8
3496.878	1.8
3499.763	-5.2
3502.646	-9.2
3505.527	3.8
3508.405	-7.2
3511.281	-1.2
3514.155	-3.2
3517.027	-14.2
3519.897	-5.2
3522.764	-10.2
3525.629	-10.2
3528.492	-12.2
3531.352	-21.2
3534.211	-17.2
3537.067	-19.2
3539.921	-18.2
3542.773	-26.2
3545.622	-26.2
3548.469	-20.2
3551.315	-25.2
3554.157	-22.2
3556.998	-23.2
3559.837	-31.2
3562.673	-28.2
3565.507	-33.2
3568.339	-29.2
3571.169	-33.2
3573.996	-26.2
3576.822	-38.2
3579.645	-27.2
3582.466	-26.2
3585.285	-35.2
3588.101	-31.2
3590.916	-30.2
3593.728	-33.2
3596.538	-38.2
3599.346	-35.2
3602.152	-41.2
3604.956	-35.2
3607.757	-33.2
3610.556	-34.2
3613.354	-42.2
3616.149	-38.2
3618.942	-40.2
3621.732	-34.2
3624.521	-36.2
3627.307	-37.2
3630.092	-39.2
3632.874	-43.2
3635.654	-44.2
3638.432	-42.2
3641.208	-40.2
3643.982	-32.2
3646.753	-39.2
3649.523	-44.2
3652.29	-49.2
3655.055	-42.2
3657.818	-48.2
3660.579	-46.2
3663.338	-41.2
3666.095	-47.2
3668.849	-45.2
3671.602	-43.2
3674.352	-44.2
3677.101	-47.2
3679.847	-42.2
3682.591	-49.2
3685.333	-44.2
3688.073	-57.2
3690.811	-46.2
3693.547	-49.2
3696.281	-45.2
3699.013	-47.2
3701.742	-53.2
3704.47	-49.2
3707.195	-48.2
3709.919	-49.2
3712.64	-44.2
3715.359	-49.2
3718.076	-54.2
3720.792	-57.2
3723.505	-54.2
3726.216	-52.2
3728.925	-55.2
3731.632	-53.2
3734.336	-50.2
3737.039	-48.2
3739.74	-50.2
3742.439	-53.2
3745.136	-53.2
3747.83	-56.2
3750.523	-52.2
3753.213	-58.2
3755.902	-46.2
3758.589	-48.2
3761.273	-49.2
3763.956	-54.2
3766.636	-50.2
3769.315	-50.2
3771.991	-53.2
3774.665	-58.2
3777.338	-46.2
3780.008	-49.2
3782.677	-56.2
3785.343	-55.2
3788.007	-59.2
3790.67	-54.2
3793.33	-52.2
3795.989	-54.2
3798.645	-59.2
3801.299	-52.2
3803.952	-50.2
3806.602	-60.2
3809.251	-59.2
3811.897	-59.2
3814.542	-57.2
3817.184	-52.2
3819.825	-50.2
3822.463	-54.2
3825.1	-52.2
3827.735	-59.2
3830.367	-59.2
3832.998	-61.2
3835.627	-51.2
3838.253	-52.2
3840.878	-50.2
3843.501	-48.2
3846.122	-53.2
3848.741	-57.2
3851.358	-54.2
3853.973	-51.2
3856.586	-50.2
3859.197	-48.2
3861.806	-48.2
3864.414	-54.2
3867.019	-51.2
3869.622	-48.2
3872.224	-46.2
3874.823	-38.2
3877.421	-37.2
3880.016	-23.2
3882.61	-7.2
3885.202	-6.2
3887.792	-16.2
3890.38	-25.2
3892.966	-40.2
3895.55	-50.2
3898.132	-49.2
3900.713	-54.2
3903.291	-60.2
3905.868	-51.2
3908.442	-55.2
3911.015	-57.2
3913.586	-58.2
3916.155	-56.2
3918.722	-56.2
3921.287	-58.2
3923.85	-49.2
3926.411	-58.2
3928.971	-58.2
3931.528	-58.2
3934.084	-54.2
3936.638	-50.2
3939.19	-62.2
3941.74	-51.2
3944.288	-51.2
3946.834	-53.2
3949.378	-55.2
3951.921	-62.2
3954.462	-55.2
3957	-52.2
3959.537	-47.2
3962.072	-53.2
3964.606	-50.2
3967.137	-54.2
3969.667	-54.2
3972.194	-54.2
3974.72	-47.2
3977.244	-51.2
3979.766	-58.2
3982.286	-56.2
3984.805	-61.2
3987.321	-51.2
3989.836	-46.2
3992.349	-56.2
3994.86	-57.2
3997.369	-59.2
3999.877	-56.2
4002.382	-51.2
4004.886	-51.2
4007.388	-56.2
4009.888	-50.2
4012.386	-55.2
4014.883	-56.2
4017.377	-53.2
4019.87	-53.2
4022.361	-61.2
4024.85	-58.2
4027.338	-56.2
4029.823	-55.2
4032.307	-56.2
4034.789	-55.2
4037.269	-55.2
4039.747	-58.2
4042.224	-53.2
4044.699	-57.2
4047.172	-64.2
4049.643	-53.2
4052.112	-56.2
4054.58	-57.2
4057.046	-55.2
4059.51	-56.2
4061.972	-53.2
4064.432	-49.2
4066.891	-48.2
4069.348	-50.2
4071.803	-49.2
4074.256	-53.2
4076.708	-56.2
4079.158	-52.2
4081.606	-52.2
4084.052	-51.2
4086.497	-48.2
4088.939	-51.2
4091.38	-58.2
4093.819	-58.2
4096.257	-54.2
4098.693	-61.2
4101.127	-52.2
4103.559	-60.2
4105.989	13.8
4108.418	8.8
4110.845	3.8
4113.27	6.8
4115.694	9.8
4118.115	16.8
4120.535	-55.2
4122.954	-54.2
4125.37	-55.2
4127.785	-48.2
4130.198	-49.2
4132.609	-56.2
4135.019	-58.2
4137.427	-56.2
4139.833	-60.2
4142.237	-59.2
