Data from 2018-3-7_conc=0_n=2_RamanShift_01.txt Node
Date: Wed Mar 07 10:07:23 IST 2018
User: aro
Spectrometer: QEPB0276
Trigger mode: 0
Integration Time (sec): 3.000000E1
Scans to average: 1
Electric dark correction enabled: true
Nonlinearity correction enabled: false
Boxcar width: 0
XAxis mode: Raman Shifts
Number of Pixels in Spectrum: 1044
>>>>>Begin Spectral Data<<<<<
160.701	13.4
166.742	27.4
172.777	70.4
178.805	201.4
184.826	542.4
190.841	1160.4
196.849	1896.4
202.85	2533.4
208.845	2758.4
214.833	2753.4
220.815	2735.4
226.789	2735.4
232.758	2761.4
238.719	2747.4
244.674	2747.4
250.623	2738.4
256.565	2715.4
262.5	2684.4
268.429	2676.4
274.351	2652.4
280.267	2628.4
286.176	2655.4
292.079	2670.4
297.975	2639.4
303.865	2649.4
309.748	2640.4
315.625	2631.4
321.495	2638.4
327.359	2650.4
333.217	2655.4
339.068	2647.4
344.912	2664.4
350.751	2694.4
356.583	2681.4
362.408	2707.4
368.227	2701.4
374.04	2744.4
379.847	2753.4
385.647	2741.4
391.44	2766.4
397.228	2777.4
403.009	2827.4
408.784	2815.4
414.553	2846.4
420.315	2856.4
426.071	2888.4
431.821	2862.4
437.565	2875.4
443.302	2853.4
449.033	2876.4
454.758	2839.4
460.477	2811.4
466.189	2769.4
471.896	2745.4
477.596	2717.4
483.29	2713.4
488.978	2703.4
494.66	2703.4
500.335	2634.4
506.005	2540.4
511.668	2422.4
517.325	2321.4
522.977	2225.4
528.622	2182.4
534.261	2124.4
539.894	2082.4
545.521	2048.4
551.141	2014.4
556.756	1996.4
562.365	1983.4
567.968	1965.4
573.565	1966.4
579.155	1919.4
584.74	1953.4
590.319	1936.4
595.892	1917.4
601.459	1916.4
607.02	1913.4
612.575	1886.4
618.124	1877.4
623.667	1856.4
629.204	1825.4
634.735	1812.4
640.261	1800.4
645.781	1790.4
651.294	1798.4
656.802	1775.4
662.304	1770.4
667.8	1772.4
673.29	1770.4
678.775	1757.4
684.254	1735.4
689.726	1731.4
695.193	1732.4
700.655	1721.4
706.11	1717.4
711.56	1708.4
717.004	1693.4
722.442	1676.4
727.874	1679.4
733.301	1681.4
738.722	1651.4
744.137	1661.4
749.547	1661.4
754.951	1657.4
760.349	1657.4
765.741	1659.4
771.128	1669.4
776.509	1688.4
781.885	1722.4
787.254	1720.4
792.618	1728.4
797.977	1743.4
803.33	1713.4
808.677	1713.4
814.019	1708.4
819.355	1684.4
824.686	1669.4
830.011	1651.4
835.33	1659.4
840.644	1646.4
845.952	1664.4
851.255	1635.4
856.552	1648.4
861.844	1649.4
867.13	1660.4
872.41	1732.4
877.686	1861.4
882.955	1993.4
888.219	1987.4
893.478	1828.4
898.731	1661.4
903.979	1560.4
909.221	1512.4
914.458	1480.4
919.69	1470.4
924.916	1469.4
930.136	1467.4
935.351	1473.4
940.561	1463.4
945.766	1469.4
950.965	1460.4
956.158	1443.4
961.347	1427.4
966.529	1415.4
971.707	1364.4
976.879	1372.4
982.046	1360.4
987.208	1353.4
992.364	1342.4
997.515	1353.4
1002.66	1359.4
1007.801	1396.4
1012.936	1413.4
1018.066	1431.4
1023.19	1432.4
1028.309	1434.4
1033.423	1437.4
1038.532	1457.4
1043.636	1481.4
1048.734	1520.4
1053.827	1521.4
1058.915	1478.4
1063.998	1435.4
1069.075	1394.4
1074.147	1416.4
1079.214	1430.4
1084.276	1471.4
1089.333	1490.4
1094.385	1493.4
1099.431	1468.4
1104.472	1409.4
1109.509	1378.4
1114.54	1347.4
1119.565	1322.4
1124.586	1307.4
1129.602	1281.4
1134.613	1278.4
1139.618	1258.4
1144.619	1248.4
1149.614	1263.4
1154.604	1243.4
1159.589	1242.4
1164.57	1238.4
1169.545	1250.4
1174.515	1254.4
1179.48	1244.4
1184.44	1233.4
1189.395	1222.4
1194.345	1219.4
1199.29	1205.4
1204.23	1201.4
1209.165	1203.4
1214.095	1221.4
1219.021	1207.4
1223.941	1234.4
1228.856	1223.4
1233.766	1241.4
1238.672	1233.4
1243.572	1229.4
1248.467	1214.4
1253.358	1226.4
1258.244	1212.4
1263.124	1177.4
1268	1172.4
1272.871	1152.4
1277.737	1176.4
1282.599	1187.4
1287.455	1182.4
1292.306	1161.4
1297.153	1158.4
1301.995	1149.4
1306.832	1147.4
1311.664	1161.4
1316.491	1155.4
1321.314	1150.4
1326.132	1140.4
1330.945	1093.4
1335.753	1080.4
1340.556	1062.4
1345.354	1033.4
1350.148	1031.4
1354.937	1005.4
1359.722	969.4
1364.501	946.4
1369.276	919.4
1374.046	914.4
1378.811	917.4
1383.572	931.4
1388.327	924.4
1393.079	946.4
1397.825	945.4
1402.567	946.4
1407.304	970.4
1412.036	963.4
1416.764	966.4
1421.487	972.4
1426.205	991.4
1430.919	985.4
1435.628	1005.4
1440.333	1010.4
1445.032	1030.4
1449.727	1077.4
1454.418	1127.4
1459.104	1167.4
1463.785	1124.4
1468.462	1062.4
1473.134	992.4
1477.802	923.4
1482.465	888.4
1487.123	879.4
1491.777	857.4
1496.426	822.4
1501.071	803.4
1505.711	771.4
1510.347	773.4
1514.978	750.4
1519.604	744.4
1524.226	738.4
1528.844	734.4
1533.457	740.4
1538.065	729.4
1542.669	742.4
1547.269	742.4
1551.864	751.4
1556.454	760.4
1561.041	781.4
1565.622	784.4
1570.199	780.4
1574.772	787.4
1579.34	804.4
1583.904	816.4
1588.464	827.4
1593.019	819.4
1597.569	833.4
1602.115	820.4
1606.657	814.4
1611.195	815.4
1615.728	791.4
1620.256	797.4
1624.78	799.4
1629.3	798.4
1633.816	816.4
1638.327	805.4
1642.834	789.4
1647.336	784.4
1651.834	797.4
1656.328	798.4
1660.817	787.4
1665.302	763.4
1669.783	735.4
1674.259	720.4
1678.732	703.4
1683.199	675.4
1687.663	638.4
1692.122	595.4
1696.577	572.4
1701.028	532.4
1705.474	502.4
1709.917	496.4
1714.355	485.4
1718.788	487.4
1723.218	492.4
1727.643	493.4
1732.064	508.4
1736.481	495.4
1740.893	481.4
1745.301	482.4
1749.705	472.4
1754.105	461.4
1758.501	445.4
1762.893	439.4
1767.28	422.4
1771.663	428.4
1776.042	414.4
1780.417	401.4
1784.787	392.4
1789.154	376.4
1793.516	358.4
1797.874	355.4
1802.228	364.4
1806.578	349.4
1810.924	349.4
1815.266	350.4
1819.603	359.4
1823.937	359.4
1828.266	363.4
1832.591	374.4
1836.913	378.4
1841.23	377.4
1845.543	375.4
1849.852	383.4
1854.156	389.4
1858.457	376.4
1862.754	386.4
1867.047	372.4
1871.335	373.4
1875.62	368.4
1879.9	361.4
1884.177	353.4
1888.449	340.4
1892.718	345.4
1896.982	338.4
1901.243	324.4
1905.499	325.4
1909.752	300.4
1914	296.4
1918.245	288.4
1922.485	285.4
1926.722	269.4
1930.954	270.4
1935.183	266.4
1939.408	258.4
1943.628	250.4
1947.845	261.4
1952.058	252.4
1956.267	253.4
1960.472	261.4
1964.673	250.4
1968.87	261.4
1973.063	261.4
1977.252	275.4
1981.438	270.4
1985.619	265.4
1989.797	281.4
1993.971	274.4
1998.14	284.4
2002.306	278.4
2006.469	287.4
2010.627	284.4
2014.781	282.4
2018.932	280.4
2023.078	279.4
2027.221	273.4
2031.36	283.4
2035.495	272.4
2039.627	257.4
2043.754	263.4
2047.878	259.4
2051.998	261.4
2056.114	247.4
2060.226	245.4
2064.334	242.4
2068.439	237.4
2072.54	231.4
2076.637	236.4
2080.73	231.4
2084.82	224.4
2088.906	214.4
2092.988	214.4
2097.066	215.4
2101.14	218.4
2105.211	210.4
2109.278	209.4
2113.342	198.4
2117.401	205.4
2121.457	199.4
2125.509	200.4
2129.558	203.4
2133.602	204.4
2137.643	212.4
2141.681	200.4
2145.714	210.4
2149.744	220.4
2153.77	222.4
2157.793	214.4
2161.812	230.4
2165.827	224.4
2169.838	216.4
2173.846	209.4
2177.851	211.4
2181.851	218.4
2185.848	213.4
2189.841	204.4
2193.831	206.4
2197.817	204.4
2201.799	205.4
2205.778	207.4
2209.753	210.4
2213.725	201.4
2217.693	209.4
2221.657	204.4
2225.618	200.4
2229.575	199.4
2233.529	191.4
2237.479	198.4
2241.425	193.4
2245.368	196.4
2249.307	189.4
2253.243	191.4
2257.175	193.4
2261.104	179.4
2265.029	189.4
2268.95	187.4
2272.868	184.4
2276.783	180.4
2280.694	170.4
2284.601	163.4
2288.505	173.4
2292.405	186.4
2296.302	182.4
2300.195	172.4
2304.085	170.4
2307.971	169.4
2311.854	159.4
2315.734	161.4
2319.609	166.4
2323.482	171.4
2327.351	177.4
2331.216	186.4
2335.078	203.4
2338.937	189.4
2342.792	172.4
2346.643	173.4
2350.492	170.4
2354.336	166.4
2358.178	155.4
2362.015	178.4
2365.85	168.4
2369.681	173.4
2373.508	174.4
2377.333	182.4
2381.153	173.4
2384.971	177.4
2388.785	174.4
2392.595	171.4
2396.402	167.4
2400.206	170.4
2404.007	172.4
2407.804	172.4
2411.597	173.4
2415.388	170.4
2419.174	172.4
2422.958	165.4
2426.738	169.4
2430.515	171.4
2434.289	172.4
2438.059	161.4
2441.825	156.4
2445.589	158.4
2449.349	148.4
2453.106	157.4
2456.859	147.4
2460.61	151.4
2464.356	148.4
2468.1	140.4
2471.84	138.4
2475.577	131.4
2479.311	148.4
2483.041	136.4
2486.768	137.4
2490.492	144.4
2494.213	124.4
2497.93	129.4
2501.644	132.4
2505.355	125.4
2509.062	126.4
2512.766	130.4
2516.467	125.4
2520.165	125.4
2523.859	115.4
2527.551	116.4
2531.239	111.4
2534.923	111.4
2538.605	106.4
2542.283	102.4
2545.958	107.4
2549.63	108.4
2553.299	101.4
2556.964	97.4
2560.626	97.4
2564.285	104.4
2567.941	95.4
2571.594	89.4
2575.243	90.4
2578.89	93.4
2582.533	81.4
2586.173	83.4
2589.809	89.4
2593.443	90.4
2597.073	88.4
2600.701	83.4
2604.325	83.4
2607.946	71.4
2611.564	84.4
2615.178	78.4
2618.79	85.4
2622.398	84.4
2626.004	86.4
2629.606	79.4
2633.205	83.4
2636.801	79.4
2640.394	84.4
2643.983	83.4
2647.57	79.4
2651.153	72.4
2654.734	77.4
2658.311	75.4
2661.885	76.4
2665.456	84.4
2669.025	84.4
2672.589	77.4
2676.151	80.4
2679.71	72.4
2683.266	66.4
2686.819	85.4
2690.368	74.4
2693.915	79.4
2697.458	66.4
2700.999	80.4
2704.536	77.4
2708.071	70.4
2711.602	61.4
2715.13	61.4
2718.656	68.4
2722.178	65.4
2725.697	64.4
2729.214	62.4
2732.727	68.4
2736.237	63.4
2739.744	51.4
2743.249	50.4
2746.75	51.4
2750.248	52.4
2753.743	46.4
2757.236	41.4
2760.725	40.4
2764.211	29.4
2767.695	44.4
2771.175	42.4
2774.652	38.4
2778.127	39.4
2781.598	39.4
2785.067	35.4
2788.532	35.4
2791.995	43.4
2795.455	45.4
2798.911	43.4
2802.365	41.4
2805.816	46.4
2809.264	46.4
2812.709	38.4
2816.151	50.4
2819.59	67.4
2823.026	51.4
2826.46	58.4
2829.89	57.4
2833.318	55.4
2836.742	69.4
2840.164	59.4
2843.583	72.4
2846.999	78.4
2850.412	72.4
2853.822	76.4
2857.229	77.4
2860.634	78.4
2864.035	84.4
2867.434	92.4
2870.83	112.4
2874.223	122.4
2877.613	130.4
2881	142.4
2884.385	149.4
2887.766	158.4
2891.145	161.4
2894.521	163.4
2897.894	162.4
2901.264	165.4
2904.631	155.4
2907.996	154.4
2911.358	168.4
2914.717	159.4
2918.073	159.4
2921.426	165.4
2924.777	174.4
2928.124	190.4
2931.469	206.4
2934.811	231.4
2938.15	242.4
2941.487	243.4
2944.821	236.4
2948.152	219.4
2951.48	200.4
2954.805	185.4
2958.128	163.4
2961.447	159.4
2964.765	151.4
2968.079	141.4
2971.39	139.4
2974.699	144.4
2978.005	143.4
2981.308	138.4
2984.609	129.4
2987.907	136.4
2991.202	128.4
2994.494	121.4
2997.784	112.4
3001.07	102.4
3004.355	104.4
3007.636	105.4
3010.915	96.4
3014.191	87.4
3017.464	91.4
3020.734	93.4
3024.002	98.4
3027.267	90.4
3030.53	92.4
3033.789	97.4
3037.046	95.4
3040.301	103.4
3043.552	92.4
3046.801	104.4
3050.048	103.4
3053.291	104.4
3056.532	111.4
3059.771	117.4
3063.006	122.4
3066.239	127.4
3069.469	129.4
3072.697	130.4
3075.922	132.4
3079.144	135.4
3082.364	139.4
3085.581	142.4
3088.795	151.4
3092.007	144.4
3095.216	150.4
3098.423	151.4
3101.627	150.4
3104.828	160.4
3108.026	165.4
3111.222	160.4
3114.416	172.4
3117.607	159.4
3120.795	178.4
3123.98	172.4
3127.163	186.4
3130.344	186.4
3133.521	188.4
3136.696	195.4
3139.869	199.4
3143.039	204.4
3146.206	204.4
3149.371	200.4
3152.533	212.4
3155.693	215.4
3158.85	212.4
3162.005	208.4
3165.157	218.4
3168.306	220.4
3171.453	211.4
3174.597	216.4
3177.739	222.4
3180.878	224.4
3184.014	209.4
3187.149	210.4
3190.28	213.4
3193.409	218.4
3196.536	219.4
3199.659	214.4
3202.781	225.4
3205.9	215.4
3209.016	213.4
3212.13	227.4
3215.241	218.4
3218.35	214.4
3221.456	212.4
3224.56	199.4
3227.661	194.4
3230.76	184.4
3233.856	185.4
3236.95	185.4
3240.041	184.4
3243.13	177.4
3246.216	169.4
3249.3	159.4
3252.382	166.4
3255.46	162.4
3258.537	163.4
3261.611	157.4
3264.682	154.4
3267.751	152.4
3270.818	146.4
3273.882	152.4
3276.943	154.4
3280.002	159.4
3283.059	149.4
3286.113	150.4
3289.165	150.4
3292.214	139.4
3295.261	153.4
3298.306	150.4
3301.348	143.4
3304.387	146.4
3307.425	141.4
3310.459	135.4
3313.492	142.4
3316.521	147.4
3319.549	155.4
3322.574	137.4
3325.597	144.4
3328.617	142.4
3331.635	145.4
3334.65	147.4
3337.663	138.4
3340.674	140.4
3343.682	143.4
3346.688	141.4
3349.691	143.4
3352.692	138.4
3355.691	150.4
3358.687	137.4
3361.681	141.4
3364.673	140.4
3367.662	130.4
3370.649	137.4
3373.633	126.4
3376.615	124.4
3379.595	125.4
3382.572	114.4
3385.547	117.4
3388.52	116.4
3391.49	107.4
3394.458	113.4
3397.424	110.4
3400.387	108.4
3403.348	100.4
3406.307	101.4
3409.263	101.4
3412.217	95.4
3415.168	93.4
3418.118	95.4
3421.065	88.4
3424.009	97.4
3426.951	80.4
3429.891	81.4
3432.829	74.4
3435.764	79.4
3438.697	71.4
3441.628	63.4
3444.557	68.4
3447.483	67.4
3450.407	56.4
3453.328	59.4
3456.247	47.4
3459.164	108.4
3462.079	71.4
3464.991	48.4
3467.902	39.4
3470.809	35.4
3473.715	31.4
3476.618	29.4
3479.519	24.4
3482.418	20.4
3485.315	21.4
3488.209	16.4
3491.101	11.4
3493.99	13.4
3496.878	11.4
3499.763	10.4
3502.646	4.4
3505.527	1.4
3508.405	1.4
3511.281	-0.6
3514.155	-1.6
3517.027	-6.6
3519.897	-9.6
3522.764	-17.6
3525.629	-13.6
3528.492	-15.6
3531.352	-23.6
3534.211	-18.6
3537.067	-24.6
3539.921	-26.6
3542.773	-32.6
3545.622	-28.6
3548.469	-29.6
3551.315	-23.6
3554.157	-29.6
3556.998	-31.6
3559.837	-39.6
3562.673	-37.6
3565.507	-34.6
3568.339	-31.6
3571.169	-40.6
3573.996	-41.6
3576.822	-44.6
3579.645	-43.6
3582.466	-42.6
3585.285	-42.6
3588.101	-44.6
3590.916	-42.6
3593.728	-49.6
3596.538	-50.6
3599.346	-49.6
3602.152	-49.6
3604.956	-49.6
3607.757	-41.6
3610.556	-51.6
3613.354	-54.6
3616.149	-53.6
3618.942	-54.6
3621.732	-58.6
3624.521	-51.6
3627.307	-46.6
3630.092	-54.6
3632.874	-54.6
3635.654	-56.6
3638.432	-56.6
3641.208	-57.6
3643.982	-54.6
3646.753	-60.6
3649.523	-53.6
3652.29	-57.6
3655.055	-54.6
3657.818	-64.6
3660.579	-60.6
3663.338	-57.6
3666.095	-63.6
3668.849	-59.6
3671.602	-60.6
3674.352	-59.6
3677.101	-62.6
3679.847	-64.6
3682.591	-66.6
3685.333	-59.6
3688.073	-68.6
3690.811	-63.6
3693.547	-64.6
3696.281	-64.6
3699.013	-64.6
3701.742	-69.6
3704.47	-63.6
3707.195	-64.6
3709.919	-63.6
3712.64	-65.6
3715.359	-69.6
3718.076	-72.6
3720.792	-72.6
3723.505	-66.6
3726.216	-67.6
3728.925	-71.6
3731.632	-63.6
3734.336	-69.6
3737.039	-67.6
3739.74	-71.6
3742.439	-73.6
3745.136	-69.6
3747.83	-65.6
3750.523	-71.6
3753.213	-70.6
3755.902	-71.6
3758.589	-75.6
3761.273	-69.6
3763.956	-69.6
3766.636	-66.6
3769.315	-64.6
3771.991	-73.6
3774.665	-75.6
3777.338	-71.6
3780.008	-71.6
3782.677	-72.6
3785.343	-71.6
3788.007	-73.6
3790.67	-71.6
3793.33	-72.6
3795.989	-74.6
3798.645	-75.6
3801.299	-70.6
3803.952	-67.6
3806.602	-75.6
3809.251	-71.6
3811.897	-80.6
3814.542	-76.6
3817.184	-74.6
3819.825	-66.6
3822.463	-73.6
3825.1	-72.6
3827.735	-75.6
3830.367	-75.6
3832.998	-77.6
3835.627	-76.6
3838.253	-69.6
3840.878	-67.6
3843.501	-70.6
3846.122	-73.6
3848.741	-72.6
3851.358	-77.6
3853.973	-69.6
3856.586	-70.6
3859.197	-76.6
3861.806	-70.6
3864.414	-75.6
3867.019	-71.6
3869.622	-72.6
3872.224	-66.6
3874.823	-57.6
3877.421	-47.6
3880.016	-41.6
3882.61	-26.6
3885.202	-30.6
3887.792	-31.6
3890.38	-46.6
3892.966	-65.6
3895.55	-71.6
3898.132	-70.6
3900.713	-77.6
3903.291	-77.6
3905.868	-71.6
3908.442	-71.6
3911.015	-71.6
3913.586	-77.6
3916.155	-69.6
3918.722	-79.6
3921.287	-76.6
3923.85	-73.6
3926.411	-77.6
3928.971	-79.6
3931.528	-73.6
3934.084	-71.6
3936.638	-72.6
3939.19	-83.6
3941.74	-75.6
3944.288	-76.6
3946.834	-72.6
3949.378	-75.6
3951.921	-82.6
3954.462	-72.6
3957	-70.6
3959.537	-67.6
3962.072	-72.6
3964.606	-71.6
3967.137	-70.6
3969.667	-76.6
3972.194	-69.6
3974.72	-69.6
3977.244	-71.6
3979.766	-74.6
3982.286	-78.6
3984.805	-82.6
3987.321	-71.6
3989.836	-67.6
3992.349	-72.6
3994.86	-73.6
3997.369	-74.6
3999.877	-75.6
4002.382	-76.6
4004.886	-71.6
4007.388	-73.6
4009.888	-72.6
4012.386	-74.6
4014.883	-74.6
4017.377	-73.6
4019.87	-73.6
4022.361	-77.6
4024.85	-69.6
4027.338	-76.6
4029.823	-71.6
4032.307	-75.6
4034.789	-69.6
4037.269	-74.6
4039.747	-76.6
4042.224	-70.6
4044.699	-75.6
4047.172	-74.6
4049.643	-75.6
4052.112	-72.6
4054.58	-72.6
4057.046	-72.6
4059.51	-76.6
4061.972	-79.6
4064.432	-74.6
4066.891	-70.6
4069.348	-73.6
4071.803	-72.6
4074.256	-71.6
4076.708	-72.6
4079.158	-69.6
4081.606	-69.6
4084.052	-71.6
4086.497	-75.6
4088.939	-70.6
4091.38	-77.6
4093.819	-78.6
4096.257	-78.6
4098.693	-79.6
4101.127	-74.6
4103.559	-82.6
4105.989	18.4
4108.418	15.4
4110.845	9.4
4113.27	9.4
4115.694	6.4
4118.115	13.4
4120.535	-69.6
4122.954	-69.6
4125.37	-71.6
4127.785	-76.6
4130.198	-70.6
4132.609	-75.6
4135.019	-78.6
4137.427	-77.6
4139.833	-74.6
4142.237	-81.6
