Data from 2018-3-7_conc=6_n=9_RamanShift_03.txt Node
Date: Wed Mar 07 13:23:51 IST 2018
User: aro
Spectrometer: QEPB0276
Trigger mode: 0
Integration Time (sec): 3.000000E1
Scans to average: 1
Electric dark correction enabled: true
Nonlinearity correction enabled: false
Boxcar width: 0
XAxis mode: Raman Shifts
Number of Pixels in Spectrum: 1044
>>>>>Begin Spectral Data<<<<<
160.701	8.5
166.742	25.5
172.777	49.5
178.805	133.5
184.826	379.5
190.841	810.5
196.849	1362.5
202.85	1784.5
208.845	1964.5
214.833	1953.5
220.815	1933.5
226.789	1906.5
232.758	1923.5
238.719	1920.5
244.674	1899.5
250.623	1878.5
256.565	1869.5
262.5	1818.5
268.429	1811.5
274.351	1791.5
280.267	1773.5
286.176	1754.5
292.079	1753.5
297.975	1774.5
303.865	1753.5
309.748	1741.5
315.625	1746.5
321.495	1728.5
327.359	1729.5
333.217	1742.5
339.068	1734.5
344.912	1742.5
350.751	1730.5
356.583	1751.5
362.408	1728.5
368.227	1729.5
374.04	1754.5
379.847	1758.5
385.647	1756.5
391.44	1777.5
397.228	1757.5
403.009	1782.5
408.784	1800.5
414.553	1822.5
420.315	1816.5
426.071	1798.5
431.821	1812.5
437.565	1805.5
443.302	1817.5
449.033	1798.5
454.758	1789.5
460.477	1774.5
466.189	1771.5
471.896	1742.5
477.596	1733.5
483.29	1731.5
488.978	1742.5
494.66	1707.5
500.335	1697.5
506.005	1648.5
511.668	1600.5
517.325	1544.5
522.977	1493.5
528.622	1459.5
534.261	1429.5
539.894	1427.5
545.521	1422.5
551.141	1402.5
556.756	1395.5
562.365	1377.5
567.968	1392.5
573.565	1356.5
579.155	1373.5
584.74	1368.5
590.319	1342.5
595.892	1343.5
601.459	1360.5
607.02	1336.5
612.575	1330.5
618.124	1302.5
623.667	1301.5
629.204	1283.5
634.735	1285.5
640.261	1263.5
645.781	1252.5
651.294	1267.5
656.802	1250.5
662.304	1263.5
667.8	1255.5
673.29	1242.5
678.775	1248.5
684.254	1249.5
689.726	1231.5
695.193	1225.5
700.655	1216.5
706.11	1199.5
711.56	1209.5
717.004	1196.5
722.442	1185.5
727.874	1171.5
733.301	1194.5
738.722	1182.5
744.137	1176.5
749.547	1173.5
754.951	1174.5
760.349	1171.5
765.741	1175.5
771.128	1166.5
776.509	1195.5
781.885	1211.5
787.254	1188.5
792.618	1212.5
797.977	1191.5
803.33	1183.5
808.677	1181.5
814.019	1164.5
819.355	1153.5
824.686	1165.5
830.011	1145.5
835.33	1154.5
840.644	1147.5
845.952	1141.5
851.255	1134.5
856.552	1135.5
861.844	1135.5
867.13	1108.5
872.41	1108.5
877.686	1110.5
882.955	1110.5
888.219	1080.5
893.478	1076.5
898.731	1065.5
903.979	1027.5
909.221	1032.5
914.458	1030.5
919.69	1039.5
924.916	1038.5
930.136	1034.5
935.351	1036.5
940.561	1034.5
945.766	1036.5
950.965	1039.5
956.158	1025.5
961.347	1007.5
966.529	1003.5
971.707	987.5
976.879	969.5
982.046	967.5
987.208	959.5
992.364	962.5
997.515	959.5
1002.66	950.5
1007.801	985.5
1012.936	987.5
1018.066	990.5
1023.19	991.5
1028.309	981.5
1033.423	976.5
1038.532	978.5
1043.636	970.5
1048.734	962.5
1053.827	954.5
1058.915	954.5
1063.998	927.5
1069.075	929.5
1074.147	922.5
1079.214	932.5
1084.276	949.5
1089.333	948.5
1094.385	949.5
1099.431	938.5
1104.472	932.5
1109.509	932.5
1114.54	924.5
1119.565	911.5
1124.586	896.5
1129.602	890.5
1134.613	880.5
1139.618	880.5
1144.619	861.5
1149.614	885.5
1154.604	873.5
1159.589	876.5
1164.57	884.5
1169.545	892.5
1174.515	876.5
1179.48	887.5
1184.44	873.5
1189.395	858.5
1194.345	870.5
1199.29	851.5
1204.23	852.5
1209.165	847.5
1214.095	865.5
1219.021	868.5
1223.941	872.5
1228.856	879.5
1233.766	879.5
1238.672	878.5
1243.572	882.5
1248.467	856.5
1253.358	874.5
1258.244	837.5
1263.124	829.5
1268	831.5
1272.871	799.5
1277.737	800.5
1282.599	817.5
1287.455	790.5
1292.306	797.5
1297.153	804.5
1301.995	805.5
1306.832	810.5
1311.664	824.5
1316.491	823.5
1321.314	810.5
1326.132	820.5
1330.945	805.5
1335.753	787.5
1340.556	785.5
1345.354	754.5
1350.148	742.5
1354.937	726.5
1359.722	721.5
1364.501	685.5
1369.276	683.5
1374.046	660.5
1378.811	655.5
1383.572	654.5
1388.327	657.5
1393.079	657.5
1397.825	661.5
1402.567	661.5
1407.304	665.5
1412.036	675.5
1416.764	680.5
1421.487	691.5
1426.205	678.5
1430.919	669.5
1435.628	667.5
1440.333	699.5
1445.032	689.5
1449.727	702.5
1454.418	690.5
1459.104	705.5
1463.785	682.5
1468.462	682.5
1473.134	657.5
1477.802	633.5
1482.465	617.5
1487.123	612.5
1491.777	597.5
1496.426	585.5
1501.071	586.5
1505.711	583.5
1510.347	586.5
1514.978	579.5
1519.604	558.5
1524.226	564.5
1528.844	561.5
1533.457	560.5
1538.065	548.5
1542.669	549.5
1547.269	541.5
1551.864	562.5
1556.454	561.5
1561.041	573.5
1565.622	586.5
1570.199	572.5
1574.772	577.5
1579.34	601.5
1583.904	595.5
1588.464	617.5
1593.019	605.5
1597.569	614.5
1602.115	616.5
1606.657	610.5
1611.195	609.5
1615.728	613.5
1620.256	609.5
1624.78	618.5
1629.3	611.5
1633.816	608.5
1638.327	626.5
1642.834	617.5
1647.336	613.5
1651.834	612.5
1656.328	616.5
1660.817	602.5
1665.302	600.5
1669.783	587.5
1674.259	576.5
1678.732	559.5
1683.199	540.5
1687.663	511.5
1692.122	490.5
1696.577	479.5
1701.028	448.5
1705.474	420.5
1709.917	408.5
1714.355	408.5
1718.788	402.5
1723.218	399.5
1727.643	403.5
1732.064	404.5
1736.481	401.5
1740.893	390.5
1745.301	385.5
1749.705	379.5
1754.105	369.5
1758.501	353.5
1762.893	357.5
1767.28	342.5
1771.663	352.5
1776.042	338.5
1780.417	331.5
1784.787	334.5
1789.154	324.5
1793.516	318.5
1797.874	307.5
1802.228	305.5
1806.578	291.5
1810.924	290.5
1815.266	276.5
1819.603	302.5
1823.937	306.5
1828.266	301.5
1832.591	305.5
1836.913	304.5
1841.23	306.5
1845.543	295.5
1849.852	308.5
1854.156	309.5
1858.457	306.5
1862.754	310.5
1867.047	306.5
1871.335	305.5
1875.62	305.5
1879.9	306.5
1884.177	299.5
1888.449	297.5
1892.718	300.5
1896.982	294.5
1901.243	283.5
1905.499	278.5
1909.752	274.5
1914	266.5
1918.245	259.5
1922.485	255.5
1926.722	248.5
1930.954	253.5
1935.183	250.5
1939.408	257.5
1943.628	243.5
1947.845	236.5
1952.058	234.5
1956.267	228.5
1960.472	226.5
1964.673	222.5
1968.87	229.5
1973.063	233.5
1977.252	236.5
1981.438	239.5
1985.619	229.5
1989.797	226.5
1993.971	240.5
1998.14	246.5
2002.306	240.5
2006.469	245.5
2010.627	235.5
2014.781	244.5
2018.932	228.5
2023.078	237.5
2027.221	234.5
2031.36	236.5
2035.495	218.5
2039.627	224.5
2043.754	227.5
2047.878	224.5
2051.998	226.5
2056.114	220.5
2060.226	209.5
2064.334	215.5
2068.439	207.5
2072.54	207.5
2076.637	209.5
2080.73	213.5
2084.82	213.5
2088.906	204.5
2092.988	204.5
2097.066	199.5
2101.14	202.5
2105.211	195.5
2109.278	189.5
2113.342	185.5
2117.401	186.5
2121.457	188.5
2125.509	188.5
2129.558	180.5
2133.602	182.5
2137.643	179.5
2141.681	178.5
2145.714	192.5
2149.744	181.5
2153.77	183.5
2157.793	190.5
2161.812	189.5
2165.827	185.5
2169.838	175.5
2173.846	182.5
2177.851	180.5
2181.851	173.5
2185.848	174.5
2189.841	176.5
2193.831	178.5
2197.817	173.5
2201.799	179.5
2205.778	172.5
2209.753	174.5
2213.725	163.5
2217.693	174.5
2221.657	177.5
2225.618	161.5
2229.575	163.5
2233.529	163.5
2237.479	166.5
2241.425	161.5
2245.368	161.5
2249.307	161.5
2253.243	151.5
2257.175	153.5
2261.104	144.5
2265.029	149.5
2268.95	154.5
2272.868	142.5
2276.783	138.5
2280.694	146.5
2284.601	137.5
2288.505	139.5
2292.405	138.5
2296.302	147.5
2300.195	141.5
2304.085	136.5
2307.971	139.5
2311.854	128.5
2315.734	122.5
2319.609	135.5
2323.482	122.5
2327.351	131.5
2331.216	136.5
2335.078	143.5
2338.937	132.5
2342.792	143.5
2346.643	124.5
2350.492	130.5
2354.336	130.5
2358.178	125.5
2362.015	126.5
2365.85	129.5
2369.681	135.5
2373.508	136.5
2377.333	135.5
2381.153	131.5
2384.971	130.5
2388.785	117.5
2392.595	135.5
2396.402	131.5
2400.206	133.5
2404.007	128.5
2407.804	123.5
2411.597	124.5
2415.388	124.5
2419.174	128.5
2422.958	119.5
2426.738	128.5
2430.515	128.5
2434.289	121.5
2438.059	114.5
2441.825	120.5
2445.589	117.5
2449.349	111.5
2453.106	120.5
2456.859	109.5
2460.61	115.5
2464.356	115.5
2468.1	112.5
2471.84	105.5
2475.577	110.5
2479.311	97.5
2483.041	99.5
2486.768	95.5
2490.492	113.5
2494.213	103.5
2497.93	109.5
2501.644	111.5
2505.355	100.5
2509.062	101.5
2512.766	96.5
2516.467	91.5
2520.165	95.5
2523.859	100.5
2527.551	88.5
2531.239	84.5
2534.923	85.5
2538.605	91.5
2542.283	82.5
2545.958	82.5
2549.63	88.5
2553.299	80.5
2556.964	80.5
2560.626	83.5
2564.285	79.5
2567.941	77.5
2571.594	79.5
2575.243	79.5
2578.89	76.5
2582.533	71.5
2586.173	73.5
2589.809	72.5
2593.443	74.5
2597.073	74.5
2600.701	70.5
2604.325	68.5
2607.946	58.5
2611.564	69.5
2615.178	64.5
2618.79	67.5
2622.398	72.5
2626.004	60.5
2629.606	64.5
2633.205	67.5
2636.801	62.5
2640.394	71.5
2643.983	66.5
2647.57	66.5
2651.153	60.5
2654.734	66.5
2658.311	64.5
2661.885	66.5
2665.456	67.5
2669.025	62.5
2672.589	51.5
2676.151	57.5
2679.71	54.5
2683.266	57.5
2686.819	55.5
2690.368	55.5
2693.915	55.5
2697.458	47.5
2700.999	52.5
2704.536	57.5
2708.071	56.5
2711.602	50.5
2715.13	48.5
2718.656	48.5
2722.178	45.5
2725.697	41.5
2729.214	42.5
2732.727	48.5
2736.237	53.5
2739.744	38.5
2743.249	43.5
2746.75	41.5
2750.248	34.5
2753.743	33.5
2757.236	23.5
2760.725	25.5
2764.211	26.5
2767.695	22.5
2771.175	25.5
2774.652	27.5
2778.127	33.5
2781.598	23.5
2785.067	28.5
2788.532	25.5
2791.995	33.5
2795.455	31.5
2798.911	31.5
2802.365	35.5
2805.816	33.5
2809.264	32.5
2812.709	26.5
2816.151	37.5
2819.59	41.5
2823.026	35.5
2826.46	33.5
2829.89	32.5
2833.318	26.5
2836.742	38.5
2840.164	31.5
2843.583	31.5
2846.999	33.5
2850.412	32.5
2853.822	32.5
2857.229	33.5
2860.634	34.5
2864.035	34.5
2867.434	40.5
2870.83	43.5
2874.223	36.5
2877.613	46.5
2881	45.5
2884.385	50.5
2887.766	52.5
2891.145	47.5
2894.521	48.5
2897.894	44.5
2901.264	44.5
2904.631	43.5
2907.996	46.5
2911.358	54.5
2914.717	45.5
2918.073	44.5
2921.426	48.5
2924.777	57.5
2928.124	57.5
2931.469	58.5
2934.811	62.5
2938.15	68.5
2941.487	71.5
2944.821	62.5
2948.152	65.5
2951.48	56.5
2954.805	60.5
2958.128	64.5
2961.447	63.5
2964.765	57.5
2968.079	58.5
2971.39	56.5
2974.699	52.5
2978.005	57.5
2981.308	51.5
2984.609	48.5
2987.907	55.5
2991.202	57.5
2994.494	51.5
2997.784	57.5
3001.07	53.5
3004.355	61.5
3007.636	73.5
3010.915	61.5
3014.191	60.5
3017.464	64.5
3020.734	69.5
3024.002	67.5
3027.267	67.5
3030.53	68.5
3033.789	69.5
3037.046	70.5
3040.301	74.5
3043.552	75.5
3046.801	82.5
3050.048	82.5
3053.291	87.5
3056.532	89.5
3059.771	90.5
3063.006	92.5
3066.239	97.5
3069.469	106.5
3072.697	103.5
3075.922	114.5
3079.144	109.5
3082.364	116.5
3085.581	119.5
3088.795	125.5
3092.007	128.5
3095.216	135.5
3098.423	121.5
3101.627	126.5
3104.828	139.5
3108.026	136.5
3111.222	141.5
3114.416	148.5
3117.607	147.5
3120.795	147.5
3123.98	150.5
3127.163	163.5
3130.344	165.5
3133.521	168.5
3136.696	164.5
3139.869	173.5
3143.039	182.5
3146.206	175.5
3149.371	176.5
3152.533	188.5
3155.693	190.5
3158.85	186.5
3162.005	185.5
3165.157	190.5
3168.306	187.5
3171.453	187.5
3174.597	185.5
3177.739	189.5
3180.878	188.5
3184.014	181.5
3187.149	192.5
3190.28	190.5
3193.409	198.5
3196.536	187.5
3199.659	197.5
3202.781	196.5
3205.9	187.5
3209.016	193.5
3212.13	189.5
3215.241	193.5
3218.35	189.5
3221.456	193.5
3224.56	185.5
3227.661	183.5
3230.76	175.5
3233.856	178.5
3236.95	178.5
3240.041	169.5
3243.13	171.5
3246.216	162.5
3249.3	161.5
3252.382	161.5
3255.46	158.5
3258.537	161.5
3261.611	145.5
3264.682	151.5
3267.751	157.5
3270.818	135.5
3273.882	154.5
3276.943	141.5
3280.002	146.5
3283.059	144.5
3286.113	143.5
3289.165	139.5
3292.214	143.5
3295.261	141.5
3298.306	144.5
3301.348	147.5
3304.387	136.5
3307.425	133.5
3310.459	132.5
3313.492	134.5
3316.521	133.5
3319.549	141.5
3322.574	133.5
3325.597	130.5
3328.617	129.5
3331.635	134.5
3334.65	138.5
3337.663	130.5
3340.674	137.5
3343.682	133.5
3346.688	134.5
3349.691	139.5
3352.692	130.5
3355.691	139.5
3358.687	129.5
3361.681	130.5
3364.673	126.5
3367.662	125.5
3370.649	131.5
3373.633	121.5
3376.615	123.5
3379.595	115.5
3382.572	105.5
3385.547	117.5
3388.52	105.5
3391.49	110.5
3394.458	98.5
3397.424	112.5
3400.387	104.5
3403.348	95.5
3406.307	97.5
3409.263	100.5
3412.217	97.5
3415.168	100.5
3418.118	90.5
3421.065	95.5
3424.009	87.5
3426.951	88.5
3429.891	91.5
3432.829	85.5
3435.764	92.5
3438.697	83.5
3441.628	74.5
3444.557	70.5
3447.483	74.5
3450.407	56.5
3453.328	66.5
3456.247	57.5
3459.164	59.5
3462.079	55.5
3464.991	51.5
3467.902	52.5
3470.809	50.5
3473.715	44.5
3476.618	38.5
3479.519	43.5
3482.418	32.5
3485.315	41.5
3488.209	28.5
3491.101	26.5
3493.99	28.5
3496.878	23.5
3499.763	21.5
3502.646	18.5
3505.527	18.5
3508.405	20.5
3511.281	14.5
3514.155	10.5
3517.027	3.5
3519.897	5.5
3522.764	3.5
3525.629	1.5
3528.492	2.5
3531.352	-4.5
3534.211	-5.5
3537.067	-6.5
3539.921	-6.5
3542.773	-6.5
3545.622	-9.5
3548.469	-2.5
3551.315	-2.5
3554.157	-11.5
3556.998	-10.5
3559.837	-18.5
3562.673	-14.5
3565.507	-13.5
3568.339	-9.5
3571.169	-17.5
3573.996	-9.5
3576.822	-24.5
3579.645	-23.5
3582.466	-20.5
3585.285	-21.5
3588.101	-27.5
3590.916	-25.5
3593.728	-25.5
3596.538	-28.5
3599.346	-33.5
3602.152	-28.5
3604.956	-30.5
3607.757	-23.5
3610.556	-29.5
3613.354	-39.5
3616.149	-34.5
3618.942	-30.5
3621.732	-32.5
3624.521	-28.5
3627.307	-35.5
3630.092	-30.5
3632.874	-35.5
3635.654	-33.5
3638.432	-37.5
3641.208	-37.5
3643.982	-33.5
3646.753	-42.5
3649.523	-35.5
3652.29	-42.5
3655.055	-39.5
3657.818	-45.5
3660.579	-41.5
3663.338	-41.5
3666.095	-43.5
3668.849	-41.5
3671.602	-39.5
3674.352	-37.5
3677.101	-42.5
3679.847	-39.5
3682.591	-45.5
3685.333	-39.5
3688.073	-44.5
3690.811	-42.5
3693.547	-43.5
3696.281	-41.5
3699.013	-42.5
3701.742	-46.5
3704.47	-40.5
3707.195	-46.5
3709.919	-44.5
3712.64	-46.5
3715.359	-46.5
3718.076	-48.5
3720.792	-48.5
3723.505	-45.5
3726.216	-42.5
3728.925	-48.5
3731.632	-43.5
3734.336	-51.5
3737.039	-45.5
3739.74	-49.5
3742.439	-53.5
3745.136	-48.5
3747.83	-46.5
3750.523	-52.5
3753.213	-61.5
3755.902	-48.5
3758.589	-48.5
3761.273	-50.5
3763.956	-48.5
3766.636	-48.5
3769.315	-44.5
3771.991	-49.5
3774.665	-50.5
3777.338	-52.5
3780.008	-54.5
3782.677	-51.5
3785.343	-53.5
3788.007	-53.5
3790.67	-51.5
3793.33	-51.5
3795.989	-49.5
3798.645	-52.5
3801.299	-47.5
3803.952	-47.5
3806.602	-54.5
3809.251	-54.5
3811.897	-53.5
3814.542	-51.5
3817.184	-51.5
3819.825	-47.5
3822.463	-50.5
3825.1	-43.5
3827.735	-57.5
3830.367	-50.5
3832.998	-52.5
3835.627	-55.5
3838.253	-48.5
3840.878	-44.5
3843.501	-49.5
3846.122	-50.5
3848.741	-46.5
3851.358	-47.5
3853.973	-53.5
3856.586	-51.5
3859.197	-52.5
3861.806	-51.5
3864.414	-52.5
3867.019	-52.5
3869.622	-41.5
3872.224	-42.5
3874.823	-25.5
3877.421	-22.5
3880.016	-8.5
3882.61	8.5
3885.202	11.5
3887.792	4.5
3890.38	-15.5
3892.966	-35.5
3895.55	-42.5
3898.132	-43.5
3900.713	-53.5
3903.291	-54.5
3905.868	-47.5
3908.442	-49.5
3911.015	-52.5
3913.586	-61.5
3916.155	-55.5
3918.722	-53.5
3921.287	-54.5
3923.85	-43.5
3926.411	-55.5
3928.971	-57.5
3931.528	-51.5
3934.084	-49.5
3936.638	-49.5
3939.19	-54.5
3941.74	-48.5
3944.288	-52.5
3946.834	-52.5
3949.378	-55.5
3951.921	-52.5
3954.462	-53.5
3957	-49.5
3959.537	-44.5
3962.072	-50.5
3964.606	-52.5
3967.137	-50.5
3969.667	-52.5
3972.194	-49.5
3974.72	-46.5
3977.244	-46.5
3979.766	-49.5
3982.286	-51.5
3984.805	-56.5
3987.321	-50.5
3989.836	-45.5
3992.349	-49.5
3994.86	-50.5
3997.369	-53.5
3999.877	-51.5
4002.382	-52.5
4004.886	-47.5
4007.388	-52.5
4009.888	-49.5
4012.386	-48.5
4014.883	-50.5
4017.377	-49.5
4019.87	-51.5
4022.361	-59.5
4024.85	-57.5
4027.338	-55.5
4029.823	-57.5
4032.307	-51.5
4034.789	-47.5
4037.269	-49.5
4039.747	-49.5
4042.224	-44.5
4044.699	-51.5
4047.172	-54.5
4049.643	-50.5
4052.112	-49.5
4054.58	-53.5
4057.046	-40.5
4059.51	-51.5
4061.972	-55.5
4064.432	-48.5
4066.891	-47.5
4069.348	-49.5
4071.803	-47.5
4074.256	-52.5
4076.708	-55.5
4079.158	-54.5
4081.606	-50.5
4084.052	-53.5
4086.497	-45.5
4088.939	-50.5
4091.38	-50.5
4093.819	-54.5
4096.257	-50.5
4098.693	-51.5
4101.127	-48.5
4103.559	-55.5
4105.989	13.5
4108.418	8.5
4110.845	5.5
4113.27	8.5
4115.694	13.5
4118.115	16.5
4120.535	-48.5
4122.954	-46.5
4125.37	-47.5
4127.785	-49.5
4130.198	-49.5
4132.609	-53.5
4135.019	-55.5
4137.427	-57.5
4139.833	-51.5
4142.237	-52.5
