Data from 2018-3-7_conc=6_n=3_RamanShift_05.txt Node
Date: Wed Mar 07 13:04:52 IST 2018
User: aro
Spectrometer: QEPB0276
Trigger mode: 0
Integration Time (sec): 3.000000E1
Scans to average: 1
Electric dark correction enabled: true
Nonlinearity correction enabled: false
Boxcar width: 0
XAxis mode: Raman Shifts
Number of Pixels in Spectrum: 1044
>>>>>Begin Spectral Data<<<<<
160.701	7.5
166.742	13.5
172.777	50.5
178.805	149.5
184.826	403.5
190.841	869.5
196.849	1438.5
202.85	1897.5
208.845	2091.5
214.833	2087.5
220.815	2046.5
226.789	2067.5
232.758	2061.5
238.719	2050.5
244.674	2055.5
250.623	2035.5
256.565	2009.5
262.5	1960.5
268.429	1958.5
274.351	1937.5
280.267	1928.5
286.176	1904.5
292.079	1920.5
297.975	1913.5
303.865	1892.5
309.748	1891.5
315.625	1887.5
321.495	1905.5
327.359	1875.5
333.217	1885.5
339.068	1864.5
344.912	1893.5
350.751	1905.5
356.583	1875.5
362.408	1898.5
368.227	1887.5
374.04	1916.5
379.847	1908.5
385.647	1913.5
391.44	1926.5
397.228	1932.5
403.009	1933.5
408.784	1961.5
414.553	1950.5
420.315	1955.5
426.071	1946.5
431.821	1963.5
437.565	1949.5
443.302	1977.5
449.033	1964.5
454.758	1929.5
460.477	1927.5
466.189	1922.5
471.896	1916.5
477.596	1900.5
483.29	1894.5
488.978	1891.5
494.66	1862.5
500.335	1827.5
506.005	1792.5
511.668	1727.5
517.325	1683.5
522.977	1621.5
528.622	1599.5
534.261	1588.5
539.894	1564.5
545.521	1559.5
551.141	1541.5
556.756	1537.5
562.365	1511.5
567.968	1516.5
573.565	1490.5
579.155	1497.5
584.74	1491.5
590.319	1479.5
595.892	1473.5
601.459	1455.5
607.02	1457.5
612.575	1449.5
618.124	1440.5
623.667	1426.5
629.204	1416.5
634.735	1392.5
640.261	1388.5
645.781	1383.5
651.294	1379.5
656.802	1363.5
662.304	1374.5
667.8	1364.5
673.29	1389.5
678.775	1376.5
684.254	1367.5
689.726	1339.5
695.193	1361.5
700.655	1322.5
706.11	1332.5
711.56	1321.5
717.004	1315.5
722.442	1291.5
727.874	1298.5
733.301	1303.5
738.722	1279.5
744.137	1290.5
749.547	1294.5
754.951	1287.5
760.349	1296.5
765.741	1297.5
771.128	1297.5
776.509	1302.5
781.885	1300.5
787.254	1309.5
792.618	1328.5
797.977	1319.5
803.33	1306.5
808.677	1305.5
814.019	1290.5
819.355	1269.5
824.686	1255.5
830.011	1246.5
835.33	1251.5
840.644	1247.5
845.952	1236.5
851.255	1251.5
856.552	1231.5
861.844	1235.5
867.13	1219.5
872.41	1227.5
877.686	1218.5
882.955	1203.5
888.219	1194.5
893.478	1189.5
898.731	1173.5
903.979	1140.5
909.221	1161.5
914.458	1139.5
919.69	1139.5
924.916	1153.5
930.136	1147.5
935.351	1140.5
940.561	1141.5
945.766	1131.5
950.965	1146.5
956.158	1123.5
961.347	1123.5
966.529	1109.5
971.707	1071.5
976.879	1061.5
982.046	1068.5
987.208	1054.5
992.364	1061.5
997.515	1053.5
1002.66	1077.5
1007.801	1079.5
1012.936	1100.5
1018.066	1093.5
1023.19	1086.5
1028.309	1093.5
1033.423	1095.5
1038.532	1076.5
1043.636	1065.5
1048.734	1064.5
1053.827	1052.5
1058.915	1047.5
1063.998	1046.5
1069.075	1011.5
1074.147	1030.5
1079.214	1020.5
1084.276	1028.5
1089.333	1041.5
1094.385	1043.5
1099.431	1036.5
1104.472	1036.5
1109.509	1027.5
1114.54	1020.5
1119.565	997.5
1124.586	998.5
1129.602	969.5
1134.613	983.5
1139.618	964.5
1144.619	962.5
1149.614	977.5
1154.604	953.5
1159.589	965.5
1164.57	972.5
1169.545	951.5
1174.515	975.5
1179.48	962.5
1184.44	967.5
1189.395	948.5
1194.345	937.5
1199.29	934.5
1204.23	928.5
1209.165	936.5
1214.095	950.5
1219.021	960.5
1223.941	963.5
1228.856	959.5
1233.766	971.5
1238.672	963.5
1243.572	961.5
1248.467	952.5
1253.358	943.5
1258.244	917.5
1263.124	907.5
1268	909.5
1272.871	899.5
1277.737	880.5
1282.599	876.5
1287.455	877.5
1292.306	883.5
1297.153	883.5
1301.995	886.5
1306.832	881.5
1311.664	900.5
1316.491	910.5
1321.314	890.5
1326.132	900.5
1330.945	883.5
1335.753	864.5
1340.556	853.5
1345.354	821.5
1350.148	813.5
1354.937	803.5
1359.722	774.5
1364.501	771.5
1369.276	746.5
1374.046	731.5
1378.811	723.5
1383.572	721.5
1388.327	716.5
1393.079	713.5
1397.825	711.5
1402.567	736.5
1407.304	727.5
1412.036	745.5
1416.764	732.5
1421.487	728.5
1426.205	744.5
1430.919	744.5
1435.628	753.5
1440.333	758.5
1445.032	757.5
1449.727	771.5
1454.418	766.5
1459.104	756.5
1463.785	755.5
1468.462	738.5
1473.134	732.5
1477.802	695.5
1482.465	691.5
1487.123	662.5
1491.777	654.5
1496.426	660.5
1501.071	644.5
1505.711	636.5
1510.347	628.5
1514.978	620.5
1519.604	622.5
1524.226	608.5
1528.844	616.5
1533.457	601.5
1538.065	601.5
1542.669	601.5
1547.269	595.5
1551.864	619.5
1556.454	608.5
1561.041	621.5
1565.622	630.5
1570.199	621.5
1574.772	639.5
1579.34	652.5
1583.904	650.5
1588.464	664.5
1593.019	674.5
1597.569	660.5
1602.115	666.5
1606.657	653.5
1611.195	667.5
1615.728	661.5
1620.256	660.5
1624.78	667.5
1629.3	663.5
1633.816	680.5
1638.327	681.5
1642.834	660.5
1647.336	661.5
1651.834	668.5
1656.328	657.5
1660.817	658.5
1665.302	653.5
1669.783	637.5
1674.259	628.5
1678.732	605.5
1683.199	585.5
1687.663	558.5
1692.122	530.5
1696.577	514.5
1701.028	498.5
1705.474	457.5
1709.917	450.5
1714.355	430.5
1718.788	428.5
1723.218	438.5
1727.643	434.5
1732.064	442.5
1736.481	442.5
1740.893	429.5
1745.301	418.5
1749.705	413.5
1754.105	396.5
1758.501	381.5
1762.893	379.5
1767.28	376.5
1771.663	366.5
1776.042	365.5
1780.417	361.5
1784.787	357.5
1789.154	350.5
1793.516	338.5
1797.874	322.5
1802.228	331.5
1806.578	325.5
1810.924	309.5
1815.266	318.5
1819.603	320.5
1823.937	333.5
1828.266	325.5
1832.591	339.5
1836.913	330.5
1841.23	336.5
1845.543	325.5
1849.852	347.5
1854.156	342.5
1858.457	339.5
1862.754	343.5
1867.047	331.5
1871.335	338.5
1875.62	341.5
1879.9	333.5
1884.177	326.5
1888.449	334.5
1892.718	319.5
1896.982	312.5
1901.243	299.5
1905.499	305.5
1909.752	291.5
1914	299.5
1918.245	283.5
1922.485	279.5
1926.722	272.5
1930.954	269.5
1935.183	283.5
1939.408	270.5
1943.628	264.5
1947.845	266.5
1952.058	261.5
1956.267	258.5
1960.472	253.5
1964.673	242.5
1968.87	245.5
1973.063	247.5
1977.252	248.5
1981.438	253.5
1985.619	242.5
1989.797	244.5
1993.971	241.5
1998.14	251.5
2002.306	263.5
2006.469	267.5
2010.627	245.5
2014.781	264.5
2018.932	257.5
2023.078	262.5
2027.221	261.5
2031.36	256.5
2035.495	248.5
2039.627	233.5
2043.754	241.5
2047.878	243.5
2051.998	242.5
2056.114	246.5
2060.226	231.5
2064.334	237.5
2068.439	221.5
2072.54	224.5
2076.637	232.5
2080.73	230.5
2084.82	228.5
2088.906	220.5
2092.988	205.5
2097.066	215.5
2101.14	207.5
2105.211	211.5
2109.278	202.5
2113.342	200.5
2117.401	210.5
2121.457	202.5
2125.509	202.5
2129.558	205.5
2133.602	198.5
2137.643	205.5
2141.681	193.5
2145.714	196.5
2149.744	208.5
2153.77	200.5
2157.793	205.5
2161.812	205.5
2165.827	202.5
2169.838	198.5
2173.846	193.5
2177.851	196.5
2181.851	197.5
2185.848	192.5
2189.841	195.5
2193.831	185.5
2197.817	184.5
2201.799	186.5
2205.778	183.5
2209.753	184.5
2213.725	183.5
2217.693	192.5
2221.657	191.5
2225.618	183.5
2229.575	175.5
2233.529	186.5
2237.479	187.5
2241.425	178.5
2245.368	179.5
2249.307	172.5
2253.243	172.5
2257.175	173.5
2261.104	168.5
2265.029	175.5
2268.95	165.5
2272.868	164.5
2276.783	152.5
2280.694	149.5
2284.601	148.5
2288.505	149.5
2292.405	157.5
2296.302	158.5
2300.195	150.5
2304.085	139.5
2307.971	149.5
2311.854	145.5
2315.734	141.5
2319.609	156.5
2323.482	139.5
2327.351	148.5
2331.216	150.5
2335.078	161.5
2338.937	159.5
2342.792	152.5
2346.643	145.5
2350.492	141.5
2354.336	140.5
2358.178	137.5
2362.015	142.5
2365.85	142.5
2369.681	144.5
2373.508	152.5
2377.333	150.5
2381.153	153.5
2384.971	148.5
2388.785	148.5
2392.595	146.5
2396.402	153.5
2400.206	141.5
2404.007	141.5
2407.804	148.5
2411.597	146.5
2415.388	138.5
2419.174	148.5
2422.958	143.5
2426.738	138.5
2430.515	136.5
2434.289	147.5
2438.059	131.5
2441.825	140.5
2445.589	131.5
2449.349	129.5
2453.106	133.5
2456.859	125.5
2460.61	130.5
2464.356	124.5
2468.1	123.5
2471.84	123.5
2475.577	116.5
2479.311	120.5
2483.041	122.5
2486.768	113.5
2490.492	120.5
2494.213	114.5
2497.93	116.5
2501.644	117.5
2505.355	112.5
2509.062	112.5
2512.766	107.5
2516.467	115.5
2520.165	111.5
2523.859	117.5
2527.551	102.5
2531.239	96.5
2534.923	95.5
2538.605	94.5
2542.283	94.5
2545.958	99.5
2549.63	90.5
2553.299	93.5
2556.964	91.5
2560.626	93.5
2564.285	87.5
2567.941	82.5
2571.594	84.5
2575.243	84.5
2578.89	81.5
2582.533	89.5
2586.173	78.5
2589.809	83.5
2593.443	89.5
2597.073	73.5
2600.701	83.5
2604.325	68.5
2607.946	69.5
2611.564	83.5
2615.178	83.5
2618.79	75.5
2622.398	79.5
2626.004	73.5
2629.606	74.5
2633.205	76.5
2636.801	69.5
2640.394	75.5
2643.983	70.5
2647.57	72.5
2651.153	64.5
2654.734	69.5
2658.311	71.5
2661.885	74.5
2665.456	72.5
2669.025	72.5
2672.589	65.5
2676.151	71.5
2679.71	60.5
2683.266	63.5
2686.819	63.5
2690.368	58.5
2693.915	65.5
2697.458	53.5
2700.999	60.5
2704.536	64.5
2708.071	62.5
2711.602	50.5
2715.13	56.5
2718.656	55.5
2722.178	49.5
2725.697	50.5
2729.214	50.5
2732.727	56.5
2736.237	53.5
2739.744	46.5
2743.249	46.5
2746.75	47.5
2750.248	38.5
2753.743	38.5
2757.236	37.5
2760.725	37.5
2764.211	30.5
2767.695	28.5
2771.175	31.5
2774.652	32.5
2778.127	35.5
2781.598	30.5
2785.067	34.5
2788.532	34.5
2791.995	39.5
2795.455	29.5
2798.911	35.5
2802.365	37.5
2805.816	36.5
2809.264	44.5
2812.709	34.5
2816.151	42.5
2819.59	49.5
2823.026	35.5
2826.46	42.5
2829.89	35.5
2833.318	39.5
2836.742	37.5
2840.164	37.5
2843.583	38.5
2846.999	37.5
2850.412	36.5
2853.822	34.5
2857.229	46.5
2860.634	37.5
2864.035	37.5
2867.434	42.5
2870.83	50.5
2874.223	45.5
2877.613	49.5
2881	56.5
2884.385	56.5
2887.766	52.5
2891.145	49.5
2894.521	49.5
2897.894	56.5
2901.264	46.5
2904.631	46.5
2907.996	48.5
2911.358	58.5
2914.717	54.5
2918.073	47.5
2921.426	52.5
2924.777	57.5
2928.124	56.5
2931.469	59.5
2934.811	67.5
2938.15	73.5
2941.487	76.5
2944.821	73.5
2948.152	68.5
2951.48	69.5
2954.805	66.5
2958.128	69.5
2961.447	66.5
2964.765	61.5
2968.079	69.5
2971.39	66.5
2974.699	58.5
2978.005	63.5
2981.308	56.5
2984.609	57.5
2987.907	68.5
2991.202	65.5
2994.494	57.5
2997.784	58.5
3001.07	61.5
3004.355	64.5
3007.636	65.5
3010.915	68.5
3014.191	64.5
3017.464	70.5
3020.734	75.5
3024.002	70.5
3027.267	71.5
3030.53	68.5
3033.789	77.5
3037.046	76.5
3040.301	76.5
3043.552	78.5
3046.801	84.5
3050.048	82.5
3053.291	87.5
3056.532	92.5
3059.771	88.5
3063.006	103.5
3066.239	111.5
3069.469	111.5
3072.697	116.5
3075.922	125.5
3079.144	117.5
3082.364	125.5
3085.581	122.5
3088.795	133.5
3092.007	133.5
3095.216	139.5
3098.423	132.5
3101.627	131.5
3104.828	141.5
3108.026	147.5
3111.222	140.5
3114.416	146.5
3117.607	151.5
3120.795	157.5
3123.98	151.5
3127.163	165.5
3130.344	166.5
3133.521	174.5
3136.696	170.5
3139.869	184.5
3143.039	178.5
3146.206	190.5
3149.371	185.5
3152.533	193.5
3155.693	196.5
3158.85	198.5
3162.005	190.5
3165.157	192.5
3168.306	194.5
3171.453	193.5
3174.597	185.5
3177.739	198.5
3180.878	197.5
3184.014	190.5
3187.149	199.5
3190.28	191.5
3193.409	201.5
3196.536	198.5
3199.659	202.5
3202.781	203.5
3205.9	191.5
3209.016	194.5
3212.13	197.5
3215.241	189.5
3218.35	202.5
3221.456	201.5
3224.56	192.5
3227.661	196.5
3230.76	184.5
3233.856	182.5
3236.95	179.5
3240.041	184.5
3243.13	172.5
3246.216	168.5
3249.3	159.5
3252.382	162.5
3255.46	166.5
3258.537	165.5
3261.611	156.5
3264.682	156.5
3267.751	155.5
3270.818	143.5
3273.882	151.5
3276.943	158.5
3280.002	153.5
3283.059	152.5
3286.113	149.5
3289.165	152.5
3292.214	151.5
3295.261	153.5
3298.306	136.5
3301.348	146.5
3304.387	129.5
3307.425	138.5
3310.459	133.5
3313.492	140.5
3316.521	137.5
3319.549	140.5
3322.574	134.5
3325.597	142.5
3328.617	141.5
3331.635	138.5
3334.65	141.5
3337.663	129.5
3340.674	142.5
3343.682	135.5
3346.688	139.5
3349.691	144.5
3352.692	140.5
3355.691	140.5
3358.687	140.5
3361.681	131.5
3364.673	138.5
3367.662	141.5
3370.649	132.5
3373.633	125.5
3376.615	125.5
3379.595	124.5
3382.572	114.5
3385.547	120.5
3388.52	114.5
3391.49	104.5
3394.458	108.5
3397.424	106.5
3400.387	106.5
3403.348	104.5
3406.307	102.5
3409.263	100.5
3412.217	106.5
3415.168	96.5
3418.118	103.5
3421.065	94.5
3424.009	94.5
3426.951	86.5
3429.891	93.5
3432.829	88.5
3435.764	89.5
3438.697	84.5
3441.628	77.5
3444.557	81.5
3447.483	72.5
3450.407	64.5
3453.328	70.5
3456.247	64.5
3459.164	63.5
3462.079	53.5
3464.991	56.5
3467.902	54.5
3470.809	43.5
3473.715	41.5
3476.618	42.5
3479.519	37.5
3482.418	34.5
3485.315	35.5
3488.209	22.5
3491.101	23.5
3493.99	26.5
3496.878	23.5
3499.763	20.5
3502.646	25.5
3505.527	25.5
3508.405	19.5
3511.281	15.5
3514.155	14.5
3517.027	3.5
3519.897	16.5
3522.764	6.5
3525.629	2.5
3528.492	4.5
3531.352	-1.5
3534.211	-6.5
3537.067	-7.5
3539.921	-6.5
3542.773	-13.5
3545.622	-8.5
3548.469	-10.5
3551.315	-8.5
3554.157	-16.5
3556.998	-10.5
3559.837	-18.5
3562.673	-17.5
3565.507	-11.5
3568.339	-12.5
3571.169	-11.5
3573.996	-13.5
3576.822	-25.5
3579.645	-24.5
3582.466	-22.5
3585.285	-22.5
3588.101	-26.5
3590.916	-25.5
3593.728	-31.5
3596.538	-29.5
3599.346	-31.5
3602.152	-28.5
3604.956	-30.5
3607.757	-25.5
3610.556	-28.5
3613.354	-32.5
3616.149	-35.5
3618.942	-30.5
3621.732	-31.5
3624.521	-29.5
3627.307	-27.5
3630.092	-38.5
3632.874	-37.5
3635.654	-31.5
3638.432	-31.5
3641.208	-33.5
3643.982	-34.5
3646.753	-38.5
3649.523	-32.5
3652.29	-37.5
3655.055	-35.5
3657.818	-45.5
3660.579	-44.5
3663.338	-42.5
3666.095	-41.5
3668.849	-44.5
3671.602	-42.5
3674.352	-48.5
3677.101	-45.5
3679.847	-42.5
3682.591	-49.5
3685.333	-41.5
3688.073	-48.5
3690.811	-40.5
3693.547	-44.5
3696.281	-44.5
3699.013	-41.5
3701.742	-43.5
3704.47	-41.5
3707.195	-45.5
3709.919	-43.5
3712.64	-51.5
3715.359	-43.5
3718.076	-47.5
3720.792	-48.5
3723.505	-50.5
3726.216	-48.5
3728.925	-51.5
3731.632	-48.5
3734.336	-52.5
3737.039	-48.5
3739.74	-44.5
3742.439	-55.5
3745.136	-47.5
3747.83	-48.5
3750.523	-54.5
3753.213	-63.5
3755.902	-48.5
3758.589	-50.5
3761.273	-45.5
3763.956	-52.5
3766.636	-43.5
3769.315	-46.5
3771.991	-49.5
3774.665	-54.5
3777.338	-49.5
3780.008	-54.5
3782.677	-57.5
3785.343	-53.5
3788.007	-54.5
3790.67	-48.5
3793.33	-52.5
3795.989	-57.5
3798.645	-55.5
3801.299	-49.5
3803.952	-49.5
3806.602	-54.5
3809.251	-54.5
3811.897	-55.5
3814.542	-56.5
3817.184	-52.5
3819.825	-48.5
3822.463	-54.5
3825.1	-47.5
3827.735	-50.5
3830.367	-53.5
3832.998	-52.5
3835.627	-52.5
3838.253	-52.5
3840.878	-46.5
3843.501	-48.5
3846.122	-57.5
3848.741	-52.5
3851.358	-53.5
3853.973	-51.5
3856.586	-50.5
3859.197	-50.5
3861.806	-49.5
3864.414	-52.5
3867.019	-53.5
3869.622	-46.5
3872.224	-42.5
3874.823	-30.5
3877.421	-30.5
3880.016	-22.5
3882.61	-5.5
3885.202	-5.5
3887.792	-14.5
3890.38	-25.5
3892.966	-40.5
3895.55	-45.5
3898.132	-48.5
3900.713	-53.5
3903.291	-50.5
3905.868	-51.5
3908.442	-54.5
3911.015	-48.5
3913.586	-58.5
3916.155	-53.5
3918.722	-54.5
3921.287	-52.5
3923.85	-49.5
3926.411	-52.5
3928.971	-60.5
3931.528	-52.5
3934.084	-51.5
3936.638	-51.5
3939.19	-56.5
3941.74	-48.5
3944.288	-58.5
3946.834	-52.5
3949.378	-60.5
3951.921	-58.5
3954.462	-53.5
3957	-51.5
3959.537	-44.5
3962.072	-47.5
3964.606	-52.5
3967.137	-51.5
3969.667	-54.5
3972.194	-50.5
3974.72	-52.5
3977.244	-41.5
3979.766	-48.5
3982.286	-50.5
3984.805	-59.5
3987.321	-45.5
3989.836	-51.5
3992.349	-51.5
3994.86	-53.5
3997.369	-50.5
3999.877	-51.5
4002.382	-48.5
4004.886	-52.5
4007.388	-54.5
4009.888	-52.5
4012.386	-43.5
4014.883	-55.5
4017.377	-46.5
4019.87	-52.5
4022.361	-53.5
4024.85	-51.5
4027.338	-54.5
4029.823	-52.5
4032.307	-54.5
4034.789	-45.5
4037.269	-45.5
4039.747	-51.5
4042.224	-50.5
4044.699	-53.5
4047.172	-51.5
4049.643	-57.5
4052.112	-51.5
4054.58	-55.5
4057.046	-46.5
4059.51	-58.5
4061.972	-60.5
4064.432	-54.5
4066.891	-50.5
4069.348	-50.5
4071.803	-50.5
4074.256	-51.5
4076.708	-51.5
4079.158	-57.5
4081.606	-51.5
4084.052	-50.5
4086.497	-46.5
4088.939	-47.5
4091.38	-56.5
4093.819	-54.5
4096.257	-51.5
4098.693	-57.5
4101.127	-48.5
4103.559	-62.5
4105.989	4.5
4108.418	-2.5
4110.845	-4.5
4113.27	2.5
4115.694	1.5
4118.115	2.5
4120.535	-52.5
4122.954	-50.5
4125.37	-53.5
4127.785	-51.5
4130.198	-52.5
4132.609	-54.5
4135.019	-53.5
4137.427	-55.5
4139.833	-55.5
4142.237	-56.5
