Data from 2018-3-7_conc=6_n=6_RamanShift_03.txt Node
Date: Wed Mar 07 13:13:22 IST 2018
User: aro
Spectrometer: QEPB0276
Trigger mode: 0
Integration Time (sec): 3.000000E1
Scans to average: 1
Electric dark correction enabled: true
Nonlinearity correction enabled: false
Boxcar width: 0
XAxis mode: Raman Shifts
Number of Pixels in Spectrum: 1044
>>>>>Begin Spectral Data<<<<<
160.701	6.4
166.742	18.4
172.777	41.4
178.805	154.4
184.826	396.4
190.841	850.4
196.849	1420.4
202.85	1874.4
208.845	2042.4
214.833	2048.4
220.815	2018.4
226.789	2003.4
232.758	2016.4
238.719	2019.4
244.674	2004.4
250.623	1969.4
256.565	1949.4
262.5	1936.4
268.429	1934.4
274.351	1910.4
280.267	1876.4
286.176	1871.4
292.079	1867.4
297.975	1874.4
303.865	1863.4
309.748	1846.4
315.625	1833.4
321.495	1854.4
327.359	1849.4
333.217	1852.4
339.068	1875.4
344.912	1871.4
350.751	1858.4
356.583	1833.4
362.408	1870.4
368.227	1854.4
374.04	1875.4
379.847	1868.4
385.647	1864.4
391.44	1866.4
397.228	1898.4
403.009	1899.4
408.784	1906.4
414.553	1928.4
420.315	1913.4
426.071	1910.4
431.821	1921.4
437.565	1905.4
443.302	1920.4
449.033	1914.4
454.758	1902.4
460.477	1887.4
466.189	1880.4
471.896	1860.4
477.596	1829.4
483.29	1849.4
488.978	1836.4
494.66	1846.4
500.335	1819.4
506.005	1755.4
511.668	1713.4
517.325	1635.4
522.977	1608.4
528.622	1573.4
534.261	1571.4
539.894	1521.4
545.521	1525.4
551.141	1508.4
556.756	1498.4
562.365	1488.4
567.968	1477.4
573.565	1465.4
579.155	1457.4
584.74	1456.4
590.319	1457.4
595.892	1455.4
601.459	1450.4
607.02	1423.4
612.575	1438.4
618.124	1407.4
623.667	1389.4
629.204	1365.4
634.735	1376.4
640.261	1359.4
645.781	1368.4
651.294	1371.4
656.802	1350.4
662.304	1353.4
667.8	1352.4
673.29	1342.4
678.775	1355.4
684.254	1336.4
689.726	1335.4
695.193	1336.4
700.655	1324.4
706.11	1307.4
711.56	1310.4
717.004	1293.4
722.442	1296.4
727.874	1273.4
733.301	1287.4
738.722	1285.4
744.137	1264.4
749.547	1259.4
754.951	1261.4
760.349	1275.4
765.741	1275.4
771.128	1274.4
776.509	1266.4
781.885	1299.4
787.254	1294.4
792.618	1305.4
797.977	1278.4
803.33	1285.4
808.677	1280.4
814.019	1265.4
819.355	1244.4
824.686	1233.4
830.011	1238.4
835.33	1228.4
840.644	1237.4
845.952	1240.4
851.255	1233.4
856.552	1225.4
861.844	1214.4
867.13	1207.4
872.41	1200.4
877.686	1193.4
882.955	1177.4
888.219	1184.4
893.478	1161.4
898.731	1134.4
903.979	1121.4
909.221	1124.4
914.458	1108.4
919.69	1110.4
924.916	1117.4
930.136	1127.4
935.351	1116.4
940.561	1129.4
945.766	1132.4
950.965	1119.4
956.158	1116.4
961.347	1101.4
966.529	1080.4
971.707	1062.4
976.879	1058.4
982.046	1057.4
987.208	1051.4
992.364	1040.4
997.515	1048.4
1002.66	1053.4
1007.801	1069.4
1012.936	1069.4
1018.066	1077.4
1023.19	1078.4
1028.309	1058.4
1033.423	1075.4
1038.532	1060.4
1043.636	1047.4
1048.734	1050.4
1053.827	1033.4
1058.915	1013.4
1063.998	1011.4
1069.075	995.4
1074.147	1001.4
1079.214	1014.4
1084.276	1024.4
1089.333	1036.4
1094.385	1027.4
1099.431	1020.4
1104.472	1023.4
1109.509	1004.4
1114.54	1006.4
1119.565	989.4
1124.586	974.4
1129.602	967.4
1134.613	967.4
1139.618	939.4
1144.619	955.4
1149.614	951.4
1154.604	939.4
1159.589	954.4
1164.57	958.4
1169.545	951.4
1174.515	961.4
1179.48	950.4
1184.44	954.4
1189.395	940.4
1194.345	937.4
1199.29	921.4
1204.23	929.4
1209.165	927.4
1214.095	942.4
1219.021	946.4
1223.941	953.4
1228.856	939.4
1233.766	938.4
1238.672	963.4
1243.572	933.4
1248.467	950.4
1253.358	926.4
1258.244	919.4
1263.124	922.4
1268	894.4
1272.871	863.4
1277.737	865.4
1282.599	871.4
1287.455	860.4
1292.306	864.4
1297.153	857.4
1301.995	885.4
1306.832	885.4
1311.664	879.4
1316.491	889.4
1321.314	886.4
1326.132	878.4
1330.945	863.4
1335.753	852.4
1340.556	828.4
1345.354	816.4
1350.148	809.4
1354.937	792.4
1359.722	771.4
1364.501	751.4
1369.276	730.4
1374.046	718.4
1378.811	722.4
1383.572	717.4
1388.327	711.4
1393.079	707.4
1397.825	718.4
1402.567	720.4
1407.304	725.4
1412.036	726.4
1416.764	728.4
1421.487	715.4
1426.205	734.4
1430.919	740.4
1435.628	744.4
1440.333	737.4
1445.032	748.4
1449.727	768.4
1454.418	761.4
1459.104	748.4
1463.785	750.4
1468.462	732.4
1473.134	716.4
1477.802	688.4
1482.465	677.4
1487.123	655.4
1491.777	634.4
1496.426	635.4
1501.071	647.4
1505.711	622.4
1510.347	619.4
1514.978	612.4
1519.604	614.4
1524.226	601.4
1528.844	606.4
1533.457	600.4
1538.065	595.4
1542.669	596.4
1547.269	592.4
1551.864	597.4
1556.454	619.4
1561.041	620.4
1565.622	631.4
1570.199	633.4
1574.772	624.4
1579.34	645.4
1583.904	650.4
1588.464	679.4
1593.019	662.4
1597.569	661.4
1602.115	665.4
1606.657	666.4
1611.195	653.4
1615.728	654.4
1620.256	653.4
1624.78	644.4
1629.3	656.4
1633.816	656.4
1638.327	656.4
1642.834	646.4
1647.336	650.4
1651.834	652.4
1656.328	666.4
1660.817	648.4
1665.302	638.4
1669.783	630.4
1674.259	620.4
1678.732	605.4
1683.199	581.4
1687.663	564.4
1692.122	539.4
1696.577	502.4
1701.028	471.4
1705.474	441.4
1709.917	450.4
1714.355	431.4
1718.788	435.4
1723.218	427.4
1727.643	433.4
1732.064	432.4
1736.481	443.4
1740.893	412.4
1745.301	409.4
1749.705	418.4
1754.105	394.4
1758.501	386.4
1762.893	392.4
1767.28	373.4
1771.663	373.4
1776.042	367.4
1780.417	358.4
1784.787	358.4
1789.154	344.4
1793.516	328.4
1797.874	317.4
1802.228	326.4
1806.578	317.4
1810.924	303.4
1815.266	308.4
1819.603	312.4
1823.937	315.4
1828.266	319.4
1832.591	318.4
1836.913	315.4
1841.23	321.4
1845.543	338.4
1849.852	336.4
1854.156	341.4
1858.457	338.4
1862.754	345.4
1867.047	326.4
1871.335	336.4
1875.62	329.4
1879.9	328.4
1884.177	329.4
1888.449	325.4
1892.718	318.4
1896.982	305.4
1901.243	298.4
1905.499	298.4
1909.752	279.4
1914	287.4
1918.245	272.4
1922.485	265.4
1926.722	260.4
1930.954	256.4
1935.183	263.4
1939.408	263.4
1943.628	254.4
1947.845	253.4
1952.058	256.4
1956.267	241.4
1960.472	246.4
1964.673	244.4
1968.87	239.4
1973.063	242.4
1977.252	240.4
1981.438	242.4
1985.619	241.4
1989.797	245.4
1993.971	252.4
1998.14	246.4
2002.306	247.4
2006.469	258.4
2010.627	251.4
2014.781	261.4
2018.932	257.4
2023.078	250.4
2027.221	260.4
2031.36	253.4
2035.495	241.4
2039.627	237.4
2043.754	239.4
2047.878	236.4
2051.998	254.4
2056.114	232.4
2060.226	230.4
2064.334	233.4
2068.439	225.4
2072.54	225.4
2076.637	229.4
2080.73	217.4
2084.82	219.4
2088.906	220.4
2092.988	213.4
2097.066	205.4
2101.14	204.4
2105.211	207.4
2109.278	201.4
2113.342	194.4
2117.401	206.4
2121.457	190.4
2125.509	193.4
2129.558	193.4
2133.602	200.4
2137.643	192.4
2141.681	193.4
2145.714	206.4
2149.744	196.4
2153.77	200.4
2157.793	208.4
2161.812	204.4
2165.827	198.4
2169.838	187.4
2173.846	190.4
2177.851	190.4
2181.851	193.4
2185.848	186.4
2189.841	181.4
2193.831	179.4
2197.817	180.4
2201.799	183.4
2205.778	186.4
2209.753	187.4
2213.725	188.4
2217.693	188.4
2221.657	177.4
2225.618	181.4
2229.575	173.4
2233.529	171.4
2237.479	184.4
2241.425	174.4
2245.368	170.4
2249.307	173.4
2253.243	163.4
2257.175	160.4
2261.104	160.4
2265.029	158.4
2268.95	160.4
2272.868	160.4
2276.783	154.4
2280.694	161.4
2284.601	148.4
2288.505	156.4
2292.405	158.4
2296.302	153.4
2300.195	152.4
2304.085	147.4
2307.971	146.4
2311.854	141.4
2315.734	133.4
2319.609	140.4
2323.482	134.4
2327.351	141.4
2331.216	143.4
2335.078	158.4
2338.937	144.4
2342.792	135.4
2346.643	143.4
2350.492	133.4
2354.336	144.4
2358.178	130.4
2362.015	145.4
2365.85	137.4
2369.681	144.4
2373.508	148.4
2377.333	146.4
2381.153	142.4
2384.971	145.4
2388.785	143.4
2392.595	143.4
2396.402	143.4
2400.206	140.4
2404.007	140.4
2407.804	141.4
2411.597	138.4
2415.388	145.4
2419.174	140.4
2422.958	132.4
2426.738	135.4
2430.515	136.4
2434.289	141.4
2438.059	136.4
2441.825	133.4
2445.589	134.4
2449.349	128.4
2453.106	132.4
2456.859	120.4
2460.61	127.4
2464.356	125.4
2468.1	124.4
2471.84	116.4
2475.577	121.4
2479.311	120.4
2483.041	121.4
2486.768	109.4
2490.492	114.4
2494.213	114.4
2497.93	112.4
2501.644	116.4
2505.355	106.4
2509.062	105.4
2512.766	112.4
2516.467	104.4
2520.165	111.4
2523.859	108.4
2527.551	105.4
2531.239	105.4
2534.923	101.4
2538.605	100.4
2542.283	89.4
2545.958	98.4
2549.63	91.4
2553.299	90.4
2556.964	79.4
2560.626	96.4
2564.285	86.4
2567.941	87.4
2571.594	84.4
2575.243	83.4
2578.89	84.4
2582.533	76.4
2586.173	75.4
2589.809	79.4
2593.443	82.4
2597.073	77.4
2600.701	89.4
2604.325	67.4
2607.946	66.4
2611.564	78.4
2615.178	70.4
2618.79	78.4
2622.398	79.4
2626.004	77.4
2629.606	72.4
2633.205	69.4
2636.801	72.4
2640.394	76.4
2643.983	67.4
2647.57	69.4
2651.153	64.4
2654.734	65.4
2658.311	68.4
2661.885	72.4
2665.456	71.4
2669.025	69.4
2672.589	60.4
2676.151	60.4
2679.71	61.4
2683.266	60.4
2686.819	62.4
2690.368	57.4
2693.915	55.4
2697.458	60.4
2700.999	61.4
2704.536	58.4
2708.071	56.4
2711.602	53.4
2715.13	46.4
2718.656	56.4
2722.178	44.4
2725.697	46.4
2729.214	45.4
2732.727	52.4
2736.237	48.4
2739.744	44.4
2743.249	42.4
2746.75	35.4
2750.248	37.4
2753.743	32.4
2757.236	37.4
2760.725	38.4
2764.211	37.4
2767.695	28.4
2771.175	27.4
2774.652	23.4
2778.127	32.4
2781.598	28.4
2785.067	25.4
2788.532	32.4
2791.995	35.4
2795.455	27.4
2798.911	33.4
2802.365	37.4
2805.816	38.4
2809.264	35.4
2812.709	37.4
2816.151	38.4
2819.59	51.4
2823.026	37.4
2826.46	34.4
2829.89	35.4
2833.318	31.4
2836.742	39.4
2840.164	27.4
2843.583	34.4
2846.999	35.4
2850.412	29.4
2853.822	35.4
2857.229	35.4
2860.634	36.4
2864.035	37.4
2867.434	39.4
2870.83	43.4
2874.223	44.4
2877.613	47.4
2881	48.4
2884.385	45.4
2887.766	48.4
2891.145	42.4
2894.521	47.4
2897.894	48.4
2901.264	46.4
2904.631	46.4
2907.996	50.4
2911.358	52.4
2914.717	46.4
2918.073	45.4
2921.426	45.4
2924.777	55.4
2928.124	56.4
2931.469	53.4
2934.811	62.4
2938.15	64.4
2941.487	78.4
2944.821	66.4
2948.152	70.4
2951.48	55.4
2954.805	64.4
2958.128	66.4
2961.447	66.4
2964.765	60.4
2968.079	62.4
2971.39	56.4
2974.699	59.4
2978.005	64.4
2981.308	56.4
2984.609	50.4
2987.907	54.4
2991.202	53.4
2994.494	59.4
2997.784	50.4
3001.07	51.4
3004.355	59.4
3007.636	60.4
3010.915	59.4
3014.191	58.4
3017.464	71.4
3020.734	61.4
3024.002	72.4
3027.267	71.4
3030.53	73.4
3033.789	68.4
3037.046	70.4
3040.301	71.4
3043.552	78.4
3046.801	78.4
3050.048	84.4
3053.291	83.4
3056.532	84.4
3059.771	92.4
3063.006	98.4
3066.239	105.4
3069.469	105.4
3072.697	103.4
3075.922	114.4
3079.144	105.4
3082.364	110.4
3085.581	122.4
3088.795	117.4
3092.007	131.4
3095.216	125.4
3098.423	126.4
3101.627	126.4
3104.828	141.4
3108.026	141.4
3111.222	138.4
3114.416	147.4
3117.607	151.4
3120.795	151.4
3123.98	158.4
3127.163	167.4
3130.344	171.4
3133.521	170.4
3136.696	173.4
3139.869	178.4
3143.039	175.4
3146.206	178.4
3149.371	181.4
3152.533	187.4
3155.693	180.4
3158.85	188.4
3162.005	183.4
3165.157	192.4
3168.306	187.4
3171.453	181.4
3174.597	185.4
3177.739	191.4
3180.878	198.4
3184.014	195.4
3187.149	191.4
3190.28	193.4
3193.409	188.4
3196.536	194.4
3199.659	200.4
3202.781	196.4
3205.9	194.4
3209.016	185.4
3212.13	191.4
3215.241	186.4
3218.35	186.4
3221.456	185.4
3224.56	179.4
3227.661	179.4
3230.76	176.4
3233.856	172.4
3236.95	167.4
3240.041	171.4
3243.13	165.4
3246.216	164.4
3249.3	154.4
3252.382	159.4
3255.46	155.4
3258.537	156.4
3261.611	152.4
3264.682	149.4
3267.751	150.4
3270.818	138.4
3273.882	138.4
3276.943	137.4
3280.002	142.4
3283.059	136.4
3286.113	131.4
3289.165	133.4
3292.214	135.4
3295.261	132.4
3298.306	136.4
3301.348	130.4
3304.387	132.4
3307.425	135.4
3310.459	127.4
3313.492	128.4
3316.521	141.4
3319.549	143.4
3322.574	130.4
3325.597	133.4
3328.617	127.4
3331.635	138.4
3334.65	136.4
3337.663	123.4
3340.674	131.4
3343.682	126.4
3346.688	127.4
3349.691	131.4
3352.692	129.4
3355.691	135.4
3358.687	127.4
3361.681	130.4
3364.673	119.4
3367.662	127.4
3370.649	121.4
3373.633	115.4
3376.615	117.4
3379.595	122.4
3382.572	104.4
3385.547	119.4
3388.52	109.4
3391.49	111.4
3394.458	95.4
3397.424	106.4
3400.387	102.4
3403.348	92.4
3406.307	94.4
3409.263	97.4
3412.217	93.4
3415.168	103.4
3418.118	89.4
3421.065	89.4
3424.009	92.4
3426.951	82.4
3429.891	90.4
3432.829	85.4
3435.764	88.4
3438.697	83.4
3441.628	69.4
3444.557	75.4
3447.483	74.4
3450.407	61.4
3453.328	68.4
3456.247	58.4
3459.164	53.4
3462.079	49.4
3464.991	52.4
3467.902	44.4
3470.809	41.4
3473.715	42.4
3476.618	40.4
3479.519	30.4
3482.418	35.4
3485.315	37.4
3488.209	21.4
3491.101	20.4
3493.99	22.4
3496.878	20.4
3499.763	16.4
3502.646	21.4
3505.527	17.4
3508.405	17.4
3511.281	20.4
3514.155	6.4
3517.027	11.4
3519.897	6.4
3522.764	3.4
3525.629	2.4
3528.492	-4.6
3531.352	-11.6
3534.211	-10.6
3537.067	-11.6
3539.921	-5.6
3542.773	-16.6
3545.622	-3.6
3548.469	-13.6
3551.315	-10.6
3554.157	-12.6
3556.998	-16.6
3559.837	-15.6
3562.673	-15.6
3565.507	-14.6
3568.339	-17.6
3571.169	-14.6
3573.996	-17.6
3576.822	-25.6
3579.645	-28.6
3582.466	-24.6
3585.285	-26.6
3588.101	-27.6
3590.916	-27.6
3593.728	-33.6
3596.538	-28.6
3599.346	-37.6
3602.152	-29.6
3604.956	-30.6
3607.757	-30.6
3610.556	-34.6
3613.354	-36.6
3616.149	-32.6
3618.942	-31.6
3621.732	-34.6
3624.521	-33.6
3627.307	-34.6
3630.092	-40.6
3632.874	-42.6
3635.654	-38.6
3638.432	-38.6
3641.208	-33.6
3643.982	-32.6
3646.753	-45.6
3649.523	-43.6
3652.29	-47.6
3655.055	-39.6
3657.818	-42.6
3660.579	-45.6
3663.338	-38.6
3666.095	-49.6
3668.849	-46.6
3671.602	-44.6
3674.352	-45.6
3677.101	-43.6
3679.847	-42.6
3682.591	-49.6
3685.333	-37.6
3688.073	-51.6
3690.811	-42.6
3693.547	-44.6
3696.281	-44.6
3699.013	-49.6
3701.742	-51.6
3704.47	-47.6
3707.195	-48.6
3709.919	-52.6
3712.64	-50.6
3715.359	-49.6
3718.076	-49.6
3720.792	-47.6
3723.505	-47.6
3726.216	-45.6
3728.925	-50.6
3731.632	-49.6
3734.336	-48.6
3737.039	-42.6
3739.74	-51.6
3742.439	-52.6
3745.136	-46.6
3747.83	-56.6
3750.523	-59.6
3753.213	-53.6
3755.902	-52.6
3758.589	-52.6
3761.273	-52.6
3763.956	-55.6
3766.636	-51.6
3769.315	-48.6
3771.991	-49.6
3774.665	-59.6
3777.338	-54.6
3780.008	-52.6
3782.677	-53.6
3785.343	-48.6
3788.007	-54.6
3790.67	-52.6
3793.33	-48.6
3795.989	-56.6
3798.645	-54.6
3801.299	-50.6
3803.952	-55.6
3806.602	-55.6
3809.251	-55.6
3811.897	-53.6
3814.542	-57.6
3817.184	-52.6
3819.825	-45.6
3822.463	-55.6
3825.1	-49.6
3827.735	-61.6
3830.367	-59.6
3832.998	-56.6
3835.627	-50.6
3838.253	-51.6
3840.878	-46.6
3843.501	-48.6
3846.122	-59.6
3848.741	-54.6
3851.358	-54.6
3853.973	-53.6
3856.586	-50.6
3859.197	-47.6
3861.806	-51.6
3864.414	-58.6
3867.019	-51.6
3869.622	-45.6
3872.224	-41.6
3874.823	-33.6
3877.421	-29.6
3880.016	-25.6
3882.61	0.4
3885.202	1.4
3887.792	-6.6
3890.38	-21.6
3892.966	-35.6
3895.55	-48.6
3898.132	-50.6
3900.713	-51.6
3903.291	-54.6
3905.868	-52.6
3908.442	-55.6
3911.015	-52.6
3913.586	-59.6
3916.155	-54.6
3918.722	-53.6
3921.287	-57.6
3923.85	-46.6
3926.411	-55.6
3928.971	-63.6
3931.528	-53.6
3934.084	-49.6
3936.638	-48.6
3939.19	-58.6
3941.74	-51.6
3944.288	-55.6
3946.834	-55.6
3949.378	-59.6
3951.921	-58.6
3954.462	-58.6
3957	-52.6
3959.537	-49.6
3962.072	-54.6
3964.606	-52.6
3967.137	-52.6
3969.667	-58.6
3972.194	-50.6
3974.72	-49.6
3977.244	-51.6
3979.766	-56.6
3982.286	-56.6
3984.805	-61.6
3987.321	-53.6
3989.836	-49.6
3992.349	-53.6
3994.86	-54.6
3997.369	-57.6
3999.877	-55.6
4002.382	-55.6
4004.886	-52.6
4007.388	-54.6
4009.888	-54.6
4012.386	-55.6
4014.883	-55.6
4017.377	-50.6
4019.87	-53.6
4022.361	-59.6
4024.85	-52.6
4027.338	-56.6
4029.823	-56.6
4032.307	-56.6
4034.789	-55.6
4037.269	-49.6
4039.747	-54.6
4042.224	-52.6
4044.699	-54.6
4047.172	-58.6
4049.643	-56.6
4052.112	-58.6
4054.58	-51.6
4057.046	-53.6
4059.51	-55.6
4061.972	-54.6
4064.432	-53.6
4066.891	-48.6
4069.348	-51.6
4071.803	-47.6
4074.256	-52.6
4076.708	-55.6
4079.158	-57.6
4081.606	-56.6
4084.052	-56.6
4086.497	-52.6
4088.939	-51.6
4091.38	-60.6
4093.819	-60.6
4096.257	-55.6
4098.693	-55.6
4101.127	-51.6
4103.559	-60.6
4105.989	6.4
4108.418	4.4
4110.845	-5.6
4113.27	2.4
4115.694	9.4
4118.115	12.4
4120.535	-51.6
4122.954	-49.6
4125.37	-54.6
4127.785	-47.6
4130.198	-51.6
4132.609	-54.6
4135.019	-53.6
4137.427	-55.6
4139.833	-53.6
4142.237	-57.6
