Data from 2018-3-7_conc=4_n=9_RamanShift_02.txt Node
Date: Wed Mar 07 12:15:52 IST 2018
User: aro
Spectrometer: QEPB0276
Trigger mode: 0
Integration Time (sec): 3.000000E1
Scans to average: 1
Electric dark correction enabled: true
Nonlinearity correction enabled: false
Boxcar width: 0
XAxis mode: Raman Shifts
Number of Pixels in Spectrum: 1044
>>>>>Begin Spectral Data<<<<<
160.701	9.5
166.742	18.5
172.777	58.5
178.805	163.5
184.826	412.5
190.841	862.5
196.849	1450.5
202.85	1893.5
208.845	2062.5
214.833	2090.5
220.815	2045.5
226.789	2023.5
232.758	2044.5
238.719	2044.5
244.674	2034.5
250.623	2002.5
256.565	1991.5
262.5	1952.5
268.429	1929.5
274.351	1919.5
280.267	1912.5
286.176	1919.5
292.079	1896.5
297.975	1882.5
303.865	1891.5
309.748	1889.5
315.625	1891.5
321.495	1864.5
327.359	1885.5
333.217	1880.5
339.068	1890.5
344.912	1894.5
350.751	1892.5
356.583	1873.5
362.408	1897.5
368.227	1890.5
374.04	1909.5
379.847	1930.5
385.647	1928.5
391.44	1930.5
397.228	1932.5
403.009	1938.5
408.784	1942.5
414.553	1971.5
420.315	1976.5
426.071	1968.5
431.821	1963.5
437.565	1969.5
443.302	1970.5
449.033	1972.5
454.758	1936.5
460.477	1935.5
466.189	1904.5
471.896	1906.5
477.596	1914.5
483.29	1909.5
488.978	1896.5
494.66	1878.5
500.335	1857.5
506.005	1803.5
511.668	1736.5
517.325	1673.5
522.977	1615.5
528.622	1592.5
534.261	1557.5
539.894	1566.5
545.521	1529.5
551.141	1517.5
556.756	1512.5
562.365	1511.5
567.968	1479.5
573.565	1484.5
579.155	1474.5
584.74	1473.5
590.319	1466.5
595.892	1474.5
601.459	1445.5
607.02	1439.5
612.575	1445.5
618.124	1420.5
623.667	1411.5
629.204	1409.5
634.735	1382.5
640.261	1370.5
645.781	1372.5
651.294	1374.5
656.802	1358.5
662.304	1364.5
667.8	1359.5
673.29	1371.5
678.775	1343.5
684.254	1335.5
689.726	1338.5
695.193	1346.5
700.655	1337.5
706.11	1329.5
711.56	1315.5
717.004	1297.5
722.442	1277.5
727.874	1288.5
733.301	1289.5
738.722	1279.5
744.137	1287.5
749.547	1275.5
754.951	1272.5
760.349	1272.5
765.741	1274.5
771.128	1283.5
776.509	1294.5
781.885	1294.5
787.254	1301.5
792.618	1303.5
797.977	1297.5
803.33	1279.5
808.677	1277.5
814.019	1274.5
819.355	1260.5
824.686	1244.5
830.011	1233.5
835.33	1241.5
840.644	1232.5
845.952	1231.5
851.255	1239.5
856.552	1239.5
861.844	1215.5
867.13	1210.5
872.41	1192.5
877.686	1211.5
882.955	1192.5
888.219	1176.5
893.478	1167.5
898.731	1153.5
903.979	1124.5
909.221	1124.5
914.458	1114.5
919.69	1129.5
924.916	1114.5
930.136	1124.5
935.351	1116.5
940.561	1124.5
945.766	1128.5
950.965	1123.5
956.158	1104.5
961.347	1095.5
966.529	1095.5
971.707	1067.5
976.879	1059.5
982.046	1041.5
987.208	1042.5
992.364	1041.5
997.515	1028.5
1002.66	1042.5
1007.801	1066.5
1012.936	1068.5
1018.066	1067.5
1023.19	1063.5
1028.309	1061.5
1033.423	1048.5
1038.532	1055.5
1043.636	1054.5
1048.734	1035.5
1053.827	1029.5
1058.915	1017.5
1063.998	1013.5
1069.075	1006.5
1074.147	1005.5
1079.214	1005.5
1084.276	1012.5
1089.333	1023.5
1094.385	1015.5
1099.431	1012.5
1104.472	1019.5
1109.509	1009.5
1114.54	989.5
1119.565	972.5
1124.586	962.5
1129.602	955.5
1134.613	949.5
1139.618	949.5
1144.619	932.5
1149.614	945.5
1154.604	944.5
1159.589	949.5
1164.57	946.5
1169.545	946.5
1174.515	954.5
1179.48	945.5
1184.44	940.5
1189.395	934.5
1194.345	929.5
1199.29	910.5
1204.23	931.5
1209.165	905.5
1214.095	918.5
1219.021	927.5
1223.941	941.5
1228.856	940.5
1233.766	938.5
1238.672	949.5
1243.572	946.5
1248.467	941.5
1253.358	912.5
1258.244	910.5
1263.124	883.5
1268	878.5
1272.871	860.5
1277.737	870.5
1282.599	857.5
1287.455	856.5
1292.306	850.5
1297.153	865.5
1301.995	865.5
1306.832	873.5
1311.664	874.5
1316.491	898.5
1321.314	872.5
1326.132	866.5
1330.945	844.5
1335.753	835.5
1340.556	812.5
1345.354	811.5
1350.148	787.5
1354.937	782.5
1359.722	753.5
1364.501	744.5
1369.276	724.5
1374.046	713.5
1378.811	711.5
1383.572	699.5
1388.327	694.5
1393.079	697.5
1397.825	706.5
1402.567	706.5
1407.304	723.5
1412.036	722.5
1416.764	704.5
1421.487	715.5
1426.205	725.5
1430.919	715.5
1435.628	725.5
1440.333	738.5
1445.032	725.5
1449.727	750.5
1454.418	741.5
1459.104	732.5
1463.785	724.5
1468.462	709.5
1473.134	692.5
1477.802	679.5
1482.465	666.5
1487.123	651.5
1491.777	627.5
1496.426	627.5
1501.071	614.5
1505.711	614.5
1510.347	596.5
1514.978	597.5
1519.604	599.5
1524.226	598.5
1528.844	584.5
1533.457	589.5
1538.065	584.5
1542.669	581.5
1547.269	584.5
1551.864	584.5
1556.454	602.5
1561.041	615.5
1565.622	607.5
1570.199	612.5
1574.772	622.5
1579.34	624.5
1583.904	639.5
1588.464	658.5
1593.019	648.5
1597.569	638.5
1602.115	640.5
1606.657	639.5
1611.195	641.5
1615.728	638.5
1620.256	627.5
1624.78	638.5
1629.3	635.5
1633.816	648.5
1638.327	650.5
1642.834	641.5
1647.336	625.5
1651.834	649.5
1656.328	648.5
1660.817	636.5
1665.302	626.5
1669.783	614.5
1674.259	593.5
1678.732	589.5
1683.199	559.5
1687.663	537.5
1692.122	519.5
1696.577	491.5
1701.028	474.5
1705.474	444.5
1709.917	429.5
1714.355	423.5
1718.788	425.5
1723.218	420.5
1727.643	418.5
1732.064	423.5
1736.481	430.5
1740.893	401.5
1745.301	408.5
1749.705	396.5
1754.105	382.5
1758.501	375.5
1762.893	373.5
1767.28	365.5
1771.663	371.5
1776.042	350.5
1780.417	342.5
1784.787	345.5
1789.154	334.5
1793.516	327.5
1797.874	313.5
1802.228	323.5
1806.578	307.5
1810.924	296.5
1815.266	291.5
1819.603	303.5
1823.937	313.5
1828.266	309.5
1832.591	322.5
1836.913	309.5
1841.23	320.5
1845.543	315.5
1849.852	322.5
1854.156	328.5
1858.457	325.5
1862.754	322.5
1867.047	330.5
1871.335	320.5
1875.62	310.5
1879.9	320.5
1884.177	306.5
1888.449	309.5
1892.718	304.5
1896.982	297.5
1901.243	284.5
1905.499	295.5
1909.752	274.5
1914	270.5
1918.245	277.5
1922.485	261.5
1926.722	258.5
1930.954	253.5
1935.183	258.5
1939.408	255.5
1943.628	245.5
1947.845	247.5
1952.058	241.5
1956.267	234.5
1960.472	241.5
1964.673	232.5
1968.87	230.5
1973.063	240.5
1977.252	237.5
1981.438	242.5
1985.619	234.5
1989.797	234.5
1993.971	244.5
1998.14	248.5
2002.306	249.5
2006.469	254.5
2010.627	239.5
2014.781	249.5
2018.932	252.5
2023.078	253.5
2027.221	254.5
2031.36	245.5
2035.495	233.5
2039.627	222.5
2043.754	227.5
2047.878	219.5
2051.998	220.5
2056.114	213.5
2060.226	213.5
2064.334	220.5
2068.439	212.5
2072.54	219.5
2076.637	224.5
2080.73	213.5
2084.82	211.5
2088.906	209.5
2092.988	206.5
2097.066	204.5
2101.14	199.5
2105.211	199.5
2109.278	187.5
2113.342	180.5
2117.401	186.5
2121.457	189.5
2125.509	191.5
2129.558	181.5
2133.602	183.5
2137.643	189.5
2141.681	183.5
2145.714	189.5
2149.744	196.5
2153.77	192.5
2157.793	190.5
2161.812	193.5
2165.827	188.5
2169.838	189.5
2173.846	182.5
2177.851	171.5
2181.851	180.5
2185.848	178.5
2189.841	178.5
2193.831	167.5
2197.817	174.5
2201.799	175.5
2205.778	168.5
2209.753	172.5
2213.725	167.5
2217.693	173.5
2221.657	165.5
2225.618	172.5
2229.575	168.5
2233.529	163.5
2237.479	160.5
2241.425	160.5
2245.368	163.5
2249.307	156.5
2253.243	147.5
2257.175	153.5
2261.104	145.5
2265.029	149.5
2268.95	147.5
2272.868	142.5
2276.783	139.5
2280.694	135.5
2284.601	134.5
2288.505	138.5
2292.405	144.5
2296.302	143.5
2300.195	130.5
2304.085	129.5
2307.971	134.5
2311.854	128.5
2315.734	123.5
2319.609	130.5
2323.482	120.5
2327.351	125.5
2331.216	134.5
2335.078	159.5
2338.937	138.5
2342.792	127.5
2346.643	123.5
2350.492	126.5
2354.336	129.5
2358.178	121.5
2362.015	129.5
2365.85	128.5
2369.681	134.5
2373.508	136.5
2377.333	135.5
2381.153	126.5
2384.971	121.5
2388.785	125.5
2392.595	132.5
2396.402	128.5
2400.206	133.5
2404.007	122.5
2407.804	121.5
2411.597	113.5
2415.388	119.5
2419.174	121.5
2422.958	121.5
2426.738	123.5
2430.515	122.5
2434.289	123.5
2438.059	120.5
2441.825	114.5
2445.589	107.5
2449.349	113.5
2453.106	112.5
2456.859	109.5
2460.61	110.5
2464.356	105.5
2468.1	99.5
2471.84	96.5
2475.577	102.5
2479.311	102.5
2483.041	97.5
2486.768	99.5
2490.492	107.5
2494.213	100.5
2497.93	98.5
2501.644	109.5
2505.355	95.5
2509.062	90.5
2512.766	93.5
2516.467	84.5
2520.165	95.5
2523.859	97.5
2527.551	86.5
2531.239	82.5
2534.923	79.5
2538.605	74.5
2542.283	77.5
2545.958	78.5
2549.63	78.5
2553.299	78.5
2556.964	70.5
2560.626	77.5
2564.285	75.5
2567.941	74.5
2571.594	73.5
2575.243	72.5
2578.89	70.5
2582.533	64.5
2586.173	72.5
2589.809	71.5
2593.443	69.5
2597.073	64.5
2600.701	67.5
2604.325	60.5
2607.946	51.5
2611.564	59.5
2615.178	64.5
2618.79	62.5
2622.398	67.5
2626.004	58.5
2629.606	53.5
2633.205	62.5
2636.801	60.5
2640.394	62.5
2643.983	65.5
2647.57	56.5
2651.153	46.5
2654.734	58.5
2658.311	59.5
2661.885	60.5
2665.456	54.5
2669.025	54.5
2672.589	45.5
2676.151	54.5
2679.71	42.5
2683.266	46.5
2686.819	50.5
2690.368	53.5
2693.915	44.5
2697.458	42.5
2700.999	49.5
2704.536	48.5
2708.071	49.5
2711.602	39.5
2715.13	37.5
2718.656	42.5
2722.178	34.5
2725.697	41.5
2729.214	34.5
2732.727	37.5
2736.237	38.5
2739.744	30.5
2743.249	36.5
2746.75	29.5
2750.248	26.5
2753.743	30.5
2757.236	26.5
2760.725	30.5
2764.211	23.5
2767.695	23.5
2771.175	22.5
2774.652	20.5
2778.127	25.5
2781.598	20.5
2785.067	19.5
2788.532	24.5
2791.995	27.5
2795.455	19.5
2798.911	20.5
2802.365	28.5
2805.816	20.5
2809.264	26.5
2812.709	19.5
2816.151	25.5
2819.59	33.5
2823.026	34.5
2826.46	26.5
2829.89	26.5
2833.318	24.5
2836.742	33.5
2840.164	19.5
2843.583	27.5
2846.999	33.5
2850.412	32.5
2853.822	30.5
2857.229	31.5
2860.634	23.5
2864.035	30.5
2867.434	30.5
2870.83	32.5
2874.223	31.5
2877.613	32.5
2881	32.5
2884.385	41.5
2887.766	40.5
2891.145	33.5
2894.521	38.5
2897.894	31.5
2901.264	40.5
2904.631	35.5
2907.996	44.5
2911.358	45.5
2914.717	44.5
2918.073	40.5
2921.426	43.5
2924.777	47.5
2928.124	44.5
2931.469	51.5
2934.811	60.5
2938.15	57.5
2941.487	57.5
2944.821	59.5
2948.152	57.5
2951.48	49.5
2954.805	58.5
2958.128	54.5
2961.447	52.5
2964.765	47.5
2968.079	42.5
2971.39	50.5
2974.699	49.5
2978.005	59.5
2981.308	50.5
2984.609	55.5
2987.907	52.5
2991.202	55.5
2994.494	49.5
2997.784	46.5
3001.07	55.5
3004.355	56.5
3007.636	54.5
3010.915	52.5
3014.191	51.5
3017.464	55.5
3020.734	54.5
3024.002	55.5
3027.267	59.5
3030.53	62.5
3033.789	63.5
3037.046	63.5
3040.301	58.5
3043.552	75.5
3046.801	82.5
3050.048	78.5
3053.291	76.5
3056.532	83.5
3059.771	85.5
3063.006	86.5
3066.239	91.5
3069.469	97.5
3072.697	103.5
3075.922	106.5
3079.144	100.5
3082.364	102.5
3085.581	114.5
3088.795	119.5
3092.007	119.5
3095.216	130.5
3098.423	117.5
3101.627	120.5
3104.828	131.5
3108.026	138.5
3111.222	132.5
3114.416	137.5
3117.607	142.5
3120.795	135.5
3123.98	139.5
3127.163	152.5
3130.344	154.5
3133.521	153.5
3136.696	159.5
3139.869	167.5
3143.039	174.5
3146.206	171.5
3149.371	165.5
3152.533	173.5
3155.693	178.5
3158.85	177.5
3162.005	181.5
3165.157	181.5
3168.306	182.5
3171.453	180.5
3174.597	188.5
3177.739	181.5
3180.878	177.5
3184.014	185.5
3187.149	179.5
3190.28	187.5
3193.409	185.5
3196.536	184.5
3199.659	179.5
3202.781	183.5
3205.9	178.5
3209.016	184.5
3212.13	185.5
3215.241	178.5
3218.35	179.5
3221.456	185.5
3224.56	182.5
3227.661	168.5
3230.76	172.5
3233.856	172.5
3236.95	162.5
3240.041	160.5
3243.13	169.5
3246.216	152.5
3249.3	145.5
3252.382	155.5
3255.46	154.5
3258.537	149.5
3261.611	138.5
3264.682	138.5
3267.751	141.5
3270.818	131.5
3273.882	140.5
3276.943	133.5
3280.002	140.5
3283.059	137.5
3286.113	134.5
3289.165	134.5
3292.214	132.5
3295.261	134.5
3298.306	130.5
3301.348	129.5
3304.387	128.5
3307.425	130.5
3310.459	129.5
3313.492	123.5
3316.521	116.5
3319.549	132.5
3322.574	123.5
3325.597	120.5
3328.617	120.5
3331.635	126.5
3334.65	125.5
3337.663	115.5
3340.674	125.5
3343.682	131.5
3346.688	123.5
3349.691	131.5
3352.692	128.5
3355.691	129.5
3358.687	121.5
3361.681	121.5
3364.673	124.5
3367.662	113.5
3370.649	119.5
3373.633	118.5
3376.615	113.5
3379.595	112.5
3382.572	104.5
3385.547	106.5
3388.52	104.5
3391.49	92.5
3394.458	94.5
3397.424	97.5
3400.387	96.5
3403.348	95.5
3406.307	94.5
3409.263	96.5
3412.217	93.5
3415.168	92.5
3418.118	94.5
3421.065	84.5
3424.009	84.5
3426.951	78.5
3429.891	77.5
3432.829	75.5
3435.764	69.5
3438.697	65.5
3441.628	66.5
3444.557	63.5
3447.483	60.5
3450.407	57.5
3453.328	68.5
3456.247	57.5
3459.164	52.5
3462.079	43.5
3464.991	47.5
3467.902	47.5
3470.809	39.5
3473.715	42.5
3476.618	29.5
3479.519	31.5
3482.418	28.5
3485.315	25.5
3488.209	14.5
3491.101	18.5
3493.99	21.5
3496.878	8.5
3499.763	9.5
3502.646	16.5
3505.527	17.5
3508.405	9.5
3511.281	4.5
3514.155	3.5
3517.027	-1.5
3519.897	5.5
3522.764	1.5
3525.629	-0.5
3528.492	-1.5
3531.352	-10.5
3534.211	-13.5
3537.067	-14.5
3539.921	-10.5
3542.773	-19.5
3545.622	-18.5
3548.469	-22.5
3551.315	-15.5
3554.157	-22.5
3556.998	-15.5
3559.837	-23.5
3562.673	-24.5
3565.507	-26.5
3568.339	-24.5
3571.169	-25.5
3573.996	-24.5
3576.822	-35.5
3579.645	-30.5
3582.466	-23.5
3585.285	-29.5
3588.101	-32.5
3590.916	-26.5
3593.728	-37.5
3596.538	-39.5
3599.346	-39.5
3602.152	-36.5
3604.956	-31.5
3607.757	-32.5
3610.556	-31.5
3613.354	-44.5
3616.149	-41.5
3618.942	-35.5
3621.732	-34.5
3624.521	-37.5
3627.307	-32.5
3630.092	-44.5
3632.874	-42.5
3635.654	-46.5
3638.432	-45.5
3641.208	-43.5
3643.982	-43.5
3646.753	-45.5
3649.523	-45.5
3652.29	-51.5
3655.055	-41.5
3657.818	-50.5
3660.579	-48.5
3663.338	-44.5
3666.095	-49.5
3668.849	-53.5
3671.602	-50.5
3674.352	-44.5
3677.101	-50.5
3679.847	-46.5
3682.591	-51.5
3685.333	-49.5
3688.073	-52.5
3690.811	-51.5
3693.547	-51.5
3696.281	-49.5
3699.013	-53.5
3701.742	-58.5
3704.47	-50.5
3707.195	-54.5
3709.919	-53.5
3712.64	-50.5
3715.359	-49.5
3718.076	-58.5
3720.792	-51.5
3723.505	-56.5
3726.216	-49.5
3728.925	-53.5
3731.632	-54.5
3734.336	-54.5
3737.039	-50.5
3739.74	-60.5
3742.439	-61.5
3745.136	-59.5
3747.83	-59.5
3750.523	-61.5
3753.213	-64.5
3755.902	-60.5
3758.589	-58.5
3761.273	-57.5
3763.956	-55.5
3766.636	-53.5
3769.315	-48.5
3771.991	-56.5
3774.665	-58.5
3777.338	-55.5
3780.008	-57.5
3782.677	-56.5
3785.343	-61.5
3788.007	-53.5
3790.67	-59.5
3793.33	-58.5
3795.989	-59.5
3798.645	-63.5
3801.299	-57.5
3803.952	-60.5
3806.602	-59.5
3809.251	-63.5
3811.897	-59.5
3814.542	-64.5
3817.184	-55.5
3819.825	-54.5
3822.463	-54.5
3825.1	-54.5
3827.735	-62.5
3830.367	-59.5
3832.998	-61.5
3835.627	-63.5
3838.253	-58.5
3840.878	-51.5
3843.501	-52.5
3846.122	-65.5
3848.741	-61.5
3851.358	-58.5
3853.973	-52.5
3856.586	-53.5
3859.197	-54.5
3861.806	-61.5
3864.414	-60.5
3867.019	-59.5
3869.622	-54.5
3872.224	-47.5
3874.823	-41.5
3877.421	-33.5
3880.016	-21.5
3882.61	1.5
3885.202	-1.5
3887.792	-10.5
3890.38	-27.5
3892.966	-47.5
3895.55	-54.5
3898.132	-55.5
3900.713	-61.5
3903.291	-60.5
3905.868	-58.5
3908.442	-61.5
3911.015	-57.5
3913.586	-60.5
3916.155	-59.5
3918.722	-57.5
3921.287	-58.5
3923.85	-52.5
3926.411	-61.5
3928.971	-70.5
3931.528	-62.5
3934.084	-54.5
3936.638	-61.5
3939.19	-63.5
3941.74	-54.5
3944.288	-63.5
3946.834	-59.5
3949.378	-63.5
3951.921	-62.5
3954.462	-61.5
3957	-51.5
3959.537	-51.5
3962.072	-48.5
3964.606	-51.5
3967.137	-57.5
3969.667	-58.5
3972.194	-55.5
3974.72	-55.5
3977.244	-57.5
3979.766	-57.5
3982.286	-60.5
3984.805	-67.5
3987.321	-57.5
3989.836	-59.5
3992.349	-64.5
3994.86	-59.5
3997.369	-61.5
3999.877	-59.5
4002.382	-59.5
4004.886	-53.5
4007.388	-59.5
4009.888	-56.5
4012.386	-57.5
4014.883	-60.5
4017.377	-48.5
4019.87	-58.5
4022.361	-61.5
4024.85	-55.5
4027.338	-61.5
4029.823	-63.5
4032.307	-63.5
4034.789	-60.5
4037.269	-57.5
4039.747	-58.5
4042.224	-63.5
4044.699	-65.5
4047.172	-64.5
4049.643	-61.5
4052.112	-66.5
4054.58	-61.5
4057.046	-60.5
4059.51	-60.5
4061.972	-61.5
4064.432	-58.5
4066.891	-53.5
4069.348	-53.5
4071.803	-51.5
4074.256	-59.5
4076.708	-59.5
4079.158	-65.5
4081.606	-58.5
4084.052	-59.5
4086.497	-59.5
4088.939	-59.5
4091.38	-63.5
4093.819	-60.5
4096.257	-61.5
4098.693	-60.5
4101.127	-55.5
4103.559	-62.5
4105.989	13.5
4108.418	12.5
4110.845	9.5
4113.27	6.5
4115.694	13.5
4118.115	8.5
4120.535	-61.5
4122.954	-59.5
4125.37	-60.5
4127.785	-57.5
4130.198	-57.5
4132.609	-53.5
4135.019	-61.5
4137.427	-66.5
4139.833	-60.5
4142.237	-61.5
