Data from 2018-3-7_conc=6_n=2_RamanShift_05.txt Node
Date: Wed Mar 07 13:01:52 IST 2018
User: aro
Spectrometer: QEPB0276
Trigger mode: 0
Integration Time (sec): 3.000000E1
Scans to average: 1
Electric dark correction enabled: true
Nonlinearity correction enabled: false
Boxcar width: 0
XAxis mode: Raman Shifts
Number of Pixels in Spectrum: 1044
>>>>>Begin Spectral Data<<<<<
160.701	5.1
166.742	13.1
172.777	45.1
178.805	152.1
184.826	430.1
190.841	909.1
196.849	1523.1
202.85	1985.1
208.845	2176.1
214.833	2183.1
220.815	2155.1
226.789	2131.1
232.758	2166.1
238.719	2138.1
244.674	2122.1
250.623	2108.1
256.565	2101.1
262.5	2061.1
268.429	2026.1
274.351	2035.1
280.267	2001.1
286.176	2020.1
292.079	2007.1
297.975	1975.1
303.865	1977.1
309.748	1983.1
315.625	1952.1
321.495	1952.1
327.359	1983.1
333.217	1965.1
339.068	1976.1
344.912	1981.1
350.751	1961.1
356.583	1986.1
362.408	1980.1
368.227	1975.1
374.04	1971.1
379.847	1972.1
385.647	1993.1
391.44	2004.1
397.228	1994.1
403.009	2024.1
408.784	2034.1
414.553	2032.1
420.315	2037.1
426.071	2030.1
431.821	2050.1
437.565	2034.1
443.302	2038.1
449.033	2028.1
454.758	2029.1
460.477	2007.1
466.189	2007.1
471.896	1975.1
477.596	1982.1
483.29	1961.1
488.978	1961.1
494.66	1966.1
500.335	1928.1
506.005	1873.1
511.668	1812.1
517.325	1771.1
522.977	1704.1
528.622	1690.1
534.261	1652.1
539.894	1636.1
545.521	1627.1
551.141	1599.1
556.756	1616.1
562.365	1599.1
567.968	1587.1
573.565	1571.1
579.155	1559.1
584.74	1555.1
590.319	1558.1
595.892	1554.1
601.459	1535.1
607.02	1537.1
612.575	1517.1
618.124	1518.1
623.667	1495.1
629.204	1492.1
634.735	1455.1
640.261	1469.1
645.781	1476.1
651.294	1457.1
656.802	1440.1
662.304	1454.1
667.8	1452.1
673.29	1424.1
678.775	1428.1
684.254	1444.1
689.726	1425.1
695.193	1407.1
700.655	1412.1
706.11	1400.1
711.56	1388.1
717.004	1391.1
722.442	1376.1
727.874	1380.1
733.301	1373.1
738.722	1362.1
744.137	1358.1
749.547	1366.1
754.951	1365.1
760.349	1353.1
765.741	1365.1
771.128	1359.1
776.509	1374.1
781.885	1390.1
787.254	1372.1
792.618	1386.1
797.977	1377.1
803.33	1367.1
808.677	1374.1
814.019	1348.1
819.355	1339.1
824.686	1333.1
830.011	1315.1
835.33	1317.1
840.644	1323.1
845.952	1328.1
851.255	1303.1
856.552	1320.1
861.844	1296.1
867.13	1296.1
872.41	1290.1
877.686	1283.1
882.955	1277.1
888.219	1272.1
893.478	1256.1
898.731	1233.1
903.979	1205.1
909.221	1212.1
914.458	1212.1
919.69	1208.1
924.916	1212.1
930.136	1216.1
935.351	1208.1
940.561	1211.1
945.766	1214.1
950.965	1211.1
956.158	1204.1
961.347	1182.1
966.529	1178.1
971.707	1154.1
976.879	1134.1
982.046	1130.1
987.208	1131.1
992.364	1114.1
997.515	1124.1
1002.66	1137.1
1007.801	1141.1
1012.936	1148.1
1018.066	1161.1
1023.19	1155.1
1028.309	1157.1
1033.423	1157.1
1038.532	1148.1
1043.636	1128.1
1048.734	1115.1
1053.827	1109.1
1058.915	1107.1
1063.998	1093.1
1069.075	1081.1
1074.147	1081.1
1079.214	1093.1
1084.276	1090.1
1089.333	1101.1
1094.385	1100.1
1099.431	1091.1
1104.472	1101.1
1109.509	1092.1
1114.54	1067.1
1119.565	1063.1
1124.586	1057.1
1129.602	1044.1
1134.613	1033.1
1139.618	1027.1
1144.619	1019.1
1149.614	1028.1
1154.604	1034.1
1159.589	1050.1
1164.57	1040.1
1169.545	1044.1
1174.515	1041.1
1179.48	1039.1
1184.44	1007.1
1189.395	1014.1
1194.345	1002.1
1199.29	977.1
1204.23	994.1
1209.165	1000.1
1214.095	1011.1
1219.021	996.1
1223.941	1013.1
1228.856	1019.1
1233.766	1025.1
1238.672	1029.1
1243.572	1030.1
1248.467	1012.1
1253.358	1012.1
1258.244	1004.1
1263.124	979.1
1268	951.1
1272.871	947.1
1277.737	941.1
1282.599	946.1
1287.455	935.1
1292.306	949.1
1297.153	939.1
1301.995	939.1
1306.832	961.1
1311.664	944.1
1316.491	965.1
1321.314	952.1
1326.132	954.1
1330.945	927.1
1335.753	909.1
1340.556	889.1
1345.354	878.1
1350.148	848.1
1354.937	839.1
1359.722	825.1
1364.501	805.1
1369.276	791.1
1374.046	783.1
1378.811	759.1
1383.572	751.1
1388.327	758.1
1393.079	763.1
1397.825	781.1
1402.567	782.1
1407.304	782.1
1412.036	785.1
1416.764	788.1
1421.487	787.1
1426.205	779.1
1430.919	777.1
1435.628	806.1
1440.333	797.1
1445.032	796.1
1449.727	815.1
1454.418	825.1
1459.104	802.1
1463.785	798.1
1468.462	778.1
1473.134	763.1
1477.802	745.1
1482.465	717.1
1487.123	716.1
1491.777	694.1
1496.426	678.1
1501.071	677.1
1505.711	667.1
1510.347	658.1
1514.978	650.1
1519.604	649.1
1524.226	636.1
1528.844	641.1
1533.457	634.1
1538.065	630.1
1542.669	634.1
1547.269	635.1
1551.864	638.1
1556.454	649.1
1561.041	659.1
1565.622	667.1
1570.199	665.1
1574.772	679.1
1579.34	700.1
1583.904	706.1
1588.464	721.1
1593.019	706.1
1597.569	713.1
1602.115	710.1
1606.657	715.1
1611.195	711.1
1615.728	713.1
1620.256	705.1
1624.78	708.1
1629.3	709.1
1633.816	707.1
1638.327	714.1
1642.834	690.1
1647.336	701.1
1651.834	702.1
1656.328	697.1
1660.817	693.1
1665.302	683.1
1669.783	677.1
1674.259	659.1
1678.732	647.1
1683.199	611.1
1687.663	601.1
1692.122	568.1
1696.577	534.1
1701.028	510.1
1705.474	476.1
1709.917	474.1
1714.355	465.1
1718.788	458.1
1723.218	461.1
1727.643	452.1
1732.064	466.1
1736.481	462.1
1740.893	444.1
1745.301	440.1
1749.705	436.1
1754.105	418.1
1758.501	403.1
1762.893	400.1
1767.28	390.1
1771.663	402.1
1776.042	392.1
1780.417	382.1
1784.787	375.1
1789.154	364.1
1793.516	344.1
1797.874	339.1
1802.228	339.1
1806.578	333.1
1810.924	335.1
1815.266	338.1
1819.603	336.1
1823.937	343.1
1828.266	340.1
1832.591	355.1
1836.913	343.1
1841.23	353.1
1845.543	342.1
1849.852	360.1
1854.156	359.1
1858.457	350.1
1862.754	365.1
1867.047	360.1
1871.335	356.1
1875.62	359.1
1879.9	343.1
1884.177	342.1
1888.449	338.1
1892.718	344.1
1896.982	325.1
1901.243	322.1
1905.499	317.1
1909.752	311.1
1914	300.1
1918.245	300.1
1922.485	288.1
1926.722	279.1
1930.954	277.1
1935.183	280.1
1939.408	280.1
1943.628	268.1
1947.845	267.1
1952.058	262.1
1956.267	264.1
1960.472	267.1
1964.673	259.1
1968.87	263.1
1973.063	265.1
1977.252	257.1
1981.438	256.1
1985.619	255.1
1989.797	264.1
1993.971	269.1
1998.14	266.1
2002.306	269.1
2006.469	277.1
2010.627	274.1
2014.781	273.1
2018.932	268.1
2023.078	274.1
2027.221	276.1
2031.36	268.1
2035.495	259.1
2039.627	252.1
2043.754	253.1
2047.878	263.1
2051.998	253.1
2056.114	252.1
2060.226	243.1
2064.334	241.1
2068.439	234.1
2072.54	233.1
2076.637	237.1
2080.73	235.1
2084.82	239.1
2088.906	232.1
2092.988	223.1
2097.066	222.1
2101.14	222.1
2105.211	212.1
2109.278	206.1
2113.342	208.1
2117.401	214.1
2121.457	213.1
2125.509	208.1
2129.558	207.1
2133.602	208.1
2137.643	214.1
2141.681	209.1
2145.714	211.1
2149.744	215.1
2153.77	205.1
2157.793	212.1
2161.812	221.1
2165.827	211.1
2169.838	205.1
2173.846	201.1
2177.851	204.1
2181.851	207.1
2185.848	197.1
2189.841	197.1
2193.831	199.1
2197.817	201.1
2201.799	196.1
2205.778	196.1
2209.753	200.1
2213.725	191.1
2217.693	209.1
2221.657	207.1
2225.618	200.1
2229.575	189.1
2233.529	189.1
2237.479	190.1
2241.425	185.1
2245.368	191.1
2249.307	191.1
2253.243	174.1
2257.175	184.1
2261.104	174.1
2265.029	173.1
2268.95	178.1
2272.868	169.1
2276.783	162.1
2280.694	165.1
2284.601	162.1
2288.505	173.1
2292.405	166.1
2296.302	170.1
2300.195	165.1
2304.085	152.1
2307.971	158.1
2311.854	156.1
2315.734	152.1
2319.609	160.1
2323.482	154.1
2327.351	157.1
2331.216	166.1
2335.078	175.1
2338.937	166.1
2342.792	156.1
2346.643	162.1
2350.492	161.1
2354.336	155.1
2358.178	149.1
2362.015	150.1
2365.85	156.1
2369.681	161.1
2373.508	164.1
2377.333	158.1
2381.153	162.1
2384.971	156.1
2388.785	163.1
2392.595	150.1
2396.402	159.1
2400.206	158.1
2404.007	157.1
2407.804	156.1
2411.597	159.1
2415.388	158.1
2419.174	165.1
2422.958	150.1
2426.738	149.1
2430.515	152.1
2434.289	161.1
2438.059	141.1
2441.825	147.1
2445.589	148.1
2449.349	141.1
2453.106	144.1
2456.859	133.1
2460.61	140.1
2464.356	137.1
2468.1	137.1
2471.84	137.1
2475.577	134.1
2479.311	139.1
2483.041	129.1
2486.768	129.1
2490.492	135.1
2494.213	125.1
2497.93	133.1
2501.644	129.1
2505.355	114.1
2509.062	123.1
2512.766	122.1
2516.467	118.1
2520.165	120.1
2523.859	122.1
2527.551	111.1
2531.239	113.1
2534.923	107.1
2538.605	104.1
2542.283	101.1
2545.958	106.1
2549.63	107.1
2553.299	101.1
2556.964	97.1
2560.626	103.1
2564.285	103.1
2567.941	97.1
2571.594	97.1
2575.243	97.1
2578.89	92.1
2582.533	93.1
2586.173	89.1
2589.809	88.1
2593.443	95.1
2597.073	84.1
2600.701	87.1
2604.325	74.1
2607.946	71.1
2611.564	87.1
2615.178	83.1
2618.79	80.1
2622.398	82.1
2626.004	76.1
2629.606	78.1
2633.205	79.1
2636.801	82.1
2640.394	83.1
2643.983	78.1
2647.57	78.1
2651.153	81.1
2654.734	70.1
2658.311	72.1
2661.885	85.1
2665.456	80.1
2669.025	74.1
2672.589	71.1
2676.151	75.1
2679.71	68.1
2683.266	64.1
2686.819	75.1
2690.368	68.1
2693.915	72.1
2697.458	63.1
2700.999	68.1
2704.536	68.1
2708.071	73.1
2711.602	63.1
2715.13	61.1
2718.656	61.1
2722.178	56.1
2725.697	59.1
2729.214	60.1
2732.727	61.1
2736.237	57.1
2739.744	48.1
2743.249	55.1
2746.75	50.1
2750.248	45.1
2753.743	41.1
2757.236	39.1
2760.725	40.1
2764.211	34.1
2767.695	32.1
2771.175	36.1
2774.652	34.1
2778.127	37.1
2781.598	35.1
2785.067	36.1
2788.532	45.1
2791.995	42.1
2795.455	42.1
2798.911	37.1
2802.365	39.1
2805.816	43.1
2809.264	46.1
2812.709	40.1
2816.151	42.1
2819.59	47.1
2823.026	43.1
2826.46	39.1
2829.89	35.1
2833.318	43.1
2836.742	47.1
2840.164	37.1
2843.583	37.1
2846.999	47.1
2850.412	39.1
2853.822	41.1
2857.229	53.1
2860.634	38.1
2864.035	48.1
2867.434	47.1
2870.83	53.1
2874.223	52.1
2877.613	55.1
2881	52.1
2884.385	51.1
2887.766	55.1
2891.145	56.1
2894.521	55.1
2897.894	57.1
2901.264	53.1
2904.631	55.1
2907.996	51.1
2911.358	63.1
2914.717	56.1
2918.073	52.1
2921.426	56.1
2924.777	62.1
2928.124	60.1
2931.469	70.1
2934.811	69.1
2938.15	75.1
2941.487	87.1
2944.821	77.1
2948.152	79.1
2951.48	70.1
2954.805	79.1
2958.128	72.1
2961.447	76.1
2964.765	69.1
2968.079	66.1
2971.39	68.1
2974.699	67.1
2978.005	77.1
2981.308	65.1
2984.609	60.1
2987.907	64.1
2991.202	70.1
2994.494	67.1
2997.784	67.1
3001.07	67.1
3004.355	67.1
3007.636	73.1
3010.915	77.1
3014.191	70.1
3017.464	75.1
3020.734	77.1
3024.002	74.1
3027.267	74.1
3030.53	86.1
3033.789	77.1
3037.046	87.1
3040.301	83.1
3043.552	82.1
3046.801	91.1
3050.048	93.1
3053.291	90.1
3056.532	98.1
3059.771	107.1
3063.006	109.1
3066.239	115.1
3069.469	121.1
3072.697	118.1
3075.922	132.1
3079.144	125.1
3082.364	131.1
3085.581	135.1
3088.795	139.1
3092.007	143.1
3095.216	147.1
3098.423	144.1
3101.627	140.1
3104.828	150.1
3108.026	153.1
3111.222	153.1
3114.416	154.1
3117.607	159.1
3120.795	159.1
3123.98	167.1
3127.163	178.1
3130.344	176.1
3133.521	181.1
3136.696	181.1
3139.869	180.1
3143.039	188.1
3146.206	195.1
3149.371	194.1
3152.533	201.1
3155.693	200.1
3158.85	198.1
3162.005	206.1
3165.157	202.1
3168.306	197.1
3171.453	203.1
3174.597	204.1
3177.739	206.1
3180.878	207.1
3184.014	202.1
3187.149	210.1
3190.28	207.1
3193.409	211.1
3196.536	204.1
3199.659	215.1
3202.781	216.1
3205.9	197.1
3209.016	202.1
3212.13	205.1
3215.241	208.1
3218.35	209.1
3221.456	205.1
3224.56	192.1
3227.661	195.1
3230.76	201.1
3233.856	188.1
3236.95	189.1
3240.041	181.1
3243.13	184.1
3246.216	180.1
3249.3	169.1
3252.382	179.1
3255.46	172.1
3258.537	167.1
3261.611	159.1
3264.682	167.1
3267.751	166.1
3270.818	153.1
3273.882	159.1
3276.943	154.1
3280.002	163.1
3283.059	150.1
3286.113	153.1
3289.165	148.1
3292.214	151.1
3295.261	148.1
3298.306	158.1
3301.348	152.1
3304.387	151.1
3307.425	143.1
3310.459	145.1
3313.492	146.1
3316.521	145.1
3319.549	155.1
3322.574	140.1
3325.597	142.1
3328.617	150.1
3331.635	150.1
3334.65	156.1
3337.663	134.1
3340.674	145.1
3343.682	137.1
3346.688	146.1
3349.691	143.1
3352.692	143.1
3355.691	151.1
3358.687	140.1
3361.681	140.1
3364.673	138.1
3367.662	138.1
3370.649	131.1
3373.633	139.1
3376.615	130.1
3379.595	128.1
3382.572	124.1
3385.547	130.1
3388.52	121.1
3391.49	119.1
3394.458	109.1
3397.424	118.1
3400.387	111.1
3403.348	108.1
3406.307	103.1
3409.263	111.1
3412.217	104.1
3415.168	113.1
3418.118	105.1
3421.065	99.1
3424.009	99.1
3426.951	96.1
3429.891	93.1
3432.829	98.1
3435.764	91.1
3438.697	88.1
3441.628	74.1
3444.557	80.1
3447.483	80.1
3450.407	66.1
3453.328	76.1
3456.247	69.1
3459.164	65.1
3462.079	57.1
3464.991	64.1
3467.902	56.1
3470.809	54.1
3473.715	44.1
3476.618	45.1
3479.519	33.1
3482.418	39.1
3485.315	41.1
3488.209	25.1
3491.101	30.1
3493.99	34.1
3496.878	23.1
3499.763	18.1
3502.646	21.1
3505.527	20.1
3508.405	18.1
3511.281	13.1
3514.155	12.1
3517.027	7.1
3519.897	9.1
3522.764	16.1
3525.629	9.1
3528.492	2.1
3531.352	3.1
3534.211	-4.9
3537.067	-1.9
3539.921	-1.9
3542.773	-10.9
3545.622	-2.9
3548.469	-8.9
3551.315	-9.9
3554.157	-16.9
3556.998	-14.9
3559.837	-20.9
3562.673	-16.9
3565.507	-18.9
3568.339	-18.9
3571.169	-19.9
3573.996	-15.9
3576.822	-25.9
3579.645	-19.9
3582.466	-21.9
3585.285	-25.9
3588.101	-23.9
3590.916	-19.9
3593.728	-25.9
3596.538	-31.9
3599.346	-28.9
3602.152	-27.9
3604.956	-23.9
3607.757	-20.9
3610.556	-26.9
3613.354	-35.9
3616.149	-37.9
3618.942	-31.9
3621.732	-34.9
3624.521	-29.9
3627.307	-36.9
3630.092	-37.9
3632.874	-37.9
3635.654	-35.9
3638.432	-33.9
3641.208	-34.9
3643.982	-33.9
3646.753	-39.9
3649.523	-37.9
3652.29	-39.9
3655.055	-34.9
3657.818	-39.9
3660.579	-38.9
3663.338	-35.9
3666.095	-43.9
3668.849	-44.9
3671.602	-43.9
3674.352	-37.9
3677.101	-43.9
3679.847	-45.9
3682.591	-48.9
3685.333	-41.9
3688.073	-51.9
3690.811	-44.9
3693.547	-48.9
3696.281	-46.9
3699.013	-48.9
3701.742	-46.9
3704.47	-43.9
3707.195	-39.9
3709.919	-44.9
3712.64	-46.9
3715.359	-49.9
3718.076	-47.9
3720.792	-42.9
3723.505	-44.9
3726.216	-41.9
3728.925	-47.9
3731.632	-48.9
3734.336	-51.9
3737.039	-45.9
3739.74	-52.9
3742.439	-56.9
3745.136	-47.9
3747.83	-50.9
3750.523	-53.9
3753.213	-60.9
3755.902	-51.9
3758.589	-48.9
3761.273	-52.9
3763.956	-53.9
3766.636	-50.9
3769.315	-43.9
3771.991	-48.9
3774.665	-52.9
3777.338	-50.9
3780.008	-47.9
3782.677	-58.9
3785.343	-50.9
3788.007	-51.9
3790.67	-52.9
3793.33	-51.9
3795.989	-52.9
3798.645	-54.9
3801.299	-49.9
3803.952	-55.9
3806.602	-51.9
3809.251	-57.9
3811.897	-58.9
3814.542	-56.9
3817.184	-51.9
3819.825	-50.9
3822.463	-49.9
3825.1	-51.9
3827.735	-51.9
3830.367	-52.9
3832.998	-56.9
3835.627	-51.9
3838.253	-44.9
3840.878	-50.9
3843.501	-48.9
3846.122	-54.9
3848.741	-50.9
3851.358	-49.9
3853.973	-48.9
3856.586	-48.9
3859.197	-52.9
3861.806	-53.9
3864.414	-54.9
3867.019	-53.9
3869.622	-51.9
3872.224	-44.9
3874.823	-35.9
3877.421	-35.9
3880.016	-19.9
3882.61	-6.9
3885.202	-7.9
3887.792	-15.9
3890.38	-26.9
3892.966	-42.9
3895.55	-45.9
3898.132	-46.9
3900.713	-55.9
3903.291	-49.9
3905.868	-52.9
3908.442	-51.9
3911.015	-50.9
3913.586	-55.9
3916.155	-54.9
3918.722	-56.9
3921.287	-56.9
3923.85	-49.9
3926.411	-57.9
3928.971	-60.9
3931.528	-56.9
3934.084	-51.9
3936.638	-51.9
3939.19	-61.9
3941.74	-51.9
3944.288	-53.9
3946.834	-49.9
3949.378	-54.9
3951.921	-49.9
3954.462	-55.9
3957	-49.9
3959.537	-45.9
3962.072	-51.9
3964.606	-48.9
3967.137	-50.9
3969.667	-52.9
3972.194	-53.9
3974.72	-48.9
3977.244	-53.9
3979.766	-55.9
3982.286	-56.9
3984.805	-63.9
3987.321	-54.9
3989.836	-48.9
3992.349	-50.9
3994.86	-52.9
3997.369	-53.9
3999.877	-48.9
4002.382	-53.9
4004.886	-48.9
4007.388	-54.9
4009.888	-52.9
4012.386	-47.9
4014.883	-47.9
4017.377	-46.9
4019.87	-45.9
4022.361	-56.9
4024.85	-50.9
4027.338	-53.9
4029.823	-54.9
4032.307	-52.9
4034.789	-52.9
4037.269	-53.9
4039.747	-57.9
4042.224	-57.9
4044.699	-57.9
4047.172	-53.9
4049.643	-53.9
4052.112	-49.9
4054.58	-51.9
4057.046	-43.9
4059.51	-50.9
4061.972	-53.9
4064.432	-51.9
4066.891	-48.9
4069.348	-51.9
4071.803	-51.9
4074.256	-51.9
4076.708	-53.9
4079.158	-56.9
4081.606	-51.9
4084.052	-54.9
4086.497	-51.9
4088.939	-52.9
4091.38	-57.9
4093.819	-56.9
4096.257	-54.9
4098.693	-55.9
4101.127	-48.9
4103.559	-55.9
4105.989	0.1
4108.418	-4.9
4110.845	-6.9
4113.27	-1.9
4115.694	1.1
4118.115	4.1
4120.535	-53.9
4122.954	-53.9
4125.37	-53.9
4127.785	-46.9
4130.198	-47.9
4132.609	-52.9
4135.019	-52.9
4137.427	-55.9
4139.833	-52.9
4142.237	-53.9
