Data from 2018-3-7_conc=3_n=1_RamanShift_02.txt Node
Date: Wed Mar 07 11:15:52 IST 2018
User: aro
Spectrometer: QEPB0276
Trigger mode: 0
Integration Time (sec): 3.000000E1
Scans to average: 1
Electric dark correction enabled: true
Nonlinearity correction enabled: false
Boxcar width: 0
XAxis mode: Raman Shifts
Number of Pixels in Spectrum: 1044
>>>>>Begin Spectral Data<<<<<
160.701	9.9
166.742	22.9
172.777	58.9
178.805	145.9
184.826	362.9
190.841	791.9
196.849	1302.9
202.85	1685.9
208.845	1842.9
214.833	1843.9
220.815	1816.9
226.789	1826.9
232.758	1806.9
238.719	1814.9
244.674	1831.9
250.623	1813.9
256.565	1802.9
262.5	1758.9
268.429	1742.9
274.351	1726.9
280.267	1724.9
286.176	1737.9
292.079	1729.9
297.975	1725.9
303.865	1719.9
309.748	1705.9
315.625	1718.9
321.495	1704.9
327.359	1719.9
333.217	1717.9
339.068	1738.9
344.912	1722.9
350.751	1747.9
356.583	1744.9
362.408	1750.9
368.227	1733.9
374.04	1762.9
379.847	1773.9
385.647	1756.9
391.44	1765.9
397.228	1769.9
403.009	1800.9
408.784	1798.9
414.553	1827.9
420.315	1807.9
426.071	1826.9
431.821	1824.9
437.565	1828.9
443.302	1827.9
449.033	1800.9
454.758	1793.9
460.477	1761.9
466.189	1771.9
471.896	1759.9
477.596	1757.9
483.29	1740.9
488.978	1729.9
494.66	1721.9
500.335	1674.9
506.005	1618.9
511.668	1561.9
517.325	1512.9
522.977	1428.9
528.622	1394.9
534.261	1372.9
539.894	1339.9
545.521	1338.9
551.141	1317.9
556.756	1318.9
562.365	1303.9
567.968	1297.9
573.565	1255.9
579.155	1269.9
584.74	1262.9
590.319	1255.9
595.892	1256.9
601.459	1253.9
607.02	1244.9
612.575	1236.9
618.124	1230.9
623.667	1213.9
629.204	1185.9
634.735	1188.9
640.261	1176.9
645.781	1172.9
651.294	1154.9
656.802	1149.9
662.304	1153.9
667.8	1159.9
673.29	1151.9
678.775	1138.9
684.254	1144.9
689.726	1135.9
695.193	1124.9
700.655	1110.9
706.11	1121.9
711.56	1114.9
717.004	1089.9
722.442	1083.9
727.874	1075.9
733.301	1083.9
738.722	1088.9
744.137	1077.9
749.547	1079.9
754.951	1068.9
760.349	1088.9
765.741	1080.9
771.128	1087.9
776.509	1092.9
781.885	1113.9
787.254	1135.9
792.618	1122.9
797.977	1115.9
803.33	1098.9
808.677	1097.9
814.019	1093.9
819.355	1076.9
824.686	1059.9
830.011	1057.9
835.33	1071.9
840.644	1061.9
845.952	1044.9
851.255	1051.9
856.552	1049.9
861.844	1039.9
867.13	1016.9
872.41	1009.9
877.686	1024.9
882.955	1005.9
888.219	1011.9
893.478	979.9
898.731	969.9
903.979	956.9
909.221	952.9
914.458	953.9
919.69	941.9
924.916	948.9
930.136	937.9
935.351	955.9
940.561	953.9
945.766	956.9
950.965	967.9
956.158	949.9
961.347	936.9
966.529	913.9
971.707	893.9
976.879	882.9
982.046	897.9
987.208	884.9
992.364	861.9
997.515	874.9
1002.66	884.9
1007.801	899.9
1012.936	897.9
1018.066	918.9
1023.19	904.9
1028.309	901.9
1033.423	898.9
1038.532	884.9
1043.636	891.9
1048.734	895.9
1053.827	870.9
1058.915	859.9
1063.998	851.9
1069.075	845.9
1074.147	856.9
1079.214	856.9
1084.276	858.9
1089.333	861.9
1094.385	860.9
1099.431	853.9
1104.472	848.9
1109.509	845.9
1114.54	836.9
1119.565	825.9
1124.586	818.9
1129.602	811.9
1134.613	797.9
1139.618	791.9
1144.619	779.9
1149.614	798.9
1154.604	787.9
1159.589	807.9
1164.57	803.9
1169.545	806.9
1174.515	812.9
1179.48	804.9
1184.44	800.9
1189.395	802.9
1194.345	800.9
1199.29	766.9
1204.23	787.9
1209.165	779.9
1214.095	788.9
1219.021	799.9
1223.941	774.9
1228.856	795.9
1233.766	803.9
1238.672	807.9
1243.572	808.9
1248.467	787.9
1253.358	778.9
1258.244	775.9
1263.124	755.9
1268	739.9
1272.871	729.9
1277.737	724.9
1282.599	732.9
1287.455	716.9
1292.306	721.9
1297.153	722.9
1301.995	743.9
1306.832	736.9
1311.664	737.9
1316.491	754.9
1321.314	729.9
1326.132	751.9
1330.945	729.9
1335.753	705.9
1340.556	689.9
1345.354	689.9
1350.148	661.9
1354.937	658.9
1359.722	634.9
1364.501	627.9
1369.276	612.9
1374.046	604.9
1378.811	605.9
1383.572	621.9
1388.327	600.9
1393.079	597.9
1397.825	608.9
1402.567	602.9
1407.304	620.9
1412.036	614.9
1416.764	611.9
1421.487	607.9
1426.205	610.9
1430.919	617.9
1435.628	622.9
1440.333	628.9
1445.032	617.9
1449.727	639.9
1454.418	639.9
1459.104	625.9
1463.785	616.9
1468.462	608.9
1473.134	602.9
1477.802	576.9
1482.465	549.9
1487.123	551.9
1491.777	538.9
1496.426	526.9
1501.071	512.9
1505.711	514.9
1510.347	501.9
1514.978	520.9
1519.604	512.9
1524.226	509.9
1528.844	499.9
1533.457	499.9
1538.065	490.9
1542.669	500.9
1547.269	498.9
1551.864	504.9
1556.454	523.9
1561.041	525.9
1565.622	537.9
1570.199	533.9
1574.772	522.9
1579.34	535.9
1583.904	549.9
1588.464	560.9
1593.019	556.9
1597.569	554.9
1602.115	562.9
1606.657	545.9
1611.195	540.9
1615.728	556.9
1620.256	541.9
1624.78	557.9
1629.3	546.9
1633.816	550.9
1638.327	561.9
1642.834	542.9
1647.336	549.9
1651.834	542.9
1656.328	553.9
1660.817	544.9
1665.302	536.9
1669.783	538.9
1674.259	514.9
1678.732	491.9
1683.199	475.9
1687.663	462.9
1692.122	442.9
1696.577	417.9
1701.028	400.9
1705.474	373.9
1709.917	374.9
1714.355	373.9
1718.788	368.9
1723.218	372.9
1727.643	372.9
1732.064	363.9
1736.481	359.9
1740.893	348.9
1745.301	344.9
1749.705	338.9
1754.105	332.9
1758.501	320.9
1762.893	323.9
1767.28	312.9
1771.663	305.9
1776.042	307.9
1780.417	299.9
1784.787	291.9
1789.154	279.9
1793.516	277.9
1797.874	267.9
1802.228	275.9
1806.578	270.9
1810.924	261.9
1815.266	255.9
1819.603	269.9
1823.937	267.9
1828.266	268.9
1832.591	276.9
1836.913	274.9
1841.23	275.9
1845.543	267.9
1849.852	276.9
1854.156	286.9
1858.457	278.9
1862.754	279.9
1867.047	262.9
1871.335	275.9
1875.62	268.9
1879.9	275.9
1884.177	256.9
1888.449	267.9
1892.718	267.9
1896.982	258.9
1901.243	244.9
1905.499	247.9
1909.752	246.9
1914	230.9
1918.245	230.9
1922.485	227.9
1926.722	214.9
1930.954	220.9
1935.183	222.9
1939.408	220.9
1943.628	219.9
1947.845	209.9
1952.058	219.9
1956.267	213.9
1960.472	213.9
1964.673	192.9
1968.87	205.9
1973.063	204.9
1977.252	211.9
1981.438	206.9
1985.619	203.9
1989.797	209.9
1993.971	211.9
1998.14	210.9
2002.306	226.9
2006.469	213.9
2010.627	206.9
2014.781	214.9
2018.932	211.9
2023.078	218.9
2027.221	213.9
2031.36	205.9
2035.495	198.9
2039.627	191.9
2043.754	196.9
2047.878	191.9
2051.998	192.9
2056.114	192.9
2060.226	186.9
2064.334	187.9
2068.439	179.9
2072.54	182.9
2076.637	181.9
2080.73	185.9
2084.82	186.9
2088.906	173.9
2092.988	184.9
2097.066	171.9
2101.14	177.9
2105.211	173.9
2109.278	168.9
2113.342	164.9
2117.401	163.9
2121.457	166.9
2125.509	162.9
2129.558	168.9
2133.602	156.9
2137.643	169.9
2141.681	162.9
2145.714	157.9
2149.744	158.9
2153.77	161.9
2157.793	158.9
2161.812	167.9
2165.827	162.9
2169.838	152.9
2173.846	155.9
2177.851	160.9
2181.851	158.9
2185.848	146.9
2189.841	150.9
2193.831	143.9
2197.817	147.9
2201.799	145.9
2205.778	149.9
2209.753	145.9
2213.725	149.9
2217.693	148.9
2221.657	140.9
2225.618	145.9
2229.575	143.9
2233.529	139.9
2237.479	146.9
2241.425	137.9
2245.368	138.9
2249.307	140.9
2253.243	130.9
2257.175	135.9
2261.104	128.9
2265.029	132.9
2268.95	123.9
2272.868	122.9
2276.783	123.9
2280.694	120.9
2284.601	119.9
2288.505	125.9
2292.405	118.9
2296.302	128.9
2300.195	118.9
2304.085	116.9
2307.971	116.9
2311.854	114.9
2315.734	105.9
2319.609	114.9
2323.482	116.9
2327.351	117.9
2331.216	123.9
2335.078	135.9
2338.937	122.9
2342.792	106.9
2346.643	114.9
2350.492	111.9
2354.336	109.9
2358.178	105.9
2362.015	109.9
2365.85	112.9
2369.681	117.9
2373.508	115.9
2377.333	118.9
2381.153	111.9
2384.971	112.9
2388.785	110.9
2392.595	108.9
2396.402	108.9
2400.206	102.9
2404.007	104.9
2407.804	106.9
2411.597	99.9
2415.388	106.9
2419.174	108.9
2422.958	110.9
2426.738	114.9
2430.515	105.9
2434.289	108.9
2438.059	100.9
2441.825	98.9
2445.589	100.9
2449.349	94.9
2453.106	101.9
2456.859	87.9
2460.61	89.9
2464.356	90.9
2468.1	88.9
2471.84	90.9
2475.577	84.9
2479.311	86.9
2483.041	85.9
2486.768	87.9
2490.492	93.9
2494.213	80.9
2497.93	89.9
2501.644	76.9
2505.355	80.9
2509.062	78.9
2512.766	72.9
2516.467	77.9
2520.165	76.9
2523.859	82.9
2527.551	70.9
2531.239	74.9
2534.923	73.9
2538.605	70.9
2542.283	63.9
2545.958	71.9
2549.63	60.9
2553.299	60.9
2556.964	60.9
2560.626	62.9
2564.285	61.9
2567.941	54.9
2571.594	61.9
2575.243	64.9
2578.89	56.9
2582.533	54.9
2586.173	60.9
2589.809	63.9
2593.443	65.9
2597.073	55.9
2600.701	63.9
2604.325	48.9
2607.946	40.9
2611.564	56.9
2615.178	52.9
2618.79	49.9
2622.398	48.9
2626.004	51.9
2629.606	48.9
2633.205	49.9
2636.801	47.9
2640.394	53.9
2643.983	46.9
2647.57	46.9
2651.153	46.9
2654.734	49.9
2658.311	52.9
2661.885	47.9
2665.456	49.9
2669.025	44.9
2672.589	37.9
2676.151	44.9
2679.71	38.9
2683.266	40.9
2686.819	50.9
2690.368	45.9
2693.915	39.9
2697.458	34.9
2700.999	47.9
2704.536	46.9
2708.071	43.9
2711.602	33.9
2715.13	26.9
2718.656	30.9
2722.178	29.9
2725.697	32.9
2729.214	26.9
2732.727	35.9
2736.237	27.9
2739.744	25.9
2743.249	28.9
2746.75	21.9
2750.248	26.9
2753.743	16.9
2757.236	20.9
2760.725	23.9
2764.211	16.9
2767.695	17.9
2771.175	11.9
2774.652	17.9
2778.127	12.9
2781.598	19.9
2785.067	16.9
2788.532	18.9
2791.995	19.9
2795.455	18.9
2798.911	16.9
2802.365	18.9
2805.816	19.9
2809.264	17.9
2812.709	12.9
2816.151	24.9
2819.59	29.9
2823.026	16.9
2826.46	19.9
2829.89	18.9
2833.318	18.9
2836.742	25.9
2840.164	19.9
2843.583	18.9
2846.999	25.9
2850.412	23.9
2853.822	22.9
2857.229	29.9
2860.634	21.9
2864.035	27.9
2867.434	22.9
2870.83	27.9
2874.223	31.9
2877.613	28.9
2881	29.9
2884.385	30.9
2887.766	35.9
2891.145	28.9
2894.521	35.9
2897.894	33.9
2901.264	33.9
2904.631	26.9
2907.996	35.9
2911.358	39.9
2914.717	31.9
2918.073	36.9
2921.426	31.9
2924.777	41.9
2928.124	41.9
2931.469	41.9
2934.811	46.9
2938.15	51.9
2941.487	54.9
2944.821	50.9
2948.152	48.9
2951.48	47.9
2954.805	50.9
2958.128	46.9
2961.447	44.9
2964.765	45.9
2968.079	37.9
2971.39	43.9
2974.699	42.9
2978.005	44.9
2981.308	35.9
2984.609	34.9
2987.907	43.9
2991.202	38.9
2994.494	38.9
2997.784	40.9
3001.07	39.9
3004.355	45.9
3007.636	44.9
3010.915	37.9
3014.191	44.9
3017.464	45.9
3020.734	50.9
3024.002	57.9
3027.267	53.9
3030.53	58.9
3033.789	53.9
3037.046	49.9
3040.301	53.9
3043.552	58.9
3046.801	60.9
3050.048	58.9
3053.291	63.9
3056.532	70.9
3059.771	72.9
3063.006	77.9
3066.239	80.9
3069.469	84.9
3072.697	78.9
3075.922	90.9
3079.144	90.9
3082.364	98.9
3085.581	87.9
3088.795	98.9
3092.007	105.9
3095.216	107.9
3098.423	96.9
3101.627	106.9
3104.828	118.9
3108.026	111.9
3111.222	110.9
3114.416	111.9
3117.607	113.9
3120.795	114.9
3123.98	123.9
3127.163	131.9
3130.344	134.9
3133.521	131.9
3136.696	135.9
3139.869	144.9
3143.039	143.9
3146.206	153.9
3149.371	148.9
3152.533	154.9
3155.693	145.9
3158.85	152.9
3162.005	151.9
3165.157	153.9
3168.306	149.9
3171.453	154.9
3174.597	150.9
3177.739	157.9
3180.878	160.9
3184.014	148.9
3187.149	158.9
3190.28	153.9
3193.409	161.9
3196.536	154.9
3199.659	167.9
3202.781	160.9
3205.9	155.9
3209.016	147.9
3212.13	152.9
3215.241	157.9
3218.35	153.9
3221.456	158.9
3224.56	144.9
3227.661	151.9
3230.76	136.9
3233.856	145.9
3236.95	138.9
3240.041	124.9
3243.13	130.9
3246.216	130.9
3249.3	129.9
3252.382	124.9
3255.46	122.9
3258.537	116.9
3261.611	121.9
3264.682	120.9
3267.751	123.9
3270.818	113.9
3273.882	118.9
3276.943	113.9
3280.002	119.9
3283.059	117.9
3286.113	111.9
3289.165	108.9
3292.214	108.9
3295.261	110.9
3298.306	109.9
3301.348	105.9
3304.387	107.9
3307.425	107.9
3310.459	106.9
3313.492	101.9
3316.521	102.9
3319.549	110.9
3322.574	94.9
3325.597	108.9
3328.617	95.9
3331.635	109.9
3334.65	104.9
3337.663	88.9
3340.674	95.9
3343.682	103.9
3346.688	97.9
3349.691	104.9
3352.692	107.9
3355.691	113.9
3358.687	103.9
3361.681	97.9
3364.673	96.9
3367.662	95.9
3370.649	92.9
3373.633	91.9
3376.615	86.9
3379.595	87.9
3382.572	85.9
3385.547	87.9
3388.52	80.9
3391.49	86.9
3394.458	80.9
3397.424	80.9
3400.387	84.9
3403.348	65.9
3406.307	70.9
3409.263	75.9
3412.217	71.9
3415.168	77.9
3418.118	64.9
3421.065	69.9
3424.009	59.9
3426.951	63.9
3429.891	65.9
3432.829	57.9
3435.764	65.9
3438.697	60.9
3441.628	46.9
3444.557	49.9
3447.483	51.9
3450.407	40.9
3453.328	33.9
3456.247	39.9
3459.164	44.9
3462.079	25.9
3464.991	29.9
3467.902	30.9
3470.809	27.9
3473.715	24.9
3476.618	23.9
3479.519	19.9
3482.418	18.9
3485.315	20.9
3488.209	7.9
3491.101	7.9
3493.99	8.9
3496.878	6.9
3499.763	-1.1
3502.646	3.9
3505.527	0.9
3508.405	3.9
3511.281	3.9
3514.155	0.9
3517.027	-8.1
3519.897	4.9
3522.764	-3.1
3525.629	-11.1
3528.492	-8.1
3531.352	-21.1
3534.211	-16.1
3537.067	-16.1
3539.921	-21.1
3542.773	-25.1
3545.622	-21.1
3548.469	-21.1
3551.315	-22.1
3554.157	-23.1
3556.998	-17.1
3559.837	-26.1
3562.673	-25.1
3565.507	-26.1
3568.339	-21.1
3571.169	-31.1
3573.996	-22.1
3576.822	-36.1
3579.645	-33.1
3582.466	-35.1
3585.285	-37.1
3588.101	-37.1
3590.916	-34.1
3593.728	-33.1
3596.538	-37.1
3599.346	-39.1
3602.152	-38.1
3604.956	-34.1
3607.757	-31.1
3610.556	-36.1
3613.354	-44.1
3616.149	-44.1
3618.942	-42.1
3621.732	-45.1
3624.521	-41.1
3627.307	-42.1
3630.092	-46.1
3632.874	-45.1
3635.654	-46.1
3638.432	-43.1
3641.208	-41.1
3643.982	-36.1
3646.753	-45.1
3649.523	-41.1
3652.29	-46.1
3655.055	-42.1
3657.818	-48.1
3660.579	-48.1
3663.338	-44.1
3666.095	-48.1
3668.849	-51.1
3671.602	-46.1
3674.352	-46.1
3677.101	-50.1
3679.847	-45.1
3682.591	-47.1
3685.333	-45.1
3688.073	-50.1
3690.811	-47.1
3693.547	-51.1
3696.281	-50.1
3699.013	-50.1
3701.742	-54.1
3704.47	-43.1
3707.195	-53.1
3709.919	-54.1
3712.64	-51.1
3715.359	-56.1
3718.076	-53.1
3720.792	-55.1
3723.505	-53.1
3726.216	-47.1
3728.925	-54.1
3731.632	-47.1
3734.336	-53.1
3737.039	-51.1
3739.74	-52.1
3742.439	-55.1
3745.136	-56.1
3747.83	-53.1
3750.523	-60.1
3753.213	-68.1
3755.902	-58.1
3758.589	-58.1
3761.273	-52.1
3763.956	-60.1
3766.636	-53.1
3769.315	-46.1
3771.991	-51.1
3774.665	-58.1
3777.338	-52.1
3780.008	-56.1
3782.677	-57.1
3785.343	-57.1
3788.007	-53.1
3790.67	-58.1
3793.33	-58.1
3795.989	-56.1
3798.645	-52.1
3801.299	-55.1
3803.952	-54.1
3806.602	-55.1
3809.251	-56.1
3811.897	-60.1
3814.542	-60.1
3817.184	-57.1
3819.825	-56.1
3822.463	-55.1
3825.1	-55.1
3827.735	-64.1
3830.367	-58.1
3832.998	-63.1
3835.627	-60.1
3838.253	-54.1
3840.878	-54.1
3843.501	-50.1
3846.122	-58.1
3848.741	-57.1
3851.358	-53.1
3853.973	-52.1
3856.586	-54.1
3859.197	-55.1
3861.806	-59.1
3864.414	-61.1
3867.019	-59.1
3869.622	-49.1
3872.224	-45.1
3874.823	-36.1
3877.421	-26.1
3880.016	-12.1
3882.61	7.9
3885.202	12.9
3887.792	5.9
3890.38	-17.1
3892.966	-39.1
3895.55	-47.1
3898.132	-57.1
3900.713	-54.1
3903.291	-64.1
3905.868	-52.1
3908.442	-59.1
3911.015	-58.1
3913.586	-59.1
3916.155	-60.1
3918.722	-60.1
3921.287	-58.1
3923.85	-51.1
3926.411	-59.1
3928.971	-63.1
3931.528	-59.1
3934.084	-57.1
3936.638	-53.1
3939.19	-62.1
3941.74	-53.1
3944.288	-59.1
3946.834	-59.1
3949.378	-60.1
3951.921	-57.1
3954.462	-62.1
3957	-59.1
3959.537	-50.1
3962.072	-51.1
3964.606	-51.1
3967.137	-52.1
3969.667	-56.1
3972.194	-56.1
3974.72	-53.1
3977.244	-57.1
3979.766	-61.1
3982.286	-58.1
3984.805	-65.1
3987.321	-55.1
3989.836	-53.1
3992.349	-58.1
3994.86	-62.1
3997.369	-59.1
3999.877	-55.1
4002.382	-53.1
4004.886	-52.1
4007.388	-57.1
4009.888	-55.1
4012.386	-59.1
4014.883	-56.1
4017.377	-56.1
4019.87	-58.1
4022.361	-59.1
4024.85	-58.1
4027.338	-63.1
4029.823	-62.1
4032.307	-61.1
4034.789	-49.1
4037.269	-55.1
4039.747	-57.1
4042.224	-57.1
4044.699	-58.1
4047.172	-57.1
4049.643	-61.1
4052.112	-57.1
4054.58	-62.1
4057.046	-55.1
4059.51	-61.1
4061.972	-58.1
4064.432	-57.1
4066.891	-59.1
4069.348	-56.1
4071.803	-51.1
4074.256	-59.1
4076.708	-54.1
4079.158	-62.1
4081.606	-55.1
4084.052	-61.1
4086.497	-53.1
4088.939	-59.1
4091.38	-59.1
4093.819	-62.1
4096.257	-59.1
4098.693	-58.1
4101.127	-51.1
4103.559	-64.1
4105.989	22.9
4108.418	17.9
4110.845	12.9
4113.27	8.9
4115.694	10.9
4118.115	12.9
4120.535	-59.1
4122.954	-58.1
4125.37	-59.1
4127.785	-53.1
4130.198	-56.1
4132.609	-57.1
4135.019	-59.1
4137.427	-62.1
4139.833	-57.1
4142.237	-59.1
