Data from 2018-3-7_conc=0_n=5_RamanShift_02.txt Node
Date: Wed Mar 07 10:19:23 IST 2018
User: aro
Spectrometer: QEPB0276
Trigger mode: 0
Integration Time (sec): 3.000000E1
Scans to average: 1
Electric dark correction enabled: true
Nonlinearity correction enabled: false
Boxcar width: 0
XAxis mode: Raman Shifts
Number of Pixels in Spectrum: 1044
>>>>>Begin Spectral Data<<<<<
160.701	13.4
166.742	27.4
172.777	57.4
178.805	163.4
184.826	484.4
190.841	914.4
196.849	1469.4
202.85	1901.4
208.845	2084.4
214.833	2077.4
220.815	2060.4
226.789	2052.4
232.758	2076.4
238.719	2086.4
244.674	2087.4
250.623	2075.4
256.565	2083.4
262.5	2047.4
268.429	2044.4
274.351	2033.4
280.267	2004.4
286.176	2029.4
292.079	2012.4
297.975	2031.4
303.865	2024.4
309.748	2024.4
315.625	2019.4
321.495	2040.4
327.359	2057.4
333.217	2045.4
339.068	2067.4
344.912	2091.4
350.751	2081.4
356.583	2097.4
362.408	2078.4
368.227	2106.4
374.04	2115.4
379.847	2135.4
385.647	2131.4
391.44	2158.4
397.228	2142.4
403.009	2186.4
408.784	2193.4
414.553	2194.4
420.315	2207.4
426.071	2219.4
431.821	2206.4
437.565	2215.4
443.302	2220.4
449.033	2215.4
454.758	2191.4
460.477	2174.4
466.189	2162.4
471.896	2130.4
477.596	2119.4
483.29	2096.4
488.978	2087.4
494.66	2100.4
500.335	2038.4
506.005	1928.4
511.668	1843.4
517.325	1760.4
522.977	1670.4
528.622	1629.4
534.261	1582.4
539.894	1529.4
545.521	1527.4
551.141	1523.4
556.756	1484.4
562.365	1464.4
567.968	1473.4
573.565	1453.4
579.155	1442.4
584.74	1447.4
590.319	1414.4
595.892	1437.4
601.459	1427.4
607.02	1396.4
612.575	1423.4
618.124	1404.4
623.667	1376.4
629.204	1356.4
634.735	1344.4
640.261	1318.4
645.781	1322.4
651.294	1314.4
656.802	1301.4
662.304	1295.4
667.8	1304.4
673.29	1303.4
678.775	1292.4
684.254	1280.4
689.726	1277.4
695.193	1266.4
700.655	1249.4
706.11	1246.4
711.56	1244.4
717.004	1228.4
722.442	1220.4
727.874	1214.4
733.301	1223.4
738.722	1211.4
744.137	1205.4
749.547	1215.4
754.951	1201.4
760.349	1206.4
765.741	1217.4
771.128	1226.4
776.509	1220.4
781.885	1257.4
787.254	1260.4
792.618	1278.4
797.977	1265.4
803.33	1262.4
808.677	1261.4
814.019	1247.4
819.355	1239.4
824.686	1208.4
830.011	1216.4
835.33	1214.4
840.644	1216.4
845.952	1180.4
851.255	1188.4
856.552	1201.4
861.844	1189.4
867.13	1180.4
872.41	1211.4
877.686	1264.4
882.955	1292.4
888.219	1286.4
893.478	1212.4
898.731	1157.4
903.979	1100.4
909.221	1086.4
914.458	1070.4
919.69	1058.4
924.916	1071.4
930.136	1058.4
935.351	1061.4
940.561	1060.4
945.766	1060.4
950.965	1042.4
956.158	1042.4
961.347	1038.4
966.529	1008.4
971.707	997.4
976.879	987.4
982.046	985.4
987.208	982.4
992.364	986.4
997.515	974.4
1002.66	974.4
1007.801	1004.4
1012.936	1018.4
1018.066	1017.4
1023.19	1015.4
1028.309	1017.4
1033.423	1026.4
1038.532	1039.4
1043.636	1035.4
1048.734	1047.4
1053.827	1046.4
1058.915	1018.4
1063.998	1007.4
1069.075	1002.4
1074.147	991.4
1079.214	1001.4
1084.276	1024.4
1089.333	1027.4
1094.385	1027.4
1099.431	1012.4
1104.472	1008.4
1109.509	977.4
1114.54	949.4
1119.565	941.4
1124.586	927.4
1129.602	916.4
1134.613	904.4
1139.618	893.4
1144.619	899.4
1149.614	900.4
1154.604	903.4
1159.589	914.4
1164.57	908.4
1169.545	895.4
1174.515	900.4
1179.48	891.4
1184.44	900.4
1189.395	879.4
1194.345	875.4
1199.29	876.4
1204.23	878.4
1209.165	863.4
1214.095	875.4
1219.021	868.4
1223.941	879.4
1228.856	876.4
1233.766	877.4
1238.672	869.4
1243.572	883.4
1248.467	889.4
1253.358	858.4
1258.244	849.4
1263.124	836.4
1268	836.4
1272.871	815.4
1277.737	811.4
1282.599	820.4
1287.455	831.4
1292.306	830.4
1297.153	805.4
1301.995	805.4
1306.832	812.4
1311.664	812.4
1316.491	822.4
1321.314	806.4
1326.132	808.4
1330.945	800.4
1335.753	778.4
1340.556	760.4
1345.354	749.4
1350.148	727.4
1354.937	716.4
1359.722	701.4
1364.501	697.4
1369.276	668.4
1374.046	657.4
1378.811	666.4
1383.572	666.4
1388.327	662.4
1393.079	674.4
1397.825	676.4
1402.567	685.4
1407.304	671.4
1412.036	678.4
1416.764	683.4
1421.487	694.4
1426.205	696.4
1430.919	686.4
1435.628	702.4
1440.333	717.4
1445.032	707.4
1449.727	742.4
1454.418	759.4
1459.104	757.4
1463.785	747.4
1468.462	724.4
1473.134	674.4
1477.802	658.4
1482.465	626.4
1487.123	610.4
1491.777	595.4
1496.426	584.4
1501.071	566.4
1505.711	563.4
1510.347	555.4
1514.978	543.4
1519.604	553.4
1524.226	549.4
1528.844	545.4
1533.457	542.4
1538.065	534.4
1542.669	540.4
1547.269	543.4
1551.864	548.4
1556.454	564.4
1561.041	575.4
1565.622	578.4
1570.199	569.4
1574.772	563.4
1579.34	589.4
1583.904	579.4
1588.464	604.4
1593.019	592.4
1597.569	589.4
1602.115	591.4
1606.657	598.4
1611.195	589.4
1615.728	588.4
1620.256	573.4
1624.78	580.4
1629.3	564.4
1633.816	572.4
1638.327	593.4
1642.834	576.4
1647.336	571.4
1651.834	578.4
1656.328	568.4
1660.817	555.4
1665.302	561.4
1669.783	529.4
1674.259	535.4
1678.732	518.4
1683.199	496.4
1687.663	481.4
1692.122	444.4
1696.577	437.4
1701.028	411.4
1705.474	389.4
1709.917	385.4
1714.355	377.4
1718.788	374.4
1723.218	382.4
1727.643	384.4
1732.064	380.4
1736.481	378.4
1740.893	358.4
1745.301	375.4
1749.705	355.4
1754.105	355.4
1758.501	337.4
1762.893	330.4
1767.28	328.4
1771.663	320.4
1776.042	319.4
1780.417	306.4
1784.787	303.4
1789.154	301.4
1793.516	285.4
1797.874	276.4
1802.228	280.4
1806.578	279.4
1810.924	277.4
1815.266	286.4
1819.603	284.4
1823.937	292.4
1828.266	278.4
1832.591	284.4
1836.913	279.4
1841.23	286.4
1845.543	288.4
1849.852	289.4
1854.156	297.4
1858.457	287.4
1862.754	291.4
1867.047	286.4
1871.335	280.4
1875.62	279.4
1879.9	279.4
1884.177	269.4
1888.449	270.4
1892.718	274.4
1896.982	256.4
1901.243	256.4
1905.499	240.4
1909.752	238.4
1914	239.4
1918.245	235.4
1922.485	234.4
1926.722	225.4
1930.954	223.4
1935.183	225.4
1939.408	219.4
1943.628	215.4
1947.845	219.4
1952.058	213.4
1956.267	211.4
1960.472	219.4
1964.673	205.4
1968.87	202.4
1973.063	213.4
1977.252	211.4
1981.438	209.4
1985.619	204.4
1989.797	215.4
1993.971	212.4
1998.14	214.4
2002.306	219.4
2006.469	218.4
2010.627	216.4
2014.781	210.4
2018.932	212.4
2023.078	215.4
2027.221	212.4
2031.36	211.4
2035.495	201.4
2039.627	194.4
2043.754	193.4
2047.878	195.4
2051.998	201.4
2056.114	199.4
2060.226	196.4
2064.334	193.4
2068.439	182.4
2072.54	188.4
2076.637	188.4
2080.73	177.4
2084.82	181.4
2088.906	180.4
2092.988	185.4
2097.066	183.4
2101.14	175.4
2105.211	173.4
2109.278	167.4
2113.342	166.4
2117.401	166.4
2121.457	165.4
2125.509	167.4
2129.558	164.4
2133.602	163.4
2137.643	163.4
2141.681	157.4
2145.714	169.4
2149.744	168.4
2153.77	168.4
2157.793	165.4
2161.812	168.4
2165.827	166.4
2169.838	159.4
2173.846	159.4
2177.851	155.4
2181.851	163.4
2185.848	161.4
2189.841	153.4
2193.831	158.4
2197.817	153.4
2201.799	152.4
2205.778	153.4
2209.753	157.4
2213.725	150.4
2217.693	158.4
2221.657	149.4
2225.618	146.4
2229.575	153.4
2233.529	147.4
2237.479	144.4
2241.425	139.4
2245.368	145.4
2249.307	144.4
2253.243	133.4
2257.175	139.4
2261.104	128.4
2265.029	131.4
2268.95	136.4
2272.868	129.4
2276.783	130.4
2280.694	124.4
2284.601	123.4
2288.505	130.4
2292.405	126.4
2296.302	130.4
2300.195	124.4
2304.085	117.4
2307.971	119.4
2311.854	110.4
2315.734	116.4
2319.609	115.4
2323.482	116.4
2327.351	124.4
2331.216	135.4
2335.078	150.4
2338.937	140.4
2342.792	121.4
2346.643	118.4
2350.492	115.4
2354.336	119.4
2358.178	116.4
2362.015	125.4
2365.85	112.4
2369.681	125.4
2373.508	122.4
2377.333	119.4
2381.153	116.4
2384.971	114.4
2388.785	111.4
2392.595	116.4
2396.402	115.4
2400.206	116.4
2404.007	118.4
2407.804	112.4
2411.597	105.4
2415.388	110.4
2419.174	120.4
2422.958	107.4
2426.738	116.4
2430.515	108.4
2434.289	106.4
2438.059	102.4
2441.825	98.4
2445.589	110.4
2449.349	99.4
2453.106	104.4
2456.859	98.4
2460.61	102.4
2464.356	97.4
2468.1	91.4
2471.84	96.4
2475.577	84.4
2479.311	102.4
2483.041	87.4
2486.768	91.4
2490.492	93.4
2494.213	88.4
2497.93	89.4
2501.644	96.4
2505.355	82.4
2509.062	81.4
2512.766	84.4
2516.467	79.4
2520.165	76.4
2523.859	89.4
2527.551	70.4
2531.239	81.4
2534.923	70.4
2538.605	74.4
2542.283	67.4
2545.958	67.4
2549.63	66.4
2553.299	66.4
2556.964	63.4
2560.626	59.4
2564.285	61.4
2567.941	59.4
2571.594	56.4
2575.243	63.4
2578.89	64.4
2582.533	55.4
2586.173	61.4
2589.809	64.4
2593.443	66.4
2597.073	60.4
2600.701	62.4
2604.325	52.4
2607.946	46.4
2611.564	60.4
2615.178	61.4
2618.79	51.4
2622.398	56.4
2626.004	48.4
2629.606	47.4
2633.205	53.4
2636.801	55.4
2640.394	51.4
2643.983	53.4
2647.57	46.4
2651.153	53.4
2654.734	47.4
2658.311	45.4
2661.885	50.4
2665.456	48.4
2669.025	53.4
2672.589	45.4
2676.151	42.4
2679.71	39.4
2683.266	38.4
2686.819	47.4
2690.368	41.4
2693.915	47.4
2697.458	38.4
2700.999	42.4
2704.536	44.4
2708.071	43.4
2711.602	38.4
2715.13	33.4
2718.656	37.4
2722.178	40.4
2725.697	32.4
2729.214	28.4
2732.727	40.4
2736.237	38.4
2739.744	32.4
2743.249	30.4
2746.75	35.4
2750.248	30.4
2753.743	22.4
2757.236	23.4
2760.725	24.4
2764.211	13.4
2767.695	16.4
2771.175	17.4
2774.652	26.4
2778.127	19.4
2781.598	20.4
2785.067	21.4
2788.532	18.4
2791.995	22.4
2795.455	20.4
2798.911	22.4
2802.365	20.4
2805.816	20.4
2809.264	24.4
2812.709	19.4
2816.151	30.4
2819.59	38.4
2823.026	21.4
2826.46	30.4
2829.89	33.4
2833.318	24.4
2836.742	29.4
2840.164	29.4
2843.583	30.4
2846.999	39.4
2850.412	38.4
2853.822	28.4
2857.229	41.4
2860.634	34.4
2864.035	40.4
2867.434	45.4
2870.83	47.4
2874.223	56.4
2877.613	61.4
2881	57.4
2884.385	73.4
2887.766	77.4
2891.145	72.4
2894.521	78.4
2897.894	71.4
2901.264	72.4
2904.631	62.4
2907.996	79.4
2911.358	76.4
2914.717	75.4
2918.073	69.4
2921.426	72.4
2924.777	88.4
2928.124	93.4
2931.469	99.4
2934.811	107.4
2938.15	112.4
2941.487	120.4
2944.821	107.4
2948.152	106.4
2951.48	97.4
2954.805	87.4
2958.128	79.4
2961.447	83.4
2964.765	66.4
2968.079	64.4
2971.39	72.4
2974.699	58.4
2978.005	73.4
2981.308	70.4
2984.609	70.4
2987.907	65.4
2991.202	68.4
2994.494	62.4
2997.784	60.4
3001.07	61.4
3004.355	55.4
3007.636	54.4
3010.915	53.4
3014.191	49.4
3017.464	48.4
3020.734	59.4
3024.002	58.4
3027.267	60.4
3030.53	59.4
3033.789	56.4
3037.046	60.4
3040.301	63.4
3043.552	58.4
3046.801	65.4
3050.048	62.4
3053.291	68.4
3056.532	68.4
3059.771	63.4
3063.006	75.4
3066.239	78.4
3069.469	86.4
3072.697	89.4
3075.922	97.4
3079.144	89.4
3082.364	87.4
3085.581	89.4
3088.795	97.4
3092.007	94.4
3095.216	97.4
3098.423	105.4
3101.627	101.4
3104.828	110.4
3108.026	102.4
3111.222	109.4
3114.416	112.4
3117.607	122.4
3120.795	122.4
3123.98	119.4
3127.163	132.4
3130.344	131.4
3133.521	126.4
3136.696	124.4
3139.869	144.4
3143.039	136.4
3146.206	139.4
3149.371	140.4
3152.533	150.4
3155.693	155.4
3158.85	145.4
3162.005	145.4
3165.157	151.4
3168.306	152.4
3171.453	140.4
3174.597	148.4
3177.739	153.4
3180.878	150.4
3184.014	143.4
3187.149	147.4
3190.28	146.4
3193.409	157.4
3196.536	149.4
3199.659	156.4
3202.781	148.4
3205.9	139.4
3209.016	142.4
3212.13	149.4
3215.241	145.4
3218.35	130.4
3221.456	148.4
3224.56	139.4
3227.661	138.4
3230.76	129.4
3233.856	129.4
3236.95	128.4
3240.041	118.4
3243.13	125.4
3246.216	112.4
3249.3	112.4
3252.382	115.4
3255.46	121.4
3258.537	109.4
3261.611	106.4
3264.682	104.4
3267.751	104.4
3270.818	100.4
3273.882	113.4
3276.943	104.4
3280.002	101.4
3283.059	99.4
3286.113	97.4
3289.165	97.4
3292.214	101.4
3295.261	103.4
3298.306	97.4
3301.348	100.4
3304.387	92.4
3307.425	94.4
3310.459	96.4
3313.492	89.4
3316.521	89.4
3319.549	102.4
3322.574	98.4
3325.597	92.4
3328.617	97.4
3331.635	102.4
3334.65	97.4
3337.663	89.4
3340.674	94.4
3343.682	92.4
3346.688	99.4
3349.691	92.4
3352.692	98.4
3355.691	97.4
3358.687	89.4
3361.681	90.4
3364.673	91.4
3367.662	88.4
3370.649	89.4
3373.633	90.4
3376.615	80.4
3379.595	79.4
3382.572	71.4
3385.547	75.4
3388.52	70.4
3391.49	74.4
3394.458	75.4
3397.424	68.4
3400.387	74.4
3403.348	61.4
3406.307	59.4
3409.263	61.4
3412.217	65.4
3415.168	67.4
3418.118	58.4
3421.065	56.4
3424.009	60.4
3426.951	51.4
3429.891	53.4
3432.829	51.4
3435.764	55.4
3438.697	50.4
3441.628	47.4
3444.557	41.4
3447.483	37.4
3450.407	26.4
3453.328	35.4
3456.247	30.4
3459.164	32.4
3462.079	23.4
3464.991	26.4
3467.902	24.4
3470.809	22.4
3473.715	11.4
3476.618	11.4
3479.519	9.4
3482.418	5.4
3485.315	13.4
3488.209	5.4
3491.101	0.4
3493.99	5.4
3496.878	2.4
3499.763	-6.6
3502.646	-2.6
3505.527	0.4
3508.405	-4.6
3511.281	-6.6
3514.155	-12.6
3517.027	-15.6
3519.897	-10.6
3522.764	-18.6
3525.629	-11.6
3528.492	-14.6
3531.352	-20.6
3534.211	-22.6
3537.067	-24.6
3539.921	-22.6
3542.773	-27.6
3545.622	-27.6
3548.469	-21.6
3551.315	-31.6
3554.157	-33.6
3556.998	-26.6
3559.837	-33.6
3562.673	-35.6
3565.507	-29.6
3568.339	-34.6
3571.169	-31.6
3573.996	-27.6
3576.822	-38.6
3579.645	-37.6
3582.466	-34.6
3585.285	-38.6
3588.101	-39.6
3590.916	-34.6
3593.728	-47.6
3596.538	-40.6
3599.346	-42.6
3602.152	-39.6
3604.956	-44.6
3607.757	-37.6
3610.556	-39.6
3613.354	-47.6
3616.149	-41.6
3618.942	-42.6
3621.732	-46.6
3624.521	-44.6
3627.307	-47.6
3630.092	-48.6
3632.874	-50.6
3635.654	-49.6
3638.432	-40.6
3641.208	-46.6
3643.982	-46.6
3646.753	-47.6
3649.523	-46.6
3652.29	-52.6
3655.055	-49.6
3657.818	-47.6
3660.579	-45.6
3663.338	-45.6
3666.095	-52.6
3668.849	-54.6
3671.602	-52.6
3674.352	-46.6
3677.101	-52.6
3679.847	-48.6
3682.591	-52.6
3685.333	-51.6
3688.073	-58.6
3690.811	-53.6
3693.547	-59.6
3696.281	-48.6
3699.013	-51.6
3701.742	-55.6
3704.47	-51.6
3707.195	-53.6
3709.919	-58.6
3712.64	-58.6
3715.359	-55.6
3718.076	-50.6
3720.792	-57.6
3723.505	-54.6
3726.216	-56.6
3728.925	-58.6
3731.632	-52.6
3734.336	-58.6
3737.039	-55.6
3739.74	-60.6
3742.439	-57.6
3745.136	-58.6
3747.83	-54.6
3750.523	-57.6
3753.213	-73.6
3755.902	-59.6
3758.589	-57.6
3761.273	-56.6
3763.956	-58.6
3766.636	-54.6
3769.315	-52.6
3771.991	-56.6
3774.665	-62.6
3777.338	-55.6
3780.008	-57.6
3782.677	-59.6
3785.343	-59.6
3788.007	-58.6
3790.67	-59.6
3793.33	-60.6
3795.989	-62.6
3798.645	-59.6
3801.299	-56.6
3803.952	-60.6
3806.602	-59.6
3809.251	-65.6
3811.897	-66.6
3814.542	-68.6
3817.184	-61.6
3819.825	-53.6
3822.463	-56.6
3825.1	-57.6
3827.735	-62.6
3830.367	-58.6
3832.998	-60.6
3835.627	-62.6
3838.253	-54.6
3840.878	-55.6
3843.501	-54.6
3846.122	-61.6
3848.741	-62.6
3851.358	-60.6
3853.973	-61.6
3856.586	-56.6
3859.197	-56.6
3861.806	-59.6
3864.414	-60.6
3867.019	-64.6
3869.622	-56.6
3872.224	-47.6
3874.823	-47.6
3877.421	-39.6
3880.016	-26.6
3882.61	-6.6
3885.202	-7.6
3887.792	-10.6
3890.38	-27.6
3892.966	-45.6
3895.55	-57.6
3898.132	-51.6
3900.713	-58.6
3903.291	-61.6
3905.868	-53.6
3908.442	-60.6
3911.015	-62.6
3913.586	-66.6
3916.155	-57.6
3918.722	-60.6
3921.287	-64.6
3923.85	-55.6
3926.411	-48.6
3928.971	-55.6
3931.528	-66.6
3934.084	-55.6
3936.638	-57.6
3939.19	-64.6
3941.74	-60.6
3944.288	-58.6
3946.834	-59.6
3949.378	-63.6
3951.921	-62.6
3954.462	-62.6
3957	-48.6
3959.537	-47.6
3962.072	-59.6
3964.606	-64.6
3967.137	-59.6
3969.667	-63.6
3972.194	-59.6
3974.72	-56.6
3977.244	-58.6
3979.766	-61.6
3982.286	-65.6
3984.805	-72.6
3987.321	-59.6
3989.836	-57.6
3992.349	-57.6
3994.86	-62.6
3997.369	-63.6
3999.877	-60.6
4002.382	-62.6
4004.886	-61.6
4007.388	-60.6
4009.888	-58.6
4012.386	-59.6
4014.883	-55.6
4017.377	-60.6
4019.87	-62.6
4022.361	-64.6
4024.85	-59.6
4027.338	-64.6
4029.823	-63.6
4032.307	-63.6
4034.789	-54.6
4037.269	-62.6
4039.747	-59.6
4042.224	-65.6
4044.699	-63.6
4047.172	-63.6
4049.643	-60.6
4052.112	-60.6
4054.58	-60.6
4057.046	-61.6
4059.51	-64.6
4061.972	-68.6
4064.432	-62.6
4066.891	-52.6
4069.348	-57.6
4071.803	-56.6
4074.256	-60.6
4076.708	-65.6
4079.158	-61.6
4081.606	-58.6
4084.052	-61.6
4086.497	-55.6
4088.939	-54.6
4091.38	-60.6
4093.819	-68.6
4096.257	-60.6
4098.693	-66.6
4101.127	-54.6
4103.559	-66.6
4105.989	17.4
4108.418	10.4
4110.845	2.4
4113.27	9.4
4115.694	8.4
4118.115	14.4
4120.535	-61.6
4122.954	-60.6
4125.37	-59.6
4127.785	-55.6
4130.198	-58.6
4132.609	-61.6
4135.019	-63.6
4137.427	-69.6
4139.833	-64.6
4142.237	-63.6
