Data from 2018-3-7_conc=5_n=9_RamanShift_02.txt Node
Date: Wed Mar 07 12:50:52 IST 2018
User: aro
Spectrometer: QEPB0276
Trigger mode: 0
Integration Time (sec): 3.000000E1
Scans to average: 1
Electric dark correction enabled: true
Nonlinearity correction enabled: false
Boxcar width: 0
XAxis mode: Raman Shifts
Number of Pixels in Spectrum: 1044
>>>>>Begin Spectral Data<<<<<
160.701	-2.1
166.742	25.9
172.777	79.9
178.805	250.9
184.826	704.9
190.841	1566.9
196.849	2583.9
202.85	3425.9
208.845	3786.9
214.833	3746.9
220.815	3698.9
226.789	3697.9
232.758	3699.9
238.719	3682.9
244.674	3645.9
250.623	3604.9
256.565	3538.9
262.5	3474.9
268.429	3408.9
274.351	3389.9
280.267	3350.9
286.176	3311.9
292.079	3283.9
297.975	3283.9
303.865	3240.9
309.748	3237.9
315.625	3225.9
321.495	3218.9
327.359	3213.9
333.217	3223.9
339.068	3225.9
344.912	3213.9
350.751	3218.9
356.583	3200.9
362.408	3200.9
368.227	3223.9
374.04	3228.9
379.847	3221.9
385.647	3210.9
391.44	3269.9
397.228	3234.9
403.009	3268.9
408.784	3298.9
414.553	3294.9
420.315	3317.9
426.071	3320.9
431.821	3285.9
437.565	3287.9
443.302	3292.9
449.033	3275.9
454.758	3282.9
460.477	3268.9
466.189	3272.9
471.896	3244.9
477.596	3227.9
483.29	3235.9
488.978	3211.9
494.66	3169.9
500.335	3168.9
506.005	3117.9
511.668	3062.9
517.325	3004.9
522.977	2931.9
528.622	2894.9
534.261	2880.9
539.894	2875.9
545.521	2850.9
551.141	2827.9
556.756	2798.9
562.365	2797.9
567.968	2797.9
573.565	2774.9
579.155	2744.9
584.74	2760.9
590.319	2723.9
595.892	2725.9
601.459	2714.9
607.02	2684.9
612.575	2673.9
618.124	2673.9
623.667	2647.9
629.204	2630.9
634.735	2595.9
640.261	2594.9
645.781	2578.9
651.294	2581.9
656.802	2578.9
662.304	2549.9
667.8	2558.9
673.29	2578.9
678.775	2540.9
684.254	2543.9
689.726	2516.9
695.193	2531.9
700.655	2490.9
706.11	2495.9
711.56	2473.9
717.004	2458.9
722.442	2440.9
727.874	2453.9
733.301	2431.9
738.722	2432.9
744.137	2409.9
749.547	2408.9
754.951	2416.9
760.349	2420.9
765.741	2406.9
771.128	2414.9
776.509	2425.9
781.885	2442.9
787.254	2446.9
792.618	2418.9
797.977	2403.9
803.33	2384.9
808.677	2378.9
814.019	2348.9
819.355	2356.9
824.686	2340.9
830.011	2312.9
835.33	2330.9
840.644	2315.9
845.952	2349.9
851.255	2312.9
856.552	2327.9
861.844	2316.9
867.13	2307.9
872.41	2275.9
877.686	2296.9
882.955	2277.9
888.219	2252.9
893.478	2196.9
898.731	2188.9
903.979	2154.9
909.221	2156.9
914.458	2140.9
919.69	2135.9
924.916	2150.9
930.136	2157.9
935.351	2130.9
940.561	2156.9
945.766	2160.9
950.965	2154.9
956.158	2143.9
961.347	2109.9
966.529	2088.9
971.707	2058.9
976.879	2014.9
982.046	2009.9
987.208	2010.9
992.364	1986.9
997.515	2012.9
1002.66	2028.9
1007.801	2043.9
1012.936	2063.9
1018.066	2069.9
1023.19	2059.9
1028.309	2060.9
1033.423	2037.9
1038.532	2029.9
1043.636	2014.9
1048.734	2004.9
1053.827	1962.9
1058.915	1942.9
1063.998	1934.9
1069.075	1909.9
1074.147	1943.9
1079.214	1917.9
1084.276	1944.9
1089.333	1944.9
1094.385	1955.9
1099.431	1946.9
1104.472	1969.9
1109.509	1937.9
1114.54	1913.9
1119.565	1890.9
1124.586	1867.9
1129.602	1863.9
1134.613	1853.9
1139.618	1817.9
1144.619	1821.9
1149.614	1818.9
1154.604	1805.9
1159.589	1825.9
1164.57	1828.9
1169.545	1837.9
1174.515	1840.9
1179.48	1832.9
1184.44	1827.9
1189.395	1792.9
1194.345	1778.9
1199.29	1778.9
1204.23	1748.9
1209.165	1771.9
1214.095	1771.9
1219.021	1803.9
1223.941	1818.9
1228.856	1824.9
1233.766	1814.9
1238.672	1821.9
1243.572	1807.9
1248.467	1807.9
1253.358	1786.9
1258.244	1770.9
1263.124	1730.9
1268	1714.9
1272.871	1693.9
1277.737	1684.9
1282.599	1668.9
1287.455	1673.9
1292.306	1666.9
1297.153	1675.9
1301.995	1685.9
1306.832	1702.9
1311.664	1702.9
1316.491	1725.9
1321.314	1705.9
1326.132	1690.9
1330.945	1658.9
1335.753	1652.9
1340.556	1607.9
1345.354	1577.9
1350.148	1540.9
1354.937	1510.9
1359.722	1444.9
1364.501	1423.9
1369.276	1386.9
1374.046	1355.9
1378.811	1354.9
1383.572	1342.9
1388.327	1351.9
1393.079	1366.9
1397.825	1385.9
1402.567	1401.9
1407.304	1409.9
1412.036	1408.9
1416.764	1433.9
1421.487	1423.9
1426.205	1427.9
1430.919	1413.9
1435.628	1420.9
1440.333	1427.9
1445.032	1407.9
1449.727	1467.9
1454.418	1435.9
1459.104	1433.9
1463.785	1416.9
1468.462	1388.9
1473.134	1350.9
1477.802	1308.9
1482.465	1282.9
1487.123	1249.9
1491.777	1223.9
1496.426	1203.9
1501.071	1190.9
1505.711	1159.9
1510.347	1154.9
1514.978	1159.9
1519.604	1159.9
1524.226	1156.9
1528.844	1153.9
1533.457	1141.9
1538.065	1151.9
1542.669	1149.9
1547.269	1142.9
1551.864	1155.9
1556.454	1170.9
1561.041	1194.9
1565.622	1208.9
1570.199	1214.9
1574.772	1217.9
1579.34	1243.9
1583.904	1273.9
1588.464	1288.9
1593.019	1280.9
1597.569	1283.9
1602.115	1278.9
1606.657	1284.9
1611.195	1275.9
1615.728	1278.9
1620.256	1259.9
1624.78	1265.9
1629.3	1257.9
1633.816	1271.9
1638.327	1272.9
1642.834	1272.9
1647.336	1263.9
1651.834	1274.9
1656.328	1256.9
1660.817	1237.9
1665.302	1225.9
1669.783	1198.9
1674.259	1168.9
1678.732	1136.9
1683.199	1090.9
1687.663	1063.9
1692.122	997.9
1696.577	937.9
1701.028	871.9
1705.474	822.9
1709.917	787.9
1714.355	793.9
1718.788	798.9
1723.218	817.9
1727.643	819.9
1732.064	811.9
1736.481	814.9
1740.893	797.9
1745.301	776.9
1749.705	782.9
1754.105	747.9
1758.501	733.9
1762.893	728.9
1767.28	715.9
1771.663	699.9
1776.042	686.9
1780.417	691.9
1784.787	676.9
1789.154	640.9
1793.516	631.9
1797.874	606.9
1802.228	597.9
1806.578	591.9
1810.924	583.9
1815.266	588.9
1819.603	600.9
1823.937	600.9
1828.266	604.9
1832.591	612.9
1836.913	625.9
1841.23	630.9
1845.543	619.9
1849.852	631.9
1854.156	634.9
1858.457	629.9
1862.754	642.9
1867.047	640.9
1871.335	634.9
1875.62	626.9
1879.9	619.9
1884.177	600.9
1888.449	609.9
1892.718	600.9
1896.982	560.9
1901.243	551.9
1905.499	544.9
1909.752	538.9
1914	524.9
1918.245	518.9
1922.485	505.9
1926.722	482.9
1930.954	489.9
1935.183	473.9
1939.408	477.9
1943.628	463.9
1947.845	466.9
1952.058	461.9
1956.267	457.9
1960.472	465.9
1964.673	449.9
1968.87	460.9
1973.063	459.9
1977.252	457.9
1981.438	457.9
1985.619	467.9
1989.797	476.9
1993.971	485.9
1998.14	493.9
2002.306	484.9
2006.469	500.9
2010.627	491.9
2014.781	496.9
2018.932	498.9
2023.078	495.9
2027.221	483.9
2031.36	478.9
2035.495	463.9
2039.627	454.9
2043.754	473.9
2047.878	455.9
2051.998	463.9
2056.114	456.9
2060.226	442.9
2064.334	430.9
2068.439	427.9
2072.54	423.9
2076.637	437.9
2080.73	423.9
2084.82	414.9
2088.906	405.9
2092.988	414.9
2097.066	394.9
2101.14	397.9
2105.211	383.9
2109.278	379.9
2113.342	369.9
2117.401	376.9
2121.457	368.9
2125.509	371.9
2129.558	369.9
2133.602	369.9
2137.643	376.9
2141.681	372.9
2145.714	377.9
2149.744	393.9
2153.77	389.9
2157.793	381.9
2161.812	396.9
2165.827	383.9
2169.838	371.9
2173.846	371.9
2177.851	372.9
2181.851	378.9
2185.848	363.9
2189.841	365.9
2193.831	355.9
2197.817	360.9
2201.799	359.9
2205.778	350.9
2209.753	357.9
2213.725	356.9
2217.693	348.9
2221.657	354.9
2225.618	347.9
2229.575	347.9
2233.529	354.9
2237.479	343.9
2241.425	349.9
2245.368	335.9
2249.307	333.9
2253.243	323.9
2257.175	328.9
2261.104	315.9
2265.029	315.9
2268.95	319.9
2272.868	316.9
2276.783	316.9
2280.694	307.9
2284.601	292.9
2288.505	303.9
2292.405	306.9
2296.302	305.9
2300.195	289.9
2304.085	281.9
2307.971	284.9
2311.854	284.9
2315.734	269.9
2319.609	274.9
2323.482	277.9
2327.351	273.9
2331.216	280.9
2335.078	287.9
2338.937	278.9
2342.792	274.9
2346.643	274.9
2350.492	279.9
2354.336	287.9
2358.178	271.9
2362.015	284.9
2365.85	273.9
2369.681	287.9
2373.508	287.9
2377.333	288.9
2381.153	284.9
2384.971	277.9
2388.785	281.9
2392.595	278.9
2396.402	276.9
2400.206	280.9
2404.007	280.9
2407.804	280.9
2411.597	278.9
2415.388	271.9
2419.174	275.9
2422.958	276.9
2426.738	270.9
2430.515	263.9
2434.289	262.9
2438.059	257.9
2441.825	259.9
2445.589	247.9
2449.349	260.9
2453.106	258.9
2456.859	245.9
2460.61	248.9
2464.356	240.9
2468.1	247.9
2471.84	242.9
2475.577	232.9
2479.311	229.9
2483.041	225.9
2486.768	223.9
2490.492	223.9
2494.213	229.9
2497.93	224.9
2501.644	226.9
2505.355	221.9
2509.062	219.9
2512.766	215.9
2516.467	210.9
2520.165	208.9
2523.859	208.9
2527.551	199.9
2531.239	195.9
2534.923	197.9
2538.605	186.9
2542.283	182.9
2545.958	185.9
2549.63	186.9
2553.299	185.9
2556.964	163.9
2560.626	176.9
2564.285	169.9
2567.941	170.9
2571.594	159.9
2575.243	170.9
2578.89	166.9
2582.533	161.9
2586.173	161.9
2589.809	159.9
2593.443	171.9
2597.073	160.9
2600.701	161.9
2604.325	156.9
2607.946	143.9
2611.564	159.9
2615.178	156.9
2618.79	148.9
2622.398	153.9
2626.004	148.9
2629.606	151.9
2633.205	153.9
2636.801	149.9
2640.394	148.9
2643.983	139.9
2647.57	144.9
2651.153	140.9
2654.734	134.9
2658.311	135.9
2661.885	148.9
2665.456	137.9
2669.025	143.9
2672.589	132.9
2676.151	132.9
2679.71	128.9
2683.266	134.9
2686.819	137.9
2690.368	130.9
2693.915	130.9
2697.458	122.9
2700.999	126.9
2704.536	121.9
2708.071	123.9
2711.602	110.9
2715.13	108.9
2718.656	107.9
2722.178	106.9
2725.697	101.9
2729.214	100.9
2732.727	101.9
2736.237	98.9
2739.744	90.9
2743.249	93.9
2746.75	87.9
2750.248	92.9
2753.743	83.9
2757.236	68.9
2760.725	78.9
2764.211	75.9
2767.695	77.9
2771.175	72.9
2774.652	69.9
2778.127	72.9
2781.598	66.9
2785.067	69.9
2788.532	72.9
2791.995	73.9
2795.455	70.9
2798.911	75.9
2802.365	77.9
2805.816	78.9
2809.264	76.9
2812.709	80.9
2816.151	79.9
2819.59	84.9
2823.026	82.9
2826.46	85.9
2829.89	82.9
2833.318	75.9
2836.742	92.9
2840.164	79.9
2843.583	76.9
2846.999	95.9
2850.412	81.9
2853.822	83.9
2857.229	89.9
2860.634	78.9
2864.035	85.9
2867.434	89.9
2870.83	98.9
2874.223	94.9
2877.613	99.9
2881	105.9
2884.385	109.9
2887.766	103.9
2891.145	105.9
2894.521	116.9
2897.894	107.9
2901.264	108.9
2904.631	111.9
2907.996	115.9
2911.358	122.9
2914.717	112.9
2918.073	118.9
2921.426	118.9
2924.777	123.9
2928.124	134.9
2931.469	138.9
2934.811	139.9
2938.15	142.9
2941.487	146.9
2944.821	138.9
2948.152	163.9
2951.48	147.9
2954.805	135.9
2958.128	141.9
2961.447	145.9
2964.765	136.9
2968.079	132.9
2971.39	140.9
2974.699	136.9
2978.005	146.9
2981.308	132.9
2984.609	133.9
2987.907	139.9
2991.202	132.9
2994.494	129.9
2997.784	121.9
3001.07	139.9
3004.355	135.9
3007.636	139.9
3010.915	137.9
3014.191	142.9
3017.464	138.9
3020.734	156.9
3024.002	153.9
3027.267	156.9
3030.53	163.9
3033.789	164.9
3037.046	172.9
3040.301	167.9
3043.552	183.9
3046.801	179.9
3050.048	192.9
3053.291	198.9
3056.532	204.9
3059.771	208.9
3063.006	218.9
3066.239	215.9
3069.469	239.9
3072.697	235.9
3075.922	252.9
3079.144	246.9
3082.364	258.9
3085.581	257.9
3088.795	277.9
3092.007	271.9
3095.216	280.9
3098.423	282.9
3101.627	290.9
3104.828	298.9
3108.026	297.9
3111.222	309.9
3114.416	314.9
3117.607	318.9
3120.795	320.9
3123.98	338.9
3127.163	351.9
3130.344	335.9
3133.521	350.9
3136.696	351.9
3139.869	374.9
3143.039	374.9
3146.206	380.9
3149.371	377.9
3152.533	393.9
3155.693	389.9
3158.85	393.9
3162.005	398.9
3165.157	397.9
3168.306	406.9
3171.453	404.9
3174.597	397.9
3177.739	408.9
3180.878	416.9
3184.014	401.9
3187.149	410.9
3190.28	417.9
3193.409	416.9
3196.536	414.9
3199.659	420.9
3202.781	419.9
3205.9	422.9
3209.016	416.9
3212.13	420.9
3215.241	414.9
3218.35	411.9
3221.456	409.9
3224.56	394.9
3227.661	383.9
3230.76	390.9
3233.856	380.9
3236.95	375.9
3240.041	362.9
3243.13	364.9
3246.216	346.9
3249.3	349.9
3252.382	344.9
3255.46	343.9
3258.537	334.9
3261.611	330.9
3264.682	332.9
3267.751	329.9
3270.818	329.9
3273.882	330.9
3276.943	324.9
3280.002	326.9
3283.059	320.9
3286.113	312.9
3289.165	315.9
3292.214	309.9
3295.261	318.9
3298.306	310.9
3301.348	313.9
3304.387	309.9
3307.425	302.9
3310.459	301.9
3313.492	294.9
3316.521	297.9
3319.549	303.9
3322.574	291.9
3325.597	291.9
3328.617	290.9
3331.635	296.9
3334.65	291.9
3337.663	290.9
3340.674	288.9
3343.682	297.9
3346.688	291.9
3349.691	295.9
3352.692	296.9
3355.691	300.9
3358.687	284.9
3361.681	276.9
3364.673	280.9
3367.662	283.9
3370.649	281.9
3373.633	274.9
3376.615	276.9
3379.595	260.9
3382.572	246.9
3385.547	253.9
3388.52	242.9
3391.49	235.9
3394.458	226.9
3397.424	228.9
3400.387	229.9
3403.348	227.9
3406.307	221.9
3409.263	228.9
3412.217	223.9
3415.168	229.9
3418.118	220.9
3421.065	216.9
3424.009	209.9
3426.951	206.9
3429.891	196.9
3432.829	194.9
3435.764	199.9
3438.697	185.9
3441.628	175.9
3444.557	169.9
3447.483	157.9
3450.407	153.9
3453.328	156.9
3456.247	146.9
3459.164	144.9
3462.079	130.9
3464.991	125.9
3467.902	124.9
3470.809	113.9
3473.715	113.9
3476.618	99.9
3479.519	98.9
3482.418	102.9
3485.315	90.9
3488.209	79.9
3491.101	81.9
3493.99	80.9
3496.878	71.9
3499.763	60.9
3502.646	64.9
3505.527	55.9
3508.405	50.9
3511.281	49.9
3514.155	44.9
3517.027	29.9
3519.897	41.9
3522.764	29.9
3525.629	26.9
3528.492	20.9
3531.352	14.9
3534.211	10.9
3537.067	9.9
3539.921	15.9
3542.773	2.9
3545.622	1.9
3548.469	-0.1
3551.315	-8.1
3554.157	-5.1
3556.998	-6.1
3559.837	-9.1
3562.673	-8.1
3565.507	-12.1
3568.339	-8.1
3571.169	-16.1
3573.996	-15.1
3576.822	-29.1
3579.645	-26.1
3582.466	-26.1
3585.285	-24.1
3588.101	-39.1
3590.916	-32.1
3593.728	-31.1
3596.538	-43.1
3599.346	-43.1
3602.152	-40.1
3604.956	-40.1
3607.757	-36.1
3610.556	-41.1
3613.354	-46.1
3616.149	-46.1
3618.942	-46.1
3621.732	-48.1
3624.521	-46.1
3627.307	-45.1
3630.092	-52.1
3632.874	-52.1
3635.654	-56.1
3638.432	-51.1
3641.208	-55.1
3643.982	-52.1
3646.753	-60.1
3649.523	-54.1
3652.29	-60.1
3655.055	-56.1
3657.818	-64.1
3660.579	-66.1
3663.338	-55.1
3666.095	-62.1
3668.849	-65.1
3671.602	-61.1
3674.352	-55.1
3677.101	-64.1
3679.847	-63.1
3682.591	-69.1
3685.333	-64.1
3688.073	-69.1
3690.811	-63.1
3693.547	-67.1
3696.281	-66.1
3699.013	-68.1
3701.742	-72.1
3704.47	-63.1
3707.195	-72.1
3709.919	-73.1
3712.64	-79.1
3715.359	-71.1
3718.076	-75.1
3720.792	-80.1
3723.505	-79.1
3726.216	-74.1
3728.925	-79.1
3731.632	-76.1
3734.336	-78.1
3737.039	-70.1
3739.74	-78.1
3742.439	-85.1
3745.136	-76.1
3747.83	-76.1
3750.523	-76.1
3753.213	-76.1
3755.902	-77.1
3758.589	-78.1
3761.273	-76.1
3763.956	-84.1
3766.636	-73.1
3769.315	-71.1
3771.991	-78.1
3774.665	-86.1
3777.338	-84.1
3780.008	-81.1
3782.677	-82.1
3785.343	-83.1
3788.007	-84.1
3790.67	-80.1
3793.33	-79.1
3795.989	-83.1
3798.645	-84.1
3801.299	-82.1
3803.952	-80.1
3806.602	-83.1
3809.251	-85.1
3811.897	-80.1
3814.542	-85.1
3817.184	-82.1
3819.825	-74.1
3822.463	-78.1
3825.1	-79.1
3827.735	-83.1
3830.367	-85.1
3832.998	-88.1
3835.627	-83.1
3838.253	-81.1
3840.878	-73.1
3843.501	-79.1
3846.122	-87.1
3848.741	-85.1
3851.358	-81.1
3853.973	-86.1
3856.586	-80.1
3859.197	-83.1
3861.806	-82.1
3864.414	-80.1
3867.019	-85.1
3869.622	-78.1
3872.224	-72.1
3874.823	-66.1
3877.421	-65.1
3880.016	-49.1
3882.61	-32.1
3885.202	-34.1
3887.792	-46.1
3890.38	-55.1
3892.966	-73.1
3895.55	-76.1
3898.132	-83.1
3900.713	-86.1
3903.291	-88.1
3905.868	-78.1
3908.442	-85.1
3911.015	-82.1
3913.586	-91.1
3916.155	-83.1
3918.722	-83.1
3921.287	-86.1
3923.85	-80.1
3926.411	-82.1
3928.971	-95.1
3931.528	-86.1
3934.084	-82.1
3936.638	-86.1
3939.19	-91.1
3941.74	-80.1
3944.288	-89.1
3946.834	-84.1
3949.378	-86.1
3951.921	-90.1
3954.462	-87.1
3957	-84.1
3959.537	-75.1
3962.072	-80.1
3964.606	-78.1
3967.137	-84.1
3969.667	-85.1
3972.194	-82.1
3974.72	-79.1
3977.244	-80.1
3979.766	-82.1
3982.286	-79.1
3984.805	-91.1
3987.321	-80.1
3989.836	-79.1
3992.349	-79.1
3994.86	-84.1
3997.369	-86.1
3999.877	-84.1
4002.382	-85.1
4004.886	-82.1
4007.388	-84.1
4009.888	-78.1
4012.386	-87.1
4014.883	-84.1
4017.377	-76.1
4019.87	-82.1
4022.361	-84.1
4024.85	-79.1
4027.338	-81.1
4029.823	-84.1
4032.307	-85.1
4034.789	-78.1
4037.269	-79.1
4039.747	-80.1
4042.224	-88.1
4044.699	-85.1
4047.172	-92.1
4049.643	-84.1
4052.112	-82.1
4054.58	-85.1
4057.046	-80.1
4059.51	-86.1
4061.972	-90.1
4064.432	-83.1
4066.891	-81.1
4069.348	-80.1
4071.803	-78.1
4074.256	-82.1
4076.708	-78.1
4079.158	-84.1
4081.606	-80.1
4084.052	-85.1
4086.497	-75.1
4088.939	-81.1
4091.38	-83.1
4093.819	-88.1
4096.257	-85.1
4098.693	-88.1
4101.127	-82.1
4103.559	-89.1
4105.989	-19.1
4108.418	-20.1
4110.845	-21.1
4113.27	-16.1
4115.694	-4.1
4118.115	-7.1
4120.535	-85.1
4122.954	-81.1
4125.37	-84.1
4127.785	-83.1
4130.198	-84.1
4132.609	-86.1
4135.019	-88.1
4137.427	-92.1
4139.833	-87.1
4142.237	-87.1
