Data from 2018-3-7_conc=0_n=6_RamanShift_07.txt Node
Date: Wed Mar 07 10:25:22 IST 2018
User: aro
Spectrometer: QEPB0276
Trigger mode: 0
Integration Time (sec): 3.000000E1
Scans to average: 1
Electric dark correction enabled: true
Nonlinearity correction enabled: false
Boxcar width: 0
XAxis mode: Raman Shifts
Number of Pixels in Spectrum: 1044
>>>>>Begin Spectral Data<<<<<
160.701	-64.5
166.742	66.5
172.777	416.5
178.805	1424.5
184.826	3716.5
190.841	7596.5
196.849	12209.5
202.85	15789.5
208.845	17502.5
214.833	18033.5
220.815	18403.5
226.789	18896.5
232.758	19396.5
238.719	19975.5
244.674	20822.5
250.623	22046.5
256.565	23126.5
262.5	23832.5
268.429	23831.5
274.351	22889.5
280.267	21747.5
286.176	21589.5
292.079	21991.5
297.975	22316.5
303.865	22437.5
309.748	22378.5
315.625	22456.5
321.495	22677.5
327.359	22994.5
333.217	23191.5
339.068	23220.5
344.912	23140.5
350.751	23059.5
356.583	23019.5
362.408	22906.5
368.227	22826.5
374.04	22735.5
379.847	22737.5
385.647	23012.5
391.44	23914.5
397.228	25555.5
403.009	27451.5
408.784	29543.5
414.553	32195.5
420.315	35059.5
426.071	32149.5
431.821	25773.5
437.565	22463.5
443.302	21641.5
449.033	20994.5
454.758	20739.5
460.477	20520.5
466.189	20212.5
471.896	19864.5
477.596	19734.5
483.29	19519.5
488.978	19074.5
494.66	18864.5
500.335	19242.5
506.005	19710.5
511.668	19494.5
517.325	19300.5
522.977	19530.5
528.622	19915.5
534.261	19959.5
539.894	19959.5
545.521	20472.5
551.141	21494.5
556.756	22418.5
562.365	22502.5
567.968	22034.5
573.565	21279.5
579.155	20092.5
584.74	18387.5
590.319	17364.5
595.892	18113.5
601.459	20182.5
607.02	21590.5
612.575	22117.5
618.124	22426.5
623.667	22454.5
629.204	22369.5
634.735	22871.5
640.261	23976.5
645.781	24238.5
651.294	23009.5
656.802	21285.5
662.304	20886.5
667.8	21157.5
673.29	21397.5
678.775	21381.5
684.254	21480.5
689.726	21781.5
695.193	21989.5
700.655	21906.5
706.11	22056.5
711.56	22100.5
717.004	21918.5
722.442	21688.5
727.874	21821.5
733.301	22039.5
738.722	22061.5
744.137	21995.5
749.547	22331.5
754.951	22799.5
760.349	23252.5
765.741	23561.5
771.128	23641.5
776.509	23683.5
781.885	23823.5
787.254	23891.5
792.618	24133.5
797.977	24110.5
803.33	24085.5
808.677	24106.5
814.019	24103.5
819.355	24090.5
824.686	24248.5
830.011	24544.5
835.33	25122.5
840.644	26428.5
845.952	28551.5
851.255	29386.5
856.552	28229.5
861.844	27652.5
867.13	30166.5
872.41	32677.5
877.686	31079.5
882.955	27351.5
888.219	25215.5
893.478	24911.5
898.731	24921.5
903.979	24989.5
909.221	25150.5
914.458	25347.5
919.69	25394.5
924.916	25492.5
930.136	25439.5
935.351	25540.5
940.561	25800.5
945.766	25898.5
950.965	25881.5
956.158	25753.5
961.347	25478.5
966.529	24511.5
971.707	23257.5
976.879	22727.5
982.046	23314.5
987.208	24374.5
992.364	24732.5
997.515	25185.5
1002.66	26403.5
1007.801	27528.5
1012.936	27129.5
1018.066	25903.5
1023.19	24837.5
1028.309	23081.5
1033.423	21049.5
1038.532	20833.5
1043.636	22638.5
1048.734	24366.5
1053.827	24787.5
1058.915	24968.5
1063.998	25025.5
1069.075	25192.5
1074.147	25286.5
1079.214	25428.5
1084.276	25554.5
1089.333	25842.5
1094.385	25946.5
1099.431	26163.5
1104.472	26091.5
1109.509	25913.5
1114.54	25773.5
1119.565	25716.5
1124.586	25432.5
1129.602	25155.5
1134.613	25072.5
1139.618	25135.5
1144.619	25324.5
1149.614	25511.5
1154.604	25734.5
1159.589	25784.5
1164.57	25886.5
1169.545	25798.5
1174.515	25726.5
1179.48	25261.5
1184.44	24763.5
1189.395	23682.5
1194.345	21860.5
1199.29	21086.5
1204.23	22621.5
1209.165	24496.5
1214.095	25055.5
1219.021	25220.5
1223.941	25586.5
1228.856	25656.5
1233.766	25593.5
1238.672	25909.5
1243.572	26152.5
1248.467	26088.5
1253.358	25917.5
1258.244	25517.5
1263.124	25078.5
1268	24896.5
1272.871	24939.5
1277.737	24964.5
1282.599	24746.5
1287.455	24614.5
1292.306	24744.5
1297.153	24831.5
1301.995	25079.5
1306.832	25377.5
1311.664	25494.5
1316.491	25619.5
1321.314	25800.5
1326.132	26090.5
1330.945	26225.5
1335.753	26467.5
1340.556	26691.5
1345.354	27078.5
1350.148	27673.5
1354.937	28362.5
1359.722	28681.5
1364.501	28707.5
1369.276	28815.5
1374.046	29076.5
1378.811	29203.5
1383.572	28301.5
1388.327	27371.5
1393.079	27124.5
1397.825	27163.5
1402.567	26468.5
1407.304	25669.5
1412.036	25249.5
1416.764	25222.5
1421.487	25348.5
1426.205	25327.5
1430.919	25523.5
1435.628	25959.5
1440.333	26368.5
1445.032	26788.5
1449.727	27067.5
1454.418	27133.5
1459.104	27202.5
1463.785	27421.5
1468.462	28119.5
1473.134	28817.5
1477.802	29250.5
1482.465	29817.5
1487.123	30493.5
1491.777	31283.5
1496.426	31758.5
1501.071	32342.5
1505.711	32900.5
1510.347	33536.5
1514.978	33809.5
1519.604	33881.5
1524.226	33754.5
1528.844	33366.5
1533.457	32689.5
1538.065	31655.5
1542.669	30558.5
1547.269	29965.5
1551.864	29664.5
1556.454	29008.5
1561.041	27797.5
1565.622	26782.5
1570.199	25902.5
1574.772	25379.5
1579.34	25202.5
1583.904	24235.5
1588.464	23292.5
1593.019	23048.5
1597.569	23011.5
1602.115	23129.5
1606.657	23394.5
1611.195	22040.5
1615.728	19403.5
1620.256	18729.5
1624.78	21212.5
1629.3	22368.5
1633.816	21442.5
1638.327	21257.5
1642.834	21989.5
1647.336	22673.5
1651.834	23240.5
1656.328	24056.5
1660.817	24575.5
1665.302	26017.5
1669.783	28234.5
1674.259	30141.5
1678.732	30828.5
1683.199	30967.5
1687.663	31662.5
1692.122	32246.5
1696.577	32523.5
1701.028	32463.5
1705.474	31186.5
1709.917	30051.5
1714.355	28942.5
1718.788	27473.5
1723.218	27051.5
1727.643	26325.5
1732.064	25719.5
1736.481	25457.5
1740.893	25100.5
1745.301	25274.5
1749.705	25176.5
1754.105	25217.5
1758.501	25086.5
1762.893	25929.5
1767.28	27677.5
1771.663	28876.5
1776.042	33448.5
1780.417	41252.5
1784.787	39770.5
1789.154	30595.5
1793.516	26817.5
1797.874	27995.5
1802.228	30731.5
1806.578	32356.5
1810.924	30825.5
1815.266	27209.5
1819.603	25376.5
1823.937	26824.5
1828.266	28573.5
1832.591	28421.5
1836.913	26722.5
1841.23	24340.5
1845.543	24470.5
1849.852	26386.5
1854.156	27576.5
1858.457	28589.5
1862.754	29120.5
1867.047	29121.5
1871.335	30406.5
1875.62	31821.5
1879.9	31502.5
1884.177	30845.5
1888.449	30216.5
1892.718	30487.5
1896.982	32868.5
1901.243	34952.5
1905.499	34099.5
1909.752	32220.5
1914	31706.5
1918.245	31856.5
1922.485	32185.5
1926.722	32784.5
1930.954	33338.5
1935.183	33721.5
1939.408	33609.5
1943.628	33545.5
1947.845	34350.5
1952.058	34967.5
1956.267	33616.5
1960.472	31070.5
1964.673	28336.5
1968.87	26388.5
1973.063	25325.5
1977.252	24563.5
1981.438	23288.5
1985.619	21178.5
1989.797	19748.5
1993.971	19240.5
1998.14	18012.5
2002.306	16893.5
2006.469	15013.5
2010.627	13181.5
2014.781	12077.5
2018.932	11800.5
2023.078	12140.5
2027.221	11010.5
2031.36	8948.5
2035.495	8056.5
2039.627	8111.5
2043.754	10735.5
2047.878	12757.5
2051.998	11064.5
2056.114	10237.5
2060.226	11840.5
2064.334	11801.5
2068.439	9978.5
2072.54	10541.5
2076.637	11263.5
2080.73	11290.5
2084.82	12885.5
2088.906	16540.5
2092.988	19837.5
2097.066	21787.5
2101.14	20522.5
2105.211	18464.5
2109.278	17676.5
2113.342	16966.5
2117.401	16597.5
2121.457	16899.5
2125.509	17191.5
2129.558	16308.5
2133.602	13502.5
2137.643	12778.5
2141.681	14969.5
2145.714	13874.5
2149.744	10510.5
2153.77	11273.5
2157.793	14347.5
2161.812	14786.5
2165.827	12699.5
2169.838	11002.5
2173.846	11840.5
2177.851	12677.5
2181.851	13133.5
2185.848	13153.5
2189.841	12812.5
2193.831	11769.5
2197.817	12377.5
2201.799	14679.5
2205.778	14272.5
2209.753	11629.5
2213.725	9546.5
2217.693	10892.5
2221.657	14179.5
2225.618	16383.5
2229.575	15340.5
2233.529	12447.5
2237.479	10281.5
2241.425	10348.5
2245.368	11348.5
2249.307	12838.5
2253.243	13626.5
2257.175	13522.5
2261.104	12399.5
2265.029	11473.5
2268.95	11744.5
2272.868	11674.5
2276.783	10915.5
2280.694	11446.5
2284.601	11453.5
2288.505	10685.5
2292.405	11523.5
2296.302	13298.5
2300.195	13396.5
2304.085	12133.5
2307.971	11522.5
2311.854	10594.5
2315.734	9282.5
2319.609	9696.5
2323.482	10805.5
2327.351	11079.5
2331.216	10919.5
2335.078	11129.5
2338.937	11657.5
2342.792	11430.5
2346.643	10498.5
2350.492	10025.5
2354.336	10787.5
2358.178	11965.5
2362.015	11781.5
2365.85	10855.5
2369.681	10821.5
2373.508	11113.5
2377.333	11336.5
2381.153	12063.5
2384.971	13226.5
2388.785	13117.5
2392.595	11749.5
2396.402	11082.5
2400.206	11818.5
2404.007	12667.5
2407.804	13140.5
2411.597	12811.5
2415.388	12820.5
2419.174	13266.5
2422.958	13240.5
2426.738	13290.5
2430.515	12964.5
2434.289	12834.5
2438.059	13078.5
2441.825	13325.5
2445.589	13151.5
2449.349	13014.5
2453.106	12988.5
2456.859	12694.5
2460.61	12420.5
2464.356	12392.5
2468.1	11839.5
2471.84	11482.5
2475.577	11671.5
2479.311	12134.5
2483.041	12218.5
2486.768	12201.5
2490.492	12039.5
2494.213	11943.5
2497.93	12094.5
2501.644	12674.5
2505.355	13509.5
2509.062	13868.5
2512.766	13722.5
2516.467	13588.5
2520.165	13768.5
2523.859	13996.5
2527.551	13679.5
2531.239	13634.5
2534.923	13807.5
2538.605	13909.5
2542.283	14208.5
2545.958	14829.5
2549.63	14965.5
2553.299	14878.5
2556.964	14891.5
2560.626	14721.5
2564.285	14533.5
2567.941	14540.5
2571.594	14857.5
2575.243	14995.5
2578.89	14992.5
2582.533	14720.5
2586.173	14546.5
2589.809	14481.5
2593.443	14635.5
2597.073	14687.5
2600.701	14641.5
2604.325	14531.5
2607.946	14370.5
2611.564	14137.5
2615.178	14124.5
2618.79	14121.5
2622.398	14015.5
2626.004	13853.5
2629.606	13594.5
2633.205	13369.5
2636.801	13303.5
2640.394	13128.5
2643.983	12991.5
2647.57	12940.5
2651.153	12744.5
2654.734	12656.5
2658.311	12459.5
2661.885	12391.5
2665.456	12220.5
2669.025	12129.5
2672.589	12046.5
2676.151	12038.5
2679.71	11938.5
2683.266	11823.5
2686.819	11780.5
2690.368	11683.5
2693.915	11618.5
2697.458	11556.5
2700.999	11575.5
2704.536	11566.5
2708.071	11653.5
2711.602	11774.5
2715.13	11785.5
2718.656	11881.5
2722.178	12021.5
2725.697	12240.5
2729.214	12514.5
2732.727	12736.5
2736.237	12995.5
2739.744	13266.5
2743.249	13484.5
2746.75	13665.5
2750.248	13813.5
2753.743	13869.5
2757.236	13775.5
2760.725	13729.5
2764.211	13709.5
2767.695	13609.5
2771.175	13500.5
2774.652	13244.5
2778.127	13032.5
2781.598	12740.5
2785.067	12584.5
2788.532	12271.5
2791.995	12150.5
2795.455	12197.5
2798.911	12360.5
2802.365	12338.5
2805.816	12262.5
2809.264	12244.5
2812.709	12116.5
2816.151	12039.5
2819.59	12042.5
2823.026	11893.5
2826.46	11838.5
2829.89	11825.5
2833.318	11870.5
2836.742	11920.5
2840.164	11941.5
2843.583	12052.5
2846.999	12215.5
2850.412	12288.5
2853.822	12425.5
2857.229	12747.5
2860.634	13040.5
2864.035	13490.5
2867.434	14173.5
2870.83	15370.5
2874.223	19944.5
2877.613	31478.5
2881	34293.5
2884.385	24513.5
2887.766	15952.5
2891.145	13677.5
2894.521	12603.5
2897.894	11866.5
2901.264	11302.5
2904.631	10891.5
2907.996	10500.5
2911.358	10225.5
2914.717	9951.5
2918.073	9753.5
2921.426	9577.5
2924.777	9493.5
2928.124	9384.5
2931.469	9304.5
2934.811	9342.5
2938.15	9382.5
2941.487	9467.5
2944.821	9511.5
2948.152	9522.5
2951.48	9452.5
2954.805	9394.5
2958.128	9315.5
2961.447	9271.5
2964.765	9224.5
2968.079	9107.5
2971.39	9084.5
2974.699	9036.5
2978.005	9083.5
2981.308	9088.5
2984.609	9107.5
2987.907	9205.5
2991.202	9268.5
2994.494	9412.5
2997.784	9559.5
3001.07	9693.5
3004.355	9746.5
3007.636	9696.5
3010.915	9511.5
3014.191	9179.5
3017.464	8827.5
3020.734	8487.5
3024.002	8132.5
3027.267	7902.5
3030.53	7649.5
3033.789	7448.5
3037.046	7279.5
3040.301	7143.5
3043.552	7004.5
3046.801	6931.5
3050.048	6897.5
3053.291	6882.5
3056.532	6861.5
3059.771	6865.5
3063.006	6981.5
3066.239	7134.5
3069.469	7176.5
3072.697	7190.5
3075.922	7112.5
3079.144	6994.5
3082.364	6818.5
3085.581	6666.5
3088.795	6495.5
3092.007	6289.5
3095.216	6215.5
3098.423	6099.5
3101.627	6027.5
3104.828	5995.5
3108.026	5978.5
3111.222	5991.5
3114.416	6021.5
3117.607	6024.5
3120.795	6111.5
3123.98	6221.5
3127.163	6345.5
3130.344	6370.5
3133.521	6348.5
3136.696	6227.5
3139.869	6121.5
3143.039	5979.5
3146.206	5816.5
3149.371	5642.5
3152.533	5550.5
3155.693	5457.5
3158.85	5369.5
3162.005	5284.5
3165.157	5254.5
3168.306	5208.5
3171.453	5186.5
3174.597	5244.5
3177.739	5296.5
3180.878	5479.5
3184.014	5686.5
3187.149	5791.5
3190.28	5906.5
3193.409	5820.5
3196.536	5618.5
3199.659	5413.5
3202.781	5144.5
3205.9	4904.5
3209.016	4759.5
3212.13	4658.5
3215.241	4562.5
3218.35	4473.5
3221.456	4435.5
3224.56	4395.5
3227.661	4424.5
3230.76	4501.5
3233.856	4578.5
3236.95	4645.5
3240.041	4756.5
3243.13	4866.5
3246.216	4876.5
3249.3	4846.5
3252.382	4737.5
3255.46	4504.5
3258.537	4346.5
3261.611	4147.5
3264.682	3964.5
3267.751	3898.5
3270.818	3805.5
3273.882	3725.5
3276.943	3666.5
3280.002	3604.5
3283.059	3609.5
3286.113	3562.5
3289.165	3538.5
3292.214	3524.5
3295.261	3580.5
3298.306	3642.5
3301.348	3764.5
3304.387	3845.5
3307.425	3902.5
3310.459	3871.5
3313.492	3801.5
3316.521	3663.5
3319.549	3516.5
3322.574	3298.5
3325.597	3135.5
3328.617	3014.5
3331.635	2919.5
3334.65	2851.5
3337.663	2840.5
3340.674	2821.5
3343.682	2855.5
3346.688	2933.5
3349.691	3019.5
3352.692	3147.5
3355.691	3356.5
3358.687	3498.5
3361.681	3683.5
3364.673	3824.5
3367.662	3845.5
3370.649	3653.5
3373.633	3352.5
3376.615	2977.5
3379.595	2620.5
3382.572	2402.5
3385.547	2259.5
3388.52	2153.5
3391.49	2061.5
3394.458	2020.5
3397.424	2038.5
3400.387	2023.5
3403.348	2023.5
3406.307	2091.5
3409.263	2196.5
3412.217	2319.5
3415.168	2485.5
3418.118	2702.5
3421.065	2919.5
3424.009	3138.5
3426.951	3303.5
3429.891	3272.5
3432.829	3161.5
3435.764	3003.5
3438.697	2796.5
3441.628	2620.5
3444.557	2456.5
3447.483	2328.5
3450.407	2221.5
3453.328	2138.5
3456.247	2097.5
3459.164	2134.5
3462.079	2155.5
3464.991	2290.5
3467.902	2497.5
3470.809	2861.5
3473.715	3371.5
3476.618	4094.5
3479.519	4998.5
3482.418	6071.5
3485.315	7070.5
3488.209	7616.5
3491.101	7870.5
3493.99	7720.5
3496.878	7313.5
3499.763	6969.5
3502.646	6934.5
3505.527	7208.5
3508.405	7341.5
3511.281	7185.5
3514.155	6759.5
3517.027	6292.5
3519.897	5907.5
3522.764	5626.5
3525.629	5574.5
3528.492	5757.5
3531.352	6167.5
3534.211	6780.5
3537.067	7631.5
3539.921	8397.5
3542.773	9028.5
3545.622	9334.5
3548.469	9032.5
3551.315	8293.5
3554.157	7262.5
3556.998	6225.5
3559.837	5291.5
3562.673	4476.5
3565.507	3828.5
3568.339	3348.5
3571.169	3075.5
3573.996	2911.5
3576.822	2878.5
3579.645	3391.5
3582.466	6080.5
3585.285	9108.5
3588.101	9472.5
3590.916	6845.5
3593.728	5078.5
3596.538	4781.5
3599.346	5124.5
3602.152	5547.5
3604.956	5796.5
3607.757	5875.5
3610.556	5694.5
3613.354	5324.5
3616.149	4956.5
3618.942	4459.5
3621.732	4060.5
3624.521	3658.5
3627.307	3278.5
3630.092	3054.5
3632.874	2822.5
3635.654	2694.5
3638.432	2655.5
3641.208	2659.5
3643.982	2754.5
3646.753	2948.5
3649.523	3236.5
3652.29	3456.5
3655.055	3655.5
3657.818	3763.5
3660.579	3780.5
3663.338	3684.5
3666.095	3491.5
3668.849	3135.5
3671.602	2758.5
3674.352	2344.5
3677.101	1946.5
3679.847	1609.5
3682.591	1330.5
3685.333	1122.5
3688.073	956.5
3690.811	836.5
3693.547	726.5
3696.281	651.5
3699.013	604.5
3701.742	595.5
3704.47	601.5
3707.195	620.5
3709.919	614.5
3712.64	639.5
3715.359	642.5
3718.076	632.5
3720.792	595.5
3723.505	539.5
3726.216	493.5
3728.925	429.5
3731.632	375.5
3734.336	304.5
3737.039	251.5
3739.74	204.5
3742.439	154.5
3745.136	128.5
3747.83	120.5
3750.523	113.5
3753.213	117.5
3755.902	107.5
3758.589	120.5
3761.273	139.5
3763.956	182.5
3766.636	238.5
3769.315	299.5
3771.991	361.5
3774.665	433.5
3777.338	512.5
3780.008	565.5
3782.677	615.5
3785.343	622.5
3788.007	612.5
3790.67	569.5
3793.33	521.5
3795.989	438.5
3798.645	396.5
3801.299	351.5
3803.952	307.5
3806.602	253.5
3809.251	233.5
3811.897	203.5
3814.542	185.5
3817.184	177.5
3819.825	177.5
3822.463	184.5
3825.1	193.5
3827.735	180.5
3830.367	181.5
3832.998	167.5
3835.627	168.5
3838.253	142.5
3840.878	120.5
3843.501	115.5
3846.122	90.5
3848.741	83.5
3851.358	65.5
3853.973	30.5
3856.586	16.5
3859.197	16.5
3861.806	7.5
3864.414	8.5
3867.019	2.5
3869.622	6.5
3872.224	7.5
3874.823	27.5
3877.421	50.5
3880.016	85.5
3882.61	131.5
3885.202	165.5
3887.792	160.5
3890.38	147.5
3892.966	125.5
3895.55	125.5
3898.132	108.5
3900.713	73.5
3903.291	51.5
3905.868	17.5
3908.442	-8.5
3911.015	-30.5
3913.586	-48.5
3916.155	-63.5
3918.722	-72.5
3921.287	-86.5
3923.85	-75.5
3926.411	-80.5
3928.971	-72.5
3931.528	-58.5
3934.084	-26.5
3936.638	-15.5
3939.19	-15.5
3941.74	13.5
3944.288	24.5
3946.834	28.5
3949.378	42.5
3951.921	46.5
3954.462	30.5
3957	19.5
3959.537	3.5
3962.072	-24.5
3964.606	-50.5
3967.137	-80.5
3969.667	-105.5
3972.194	-124.5
3974.72	-136.5
3977.244	-151.5
3979.766	-159.5
3982.286	-166.5
3984.805	-175.5
3987.321	-159.5
3989.836	-133.5
3992.349	-120.5
3994.86	-83.5
3997.369	-53.5
3999.877	-9.5
4002.382	19.5
4004.886	60.5
4007.388	72.5
4009.888	73.5
4012.386	68.5
4014.883	55.5
4017.377	13.5
4019.87	-40.5
4022.361	-89.5
4024.85	-109.5
4027.338	-154.5
4029.823	-188.5
4032.307	-212.5
4034.789	-229.5
4037.269	-242.5
4039.747	-250.5
4042.224	-258.5
4044.699	-259.5
4047.172	-269.5
4049.643	-268.5
4052.112	-256.5
4054.58	-236.5
4057.046	-226.5
4059.51	-205.5
4061.972	-181.5
4064.432	-145.5
4066.891	-121.5
4069.348	-77.5
4071.803	30.5
4074.256	460.5
4076.708	1050.5
4079.158	1211.5
4081.606	755.5
4084.052	303.5
4086.497	85.5
4088.939	-23.5
4091.38	-85.5
4093.819	-118.5
4096.257	-458.5
4098.693	-459.5
4101.127	-454.5
4103.559	-461.5
4105.989	-254.5
4108.418	-231.5
4110.845	-221.5
4113.27	-190.5
4115.694	-159.5
4118.115	-122.5
4120.535	-146.5
4122.954	-156.5
4125.37	-172.5
4127.785	-124.5
4130.198	76.5
4132.609	333.5
4135.019	-460.5
4137.427	-463.5
4139.833	-459.5
4142.237	-459.5
