Data from 2018-3-7_conc=5_n=1_RamanShift_04.txt Node
Date: Wed Mar 07 12:24:22 IST 2018
User: aro
Spectrometer: QEPB0276
Trigger mode: 0
Integration Time (sec): 3.000000E1
Scans to average: 1
Electric dark correction enabled: true
Nonlinearity correction enabled: false
Boxcar width: 0
XAxis mode: Raman Shifts
Number of Pixels in Spectrum: 1044
>>>>>Begin Spectral Data<<<<<
160.701	7.2
166.742	20.2
172.777	55.2
178.805	153.2
184.826	395.2
190.841	852.2
196.849	1421.2
202.85	1859.2
208.845	2015.2
214.833	2029.2
220.815	2000.2
226.789	1991.2
232.758	2011.2
238.719	2000.2
244.674	1997.2
250.623	1964.2
256.565	1958.2
262.5	1920.2
268.429	1904.2
274.351	1909.2
280.267	1877.2
286.176	1885.2
292.079	1868.2
297.975	1879.2
303.865	1857.2
309.748	1856.2
315.625	1854.2
321.495	1856.2
327.359	1868.2
333.217	1860.2
339.068	1881.2
344.912	1865.2
350.751	1878.2
356.583	1869.2
362.408	1895.2
368.227	1878.2
374.04	1892.2
379.847	1898.2
385.647	1891.2
391.44	1900.2
397.228	1898.2
403.009	1938.2
408.784	1933.2
414.553	1947.2
420.315	1956.2
426.071	1949.2
431.821	1941.2
437.565	1948.2
443.302	1941.2
449.033	1932.2
454.758	1917.2
460.477	1922.2
466.189	1901.2
471.896	1888.2
477.596	1875.2
483.29	1872.2
488.978	1866.2
494.66	1859.2
500.335	1839.2
506.005	1776.2
511.668	1705.2
517.325	1668.2
522.977	1612.2
528.622	1587.2
534.261	1553.2
539.894	1538.2
545.521	1519.2
551.141	1505.2
556.756	1496.2
562.365	1494.2
567.968	1473.2
573.565	1464.2
579.155	1452.2
584.74	1455.2
590.319	1434.2
595.892	1458.2
601.459	1429.2
607.02	1442.2
612.575	1418.2
618.124	1418.2
623.667	1398.2
629.204	1391.2
634.735	1358.2
640.261	1362.2
645.781	1370.2
651.294	1350.2
656.802	1331.2
662.304	1339.2
667.8	1333.2
673.29	1340.2
678.775	1339.2
684.254	1332.2
689.726	1307.2
695.193	1334.2
700.655	1320.2
706.11	1308.2
711.56	1297.2
717.004	1292.2
722.442	1272.2
727.874	1258.2
733.301	1273.2
738.722	1251.2
744.137	1256.2
749.547	1267.2
754.951	1259.2
760.349	1252.2
765.741	1268.2
771.128	1270.2
776.509	1277.2
781.885	1291.2
787.254	1293.2
792.618	1290.2
797.977	1274.2
803.33	1268.2
808.677	1265.2
814.019	1261.2
819.355	1230.2
824.686	1229.2
830.011	1231.2
835.33	1224.2
840.644	1221.2
845.952	1230.2
851.255	1221.2
856.552	1204.2
861.844	1198.2
867.13	1194.2
872.41	1205.2
877.686	1178.2
882.955	1183.2
888.219	1167.2
893.478	1152.2
898.731	1125.2
903.979	1113.2
909.221	1102.2
914.458	1102.2
919.69	1110.2
924.916	1119.2
930.136	1111.2
935.351	1107.2
940.561	1109.2
945.766	1116.2
950.965	1109.2
956.158	1092.2
961.347	1083.2
966.529	1077.2
971.707	1058.2
976.879	1037.2
982.046	1032.2
987.208	1031.2
992.364	1010.2
997.515	1025.2
1002.66	1038.2
1007.801	1052.2
1012.936	1050.2
1018.066	1065.2
1023.19	1061.2
1028.309	1063.2
1033.423	1053.2
1038.532	1037.2
1043.636	1046.2
1048.734	1028.2
1053.827	1009.2
1058.915	1010.2
1063.998	990.2
1069.075	983.2
1074.147	996.2
1079.214	1004.2
1084.276	998.2
1089.333	1009.2
1094.385	1011.2
1099.431	997.2
1104.472	1011.2
1109.509	996.2
1114.54	985.2
1119.565	971.2
1124.586	950.2
1129.602	950.2
1134.613	939.2
1139.618	932.2
1144.619	934.2
1149.614	956.2
1154.604	930.2
1159.589	938.2
1164.57	941.2
1169.545	941.2
1174.515	932.2
1179.48	952.2
1184.44	929.2
1189.395	924.2
1194.345	925.2
1199.29	906.2
1204.23	914.2
1209.165	904.2
1214.095	912.2
1219.021	915.2
1223.941	944.2
1228.856	938.2
1233.766	924.2
1238.672	943.2
1243.572	931.2
1248.467	935.2
1253.358	919.2
1258.244	901.2
1263.124	884.2
1268	871.2
1272.871	862.2
1277.737	860.2
1282.599	854.2
1287.455	846.2
1292.306	848.2
1297.153	853.2
1301.995	852.2
1306.832	856.2
1311.664	884.2
1316.491	872.2
1321.314	873.2
1326.132	850.2
1330.945	849.2
1335.753	828.2
1340.556	823.2
1345.354	806.2
1350.148	802.2
1354.937	754.2
1359.722	750.2
1364.501	734.2
1369.276	726.2
1374.046	712.2
1378.811	696.2
1383.572	704.2
1388.327	697.2
1393.079	692.2
1397.825	702.2
1402.567	708.2
1407.304	698.2
1412.036	714.2
1416.764	721.2
1421.487	715.2
1426.205	702.2
1430.919	707.2
1435.628	721.2
1440.333	733.2
1445.032	721.2
1449.727	736.2
1454.418	739.2
1459.104	721.2
1463.785	710.2
1468.462	696.2
1473.134	683.2
1477.802	670.2
1482.465	665.2
1487.123	642.2
1491.777	625.2
1496.426	628.2
1501.071	616.2
1505.711	612.2
1510.347	606.2
1514.978	604.2
1519.604	594.2
1524.226	587.2
1528.844	591.2
1533.457	573.2
1538.065	588.2
1542.669	575.2
1547.269	568.2
1551.864	577.2
1556.454	598.2
1561.041	599.2
1565.622	609.2
1570.199	603.2
1574.772	610.2
1579.34	626.2
1583.904	632.2
1588.464	645.2
1593.019	646.2
1597.569	635.2
1602.115	639.2
1606.657	629.2
1611.195	639.2
1615.728	634.2
1620.256	625.2
1624.78	635.2
1629.3	619.2
1633.816	627.2
1638.327	641.2
1642.834	630.2
1647.336	620.2
1651.834	637.2
1656.328	633.2
1660.817	618.2
1665.302	616.2
1669.783	608.2
1674.259	593.2
1678.732	586.2
1683.199	565.2
1687.663	543.2
1692.122	514.2
1696.577	497.2
1701.028	466.2
1705.474	441.2
1709.917	440.2
1714.355	418.2
1718.788	428.2
1723.218	414.2
1727.643	417.2
1732.064	425.2
1736.481	421.2
1740.893	402.2
1745.301	400.2
1749.705	400.2
1754.105	384.2
1758.501	369.2
1762.893	376.2
1767.28	368.2
1771.663	364.2
1776.042	358.2
1780.417	349.2
1784.787	348.2
1789.154	330.2
1793.516	326.2
1797.874	310.2
1802.228	314.2
1806.578	311.2
1810.924	304.2
1815.266	305.2
1819.603	305.2
1823.937	317.2
1828.266	314.2
1832.591	318.2
1836.913	318.2
1841.23	316.2
1845.543	320.2
1849.852	328.2
1854.156	324.2
1858.457	326.2
1862.754	334.2
1867.047	327.2
1871.335	327.2
1875.62	319.2
1879.9	329.2
1884.177	313.2
1888.449	311.2
1892.718	304.2
1896.982	302.2
1901.243	295.2
1905.499	286.2
1909.752	281.2
1914	279.2
1918.245	259.2
1922.485	257.2
1926.722	261.2
1930.954	257.2
1935.183	258.2
1939.408	258.2
1943.628	250.2
1947.845	254.2
1952.058	259.2
1956.267	241.2
1960.472	246.2
1964.673	237.2
1968.87	241.2
1973.063	234.2
1977.252	238.2
1981.438	243.2
1985.619	238.2
1989.797	231.2
1993.971	244.2
1998.14	243.2
2002.306	247.2
2006.469	250.2
2010.627	243.2
2014.781	244.2
2018.932	247.2
2023.078	245.2
2027.221	245.2
2031.36	242.2
2035.495	246.2
2039.627	225.2
2043.754	229.2
2047.878	228.2
2051.998	230.2
2056.114	220.2
2060.226	217.2
2064.334	227.2
2068.439	211.2
2072.54	208.2
2076.637	219.2
2080.73	221.2
2084.82	210.2
2088.906	206.2
2092.988	207.2
2097.066	203.2
2101.14	206.2
2105.211	196.2
2109.278	197.2
2113.342	186.2
2117.401	196.2
2121.457	193.2
2125.509	181.2
2129.558	188.2
2133.602	190.2
2137.643	190.2
2141.681	171.2
2145.714	189.2
2149.744	188.2
2153.77	192.2
2157.793	185.2
2161.812	193.2
2165.827	187.2
2169.838	188.2
2173.846	189.2
2177.851	182.2
2181.851	187.2
2185.848	183.2
2189.841	177.2
2193.831	175.2
2197.817	166.2
2201.799	182.2
2205.778	181.2
2209.753	184.2
2213.725	173.2
2217.693	173.2
2221.657	177.2
2225.618	174.2
2229.575	165.2
2233.529	167.2
2237.479	174.2
2241.425	162.2
2245.368	163.2
2249.307	162.2
2253.243	159.2
2257.175	159.2
2261.104	146.2
2265.029	158.2
2268.95	156.2
2272.868	148.2
2276.783	154.2
2280.694	151.2
2284.601	144.2
2288.505	144.2
2292.405	146.2
2296.302	147.2
2300.195	137.2
2304.085	135.2
2307.971	140.2
2311.854	135.2
2315.734	126.2
2319.609	129.2
2323.482	127.2
2327.351	134.2
2331.216	139.2
2335.078	153.2
2338.937	142.2
2342.792	137.2
2346.643	136.2
2350.492	138.2
2354.336	134.2
2358.178	128.2
2362.015	135.2
2365.85	133.2
2369.681	135.2
2373.508	141.2
2377.333	143.2
2381.153	135.2
2384.971	124.2
2388.785	132.2
2392.595	129.2
2396.402	136.2
2400.206	132.2
2404.007	125.2
2407.804	130.2
2411.597	130.2
2415.388	124.2
2419.174	140.2
2422.958	123.2
2426.738	130.2
2430.515	129.2
2434.289	130.2
2438.059	121.2
2441.825	113.2
2445.589	121.2
2449.349	123.2
2453.106	125.2
2456.859	119.2
2460.61	114.2
2464.356	113.2
2468.1	118.2
2471.84	111.2
2475.577	101.2
2479.311	108.2
2483.041	108.2
2486.768	110.2
2490.492	111.2
2494.213	105.2
2497.93	108.2
2501.644	104.2
2505.355	96.2
2509.062	97.2
2512.766	100.2
2516.467	99.2
2520.165	97.2
2523.859	98.2
2527.551	94.2
2531.239	89.2
2534.923	92.2
2538.605	79.2
2542.283	86.2
2545.958	82.2
2549.63	85.2
2553.299	81.2
2556.964	73.2
2560.626	80.2
2564.285	80.2
2567.941	76.2
2571.594	78.2
2575.243	80.2
2578.89	73.2
2582.533	76.2
2586.173	75.2
2589.809	79.2
2593.443	80.2
2597.073	74.2
2600.701	74.2
2604.325	65.2
2607.946	59.2
2611.564	70.2
2615.178	68.2
2618.79	64.2
2622.398	71.2
2626.004	68.2
2629.606	58.2
2633.205	65.2
2636.801	63.2
2640.394	66.2
2643.983	60.2
2647.57	63.2
2651.153	60.2
2654.734	54.2
2658.311	56.2
2661.885	67.2
2665.456	65.2
2669.025	60.2
2672.589	55.2
2676.151	60.2
2679.71	56.2
2683.266	58.2
2686.819	57.2
2690.368	61.2
2693.915	54.2
2697.458	46.2
2700.999	56.2
2704.536	52.2
2708.071	52.2
2711.602	50.2
2715.13	36.2
2718.656	39.2
2722.178	42.2
2725.697	43.2
2729.214	43.2
2732.727	41.2
2736.237	44.2
2739.744	34.2
2743.249	35.2
2746.75	36.2
2750.248	36.2
2753.743	34.2
2757.236	38.2
2760.725	29.2
2764.211	28.2
2767.695	26.2
2771.175	33.2
2774.652	30.2
2778.127	31.2
2781.598	27.2
2785.067	23.2
2788.532	25.2
2791.995	29.2
2795.455	21.2
2798.911	37.2
2802.365	28.2
2805.816	29.2
2809.264	36.2
2812.709	32.2
2816.151	32.2
2819.59	44.2
2823.026	33.2
2826.46	34.2
2829.89	35.2
2833.318	31.2
2836.742	32.2
2840.164	28.2
2843.583	25.2
2846.999	27.2
2850.412	31.2
2853.822	32.2
2857.229	35.2
2860.634	27.2
2864.035	35.2
2867.434	34.2
2870.83	39.2
2874.223	38.2
2877.613	39.2
2881	41.2
2884.385	40.2
2887.766	45.2
2891.145	39.2
2894.521	53.2
2897.894	46.2
2901.264	40.2
2904.631	34.2
2907.996	49.2
2911.358	51.2
2914.717	44.2
2918.073	45.2
2921.426	43.2
2924.777	51.2
2928.124	48.2
2931.469	58.2
2934.811	61.2
2938.15	61.2
2941.487	67.2
2944.821	59.2
2948.152	65.2
2951.48	59.2
2954.805	60.2
2958.128	59.2
2961.447	57.2
2964.765	59.2
2968.079	55.2
2971.39	54.2
2974.699	55.2
2978.005	57.2
2981.308	53.2
2984.609	52.2
2987.907	52.2
2991.202	57.2
2994.494	47.2
2997.784	48.2
3001.07	55.2
3004.355	60.2
3007.636	66.2
3010.915	61.2
3014.191	56.2
3017.464	63.2
3020.734	65.2
3024.002	65.2
3027.267	61.2
3030.53	61.2
3033.789	71.2
3037.046	65.2
3040.301	68.2
3043.552	71.2
3046.801	70.2
3050.048	76.2
3053.291	81.2
3056.532	77.2
3059.771	87.2
3063.006	85.2
3066.239	99.2
3069.469	100.2
3072.697	99.2
3075.922	114.2
3079.144	102.2
3082.364	104.2
3085.581	111.2
3088.795	119.2
3092.007	120.2
3095.216	117.2
3098.423	117.2
3101.627	121.2
3104.828	131.2
3108.026	129.2
3111.222	128.2
3114.416	142.2
3117.607	142.2
3120.795	145.2
3123.98	146.2
3127.163	164.2
3130.344	160.2
3133.521	157.2
3136.696	161.2
3139.869	170.2
3143.039	175.2
3146.206	170.2
3149.371	178.2
3152.533	176.2
3155.693	181.2
3158.85	175.2
3162.005	180.2
3165.157	177.2
3168.306	183.2
3171.453	176.2
3174.597	175.2
3177.739	178.2
3180.878	187.2
3184.014	178.2
3187.149	181.2
3190.28	179.2
3193.409	182.2
3196.536	180.2
3199.659	189.2
3202.781	193.2
3205.9	174.2
3209.016	172.2
3212.13	185.2
3215.241	181.2
3218.35	177.2
3221.456	182.2
3224.56	168.2
3227.661	170.2
3230.76	167.2
3233.856	171.2
3236.95	160.2
3240.041	166.2
3243.13	165.2
3246.216	156.2
3249.3	155.2
3252.382	154.2
3255.46	150.2
3258.537	149.2
3261.611	146.2
3264.682	142.2
3267.751	150.2
3270.818	125.2
3273.882	142.2
3276.943	135.2
3280.002	138.2
3283.059	142.2
3286.113	138.2
3289.165	135.2
3292.214	138.2
3295.261	131.2
3298.306	135.2
3301.348	135.2
3304.387	127.2
3307.425	130.2
3310.459	122.2
3313.492	128.2
3316.521	132.2
3319.549	128.2
3322.574	127.2
3325.597	123.2
3328.617	122.2
3331.635	124.2
3334.65	131.2
3337.663	116.2
3340.674	122.2
3343.682	124.2
3346.688	125.2
3349.691	125.2
3352.692	118.2
3355.691	124.2
3358.687	129.2
3361.681	122.2
3364.673	118.2
3367.662	120.2
3370.649	120.2
3373.633	112.2
3376.615	113.2
3379.595	116.2
3382.572	109.2
3385.547	111.2
3388.52	98.2
3391.49	100.2
3394.458	95.2
3397.424	98.2
3400.387	96.2
3403.348	88.2
3406.307	88.2
3409.263	90.2
3412.217	91.2
3415.168	97.2
3418.118	80.2
3421.065	90.2
3424.009	85.2
3426.951	84.2
3429.891	79.2
3432.829	69.2
3435.764	81.2
3438.697	76.2
3441.628	66.2
3444.557	63.2
3447.483	72.2
3450.407	54.2
3453.328	62.2
3456.247	48.2
3459.164	52.2
3462.079	43.2
3464.991	48.2
3467.902	49.2
3470.809	39.2
3473.715	41.2
3476.618	33.2
3479.519	27.2
3482.418	32.2
3485.315	31.2
3488.209	20.2
3491.101	18.2
3493.99	27.2
3496.878	13.2
3499.763	12.2
3502.646	15.2
3505.527	15.2
3508.405	9.2
3511.281	8.2
3514.155	3.2
3517.027	4.2
3519.897	4.2
3522.764	1.2
3525.629	4.2
3528.492	0.2
3531.352	-5.8
3534.211	-3.8
3537.067	-9.8
3539.921	-5.8
3542.773	-18.8
3545.622	-9.8
3548.469	-13.8
3551.315	-12.8
3554.157	-23.8
3556.998	-18.8
3559.837	-18.8
3562.673	-22.8
3565.507	-25.8
3568.339	-19.8
3571.169	-23.8
3573.996	-20.8
3576.822	-29.8
3579.645	-27.8
3582.466	-25.8
3585.285	-27.8
3588.101	-32.8
3590.916	-27.8
3593.728	-30.8
3596.538	-34.8
3599.346	-27.8
3602.152	-31.8
3604.956	-26.8
3607.757	-26.8
3610.556	-28.8
3613.354	-38.8
3616.149	-35.8
3618.942	-33.8
3621.732	-34.8
3624.521	-40.8
3627.307	-37.8
3630.092	-40.8
3632.874	-41.8
3635.654	-41.8
3638.432	-38.8
3641.208	-39.8
3643.982	-38.8
3646.753	-40.8
3649.523	-41.8
3652.29	-43.8
3655.055	-40.8
3657.818	-44.8
3660.579	-40.8
3663.338	-37.8
3666.095	-42.8
3668.849	-44.8
3671.602	-40.8
3674.352	-37.8
3677.101	-45.8
3679.847	-47.8
3682.591	-48.8
3685.333	-43.8
3688.073	-50.8
3690.811	-45.8
3693.547	-50.8
3696.281	-47.8
3699.013	-51.8
3701.742	-49.8
3704.47	-45.8
3707.195	-48.8
3709.919	-46.8
3712.64	-48.8
3715.359	-47.8
3718.076	-52.8
3720.792	-50.8
3723.505	-52.8
3726.216	-41.8
3728.925	-51.8
3731.632	-44.8
3734.336	-51.8
3737.039	-49.8
3739.74	-52.8
3742.439	-61.8
3745.136	-51.8
3747.83	-52.8
3750.523	-56.8
3753.213	-61.8
3755.902	-48.8
3758.589	-51.8
3761.273	-50.8
3763.956	-52.8
3766.636	-49.8
3769.315	-47.8
3771.991	-51.8
3774.665	-51.8
3777.338	-50.8
3780.008	-53.8
3782.677	-55.8
3785.343	-50.8
3788.007	-53.8
3790.67	-53.8
3793.33	-56.8
3795.989	-52.8
3798.645	-56.8
3801.299	-50.8
3803.952	-58.8
3806.602	-53.8
3809.251	-54.8
3811.897	-58.8
3814.542	-57.8
3817.184	-55.8
3819.825	-46.8
3822.463	-50.8
3825.1	-47.8
3827.735	-57.8
3830.367	-55.8
3832.998	-47.8
3835.627	-54.8
3838.253	-48.8
3840.878	-44.8
3843.501	-52.8
3846.122	-60.8
3848.741	-57.8
3851.358	-55.8
3853.973	-54.8
3856.586	-57.8
3859.197	-52.8
3861.806	-51.8
3864.414	-57.8
3867.019	-57.8
3869.622	-50.8
3872.224	-42.8
3874.823	-37.8
3877.421	-31.8
3880.016	-17.8
3882.61	-2.8
3885.202	4.2
3887.792	-6.8
3890.38	-23.8
3892.966	-40.8
3895.55	-45.8
3898.132	-47.8
3900.713	-54.8
3903.291	-58.8
3905.868	-50.8
3908.442	-57.8
3911.015	-53.8
3913.586	-55.8
3916.155	-58.8
3918.722	-52.8
3921.287	-56.8
3923.85	-53.8
3926.411	-60.8
3928.971	-59.8
3931.528	-53.8
3934.084	-51.8
3936.638	-53.8
3939.19	-57.8
3941.74	-49.8
3944.288	-55.8
3946.834	-50.8
3949.378	-56.8
3951.921	-56.8
3954.462	-57.8
3957	-50.8
3959.537	-49.8
3962.072	-50.8
3964.606	-57.8
3967.137	-53.8
3969.667	-57.8
3972.194	-50.8
3974.72	-46.8
3977.244	-47.8
3979.766	-54.8
3982.286	-55.8
3984.805	-60.8
3987.321	-51.8
3989.836	-49.8
3992.349	-53.8
3994.86	-51.8
3997.369	-56.8
3999.877	-50.8
4002.382	-50.8
4004.886	-53.8
4007.388	-60.8
4009.888	-55.8
4012.386	-56.8
4014.883	-50.8
4017.377	-55.8
4019.87	-55.8
4022.361	-57.8
4024.85	-54.8
4027.338	-53.8
4029.823	-54.8
4032.307	-55.8
4034.789	-52.8
4037.269	-54.8
4039.747	-51.8
4042.224	-54.8
4044.699	-55.8
4047.172	-55.8
4049.643	-53.8
4052.112	-55.8
4054.58	-56.8
4057.046	-54.8
4059.51	-52.8
4061.972	-61.8
4064.432	-58.8
4066.891	-51.8
4069.348	-54.8
4071.803	-46.8
4074.256	-51.8
4076.708	-56.8
4079.158	-57.8
4081.606	-52.8
4084.052	-55.8
4086.497	-46.8
4088.939	-47.8
4091.38	-57.8
4093.819	-55.8
4096.257	-58.8
4098.693	-56.8
4101.127	-52.8
4103.559	-58.8
4105.989	8.2
4108.418	5.2
4110.845	5.2
4113.27	9.2
4115.694	5.2
4118.115	9.2
4120.535	-57.8
4122.954	-48.8
4125.37	-52.8
4127.785	-49.8
4130.198	-53.8
4132.609	-58.8
4135.019	-59.8
4137.427	-60.8
4139.833	-59.8
4142.237	-55.8
