Data from 2018-3-7_conc=6_n=9_RamanShift_04.txt Node
Date: Wed Mar 07 13:24:21 IST 2018
User: aro
Spectrometer: QEPB0276
Trigger mode: 0
Integration Time (sec): 3.000000E1
Scans to average: 1
Electric dark correction enabled: true
Nonlinearity correction enabled: false
Boxcar width: 0
XAxis mode: Raman Shifts
Number of Pixels in Spectrum: 1044
>>>>>Begin Spectral Data<<<<<
160.701	12.4
166.742	15.4
172.777	49.4
178.805	142.4
184.826	383.4
190.841	809.4
196.849	1357.4
202.85	1800.4
208.845	1962.4
214.833	1964.4
220.815	1932.4
226.789	1923.4
232.758	1916.4
238.719	1918.4
244.674	1903.4
250.623	1902.4
256.565	1887.4
262.5	1849.4
268.429	1815.4
274.351	1820.4
280.267	1795.4
286.176	1811.4
292.079	1788.4
297.975	1762.4
303.865	1779.4
309.748	1760.4
315.625	1765.4
321.495	1765.4
327.359	1775.4
333.217	1767.4
339.068	1770.4
344.912	1758.4
350.751	1769.4
356.583	1767.4
362.408	1789.4
368.227	1772.4
374.04	1777.4
379.847	1782.4
385.647	1784.4
391.44	1808.4
397.228	1797.4
403.009	1810.4
408.784	1832.4
414.553	1812.4
420.315	1824.4
426.071	1831.4
431.821	1828.4
437.565	1821.4
443.302	1806.4
449.033	1823.4
454.758	1808.4
460.477	1800.4
466.189	1812.4
471.896	1770.4
477.596	1766.4
483.29	1750.4
488.978	1753.4
494.66	1742.4
500.335	1715.4
506.005	1674.4
511.668	1611.4
517.325	1573.4
522.977	1543.4
528.622	1498.4
534.261	1483.4
539.894	1456.4
545.521	1450.4
551.141	1446.4
556.756	1429.4
562.365	1413.4
567.968	1422.4
573.565	1401.4
579.155	1383.4
584.74	1405.4
590.319	1395.4
595.892	1382.4
601.459	1366.4
607.02	1369.4
612.575	1351.4
618.124	1358.4
623.667	1337.4
629.204	1316.4
634.735	1302.4
640.261	1312.4
645.781	1297.4
651.294	1289.4
656.802	1280.4
662.304	1299.4
667.8	1273.4
673.29	1274.4
678.775	1277.4
684.254	1261.4
689.726	1262.4
695.193	1264.4
700.655	1242.4
706.11	1229.4
711.56	1253.4
717.004	1248.4
722.442	1222.4
727.874	1214.4
733.301	1209.4
738.722	1206.4
744.137	1204.4
749.547	1203.4
754.951	1209.4
760.349	1214.4
765.741	1205.4
771.128	1219.4
776.509	1224.4
781.885	1227.4
787.254	1222.4
792.618	1232.4
797.977	1226.4
803.33	1197.4
808.677	1204.4
814.019	1202.4
819.355	1183.4
824.686	1180.4
830.011	1178.4
835.33	1179.4
840.644	1175.4
845.952	1179.4
851.255	1155.4
856.552	1173.4
861.844	1150.4
867.13	1147.4
872.41	1125.4
877.686	1133.4
882.955	1139.4
888.219	1121.4
893.478	1116.4
898.731	1088.4
903.979	1085.4
909.221	1062.4
914.458	1065.4
919.69	1064.4
924.916	1065.4
930.136	1063.4
935.351	1066.4
940.561	1067.4
945.766	1059.4
950.965	1070.4
956.158	1060.4
961.347	1046.4
966.529	1031.4
971.707	1008.4
976.879	1000.4
982.046	1003.4
987.208	992.4
992.364	992.4
997.515	993.4
1002.66	995.4
1007.801	1009.4
1012.936	1019.4
1018.066	1020.4
1023.19	1015.4
1028.309	1034.4
1033.423	1006.4
1038.532	1009.4
1043.636	993.4
1048.734	999.4
1053.827	990.4
1058.915	979.4
1063.998	955.4
1069.075	959.4
1074.147	958.4
1079.214	960.4
1084.276	961.4
1089.333	977.4
1094.385	970.4
1099.431	961.4
1104.472	971.4
1109.509	961.4
1114.54	942.4
1119.565	929.4
1124.586	923.4
1129.602	913.4
1134.613	897.4
1139.618	907.4
1144.619	907.4
1149.614	912.4
1154.604	896.4
1159.589	911.4
1164.57	909.4
1169.545	903.4
1174.515	916.4
1179.48	908.4
1184.44	907.4
1189.395	900.4
1194.345	884.4
1199.29	878.4
1204.23	891.4
1209.165	878.4
1214.095	882.4
1219.021	881.4
1223.941	896.4
1228.856	898.4
1233.766	907.4
1238.672	906.4
1243.572	884.4
1248.467	900.4
1253.358	890.4
1258.244	867.4
1263.124	864.4
1268	843.4
1272.871	819.4
1277.737	810.4
1282.599	819.4
1287.455	830.4
1292.306	821.4
1297.153	823.4
1301.995	839.4
1306.832	850.4
1311.664	846.4
1316.491	844.4
1321.314	838.4
1326.132	836.4
1330.945	822.4
1335.753	806.4
1340.556	785.4
1345.354	775.4
1350.148	770.4
1354.937	760.4
1359.722	732.4
1364.501	713.4
1369.276	692.4
1374.046	692.4
1378.811	682.4
1383.572	683.4
1388.327	677.4
1393.079	679.4
1397.825	681.4
1402.567	680.4
1407.304	691.4
1412.036	697.4
1416.764	694.4
1421.487	697.4
1426.205	704.4
1430.919	699.4
1435.628	704.4
1440.333	715.4
1445.032	712.4
1449.727	717.4
1454.418	723.4
1459.104	719.4
1463.785	711.4
1468.462	689.4
1473.134	674.4
1477.802	650.4
1482.465	640.4
1487.123	624.4
1491.777	622.4
1496.426	603.4
1501.071	604.4
1505.711	596.4
1510.347	593.4
1514.978	585.4
1519.604	589.4
1524.226	585.4
1528.844	579.4
1533.457	566.4
1538.065	564.4
1542.669	570.4
1547.269	557.4
1551.864	570.4
1556.454	579.4
1561.041	588.4
1565.622	589.4
1570.199	600.4
1574.772	600.4
1579.34	614.4
1583.904	626.4
1588.464	630.4
1593.019	628.4
1597.569	627.4
1602.115	624.4
1606.657	620.4
1611.195	617.4
1615.728	614.4
1620.256	628.4
1624.78	623.4
1629.3	622.4
1633.816	630.4
1638.327	632.4
1642.834	632.4
1647.336	622.4
1651.834	631.4
1656.328	632.4
1660.817	624.4
1665.302	602.4
1669.783	605.4
1674.259	589.4
1678.732	582.4
1683.199	551.4
1687.663	534.4
1692.122	503.4
1696.577	478.4
1701.028	463.4
1705.474	426.4
1709.917	422.4
1714.355	408.4
1718.788	407.4
1723.218	417.4
1727.643	412.4
1732.064	424.4
1736.481	413.4
1740.893	406.4
1745.301	405.4
1749.705	396.4
1754.105	384.4
1758.501	368.4
1762.893	364.4
1767.28	354.4
1771.663	363.4
1776.042	350.4
1780.417	346.4
1784.787	331.4
1789.154	335.4
1793.516	315.4
1797.874	321.4
1802.228	314.4
1806.578	301.4
1810.924	298.4
1815.266	281.4
1819.603	295.4
1823.937	301.4
1828.266	303.4
1832.591	311.4
1836.913	315.4
1841.23	318.4
1845.543	310.4
1849.852	318.4
1854.156	318.4
1858.457	322.4
1862.754	333.4
1867.047	319.4
1871.335	315.4
1875.62	326.4
1879.9	317.4
1884.177	307.4
1888.449	308.4
1892.718	305.4
1896.982	292.4
1901.243	293.4
1905.499	280.4
1909.752	276.4
1914	267.4
1918.245	266.4
1922.485	266.4
1926.722	258.4
1930.954	243.4
1935.183	256.4
1939.408	250.4
1943.628	249.4
1947.845	247.4
1952.058	244.4
1956.267	234.4
1960.472	246.4
1964.673	237.4
1968.87	231.4
1973.063	239.4
1977.252	245.4
1981.438	230.4
1985.619	237.4
1989.797	240.4
1993.971	234.4
1998.14	243.4
2002.306	241.4
2006.469	246.4
2010.627	240.4
2014.781	248.4
2018.932	244.4
2023.078	247.4
2027.221	244.4
2031.36	237.4
2035.495	233.4
2039.627	234.4
2043.754	227.4
2047.878	229.4
2051.998	230.4
2056.114	218.4
2060.226	217.4
2064.334	225.4
2068.439	221.4
2072.54	210.4
2076.637	217.4
2080.73	222.4
2084.82	209.4
2088.906	205.4
2092.988	205.4
2097.066	203.4
2101.14	200.4
2105.211	193.4
2109.278	190.4
2113.342	189.4
2117.401	193.4
2121.457	187.4
2125.509	189.4
2129.558	185.4
2133.602	181.4
2137.643	184.4
2141.681	180.4
2145.714	187.4
2149.744	189.4
2153.77	193.4
2157.793	190.4
2161.812	199.4
2165.827	196.4
2169.838	180.4
2173.846	176.4
2177.851	178.4
2181.851	186.4
2185.848	176.4
2189.841	172.4
2193.831	172.4
2197.817	178.4
2201.799	172.4
2205.778	178.4
2209.753	167.4
2213.725	176.4
2217.693	181.4
2221.657	173.4
2225.618	170.4
2229.575	167.4
2233.529	170.4
2237.479	170.4
2241.425	164.4
2245.368	175.4
2249.307	164.4
2253.243	164.4
2257.175	162.4
2261.104	152.4
2265.029	151.4
2268.95	158.4
2272.868	151.4
2276.783	150.4
2280.694	145.4
2284.601	140.4
2288.505	142.4
2292.405	143.4
2296.302	146.4
2300.195	145.4
2304.085	142.4
2307.971	136.4
2311.854	143.4
2315.734	127.4
2319.609	142.4
2323.482	131.4
2327.351	128.4
2331.216	134.4
2335.078	150.4
2338.937	142.4
2342.792	139.4
2346.643	139.4
2350.492	135.4
2354.336	134.4
2358.178	128.4
2362.015	133.4
2365.85	125.4
2369.681	143.4
2373.508	133.4
2377.333	144.4
2381.153	140.4
2384.971	129.4
2388.785	133.4
2392.595	135.4
2396.402	139.4
2400.206	135.4
2404.007	134.4
2407.804	134.4
2411.597	132.4
2415.388	134.4
2419.174	138.4
2422.958	131.4
2426.738	135.4
2430.515	123.4
2434.289	124.4
2438.059	125.4
2441.825	117.4
2445.589	124.4
2449.349	123.4
2453.106	123.4
2456.859	120.4
2460.61	115.4
2464.356	116.4
2468.1	115.4
2471.84	116.4
2475.577	112.4
2479.311	114.4
2483.041	117.4
2486.768	113.4
2490.492	113.4
2494.213	105.4
2497.93	109.4
2501.644	113.4
2505.355	100.4
2509.062	106.4
2512.766	105.4
2516.467	94.4
2520.165	95.4
2523.859	101.4
2527.551	94.4
2531.239	96.4
2534.923	83.4
2538.605	92.4
2542.283	90.4
2545.958	87.4
2549.63	87.4
2553.299	91.4
2556.964	79.4
2560.626	85.4
2564.285	86.4
2567.941	79.4
2571.594	86.4
2575.243	82.4
2578.89	83.4
2582.533	76.4
2586.173	77.4
2589.809	71.4
2593.443	83.4
2597.073	75.4
2600.701	70.4
2604.325	67.4
2607.946	65.4
2611.564	69.4
2615.178	72.4
2618.79	76.4
2622.398	75.4
2626.004	66.4
2629.606	67.4
2633.205	72.4
2636.801	66.4
2640.394	73.4
2643.983	66.4
2647.57	71.4
2651.153	61.4
2654.734	63.4
2658.311	59.4
2661.885	66.4
2665.456	65.4
2669.025	64.4
2672.589	57.4
2676.151	56.4
2679.71	54.4
2683.266	58.4
2686.819	55.4
2690.368	64.4
2693.915	58.4
2697.458	51.4
2700.999	60.4
2704.536	57.4
2708.071	55.4
2711.602	52.4
2715.13	42.4
2718.656	48.4
2722.178	46.4
2725.697	46.4
2729.214	41.4
2732.727	52.4
2736.237	40.4
2739.744	32.4
2743.249	43.4
2746.75	41.4
2750.248	36.4
2753.743	31.4
2757.236	31.4
2760.725	29.4
2764.211	27.4
2767.695	31.4
2771.175	27.4
2774.652	27.4
2778.127	40.4
2781.598	33.4
2785.067	31.4
2788.532	31.4
2791.995	39.4
2795.455	32.4
2798.911	35.4
2802.365	34.4
2805.816	27.4
2809.264	30.4
2812.709	30.4
2816.151	37.4
2819.59	42.4
2823.026	35.4
2826.46	39.4
2829.89	36.4
2833.318	22.4
2836.742	32.4
2840.164	30.4
2843.583	35.4
2846.999	37.4
2850.412	34.4
2853.822	28.4
2857.229	45.4
2860.634	32.4
2864.035	38.4
2867.434	43.4
2870.83	43.4
2874.223	41.4
2877.613	42.4
2881	44.4
2884.385	50.4
2887.766	52.4
2891.145	42.4
2894.521	44.4
2897.894	52.4
2901.264	44.4
2904.631	38.4
2907.996	43.4
2911.358	58.4
2914.717	48.4
2918.073	48.4
2921.426	45.4
2924.777	54.4
2928.124	50.4
2931.469	52.4
2934.811	66.4
2938.15	63.4
2941.487	64.4
2944.821	57.4
2948.152	64.4
2951.48	59.4
2954.805	58.4
2958.128	54.4
2961.447	63.4
2964.765	57.4
2968.079	59.4
2971.39	57.4
2974.699	57.4
2978.005	61.4
2981.308	51.4
2984.609	57.4
2987.907	54.4
2991.202	57.4
2994.494	54.4
2997.784	45.4
3001.07	50.4
3004.355	52.4
3007.636	62.4
3010.915	59.4
3014.191	53.4
3017.464	61.4
3020.734	62.4
3024.002	66.4
3027.267	68.4
3030.53	67.4
3033.789	70.4
3037.046	67.4
3040.301	66.4
3043.552	71.4
3046.801	80.4
3050.048	84.4
3053.291	84.4
3056.532	88.4
3059.771	85.4
3063.006	93.4
3066.239	99.4
3069.469	101.4
3072.697	103.4
3075.922	109.4
3079.144	105.4
3082.364	111.4
3085.581	112.4
3088.795	120.4
3092.007	121.4
3095.216	123.4
3098.423	122.4
3101.627	124.4
3104.828	135.4
3108.026	140.4
3111.222	130.4
3114.416	143.4
3117.607	136.4
3120.795	143.4
3123.98	146.4
3127.163	162.4
3130.344	159.4
3133.521	152.4
3136.696	157.4
3139.869	166.4
3143.039	168.4
3146.206	176.4
3149.371	174.4
3152.533	180.4
3155.693	181.4
3158.85	178.4
3162.005	182.4
3165.157	178.4
3168.306	182.4
3171.453	183.4
3174.597	173.4
3177.739	185.4
3180.878	193.4
3184.014	182.4
3187.149	192.4
3190.28	186.4
3193.409	197.4
3196.536	181.4
3199.659	195.4
3202.781	190.4
3205.9	186.4
3209.016	185.4
3212.13	182.4
3215.241	181.4
3218.35	180.4
3221.456	188.4
3224.56	168.4
3227.661	173.4
3230.76	173.4
3233.856	173.4
3236.95	164.4
3240.041	146.4
3243.13	170.4
3246.216	158.4
3249.3	154.4
3252.382	168.4
3255.46	154.4
3258.537	152.4
3261.611	151.4
3264.682	151.4
3267.751	148.4
3270.818	136.4
3273.882	144.4
3276.943	130.4
3280.002	145.4
3283.059	135.4
3286.113	134.4
3289.165	130.4
3292.214	134.4
3295.261	158.4
3298.306	199.4
3301.348	134.4
3304.387	118.4
3307.425	123.4
3310.459	125.4
3313.492	131.4
3316.521	161.4
3319.549	404.4
3322.574	136.4
3325.597	125.4
3328.617	129.4
3331.635	133.4
3334.65	135.4
3337.663	121.4
3340.674	134.4
3343.682	122.4
3346.688	123.4
3349.691	129.4
3352.692	126.4
3355.691	132.4
3358.687	121.4
3361.681	120.4
3364.673	118.4
3367.662	117.4
3370.649	119.4
3373.633	118.4
3376.615	114.4
3379.595	111.4
3382.572	106.4
3385.547	112.4
3388.52	103.4
3391.49	105.4
3394.458	103.4
3397.424	102.4
3400.387	104.4
3403.348	97.4
3406.307	91.4
3409.263	97.4
3412.217	93.4
3415.168	98.4
3418.118	87.4
3421.065	91.4
3424.009	88.4
3426.951	85.4
3429.891	79.4
3432.829	78.4
3435.764	83.4
3438.697	75.4
3441.628	69.4
3444.557	61.4
3447.483	68.4
3450.407	54.4
3453.328	61.4
3456.247	55.4
3459.164	52.4
3462.079	45.4
3464.991	51.4
3467.902	51.4
3470.809	50.4
3473.715	40.4
3476.618	37.4
3479.519	36.4
3482.418	28.4
3485.315	26.4
3488.209	23.4
3491.101	21.4
3493.99	23.4
3496.878	13.4
3499.763	9.4
3502.646	15.4
3505.527	13.4
3508.405	15.4
3511.281	15.4
3514.155	9.4
3517.027	2.4
3519.897	6.4
3522.764	4.4
3525.629	1.4
3528.492	1.4
3531.352	-6.6
3534.211	-5.6
3537.067	-13.6
3539.921	-3.6
3542.773	-11.6
3545.622	-5.6
3548.469	-10.6
3551.315	-14.6
3554.157	-14.6
3556.998	-21.6
3559.837	-17.6
3562.673	-22.6
3565.507	-19.6
3568.339	-19.6
3571.169	-21.6
3573.996	-16.6
3576.822	-24.6
3579.645	-22.6
3582.466	-24.6
3585.285	-24.6
3588.101	-28.6
3590.916	-22.6
3593.728	-31.6
3596.538	-30.6
3599.346	-33.6
3602.152	-29.6
3604.956	-30.6
3607.757	-23.6
3610.556	-31.6
3613.354	-37.6
3616.149	-39.6
3618.942	-37.6
3621.732	-37.6
3624.521	-29.6
3627.307	-34.6
3630.092	-38.6
3632.874	-35.6
3635.654	-35.6
3638.432	-38.6
3641.208	-36.6
3643.982	-36.6
3646.753	-39.6
3649.523	-37.6
3652.29	-41.6
3655.055	-35.6
3657.818	-38.6
3660.579	-44.6
3663.338	-39.6
3666.095	-41.6
3668.849	-47.6
3671.602	-47.6
3674.352	-40.6
3677.101	-46.6
3679.847	-45.6
3682.591	-52.6
3685.333	-40.6
3688.073	-52.6
3690.811	-45.6
3693.547	-49.6
3696.281	-43.6
3699.013	-41.6
3701.742	-50.6
3704.47	-41.6
3707.195	-48.6
3709.919	-47.6
3712.64	-50.6
3715.359	-47.6
3718.076	-48.6
3720.792	-50.6
3723.505	-49.6
3726.216	-48.6
3728.925	-52.6
3731.632	-48.6
3734.336	-54.6
3737.039	-48.6
3739.74	-52.6
3742.439	-57.6
3745.136	-52.6
3747.83	-52.6
3750.523	-56.6
3753.213	-46.6
3755.902	-45.6
3758.589	-49.6
3761.273	-48.6
3763.956	-54.6
3766.636	-44.6
3769.315	-45.6
3771.991	-47.6
3774.665	-52.6
3777.338	-50.6
3780.008	-48.6
3782.677	-57.6
3785.343	-56.6
3788.007	-52.6
3790.67	-56.6
3793.33	-51.6
3795.989	-57.6
3798.645	-53.6
3801.299	-48.6
3803.952	-53.6
3806.602	-52.6
3809.251	-55.6
3811.897	-55.6
3814.542	-57.6
3817.184	-48.6
3819.825	-47.6
3822.463	-51.6
3825.1	-50.6
3827.735	-59.6
3830.367	-53.6
3832.998	-55.6
3835.627	-49.6
3838.253	-49.6
3840.878	-53.6
3843.501	-51.6
3846.122	-55.6
3848.741	-56.6
3851.358	-54.6
3853.973	-50.6
3856.586	-52.6
3859.197	-52.6
3861.806	-55.6
3864.414	-52.6
3867.019	-53.6
3869.622	-45.6
3872.224	-38.6
3874.823	-32.6
3877.421	-33.6
3880.016	-12.6
3882.61	4.4
3885.202	-1.6
3887.792	-3.6
3890.38	-23.6
3892.966	-39.6
3895.55	-43.6
3898.132	-46.6
3900.713	-53.6
3903.291	-58.6
3905.868	-53.6
3908.442	-53.6
3911.015	-53.6
3913.586	-58.6
3916.155	-53.6
3918.722	-52.6
3921.287	-54.6
3923.85	-46.6
3926.411	-54.6
3928.971	-61.6
3931.528	-54.6
3934.084	-48.6
3936.638	-50.6
3939.19	-59.6
3941.74	-50.6
3944.288	-50.6
3946.834	-56.6
3949.378	-55.6
3951.921	-57.6
3954.462	-56.6
3957	-55.6
3959.537	-48.6
3962.072	-50.6
3964.606	-55.6
3967.137	-56.6
3969.667	-55.6
3972.194	-59.6
3974.72	-46.6
3977.244	-47.6
3979.766	-53.6
3982.286	-52.6
3984.805	-61.6
3987.321	-49.6
3989.836	-51.6
3992.349	-53.6
3994.86	-52.6
3997.369	-53.6
3999.877	-51.6
4002.382	-52.6
4004.886	-52.6
4007.388	-57.6
4009.888	-54.6
4012.386	-56.6
4014.883	-51.6
4017.377	-50.6
4019.87	-57.6
4022.361	-54.6
4024.85	-52.6
4027.338	-57.6
4029.823	-55.6
4032.307	-53.6
4034.789	-50.6
4037.269	-52.6
4039.747	-48.6
4042.224	-53.6
4044.699	-56.6
4047.172	-56.6
4049.643	-54.6
4052.112	-53.6
4054.58	-52.6
4057.046	-52.6
4059.51	-55.6
4061.972	-58.6
4064.432	-47.6
4066.891	-51.6
4069.348	-51.6
4071.803	-49.6
4074.256	-53.6
4076.708	-49.6
4079.158	-58.6
4081.606	-52.6
4084.052	-59.6
4086.497	-48.6
4088.939	-49.6
4091.38	-58.6
4093.819	-56.6
4096.257	-56.6
4098.693	-56.6
4101.127	-50.6
4103.559	-60.6
4105.989	9.4
4108.418	2.4
4110.845	-4.6
4113.27	-2.6
4115.694	6.4
4118.115	8.4
4120.535	-54.6
4122.954	-51.6
4125.37	-51.6
4127.785	-49.6
4130.198	-52.6
4132.609	-55.6
4135.019	-53.6
4137.427	-58.6
4139.833	-54.6
4142.237	-52.6
