Data from 2018-3-7_conc=2_n=4_RamanShift_03.txt Node
Date: Wed Mar 07 10:49:22 IST 2018
User: aro
Spectrometer: QEPB0276
Trigger mode: 0
Integration Time (sec): 3.000000E1
Scans to average: 1
Electric dark correction enabled: true
Nonlinearity correction enabled: false
Boxcar width: 0
XAxis mode: Raman Shifts
Number of Pixels in Spectrum: 1044
>>>>>Begin Spectral Data<<<<<
160.701	9.4
166.742	18.4
172.777	53.4
178.805	151.4
184.826	391.4
190.841	796.4
196.849	1327.4
202.85	1714.4
208.845	1856.4
214.833	1872.4
220.815	1863.4
226.789	1859.4
232.758	1848.4
238.719	1864.4
244.674	1843.4
250.623	1857.4
256.565	1841.4
262.5	1812.4
268.429	1808.4
274.351	1829.4
280.267	1791.4
286.176	1783.4
292.079	1802.4
297.975	1794.4
303.865	1788.4
309.748	1791.4
315.625	1795.4
321.495	1792.4
327.359	1804.4
333.217	1816.4
339.068	1827.4
344.912	1822.4
350.751	1808.4
356.583	1823.4
362.408	1813.4
368.227	1836.4
374.04	1864.4
379.847	1866.4
385.647	1881.4
391.44	1883.4
397.228	1881.4
403.009	1884.4
408.784	1893.4
414.553	1921.4
420.315	1907.4
426.071	1904.4
431.821	1927.4
437.565	1919.4
443.302	1923.4
449.033	1922.4
454.758	1910.4
460.477	1882.4
466.189	1855.4
471.896	1841.4
477.596	1825.4
483.29	1832.4
488.978	1820.4
494.66	1823.4
500.335	1782.4
506.005	1682.4
511.668	1624.4
517.325	1566.4
522.977	1502.4
528.622	1461.4
534.261	1432.4
539.894	1403.4
545.521	1391.4
551.141	1378.4
556.756	1369.4
562.365	1362.4
567.968	1338.4
573.565	1332.4
579.155	1312.4
584.74	1337.4
590.319	1321.4
595.892	1334.4
601.459	1313.4
607.02	1306.4
612.575	1288.4
618.124	1285.4
623.667	1271.4
629.204	1259.4
634.735	1256.4
640.261	1234.4
645.781	1227.4
651.294	1219.4
656.802	1195.4
662.304	1207.4
667.8	1180.4
673.29	1201.4
678.775	1195.4
684.254	1198.4
689.726	1190.4
695.193	1194.4
700.655	1171.4
706.11	1164.4
711.56	1156.4
717.004	1157.4
722.442	1137.4
727.874	1138.4
733.301	1138.4
738.722	1137.4
744.137	1128.4
749.547	1123.4
754.951	1123.4
760.349	1128.4
765.741	1124.4
771.128	1134.4
776.509	1138.4
781.885	1172.4
787.254	1171.4
792.618	1176.4
797.977	1152.4
803.33	1158.4
808.677	1148.4
814.019	1146.4
819.355	1133.4
824.686	1115.4
830.011	1106.4
835.33	1101.4
840.644	1102.4
845.952	1108.4
851.255	1086.4
856.552	1084.4
861.844	1061.4
867.13	1062.4
872.41	1077.4
877.686	1058.4
882.955	1053.4
888.219	1051.4
893.478	1020.4
898.731	1020.4
903.979	988.4
909.221	990.4
914.458	970.4
919.69	989.4
924.916	989.4
930.136	986.4
935.351	981.4
940.561	983.4
945.766	989.4
950.965	974.4
956.158	967.4
961.347	955.4
966.529	952.4
971.707	929.4
976.879	917.4
982.046	902.4
987.208	917.4
992.364	916.4
997.515	902.4
1002.66	909.4
1007.801	919.4
1012.936	944.4
1018.066	952.4
1023.19	936.4
1028.309	935.4
1033.423	931.4
1038.532	929.4
1043.636	929.4
1048.734	929.4
1053.827	907.4
1058.915	912.4
1063.998	897.4
1069.075	893.4
1074.147	885.4
1079.214	907.4
1084.276	895.4
1089.333	901.4
1094.385	914.4
1099.431	887.4
1104.472	888.4
1109.509	886.4
1114.54	876.4
1119.565	855.4
1124.586	842.4
1129.602	835.4
1134.613	837.4
1139.618	826.4
1144.619	823.4
1149.614	827.4
1154.604	822.4
1159.589	831.4
1164.57	844.4
1169.545	834.4
1174.515	841.4
1179.48	834.4
1184.44	835.4
1189.395	825.4
1194.345	808.4
1199.29	805.4
1204.23	805.4
1209.165	806.4
1214.095	814.4
1219.021	823.4
1223.941	821.4
1228.856	820.4
1233.766	822.4
1238.672	823.4
1243.572	821.4
1248.467	819.4
1253.358	792.4
1258.244	789.4
1263.124	784.4
1268	764.4
1272.871	750.4
1277.737	755.4
1282.599	758.4
1287.455	761.4
1292.306	751.4
1297.153	749.4
1301.995	762.4
1306.832	758.4
1311.664	776.4
1316.491	767.4
1321.314	757.4
1326.132	757.4
1330.945	744.4
1335.753	725.4
1340.556	706.4
1345.354	686.4
1350.148	685.4
1354.937	658.4
1359.722	650.4
1364.501	645.4
1369.276	639.4
1374.046	624.4
1378.811	624.4
1383.572	616.4
1388.327	620.4
1393.079	613.4
1397.825	626.4
1402.567	626.4
1407.304	622.4
1412.036	624.4
1416.764	622.4
1421.487	635.4
1426.205	626.4
1430.919	618.4
1435.628	636.4
1440.333	645.4
1445.032	641.4
1449.727	649.4
1454.418	653.4
1459.104	643.4
1463.785	633.4
1468.462	619.4
1473.134	604.4
1477.802	585.4
1482.465	566.4
1487.123	555.4
1491.777	537.4
1496.426	548.4
1501.071	533.4
1505.711	523.4
1510.347	521.4
1514.978	513.4
1519.604	508.4
1524.226	510.4
1528.844	518.4
1533.457	509.4
1538.065	513.4
1542.669	519.4
1547.269	510.4
1551.864	512.4
1556.454	526.4
1561.041	534.4
1565.622	539.4
1570.199	528.4
1574.772	532.4
1579.34	549.4
1583.904	546.4
1588.464	564.4
1593.019	573.4
1597.569	565.4
1602.115	558.4
1606.657	558.4
1611.195	557.4
1615.728	559.4
1620.256	558.4
1624.78	561.4
1629.3	544.4
1633.816	550.4
1638.327	557.4
1642.834	549.4
1647.336	532.4
1651.834	544.4
1656.328	555.4
1660.817	539.4
1665.302	539.4
1669.783	527.4
1674.259	515.4
1678.732	499.4
1683.199	470.4
1687.663	464.4
1692.122	438.4
1696.577	421.4
1701.028	409.4
1705.474	379.4
1709.917	387.4
1714.355	378.4
1718.788	371.4
1723.218	365.4
1727.643	367.4
1732.064	373.4
1736.481	369.4
1740.893	360.4
1745.301	348.4
1749.705	342.4
1754.105	345.4
1758.501	330.4
1762.893	316.4
1767.28	317.4
1771.663	308.4
1776.042	304.4
1780.417	308.4
1784.787	302.4
1789.154	295.4
1793.516	278.4
1797.874	290.4
1802.228	286.4
1806.578	281.4
1810.924	271.4
1815.266	278.4
1819.603	277.4
1823.937	275.4
1828.266	278.4
1832.591	284.4
1836.913	278.4
1841.23	284.4
1845.543	280.4
1849.852	283.4
1854.156	283.4
1858.457	280.4
1862.754	284.4
1867.047	278.4
1871.335	280.4
1875.62	279.4
1879.9	285.4
1884.177	273.4
1888.449	270.4
1892.718	260.4
1896.982	263.4
1901.243	247.4
1905.499	248.4
1909.752	240.4
1914	247.4
1918.245	243.4
1922.485	240.4
1926.722	234.4
1930.954	226.4
1935.183	231.4
1939.408	224.4
1943.628	219.4
1947.845	218.4
1952.058	222.4
1956.267	221.4
1960.472	221.4
1964.673	202.4
1968.87	225.4
1973.063	220.4
1977.252	210.4
1981.438	222.4
1985.619	217.4
1989.797	217.4
1993.971	221.4
1998.14	221.4
2002.306	218.4
2006.469	219.4
2010.627	213.4
2014.781	216.4
2018.932	216.4
2023.078	219.4
2027.221	217.4
2031.36	208.4
2035.495	204.4
2039.627	197.4
2043.754	201.4
2047.878	205.4
2051.998	199.4
2056.114	194.4
2060.226	185.4
2064.334	196.4
2068.439	192.4
2072.54	192.4
2076.637	200.4
2080.73	184.4
2084.82	185.4
2088.906	182.4
2092.988	177.4
2097.066	180.4
2101.14	176.4
2105.211	168.4
2109.278	164.4
2113.342	166.4
2117.401	173.4
2121.457	169.4
2125.509	168.4
2129.558	164.4
2133.602	173.4
2137.643	179.4
2141.681	160.4
2145.714	168.4
2149.744	167.4
2153.77	161.4
2157.793	169.4
2161.812	172.4
2165.827	168.4
2169.838	161.4
2173.846	161.4
2177.851	159.4
2181.851	161.4
2185.848	153.4
2189.841	143.4
2193.831	150.4
2197.817	149.4
2201.799	147.4
2205.778	153.4
2209.753	151.4
2213.725	147.4
2217.693	148.4
2221.657	149.4
2225.618	147.4
2229.575	143.4
2233.529	141.4
2237.479	144.4
2241.425	135.4
2245.368	141.4
2249.307	144.4
2253.243	133.4
2257.175	133.4
2261.104	134.4
2265.029	128.4
2268.95	132.4
2272.868	130.4
2276.783	131.4
2280.694	114.4
2284.601	112.4
2288.505	122.4
2292.405	121.4
2296.302	128.4
2300.195	121.4
2304.085	116.4
2307.971	121.4
2311.854	115.4
2315.734	109.4
2319.609	116.4
2323.482	112.4
2327.351	116.4
2331.216	128.4
2335.078	138.4
2338.937	123.4
2342.792	114.4
2346.643	120.4
2350.492	116.4
2354.336	119.4
2358.178	108.4
2362.015	113.4
2365.85	118.4
2369.681	114.4
2373.508	114.4
2377.333	113.4
2381.153	111.4
2384.971	107.4
2388.785	113.4
2392.595	115.4
2396.402	111.4
2400.206	105.4
2404.007	107.4
2407.804	117.4
2411.597	100.4
2415.388	107.4
2419.174	115.4
2422.958	101.4
2426.738	105.4
2430.515	105.4
2434.289	106.4
2438.059	102.4
2441.825	99.4
2445.589	100.4
2449.349	98.4
2453.106	100.4
2456.859	92.4
2460.61	98.4
2464.356	91.4
2468.1	92.4
2471.84	86.4
2475.577	83.4
2479.311	85.4
2483.041	92.4
2486.768	81.4
2490.492	89.4
2494.213	93.4
2497.93	86.4
2501.644	87.4
2505.355	75.4
2509.062	83.4
2512.766	77.4
2516.467	78.4
2520.165	81.4
2523.859	80.4
2527.551	71.4
2531.239	72.4
2534.923	65.4
2538.605	67.4
2542.283	64.4
2545.958	65.4
2549.63	69.4
2553.299	66.4
2556.964	66.4
2560.626	64.4
2564.285	67.4
2567.941	63.4
2571.594	66.4
2575.243	60.4
2578.89	66.4
2582.533	54.4
2586.173	55.4
2589.809	63.4
2593.443	61.4
2597.073	49.4
2600.701	60.4
2604.325	50.4
2607.946	43.4
2611.564	55.4
2615.178	52.4
2618.79	54.4
2622.398	54.4
2626.004	54.4
2629.606	45.4
2633.205	48.4
2636.801	46.4
2640.394	55.4
2643.983	54.4
2647.57	47.4
2651.153	44.4
2654.734	48.4
2658.311	47.4
2661.885	42.4
2665.456	49.4
2669.025	48.4
2672.589	40.4
2676.151	41.4
2679.71	39.4
2683.266	43.4
2686.819	48.4
2690.368	46.4
2693.915	45.4
2697.458	43.4
2700.999	44.4
2704.536	44.4
2708.071	43.4
2711.602	31.4
2715.13	27.4
2718.656	29.4
2722.178	36.4
2725.697	36.4
2729.214	27.4
2732.727	41.4
2736.237	35.4
2739.744	26.4
2743.249	31.4
2746.75	28.4
2750.248	23.4
2753.743	24.4
2757.236	19.4
2760.725	23.4
2764.211	30.4
2767.695	16.4
2771.175	25.4
2774.652	25.4
2778.127	23.4
2781.598	18.4
2785.067	15.4
2788.532	15.4
2791.995	22.4
2795.455	23.4
2798.911	13.4
2802.365	24.4
2805.816	21.4
2809.264	21.4
2812.709	21.4
2816.151	21.4
2819.59	36.4
2823.026	23.4
2826.46	23.4
2829.89	18.4
2833.318	23.4
2836.742	23.4
2840.164	20.4
2843.583	20.4
2846.999	24.4
2850.412	27.4
2853.822	22.4
2857.229	27.4
2860.634	24.4
2864.035	28.4
2867.434	26.4
2870.83	33.4
2874.223	27.4
2877.613	31.4
2881	26.4
2884.385	35.4
2887.766	38.4
2891.145	29.4
2894.521	34.4
2897.894	34.4
2901.264	40.4
2904.631	34.4
2907.996	38.4
2911.358	41.4
2914.717	34.4
2918.073	39.4
2921.426	33.4
2924.777	40.4
2928.124	45.4
2931.469	48.4
2934.811	50.4
2938.15	55.4
2941.487	58.4
2944.821	43.4
2948.152	56.4
2951.48	48.4
2954.805	46.4
2958.128	42.4
2961.447	48.4
2964.765	38.4
2968.079	36.4
2971.39	41.4
2974.699	38.4
2978.005	52.4
2981.308	39.4
2984.609	41.4
2987.907	45.4
2991.202	44.4
2994.494	47.4
2997.784	40.4
3001.07	40.4
3004.355	45.4
3007.636	43.4
3010.915	50.4
3014.191	46.4
3017.464	44.4
3020.734	54.4
3024.002	55.4
3027.267	56.4
3030.53	56.4
3033.789	59.4
3037.046	49.4
3040.301	49.4
3043.552	55.4
3046.801	59.4
3050.048	52.4
3053.291	63.4
3056.532	64.4
3059.771	70.4
3063.006	62.4
3066.239	76.4
3069.469	79.4
3072.697	79.4
3075.922	87.4
3079.144	84.4
3082.364	83.4
3085.581	81.4
3088.795	93.4
3092.007	94.4
3095.216	94.4
3098.423	94.4
3101.627	91.4
3104.828	105.4
3108.026	101.4
3111.222	106.4
3114.416	115.4
3117.607	105.4
3120.795	111.4
3123.98	117.4
3127.163	123.4
3130.344	123.4
3133.521	123.4
3136.696	127.4
3139.869	131.4
3143.039	136.4
3146.206	142.4
3149.371	128.4
3152.533	141.4
3155.693	145.4
3158.85	143.4
3162.005	143.4
3165.157	141.4
3168.306	145.4
3171.453	147.4
3174.597	138.4
3177.739	143.4
3180.878	149.4
3184.014	143.4
3187.149	142.4
3190.28	142.4
3193.409	151.4
3196.536	141.4
3199.659	143.4
3202.781	145.4
3205.9	144.4
3209.016	147.4
3212.13	150.4
3215.241	146.4
3218.35	139.4
3221.456	145.4
3224.56	136.4
3227.661	137.4
3230.76	128.4
3233.856	125.4
3236.95	121.4
3240.041	115.4
3243.13	123.4
3246.216	121.4
3249.3	122.4
3252.382	125.4
3255.46	119.4
3258.537	121.4
3261.611	113.4
3264.682	113.4
3267.751	124.4
3270.818	105.4
3273.882	105.4
3276.943	107.4
3280.002	105.4
3283.059	106.4
3286.113	97.4
3289.165	105.4
3292.214	104.4
3295.261	102.4
3298.306	96.4
3301.348	102.4
3304.387	98.4
3307.425	103.4
3310.459	97.4
3313.492	97.4
3316.521	99.4
3319.549	100.4
3322.574	95.4
3325.597	92.4
3328.617	98.4
3331.635	96.4
3334.65	95.4
3337.663	93.4
3340.674	104.4
3343.682	93.4
3346.688	89.4
3349.691	97.4
3352.692	93.4
3355.691	99.4
3358.687	95.4
3361.681	90.4
3364.673	93.4
3367.662	95.4
3370.649	88.4
3373.633	88.4
3376.615	84.4
3379.595	79.4
3382.572	80.4
3385.547	78.4
3388.52	69.4
3391.49	71.4
3394.458	75.4
3397.424	76.4
3400.387	73.4
3403.348	69.4
3406.307	62.4
3409.263	69.4
3412.217	69.4
3415.168	68.4
3418.118	60.4
3421.065	59.4
3424.009	58.4
3426.951	58.4
3429.891	60.4
3432.829	54.4
3435.764	56.4
3438.697	53.4
3441.628	48.4
3444.557	44.4
3447.483	47.4
3450.407	34.4
3453.328	43.4
3456.247	35.4
3459.164	31.4
3462.079	22.4
3464.991	34.4
3467.902	22.4
3470.809	24.4
3473.715	24.4
3476.618	18.4
3479.519	18.4
3482.418	10.4
3485.315	14.4
3488.209	6.4
3491.101	9.4
3493.99	9.4
3496.878	1.4
3499.763	-0.6
3502.646	6.4
3505.527	7.4
3508.405	-2.6
3511.281	-4.6
3514.155	-3.6
3517.027	-5.6
3519.897	-9.6
3522.764	-6.6
3525.629	-12.6
3528.492	-12.6
3531.352	-14.6
3534.211	-14.6
3537.067	-14.6
3539.921	-8.6
3542.773	-18.6
3545.622	-16.6
3548.469	-22.6
3551.315	-19.6
3554.157	-25.6
3556.998	-24.6
3559.837	-28.6
3562.673	-21.6
3565.507	-25.6
3568.339	-18.6
3571.169	-28.6
3573.996	-21.6
3576.822	-29.6
3579.645	-31.6
3582.466	-21.6
3585.285	-32.6
3588.101	-38.6
3590.916	-27.6
3593.728	-37.6
3596.538	-34.6
3599.346	-36.6
3602.152	-35.6
3604.956	-30.6
3607.757	-31.6
3610.556	-36.6
3613.354	-40.6
3616.149	-44.6
3618.942	-38.6
3621.732	-42.6
3624.521	-39.6
3627.307	-36.6
3630.092	-39.6
3632.874	-37.6
3635.654	-41.6
3638.432	-39.6
3641.208	-34.6
3643.982	-40.6
3646.753	-43.6
3649.523	-44.6
3652.29	-45.6
3655.055	-41.6
3657.818	-46.6
3660.579	-44.6
3663.338	-40.6
3666.095	-45.6
3668.849	-40.6
3671.602	-46.6
3674.352	-39.6
3677.101	-43.6
3679.847	-44.6
3682.591	-50.6
3685.333	-44.6
3688.073	-53.6
3690.811	-47.6
3693.547	-48.6
3696.281	-45.6
3699.013	-46.6
3701.742	-44.6
3704.47	-44.6
3707.195	-46.6
3709.919	-53.6
3712.64	-47.6
3715.359	-50.6
3718.076	-53.6
3720.792	-47.6
3723.505	-51.6
3726.216	-45.6
3728.925	-50.6
3731.632	-46.6
3734.336	-52.6
3737.039	-46.6
3739.74	-51.6
3742.439	-59.6
3745.136	-54.6
3747.83	-53.6
3750.523	-53.6
3753.213	-55.6
3755.902	-55.6
3758.589	-50.6
3761.273	-50.6
3763.956	-51.6
3766.636	-47.6
3769.315	-50.6
3771.991	-44.6
3774.665	-60.6
3777.338	-52.6
3780.008	-48.6
3782.677	-56.6
3785.343	-50.6
3788.007	-52.6
3790.67	-53.6
3793.33	-52.6
3795.989	-55.6
3798.645	-56.6
3801.299	-51.6
3803.952	-54.6
3806.602	-55.6
3809.251	-51.6
3811.897	-60.6
3814.542	-59.6
3817.184	-54.6
3819.825	-43.6
3822.463	-55.6
3825.1	-50.6
3827.735	-58.6
3830.367	-57.6
3832.998	-55.6
3835.627	-55.6
3838.253	-47.6
3840.878	-46.6
3843.501	-48.6
3846.122	-53.6
3848.741	-54.6
3851.358	-50.6
3853.973	-51.6
3856.586	-50.6
3859.197	-48.6
3861.806	-54.6
3864.414	-57.6
3867.019	-56.6
3869.622	-47.6
3872.224	-50.6
3874.823	-37.6
3877.421	-28.6
3880.016	-17.6
3882.61	5.4
3885.202	-2.6
3887.792	-6.6
3890.38	-26.6
3892.966	-38.6
3895.55	-46.6
3898.132	-53.6
3900.713	-55.6
3903.291	-56.6
3905.868	-47.6
3908.442	-49.6
3911.015	-51.6
3913.586	-51.6
3916.155	-53.6
3918.722	-55.6
3921.287	-56.6
3923.85	-51.6
3926.411	-58.6
3928.971	-60.6
3931.528	-60.6
3934.084	-48.6
3936.638	-51.6
3939.19	-61.6
3941.74	-50.6
3944.288	-54.6
3946.834	-53.6
3949.378	-55.6
3951.921	-52.6
3954.462	-58.6
3957	-46.6
3959.537	-46.6
3962.072	-53.6
3964.606	-50.6
3967.137	-48.6
3969.667	-53.6
3972.194	-50.6
3974.72	-47.6
3977.244	-50.6
3979.766	-53.6
3982.286	-54.6
3984.805	-64.6
3987.321	-48.6
3989.836	-55.6
3992.349	-53.6
3994.86	-53.6
3997.369	-53.6
3999.877	-50.6
4002.382	-51.6
4004.886	-46.6
4007.388	-52.6
4009.888	-55.6
4012.386	-56.6
4014.883	-52.6
4017.377	-48.6
4019.87	-52.6
4022.361	-64.6
4024.85	-50.6
4027.338	-57.6
4029.823	-51.6
4032.307	-53.6
4034.789	-49.6
4037.269	-49.6
4039.747	-53.6
4042.224	-53.6
4044.699	-53.6
4047.172	-59.6
4049.643	-57.6
4052.112	-55.6
4054.58	-52.6
4057.046	-50.6
4059.51	-51.6
4061.972	-57.6
4064.432	-52.6
4066.891	-50.6
4069.348	-47.6
4071.803	-48.6
4074.256	-53.6
4076.708	-51.6
4079.158	-54.6
4081.606	-54.6
4084.052	-52.6
4086.497	-49.6
4088.939	-53.6
4091.38	-58.6
4093.819	-56.6
4096.257	-55.6
4098.693	-56.6
4101.127	-50.6
4103.559	-58.6
4105.989	22.4
4108.418	16.4
4110.845	12.4
4113.27	12.4
4115.694	18.4
4118.115	13.4
4120.535	-56.6
4122.954	-50.6
4125.37	-53.6
4127.785	-47.6
4130.198	-56.6
4132.609	-56.6
4135.019	-59.6
4137.427	-60.6
4139.833	-55.6
4142.237	-56.6
