Data from 2018-3-7_conc=3_n=2_RamanShift_01.txt Node
Date: Wed Mar 07 11:18:52 IST 2018
User: aro
Spectrometer: QEPB0276
Trigger mode: 0
Integration Time (sec): 3.000000E1
Scans to average: 1
Electric dark correction enabled: true
Nonlinearity correction enabled: false
Boxcar width: 0
XAxis mode: Raman Shifts
Number of Pixels in Spectrum: 1044
>>>>>Begin Spectral Data<<<<<
160.701	10.6
166.742	21.6
172.777	50.6
178.805	148.6
184.826	358.6
190.841	770.6
196.849	1259.6
202.85	1651.6
208.845	1801.6
214.833	1796.6
220.815	1764.6
226.789	1777.6
232.758	1793.6
238.719	1778.6
244.674	1783.6
250.623	1760.6
256.565	1749.6
262.5	1717.6
268.429	1721.6
274.351	1713.6
280.267	1688.6
286.176	1694.6
292.079	1701.6
297.975	1700.6
303.865	1702.6
309.748	1703.6
315.625	1701.6
321.495	1676.6
327.359	1719.6
333.217	1706.6
339.068	1724.6
344.912	1705.6
350.751	1721.6
356.583	1720.6
362.408	1726.6
368.227	1732.6
374.04	1736.6
379.847	1754.6
385.647	1747.6
391.44	1736.6
397.228	1757.6
403.009	1766.6
408.784	1787.6
414.553	1780.6
420.315	1797.6
426.071	1813.6
431.821	1790.6
437.565	1796.6
443.302	1780.6
449.033	1790.6
454.758	1792.6
460.477	1765.6
466.189	1735.6
471.896	1737.6
477.596	1718.6
483.29	1717.6
488.978	1718.6
494.66	1705.6
500.335	1667.6
506.005	1604.6
511.668	1542.6
517.325	1475.6
522.977	1420.6
528.622	1401.6
534.261	1373.6
539.894	1343.6
545.521	1318.6
551.141	1296.6
556.756	1284.6
562.365	1279.6
567.968	1272.6
573.565	1259.6
579.155	1258.6
584.74	1254.6
590.319	1244.6
595.892	1254.6
601.459	1240.6
607.02	1233.6
612.575	1232.6
618.124	1227.6
623.667	1194.6
629.204	1189.6
634.735	1188.6
640.261	1164.6
645.781	1159.6
651.294	1158.6
656.802	1138.6
662.304	1135.6
667.8	1126.6
673.29	1150.6
678.775	1139.6
684.254	1126.6
689.726	1130.6
695.193	1104.6
700.655	1107.6
706.11	1093.6
711.56	1103.6
717.004	1087.6
722.442	1055.6
727.874	1068.6
733.301	1071.6
738.722	1059.6
744.137	1071.6
749.547	1070.6
754.951	1060.6
760.349	1073.6
765.741	1066.6
771.128	1072.6
776.509	1080.6
781.885	1103.6
787.254	1106.6
792.618	1096.6
797.977	1104.6
803.33	1094.6
808.677	1082.6
814.019	1077.6
819.355	1076.6
824.686	1063.6
830.011	1055.6
835.33	1041.6
840.644	1048.6
845.952	1031.6
851.255	1031.6
856.552	1038.6
861.844	1005.6
867.13	1008.6
872.41	1014.6
877.686	994.6
882.955	998.6
888.219	987.6
893.478	965.6
898.731	958.6
903.979	946.6
909.221	938.6
914.458	935.6
919.69	931.6
924.916	935.6
930.136	934.6
935.351	942.6
940.561	939.6
945.766	931.6
950.965	930.6
956.158	928.6
961.347	910.6
966.529	912.6
971.707	893.6
976.879	875.6
982.046	861.6
987.208	870.6
992.364	850.6
997.515	872.6
1002.66	862.6
1007.801	886.6
1012.936	888.6
1018.066	906.6
1023.19	898.6
1028.309	890.6
1033.423	882.6
1038.532	874.6
1043.636	872.6
1048.734	884.6
1053.827	863.6
1058.915	869.6
1063.998	841.6
1069.075	847.6
1074.147	848.6
1079.214	854.6
1084.276	843.6
1089.333	852.6
1094.385	858.6
1099.431	840.6
1104.472	840.6
1109.509	839.6
1114.54	830.6
1119.565	805.6
1124.586	811.6
1129.602	797.6
1134.613	801.6
1139.618	784.6
1144.619	783.6
1149.614	788.6
1154.604	779.6
1159.589	783.6
1164.57	796.6
1169.545	803.6
1174.515	793.6
1179.48	795.6
1184.44	780.6
1189.395	789.6
1194.345	774.6
1199.29	751.6
1204.23	766.6
1209.165	767.6
1214.095	786.6
1219.021	784.6
1223.941	774.6
1228.856	780.6
1233.766	790.6
1238.672	787.6
1243.572	770.6
1248.467	771.6
1253.358	763.6
1258.244	768.6
1263.124	739.6
1268	726.6
1272.871	716.6
1277.737	715.6
1282.599	718.6
1287.455	715.6
1292.306	708.6
1297.153	711.6
1301.995	720.6
1306.832	721.6
1311.664	728.6
1316.491	716.6
1321.314	717.6
1326.132	714.6
1330.945	696.6
1335.753	682.6
1340.556	669.6
1345.354	670.6
1350.148	657.6
1354.937	646.6
1359.722	632.6
1364.501	620.6
1369.276	594.6
1374.046	591.6
1378.811	603.6
1383.572	595.6
1388.327	579.6
1393.079	583.6
1397.825	588.6
1402.567	599.6
1407.304	591.6
1412.036	604.6
1416.764	607.6
1421.487	602.6
1426.205	592.6
1430.919	608.6
1435.628	603.6
1440.333	614.6
1445.032	611.6
1449.727	627.6
1454.418	610.6
1459.104	615.6
1463.785	600.6
1468.462	589.6
1473.134	586.6
1477.802	544.6
1482.465	542.6
1487.123	527.6
1491.777	517.6
1496.426	521.6
1501.071	512.6
1505.711	511.6
1510.347	487.6
1514.978	499.6
1519.604	504.6
1524.226	501.6
1528.844	492.6
1533.457	484.6
1538.065	477.6
1542.669	485.6
1547.269	491.6
1551.864	496.6
1556.454	503.6
1561.041	526.6
1565.622	517.6
1570.199	516.6
1574.772	515.6
1579.34	529.6
1583.904	530.6
1588.464	540.6
1593.019	545.6
1597.569	539.6
1602.115	542.6
1606.657	531.6
1611.195	540.6
1615.728	527.6
1620.256	544.6
1624.78	536.6
1629.3	527.6
1633.816	540.6
1638.327	536.6
1642.834	522.6
1647.336	536.6
1651.834	528.6
1656.328	542.6
1660.817	531.6
1665.302	520.6
1669.783	493.6
1674.259	498.6
1678.732	489.6
1683.199	468.6
1687.663	454.6
1692.122	425.6
1696.577	418.6
1701.028	404.6
1705.474	370.6
1709.917	369.6
1714.355	357.6
1718.788	359.6
1723.218	366.6
1727.643	351.6
1732.064	362.6
1736.481	355.6
1740.893	345.6
1745.301	344.6
1749.705	336.6
1754.105	325.6
1758.501	314.6
1762.893	313.6
1767.28	308.6
1771.663	300.6
1776.042	304.6
1780.417	286.6
1784.787	285.6
1789.154	282.6
1793.516	273.6
1797.874	263.6
1802.228	262.6
1806.578	271.6
1810.924	254.6
1815.266	268.6
1819.603	263.6
1823.937	267.6
1828.266	268.6
1832.591	272.6
1836.913	262.6
1841.23	277.6
1845.543	265.6
1849.852	271.6
1854.156	271.6
1858.457	271.6
1862.754	268.6
1867.047	269.6
1871.335	266.6
1875.62	265.6
1879.9	264.6
1884.177	254.6
1888.449	260.6
1892.718	258.6
1896.982	262.6
1901.243	241.6
1905.499	240.6
1909.752	229.6
1914	227.6
1918.245	218.6
1922.485	222.6
1926.722	217.6
1930.954	223.6
1935.183	214.6
1939.408	216.6
1943.628	203.6
1947.845	221.6
1952.058	216.6
1956.267	204.6
1960.472	218.6
1964.673	203.6
1968.87	204.6
1973.063	205.6
1977.252	201.6
1981.438	205.6
1985.619	198.6
1989.797	194.6
1993.971	209.6
1998.14	212.6
2002.306	205.6
2006.469	214.6
2010.627	205.6
2014.781	212.6
2018.932	202.6
2023.078	209.6
2027.221	204.6
2031.36	201.6
2035.495	197.6
2039.627	190.6
2043.754	191.6
2047.878	184.6
2051.998	188.6
2056.114	185.6
2060.226	188.6
2064.334	191.6
2068.439	176.6
2072.54	182.6
2076.637	184.6
2080.73	186.6
2084.82	180.6
2088.906	172.6
2092.988	172.6
2097.066	171.6
2101.14	168.6
2105.211	162.6
2109.278	159.6
2113.342	156.6
2117.401	159.6
2121.457	161.6
2125.509	162.6
2129.558	153.6
2133.602	158.6
2137.643	160.6
2141.681	156.6
2145.714	154.6
2149.744	166.6
2153.77	163.6
2157.793	161.6
2161.812	167.6
2165.827	158.6
2169.838	157.6
2173.846	147.6
2177.851	147.6
2181.851	153.6
2185.848	142.6
2189.841	150.6
2193.831	140.6
2197.817	147.6
2201.799	140.6
2205.778	142.6
2209.753	150.6
2213.725	146.6
2217.693	150.6
2221.657	141.6
2225.618	136.6
2229.575	132.6
2233.529	133.6
2237.479	140.6
2241.425	129.6
2245.368	132.6
2249.307	132.6
2253.243	129.6
2257.175	126.6
2261.104	122.6
2265.029	131.6
2268.95	125.6
2272.868	124.6
2276.783	114.6
2280.694	115.6
2284.601	119.6
2288.505	116.6
2292.405	117.6
2296.302	121.6
2300.195	120.6
2304.085	115.6
2307.971	111.6
2311.854	105.6
2315.734	100.6
2319.609	106.6
2323.482	113.6
2327.351	114.6
2331.216	110.6
2335.078	128.6
2338.937	119.6
2342.792	106.6
2346.643	108.6
2350.492	111.6
2354.336	108.6
2358.178	105.6
2362.015	105.6
2365.85	103.6
2369.681	113.6
2373.508	107.6
2377.333	106.6
2381.153	112.6
2384.971	96.6
2388.785	94.6
2392.595	104.6
2396.402	102.6
2400.206	111.6
2404.007	102.6
2407.804	103.6
2411.597	97.6
2415.388	98.6
2419.174	106.6
2422.958	97.6
2426.738	96.6
2430.515	93.6
2434.289	97.6
2438.059	87.6
2441.825	89.6
2445.589	86.6
2449.349	88.6
2453.106	98.6
2456.859	89.6
2460.61	91.6
2464.356	89.6
2468.1	83.6
2471.84	86.6
2475.577	82.6
2479.311	86.6
2483.041	85.6
2486.768	81.6
2490.492	83.6
2494.213	79.6
2497.93	83.6
2501.644	84.6
2505.355	75.6
2509.062	75.6
2512.766	72.6
2516.467	73.6
2520.165	70.6
2523.859	71.6
2527.551	68.6
2531.239	68.6
2534.923	60.6
2538.605	69.6
2542.283	62.6
2545.958	64.6
2549.63	69.6
2553.299	61.6
2556.964	61.6
2560.626	66.6
2564.285	58.6
2567.941	52.6
2571.594	61.6
2575.243	56.6
2578.89	60.6
2582.533	50.6
2586.173	49.6
2589.809	57.6
2593.443	61.6
2597.073	52.6
2600.701	55.6
2604.325	43.6
2607.946	43.6
2611.564	59.6
2615.178	50.6
2618.79	52.6
2622.398	56.6
2626.004	46.6
2629.606	44.6
2633.205	45.6
2636.801	47.6
2640.394	45.6
2643.983	44.6
2647.57	46.6
2651.153	43.6
2654.734	42.6
2658.311	44.6
2661.885	49.6
2665.456	47.6
2669.025	47.6
2672.589	42.6
2676.151	41.6
2679.71	34.6
2683.266	38.6
2686.819	39.6
2690.368	34.6
2693.915	37.6
2697.458	34.6
2700.999	46.6
2704.536	38.6
2708.071	40.6
2711.602	35.6
2715.13	28.6
2718.656	29.6
2722.178	26.6
2725.697	25.6
2729.214	27.6
2732.727	31.6
2736.237	33.6
2739.744	23.6
2743.249	23.6
2746.75	19.6
2750.248	24.6
2753.743	19.6
2757.236	22.6
2760.725	26.6
2764.211	22.6
2767.695	19.6
2771.175	16.6
2774.652	15.6
2778.127	13.6
2781.598	13.6
2785.067	9.6
2788.532	21.6
2791.995	13.6
2795.455	8.6
2798.911	14.6
2802.365	14.6
2805.816	9.6
2809.264	17.6
2812.709	16.6
2816.151	18.6
2819.59	29.6
2823.026	23.6
2826.46	25.6
2829.89	16.6
2833.318	14.6
2836.742	29.6
2840.164	16.6
2843.583	9.6
2846.999	14.6
2850.412	21.6
2853.822	11.6
2857.229	19.6
2860.634	14.6
2864.035	18.6
2867.434	26.6
2870.83	31.6
2874.223	27.6
2877.613	29.6
2881	28.6
2884.385	34.6
2887.766	30.6
2891.145	23.6
2894.521	28.6
2897.894	27.6
2901.264	31.6
2904.631	22.6
2907.996	29.6
2911.358	33.6
2914.717	38.6
2918.073	38.6
2921.426	27.6
2924.777	41.6
2928.124	41.6
2931.469	39.6
2934.811	43.6
2938.15	45.6
2941.487	42.6
2944.821	45.6
2948.152	45.6
2951.48	42.6
2954.805	42.6
2958.128	43.6
2961.447	44.6
2964.765	34.6
2968.079	34.6
2971.39	44.6
2974.699	34.6
2978.005	42.6
2981.308	37.6
2984.609	36.6
2987.907	38.6
2991.202	44.6
2994.494	37.6
2997.784	34.6
3001.07	42.6
3004.355	40.6
3007.636	45.6
3010.915	38.6
3014.191	37.6
3017.464	45.6
3020.734	49.6
3024.002	46.6
3027.267	47.6
3030.53	46.6
3033.789	56.6
3037.046	51.6
3040.301	50.6
3043.552	58.6
3046.801	61.6
3050.048	55.6
3053.291	60.6
3056.532	61.6
3059.771	65.6
3063.006	71.6
3066.239	74.6
3069.469	82.6
3072.697	82.6
3075.922	87.6
3079.144	82.6
3082.364	81.6
3085.581	87.6
3088.795	92.6
3092.007	94.6
3095.216	99.6
3098.423	93.6
3101.627	93.6
3104.828	105.6
3108.026	107.6
3111.222	98.6
3114.416	107.6
3117.607	114.6
3120.795	113.6
3123.98	116.6
3127.163	125.6
3130.344	127.6
3133.521	129.6
3136.696	125.6
3139.869	134.6
3143.039	126.6
3146.206	139.6
3149.371	129.6
3152.533	142.6
3155.693	144.6
3158.85	145.6
3162.005	145.6
3165.157	145.6
3168.306	137.6
3171.453	145.6
3174.597	148.6
3177.739	147.6
3180.878	139.6
3184.014	140.6
3187.149	148.6
3190.28	148.6
3193.409	145.6
3196.536	142.6
3199.659	152.6
3202.781	148.6
3205.9	142.6
3209.016	141.6
3212.13	152.6
3215.241	143.6
3218.35	146.6
3221.456	147.6
3224.56	137.6
3227.661	137.6
3230.76	137.6
3233.856	137.6
3236.95	130.6
3240.041	119.6
3243.13	120.6
3246.216	125.6
3249.3	116.6
3252.382	120.6
3255.46	122.6
3258.537	121.6
3261.611	118.6
3264.682	111.6
3267.751	113.6
3270.818	107.6
3273.882	113.6
3276.943	101.6
3280.002	109.6
3283.059	114.6
3286.113	108.6
3289.165	109.6
3292.214	103.6
3295.261	110.6
3298.306	102.6
3301.348	105.6
3304.387	105.6
3307.425	98.6
3310.459	91.6
3313.492	100.6
3316.521	92.6
3319.549	102.6
3322.574	87.6
3325.597	94.6
3328.617	91.6
3331.635	99.6
3334.65	109.6
3337.663	91.6
3340.674	91.6
3343.682	98.6
3346.688	94.6
3349.691	93.6
3352.692	95.6
3355.691	101.6
3358.687	92.6
3361.681	95.6
3364.673	91.6
3367.662	97.6
3370.649	94.6
3373.633	85.6
3376.615	87.6
3379.595	78.6
3382.572	77.6
3385.547	88.6
3388.52	78.6
3391.49	70.6
3394.458	71.6
3397.424	75.6
3400.387	77.6
3403.348	60.6
3406.307	68.6
3409.263	67.6
3412.217	64.6
3415.168	71.6
3418.118	63.6
3421.065	62.6
3424.009	61.6
3426.951	63.6
3429.891	60.6
3432.829	54.6
3435.764	55.6
3438.697	56.6
3441.628	38.6
3444.557	46.6
3447.483	42.6
3450.407	38.6
3453.328	36.6
3456.247	39.6
3459.164	35.6
3462.079	27.6
3464.991	29.6
3467.902	25.6
3470.809	27.6
3473.715	24.6
3476.618	20.6
3479.519	21.6
3482.418	10.6
3485.315	14.6
3488.209	2.6
3491.101	5.6
3493.99	10.6
3496.878	5.6
3499.763	3.6
3502.646	8.6
3505.527	9.6
3508.405	4.6
3511.281	-5.4
3514.155	3.6
3517.027	-6.4
3519.897	-1.4
3522.764	-7.4
3525.629	-5.4
3528.492	-9.4
3531.352	-18.4
3534.211	-21.4
3537.067	-18.4
3539.921	-11.4
3542.773	-23.4
3545.622	-19.4
3548.469	-15.4
3551.315	-14.4
3554.157	-21.4
3556.998	-24.4
3559.837	-24.4
3562.673	-24.4
3565.507	-25.4
3568.339	-22.4
3571.169	-29.4
3573.996	-22.4
3576.822	-36.4
3579.645	-35.4
3582.466	-32.4
3585.285	-29.4
3588.101	-32.4
3590.916	-30.4
3593.728	-28.4
3596.538	-33.4
3599.346	-38.4
3602.152	-35.4
3604.956	-37.4
3607.757	-30.4
3610.556	-36.4
3613.354	-42.4
3616.149	-43.4
3618.942	-39.4
3621.732	-40.4
3624.521	-38.4
3627.307	-39.4
3630.092	-39.4
3632.874	-46.4
3635.654	-39.4
3638.432	-38.4
3641.208	-42.4
3643.982	-41.4
3646.753	-48.4
3649.523	-43.4
3652.29	-46.4
3655.055	-45.4
3657.818	-51.4
3660.579	-49.4
3663.338	-39.4
3666.095	-49.4
3668.849	-48.4
3671.602	-49.4
3674.352	-45.4
3677.101	-45.4
3679.847	-45.4
3682.591	-49.4
3685.333	-45.4
3688.073	-52.4
3690.811	-53.4
3693.547	-51.4
3696.281	-46.4
3699.013	-52.4
3701.742	-54.4
3704.47	-49.4
3707.195	-49.4
3709.919	-50.4
3712.64	-47.4
3715.359	-50.4
3718.076	-46.4
3720.792	-53.4
3723.505	-47.4
3726.216	-50.4
3728.925	-54.4
3731.632	-49.4
3734.336	-54.4
3737.039	-50.4
3739.74	-51.4
3742.439	-59.4
3745.136	-56.4
3747.83	-51.4
3750.523	-57.4
3753.213	-58.4
3755.902	-50.4
3758.589	-51.4
3761.273	-52.4
3763.956	-55.4
3766.636	-55.4
3769.315	-47.4
3771.991	-50.4
3774.665	-56.4
3777.338	-55.4
3780.008	-57.4
3782.677	-57.4
3785.343	-54.4
3788.007	-59.4
3790.67	-56.4
3793.33	-54.4
3795.989	-57.4
3798.645	-56.4
3801.299	-55.4
3803.952	-53.4
3806.602	-53.4
3809.251	-56.4
3811.897	-55.4
3814.542	-61.4
3817.184	-56.4
3819.825	-53.4
3822.463	-55.4
3825.1	-56.4
3827.735	-56.4
3830.367	-58.4
3832.998	-60.4
3835.627	-57.4
3838.253	-50.4
3840.878	-48.4
3843.501	-48.4
3846.122	-61.4
3848.741	-56.4
3851.358	-59.4
3853.973	-53.4
3856.586	-52.4
3859.197	-54.4
3861.806	-54.4
3864.414	-58.4
3867.019	-58.4
3869.622	-49.4
3872.224	-44.4
3874.823	-29.4
3877.421	-16.4
3880.016	-7.4
3882.61	6.6
3885.202	18.6
3887.792	6.6
3890.38	-13.4
3892.966	-44.4
3895.55	-49.4
3898.132	-52.4
3900.713	-52.4
3903.291	-54.4
3905.868	-54.4
3908.442	-56.4
3911.015	-54.4
3913.586	-58.4
3916.155	-59.4
3918.722	-56.4
3921.287	-56.4
3923.85	-52.4
3926.411	-54.4
3928.971	-61.4
3931.528	-58.4
3934.084	-57.4
3936.638	-52.4
3939.19	-64.4
3941.74	-51.4
3944.288	-57.4
3946.834	-59.4
3949.378	-58.4
3951.921	-58.4
3954.462	-60.4
3957	-48.4
3959.537	-44.4
3962.072	-50.4
3964.606	-55.4
3967.137	-47.4
3969.667	-55.4
3972.194	-52.4
3974.72	-54.4
3977.244	-49.4
3979.766	-56.4
3982.286	-56.4
3984.805	-63.4
3987.321	-55.4
3989.836	-55.4
3992.349	-57.4
3994.86	-55.4
3997.369	-57.4
3999.877	-52.4
4002.382	-53.4
4004.886	-50.4
4007.388	-56.4
4009.888	-52.4
4012.386	-56.4
4014.883	-56.4
4017.377	-51.4
4019.87	-52.4
4022.361	-59.4
4024.85	-55.4
4027.338	-61.4
4029.823	-56.4
4032.307	-54.4
4034.789	-52.4
4037.269	-56.4
4039.747	-56.4
4042.224	-50.4
4044.699	-53.4
4047.172	-56.4
4049.643	-54.4
4052.112	-54.4
4054.58	-54.4
4057.046	-49.4
4059.51	-63.4
4061.972	-59.4
4064.432	-56.4
4066.891	-54.4
4069.348	-53.4
4071.803	-52.4
4074.256	-55.4
4076.708	-52.4
4079.158	-58.4
4081.606	-55.4
4084.052	-58.4
4086.497	-51.4
4088.939	-51.4
4091.38	-57.4
4093.819	-60.4
4096.257	-58.4
4098.693	-61.4
4101.127	-53.4
4103.559	-62.4
4105.989	22.6
4108.418	14.6
4110.845	13.6
4113.27	16.6
4115.694	17.6
4118.115	14.6
4120.535	-53.4
4122.954	-57.4
4125.37	-54.4
4127.785	-49.4
4130.198	-57.4
4132.609	-57.4
4135.019	-58.4
4137.427	-61.4
4139.833	-55.4
4142.237	-56.4
