Data from 2018-3-7_conc=5_n=8_RamanShift_04.txt Node
Date: Wed Mar 07 12:48:22 IST 2018
User: aro
Spectrometer: QEPB0276
Trigger mode: 0
Integration Time (sec): 3.000000E1
Scans to average: 1
Electric dark correction enabled: true
Nonlinearity correction enabled: false
Boxcar width: 0
XAxis mode: Raman Shifts
Number of Pixels in Spectrum: 1044
>>>>>Begin Spectral Data<<<<<
160.701	8.6
166.742	19.6
172.777	70.6
178.805	202.6
184.826	546.6
190.841	1180.6
196.849	1994.6
202.85	2636.6
208.845	2894.6
214.833	2896.6
220.815	2838.6
226.789	2853.6
232.758	2827.6
238.719	2824.6
244.674	2797.6
250.623	2770.6
256.565	2753.6
262.5	2687.6
268.429	2654.6
274.351	2639.6
280.267	2595.6
286.176	2580.6
292.079	2566.6
297.975	2557.6
303.865	2549.6
309.748	2549.6
315.625	2523.6
321.495	2524.6
327.359	2541.6
333.217	2513.6
339.068	2558.6
344.912	2537.6
350.751	2553.6
356.583	2517.6
362.408	2513.6
368.227	2506.6
374.04	2548.6
379.847	2547.6
385.647	2539.6
391.44	2573.6
397.228	2584.6
403.009	2571.6
408.784	2597.6
414.553	2600.6
420.315	2589.6
426.071	2620.6
431.821	2588.6
437.565	2603.6
443.302	2591.6
449.033	2559.6
454.758	2588.6
460.477	2546.6
466.189	2555.6
471.896	2563.6
477.596	2525.6
483.29	2537.6
488.978	2521.6
494.66	2514.6
500.335	2480.6
506.005	2437.6
511.668	2360.6
517.325	2320.6
522.977	2275.6
528.622	2237.6
534.261	2238.6
539.894	2176.6
545.521	2177.6
551.141	2167.6
556.756	2170.6
562.365	2152.6
567.968	2149.6
573.565	2119.6
579.155	2117.6
584.74	2100.6
590.319	2088.6
595.892	2090.6
601.459	2076.6
607.02	2053.6
612.575	2036.6
618.124	2031.6
623.667	2027.6
629.204	1987.6
634.735	1985.6
640.261	1964.6
645.781	1977.6
651.294	1966.6
656.802	1968.6
662.304	1955.6
667.8	1945.6
673.29	1955.6
678.775	1951.6
684.254	1942.6
689.726	1924.6
695.193	1914.6
700.655	1912.6
706.11	1901.6
711.56	1887.6
717.004	1869.6
722.442	1862.6
727.874	1830.6
733.301	1833.6
738.722	1838.6
744.137	1841.6
749.547	1824.6
754.951	1844.6
760.349	1827.6
765.741	1831.6
771.128	1821.6
776.509	1835.6
781.885	1874.6
787.254	1866.6
792.618	1866.6
797.977	1838.6
803.33	1825.6
808.677	1818.6
814.019	1805.6
819.355	1790.6
824.686	1789.6
830.011	1765.6
835.33	1772.6
840.644	1762.6
845.952	1769.6
851.255	1763.6
856.552	1754.6
861.844	1756.6
867.13	1757.6
872.41	1747.6
877.686	1739.6
882.955	1730.6
888.219	1692.6
893.478	1701.6
898.731	1663.6
903.979	1655.6
909.221	1619.6
914.458	1622.6
919.69	1637.6
924.916	1637.6
930.136	1615.6
935.351	1625.6
940.561	1623.6
945.766	1638.6
950.965	1611.6
956.158	1631.6
961.347	1588.6
966.529	1574.6
971.707	1550.6
976.879	1551.6
982.046	1525.6
987.208	1513.6
992.364	1513.6
997.515	1512.6
1002.66	1521.6
1007.801	1553.6
1012.936	1562.6
1018.066	1564.6
1023.19	1557.6
1028.309	1555.6
1033.423	1533.6
1038.532	1558.6
1043.636	1517.6
1048.734	1514.6
1053.827	1499.6
1058.915	1473.6
1063.998	1457.6
1069.075	1449.6
1074.147	1458.6
1079.214	1454.6
1084.276	1472.6
1089.333	1480.6
1094.385	1476.6
1099.431	1468.6
1104.472	1462.6
1109.509	1480.6
1114.54	1450.6
1119.565	1435.6
1124.586	1406.6
1129.602	1405.6
1134.613	1390.6
1139.618	1385.6
1144.619	1377.6
1149.614	1367.6
1154.604	1371.6
1159.589	1377.6
1164.57	1389.6
1169.545	1382.6
1174.515	1395.6
1179.48	1379.6
1184.44	1370.6
1189.395	1367.6
1194.345	1331.6
1199.29	1339.6
1204.23	1339.6
1209.165	1346.6
1214.095	1352.6
1219.021	1364.6
1223.941	1359.6
1228.856	1369.6
1233.766	1382.6
1238.672	1376.6
1243.572	1387.6
1248.467	1370.6
1253.358	1357.6
1258.244	1321.6
1263.124	1303.6
1268	1296.6
1272.871	1271.6
1277.737	1262.6
1282.599	1235.6
1287.455	1249.6
1292.306	1253.6
1297.153	1265.6
1301.995	1275.6
1306.832	1264.6
1311.664	1288.6
1316.491	1298.6
1321.314	1286.6
1326.132	1284.6
1330.945	1266.6
1335.753	1237.6
1340.556	1219.6
1345.354	1197.6
1350.148	1175.6
1354.937	1141.6
1359.722	1107.6
1364.501	1084.6
1369.276	1060.6
1374.046	1023.6
1378.811	1010.6
1383.572	1013.6
1388.327	1022.6
1393.079	1015.6
1397.825	1028.6
1402.567	1042.6
1407.304	1050.6
1412.036	1062.6
1416.764	1058.6
1421.487	1053.6
1426.205	1066.6
1430.919	1062.6
1435.628	1070.6
1440.333	1083.6
1445.032	1073.6
1449.727	1109.6
1454.418	1110.6
1459.104	1075.6
1463.785	1082.6
1468.462	1051.6
1473.134	1029.6
1477.802	1016.6
1482.465	960.6
1487.123	952.6
1491.777	931.6
1496.426	929.6
1501.071	908.6
1505.711	896.6
1510.347	885.6
1514.978	877.6
1519.604	873.6
1524.226	876.6
1528.844	863.6
1533.457	860.6
1538.065	848.6
1542.669	862.6
1547.269	840.6
1551.864	863.6
1556.454	877.6
1561.041	870.6
1565.622	886.6
1570.199	912.6
1574.772	903.6
1579.34	933.6
1583.904	942.6
1588.464	965.6
1593.019	966.6
1597.569	964.6
1602.115	953.6
1606.657	960.6
1611.195	960.6
1615.728	949.6
1620.256	951.6
1624.78	943.6
1629.3	940.6
1633.816	971.6
1638.327	969.6
1642.834	938.6
1647.336	954.6
1651.834	961.6
1656.328	957.6
1660.817	932.6
1665.302	925.6
1669.783	905.6
1674.259	887.6
1678.732	862.6
1683.199	843.6
1687.663	800.6
1692.122	765.6
1696.577	730.6
1701.028	691.6
1705.474	622.6
1709.917	622.6
1714.355	617.6
1718.788	614.6
1723.218	615.6
1727.643	615.6
1732.064	612.6
1736.481	606.6
1740.893	605.6
1745.301	595.6
1749.705	583.6
1754.105	576.6
1758.501	560.6
1762.893	555.6
1767.28	535.6
1771.663	529.6
1776.042	522.6
1780.417	520.6
1784.787	499.6
1789.154	496.6
1793.516	484.6
1797.874	464.6
1802.228	466.6
1806.578	449.6
1810.924	444.6
1815.266	438.6
1819.603	440.6
1823.937	455.6
1828.266	453.6
1832.591	458.6
1836.913	459.6
1841.23	456.6
1845.543	464.6
1849.852	478.6
1854.156	470.6
1858.457	478.6
1862.754	471.6
1867.047	489.6
1871.335	467.6
1875.62	475.6
1879.9	474.6
1884.177	450.6
1888.449	468.6
1892.718	448.6
1896.982	445.6
1901.243	431.6
1905.499	425.6
1909.752	426.6
1914	408.6
1918.245	404.6
1922.485	387.6
1926.722	378.6
1930.954	379.6
1935.183	381.6
1939.408	384.6
1943.628	361.6
1947.845	359.6
1952.058	349.6
1956.267	344.6
1960.472	354.6
1964.673	343.6
1968.87	347.6
1973.063	345.6
1977.252	356.6
1981.438	351.6
1985.619	355.6
1989.797	350.6
1993.971	362.6
1998.14	358.6
2002.306	364.6
2006.469	373.6
2010.627	362.6
2014.781	372.6
2018.932	369.6
2023.078	376.6
2027.221	366.6
2031.36	363.6
2035.495	351.6
2039.627	347.6
2043.754	347.6
2047.878	345.6
2051.998	346.6
2056.114	327.6
2060.226	333.6
2064.334	335.6
2068.439	321.6
2072.54	321.6
2076.637	321.6
2080.73	322.6
2084.82	317.6
2088.906	306.6
2092.988	308.6
2097.066	298.6
2101.14	297.6
2105.211	297.6
2109.278	294.6
2113.342	280.6
2117.401	285.6
2121.457	280.6
2125.509	277.6
2129.558	282.6
2133.602	274.6
2137.643	279.6
2141.681	274.6
2145.714	284.6
2149.744	284.6
2153.77	276.6
2157.793	286.6
2161.812	282.6
2165.827	282.6
2169.838	268.6
2173.846	280.6
2177.851	274.6
2181.851	271.6
2185.848	268.6
2189.841	274.6
2193.831	264.6
2197.817	264.6
2201.799	269.6
2205.778	268.6
2209.753	274.6
2213.725	264.6
2217.693	262.6
2221.657	264.6
2225.618	248.6
2229.575	256.6
2233.529	251.6
2237.479	253.6
2241.425	247.6
2245.368	254.6
2249.307	245.6
2253.243	237.6
2257.175	236.6
2261.104	230.6
2265.029	229.6
2268.95	223.6
2272.868	237.6
2276.783	220.6
2280.694	221.6
2284.601	218.6
2288.505	219.6
2292.405	224.6
2296.302	222.6
2300.195	211.6
2304.085	216.6
2307.971	211.6
2311.854	201.6
2315.734	204.6
2319.609	205.6
2323.482	201.6
2327.351	201.6
2331.216	207.6
2335.078	216.6
2338.937	214.6
2342.792	205.6
2346.643	196.6
2350.492	202.6
2354.336	203.6
2358.178	188.6
2362.015	211.6
2365.85	199.6
2369.681	213.6
2373.508	213.6
2377.333	210.6
2381.153	206.6
2384.971	200.6
2388.785	198.6
2392.595	208.6
2396.402	202.6
2400.206	206.6
2404.007	203.6
2407.804	203.6
2411.597	200.6
2415.388	194.6
2419.174	195.6
2422.958	194.6
2426.738	188.6
2430.515	200.6
2434.289	199.6
2438.059	184.6
2441.825	183.6
2445.589	191.6
2449.349	190.6
2453.106	187.6
2456.859	177.6
2460.61	180.6
2464.356	179.6
2468.1	178.6
2471.84	187.6
2475.577	169.6
2479.311	164.6
2483.041	169.6
2486.768	168.6
2490.492	163.6
2494.213	155.6
2497.93	160.6
2501.644	164.6
2505.355	159.6
2509.062	153.6
2512.766	152.6
2516.467	151.6
2520.165	158.6
2523.859	149.6
2527.551	141.6
2531.239	144.6
2534.923	141.6
2538.605	133.6
2542.283	140.6
2545.958	136.6
2549.63	129.6
2553.299	123.6
2556.964	130.6
2560.626	132.6
2564.285	124.6
2567.941	113.6
2571.594	121.6
2575.243	125.6
2578.89	116.6
2582.533	117.6
2586.173	115.6
2589.809	110.6
2593.443	117.6
2597.073	109.6
2600.701	121.6
2604.325	103.6
2607.946	98.6
2611.564	105.6
2615.178	105.6
2618.79	100.6
2622.398	113.6
2626.004	104.6
2629.606	103.6
2633.205	109.6
2636.801	103.6
2640.394	108.6
2643.983	99.6
2647.57	101.6
2651.153	94.6
2654.734	90.6
2658.311	99.6
2661.885	93.6
2665.456	94.6
2669.025	96.6
2672.589	96.6
2676.151	95.6
2679.71	81.6
2683.266	90.6
2686.819	89.6
2690.368	91.6
2693.915	87.6
2697.458	87.6
2700.999	87.6
2704.536	91.6
2708.071	92.6
2711.602	82.6
2715.13	71.6
2718.656	74.6
2722.178	74.6
2725.697	61.6
2729.214	69.6
2732.727	73.6
2736.237	71.6
2739.744	60.6
2743.249	63.6
2746.75	59.6
2750.248	61.6
2753.743	66.6
2757.236	51.6
2760.725	50.6
2764.211	51.6
2767.695	43.6
2771.175	46.6
2774.652	50.6
2778.127	51.6
2781.598	42.6
2785.067	45.6
2788.532	49.6
2791.995	49.6
2795.455	47.6
2798.911	45.6
2802.365	49.6
2805.816	47.6
2809.264	52.6
2812.709	47.6
2816.151	51.6
2819.59	65.6
2823.026	61.6
2826.46	56.6
2829.89	55.6
2833.318	56.6
2836.742	63.6
2840.164	51.6
2843.583	57.6
2846.999	60.6
2850.412	60.6
2853.822	59.6
2857.229	61.6
2860.634	50.6
2864.035	55.6
2867.434	60.6
2870.83	68.6
2874.223	63.6
2877.613	66.6
2881	73.6
2884.385	73.6
2887.766	75.6
2891.145	70.6
2894.521	79.6
2897.894	70.6
2901.264	79.6
2904.631	72.6
2907.996	80.6
2911.358	85.6
2914.717	81.6
2918.073	85.6
2921.426	77.6
2924.777	85.6
2928.124	93.6
2931.469	95.6
2934.811	98.6
2938.15	106.6
2941.487	106.6
2944.821	97.6
2948.152	106.6
2951.48	103.6
2954.805	103.6
2958.128	96.6
2961.447	103.6
2964.765	99.6
2968.079	85.6
2971.39	90.6
2974.699	93.6
2978.005	105.6
2981.308	89.6
2984.609	94.6
2987.907	96.6
2991.202	101.6
2994.494	97.6
2997.784	91.6
3001.07	95.6
3004.355	95.6
3007.636	101.6
3010.915	97.6
3014.191	100.6
3017.464	94.6
3020.734	106.6
3024.002	113.6
3027.267	112.6
3030.53	112.6
3033.789	124.6
3037.046	117.6
3040.301	121.6
3043.552	131.6
3046.801	129.6
3050.048	130.6
3053.291	139.6
3056.532	141.6
3059.771	145.6
3063.006	162.6
3066.239	165.6
3069.469	176.6
3072.697	173.6
3075.922	172.6
3079.144	178.6
3082.364	185.6
3085.581	197.6
3088.795	187.6
3092.007	207.6
3095.216	205.6
3098.423	211.6
3101.627	205.6
3104.828	224.6
3108.026	224.6
3111.222	222.6
3114.416	226.6
3117.607	235.6
3120.795	238.6
3123.98	244.6
3127.163	253.6
3130.344	253.6
3133.521	259.6
3136.696	266.6
3139.869	267.6
3143.039	271.6
3146.206	278.6
3149.371	275.6
3152.533	292.6
3155.693	289.6
3158.85	295.6
3162.005	290.6
3165.157	300.6
3168.306	296.6
3171.453	297.6
3174.597	301.6
3177.739	303.6
3180.878	309.6
3184.014	300.6
3187.149	301.6
3190.28	305.6
3193.409	303.6
3196.536	299.6
3199.659	311.6
3202.781	305.6
3205.9	316.6
3209.016	305.6
3212.13	303.6
3215.241	304.6
3218.35	293.6
3221.456	298.6
3224.56	286.6
3227.661	293.6
3230.76	278.6
3233.856	286.6
3236.95	280.6
3240.041	281.6
3243.13	273.6
3246.216	265.6
3249.3	260.6
3252.382	254.6
3255.46	260.6
3258.537	252.6
3261.611	246.6
3264.682	240.6
3267.751	246.6
3270.818	220.6
3273.882	233.6
3276.943	236.6
3280.002	231.6
3283.059	230.6
3286.113	225.6
3289.165	216.6
3292.214	223.6
3295.261	226.6
3298.306	227.6
3301.348	216.6
3304.387	220.6
3307.425	221.6
3310.459	211.6
3313.492	216.6
3316.521	215.6
3319.549	221.6
3322.574	214.6
3325.597	209.6
3328.617	208.6
3331.635	215.6
3334.65	219.6
3337.663	204.6
3340.674	210.6
3343.682	205.6
3346.688	204.6
3349.691	217.6
3352.692	206.6
3355.691	210.6
3358.687	209.6
3361.681	209.6
3364.673	198.6
3367.662	201.6
3370.649	199.6
3373.633	193.6
3376.615	199.6
3379.595	189.6
3382.572	187.6
3385.547	184.6
3388.52	180.6
3391.49	173.6
3394.458	174.6
3397.424	167.6
3400.387	170.6
3403.348	158.6
3406.307	159.6
3409.263	159.6
3412.217	155.6
3415.168	167.6
3418.118	146.6
3421.065	143.6
3424.009	138.6
3426.951	136.6
3429.891	137.6
3432.829	142.6
3435.764	137.6
3438.697	132.6
3441.628	116.6
3444.557	123.6
3447.483	122.6
3450.407	110.6
3453.328	113.6
3456.247	109.6
3459.164	100.6
3462.079	90.6
3464.991	91.6
3467.902	84.6
3470.809	77.6
3473.715	67.6
3476.618	68.6
3479.519	62.6
3482.418	61.6
3485.315	62.6
3488.209	49.6
3491.101	52.6
3493.99	56.6
3496.878	44.6
3499.763	37.6
3502.646	30.6
3505.527	39.6
3508.405	41.6
3511.281	29.6
3514.155	29.6
3517.027	18.6
3519.897	23.6
3522.764	19.6
3525.629	18.6
3528.492	11.6
3531.352	6.6
3534.211	1.6
3537.067	0.6
3539.921	2.6
3542.773	-10.4
3545.622	-2.4
3548.469	-6.4
3551.315	-8.4
3554.157	-11.4
3556.998	-12.4
3559.837	-16.4
3562.673	-12.4
3565.507	-20.4
3568.339	-13.4
3571.169	-21.4
3573.996	-17.4
3576.822	-29.4
3579.645	-26.4
3582.466	-23.4
3585.285	-26.4
3588.101	-32.4
3590.916	-26.4
3593.728	-32.4
3596.538	-36.4
3599.346	-32.4
3602.152	-37.4
3604.956	-39.4
3607.757	-32.4
3610.556	-37.4
3613.354	-43.4
3616.149	-46.4
3618.942	-38.4
3621.732	-45.4
3624.521	-41.4
3627.307	-47.4
3630.092	-42.4
3632.874	-50.4
3635.654	-51.4
3638.432	-42.4
3641.208	-43.4
3643.982	-34.4
3646.753	-53.4
3649.523	-46.4
3652.29	-55.4
3655.055	-46.4
3657.818	-53.4
3660.579	-56.4
3663.338	-49.4
3666.095	-56.4
3668.849	-62.4
3671.602	-59.4
3674.352	-51.4
3677.101	-56.4
3679.847	-57.4
3682.591	-59.4
3685.333	-58.4
3688.073	-62.4
3690.811	-57.4
3693.547	-58.4
3696.281	-54.4
3699.013	-59.4
3701.742	-62.4
3704.47	-54.4
3707.195	-60.4
3709.919	-58.4
3712.64	-60.4
3715.359	-61.4
3718.076	-64.4
3720.792	-64.4
3723.505	-65.4
3726.216	-60.4
3728.925	-64.4
3731.632	-57.4
3734.336	-63.4
3737.039	-61.4
3739.74	-69.4
3742.439	-73.4
3745.136	-68.4
3747.83	-68.4
3750.523	-67.4
3753.213	-76.4
3755.902	-66.4
3758.589	-66.4
3761.273	-64.4
3763.956	-63.4
3766.636	-62.4
3769.315	-62.4
3771.991	-66.4
3774.665	-72.4
3777.338	-62.4
3780.008	-67.4
3782.677	-71.4
3785.343	-65.4
3788.007	-70.4
3790.67	-72.4
3793.33	-65.4
3795.989	-70.4
3798.645	-72.4
3801.299	-69.4
3803.952	-66.4
3806.602	-71.4
3809.251	-71.4
3811.897	-68.4
3814.542	-69.4
3817.184	-70.4
3819.825	-65.4
3822.463	-68.4
3825.1	-65.4
3827.735	-68.4
3830.367	-69.4
3832.998	-69.4
3835.627	-66.4
3838.253	-64.4
3840.878	-63.4
3843.501	-66.4
3846.122	-69.4
3848.741	-71.4
3851.358	-69.4
3853.973	-68.4
3856.586	-68.4
3859.197	-68.4
3861.806	-71.4
3864.414	-69.4
3867.019	-70.4
3869.622	-62.4
3872.224	-56.4
3874.823	-49.4
3877.421	-43.4
3880.016	-33.4
3882.61	-19.4
3885.202	-18.4
3887.792	-32.4
3890.38	-43.4
3892.966	-54.4
3895.55	-67.4
3898.132	-67.4
3900.713	-70.4
3903.291	-68.4
3905.868	-63.4
3908.442	-70.4
3911.015	-71.4
3913.586	-74.4
3916.155	-71.4
3918.722	-70.4
3921.287	-67.4
3923.85	-66.4
3926.411	-75.4
3928.971	-78.4
3931.528	-72.4
3934.084	-66.4
3936.638	-67.4
3939.19	-71.4
3941.74	-67.4
3944.288	-71.4
3946.834	-67.4
3949.378	-71.4
3951.921	-72.4
3954.462	-74.4
3957	-69.4
3959.537	-66.4
3962.072	-68.4
3964.606	-67.4
3967.137	-71.4
3969.667	-68.4
3972.194	-67.4
3974.72	-67.4
3977.244	-65.4
3979.766	-64.4
3982.286	-71.4
3984.805	-69.4
3987.321	-66.4
3989.836	-68.4
3992.349	-69.4
3994.86	-68.4
3997.369	-73.4
3999.877	-71.4
4002.382	-72.4
4004.886	-70.4
4007.388	-74.4
4009.888	-68.4
4012.386	-72.4
4014.883	-70.4
4017.377	-63.4
4019.87	-66.4
4022.361	-73.4
4024.85	-70.4
4027.338	-70.4
4029.823	-72.4
4032.307	-71.4
4034.789	-66.4
4037.269	-75.4
4039.747	-68.4
4042.224	-69.4
4044.699	-74.4
4047.172	-74.4
4049.643	-74.4
4052.112	-73.4
4054.58	-75.4
4057.046	-67.4
4059.51	-80.4
4061.972	-75.4
4064.432	-69.4
4066.891	-66.4
4069.348	-72.4
4071.803	-61.4
4074.256	-71.4
4076.708	-69.4
4079.158	-74.4
4081.606	-72.4
4084.052	-74.4
4086.497	-64.4
4088.939	-69.4
4091.38	-71.4
4093.819	-71.4
4096.257	-74.4
4098.693	-74.4
4101.127	-68.4
4103.559	-76.4
4105.989	-4.4
4108.418	-8.4
4110.845	-13.4
4113.27	-8.4
4115.694	-3.4
4118.115	-1.4
4120.535	-69.4
4122.954	-66.4
4125.37	-72.4
4127.785	-68.4
4130.198	-71.4
4132.609	-73.4
4135.019	-74.4
4137.427	-78.4
4139.833	-72.4
4142.237	-76.4
