Data from 2018-3-7_conc=2_n=3_RamanShift_03.txt Node
Date: Wed Mar 07 10:46:22 IST 2018
User: aro
Spectrometer: QEPB0276
Trigger mode: 0
Integration Time (sec): 3.000000E1
Scans to average: 1
Electric dark correction enabled: true
Nonlinearity correction enabled: false
Boxcar width: 0
XAxis mode: Raman Shifts
Number of Pixels in Spectrum: 1044
>>>>>Begin Spectral Data<<<<<
160.701	9.5
166.742	24.5
172.777	61.5
178.805	161.5
184.826	423.5
190.841	884.5
196.849	1460.5
202.85	1888.5
208.845	2088.5
214.833	2086.5
220.815	2043.5
226.789	2070.5
232.758	2073.5
238.719	2055.5
244.674	2085.5
250.623	2068.5
256.565	2039.5
262.5	2021.5
268.429	2005.5
274.351	1996.5
280.267	2005.5
286.176	1981.5
292.079	1985.5
297.975	1986.5
303.865	1992.5
309.748	2016.5
315.625	1999.5
321.495	2005.5
327.359	2006.5
333.217	2009.5
339.068	2020.5
344.912	2045.5
350.751	2040.5
356.583	2025.5
362.408	2038.5
368.227	2062.5
374.04	2051.5
379.847	2063.5
385.647	2061.5
391.44	2101.5
397.228	2114.5
403.009	2117.5
408.784	2117.5
414.553	2104.5
420.315	2144.5
426.071	2142.5
431.821	2148.5
437.565	2133.5
443.302	2127.5
449.033	2134.5
454.758	2114.5
460.477	2089.5
466.189	2070.5
471.896	2069.5
477.596	2043.5
483.29	2034.5
488.978	2018.5
494.66	2015.5
500.335	1972.5
506.005	1910.5
511.668	1816.5
517.325	1745.5
522.977	1670.5
528.622	1618.5
534.261	1587.5
539.894	1543.5
545.521	1538.5
551.141	1528.5
556.756	1516.5
562.365	1510.5
567.968	1486.5
573.565	1460.5
579.155	1454.5
584.74	1455.5
590.319	1453.5
595.892	1447.5
601.459	1442.5
607.02	1454.5
612.575	1442.5
618.124	1406.5
623.667	1406.5
629.204	1380.5
634.735	1377.5
640.261	1353.5
645.781	1340.5
651.294	1345.5
656.802	1328.5
662.304	1341.5
667.8	1333.5
673.29	1333.5
678.775	1315.5
684.254	1316.5
689.726	1310.5
695.193	1313.5
700.655	1291.5
706.11	1284.5
711.56	1281.5
717.004	1271.5
722.442	1265.5
727.874	1262.5
733.301	1258.5
738.722	1259.5
744.137	1238.5
749.547	1233.5
754.951	1240.5
760.349	1245.5
765.741	1251.5
771.128	1249.5
776.509	1268.5
781.885	1282.5
787.254	1303.5
792.618	1310.5
797.977	1299.5
803.33	1293.5
808.677	1264.5
814.019	1267.5
819.355	1251.5
824.686	1243.5
830.011	1242.5
835.33	1231.5
840.644	1217.5
845.952	1221.5
851.255	1204.5
856.552	1207.5
861.844	1206.5
867.13	1165.5
872.41	1170.5
877.686	1177.5
882.955	1172.5
888.219	1150.5
893.478	1132.5
898.731	1108.5
903.979	1097.5
909.221	1108.5
914.458	1082.5
919.69	1075.5
924.916	1088.5
930.136	1082.5
935.351	1084.5
940.561	1080.5
945.766	1094.5
950.965	1072.5
956.158	1078.5
961.347	1067.5
966.529	1051.5
971.707	1026.5
976.879	1017.5
982.046	1004.5
987.208	1011.5
992.364	990.5
997.515	1007.5
1002.66	1021.5
1007.801	1036.5
1012.936	1046.5
1018.066	1047.5
1023.19	1043.5
1028.309	1033.5
1033.423	1034.5
1038.532	1037.5
1043.636	1023.5
1048.734	1021.5
1053.827	1019.5
1058.915	1003.5
1063.998	995.5
1069.075	996.5
1074.147	979.5
1079.214	982.5
1084.276	996.5
1089.333	1009.5
1094.385	998.5
1099.431	982.5
1104.472	970.5
1109.509	977.5
1114.54	979.5
1119.565	951.5
1124.586	955.5
1129.602	929.5
1134.613	924.5
1139.618	916.5
1144.619	912.5
1149.614	924.5
1154.604	909.5
1159.589	921.5
1164.57	927.5
1169.545	937.5
1174.515	928.5
1179.48	920.5
1184.44	928.5
1189.395	904.5
1194.345	902.5
1199.29	889.5
1204.23	895.5
1209.165	898.5
1214.095	898.5
1219.021	896.5
1223.941	915.5
1228.856	923.5
1233.766	911.5
1238.672	911.5
1243.572	911.5
1248.467	907.5
1253.358	889.5
1258.244	877.5
1263.124	854.5
1268	849.5
1272.871	844.5
1277.737	831.5
1282.599	831.5
1287.455	839.5
1292.306	825.5
1297.153	828.5
1301.995	866.5
1306.832	841.5
1311.664	853.5
1316.491	841.5
1321.314	847.5
1326.132	837.5
1330.945	822.5
1335.753	809.5
1340.556	792.5
1345.354	779.5
1350.148	747.5
1354.937	744.5
1359.722	720.5
1364.501	720.5
1369.276	703.5
1374.046	680.5
1378.811	684.5
1383.572	679.5
1388.327	688.5
1393.079	677.5
1397.825	690.5
1402.567	701.5
1407.304	699.5
1412.036	692.5
1416.764	699.5
1421.487	697.5
1426.205	698.5
1430.919	696.5
1435.628	703.5
1440.333	717.5
1445.032	716.5
1449.727	719.5
1454.418	721.5
1459.104	723.5
1463.785	694.5
1468.462	674.5
1473.134	671.5
1477.802	650.5
1482.465	620.5
1487.123	608.5
1491.777	604.5
1496.426	598.5
1501.071	593.5
1505.711	591.5
1510.347	581.5
1514.978	573.5
1519.604	559.5
1524.226	569.5
1528.844	558.5
1533.457	569.5
1538.065	560.5
1542.669	568.5
1547.269	569.5
1551.864	581.5
1556.454	589.5
1561.041	591.5
1565.622	607.5
1570.199	590.5
1574.772	596.5
1579.34	608.5
1583.904	604.5
1588.464	626.5
1593.019	632.5
1597.569	629.5
1602.115	622.5
1606.657	633.5
1611.195	619.5
1615.728	607.5
1620.256	619.5
1624.78	606.5
1629.3	594.5
1633.816	606.5
1638.327	622.5
1642.834	604.5
1647.336	608.5
1651.834	612.5
1656.328	601.5
1660.817	606.5
1665.302	589.5
1669.783	572.5
1674.259	553.5
1678.732	544.5
1683.199	532.5
1687.663	516.5
1692.122	481.5
1696.577	451.5
1701.028	444.5
1705.474	418.5
1709.917	414.5
1714.355	408.5
1718.788	404.5
1723.218	413.5
1727.643	400.5
1732.064	405.5
1736.481	403.5
1740.893	387.5
1745.301	384.5
1749.705	386.5
1754.105	361.5
1758.501	357.5
1762.893	357.5
1767.28	339.5
1771.663	341.5
1776.042	335.5
1780.417	329.5
1784.787	327.5
1789.154	315.5
1793.516	305.5
1797.874	307.5
1802.228	305.5
1806.578	301.5
1810.924	299.5
1815.266	299.5
1819.603	299.5
1823.937	310.5
1828.266	300.5
1832.591	307.5
1836.913	305.5
1841.23	301.5
1845.543	302.5
1849.852	305.5
1854.156	309.5
1858.457	308.5
1862.754	305.5
1867.047	311.5
1871.335	310.5
1875.62	306.5
1879.9	303.5
1884.177	291.5
1888.449	291.5
1892.718	290.5
1896.982	284.5
1901.243	271.5
1905.499	260.5
1909.752	263.5
1914	258.5
1918.245	256.5
1922.485	255.5
1926.722	241.5
1930.954	231.5
1935.183	241.5
1939.408	231.5
1943.628	234.5
1947.845	228.5
1952.058	227.5
1956.267	229.5
1960.472	236.5
1964.673	220.5
1968.87	225.5
1973.063	227.5
1977.252	229.5
1981.438	235.5
1985.619	222.5
1989.797	225.5
1993.971	229.5
1998.14	235.5
2002.306	236.5
2006.469	238.5
2010.627	238.5
2014.781	234.5
2018.932	232.5
2023.078	228.5
2027.221	232.5
2031.36	227.5
2035.495	218.5
2039.627	220.5
2043.754	222.5
2047.878	205.5
2051.998	207.5
2056.114	205.5
2060.226	213.5
2064.334	206.5
2068.439	195.5
2072.54	201.5
2076.637	203.5
2080.73	196.5
2084.82	197.5
2088.906	189.5
2092.988	200.5
2097.066	191.5
2101.14	192.5
2105.211	185.5
2109.278	185.5
2113.342	177.5
2117.401	181.5
2121.457	172.5
2125.509	174.5
2129.558	179.5
2133.602	174.5
2137.643	173.5
2141.681	178.5
2145.714	181.5
2149.744	181.5
2153.77	176.5
2157.793	181.5
2161.812	181.5
2165.827	184.5
2169.838	176.5
2173.846	172.5
2177.851	165.5
2181.851	167.5
2185.848	165.5
2189.841	166.5
2193.831	165.5
2197.817	170.5
2201.799	165.5
2205.778	162.5
2209.753	165.5
2213.725	164.5
2217.693	167.5
2221.657	156.5
2225.618	157.5
2229.575	157.5
2233.529	153.5
2237.479	161.5
2241.425	156.5
2245.368	150.5
2249.307	155.5
2253.243	155.5
2257.175	151.5
2261.104	139.5
2265.029	131.5
2268.95	147.5
2272.868	137.5
2276.783	134.5
2280.694	137.5
2284.601	131.5
2288.505	141.5
2292.405	130.5
2296.302	143.5
2300.195	135.5
2304.085	130.5
2307.971	129.5
2311.854	117.5
2315.734	114.5
2319.609	129.5
2323.482	122.5
2327.351	129.5
2331.216	139.5
2335.078	155.5
2338.937	139.5
2342.792	131.5
2346.643	123.5
2350.492	134.5
2354.336	126.5
2358.178	122.5
2362.015	125.5
2365.85	124.5
2369.681	129.5
2373.508	137.5
2377.333	131.5
2381.153	133.5
2384.971	125.5
2388.785	118.5
2392.595	123.5
2396.402	130.5
2400.206	120.5
2404.007	119.5
2407.804	123.5
2411.597	119.5
2415.388	125.5
2419.174	127.5
2422.958	126.5
2426.738	125.5
2430.515	115.5
2434.289	112.5
2438.059	113.5
2441.825	105.5
2445.589	116.5
2449.349	105.5
2453.106	114.5
2456.859	113.5
2460.61	115.5
2464.356	111.5
2468.1	113.5
2471.84	93.5
2475.577	91.5
2479.311	91.5
2483.041	101.5
2486.768	96.5
2490.492	106.5
2494.213	90.5
2497.93	97.5
2501.644	102.5
2505.355	92.5
2509.062	88.5
2512.766	93.5
2516.467	88.5
2520.165	84.5
2523.859	81.5
2527.551	77.5
2531.239	83.5
2534.923	84.5
2538.605	76.5
2542.283	80.5
2545.958	81.5
2549.63	79.5
2553.299	75.5
2556.964	66.5
2560.626	76.5
2564.285	71.5
2567.941	65.5
2571.594	67.5
2575.243	66.5
2578.89	70.5
2582.533	61.5
2586.173	65.5
2589.809	72.5
2593.443	72.5
2597.073	63.5
2600.701	68.5
2604.325	58.5
2607.946	49.5
2611.564	61.5
2615.178	62.5
2618.79	56.5
2622.398	59.5
2626.004	61.5
2629.606	54.5
2633.205	56.5
2636.801	57.5
2640.394	57.5
2643.983	48.5
2647.57	56.5
2651.153	47.5
2654.734	48.5
2658.311	49.5
2661.885	59.5
2665.456	58.5
2669.025	56.5
2672.589	44.5
2676.151	48.5
2679.71	44.5
2683.266	47.5
2686.819	52.5
2690.368	44.5
2693.915	48.5
2697.458	44.5
2700.999	48.5
2704.536	45.5
2708.071	43.5
2711.602	37.5
2715.13	34.5
2718.656	41.5
2722.178	35.5
2725.697	28.5
2729.214	34.5
2732.727	36.5
2736.237	37.5
2739.744	32.5
2743.249	32.5
2746.75	33.5
2750.248	26.5
2753.743	28.5
2757.236	20.5
2760.725	24.5
2764.211	19.5
2767.695	18.5
2771.175	19.5
2774.652	19.5
2778.127	25.5
2781.598	22.5
2785.067	22.5
2788.532	20.5
2791.995	25.5
2795.455	21.5
2798.911	23.5
2802.365	20.5
2805.816	29.5
2809.264	30.5
2812.709	17.5
2816.151	26.5
2819.59	35.5
2823.026	22.5
2826.46	29.5
2829.89	21.5
2833.318	22.5
2836.742	25.5
2840.164	25.5
2843.583	19.5
2846.999	30.5
2850.412	25.5
2853.822	27.5
2857.229	31.5
2860.634	31.5
2864.035	33.5
2867.434	29.5
2870.83	28.5
2874.223	33.5
2877.613	35.5
2881	39.5
2884.385	41.5
2887.766	35.5
2891.145	38.5
2894.521	41.5
2897.894	39.5
2901.264	41.5
2904.631	35.5
2907.996	35.5
2911.358	47.5
2914.717	43.5
2918.073	37.5
2921.426	43.5
2924.777	48.5
2928.124	49.5
2931.469	50.5
2934.811	55.5
2938.15	60.5
2941.487	67.5
2944.821	61.5
2948.152	62.5
2951.48	53.5
2954.805	57.5
2958.128	48.5
2961.447	55.5
2964.765	46.5
2968.079	48.5
2971.39	42.5
2974.699	52.5
2978.005	53.5
2981.308	40.5
2984.609	44.5
2987.907	41.5
2991.202	44.5
2994.494	51.5
2997.784	43.5
3001.07	46.5
3004.355	41.5
3007.636	53.5
3010.915	45.5
3014.191	53.5
3017.464	52.5
3020.734	59.5
3024.002	55.5
3027.267	56.5
3030.53	58.5
3033.789	61.5
3037.046	54.5
3040.301	55.5
3043.552	64.5
3046.801	64.5
3050.048	65.5
3053.291	66.5
3056.532	71.5
3059.771	78.5
3063.006	81.5
3066.239	87.5
3069.469	91.5
3072.697	91.5
3075.922	95.5
3079.144	97.5
3082.364	97.5
3085.581	95.5
3088.795	101.5
3092.007	109.5
3095.216	111.5
3098.423	108.5
3101.627	109.5
3104.828	122.5
3108.026	123.5
3111.222	120.5
3114.416	118.5
3117.607	127.5
3120.795	129.5
3123.98	130.5
3127.163	139.5
3130.344	138.5
3133.521	147.5
3136.696	151.5
3139.869	144.5
3143.039	144.5
3146.206	156.5
3149.371	149.5
3152.533	166.5
3155.693	162.5
3158.85	157.5
3162.005	165.5
3165.157	159.5
3168.306	157.5
3171.453	157.5
3174.597	162.5
3177.739	164.5
3180.878	170.5
3184.014	167.5
3187.149	154.5
3190.28	162.5
3193.409	166.5
3196.536	167.5
3199.659	159.5
3202.781	166.5
3205.9	165.5
3209.016	161.5
3212.13	163.5
3215.241	167.5
3218.35	159.5
3221.456	163.5
3224.56	155.5
3227.661	157.5
3230.76	146.5
3233.856	145.5
3236.95	137.5
3240.041	136.5
3243.13	136.5
3246.216	137.5
3249.3	130.5
3252.382	128.5
3255.46	138.5
3258.537	132.5
3261.611	123.5
3264.682	121.5
3267.751	129.5
3270.818	104.5
3273.882	124.5
3276.943	109.5
3280.002	121.5
3283.059	121.5
3286.113	109.5
3289.165	111.5
3292.214	116.5
3295.261	119.5
3298.306	113.5
3301.348	113.5
3304.387	116.5
3307.425	110.5
3310.459	99.5
3313.492	105.5
3316.521	104.5
3319.549	113.5
3322.574	104.5
3325.597	107.5
3328.617	107.5
3331.635	112.5
3334.65	115.5
3337.663	103.5
3340.674	106.5
3343.682	102.5
3346.688	102.5
3349.691	108.5
3352.692	101.5
3355.691	107.5
3358.687	101.5
3361.681	104.5
3364.673	109.5
3367.662	103.5
3370.649	107.5
3373.633	90.5
3376.615	90.5
3379.595	81.5
3382.572	87.5
3385.547	93.5
3388.52	92.5
3391.49	84.5
3394.458	80.5
3397.424	80.5
3400.387	80.5
3403.348	70.5
3406.307	72.5
3409.263	73.5
3412.217	75.5
3415.168	76.5
3418.118	69.5
3421.065	72.5
3424.009	74.5
3426.951	64.5
3429.891	63.5
3432.829	63.5
3435.764	67.5
3438.697	58.5
3441.628	52.5
3444.557	46.5
3447.483	55.5
3450.407	40.5
3453.328	40.5
3456.247	40.5
3459.164	35.5
3462.079	33.5
3464.991	35.5
3467.902	32.5
3470.809	34.5
3473.715	23.5
3476.618	23.5
3479.519	17.5
3482.418	21.5
3485.315	17.5
3488.209	5.5
3491.101	8.5
3493.99	10.5
3496.878	9.5
3499.763	3.5
3502.646	0.5
3505.527	5.5
3508.405	1.5
3511.281	-2.5
3514.155	-3.5
3517.027	-8.5
3519.897	-3.5
3522.764	-7.5
3525.629	-11.5
3528.492	-12.5
3531.352	-17.5
3534.211	-16.5
3537.067	-19.5
3539.921	-16.5
3542.773	-24.5
3545.622	-24.5
3548.469	-25.5
3551.315	-23.5
3554.157	-22.5
3556.998	-25.5
3559.837	-28.5
3562.673	-22.5
3565.507	-26.5
3568.339	-24.5
3571.169	-28.5
3573.996	-24.5
3576.822	-43.5
3579.645	-34.5
3582.466	-33.5
3585.285	-40.5
3588.101	-35.5
3590.916	-30.5
3593.728	-34.5
3596.538	-41.5
3599.346	-35.5
3602.152	-37.5
3604.956	-34.5
3607.757	-31.5
3610.556	-44.5
3613.354	-46.5
3616.149	-50.5
3618.942	-40.5
3621.732	-48.5
3624.521	-41.5
3627.307	-41.5
3630.092	-39.5
3632.874	-48.5
3635.654	-42.5
3638.432	-46.5
3641.208	-41.5
3643.982	-45.5
3646.753	-51.5
3649.523	-44.5
3652.29	-50.5
3655.055	-48.5
3657.818	-50.5
3660.579	-48.5
3663.338	-45.5
3666.095	-50.5
3668.849	-51.5
3671.602	-47.5
3674.352	-48.5
3677.101	-48.5
3679.847	-47.5
3682.591	-52.5
3685.333	-45.5
3688.073	-54.5
3690.811	-50.5
3693.547	-54.5
3696.281	-50.5
3699.013	-51.5
3701.742	-59.5
3704.47	-51.5
3707.195	-55.5
3709.919	-51.5
3712.64	-55.5
3715.359	-51.5
3718.076	-59.5
3720.792	-55.5
3723.505	-56.5
3726.216	-56.5
3728.925	-57.5
3731.632	-52.5
3734.336	-55.5
3737.039	-52.5
3739.74	-60.5
3742.439	-56.5
3745.136	-52.5
3747.83	-50.5
3750.523	-58.5
3753.213	-62.5
3755.902	-57.5
3758.589	-52.5
3761.273	-55.5
3763.956	-58.5
3766.636	-57.5
3769.315	-52.5
3771.991	-57.5
3774.665	-60.5
3777.338	-51.5
3780.008	-60.5
3782.677	-59.5
3785.343	-56.5
3788.007	-60.5
3790.67	-60.5
3793.33	-58.5
3795.989	-60.5
3798.645	-61.5
3801.299	-57.5
3803.952	-55.5
3806.602	-58.5
3809.251	-58.5
3811.897	-60.5
3814.542	-61.5
3817.184	-68.5
3819.825	-53.5
3822.463	-56.5
3825.1	-54.5
3827.735	-66.5
3830.367	-59.5
3832.998	-60.5
3835.627	-56.5
3838.253	-53.5
3840.878	-53.5
3843.501	-54.5
3846.122	-58.5
3848.741	-60.5
3851.358	-57.5
3853.973	-60.5
3856.586	-63.5
3859.197	-58.5
3861.806	-63.5
3864.414	-59.5
3867.019	-55.5
3869.622	-48.5
3872.224	-49.5
3874.823	-40.5
3877.421	-39.5
3880.016	-22.5
3882.61	-10.5
3885.202	-12.5
3887.792	-14.5
3890.38	-32.5
3892.966	-42.5
3895.55	-51.5
3898.132	-55.5
3900.713	-59.5
3903.291	-59.5
3905.868	-58.5
3908.442	-61.5
3911.015	-60.5
3913.586	-66.5
3916.155	-63.5
3918.722	-58.5
3921.287	-56.5
3923.85	-53.5
3926.411	-59.5
3928.971	-64.5
3931.528	-58.5
3934.084	-62.5
3936.638	-55.5
3939.19	-66.5
3941.74	-61.5
3944.288	-61.5
3946.834	-60.5
3949.378	-55.5
3951.921	-62.5
3954.462	-55.5
3957	-51.5
3959.537	-52.5
3962.072	-58.5
3964.606	-64.5
3967.137	-60.5
3969.667	-63.5
3972.194	-59.5
3974.72	-56.5
3977.244	-54.5
3979.766	-58.5
3982.286	-57.5
3984.805	-65.5
3987.321	-54.5
3989.836	-56.5
3992.349	-60.5
3994.86	-62.5
3997.369	-58.5
3999.877	-61.5
4002.382	-59.5
4004.886	-55.5
4007.388	-59.5
4009.888	-58.5
4012.386	-61.5
4014.883	-58.5
4017.377	-54.5
4019.87	-58.5
4022.361	-64.5
4024.85	-56.5
4027.338	-62.5
4029.823	-62.5
4032.307	-64.5
4034.789	-55.5
4037.269	-56.5
4039.747	-61.5
4042.224	-62.5
4044.699	-61.5
4047.172	-66.5
4049.643	-63.5
4052.112	-57.5
4054.58	-56.5
4057.046	-57.5
4059.51	-63.5
4061.972	-59.5
4064.432	-63.5
4066.891	-59.5
4069.348	-57.5
4071.803	-55.5
4074.256	-58.5
4076.708	-57.5
4079.158	-66.5
4081.606	-61.5
4084.052	-61.5
4086.497	-56.5
4088.939	-58.5
4091.38	-61.5
4093.819	-61.5
4096.257	-61.5
4098.693	-62.5
4101.127	-57.5
4103.559	-67.5
4105.989	21.5
4108.418	13.5
4110.845	12.5
4113.27	12.5
4115.694	11.5
4118.115	14.5
4120.535	-56.5
4122.954	-53.5
4125.37	-57.5
4127.785	-54.5
4130.198	-56.5
4132.609	-59.5
4135.019	-65.5
4137.427	-69.5
4139.833	-60.5
4142.237	-61.5
