Data from 2018-3-7_conc=4_n=10_RamanShift_01.txt Node
Date: Wed Mar 07 12:18:22 IST 2018
User: aro
Spectrometer: QEPB0276
Trigger mode: 0
Integration Time (sec): 3.000000E1
Scans to average: 1
Electric dark correction enabled: true
Nonlinearity correction enabled: false
Boxcar width: 0
XAxis mode: Raman Shifts
Number of Pixels in Spectrum: 1044
>>>>>Begin Spectral Data<<<<<
160.701	11.2
166.742	24.2
172.777	53.2
178.805	146.2
184.826	394.2
190.841	822.2
196.849	1351.2
202.85	1773.2
208.845	1969.2
214.833	1984.2
220.815	1939.2
226.789	1922.2
232.758	1936.2
238.719	1925.2
244.674	1923.2
250.623	1918.2
256.565	1888.2
262.5	1868.2
268.429	1820.2
274.351	1826.2
280.267	1829.2
286.176	1804.2
292.079	1798.2
297.975	1809.2
303.865	1785.2
309.748	1805.2
315.625	1803.2
321.495	1795.2
327.359	1787.2
333.217	1795.2
339.068	1795.2
344.912	1820.2
350.751	1830.2
356.583	1800.2
362.408	1814.2
368.227	1813.2
374.04	1825.2
379.847	1837.2
385.647	1839.2
391.44	1839.2
397.228	1838.2
403.009	1884.2
408.784	1863.2
414.553	1876.2
420.315	1875.2
426.071	1860.2
431.821	1874.2
437.565	1878.2
443.302	1888.2
449.033	1870.2
454.758	1854.2
460.477	1846.2
466.189	1832.2
471.896	1811.2
477.596	1802.2
483.29	1795.2
488.978	1794.2
494.66	1797.2
500.335	1750.2
506.005	1692.2
511.668	1647.2
517.325	1588.2
522.977	1556.2
528.622	1514.2
534.261	1487.2
539.894	1465.2
545.521	1458.2
551.141	1447.2
556.756	1417.2
562.365	1422.2
567.968	1414.2
573.565	1406.2
579.155	1405.2
584.74	1411.2
590.319	1380.2
595.892	1392.2
601.459	1363.2
607.02	1359.2
612.575	1370.2
618.124	1347.2
623.667	1340.2
629.204	1319.2
634.735	1300.2
640.261	1303.2
645.781	1292.2
651.294	1294.2
656.802	1288.2
662.304	1264.2
667.8	1276.2
673.29	1280.2
678.775	1285.2
684.254	1272.2
689.726	1277.2
695.193	1262.2
700.655	1251.2
706.11	1246.2
711.56	1233.2
717.004	1234.2
722.442	1216.2
727.874	1235.2
733.301	1210.2
738.722	1200.2
744.137	1188.2
749.547	1191.2
754.951	1201.2
760.349	1199.2
765.741	1218.2
771.128	1200.2
776.509	1216.2
781.885	1218.2
787.254	1226.2
792.618	1210.2
797.977	1222.2
803.33	1219.2
808.677	1216.2
814.019	1201.2
819.355	1197.2
824.686	1160.2
830.011	1187.2
835.33	1173.2
840.644	1166.2
845.952	1157.2
851.255	1154.2
856.552	1160.2
861.844	1148.2
867.13	1146.2
872.41	1144.2
877.686	1124.2
882.955	1113.2
888.219	1100.2
893.478	1095.2
898.731	1086.2
903.979	1073.2
909.221	1067.2
914.458	1054.2
919.69	1064.2
924.916	1056.2
930.136	1060.2
935.351	1058.2
940.561	1062.2
945.766	1066.2
950.965	1060.2
956.158	1044.2
961.347	1031.2
966.529	1015.2
971.707	996.2
976.879	996.2
982.046	986.2
987.208	975.2
992.364	986.2
997.515	990.2
1002.66	993.2
1007.801	995.2
1012.936	1012.2
1018.066	1014.2
1023.19	1017.2
1028.309	1025.2
1033.423	1001.2
1038.532	991.2
1043.636	1001.2
1048.734	997.2
1053.827	965.2
1058.915	976.2
1063.998	957.2
1069.075	950.2
1074.147	941.2
1079.214	959.2
1084.276	964.2
1089.333	971.2
1094.385	960.2
1099.431	949.2
1104.472	960.2
1109.509	951.2
1114.54	954.2
1119.565	926.2
1124.586	917.2
1129.602	903.2
1134.613	900.2
1139.618	912.2
1144.619	900.2
1149.614	899.2
1154.604	884.2
1159.589	896.2
1164.57	903.2
1169.545	893.2
1174.515	917.2
1179.48	902.2
1184.44	881.2
1189.395	880.2
1194.345	888.2
1199.29	865.2
1204.23	877.2
1209.165	877.2
1214.095	865.2
1219.021	876.2
1223.941	892.2
1228.856	888.2
1233.766	887.2
1238.672	907.2
1243.572	889.2
1248.467	885.2
1253.358	875.2
1258.244	857.2
1263.124	846.2
1268	837.2
1272.871	827.2
1277.737	816.2
1282.599	833.2
1287.455	811.2
1292.306	824.2
1297.153	810.2
1301.995	823.2
1306.832	834.2
1311.664	833.2
1316.491	828.2
1321.314	833.2
1326.132	823.2
1330.945	792.2
1335.753	785.2
1340.556	781.2
1345.354	760.2
1350.148	750.2
1354.937	732.2
1359.722	707.2
1364.501	697.2
1369.276	690.2
1374.046	668.2
1378.811	664.2
1383.572	673.2
1388.327	659.2
1393.079	671.2
1397.825	687.2
1402.567	675.2
1407.304	678.2
1412.036	676.2
1416.764	672.2
1421.487	679.2
1426.205	685.2
1430.919	670.2
1435.628	678.2
1440.333	700.2
1445.032	695.2
1449.727	714.2
1454.418	719.2
1459.104	696.2
1463.785	689.2
1468.462	682.2
1473.134	662.2
1477.802	629.2
1482.465	621.2
1487.123	617.2
1491.777	593.2
1496.426	592.2
1501.071	591.2
1505.711	573.2
1510.347	565.2
1514.978	573.2
1519.604	566.2
1524.226	571.2
1528.844	559.2
1533.457	564.2
1538.065	551.2
1542.669	556.2
1547.269	560.2
1551.864	563.2
1556.454	565.2
1561.041	574.2
1565.622	592.2
1570.199	587.2
1574.772	577.2
1579.34	606.2
1583.904	597.2
1588.464	626.2
1593.019	618.2
1597.569	617.2
1602.115	614.2
1606.657	618.2
1611.195	613.2
1615.728	609.2
1620.256	605.2
1624.78	604.2
1629.3	606.2
1633.816	622.2
1638.327	618.2
1642.834	604.2
1647.336	601.2
1651.834	612.2
1656.328	607.2
1660.817	599.2
1665.302	586.2
1669.783	583.2
1674.259	556.2
1678.732	541.2
1683.199	524.2
1687.663	508.2
1692.122	482.2
1696.577	462.2
1701.028	443.2
1705.474	416.2
1709.917	408.2
1714.355	400.2
1718.788	405.2
1723.218	396.2
1727.643	405.2
1732.064	404.2
1736.481	399.2
1740.893	384.2
1745.301	387.2
1749.705	374.2
1754.105	359.2
1758.501	361.2
1762.893	364.2
1767.28	347.2
1771.663	346.2
1776.042	336.2
1780.417	326.2
1784.787	328.2
1789.154	307.2
1793.516	301.2
1797.874	304.2
1802.228	301.2
1806.578	304.2
1810.924	290.2
1815.266	289.2
1819.603	288.2
1823.937	303.2
1828.266	296.2
1832.591	311.2
1836.913	300.2
1841.23	300.2
1845.543	301.2
1849.852	309.2
1854.156	313.2
1858.457	310.2
1862.754	321.2
1867.047	297.2
1871.335	307.2
1875.62	302.2
1879.9	306.2
1884.177	290.2
1888.449	288.2
1892.718	289.2
1896.982	281.2
1901.243	266.2
1905.499	276.2
1909.752	259.2
1914	262.2
1918.245	258.2
1922.485	244.2
1926.722	237.2
1930.954	235.2
1935.183	244.2
1939.408	240.2
1943.628	230.2
1947.845	232.2
1952.058	228.2
1956.267	225.2
1960.472	233.2
1964.673	219.2
1968.87	232.2
1973.063	230.2
1977.252	229.2
1981.438	219.2
1985.619	227.2
1989.797	227.2
1993.971	235.2
1998.14	232.2
2002.306	237.2
2006.469	237.2
2010.627	234.2
2014.781	239.2
2018.932	224.2
2023.078	233.2
2027.221	237.2
2031.36	227.2
2035.495	229.2
2039.627	215.2
2043.754	216.2
2047.878	219.2
2051.998	216.2
2056.114	216.2
2060.226	212.2
2064.334	209.2
2068.439	197.2
2072.54	202.2
2076.637	205.2
2080.73	200.2
2084.82	200.2
2088.906	200.2
2092.988	194.2
2097.066	195.2
2101.14	193.2
2105.211	192.2
2109.278	189.2
2113.342	178.2
2117.401	184.2
2121.457	175.2
2125.509	184.2
2129.558	171.2
2133.602	182.2
2137.643	180.2
2141.681	174.2
2145.714	178.2
2149.744	186.2
2153.77	186.2
2157.793	176.2
2161.812	185.2
2165.827	178.2
2169.838	175.2
2173.846	168.2
2177.851	168.2
2181.851	172.2
2185.848	168.2
2189.841	170.2
2193.831	162.2
2197.817	171.2
2201.799	166.2
2205.778	165.2
2209.753	169.2
2213.725	162.2
2217.693	170.2
2221.657	164.2
2225.618	153.2
2229.575	154.2
2233.529	160.2
2237.479	163.2
2241.425	149.2
2245.368	157.2
2249.307	147.2
2253.243	147.2
2257.175	153.2
2261.104	138.2
2265.029	140.2
2268.95	144.2
2272.868	140.2
2276.783	138.2
2280.694	131.2
2284.601	133.2
2288.505	140.2
2292.405	139.2
2296.302	138.2
2300.195	132.2
2304.085	126.2
2307.971	127.2
2311.854	119.2
2315.734	119.2
2319.609	128.2
2323.482	123.2
2327.351	123.2
2331.216	134.2
2335.078	148.2
2338.937	137.2
2342.792	125.2
2346.643	125.2
2350.492	128.2
2354.336	126.2
2358.178	115.2
2362.015	128.2
2365.85	126.2
2369.681	133.2
2373.508	131.2
2377.333	130.2
2381.153	131.2
2384.971	127.2
2388.785	121.2
2392.595	119.2
2396.402	125.2
2400.206	130.2
2404.007	122.2
2407.804	121.2
2411.597	118.2
2415.388	120.2
2419.174	126.2
2422.958	119.2
2426.738	133.2
2430.515	123.2
2434.289	124.2
2438.059	123.2
2441.825	109.2
2445.589	121.2
2449.349	116.2
2453.106	114.2
2456.859	111.2
2460.61	108.2
2464.356	107.2
2468.1	101.2
2471.84	105.2
2475.577	90.2
2479.311	103.2
2483.041	102.2
2486.768	99.2
2490.492	99.2
2494.213	97.2
2497.93	106.2
2501.644	98.2
2505.355	94.2
2509.062	89.2
2512.766	99.2
2516.467	92.2
2520.165	92.2
2523.859	101.2
2527.551	89.2
2531.239	88.2
2534.923	81.2
2538.605	76.2
2542.283	77.2
2545.958	75.2
2549.63	77.2
2553.299	78.2
2556.964	70.2
2560.626	77.2
2564.285	74.2
2567.941	66.2
2571.594	72.2
2575.243	76.2
2578.89	75.2
2582.533	73.2
2586.173	69.2
2589.809	78.2
2593.443	74.2
2597.073	72.2
2600.701	68.2
2604.325	52.2
2607.946	60.2
2611.564	64.2
2615.178	59.2
2618.79	58.2
2622.398	65.2
2626.004	63.2
2629.606	61.2
2633.205	57.2
2636.801	61.2
2640.394	62.2
2643.983	58.2
2647.57	60.2
2651.153	51.2
2654.734	56.2
2658.311	59.2
2661.885	57.2
2665.456	56.2
2669.025	57.2
2672.589	57.2
2676.151	59.2
2679.71	47.2
2683.266	47.2
2686.819	55.2
2690.368	51.2
2693.915	47.2
2697.458	43.2
2700.999	46.2
2704.536	51.2
2708.071	47.2
2711.602	40.2
2715.13	40.2
2718.656	43.2
2722.178	38.2
2725.697	41.2
2729.214	39.2
2732.727	41.2
2736.237	42.2
2739.744	30.2
2743.249	32.2
2746.75	34.2
2750.248	25.2
2753.743	34.2
2757.236	25.2
2760.725	24.2
2764.211	20.2
2767.695	14.2
2771.175	21.2
2774.652	24.2
2778.127	24.2
2781.598	20.2
2785.067	23.2
2788.532	23.2
2791.995	32.2
2795.455	26.2
2798.911	22.2
2802.365	29.2
2805.816	27.2
2809.264	30.2
2812.709	23.2
2816.151	29.2
2819.59	32.2
2823.026	30.2
2826.46	30.2
2829.89	27.2
2833.318	25.2
2836.742	29.2
2840.164	25.2
2843.583	28.2
2846.999	27.2
2850.412	31.2
2853.822	29.2
2857.229	36.2
2860.634	31.2
2864.035	29.2
2867.434	28.2
2870.83	39.2
2874.223	33.2
2877.613	38.2
2881	43.2
2884.385	33.2
2887.766	39.2
2891.145	36.2
2894.521	41.2
2897.894	43.2
2901.264	38.2
2904.631	34.2
2907.996	42.2
2911.358	48.2
2914.717	43.2
2918.073	44.2
2921.426	43.2
2924.777	45.2
2928.124	49.2
2931.469	49.2
2934.811	52.2
2938.15	61.2
2941.487	56.2
2944.821	50.2
2948.152	58.2
2951.48	51.2
2954.805	60.2
2958.128	51.2
2961.447	59.2
2964.765	48.2
2968.079	46.2
2971.39	57.2
2974.699	48.2
2978.005	52.2
2981.308	53.2
2984.609	45.2
2987.907	49.2
2991.202	52.2
2994.494	46.2
2997.784	42.2
3001.07	48.2
3004.355	50.2
3007.636	45.2
3010.915	52.2
3014.191	50.2
3017.464	52.2
3020.734	58.2
3024.002	65.2
3027.267	62.2
3030.53	70.2
3033.789	62.2
3037.046	65.2
3040.301	55.2
3043.552	69.2
3046.801	74.2
3050.048	76.2
3053.291	73.2
3056.532	81.2
3059.771	78.2
3063.006	78.2
3066.239	84.2
3069.469	100.2
3072.697	90.2
3075.922	97.2
3079.144	93.2
3082.364	105.2
3085.581	101.2
3088.795	108.2
3092.007	119.2
3095.216	113.2
3098.423	110.2
3101.627	114.2
3104.828	124.2
3108.026	128.2
3111.222	132.2
3114.416	132.2
3117.607	134.2
3120.795	134.2
3123.98	138.2
3127.163	143.2
3130.344	149.2
3133.521	148.2
3136.696	151.2
3139.869	154.2
3143.039	156.2
3146.206	165.2
3149.371	167.2
3152.533	175.2
3155.693	179.2
3158.85	168.2
3162.005	176.2
3165.157	175.2
3168.306	169.2
3171.453	167.2
3174.597	163.2
3177.739	178.2
3180.878	169.2
3184.014	169.2
3187.149	167.2
3190.28	176.2
3193.409	172.2
3196.536	170.2
3199.659	178.2
3202.781	171.2
3205.9	171.2
3209.016	174.2
3212.13	179.2
3215.241	182.2
3218.35	166.2
3221.456	172.2
3224.56	166.2
3227.661	162.2
3230.76	158.2
3233.856	158.2
3236.95	151.2
3240.041	142.2
3243.13	154.2
3246.216	137.2
3249.3	138.2
3252.382	141.2
3255.46	143.2
3258.537	136.2
3261.611	134.2
3264.682	139.2
3267.751	142.2
3270.818	125.2
3273.882	132.2
3276.943	130.2
3280.002	130.2
3283.059	126.2
3286.113	128.2
3289.165	120.2
3292.214	120.2
3295.261	132.2
3298.306	130.2
3301.348	120.2
3304.387	117.2
3307.425	122.2
3310.459	112.2
3313.492	117.2
3316.521	118.2
3319.549	133.2
3322.574	112.2
3325.597	116.2
3328.617	120.2
3331.635	123.2
3334.65	127.2
3337.663	109.2
3340.674	109.2
3343.682	116.2
3346.688	106.2
3349.691	113.2
3352.692	117.2
3355.691	115.2
3358.687	112.2
3361.681	112.2
3364.673	116.2
3367.662	106.2
3370.649	110.2
3373.633	99.2
3376.615	109.2
3379.595	107.2
3382.572	104.2
3385.547	102.2
3388.52	95.2
3391.49	90.2
3394.458	87.2
3397.424	93.2
3400.387	97.2
3403.348	92.2
3406.307	83.2
3409.263	85.2
3412.217	83.2
3415.168	85.2
3418.118	77.2
3421.065	79.2
3424.009	76.2
3426.951	69.2
3429.891	84.2
3432.829	72.2
3435.764	75.2
3438.697	77.2
3441.628	64.2
3444.557	63.2
3447.483	58.2
3450.407	48.2
3453.328	55.2
3456.247	50.2
3459.164	43.2
3462.079	39.2
3464.991	37.2
3467.902	44.2
3470.809	31.2
3473.715	34.2
3476.618	30.2
3479.519	19.2
3482.418	24.2
3485.315	22.2
3488.209	16.2
3491.101	17.2
3493.99	22.2
3496.878	14.2
3499.763	12.2
3502.646	11.2
3505.527	15.2
3508.405	12.2
3511.281	11.2
3514.155	5.2
3517.027	4.2
3519.897	7.2
3522.764	-2.8
3525.629	-4.8
3528.492	-12.8
3531.352	-9.8
3534.211	-18.8
3537.067	-15.8
3539.921	-8.8
3542.773	-17.8
3545.622	-12.8
3548.469	-16.8
3551.315	-17.8
3554.157	-16.8
3556.998	-17.8
3559.837	-21.8
3562.673	-21.8
3565.507	-24.8
3568.339	-17.8
3571.169	-27.8
3573.996	-18.8
3576.822	-36.8
3579.645	-26.8
3582.466	-32.8
3585.285	-31.8
3588.101	-34.8
3590.916	-27.8
3593.728	-36.8
3596.538	-40.8
3599.346	-36.8
3602.152	-33.8
3604.956	-29.8
3607.757	-28.8
3610.556	-31.8
3613.354	-37.8
3616.149	-37.8
3618.942	-38.8
3621.732	-41.8
3624.521	-36.8
3627.307	-37.8
3630.092	-43.8
3632.874	-44.8
3635.654	-45.8
3638.432	-41.8
3641.208	-42.8
3643.982	-41.8
3646.753	-46.8
3649.523	-46.8
3652.29	-42.8
3655.055	-40.8
3657.818	-44.8
3660.579	-41.8
3663.338	-44.8
3666.095	-41.8
3668.849	-45.8
3671.602	-40.8
3674.352	-42.8
3677.101	-43.8
3679.847	-47.8
3682.591	-48.8
3685.333	-46.8
3688.073	-58.8
3690.811	-52.8
3693.547	-53.8
3696.281	-45.8
3699.013	-50.8
3701.742	-56.8
3704.47	-46.8
3707.195	-48.8
3709.919	-51.8
3712.64	-52.8
3715.359	-47.8
3718.076	-47.8
3720.792	-49.8
3723.505	-49.8
3726.216	-45.8
3728.925	-51.8
3731.632	-43.8
3734.336	-48.8
3737.039	-51.8
3739.74	-55.8
3742.439	-59.8
3745.136	-57.8
3747.83	-49.8
3750.523	-53.8
3753.213	-57.8
3755.902	-53.8
3758.589	-54.8
3761.273	-56.8
3763.956	-56.8
3766.636	-51.8
3769.315	-52.8
3771.991	-51.8
3774.665	-50.8
3777.338	-52.8
3780.008	-54.8
3782.677	-56.8
3785.343	-52.8
3788.007	-58.8
3790.67	-54.8
3793.33	-53.8
3795.989	-52.8
3798.645	-59.8
3801.299	-55.8
3803.952	-55.8
3806.602	-58.8
3809.251	-60.8
3811.897	-57.8
3814.542	-60.8
3817.184	-52.8
3819.825	-56.8
3822.463	-52.8
3825.1	-53.8
3827.735	-58.8
3830.367	-54.8
3832.998	-58.8
3835.627	-54.8
3838.253	-50.8
3840.878	-46.8
3843.501	-53.8
3846.122	-55.8
3848.741	-57.8
3851.358	-53.8
3853.973	-54.8
3856.586	-55.8
3859.197	-55.8
3861.806	-56.8
3864.414	-59.8
3867.019	-55.8
3869.622	-53.8
3872.224	-44.8
3874.823	-34.8
3877.421	-29.8
3880.016	-19.8
3882.61	1.2
3885.202	0.2
3887.792	-7.8
3890.38	-29.8
3892.966	-41.8
3895.55	-54.8
3898.132	-49.8
3900.713	-55.8
3903.291	-59.8
3905.868	-52.8
3908.442	-56.8
3911.015	-57.8
3913.586	-60.8
3916.155	-57.8
3918.722	-54.8
3921.287	-57.8
3923.85	-52.8
3926.411	-54.8
3928.971	-64.8
3931.528	-59.8
3934.084	-52.8
3936.638	-50.8
3939.19	-61.8
3941.74	-55.8
3944.288	-58.8
3946.834	-55.8
3949.378	-59.8
3951.921	-56.8
3954.462	-61.8
3957	-53.8
3959.537	-50.8
3962.072	-53.8
3964.606	-53.8
3967.137	-56.8
3969.667	-59.8
3972.194	-52.8
3974.72	-50.8
3977.244	-46.8
3979.766	-53.8
3982.286	-51.8
3984.805	-63.8
3987.321	-55.8
3989.836	-55.8
3992.349	-53.8
3994.86	-57.8
3997.369	-62.8
3999.877	-61.8
4002.382	-55.8
4004.886	-52.8
4007.388	-60.8
4009.888	-55.8
4012.386	-53.8
4014.883	-52.8
4017.377	-52.8
4019.87	-52.8
4022.361	-56.8
4024.85	-50.8
4027.338	-54.8
4029.823	-59.8
4032.307	-60.8
4034.789	-52.8
4037.269	-56.8
4039.747	-59.8
4042.224	-56.8
4044.699	-62.8
4047.172	-57.8
4049.643	-57.8
4052.112	-57.8
4054.58	-54.8
4057.046	-52.8
4059.51	-56.8
4061.972	-61.8
4064.432	-51.8
4066.891	-49.8
4069.348	-52.8
4071.803	-50.8
4074.256	-56.8
4076.708	-56.8
4079.158	-56.8
4081.606	-56.8
4084.052	-57.8
4086.497	-56.8
4088.939	-53.8
4091.38	-58.8
4093.819	-62.8
4096.257	-58.8
4098.693	-57.8
4101.127	-54.8
4103.559	-59.8
4105.989	17.2
4108.418	11.2
4110.845	8.2
4113.27	8.2
4115.694	11.2
4118.115	16.2
4120.535	-53.8
4122.954	-56.8
4125.37	-55.8
4127.785	-50.8
4130.198	-51.8
4132.609	-56.8
4135.019	-58.8
4137.427	-59.8
4139.833	-58.8
4142.237	-57.8
