Data from 2018-3-7_conc=5_n=7_RamanShift_04.txt Node
Date: Wed Mar 07 12:44:52 IST 2018
User: aro
Spectrometer: QEPB0276
Trigger mode: 0
Integration Time (sec): 3.000000E1
Scans to average: 1
Electric dark correction enabled: true
Nonlinearity correction enabled: false
Boxcar width: 0
XAxis mode: Raman Shifts
Number of Pixels in Spectrum: 1044
>>>>>Begin Spectral Data<<<<<
160.701	4.5
166.742	16.5
172.777	55.5
178.805	187.5
184.826	515.5
190.841	1115.5
196.849	1875.5
202.85	2456.5
208.845	2722.5
214.833	2704.5
220.815	2680.5
226.789	2673.5
232.758	2688.5
238.719	2658.5
244.674	2633.5
250.623	2632.5
256.565	2620.5
262.5	2553.5
268.429	2512.5
274.351	2499.5
280.267	2457.5
286.176	2454.5
292.079	2442.5
297.975	2443.5
303.865	2435.5
309.748	2424.5
315.625	2417.5
321.495	2429.5
327.359	2418.5
333.217	2399.5
339.068	2414.5
344.912	2395.5
350.751	2421.5
356.583	2402.5
362.408	2412.5
368.227	2422.5
374.04	2401.5
379.847	2418.5
385.647	2410.5
391.44	2454.5
397.228	2463.5
403.009	2452.5
408.784	2478.5
414.553	2477.5
420.315	2479.5
426.071	2490.5
431.821	2478.5
437.565	2479.5
443.302	2462.5
449.033	2472.5
454.758	2461.5
460.477	2460.5
466.189	2443.5
471.896	2426.5
477.596	2414.5
483.29	2394.5
488.978	2402.5
494.66	2385.5
500.335	2376.5
506.005	2290.5
511.668	2247.5
517.325	2191.5
522.977	2153.5
528.622	2118.5
534.261	2101.5
539.894	2060.5
545.521	2055.5
551.141	2063.5
556.756	2019.5
562.365	2026.5
567.968	2014.5
573.565	2008.5
579.155	2004.5
584.74	1997.5
590.319	1997.5
595.892	1997.5
601.459	1952.5
607.02	1944.5
612.575	1944.5
618.124	1914.5
623.667	1924.5
629.204	1885.5
634.735	1879.5
640.261	1879.5
645.781	1857.5
651.294	1864.5
656.802	1851.5
662.304	1859.5
667.8	1846.5
673.29	1849.5
678.775	1830.5
684.254	1839.5
689.726	1820.5
695.193	1811.5
700.655	1807.5
706.11	1801.5
711.56	1773.5
717.004	1763.5
722.442	1762.5
727.874	1761.5
733.301	1739.5
738.722	1756.5
744.137	1751.5
749.547	1736.5
754.951	1732.5
760.349	1735.5
765.741	1755.5
771.128	1741.5
776.509	1762.5
781.885	1773.5
787.254	1762.5
792.618	1739.5
797.977	1748.5
803.33	1713.5
808.677	1726.5
814.019	1730.5
819.355	1695.5
824.686	1698.5
830.011	1680.5
835.33	1680.5
840.644	1686.5
845.952	1680.5
851.255	1677.5
856.552	1685.5
861.844	1676.5
867.13	1651.5
872.41	1642.5
877.686	1651.5
882.955	1642.5
888.219	1618.5
893.478	1594.5
898.731	1573.5
903.979	1576.5
909.221	1547.5
914.458	1531.5
919.69	1543.5
924.916	1547.5
930.136	1563.5
935.351	1549.5
940.561	1548.5
945.766	1558.5
950.965	1544.5
956.158	1540.5
961.347	1507.5
966.529	1499.5
971.707	1468.5
976.879	1466.5
982.046	1450.5
987.208	1450.5
992.364	1421.5
997.515	1442.5
1002.66	1462.5
1007.801	1467.5
1012.936	1483.5
1018.066	1493.5
1023.19	1487.5
1028.309	1494.5
1033.423	1481.5
1038.532	1467.5
1043.636	1455.5
1048.734	1437.5
1053.827	1403.5
1058.915	1412.5
1063.998	1391.5
1069.075	1381.5
1074.147	1380.5
1079.214	1396.5
1084.276	1411.5
1089.333	1413.5
1094.385	1407.5
1099.431	1396.5
1104.472	1421.5
1109.509	1404.5
1114.54	1385.5
1119.565	1352.5
1124.586	1349.5
1129.602	1338.5
1134.613	1335.5
1139.618	1326.5
1144.619	1300.5
1149.614	1323.5
1154.604	1315.5
1159.589	1310.5
1164.57	1321.5
1169.545	1325.5
1174.515	1332.5
1179.48	1324.5
1184.44	1307.5
1189.395	1314.5
1194.345	1274.5
1199.29	1270.5
1204.23	1290.5
1209.165	1278.5
1214.095	1294.5
1219.021	1289.5
1223.941	1314.5
1228.856	1314.5
1233.766	1311.5
1238.672	1306.5
1243.572	1306.5
1248.467	1312.5
1253.358	1296.5
1258.244	1267.5
1263.124	1250.5
1268	1231.5
1272.871	1204.5
1277.737	1202.5
1282.599	1202.5
1287.455	1216.5
1292.306	1220.5
1297.153	1218.5
1301.995	1232.5
1306.832	1228.5
1311.664	1236.5
1316.491	1238.5
1321.314	1219.5
1326.132	1218.5
1330.945	1205.5
1335.753	1195.5
1340.556	1156.5
1345.354	1132.5
1350.148	1113.5
1354.937	1103.5
1359.722	1070.5
1364.501	1041.5
1369.276	1019.5
1374.046	1002.5
1378.811	969.5
1383.572	969.5
1388.327	973.5
1393.079	978.5
1397.825	988.5
1402.567	1013.5
1407.304	1004.5
1412.036	1013.5
1416.764	1012.5
1421.487	1018.5
1426.205	1005.5
1430.919	1013.5
1435.628	1032.5
1440.333	1019.5
1445.032	1042.5
1449.727	1053.5
1454.418	1043.5
1459.104	1047.5
1463.785	1011.5
1468.462	1010.5
1473.134	992.5
1477.802	961.5
1482.465	943.5
1487.123	925.5
1491.777	897.5
1496.426	897.5
1501.071	878.5
1505.711	867.5
1510.347	868.5
1514.978	844.5
1519.604	839.5
1524.226	842.5
1528.844	829.5
1533.457	820.5
1538.065	813.5
1542.669	825.5
1547.269	804.5
1551.864	818.5
1556.454	846.5
1561.041	855.5
1565.622	854.5
1570.199	863.5
1574.772	862.5
1579.34	894.5
1583.904	889.5
1588.464	921.5
1593.019	903.5
1597.569	920.5
1602.115	924.5
1606.657	915.5
1611.195	910.5
1615.728	917.5
1620.256	901.5
1624.78	909.5
1629.3	916.5
1633.816	914.5
1638.327	923.5
1642.834	917.5
1647.336	910.5
1651.834	904.5
1656.328	912.5
1660.817	916.5
1665.302	879.5
1669.783	873.5
1674.259	842.5
1678.732	839.5
1683.199	811.5
1687.663	770.5
1692.122	735.5
1696.577	704.5
1701.028	659.5
1705.474	619.5
1709.917	602.5
1714.355	586.5
1718.788	583.5
1723.218	602.5
1727.643	608.5
1732.064	594.5
1736.481	607.5
1740.893	586.5
1745.301	578.5
1749.705	566.5
1754.105	542.5
1758.501	538.5
1762.893	532.5
1767.28	515.5
1771.663	518.5
1776.042	509.5
1780.417	496.5
1784.787	497.5
1789.154	490.5
1793.516	468.5
1797.874	451.5
1802.228	453.5
1806.578	439.5
1810.924	423.5
1815.266	438.5
1819.603	430.5
1823.937	444.5
1828.266	434.5
1832.591	446.5
1836.913	451.5
1841.23	453.5
1845.543	452.5
1849.852	458.5
1854.156	466.5
1858.457	458.5
1862.754	459.5
1867.047	468.5
1871.335	468.5
1875.62	447.5
1879.9	471.5
1884.177	449.5
1888.449	448.5
1892.718	448.5
1896.982	445.5
1901.243	416.5
1905.499	424.5
1909.752	407.5
1914	402.5
1918.245	386.5
1922.485	379.5
1926.722	367.5
1930.954	366.5
1935.183	366.5
1939.408	370.5
1943.628	352.5
1947.845	360.5
1952.058	346.5
1956.267	342.5
1960.472	343.5
1964.673	331.5
1968.87	339.5
1973.063	343.5
1977.252	348.5
1981.438	334.5
1985.619	338.5
1989.797	345.5
1993.971	347.5
1998.14	357.5
2002.306	358.5
2006.469	357.5
2010.627	352.5
2014.781	363.5
2018.932	357.5
2023.078	356.5
2027.221	353.5
2031.36	356.5
2035.495	345.5
2039.627	336.5
2043.754	340.5
2047.878	332.5
2051.998	328.5
2056.114	329.5
2060.226	325.5
2064.334	326.5
2068.439	318.5
2072.54	316.5
2076.637	319.5
2080.73	318.5
2084.82	309.5
2088.906	310.5
2092.988	302.5
2097.066	292.5
2101.14	294.5
2105.211	289.5
2109.278	274.5
2113.342	269.5
2117.401	268.5
2121.457	276.5
2125.509	269.5
2129.558	268.5
2133.602	272.5
2137.643	274.5
2141.681	277.5
2145.714	280.5
2149.744	277.5
2153.77	287.5
2157.793	277.5
2161.812	278.5
2165.827	273.5
2169.838	267.5
2173.846	270.5
2177.851	262.5
2181.851	267.5
2185.848	270.5
2189.841	260.5
2193.831	259.5
2197.817	265.5
2201.799	259.5
2205.778	258.5
2209.753	260.5
2213.725	249.5
2217.693	266.5
2221.657	262.5
2225.618	259.5
2229.575	256.5
2233.529	254.5
2237.479	257.5
2241.425	240.5
2245.368	251.5
2249.307	247.5
2253.243	235.5
2257.175	237.5
2261.104	225.5
2265.029	235.5
2268.95	219.5
2272.868	225.5
2276.783	218.5
2280.694	220.5
2284.601	216.5
2288.505	219.5
2292.405	213.5
2296.302	223.5
2300.195	213.5
2304.085	203.5
2307.971	204.5
2311.854	208.5
2315.734	208.5
2319.609	216.5
2323.482	204.5
2327.351	205.5
2331.216	209.5
2335.078	224.5
2338.937	212.5
2342.792	203.5
2346.643	204.5
2350.492	208.5
2354.336	197.5
2358.178	200.5
2362.015	208.5
2365.85	206.5
2369.681	206.5
2373.508	210.5
2377.333	208.5
2381.153	206.5
2384.971	202.5
2388.785	202.5
2392.595	207.5
2396.402	207.5
2400.206	209.5
2404.007	205.5
2407.804	214.5
2411.597	199.5
2415.388	209.5
2419.174	209.5
2422.958	198.5
2426.738	204.5
2430.515	203.5
2434.289	196.5
2438.059	191.5
2441.825	198.5
2445.589	191.5
2449.349	181.5
2453.106	192.5
2456.859	183.5
2460.61	186.5
2464.356	182.5
2468.1	180.5
2471.84	172.5
2475.577	159.5
2479.311	171.5
2483.041	173.5
2486.768	173.5
2490.492	162.5
2494.213	167.5
2497.93	171.5
2501.644	175.5
2505.355	166.5
2509.062	164.5
2512.766	152.5
2516.467	158.5
2520.165	158.5
2523.859	155.5
2527.551	147.5
2531.239	149.5
2534.923	143.5
2538.605	142.5
2542.283	144.5
2545.958	136.5
2549.63	136.5
2553.299	137.5
2556.964	124.5
2560.626	128.5
2564.285	129.5
2567.941	121.5
2571.594	125.5
2575.243	131.5
2578.89	125.5
2582.533	120.5
2586.173	121.5
2589.809	127.5
2593.443	125.5
2597.073	124.5
2600.701	121.5
2604.325	116.5
2607.946	107.5
2611.564	110.5
2615.178	110.5
2618.79	108.5
2622.398	109.5
2626.004	112.5
2629.606	102.5
2633.205	108.5
2636.801	109.5
2640.394	110.5
2643.983	106.5
2647.57	105.5
2651.153	105.5
2654.734	106.5
2658.311	104.5
2661.885	107.5
2665.456	108.5
2669.025	103.5
2672.589	100.5
2676.151	104.5
2679.71	93.5
2683.266	95.5
2686.819	92.5
2690.368	91.5
2693.915	88.5
2697.458	88.5
2700.999	93.5
2704.536	90.5
2708.071	84.5
2711.602	80.5
2715.13	77.5
2718.656	81.5
2722.178	78.5
2725.697	74.5
2729.214	72.5
2732.727	84.5
2736.237	82.5
2739.744	70.5
2743.249	72.5
2746.75	68.5
2750.248	72.5
2753.743	67.5
2757.236	58.5
2760.725	55.5
2764.211	57.5
2767.695	44.5
2771.175	44.5
2774.652	51.5
2778.127	55.5
2781.598	47.5
2785.067	51.5
2788.532	50.5
2791.995	57.5
2795.455	52.5
2798.911	50.5
2802.365	63.5
2805.816	55.5
2809.264	56.5
2812.709	55.5
2816.151	57.5
2819.59	62.5
2823.026	61.5
2826.46	63.5
2829.89	60.5
2833.318	55.5
2836.742	61.5
2840.164	55.5
2843.583	56.5
2846.999	64.5
2850.412	57.5
2853.822	61.5
2857.229	54.5
2860.634	57.5
2864.035	64.5
2867.434	63.5
2870.83	65.5
2874.223	60.5
2877.613	67.5
2881	72.5
2884.385	76.5
2887.766	70.5
2891.145	70.5
2894.521	66.5
2897.894	71.5
2901.264	81.5
2904.631	75.5
2907.996	82.5
2911.358	81.5
2914.717	79.5
2918.073	79.5
2921.426	79.5
2924.777	86.5
2928.124	84.5
2931.469	95.5
2934.811	96.5
2938.15	100.5
2941.487	107.5
2944.821	98.5
2948.152	104.5
2951.48	92.5
2954.805	92.5
2958.128	94.5
2961.447	96.5
2964.765	95.5
2968.079	93.5
2971.39	92.5
2974.699	84.5
2978.005	100.5
2981.308	90.5
2984.609	85.5
2987.907	86.5
2991.202	97.5
2994.494	92.5
2997.784	82.5
3001.07	91.5
3004.355	95.5
3007.636	97.5
3010.915	95.5
3014.191	91.5
3017.464	94.5
3020.734	102.5
3024.002	98.5
3027.267	105.5
3030.53	105.5
3033.789	112.5
3037.046	105.5
3040.301	108.5
3043.552	121.5
3046.801	123.5
3050.048	124.5
3053.291	133.5
3056.532	137.5
3059.771	140.5
3063.006	145.5
3066.239	153.5
3069.469	167.5
3072.697	162.5
3075.922	165.5
3079.144	159.5
3082.364	176.5
3085.581	180.5
3088.795	178.5
3092.007	185.5
3095.216	192.5
3098.423	184.5
3101.627	188.5
3104.828	195.5
3108.026	198.5
3111.222	212.5
3114.416	211.5
3117.607	218.5
3120.795	226.5
3123.98	223.5
3127.163	248.5
3130.344	239.5
3133.521	234.5
3136.696	246.5
3139.869	256.5
3143.039	251.5
3146.206	255.5
3149.371	251.5
3152.533	265.5
3155.693	266.5
3158.85	271.5
3162.005	268.5
3165.157	270.5
3168.306	262.5
3171.453	269.5
3174.597	265.5
3177.739	280.5
3180.878	277.5
3184.014	269.5
3187.149	267.5
3190.28	280.5
3193.409	281.5
3196.536	270.5
3199.659	283.5
3202.781	283.5
3205.9	273.5
3209.016	274.5
3212.13	279.5
3215.241	281.5
3218.35	266.5
3221.456	276.5
3224.56	262.5
3227.661	267.5
3230.76	254.5
3233.856	259.5
3236.95	249.5
3240.041	243.5
3243.13	243.5
3246.216	236.5
3249.3	228.5
3252.382	230.5
3255.46	221.5
3258.537	225.5
3261.611	223.5
3264.682	222.5
3267.751	217.5
3270.818	215.5
3273.882	213.5
3276.943	211.5
3280.002	211.5
3283.059	206.5
3286.113	198.5
3289.165	195.5
3292.214	207.5
3295.261	198.5
3298.306	208.5
3301.348	203.5
3304.387	200.5
3307.425	200.5
3310.459	191.5
3313.492	200.5
3316.521	186.5
3319.549	195.5
3322.574	184.5
3325.597	193.5
3328.617	191.5
3331.635	195.5
3334.65	196.5
3337.663	186.5
3340.674	192.5
3343.682	188.5
3346.688	192.5
3349.691	194.5
3352.692	196.5
3355.691	197.5
3358.687	186.5
3361.681	185.5
3364.673	183.5
3367.662	185.5
3370.649	183.5
3373.633	177.5
3376.615	179.5
3379.595	170.5
3382.572	163.5
3385.547	160.5
3388.52	162.5
3391.49	156.5
3394.458	155.5
3397.424	159.5
3400.387	153.5
3403.348	151.5
3406.307	141.5
3409.263	151.5
3412.217	140.5
3415.168	147.5
3418.118	137.5
3421.065	139.5
3424.009	133.5
3426.951	129.5
3429.891	135.5
3432.829	128.5
3435.764	122.5
3438.697	130.5
3441.628	108.5
3444.557	112.5
3447.483	105.5
3450.407	95.5
3453.328	96.5
3456.247	93.5
3459.164	89.5
3462.079	81.5
3464.991	78.5
3467.902	77.5
3470.809	75.5
3473.715	62.5
3476.618	61.5
3479.519	51.5
3482.418	59.5
3485.315	58.5
3488.209	47.5
3491.101	48.5
3493.99	52.5
3496.878	40.5
3499.763	35.5
3502.646	38.5
3505.527	39.5
3508.405	24.5
3511.281	31.5
3514.155	21.5
3517.027	19.5
3519.897	21.5
3522.764	15.5
3525.629	17.5
3528.492	6.5
3531.352	3.5
3534.211	5.5
3537.067	-2.5
3539.921	5.5
3542.773	-6.5
3545.622	-3.5
3548.469	3.5
3551.315	-1.5
3554.157	-8.5
3556.998	-13.5
3559.837	-9.5
3562.673	-15.5
3565.507	-12.5
3568.339	-18.5
3571.169	-23.5
3573.996	-11.5
3576.822	-26.5
3579.645	-24.5
3582.466	-25.5
3585.285	-22.5
3588.101	-35.5
3590.916	-27.5
3593.728	-34.5
3596.538	-29.5
3599.346	-31.5
3602.152	-33.5
3604.956	-30.5
3607.757	-27.5
3610.556	-32.5
3613.354	-38.5
3616.149	-35.5
3618.942	-38.5
3621.732	-38.5
3624.521	-36.5
3627.307	-41.5
3630.092	-40.5
3632.874	-45.5
3635.654	-38.5
3638.432	-42.5
3641.208	-40.5
3643.982	-37.5
3646.753	-53.5
3649.523	-44.5
3652.29	-49.5
3655.055	-42.5
3657.818	-45.5
3660.579	-47.5
3663.338	-43.5
3666.095	-44.5
3668.849	-51.5
3671.602	-45.5
3674.352	-46.5
3677.101	-49.5
3679.847	-52.5
3682.591	-49.5
3685.333	-51.5
3688.073	-55.5
3690.811	-50.5
3693.547	-54.5
3696.281	-49.5
3699.013	-54.5
3701.742	-57.5
3704.47	-50.5
3707.195	-56.5
3709.919	-55.5
3712.64	-57.5
3715.359	-54.5
3718.076	-59.5
3720.792	-60.5
3723.505	-58.5
3726.216	-53.5
3728.925	-60.5
3731.632	-52.5
3734.336	-59.5
3737.039	-56.5
3739.74	-56.5
3742.439	-60.5
3745.136	-54.5
3747.83	-56.5
3750.523	-64.5
3753.213	-52.5
3755.902	-54.5
3758.589	-58.5
3761.273	-54.5
3763.956	-57.5
3766.636	-56.5
3769.315	-56.5
3771.991	-60.5
3774.665	-61.5
3777.338	-59.5
3780.008	-63.5
3782.677	-65.5
3785.343	-64.5
3788.007	-62.5
3790.67	-63.5
3793.33	-60.5
3795.989	-66.5
3798.645	-58.5
3801.299	-56.5
3803.952	-60.5
3806.602	-55.5
3809.251	-64.5
3811.897	-63.5
3814.542	-70.5
3817.184	-62.5
3819.825	-60.5
3822.463	-62.5
3825.1	-51.5
3827.735	-68.5
3830.367	-64.5
3832.998	-65.5
3835.627	-62.5
3838.253	-66.5
3840.878	-58.5
3843.501	-59.5
3846.122	-63.5
3848.741	-62.5
3851.358	-61.5
3853.973	-61.5
3856.586	-57.5
3859.197	-64.5
3861.806	-67.5
3864.414	-59.5
3867.019	-61.5
3869.622	-56.5
3872.224	-53.5
3874.823	-45.5
3877.421	-44.5
3880.016	-30.5
3882.61	-18.5
3885.202	-14.5
3887.792	-26.5
3890.38	-38.5
3892.966	-54.5
3895.55	-64.5
3898.132	-65.5
3900.713	-65.5
3903.291	-68.5
3905.868	-60.5
3908.442	-61.5
3911.015	-60.5
3913.586	-66.5
3916.155	-59.5
3918.722	-65.5
3921.287	-64.5
3923.85	-57.5
3926.411	-60.5
3928.971	-71.5
3931.528	-63.5
3934.084	-63.5
3936.638	-61.5
3939.19	-66.5
3941.74	-62.5
3944.288	-63.5
3946.834	-60.5
3949.378	-68.5
3951.921	-66.5
3954.462	-69.5
3957	-61.5
3959.537	-57.5
3962.072	-61.5
3964.606	-60.5
3967.137	-60.5
3969.667	-64.5
3972.194	-66.5
3974.72	-55.5
3977.244	-57.5
3979.766	-61.5
3982.286	-62.5
3984.805	-70.5
3987.321	-57.5
3989.836	-56.5
3992.349	-61.5
3994.86	-66.5
3997.369	-63.5
3999.877	-65.5
4002.382	-63.5
4004.886	-59.5
4007.388	-71.5
4009.888	-63.5
4012.386	-67.5
4014.883	-64.5
4017.377	-60.5
4019.87	-60.5
4022.361	-67.5
4024.85	-59.5
4027.338	-66.5
4029.823	-63.5
4032.307	-66.5
4034.789	-58.5
4037.269	-62.5
4039.747	-63.5
4042.224	-62.5
4044.699	-65.5
4047.172	-65.5
4049.643	-61.5
4052.112	-64.5
4054.58	-62.5
4057.046	-58.5
4059.51	-66.5
4061.972	-66.5
4064.432	-60.5
4066.891	-62.5
4069.348	-61.5
4071.803	-60.5
4074.256	-65.5
4076.708	-63.5
4079.158	-69.5
4081.606	-61.5
4084.052	-65.5
4086.497	-59.5
4088.939	-56.5
4091.38	-66.5
4093.819	-68.5
4096.257	-63.5
4098.693	-66.5
4101.127	-58.5
4103.559	-70.5
4105.989	-6.5
4108.418	-13.5
4110.845	-13.5
4113.27	-10.5
4115.694	-5.5
4118.115	-0.5
4120.535	-58.5
4122.954	-59.5
4125.37	-63.5
4127.785	-58.5
4130.198	-65.5
4132.609	-69.5
4135.019	-64.5
4137.427	-67.5
4139.833	-64.5
4142.237	-67.5
