Data from 2018-3-7_conc=4_n=4_RamanShift_03.txt Node
Date: Wed Mar 07 11:58:52 IST 2018
User: aro
Spectrometer: QEPB0276
Trigger mode: 0
Integration Time (sec): 3.000000E1
Scans to average: 1
Electric dark correction enabled: true
Nonlinearity correction enabled: false
Boxcar width: 0
XAxis mode: Raman Shifts
Number of Pixels in Spectrum: 1044
>>>>>Begin Spectral Data<<<<<
160.701	13.5
166.742	14.5
172.777	46.5
178.805	141.5
184.826	354.5
190.841	739.5
196.849	1214.5
202.85	1560.5
208.845	1715.5
214.833	1731.5
220.815	1705.5
226.789	1688.5
232.758	1708.5
238.719	1693.5
244.674	1676.5
250.623	1668.5
256.565	1687.5
262.5	1638.5
268.429	1621.5
274.351	1619.5
280.267	1604.5
286.176	1620.5
292.079	1617.5
297.975	1605.5
303.865	1626.5
309.748	1585.5
315.625	1585.5
321.495	1599.5
327.359	1608.5
333.217	1601.5
339.068	1604.5
344.912	1623.5
350.751	1609.5
356.583	1601.5
362.408	1610.5
368.227	1619.5
374.04	1631.5
379.847	1634.5
385.647	1653.5
391.44	1644.5
397.228	1652.5
403.009	1678.5
408.784	1665.5
414.553	1685.5
420.315	1679.5
426.071	1673.5
431.821	1688.5
437.565	1697.5
443.302	1680.5
449.033	1684.5
454.758	1665.5
460.477	1656.5
466.189	1654.5
471.896	1638.5
477.596	1622.5
483.29	1619.5
488.978	1618.5
494.66	1589.5
500.335	1561.5
506.005	1521.5
511.668	1449.5
517.325	1416.5
522.977	1348.5
528.622	1321.5
534.261	1321.5
539.894	1277.5
545.521	1277.5
551.141	1252.5
556.756	1244.5
562.365	1241.5
567.968	1226.5
573.565	1223.5
579.155	1201.5
584.74	1219.5
590.319	1208.5
595.892	1213.5
601.459	1191.5
607.02	1181.5
612.575	1178.5
618.124	1175.5
623.667	1156.5
629.204	1154.5
634.735	1141.5
640.261	1126.5
645.781	1118.5
651.294	1124.5
656.802	1102.5
662.304	1100.5
667.8	1094.5
673.29	1110.5
678.775	1101.5
684.254	1090.5
689.726	1083.5
695.193	1095.5
700.655	1077.5
706.11	1063.5
711.56	1064.5
717.004	1052.5
722.442	1032.5
727.874	1048.5
733.301	1043.5
738.722	1047.5
744.137	1034.5
749.547	1045.5
754.951	1028.5
760.349	1034.5
765.741	1040.5
771.128	1048.5
776.509	1064.5
781.885	1061.5
787.254	1058.5
792.618	1077.5
797.977	1060.5
803.33	1036.5
808.677	1050.5
814.019	1046.5
819.355	1022.5
824.686	1037.5
830.011	1011.5
835.33	1014.5
840.644	1022.5
845.952	1002.5
851.255	1009.5
856.552	1006.5
861.844	986.5
867.13	986.5
872.41	978.5
877.686	975.5
882.955	966.5
888.219	951.5
893.478	945.5
898.731	941.5
903.979	921.5
909.221	909.5
914.458	919.5
919.69	913.5
924.916	920.5
930.136	908.5
935.351	912.5
940.561	923.5
945.766	918.5
950.965	904.5
956.158	893.5
961.347	883.5
966.529	877.5
971.707	867.5
976.879	853.5
982.046	846.5
987.208	841.5
992.364	848.5
997.515	848.5
1002.66	855.5
1007.801	868.5
1012.936	865.5
1018.066	867.5
1023.19	868.5
1028.309	873.5
1033.423	872.5
1038.532	864.5
1043.636	851.5
1048.734	854.5
1053.827	844.5
1058.915	839.5
1063.998	818.5
1069.075	817.5
1074.147	818.5
1079.214	829.5
1084.276	813.5
1089.333	812.5
1094.385	849.5
1099.431	824.5
1104.472	837.5
1109.509	830.5
1114.54	805.5
1119.565	792.5
1124.586	776.5
1129.602	775.5
1134.613	766.5
1139.618	763.5
1144.619	768.5
1149.614	769.5
1154.604	767.5
1159.589	782.5
1164.57	767.5
1169.545	773.5
1174.515	772.5
1179.48	780.5
1184.44	758.5
1189.395	770.5
1194.345	752.5
1199.29	738.5
1204.23	739.5
1209.165	743.5
1214.095	753.5
1219.021	744.5
1223.941	766.5
1228.856	765.5
1233.766	759.5
1238.672	770.5
1243.572	770.5
1248.467	767.5
1253.358	762.5
1258.244	731.5
1263.124	730.5
1268	715.5
1272.871	700.5
1277.737	691.5
1282.599	704.5
1287.455	699.5
1292.306	702.5
1297.153	715.5
1301.995	709.5
1306.832	708.5
1311.664	720.5
1316.491	725.5
1321.314	707.5
1326.132	703.5
1330.945	692.5
1335.753	675.5
1340.556	651.5
1345.354	653.5
1350.148	642.5
1354.937	636.5
1359.722	610.5
1364.501	603.5
1369.276	598.5
1374.046	571.5
1378.811	576.5
1383.572	565.5
1388.327	561.5
1393.079	572.5
1397.825	580.5
1402.567	584.5
1407.304	570.5
1412.036	584.5
1416.764	575.5
1421.487	580.5
1426.205	586.5
1430.919	592.5
1435.628	584.5
1440.333	603.5
1445.032	588.5
1449.727	614.5
1454.418	600.5
1459.104	595.5
1463.785	586.5
1468.462	575.5
1473.134	569.5
1477.802	551.5
1482.465	539.5
1487.123	531.5
1491.777	504.5
1496.426	512.5
1501.071	493.5
1505.711	503.5
1510.347	491.5
1514.978	493.5
1519.604	482.5
1524.226	484.5
1528.844	479.5
1533.457	484.5
1538.065	470.5
1542.669	473.5
1547.269	477.5
1551.864	482.5
1556.454	508.5
1561.041	504.5
1565.622	518.5
1570.199	511.5
1574.772	499.5
1579.34	508.5
1583.904	524.5
1588.464	534.5
1593.019	526.5
1597.569	519.5
1602.115	526.5
1606.657	520.5
1611.195	519.5
1615.728	511.5
1620.256	516.5
1624.78	518.5
1629.3	517.5
1633.816	525.5
1638.327	529.5
1642.834	518.5
1647.336	523.5
1651.834	516.5
1656.328	521.5
1660.817	520.5
1665.302	511.5
1669.783	495.5
1674.259	478.5
1678.732	470.5
1683.199	456.5
1687.663	444.5
1692.122	416.5
1696.577	414.5
1701.028	385.5
1705.474	362.5
1709.917	366.5
1714.355	357.5
1718.788	363.5
1723.218	351.5
1727.643	342.5
1732.064	352.5
1736.481	350.5
1740.893	348.5
1745.301	340.5
1749.705	335.5
1754.105	315.5
1758.501	302.5
1762.893	305.5
1767.28	298.5
1771.663	298.5
1776.042	290.5
1780.417	291.5
1784.787	281.5
1789.154	279.5
1793.516	269.5
1797.874	264.5
1802.228	269.5
1806.578	262.5
1810.924	258.5
1815.266	256.5
1819.603	253.5
1823.937	266.5
1828.266	264.5
1832.591	263.5
1836.913	262.5
1841.23	263.5
1845.543	261.5
1849.852	264.5
1854.156	262.5
1858.457	265.5
1862.754	266.5
1867.047	261.5
1871.335	263.5
1875.62	258.5
1879.9	268.5
1884.177	252.5
1888.449	263.5
1892.718	256.5
1896.982	248.5
1901.243	239.5
1905.499	240.5
1909.752	234.5
1914	219.5
1918.245	223.5
1922.485	222.5
1926.722	213.5
1930.954	217.5
1935.183	213.5
1939.408	214.5
1943.628	205.5
1947.845	215.5
1952.058	211.5
1956.267	205.5
1960.472	210.5
1964.673	190.5
1968.87	201.5
1973.063	207.5
1977.252	209.5
1981.438	202.5
1985.619	200.5
1989.797	191.5
1993.971	201.5
1998.14	206.5
2002.306	204.5
2006.469	214.5
2010.627	196.5
2014.781	208.5
2018.932	203.5
2023.078	203.5
2027.221	205.5
2031.36	194.5
2035.495	197.5
2039.627	177.5
2043.754	196.5
2047.878	188.5
2051.998	194.5
2056.114	185.5
2060.226	182.5
2064.334	183.5
2068.439	176.5
2072.54	177.5
2076.637	185.5
2080.73	183.5
2084.82	182.5
2088.906	173.5
2092.988	173.5
2097.066	162.5
2101.14	172.5
2105.211	169.5
2109.278	169.5
2113.342	158.5
2117.401	161.5
2121.457	153.5
2125.509	158.5
2129.558	155.5
2133.602	150.5
2137.643	161.5
2141.681	145.5
2145.714	156.5
2149.744	154.5
2153.77	166.5
2157.793	162.5
2161.812	159.5
2165.827	163.5
2169.838	154.5
2173.846	157.5
2177.851	148.5
2181.851	146.5
2185.848	149.5
2189.841	145.5
2193.831	140.5
2197.817	143.5
2201.799	139.5
2205.778	139.5
2209.753	142.5
2213.725	142.5
2217.693	141.5
2221.657	141.5
2225.618	135.5
2229.575	140.5
2233.529	136.5
2237.479	139.5
2241.425	132.5
2245.368	139.5
2249.307	139.5
2253.243	129.5
2257.175	131.5
2261.104	125.5
2265.029	118.5
2268.95	129.5
2272.868	120.5
2276.783	115.5
2280.694	114.5
2284.601	111.5
2288.505	118.5
2292.405	116.5
2296.302	127.5
2300.195	111.5
2304.085	112.5
2307.971	112.5
2311.854	103.5
2315.734	104.5
2319.609	111.5
2323.482	108.5
2327.351	102.5
2331.216	116.5
2335.078	129.5
2338.937	115.5
2342.792	110.5
2346.643	110.5
2350.492	106.5
2354.336	105.5
2358.178	97.5
2362.015	104.5
2365.85	100.5
2369.681	110.5
2373.508	105.5
2377.333	110.5
2381.153	102.5
2384.971	96.5
2388.785	104.5
2392.595	107.5
2396.402	108.5
2400.206	105.5
2404.007	100.5
2407.804	103.5
2411.597	103.5
2415.388	96.5
2419.174	109.5
2422.958	102.5
2426.738	103.5
2430.515	92.5
2434.289	100.5
2438.059	93.5
2441.825	95.5
2445.589	96.5
2449.349	93.5
2453.106	92.5
2456.859	89.5
2460.61	87.5
2464.356	92.5
2468.1	85.5
2471.84	85.5
2475.577	82.5
2479.311	87.5
2483.041	82.5
2486.768	81.5
2490.492	78.5
2494.213	81.5
2497.93	82.5
2501.644	81.5
2505.355	69.5
2509.062	83.5
2512.766	73.5
2516.467	76.5
2520.165	71.5
2523.859	79.5
2527.551	70.5
2531.239	77.5
2534.923	62.5
2538.605	67.5
2542.283	65.5
2545.958	62.5
2549.63	58.5
2553.299	62.5
2556.964	55.5
2560.626	62.5
2564.285	62.5
2567.941	63.5
2571.594	58.5
2575.243	62.5
2578.89	56.5
2582.533	51.5
2586.173	60.5
2589.809	56.5
2593.443	53.5
2597.073	52.5
2600.701	53.5
2604.325	45.5
2607.946	44.5
2611.564	49.5
2615.178	53.5
2618.79	53.5
2622.398	50.5
2626.004	51.5
2629.606	43.5
2633.205	49.5
2636.801	43.5
2640.394	54.5
2643.983	46.5
2647.57	47.5
2651.153	39.5
2654.734	37.5
2658.311	41.5
2661.885	49.5
2665.456	41.5
2669.025	42.5
2672.589	42.5
2676.151	42.5
2679.71	33.5
2683.266	41.5
2686.819	46.5
2690.368	45.5
2693.915	41.5
2697.458	46.5
2700.999	41.5
2704.536	39.5
2708.071	31.5
2711.602	27.5
2715.13	20.5
2718.656	30.5
2722.178	27.5
2725.697	28.5
2729.214	32.5
2732.727	36.5
2736.237	39.5
2739.744	26.5
2743.249	27.5
2746.75	28.5
2750.248	24.5
2753.743	26.5
2757.236	27.5
2760.725	24.5
2764.211	15.5
2767.695	18.5
2771.175	20.5
2774.652	19.5
2778.127	19.5
2781.598	12.5
2785.067	11.5
2788.532	13.5
2791.995	17.5
2795.455	18.5
2798.911	16.5
2802.365	18.5
2805.816	20.5
2809.264	22.5
2812.709	15.5
2816.151	28.5
2819.59	38.5
2823.026	24.5
2826.46	26.5
2829.89	14.5
2833.318	15.5
2836.742	27.5
2840.164	13.5
2843.583	16.5
2846.999	25.5
2850.412	23.5
2853.822	28.5
2857.229	27.5
2860.634	22.5
2864.035	22.5
2867.434	24.5
2870.83	23.5
2874.223	31.5
2877.613	25.5
2881	30.5
2884.385	32.5
2887.766	29.5
2891.145	30.5
2894.521	31.5
2897.894	34.5
2901.264	31.5
2904.631	31.5
2907.996	28.5
2911.358	32.5
2914.717	31.5
2918.073	30.5
2921.426	36.5
2924.777	35.5
2928.124	38.5
2931.469	43.5
2934.811	48.5
2938.15	43.5
2941.487	48.5
2944.821	46.5
2948.152	46.5
2951.48	39.5
2954.805	39.5
2958.128	39.5
2961.447	47.5
2964.765	34.5
2968.079	40.5
2971.39	38.5
2974.699	30.5
2978.005	43.5
2981.308	37.5
2984.609	38.5
2987.907	39.5
2991.202	39.5
2994.494	43.5
2997.784	36.5
3001.07	38.5
3004.355	43.5
3007.636	46.5
3010.915	44.5
3014.191	42.5
3017.464	43.5
3020.734	49.5
3024.002	42.5
3027.267	53.5
3030.53	50.5
3033.789	44.5
3037.046	49.5
3040.301	50.5
3043.552	53.5
3046.801	54.5
3050.048	54.5
3053.291	56.5
3056.532	65.5
3059.771	72.5
3063.006	71.5
3066.239	74.5
3069.469	81.5
3072.697	79.5
3075.922	92.5
3079.144	84.5
3082.364	81.5
3085.581	81.5
3088.795	85.5
3092.007	89.5
3095.216	91.5
3098.423	87.5
3101.627	95.5
3104.828	100.5
3108.026	108.5
3111.222	100.5
3114.416	107.5
3117.607	99.5
3120.795	115.5
3123.98	112.5
3127.163	131.5
3130.344	123.5
3133.521	123.5
3136.696	120.5
3139.869	123.5
3143.039	130.5
3146.206	135.5
3149.371	135.5
3152.533	139.5
3155.693	136.5
3158.85	138.5
3162.005	140.5
3165.157	137.5
3168.306	136.5
3171.453	141.5
3174.597	139.5
3177.739	138.5
3180.878	149.5
3184.014	138.5
3187.149	132.5
3190.28	144.5
3193.409	139.5
3196.536	134.5
3199.659	150.5
3202.781	139.5
3205.9	142.5
3209.016	135.5
3212.13	144.5
3215.241	136.5
3218.35	139.5
3221.456	149.5
3224.56	137.5
3227.661	134.5
3230.76	130.5
3233.856	135.5
3236.95	125.5
3240.041	126.5
3243.13	126.5
3246.216	119.5
3249.3	111.5
3252.382	128.5
3255.46	117.5
3258.537	119.5
3261.611	115.5
3264.682	112.5
3267.751	116.5
3270.818	102.5
3273.882	110.5
3276.943	105.5
3280.002	107.5
3283.059	100.5
3286.113	103.5
3289.165	100.5
3292.214	101.5
3295.261	103.5
3298.306	99.5
3301.348	106.5
3304.387	103.5
3307.425	97.5
3310.459	96.5
3313.492	94.5
3316.521	91.5
3319.549	105.5
3322.574	92.5
3325.597	94.5
3328.617	94.5
3331.635	88.5
3334.65	100.5
3337.663	90.5
3340.674	95.5
3343.682	90.5
3346.688	94.5
3349.691	99.5
3352.692	102.5
3355.691	96.5
3358.687	98.5
3361.681	87.5
3364.673	89.5
3367.662	91.5
3370.649	91.5
3373.633	87.5
3376.615	84.5
3379.595	84.5
3382.572	80.5
3385.547	78.5
3388.52	75.5
3391.49	73.5
3394.458	62.5
3397.424	78.5
3400.387	73.5
3403.348	65.5
3406.307	69.5
3409.263	70.5
3412.217	69.5
3415.168	73.5
3418.118	61.5
3421.065	58.5
3424.009	58.5
3426.951	58.5
3429.891	61.5
3432.829	54.5
3435.764	55.5
3438.697	57.5
3441.628	38.5
3444.557	45.5
3447.483	45.5
3450.407	43.5
3453.328	44.5
3456.247	37.5
3459.164	36.5
3462.079	29.5
3464.991	31.5
3467.902	29.5
3470.809	29.5
3473.715	29.5
3476.618	20.5
3479.519	19.5
3482.418	19.5
3485.315	10.5
3488.209	8.5
3491.101	5.5
3493.99	12.5
3496.878	4.5
3499.763	0.5
3502.646	2.5
3505.527	5.5
3508.405	9.5
3511.281	8.5
3514.155	4.5
3517.027	-6.5
3519.897	3.5
3522.764	-5.5
3525.629	-5.5
3528.492	-15.5
3531.352	-15.5
3534.211	-19.5
3537.067	-15.5
3539.921	-13.5
3542.773	-19.5
3545.622	-17.5
3548.469	-15.5
3551.315	-19.5
3554.157	-18.5
3556.998	-18.5
3559.837	-17.5
3562.673	-25.5
3565.507	-20.5
3568.339	-21.5
3571.169	-28.5
3573.996	-21.5
3576.822	-32.5
3579.645	-29.5
3582.466	-32.5
3585.285	-28.5
3588.101	-32.5
3590.916	-29.5
3593.728	-32.5
3596.538	-38.5
3599.346	-36.5
3602.152	-35.5
3604.956	-28.5
3607.757	-26.5
3610.556	-25.5
3613.354	-35.5
3616.149	-37.5
3618.942	-31.5
3621.732	-37.5
3624.521	-31.5
3627.307	-37.5
3630.092	-39.5
3632.874	-40.5
3635.654	-40.5
3638.432	-39.5
3641.208	-38.5
3643.982	-30.5
3646.753	-43.5
3649.523	-40.5
3652.29	-41.5
3655.055	-38.5
3657.818	-47.5
3660.579	-43.5
3663.338	-38.5
3666.095	-43.5
3668.849	-44.5
3671.602	-44.5
3674.352	-38.5
3677.101	-45.5
3679.847	-43.5
3682.591	-51.5
3685.333	-46.5
3688.073	-50.5
3690.811	-40.5
3693.547	-48.5
3696.281	-43.5
3699.013	-43.5
3701.742	-46.5
3704.47	-38.5
3707.195	-41.5
3709.919	-47.5
3712.64	-44.5
3715.359	-48.5
3718.076	-50.5
3720.792	-49.5
3723.505	-49.5
3726.216	-47.5
3728.925	-54.5
3731.632	-44.5
3734.336	-53.5
3737.039	-39.5
3739.74	-48.5
3742.439	-56.5
3745.136	-47.5
3747.83	-43.5
3750.523	-52.5
3753.213	-50.5
3755.902	-48.5
3758.589	-49.5
3761.273	-47.5
3763.956	-54.5
3766.636	-50.5
3769.315	-47.5
3771.991	-50.5
3774.665	-49.5
3777.338	-50.5
3780.008	-47.5
3782.677	-49.5
3785.343	-46.5
3788.007	-50.5
3790.67	-50.5
3793.33	-49.5
3795.989	-48.5
3798.645	-50.5
3801.299	-50.5
3803.952	-54.5
3806.602	-51.5
3809.251	-53.5
3811.897	-54.5
3814.542	-57.5
3817.184	-51.5
3819.825	-50.5
3822.463	-49.5
3825.1	-47.5
3827.735	-53.5
3830.367	-52.5
3832.998	-56.5
3835.627	-48.5
3838.253	-45.5
3840.878	-45.5
3843.501	-43.5
3846.122	-55.5
3848.741	-49.5
3851.358	-56.5
3853.973	-51.5
3856.586	-48.5
3859.197	-55.5
3861.806	-54.5
3864.414	-47.5
3867.019	-53.5
3869.622	-40.5
3872.224	-42.5
3874.823	-31.5
3877.421	-23.5
3880.016	-16.5
3882.61	-3.5
3885.202	-4.5
3887.792	-6.5
3890.38	-22.5
3892.966	-41.5
3895.55	-48.5
3898.132	-47.5
3900.713	-50.5
3903.291	-58.5
3905.868	-49.5
3908.442	-48.5
3911.015	-50.5
3913.586	-54.5
3916.155	-46.5
3918.722	-49.5
3921.287	-50.5
3923.85	-45.5
3926.411	-48.5
3928.971	-57.5
3931.528	-52.5
3934.084	-48.5
3936.638	-53.5
3939.19	-57.5
3941.74	-47.5
3944.288	-54.5
3946.834	-54.5
3949.378	-54.5
3951.921	-55.5
3954.462	-55.5
3957	-47.5
3959.537	-43.5
3962.072	-46.5
3964.606	-49.5
3967.137	-49.5
3969.667	-54.5
3972.194	-44.5
3974.72	-51.5
3977.244	-44.5
3979.766	-50.5
3982.286	-56.5
3984.805	-60.5
3987.321	-53.5
3989.836	-49.5
3992.349	-49.5
3994.86	-49.5
3997.369	-52.5
3999.877	-51.5
4002.382	-49.5
4004.886	-49.5
4007.388	-49.5
4009.888	-48.5
4012.386	-46.5
4014.883	-49.5
4017.377	-45.5
4019.87	-46.5
4022.361	-56.5
4024.85	-52.5
4027.338	-51.5
4029.823	-52.5
4032.307	-57.5
4034.789	-53.5
4037.269	-53.5
4039.747	-49.5
4042.224	-54.5
4044.699	-51.5
4047.172	-52.5
4049.643	-51.5
4052.112	-46.5
4054.58	-51.5
4057.046	-41.5
4059.51	-52.5
4061.972	-54.5
4064.432	-51.5
4066.891	-48.5
4069.348	-51.5
4071.803	-44.5
4074.256	-53.5
4076.708	-50.5
4079.158	-54.5
4081.606	-52.5
4084.052	-50.5
4086.497	-45.5
4088.939	-52.5
4091.38	-58.5
4093.819	-52.5
4096.257	-48.5
4098.693	-52.5
4101.127	-45.5
4103.559	-56.5
4105.989	17.5
4108.418	14.5
4110.845	6.5
4113.27	11.5
4115.694	12.5
4118.115	11.5
4120.535	-48.5
4122.954	-43.5
4125.37	-49.5
4127.785	-51.5
4130.198	-46.5
4132.609	-54.5
4135.019	-54.5
4137.427	-53.5
4139.833	-53.5
4142.237	-54.5
