Data from 2018-3-7_conc=6_n=5_RamanShift_01.txt Node
Date: Wed Mar 07 13:09:22 IST 2018
User: aro
Spectrometer: QEPB0276
Trigger mode: 0
Integration Time (sec): 3.000000E1
Scans to average: 1
Electric dark correction enabled: true
Nonlinearity correction enabled: false
Boxcar width: 0
XAxis mode: Raman Shifts
Number of Pixels in Spectrum: 1044
>>>>>Begin Spectral Data<<<<<
160.701	7.5
166.742	17.5
172.777	55.5
178.805	148.5
184.826	405.5
190.841	870.5
196.849	1461.5
202.85	1923.5
208.845	2094.5
214.833	2104.5
220.815	2066.5
226.789	2052.5
232.758	2042.5
238.719	2050.5
244.674	2039.5
250.623	2022.5
256.565	1980.5
262.5	1956.5
268.429	1932.5
274.351	1905.5
280.267	1887.5
286.176	1895.5
292.079	1888.5
297.975	1894.5
303.865	1887.5
309.748	1867.5
315.625	1877.5
321.495	1872.5
327.359	1877.5
333.217	1877.5
339.068	1880.5
344.912	1871.5
350.751	1881.5
356.583	1857.5
362.408	1881.5
368.227	1882.5
374.04	1887.5
379.847	1897.5
385.647	1884.5
391.44	1900.5
397.228	1929.5
403.009	1914.5
408.784	1927.5
414.553	1932.5
420.315	1937.5
426.071	1964.5
431.821	1935.5
437.565	1936.5
443.302	1938.5
449.033	1928.5
454.758	1938.5
460.477	1917.5
466.189	1909.5
471.896	1888.5
477.596	1866.5
483.29	1864.5
488.978	1876.5
494.66	1867.5
500.335	1819.5
506.005	1770.5
511.668	1700.5
517.325	1673.5
522.977	1613.5
528.622	1593.5
534.261	1574.5
539.894	1531.5
545.521	1531.5
551.141	1505.5
556.756	1500.5
562.365	1490.5
567.968	1488.5
573.565	1468.5
579.155	1467.5
584.74	1464.5
590.319	1458.5
595.892	1469.5
601.459	1451.5
607.02	1439.5
612.575	1443.5
618.124	1417.5
623.667	1404.5
629.204	1390.5
634.735	1380.5
640.261	1374.5
645.781	1361.5
651.294	1369.5
656.802	1350.5
662.304	1361.5
667.8	1356.5
673.29	1348.5
678.775	1348.5
684.254	1351.5
689.726	1328.5
695.193	1325.5
700.655	1308.5
706.11	1320.5
711.56	1302.5
717.004	1299.5
722.442	1287.5
727.874	1288.5
733.301	1291.5
738.722	1267.5
744.137	1268.5
749.547	1274.5
754.951	1270.5
760.349	1263.5
765.741	1271.5
771.128	1274.5
776.509	1284.5
781.885	1306.5
787.254	1294.5
792.618	1296.5
797.977	1282.5
803.33	1274.5
808.677	1271.5
814.019	1250.5
819.355	1245.5
824.686	1228.5
830.011	1231.5
835.33	1226.5
840.644	1235.5
845.952	1245.5
851.255	1218.5
856.552	1220.5
861.844	1211.5
867.13	1206.5
872.41	1199.5
877.686	1191.5
882.955	1191.5
888.219	1167.5
893.478	1171.5
898.731	1133.5
903.979	1137.5
909.221	1132.5
914.458	1115.5
919.69	1123.5
924.916	1127.5
930.136	1110.5
935.351	1104.5
940.561	1124.5
945.766	1127.5
950.965	1115.5
956.158	1099.5
961.347	1089.5
966.529	1072.5
971.707	1059.5
976.879	1044.5
982.046	1037.5
987.208	1031.5
992.364	1039.5
997.515	1040.5
1002.66	1035.5
1007.801	1055.5
1012.936	1066.5
1018.066	1067.5
1023.19	1074.5
1028.309	1051.5
1033.423	1053.5
1038.532	1057.5
1043.636	1061.5
1048.734	1032.5
1053.827	1027.5
1058.915	1020.5
1063.998	996.5
1069.075	982.5
1074.147	1000.5
1079.214	1013.5
1084.276	1027.5
1089.333	1013.5
1094.385	1021.5
1099.431	1001.5
1104.472	1013.5
1109.509	1014.5
1114.54	1000.5
1119.565	975.5
1124.586	974.5
1129.602	946.5
1134.613	944.5
1139.618	952.5
1144.619	946.5
1149.614	944.5
1154.604	943.5
1159.589	947.5
1164.57	937.5
1169.545	943.5
1174.515	946.5
1179.48	945.5
1184.44	928.5
1189.395	932.5
1194.345	916.5
1199.29	911.5
1204.23	912.5
1209.165	911.5
1214.095	931.5
1219.021	938.5
1223.941	927.5
1228.856	934.5
1233.766	954.5
1238.672	932.5
1243.572	946.5
1248.467	940.5
1253.358	911.5
1258.244	888.5
1263.124	891.5
1268	870.5
1272.871	859.5
1277.737	854.5
1282.599	863.5
1287.455	856.5
1292.306	845.5
1297.153	858.5
1301.995	859.5
1306.832	865.5
1311.664	871.5
1316.491	868.5
1321.314	876.5
1326.132	867.5
1330.945	853.5
1335.753	842.5
1340.556	829.5
1345.354	813.5
1350.148	795.5
1354.937	780.5
1359.722	752.5
1364.501	739.5
1369.276	719.5
1374.046	709.5
1378.811	703.5
1383.572	699.5
1388.327	705.5
1393.079	710.5
1397.825	690.5
1402.567	717.5
1407.304	708.5
1412.036	710.5
1416.764	718.5
1421.487	713.5
1426.205	713.5
1430.919	725.5
1435.628	725.5
1440.333	735.5
1445.032	737.5
1449.727	748.5
1454.418	736.5
1459.104	737.5
1463.785	729.5
1468.462	706.5
1473.134	704.5
1477.802	686.5
1482.465	656.5
1487.123	654.5
1491.777	634.5
1496.426	644.5
1501.071	628.5
1505.711	616.5
1510.347	608.5
1514.978	603.5
1519.604	594.5
1524.226	597.5
1528.844	593.5
1533.457	587.5
1538.065	585.5
1542.669	582.5
1547.269	589.5
1551.864	599.5
1556.454	610.5
1561.041	614.5
1565.622	616.5
1570.199	621.5
1574.772	635.5
1579.34	634.5
1583.904	638.5
1588.464	653.5
1593.019	656.5
1597.569	650.5
1602.115	649.5
1606.657	659.5
1611.195	651.5
1615.728	657.5
1620.256	648.5
1624.78	645.5
1629.3	647.5
1633.816	650.5
1638.327	648.5
1642.834	650.5
1647.336	651.5
1651.834	647.5
1656.328	648.5
1660.817	638.5
1665.302	632.5
1669.783	614.5
1674.259	612.5
1678.732	589.5
1683.199	571.5
1687.663	543.5
1692.122	521.5
1696.577	485.5
1701.028	474.5
1705.474	442.5
1709.917	432.5
1714.355	427.5
1718.788	418.5
1723.218	418.5
1727.643	422.5
1732.064	428.5
1736.481	427.5
1740.893	408.5
1745.301	403.5
1749.705	394.5
1754.105	381.5
1758.501	363.5
1762.893	371.5
1767.28	363.5
1771.663	359.5
1776.042	346.5
1780.417	341.5
1784.787	342.5
1789.154	331.5
1793.516	320.5
1797.874	319.5
1802.228	320.5
1806.578	312.5
1810.924	305.5
1815.266	310.5
1819.603	304.5
1823.937	313.5
1828.266	315.5
1832.591	322.5
1836.913	309.5
1841.23	328.5
1845.543	312.5
1849.852	322.5
1854.156	325.5
1858.457	324.5
1862.754	330.5
1867.047	318.5
1871.335	325.5
1875.62	321.5
1879.9	326.5
1884.177	309.5
1888.449	309.5
1892.718	307.5
1896.982	307.5
1901.243	287.5
1905.499	291.5
1909.752	274.5
1914	276.5
1918.245	276.5
1922.485	263.5
1926.722	271.5
1930.954	256.5
1935.183	260.5
1939.408	252.5
1943.628	246.5
1947.845	242.5
1952.058	242.5
1956.267	235.5
1960.472	242.5
1964.673	233.5
1968.87	228.5
1973.063	229.5
1977.252	240.5
1981.438	242.5
1985.619	237.5
1989.797	237.5
1993.971	247.5
1998.14	248.5
2002.306	248.5
2006.469	257.5
2010.627	241.5
2014.781	253.5
2018.932	249.5
2023.078	248.5
2027.221	242.5
2031.36	245.5
2035.495	230.5
2039.627	224.5
2043.754	233.5
2047.878	230.5
2051.998	232.5
2056.114	233.5
2060.226	223.5
2064.334	217.5
2068.439	216.5
2072.54	218.5
2076.637	219.5
2080.73	219.5
2084.82	215.5
2088.906	209.5
2092.988	207.5
2097.066	206.5
2101.14	202.5
2105.211	198.5
2109.278	200.5
2113.342	191.5
2117.401	183.5
2121.457	191.5
2125.509	186.5
2129.558	183.5
2133.602	183.5
2137.643	195.5
2141.681	191.5
2145.714	192.5
2149.744	183.5
2153.77	198.5
2157.793	182.5
2161.812	195.5
2165.827	194.5
2169.838	184.5
2173.846	186.5
2177.851	179.5
2181.851	189.5
2185.848	184.5
2189.841	176.5
2193.831	176.5
2197.817	175.5
2201.799	184.5
2205.778	176.5
2209.753	183.5
2213.725	176.5
2217.693	182.5
2221.657	177.5
2225.618	164.5
2229.575	167.5
2233.529	163.5
2237.479	176.5
2241.425	167.5
2245.368	170.5
2249.307	163.5
2253.243	161.5
2257.175	169.5
2261.104	150.5
2265.029	165.5
2268.95	150.5
2272.868	155.5
2276.783	153.5
2280.694	145.5
2284.601	142.5
2288.505	150.5
2292.405	149.5
2296.302	142.5
2300.195	140.5
2304.085	138.5
2307.971	131.5
2311.854	134.5
2315.734	133.5
2319.609	140.5
2323.482	129.5
2327.351	132.5
2331.216	137.5
2335.078	145.5
2338.937	143.5
2342.792	135.5
2346.643	136.5
2350.492	140.5
2354.336	139.5
2358.178	132.5
2362.015	139.5
2365.85	134.5
2369.681	148.5
2373.508	134.5
2377.333	135.5
2381.153	136.5
2384.971	130.5
2388.785	128.5
2392.595	139.5
2396.402	135.5
2400.206	131.5
2404.007	132.5
2407.804	134.5
2411.597	124.5
2415.388	130.5
2419.174	133.5
2422.958	126.5
2426.738	138.5
2430.515	127.5
2434.289	135.5
2438.059	122.5
2441.825	122.5
2445.589	124.5
2449.349	118.5
2453.106	121.5
2456.859	118.5
2460.61	117.5
2464.356	119.5
2468.1	108.5
2471.84	110.5
2475.577	106.5
2479.311	99.5
2483.041	112.5
2486.768	108.5
2490.492	109.5
2494.213	107.5
2497.93	107.5
2501.644	107.5
2505.355	97.5
2509.062	104.5
2512.766	100.5
2516.467	101.5
2520.165	105.5
2523.859	100.5
2527.551	101.5
2531.239	91.5
2534.923	79.5
2538.605	89.5
2542.283	84.5
2545.958	85.5
2549.63	87.5
2553.299	79.5
2556.964	74.5
2560.626	77.5
2564.285	81.5
2567.941	81.5
2571.594	75.5
2575.243	86.5
2578.89	77.5
2582.533	72.5
2586.173	73.5
2589.809	73.5
2593.443	80.5
2597.073	73.5
2600.701	73.5
2604.325	62.5
2607.946	61.5
2611.564	66.5
2615.178	73.5
2618.79	65.5
2622.398	72.5
2626.004	65.5
2629.606	59.5
2633.205	63.5
2636.801	62.5
2640.394	69.5
2643.983	61.5
2647.57	61.5
2651.153	61.5
2654.734	52.5
2658.311	62.5
2661.885	61.5
2665.456	64.5
2669.025	59.5
2672.589	61.5
2676.151	61.5
2679.71	51.5
2683.266	53.5
2686.819	66.5
2690.368	50.5
2693.915	58.5
2697.458	53.5
2700.999	53.5
2704.536	52.5
2708.071	50.5
2711.602	44.5
2715.13	39.5
2718.656	45.5
2722.178	47.5
2725.697	44.5
2729.214	48.5
2732.727	42.5
2736.237	44.5
2739.744	39.5
2743.249	42.5
2746.75	43.5
2750.248	37.5
2753.743	32.5
2757.236	32.5
2760.725	30.5
2764.211	27.5
2767.695	30.5
2771.175	28.5
2774.652	22.5
2778.127	28.5
2781.598	24.5
2785.067	25.5
2788.532	24.5
2791.995	25.5
2795.455	23.5
2798.911	28.5
2802.365	30.5
2805.816	27.5
2809.264	26.5
2812.709	30.5
2816.151	31.5
2819.59	38.5
2823.026	32.5
2826.46	33.5
2829.89	38.5
2833.318	29.5
2836.742	32.5
2840.164	24.5
2843.583	30.5
2846.999	30.5
2850.412	31.5
2853.822	33.5
2857.229	35.5
2860.634	24.5
2864.035	29.5
2867.434	27.5
2870.83	39.5
2874.223	36.5
2877.613	46.5
2881	46.5
2884.385	40.5
2887.766	44.5
2891.145	42.5
2894.521	45.5
2897.894	47.5
2901.264	43.5
2904.631	41.5
2907.996	50.5
2911.358	53.5
2914.717	44.5
2918.073	46.5
2921.426	48.5
2924.777	54.5
2928.124	56.5
2931.469	63.5
2934.811	62.5
2938.15	64.5
2941.487	65.5
2944.821	59.5
2948.152	61.5
2951.48	61.5
2954.805	64.5
2958.128	61.5
2961.447	57.5
2964.765	52.5
2968.079	48.5
2971.39	59.5
2974.699	50.5
2978.005	62.5
2981.308	56.5
2984.609	57.5
2987.907	60.5
2991.202	57.5
2994.494	63.5
2997.784	58.5
3001.07	58.5
3004.355	67.5
3007.636	68.5
3010.915	63.5
3014.191	62.5
3017.464	64.5
3020.734	65.5
3024.002	68.5
3027.267	66.5
3030.53	66.5
3033.789	75.5
3037.046	69.5
3040.301	76.5
3043.552	80.5
3046.801	89.5
3050.048	74.5
3053.291	81.5
3056.532	92.5
3059.771	90.5
3063.006	93.5
3066.239	101.5
3069.469	111.5
3072.697	109.5
3075.922	113.5
3079.144	107.5
3082.364	122.5
3085.581	118.5
3088.795	121.5
3092.007	131.5
3095.216	135.5
3098.423	134.5
3101.627	135.5
3104.828	142.5
3108.026	142.5
3111.222	144.5
3114.416	145.5
3117.607	154.5
3120.795	160.5
3123.98	162.5
3127.163	174.5
3130.344	167.5
3133.521	178.5
3136.696	182.5
3139.869	183.5
3143.039	177.5
3146.206	191.5
3149.371	193.5
3152.533	198.5
3155.693	204.5
3158.85	187.5
3162.005	194.5
3165.157	191.5
3168.306	190.5
3171.453	192.5
3174.597	191.5
3177.739	201.5
3180.878	201.5
3184.014	193.5
3187.149	198.5
3190.28	205.5
3193.409	203.5
3196.536	192.5
3199.659	207.5
3202.781	210.5
3205.9	196.5
3209.016	196.5
3212.13	204.5
3215.241	202.5
3218.35	191.5
3221.456	198.5
3224.56	189.5
3227.661	184.5
3230.76	186.5
3233.856	185.5
3236.95	183.5
3240.041	170.5
3243.13	177.5
3246.216	167.5
3249.3	157.5
3252.382	167.5
3255.46	170.5
3258.537	164.5
3261.611	157.5
3264.682	156.5
3267.751	154.5
3270.818	139.5
3273.882	157.5
3276.943	153.5
3280.002	154.5
3283.059	154.5
3286.113	152.5
3289.165	150.5
3292.214	148.5
3295.261	152.5
3298.306	144.5
3301.348	142.5
3304.387	138.5
3307.425	136.5
3310.459	133.5
3313.492	140.5
3316.521	135.5
3319.549	139.5
3322.574	132.5
3325.597	144.5
3328.617	137.5
3331.635	143.5
3334.65	147.5
3337.663	132.5
3340.674	135.5
3343.682	139.5
3346.688	135.5
3349.691	145.5
3352.692	140.5
3355.691	134.5
3358.687	135.5
3361.681	132.5
3364.673	129.5
3367.662	127.5
3370.649	127.5
3373.633	128.5
3376.615	126.5
3379.595	125.5
3382.572	113.5
3385.547	117.5
3388.52	110.5
3391.49	109.5
3394.458	105.5
3397.424	113.5
3400.387	106.5
3403.348	102.5
3406.307	96.5
3409.263	105.5
3412.217	102.5
3415.168	109.5
3418.118	95.5
3421.065	90.5
3424.009	96.5
3426.951	89.5
3429.891	92.5
3432.829	86.5
3435.764	94.5
3438.697	83.5
3441.628	71.5
3444.557	76.5
3447.483	68.5
3450.407	63.5
3453.328	74.5
3456.247	61.5
3459.164	63.5
3462.079	50.5
3464.991	50.5
3467.902	47.5
3470.809	47.5
3473.715	51.5
3476.618	41.5
3479.519	34.5
3482.418	35.5
3485.315	37.5
3488.209	21.5
3491.101	30.5
3493.99	27.5
3496.878	18.5
3499.763	14.5
3502.646	21.5
3505.527	15.5
3508.405	9.5
3511.281	14.5
3514.155	3.5
3517.027	5.5
3519.897	7.5
3522.764	-0.5
3525.629	0.5
3528.492	0.5
3531.352	-4.5
3534.211	-8.5
3537.067	-6.5
3539.921	-4.5
3542.773	-16.5
3545.622	-11.5
3548.469	-7.5
3551.315	-12.5
3554.157	-15.5
3556.998	-20.5
3559.837	-21.5
3562.673	-19.5
3565.507	-17.5
3568.339	-23.5
3571.169	-26.5
3573.996	-15.5
3576.822	-28.5
3579.645	-30.5
3582.466	-28.5
3585.285	-29.5
3588.101	-32.5
3590.916	-29.5
3593.728	-30.5
3596.538	-31.5
3599.346	-32.5
3602.152	-29.5
3604.956	-29.5
3607.757	-25.5
3610.556	-28.5
3613.354	-37.5
3616.149	-43.5
3618.942	-40.5
3621.732	-37.5
3624.521	-36.5
3627.307	-37.5
3630.092	-42.5
3632.874	-46.5
3635.654	-44.5
3638.432	-42.5
3641.208	-41.5
3643.982	-41.5
3646.753	-43.5
3649.523	-35.5
3652.29	-46.5
3655.055	-38.5
3657.818	-42.5
3660.579	-40.5
3663.338	-35.5
3666.095	-43.5
3668.849	-47.5
3671.602	-43.5
3674.352	-42.5
3677.101	-45.5
3679.847	-47.5
3682.591	-52.5
3685.333	-45.5
3688.073	-54.5
3690.811	-48.5
3693.547	-53.5
3696.281	-51.5
3699.013	-50.5
3701.742	-51.5
3704.47	-43.5
3707.195	-50.5
3709.919	-49.5
3712.64	-50.5
3715.359	-49.5
3718.076	-51.5
3720.792	-44.5
3723.505	-47.5
3726.216	-47.5
3728.925	-51.5
3731.632	-50.5
3734.336	-55.5
3737.039	-49.5
3739.74	-53.5
3742.439	-62.5
3745.136	-55.5
3747.83	-54.5
3750.523	-56.5
3753.213	-63.5
3755.902	-57.5
3758.589	-51.5
3761.273	-52.5
3763.956	-57.5
3766.636	-46.5
3769.315	-54.5
3771.991	-55.5
3774.665	-55.5
3777.338	-54.5
3780.008	-53.5
3782.677	-56.5
3785.343	-52.5
3788.007	-56.5
3790.67	-55.5
3793.33	-59.5
3795.989	-55.5
3798.645	-54.5
3801.299	-55.5
3803.952	-52.5
3806.602	-59.5
3809.251	-63.5
3811.897	-59.5
3814.542	-63.5
3817.184	-56.5
3819.825	-51.5
3822.463	-54.5
3825.1	-48.5
3827.735	-55.5
3830.367	-57.5
3832.998	-59.5
3835.627	-57.5
3838.253	-57.5
3840.878	-50.5
3843.501	-53.5
3846.122	-62.5
3848.741	-61.5
3851.358	-53.5
3853.973	-50.5
3856.586	-54.5
3859.197	-59.5
3861.806	-58.5
3864.414	-55.5
3867.019	-65.5
3869.622	-52.5
3872.224	-45.5
3874.823	-36.5
3877.421	-26.5
3880.016	-16.5
3882.61	2.5
3885.202	7.5
3887.792	-2.5
3890.38	-24.5
3892.966	-44.5
3895.55	-47.5
3898.132	-50.5
3900.713	-53.5
3903.291	-56.5
3905.868	-52.5
3908.442	-57.5
3911.015	-57.5
3913.586	-68.5
3916.155	-60.5
3918.722	-62.5
3921.287	-58.5
3923.85	-51.5
3926.411	-59.5
3928.971	-61.5
3931.528	-56.5
3934.084	-55.5
3936.638	-54.5
3939.19	-62.5
3941.74	-54.5
3944.288	-56.5
3946.834	-56.5
3949.378	-52.5
3951.921	-61.5
3954.462	-62.5
3957	-51.5
3959.537	-52.5
3962.072	-57.5
3964.606	-56.5
3967.137	-55.5
3969.667	-63.5
3972.194	-56.5
3974.72	-55.5
3977.244	-50.5
3979.766	-54.5
3982.286	-56.5
3984.805	-63.5
3987.321	-56.5
3989.836	-52.5
3992.349	-54.5
3994.86	-59.5
3997.369	-54.5
3999.877	-53.5
4002.382	-56.5
4004.886	-51.5
4007.388	-60.5
4009.888	-56.5
4012.386	-61.5
4014.883	-60.5
4017.377	-51.5
4019.87	-57.5
4022.361	-61.5
4024.85	-58.5
4027.338	-64.5
4029.823	-58.5
4032.307	-57.5
4034.789	-58.5
4037.269	-52.5
4039.747	-58.5
4042.224	-56.5
4044.699	-58.5
4047.172	-59.5
4049.643	-58.5
4052.112	-54.5
4054.58	-57.5
4057.046	-52.5
4059.51	-56.5
4061.972	-63.5
4064.432	-56.5
4066.891	-53.5
4069.348	-52.5
4071.803	-57.5
4074.256	-57.5
4076.708	-57.5
4079.158	-63.5
4081.606	-55.5
4084.052	-61.5
4086.497	-53.5
4088.939	-54.5
4091.38	-56.5
4093.819	-61.5
4096.257	-58.5
4098.693	-57.5
4101.127	-55.5
4103.559	-59.5
4105.989	8.5
4108.418	7.5
4110.845	4.5
4113.27	-0.5
4115.694	5.5
4118.115	13.5
4120.535	-61.5
4122.954	-54.5
4125.37	-56.5
4127.785	-54.5
4130.198	-54.5
4132.609	-60.5
4135.019	-57.5
4137.427	-58.5
4139.833	-57.5
4142.237	-55.5
