Data from 2018-3-7_conc=3_n=7_RamanShift_04.txt Node
Date: Wed Mar 07 11:36:22 IST 2018
User: aro
Spectrometer: QEPB0276
Trigger mode: 0
Integration Time (sec): 3.000000E1
Scans to average: 1
Electric dark correction enabled: true
Nonlinearity correction enabled: false
Boxcar width: 0
XAxis mode: Raman Shifts
Number of Pixels in Spectrum: 1044
>>>>>Begin Spectral Data<<<<<
160.701	15.9
166.742	23.9
172.777	45.9
178.805	124.9
184.826	324.9
190.841	694.9
196.849	1137.9
202.85	1487.9
208.845	1618.9
214.833	1636.9
220.815	1592.9
226.789	1598.9
232.758	1622.9
238.719	1615.9
244.674	1633.9
250.623	1604.9
256.565	1589.9
262.5	1564.9
268.429	1565.9
274.351	1536.9
280.267	1540.9
286.176	1561.9
292.079	1544.9
297.975	1548.9
303.865	1534.9
309.748	1534.9
315.625	1541.9
321.495	1538.9
327.359	1538.9
333.217	1546.9
339.068	1556.9
344.912	1569.9
350.751	1557.9
356.583	1569.9
362.408	1542.9
368.227	1560.9
374.04	1595.9
379.847	1592.9
385.647	1582.9
391.44	1596.9
397.228	1593.9
403.009	1614.9
408.784	1614.9
414.553	1633.9
420.315	1630.9
426.071	1613.9
431.821	1619.9
437.565	1630.9
443.302	1632.9
449.033	1609.9
454.758	1610.9
460.477	1607.9
466.189	1575.9
471.896	1556.9
477.596	1568.9
483.29	1555.9
488.978	1558.9
494.66	1535.9
500.335	1517.9
506.005	1465.9
511.668	1385.9
517.325	1354.9
522.977	1290.9
528.622	1271.9
534.261	1235.9
539.894	1196.9
545.521	1209.9
551.141	1178.9
556.756	1155.9
562.365	1163.9
567.968	1144.9
573.565	1149.9
579.155	1139.9
584.74	1136.9
590.319	1128.9
595.892	1133.9
601.459	1129.9
607.02	1127.9
612.575	1114.9
618.124	1110.9
623.667	1090.9
629.204	1075.9
634.735	1055.9
640.261	1047.9
645.781	1036.9
651.294	1056.9
656.802	1057.9
662.304	1054.9
667.8	1048.9
673.29	1029.9
678.775	1022.9
684.254	1021.9
689.726	1024.9
695.193	1006.9
700.655	1015.9
706.11	1005.9
711.56	1004.9
717.004	990.9
722.442	973.9
727.874	972.9
733.301	984.9
738.722	975.9
744.137	974.9
749.547	971.9
754.951	954.9
760.349	971.9
765.741	970.9
771.128	975.9
776.509	981.9
781.885	1008.9
787.254	1005.9
792.618	1009.9
797.977	1001.9
803.33	978.9
808.677	989.9
814.019	984.9
819.355	964.9
824.686	961.9
830.011	955.9
835.33	953.9
840.644	947.9
845.952	948.9
851.255	936.9
856.552	932.9
861.844	924.9
867.13	924.9
872.41	924.9
877.686	916.9
882.955	902.9
888.219	894.9
893.478	884.9
898.731	862.9
903.979	845.9
909.221	850.9
914.458	837.9
919.69	848.9
924.916	860.9
930.136	839.9
935.351	855.9
940.561	839.9
945.766	839.9
950.965	843.9
956.158	834.9
961.347	827.9
966.529	821.9
971.707	797.9
976.879	796.9
982.046	791.9
987.208	787.9
992.364	767.9
997.515	797.9
1002.66	794.9
1007.801	805.9
1012.936	811.9
1018.066	816.9
1023.19	810.9
1028.309	807.9
1033.423	805.9
1038.532	786.9
1043.636	795.9
1048.734	791.9
1053.827	780.9
1058.915	777.9
1063.998	761.9
1069.075	764.9
1074.147	761.9
1079.214	771.9
1084.276	766.9
1089.333	760.9
1094.385	795.9
1099.431	766.9
1104.472	770.9
1109.509	773.9
1114.54	745.9
1119.565	736.9
1124.586	726.9
1129.602	722.9
1134.613	721.9
1139.618	707.9
1144.619	705.9
1149.614	716.9
1154.604	717.9
1159.589	718.9
1164.57	730.9
1169.545	723.9
1174.515	720.9
1179.48	717.9
1184.44	700.9
1189.395	699.9
1194.345	695.9
1199.29	686.9
1204.23	692.9
1209.165	684.9
1214.095	706.9
1219.021	696.9
1223.941	704.9
1228.856	709.9
1233.766	707.9
1238.672	714.9
1243.572	703.9
1248.467	706.9
1253.358	695.9
1258.244	693.9
1263.124	672.9
1268	665.9
1272.871	643.9
1277.737	649.9
1282.599	643.9
1287.455	645.9
1292.306	643.9
1297.153	647.9
1301.995	651.9
1306.832	656.9
1311.664	654.9
1316.491	662.9
1321.314	659.9
1326.132	654.9
1330.945	631.9
1335.753	628.9
1340.556	610.9
1345.354	610.9
1350.148	593.9
1354.937	577.9
1359.722	568.9
1364.501	560.9
1369.276	549.9
1374.046	544.9
1378.811	541.9
1383.572	532.9
1388.327	529.9
1393.079	530.9
1397.825	544.9
1402.567	529.9
1407.304	543.9
1412.036	539.9
1416.764	542.9
1421.487	547.9
1426.205	538.9
1430.919	524.9
1435.628	543.9
1440.333	557.9
1445.032	549.9
1449.727	566.9
1454.418	553.9
1459.104	551.9
1463.785	542.9
1468.462	530.9
1473.134	518.9
1477.802	514.9
1482.465	499.9
1487.123	487.9
1491.777	471.9
1496.426	469.9
1501.071	467.9
1505.711	463.9
1510.347	462.9
1514.978	453.9
1519.604	460.9
1524.226	451.9
1528.844	450.9
1533.457	441.9
1538.065	460.9
1542.669	444.9
1547.269	452.9
1551.864	450.9
1556.454	456.9
1561.041	472.9
1565.622	464.9
1570.199	471.9
1574.772	462.9
1579.34	478.9
1583.904	482.9
1588.464	496.9
1593.019	480.9
1597.569	494.9
1602.115	486.9
1606.657	490.9
1611.195	481.9
1615.728	473.9
1620.256	478.9
1624.78	480.9
1629.3	484.9
1633.816	472.9
1638.327	491.9
1642.834	475.9
1647.336	485.9
1651.834	483.9
1656.328	490.9
1660.817	476.9
1665.302	470.9
1669.783	457.9
1674.259	446.9
1678.732	436.9
1683.199	424.9
1687.663	404.9
1692.122	384.9
1696.577	370.9
1701.028	363.9
1705.474	344.9
1709.917	334.9
1714.355	327.9
1718.788	319.9
1723.218	328.9
1727.643	328.9
1732.064	323.9
1736.481	328.9
1740.893	309.9
1745.301	321.9
1749.705	309.9
1754.105	286.9
1758.501	285.9
1762.893	287.9
1767.28	271.9
1771.663	278.9
1776.042	269.9
1780.417	263.9
1784.787	264.9
1789.154	256.9
1793.516	250.9
1797.874	251.9
1802.228	249.9
1806.578	246.9
1810.924	234.9
1815.266	248.9
1819.603	232.9
1823.937	244.9
1828.266	241.9
1832.591	246.9
1836.913	239.9
1841.23	243.9
1845.543	235.9
1849.852	247.9
1854.156	250.9
1858.457	251.9
1862.754	248.9
1867.047	240.9
1871.335	250.9
1875.62	249.9
1879.9	250.9
1884.177	245.9
1888.449	234.9
1892.718	235.9
1896.982	227.9
1901.243	223.9
1905.499	221.9
1909.752	215.9
1914	211.9
1918.245	211.9
1922.485	209.9
1926.722	201.9
1930.954	197.9
1935.183	201.9
1939.408	205.9
1943.628	200.9
1947.845	204.9
1952.058	200.9
1956.267	198.9
1960.472	192.9
1964.673	188.9
1968.87	182.9
1973.063	187.9
1977.252	187.9
1981.438	183.9
1985.619	180.9
1989.797	179.9
1993.971	188.9
1998.14	187.9
2002.306	190.9
2006.469	195.9
2010.627	188.9
2014.781	186.9
2018.932	185.9
2023.078	192.9
2027.221	175.9
2031.36	181.9
2035.495	186.9
2039.627	169.9
2043.754	180.9
2047.878	170.9
2051.998	174.9
2056.114	164.9
2060.226	162.9
2064.334	164.9
2068.439	163.9
2072.54	163.9
2076.637	168.9
2080.73	159.9
2084.82	169.9
2088.906	162.9
2092.988	161.9
2097.066	156.9
2101.14	161.9
2105.211	154.9
2109.278	145.9
2113.342	145.9
2117.401	146.9
2121.457	142.9
2125.509	139.9
2129.558	147.9
2133.602	142.9
2137.643	155.9
2141.681	141.9
2145.714	149.9
2149.744	150.9
2153.77	148.9
2157.793	150.9
2161.812	148.9
2165.827	143.9
2169.838	127.9
2173.846	137.9
2177.851	136.9
2181.851	131.9
2185.848	132.9
2189.841	138.9
2193.831	125.9
2197.817	137.9
2201.799	127.9
2205.778	125.9
2209.753	141.9
2213.725	129.9
2217.693	126.9
2221.657	129.9
2225.618	119.9
2229.575	129.9
2233.529	118.9
2237.479	127.9
2241.425	118.9
2245.368	119.9
2249.307	120.9
2253.243	123.9
2257.175	111.9
2261.104	110.9
2265.029	108.9
2268.95	115.9
2272.868	110.9
2276.783	107.9
2280.694	104.9
2284.601	100.9
2288.505	97.9
2292.405	103.9
2296.302	109.9
2300.195	94.9
2304.085	96.9
2307.971	94.9
2311.854	85.9
2315.734	86.9
2319.609	101.9
2323.482	98.9
2327.351	93.9
2331.216	107.9
2335.078	118.9
2338.937	109.9
2342.792	97.9
2346.643	95.9
2350.492	92.9
2354.336	91.9
2358.178	89.9
2362.015	89.9
2365.85	92.9
2369.681	95.9
2373.508	90.9
2377.333	92.9
2381.153	97.9
2384.971	92.9
2388.785	89.9
2392.595	90.9
2396.402	93.9
2400.206	89.9
2404.007	93.9
2407.804	87.9
2411.597	87.9
2415.388	89.9
2419.174	90.9
2422.958	81.9
2426.738	88.9
2430.515	89.9
2434.289	89.9
2438.059	77.9
2441.825	83.9
2445.589	83.9
2449.349	79.9
2453.106	82.9
2456.859	84.9
2460.61	79.9
2464.356	79.9
2468.1	77.9
2471.84	71.9
2475.577	71.9
2479.311	69.9
2483.041	69.9
2486.768	68.9
2490.492	72.9
2494.213	61.9
2497.93	73.9
2501.644	71.9
2505.355	62.9
2509.062	64.9
2512.766	70.9
2516.467	65.9
2520.165	59.9
2523.859	65.9
2527.551	63.9
2531.239	58.9
2534.923	57.9
2538.605	55.9
2542.283	56.9
2545.958	57.9
2549.63	53.9
2553.299	46.9
2556.964	47.9
2560.626	51.9
2564.285	55.9
2567.941	50.9
2571.594	50.9
2575.243	44.9
2578.89	51.9
2582.533	46.9
2586.173	52.9
2589.809	54.9
2593.443	44.9
2597.073	44.9
2600.701	47.9
2604.325	38.9
2607.946	31.9
2611.564	48.9
2615.178	40.9
2618.79	43.9
2622.398	43.9
2626.004	39.9
2629.606	37.9
2633.205	37.9
2636.801	37.9
2640.394	39.9
2643.983	34.9
2647.57	39.9
2651.153	31.9
2654.734	33.9
2658.311	34.9
2661.885	40.9
2665.456	36.9
2669.025	35.9
2672.589	31.9
2676.151	36.9
2679.71	28.9
2683.266	37.9
2686.819	44.9
2690.368	34.9
2693.915	28.9
2697.458	18.9
2700.999	28.9
2704.536	29.9
2708.071	33.9
2711.602	22.9
2715.13	19.9
2718.656	24.9
2722.178	20.9
2725.697	20.9
2729.214	18.9
2732.727	28.9
2736.237	25.9
2739.744	18.9
2743.249	20.9
2746.75	20.9
2750.248	18.9
2753.743	13.9
2757.236	16.9
2760.725	14.9
2764.211	13.9
2767.695	9.9
2771.175	10.9
2774.652	13.9
2778.127	15.9
2781.598	14.9
2785.067	10.9
2788.532	9.9
2791.995	15.9
2795.455	14.9
2798.911	13.9
2802.365	20.9
2805.816	16.9
2809.264	10.9
2812.709	15.9
2816.151	16.9
2819.59	28.9
2823.026	12.9
2826.46	11.9
2829.89	11.9
2833.318	9.9
2836.742	15.9
2840.164	13.9
2843.583	12.9
2846.999	19.9
2850.412	17.9
2853.822	14.9
2857.229	26.9
2860.634	18.9
2864.035	17.9
2867.434	14.9
2870.83	18.9
2874.223	19.9
2877.613	22.9
2881	22.9
2884.385	28.9
2887.766	24.9
2891.145	22.9
2894.521	25.9
2897.894	28.9
2901.264	24.9
2904.631	15.9
2907.996	26.9
2911.358	31.9
2914.717	27.9
2918.073	26.9
2921.426	26.9
2924.777	28.9
2928.124	29.9
2931.469	30.9
2934.811	37.9
2938.15	38.9
2941.487	42.9
2944.821	35.9
2948.152	44.9
2951.48	34.9
2954.805	40.9
2958.128	31.9
2961.447	37.9
2964.765	28.9
2968.079	31.9
2971.39	30.9
2974.699	28.9
2978.005	31.9
2981.308	31.9
2984.609	29.9
2987.907	35.9
2991.202	38.9
2994.494	29.9
2997.784	26.9
3001.07	30.9
3004.355	32.9
3007.636	33.9
3010.915	35.9
3014.191	31.9
3017.464	34.9
3020.734	42.9
3024.002	41.9
3027.267	48.9
3030.53	34.9
3033.789	43.9
3037.046	38.9
3040.301	41.9
3043.552	44.9
3046.801	47.9
3050.048	50.9
3053.291	48.9
3056.532	47.9
3059.771	49.9
3063.006	50.9
3066.239	59.9
3069.469	71.9
3072.697	68.9
3075.922	74.9
3079.144	70.9
3082.364	69.9
3085.581	74.9
3088.795	74.9
3092.007	77.9
3095.216	81.9
3098.423	81.9
3101.627	80.9
3104.828	86.9
3108.026	86.9
3111.222	90.9
3114.416	85.9
3117.607	98.9
3120.795	89.9
3123.98	94.9
3127.163	108.9
3130.344	107.9
3133.521	106.9
3136.696	109.9
3139.869	113.9
3143.039	113.9
3146.206	115.9
3149.371	117.9
3152.533	120.9
3155.693	126.9
3158.85	122.9
3162.005	122.9
3165.157	120.9
3168.306	123.9
3171.453	121.9
3174.597	128.9
3177.739	131.9
3180.878	124.9
3184.014	126.9
3187.149	125.9
3190.28	125.9
3193.409	133.9
3196.536	130.9
3199.659	128.9
3202.781	127.9
3205.9	121.9
3209.016	130.9
3212.13	121.9
3215.241	124.9
3218.35	121.9
3221.456	127.9
3224.56	115.9
3227.661	116.9
3230.76	118.9
3233.856	118.9
3236.95	111.9
3240.041	111.9
3243.13	111.9
3246.216	106.9
3249.3	110.9
3252.382	103.9
3255.46	104.9
3258.537	96.9
3261.611	103.9
3264.682	93.9
3267.751	92.9
3270.818	92.9
3273.882	95.9
3276.943	89.9
3280.002	96.9
3283.059	91.9
3286.113	88.9
3289.165	84.9
3292.214	87.9
3295.261	93.9
3298.306	97.9
3301.348	92.9
3304.387	85.9
3307.425	84.9
3310.459	77.9
3313.492	85.9
3316.521	81.9
3319.549	91.9
3322.574	81.9
3325.597	80.9
3328.617	76.9
3331.635	87.9
3334.65	90.9
3337.663	70.9
3340.674	81.9
3343.682	82.9
3346.688	76.9
3349.691	79.9
3352.692	82.9
3355.691	87.9
3358.687	79.9
3361.681	76.9
3364.673	75.9
3367.662	80.9
3370.649	80.9
3373.633	67.9
3376.615	67.9
3379.595	63.9
3382.572	62.9
3385.547	73.9
3388.52	64.9
3391.49	61.9
3394.458	62.9
3397.424	65.9
3400.387	70.9
3403.348	54.9
3406.307	54.9
3409.263	64.9
3412.217	51.9
3415.168	60.9
3418.118	54.9
3421.065	47.9
3424.009	55.9
3426.951	45.9
3429.891	47.9
3432.829	46.9
3435.764	43.9
3438.697	50.9
3441.628	36.9
3444.557	41.9
3447.483	39.9
3450.407	31.9
3453.328	32.9
3456.247	27.9
3459.164	30.9
3462.079	16.9
3464.991	23.9
3467.902	17.9
3470.809	15.9
3473.715	13.9
3476.618	12.9
3479.519	15.9
3482.418	10.9
3485.315	10.9
3488.209	2.9
3491.101	2.9
3493.99	7.9
3496.878	7.9
3499.763	-5.1
3502.646	-0.1
3505.527	-1.1
3508.405	-2.1
3511.281	-2.1
3514.155	-7.1
3517.027	-12.1
3519.897	-4.1
3522.764	-5.1
3525.629	-12.1
3528.492	-9.1
3531.352	-12.1
3534.211	-14.1
3537.067	-15.1
3539.921	-16.1
3542.773	-26.1
3545.622	-22.1
3548.469	-18.1
3551.315	-16.1
3554.157	-23.1
3556.998	-24.1
3559.837	-25.1
3562.673	-27.1
3565.507	-22.1
3568.339	-24.1
3571.169	-28.1
3573.996	-23.1
3576.822	-33.1
3579.645	-26.1
3582.466	-30.1
3585.285	-30.1
3588.101	-31.1
3590.916	-29.1
3593.728	-37.1
3596.538	-37.1
3599.346	-39.1
3602.152	-36.1
3604.956	-32.1
3607.757	-36.1
3610.556	-34.1
3613.354	-40.1
3616.149	-37.1
3618.942	-40.1
3621.732	-37.1
3624.521	-29.1
3627.307	-40.1
3630.092	-44.1
3632.874	-38.1
3635.654	-38.1
3638.432	-37.1
3641.208	-45.1
3643.982	-42.1
3646.753	-41.1
3649.523	-43.1
3652.29	-45.1
3655.055	-39.1
3657.818	-44.1
3660.579	-45.1
3663.338	-37.1
3666.095	-43.1
3668.849	-41.1
3671.602	-45.1
3674.352	-43.1
3677.101	-46.1
3679.847	-48.1
3682.591	-47.1
3685.333	-51.1
3688.073	-53.1
3690.811	-49.1
3693.547	-52.1
3696.281	-42.1
3699.013	-44.1
3701.742	-51.1
3704.47	-42.1
3707.195	-45.1
3709.919	-47.1
3712.64	-46.1
3715.359	-44.1
3718.076	-53.1
3720.792	-51.1
3723.505	-51.1
3726.216	-46.1
3728.925	-53.1
3731.632	-49.1
3734.336	-54.1
3737.039	-49.1
3739.74	-52.1
3742.439	-49.1
3745.136	-47.1
3747.83	-42.1
3750.523	-54.1
3753.213	-57.1
3755.902	-46.1
3758.589	-54.1
3761.273	-48.1
3763.956	-50.1
3766.636	-52.1
3769.315	-50.1
3771.991	-55.1
3774.665	-56.1
3777.338	-56.1
3780.008	-50.1
3782.677	-55.1
3785.343	-51.1
3788.007	-49.1
3790.67	-49.1
3793.33	-45.1
3795.989	-51.1
3798.645	-52.1
3801.299	-56.1
3803.952	-50.1
3806.602	-55.1
3809.251	-56.1
3811.897	-54.1
3814.542	-54.1
3817.184	-55.1
3819.825	-49.1
3822.463	-51.1
3825.1	-45.1
3827.735	-54.1
3830.367	-48.1
3832.998	-55.1
3835.627	-48.1
3838.253	-47.1
3840.878	-49.1
3843.501	-43.1
3846.122	-53.1
3848.741	-55.1
3851.358	-58.1
3853.973	-52.1
3856.586	-48.1
3859.197	-54.1
3861.806	-53.1
3864.414	-51.1
3867.019	-48.1
3869.622	-43.1
3872.224	-41.1
3874.823	-31.1
3877.421	-22.1
3880.016	-8.1
3882.61	0.9
3885.202	0.9
3887.792	-3.1
3890.38	-23.1
3892.966	-41.1
3895.55	-44.1
3898.132	-47.1
3900.713	-56.1
3903.291	-57.1
3905.868	-50.1
3908.442	-51.1
3911.015	-50.1
3913.586	-52.1
3916.155	-52.1
3918.722	-56.1
3921.287	-56.1
3923.85	-47.1
3926.411	-55.1
3928.971	-62.1
3931.528	-56.1
3934.084	-52.1
3936.638	-50.1
3939.19	-57.1
3941.74	-49.1
3944.288	-54.1
3946.834	-51.1
3949.378	-51.1
3951.921	-54.1
3954.462	-56.1
3957	-47.1
3959.537	-49.1
3962.072	-51.1
3964.606	-53.1
3967.137	-51.1
3969.667	-53.1
3972.194	-52.1
3974.72	-53.1
3977.244	-49.1
3979.766	-56.1
3982.286	-49.1
3984.805	-58.1
3987.321	-50.1
3989.836	-48.1
3992.349	-50.1
3994.86	-54.1
3997.369	-54.1
3999.877	-50.1
4002.382	-55.1
4004.886	-54.1
4007.388	-53.1
4009.888	-51.1
4012.386	-55.1
4014.883	-49.1
4017.377	-50.1
4019.87	-49.1
4022.361	-56.1
4024.85	-47.1
4027.338	-55.1
4029.823	-55.1
4032.307	-55.1
4034.789	-48.1
4037.269	-49.1
4039.747	-55.1
4042.224	-57.1
4044.699	-58.1
4047.172	-58.1
4049.643	-58.1
4052.112	-58.1
4054.58	-58.1
4057.046	-51.1
4059.51	-53.1
4061.972	-57.1
4064.432	-51.1
4066.891	-47.1
4069.348	-50.1
4071.803	-48.1
4074.256	-51.1
4076.708	-50.1
4079.158	-57.1
4081.606	-54.1
4084.052	-52.1
4086.497	-51.1
4088.939	-49.1
4091.38	-54.1
4093.819	-59.1
4096.257	-55.1
4098.693	-56.1
4101.127	-53.1
4103.559	-58.1
4105.989	16.9
4108.418	8.9
4110.845	3.9
4113.27	10.9
4115.694	12.9
4118.115	12.9
4120.535	-55.1
4122.954	-51.1
4125.37	-56.1
4127.785	-49.1
4130.198	-52.1
4132.609	-55.1
4135.019	-53.1
4137.427	-54.1
4139.833	-52.1
4142.237	-51.1
