Data from 2018-3-7_conc=3_n=9_RamanShift_04.txt Node
Date: Wed Mar 07 11:42:22 IST 2018
User: aro
Spectrometer: QEPB0276
Trigger mode: 0
Integration Time (sec): 3.000000E1
Scans to average: 1
Electric dark correction enabled: true
Nonlinearity correction enabled: false
Boxcar width: 0
XAxis mode: Raman Shifts
Number of Pixels in Spectrum: 1044
>>>>>Begin Spectral Data<<<<<
160.701	15.9
166.742	17.9
172.777	46.9
178.805	139.9
184.826	343.9
190.841	732.9
196.849	1191.9
202.85	1574.9
208.845	1710.9
214.833	1700.9
220.815	1670.9
226.789	1681.9
232.758	1698.9
238.719	1678.9
244.674	1686.9
250.623	1694.9
256.565	1661.9
262.5	1635.9
268.429	1624.9
274.351	1607.9
280.267	1598.9
286.176	1596.9
292.079	1617.9
297.975	1610.9
303.865	1600.9
309.748	1613.9
315.625	1604.9
321.495	1593.9
327.359	1601.9
333.217	1621.9
339.068	1608.9
344.912	1617.9
350.751	1616.9
356.583	1626.9
362.408	1609.9
368.227	1622.9
374.04	1653.9
379.847	1646.9
385.647	1635.9
391.44	1651.9
397.228	1663.9
403.009	1666.9
408.784	1680.9
414.553	1698.9
420.315	1686.9
426.071	1690.9
431.821	1692.9
437.565	1699.9
443.302	1688.9
449.033	1678.9
454.758	1672.9
460.477	1663.9
466.189	1643.9
471.896	1644.9
477.596	1623.9
483.29	1618.9
488.978	1597.9
494.66	1595.9
500.335	1570.9
506.005	1506.9
511.668	1460.9
517.325	1417.9
522.977	1354.9
528.622	1326.9
534.261	1306.9
539.894	1283.9
545.521	1271.9
551.141	1249.9
556.756	1234.9
562.365	1228.9
567.968	1209.9
573.565	1204.9
579.155	1213.9
584.74	1205.9
590.319	1205.9
595.892	1197.9
601.459	1208.9
607.02	1180.9
612.575	1168.9
618.124	1161.9
623.667	1160.9
629.204	1154.9
634.735	1133.9
640.261	1115.9
645.781	1109.9
651.294	1102.9
656.802	1097.9
662.304	1100.9
667.8	1101.9
673.29	1100.9
678.775	1088.9
684.254	1089.9
689.726	1087.9
695.193	1070.9
700.655	1059.9
706.11	1077.9
711.56	1061.9
717.004	1048.9
722.442	1047.9
727.874	1042.9
733.301	1040.9
738.722	1017.9
744.137	1038.9
749.547	1022.9
754.951	1031.9
760.349	1030.9
765.741	1028.9
771.128	1025.9
776.509	1043.9
781.885	1062.9
787.254	1051.9
792.618	1061.9
797.977	1057.9
803.33	1047.9
808.677	1030.9
814.019	1039.9
819.355	1032.9
824.686	1010.9
830.011	1015.9
835.33	993.9
840.644	1016.9
845.952	1010.9
851.255	989.9
856.552	983.9
861.844	977.9
867.13	965.9
872.41	960.9
877.686	958.9
882.955	965.9
888.219	956.9
893.478	945.9
898.731	920.9
903.979	903.9
909.221	908.9
914.458	900.9
919.69	893.9
924.916	902.9
930.136	888.9
935.351	886.9
940.561	893.9
945.766	894.9
950.965	890.9
956.158	896.9
961.347	870.9
966.529	870.9
971.707	853.9
976.879	850.9
982.046	826.9
987.208	822.9
992.364	815.9
997.515	821.9
1002.66	837.9
1007.801	850.9
1012.936	856.9
1018.066	858.9
1023.19	858.9
1028.309	846.9
1033.423	857.9
1038.532	854.9
1043.636	852.9
1048.734	846.9
1053.827	818.9
1058.915	820.9
1063.998	817.9
1069.075	801.9
1074.147	815.9
1079.214	807.9
1084.276	811.9
1089.333	812.9
1094.385	814.9
1099.431	808.9
1104.472	813.9
1109.509	809.9
1114.54	794.9
1119.565	783.9
1124.586	764.9
1129.602	766.9
1134.613	765.9
1139.618	763.9
1144.619	756.9
1149.614	763.9
1154.604	757.9
1159.589	762.9
1164.57	763.9
1169.545	769.9
1174.515	770.9
1179.48	815.9
1184.44	853.9
1189.395	744.9
1194.345	740.9
1199.29	720.9
1204.23	719.9
1209.165	743.9
1214.095	748.9
1219.021	744.9
1223.941	755.9
1228.856	760.9
1233.766	753.9
1238.672	737.9
1243.572	758.9
1248.467	747.9
1253.358	731.9
1258.244	732.9
1263.124	706.9
1268	701.9
1272.871	693.9
1277.737	691.9
1282.599	679.9
1287.455	679.9
1292.306	684.9
1297.153	687.9
1301.995	701.9
1306.832	702.9
1311.664	687.9
1316.491	699.9
1321.314	698.9
1326.132	701.9
1330.945	682.9
1335.753	654.9
1340.556	649.9
1345.354	635.9
1350.148	625.9
1354.937	617.9
1359.722	589.9
1364.501	588.9
1369.276	583.9
1374.046	574.9
1378.811	564.9
1383.572	569.9
1388.327	575.9
1393.079	564.9
1397.825	564.9
1402.567	565.9
1407.304	568.9
1412.036	576.9
1416.764	575.9
1421.487	583.9
1426.205	576.9
1430.919	561.9
1435.628	577.9
1440.333	578.9
1445.032	587.9
1449.727	596.9
1454.418	599.9
1459.104	586.9
1463.785	592.9
1468.462	560.9
1473.134	557.9
1477.802	535.9
1482.465	534.9
1487.123	518.9
1491.777	509.9
1496.426	498.9
1501.071	482.9
1505.711	491.9
1510.347	487.9
1514.978	482.9
1519.604	476.9
1524.226	475.9
1528.844	491.9
1533.457	466.9
1538.065	481.9
1542.669	478.9
1547.269	471.9
1551.864	486.9
1556.454	503.9
1561.041	501.9
1565.622	490.9
1570.199	499.9
1574.772	494.9
1579.34	494.9
1583.904	508.9
1588.464	516.9
1593.019	517.9
1597.569	514.9
1602.115	517.9
1606.657	521.9
1611.195	514.9
1615.728	507.9
1620.256	506.9
1624.78	510.9
1629.3	510.9
1633.816	511.9
1638.327	512.9
1642.834	508.9
1647.336	495.9
1651.834	505.9
1656.328	512.9
1660.817	505.9
1665.302	498.9
1669.783	490.9
1674.259	473.9
1678.732	475.9
1683.199	448.9
1687.663	432.9
1692.122	409.9
1696.577	401.9
1701.028	381.9
1705.474	365.9
1709.917	366.9
1714.355	336.9
1718.788	345.9
1723.218	340.9
1727.643	346.9
1732.064	343.9
1736.481	347.9
1740.893	336.9
1745.301	333.9
1749.705	330.9
1754.105	319.9
1758.501	300.9
1762.893	310.9
1767.28	295.9
1771.663	293.9
1776.042	293.9
1780.417	276.9
1784.787	280.9
1789.154	271.9
1793.516	256.9
1797.874	266.9
1802.228	266.9
1806.578	260.9
1810.924	261.9
1815.266	255.9
1819.603	254.9
1823.937	258.9
1828.266	262.9
1832.591	262.9
1836.913	253.9
1841.23	260.9
1845.543	250.9
1849.852	266.9
1854.156	261.9
1858.457	260.9
1862.754	258.9
1867.047	260.9
1871.335	255.9
1875.62	266.9
1879.9	261.9
1884.177	260.9
1888.449	251.9
1892.718	249.9
1896.982	246.9
1901.243	231.9
1905.499	243.9
1909.752	229.9
1914	228.9
1918.245	221.9
1922.485	209.9
1926.722	213.9
1930.954	215.9
1935.183	212.9
1939.408	217.9
1943.628	203.9
1947.845	209.9
1952.058	209.9
1956.267	199.9
1960.472	206.9
1964.673	199.9
1968.87	200.9
1973.063	198.9
1977.252	203.9
1981.438	195.9
1985.619	191.9
1989.797	194.9
1993.971	198.9
1998.14	201.9
2002.306	196.9
2006.469	202.9
2010.627	198.9
2014.781	203.9
2018.932	191.9
2023.078	198.9
2027.221	195.9
2031.36	202.9
2035.495	184.9
2039.627	181.9
2043.754	184.9
2047.878	181.9
2051.998	190.9
2056.114	184.9
2060.226	175.9
2064.334	178.9
2068.439	176.9
2072.54	173.9
2076.637	179.9
2080.73	179.9
2084.82	173.9
2088.906	166.9
2092.988	175.9
2097.066	166.9
2101.14	162.9
2105.211	169.9
2109.278	161.9
2113.342	154.9
2117.401	158.9
2121.457	150.9
2125.509	159.9
2129.558	153.9
2133.602	151.9
2137.643	151.9
2141.681	150.9
2145.714	157.9
2149.744	158.9
2153.77	157.9
2157.793	154.9
2161.812	161.9
2165.827	153.9
2169.838	148.9
2173.846	147.9
2177.851	140.9
2181.851	152.9
2185.848	141.9
2189.841	149.9
2193.831	141.9
2197.817	142.9
2201.799	140.9
2205.778	146.9
2209.753	143.9
2213.725	140.9
2217.693	140.9
2221.657	139.9
2225.618	129.9
2229.575	126.9
2233.529	130.9
2237.479	128.9
2241.425	124.9
2245.368	133.9
2249.307	131.9
2253.243	124.9
2257.175	124.9
2261.104	114.9
2265.029	123.9
2268.95	121.9
2272.868	125.9
2276.783	110.9
2280.694	112.9
2284.601	108.9
2288.505	115.9
2292.405	117.9
2296.302	114.9
2300.195	111.9
2304.085	105.9
2307.971	104.9
2311.854	105.9
2315.734	97.9
2319.609	110.9
2323.482	104.9
2327.351	112.9
2331.216	117.9
2335.078	127.9
2338.937	113.9
2342.792	100.9
2346.643	108.9
2350.492	102.9
2354.336	101.9
2358.178	92.9
2362.015	96.9
2365.85	99.9
2369.681	102.9
2373.508	99.9
2377.333	112.9
2381.153	101.9
2384.971	99.9
2388.785	92.9
2392.595	98.9
2396.402	102.9
2400.206	99.9
2404.007	97.9
2407.804	101.9
2411.597	94.9
2415.388	92.9
2419.174	103.9
2422.958	95.9
2426.738	96.9
2430.515	89.9
2434.289	93.9
2438.059	90.9
2441.825	79.9
2445.589	89.9
2449.349	89.9
2453.106	96.9
2456.859	79.9
2460.61	89.9
2464.356	86.9
2468.1	81.9
2471.84	73.9
2475.577	80.9
2479.311	74.9
2483.041	80.9
2486.768	83.9
2490.492	78.9
2494.213	73.9
2497.93	76.9
2501.644	76.9
2505.355	68.9
2509.062	66.9
2512.766	73.9
2516.467	63.9
2520.165	74.9
2523.859	75.9
2527.551	65.9
2531.239	68.9
2534.923	61.9
2538.605	61.9
2542.283	57.9
2545.958	61.9
2549.63	56.9
2553.299	64.9
2556.964	55.9
2560.626	61.9
2564.285	60.9
2567.941	59.9
2571.594	61.9
2575.243	66.9
2578.89	51.9
2582.533	54.9
2586.173	51.9
2589.809	56.9
2593.443	55.9
2597.073	53.9
2600.701	60.9
2604.325	46.9
2607.946	38.9
2611.564	47.9
2615.178	46.9
2618.79	46.9
2622.398	42.9
2626.004	41.9
2629.606	45.9
2633.205	43.9
2636.801	42.9
2640.394	47.9
2643.983	39.9
2647.57	43.9
2651.153	40.9
2654.734	40.9
2658.311	36.9
2661.885	40.9
2665.456	44.9
2669.025	44.9
2672.589	38.9
2676.151	40.9
2679.71	30.9
2683.266	30.9
2686.819	42.9
2690.368	33.9
2693.915	37.9
2697.458	27.9
2700.999	40.9
2704.536	35.9
2708.071	36.9
2711.602	34.9
2715.13	23.9
2718.656	27.9
2722.178	29.9
2725.697	23.9
2729.214	30.9
2732.727	29.9
2736.237	28.9
2739.744	17.9
2743.249	19.9
2746.75	19.9
2750.248	25.9
2753.743	20.9
2757.236	19.9
2760.725	19.9
2764.211	19.9
2767.695	16.9
2771.175	20.9
2774.652	17.9
2778.127	21.9
2781.598	15.9
2785.067	13.9
2788.532	17.9
2791.995	18.9
2795.455	12.9
2798.911	15.9
2802.365	25.9
2805.816	19.9
2809.264	16.9
2812.709	9.9
2816.151	20.9
2819.59	28.9
2823.026	17.9
2826.46	24.9
2829.89	21.9
2833.318	16.9
2836.742	23.9
2840.164	18.9
2843.583	16.9
2846.999	24.9
2850.412	15.9
2853.822	18.9
2857.229	18.9
2860.634	16.9
2864.035	14.9
2867.434	22.9
2870.83	23.9
2874.223	21.9
2877.613	24.9
2881	27.9
2884.385	29.9
2887.766	35.9
2891.145	27.9
2894.521	29.9
2897.894	26.9
2901.264	31.9
2904.631	27.9
2907.996	30.9
2911.358	33.9
2914.717	30.9
2918.073	25.9
2921.426	34.9
2924.777	34.9
2928.124	36.9
2931.469	38.9
2934.811	46.9
2938.15	39.9
2941.487	56.9
2944.821	39.9
2948.152	51.9
2951.48	40.9
2954.805	39.9
2958.128	38.9
2961.447	37.9
2964.765	33.9
2968.079	37.9
2971.39	37.9
2974.699	34.9
2978.005	40.9
2981.308	38.9
2984.609	37.9
2987.907	40.9
2991.202	41.9
2994.494	45.9
2997.784	35.9
3001.07	39.9
3004.355	44.9
3007.636	39.9
3010.915	44.9
3014.191	44.9
3017.464	36.9
3020.734	43.9
3024.002	37.9
3027.267	47.9
3030.53	45.9
3033.789	46.9
3037.046	48.9
3040.301	52.9
3043.552	49.9
3046.801	52.9
3050.048	50.9
3053.291	59.9
3056.532	61.9
3059.771	56.9
3063.006	62.9
3066.239	65.9
3069.469	73.9
3072.697	73.9
3075.922	78.9
3079.144	68.9
3082.364	87.9
3085.581	80.9
3088.795	86.9
3092.007	84.9
3095.216	91.9
3098.423	85.9
3101.627	90.9
3104.828	90.9
3108.026	95.9
3111.222	96.9
3114.416	98.9
3117.607	97.9
3120.795	101.9
3123.98	107.9
3127.163	112.9
3130.344	113.9
3133.521	116.9
3136.696	122.9
3139.869	123.9
3143.039	124.9
3146.206	133.9
3149.371	123.9
3152.533	145.9
3155.693	138.9
3158.85	134.9
3162.005	138.9
3165.157	131.9
3168.306	132.9
3171.453	137.9
3174.597	133.9
3177.739	141.9
3180.878	133.9
3184.014	134.9
3187.149	139.9
3190.28	135.9
3193.409	138.9
3196.536	140.9
3199.659	143.9
3202.781	139.9
3205.9	131.9
3209.016	136.9
3212.13	141.9
3215.241	136.9
3218.35	138.9
3221.456	141.9
3224.56	134.9
3227.661	132.9
3230.76	124.9
3233.856	130.9
3236.95	132.9
3240.041	125.9
3243.13	128.9
3246.216	120.9
3249.3	115.9
3252.382	118.9
3255.46	119.9
3258.537	107.9
3261.611	116.9
3264.682	114.9
3267.751	114.9
3270.818	93.9
3273.882	106.9
3276.943	95.9
3280.002	105.9
3283.059	104.9
3286.113	94.9
3289.165	92.9
3292.214	103.9
3295.261	100.9
3298.306	95.9
3301.348	100.9
3304.387	100.9
3307.425	93.9
3310.459	86.9
3313.492	95.9
3316.521	84.9
3319.549	97.9
3322.574	89.9
3325.597	97.9
3328.617	82.9
3331.635	95.9
3334.65	101.9
3337.663	80.9
3340.674	91.9
3343.682	93.9
3346.688	82.9
3349.691	97.9
3352.692	87.9
3355.691	94.9
3358.687	92.9
3361.681	88.9
3364.673	89.9
3367.662	86.9
3370.649	85.9
3373.633	78.9
3376.615	82.9
3379.595	80.9
3382.572	63.9
3385.547	77.9
3388.52	78.9
3391.49	72.9
3394.458	68.9
3397.424	72.9
3400.387	77.9
3403.348	63.9
3406.307	63.9
3409.263	63.9
3412.217	65.9
3415.168	63.9
3418.118	51.9
3421.065	57.9
3424.009	51.9
3426.951	52.9
3429.891	51.9
3432.829	51.9
3435.764	52.9
3438.697	56.9
3441.628	46.9
3444.557	51.9
3447.483	45.9
3450.407	36.9
3453.328	43.9
3456.247	44.9
3459.164	36.9
3462.079	24.9
3464.991	23.9
3467.902	24.9
3470.809	24.9
3473.715	20.9
3476.618	19.9
3479.519	15.9
3482.418	15.9
3485.315	14.9
3488.209	8.9
3491.101	13.9
3493.99	14.9
3496.878	10.9
3499.763	2.9
3502.646	10.9
3505.527	6.9
3508.405	9.9
3511.281	6.9
3514.155	-4.1
3517.027	-8.1
3519.897	-2.1
3522.764	-3.1
3525.629	-10.1
3528.492	-16.1
3531.352	-11.1
3534.211	-14.1
3537.067	-14.1
3539.921	-15.1
3542.773	-19.1
3545.622	-16.1
3548.469	-13.1
3551.315	-14.1
3554.157	-23.1
3556.998	-17.1
3559.837	-23.1
3562.673	-18.1
3565.507	-26.1
3568.339	-21.1
3571.169	-22.1
3573.996	-22.1
3576.822	-32.1
3579.645	-27.1
3582.466	-26.1
3585.285	-30.1
3588.101	-28.1
3590.916	-33.1
3593.728	-36.1
3596.538	-33.1
3599.346	-37.1
3602.152	-31.1
3604.956	-28.1
3607.757	-23.1
3610.556	-34.1
3613.354	-37.1
3616.149	-43.1
3618.942	-31.1
3621.732	-37.1
3624.521	-34.1
3627.307	-36.1
3630.092	-41.1
3632.874	-39.1
3635.654	-38.1
3638.432	-36.1
3641.208	-36.1
3643.982	-33.1
3646.753	-40.1
3649.523	-38.1
3652.29	-41.1
3655.055	-40.1
3657.818	-41.1
3660.579	-44.1
3663.338	-43.1
3666.095	-46.1
3668.849	-46.1
3671.602	-46.1
3674.352	-42.1
3677.101	-45.1
3679.847	-43.1
3682.591	-46.1
3685.333	-41.1
3688.073	-47.1
3690.811	-38.1
3693.547	-51.1
3696.281	-40.1
3699.013	-43.1
3701.742	-47.1
3704.47	-47.1
3707.195	-50.1
3709.919	-42.1
3712.64	-51.1
3715.359	-49.1
3718.076	-54.1
3720.792	-45.1
3723.505	-51.1
3726.216	-48.1
3728.925	-52.1
3731.632	-47.1
3734.336	-48.1
3737.039	-42.1
3739.74	-49.1
3742.439	-53.1
3745.136	-49.1
3747.83	-49.1
3750.523	-50.1
3753.213	-58.1
3755.902	-45.1
3758.589	-49.1
3761.273	-48.1
3763.956	-52.1
3766.636	-50.1
3769.315	-46.1
3771.991	-49.1
3774.665	-54.1
3777.338	-54.1
3780.008	-54.1
3782.677	-53.1
3785.343	-50.1
3788.007	-50.1
3790.67	-52.1
3793.33	-50.1
3795.989	-55.1
3798.645	-53.1
3801.299	-50.1
3803.952	-47.1
3806.602	-50.1
3809.251	-52.1
3811.897	-59.1
3814.542	-55.1
3817.184	-51.1
3819.825	-52.1
3822.463	-46.1
3825.1	-48.1
3827.735	-58.1
3830.367	-51.1
3832.998	-56.1
3835.627	-52.1
3838.253	-49.1
3840.878	-47.1
3843.501	-46.1
3846.122	-55.1
3848.741	-52.1
3851.358	-50.1
3853.973	-53.1
3856.586	-50.1
3859.197	-49.1
3861.806	-51.1
3864.414	-54.1
3867.019	-54.1
3869.622	-45.1
3872.224	-38.1
3874.823	-31.1
3877.421	-22.1
3880.016	-16.1
3882.61	5.9
3885.202	1.9
3887.792	-4.1
3890.38	-20.1
3892.966	-43.1
3895.55	-47.1
3898.132	-48.1
3900.713	-52.1
3903.291	-54.1
3905.868	-51.1
3908.442	-54.1
3911.015	-54.1
3913.586	-55.1
3916.155	-56.1
3918.722	-53.1
3921.287	-52.1
3923.85	-45.1
3926.411	-54.1
3928.971	-58.1
3931.528	-52.1
3934.084	-46.1
3936.638	-49.1
3939.19	-56.1
3941.74	-48.1
3944.288	-54.1
3946.834	-56.1
3949.378	-53.1
3951.921	-58.1
3954.462	-53.1
3957	-47.1
3959.537	-40.1
3962.072	-45.1
3964.606	-47.1
3967.137	-50.1
3969.667	-49.1
3972.194	-48.1
3974.72	-47.1
3977.244	-47.1
3979.766	-52.1
3982.286	-55.1
3984.805	-61.1
3987.321	-50.1
3989.836	-44.1
3992.349	-53.1
3994.86	-57.1
3997.369	-54.1
3999.877	-53.1
4002.382	-53.1
4004.886	-43.1
4007.388	-51.1
4009.888	-50.1
4012.386	-54.1
4014.883	-50.1
4017.377	-47.1
4019.87	-47.1
4022.361	-57.1
4024.85	-50.1
4027.338	-55.1
4029.823	-56.1
4032.307	-56.1
4034.789	-49.1
4037.269	-52.1
4039.747	-49.1
4042.224	-53.1
4044.699	-54.1
4047.172	-52.1
4049.643	-54.1
4052.112	-51.1
4054.58	-51.1
4057.046	-50.1
4059.51	-48.1
4061.972	-52.1
4064.432	-47.1
4066.891	-49.1
4069.348	-54.1
4071.803	-47.1
4074.256	-52.1
4076.708	-56.1
4079.158	-53.1
4081.606	-48.1
4084.052	-56.1
4086.497	-44.1
4088.939	-49.1
4091.38	-53.1
4093.819	-60.1
4096.257	-57.1
4098.693	-56.1
4101.127	-46.1
4103.559	-56.1
4105.989	22.9
4108.418	14.9
4110.845	9.9
4113.27	11.9
4115.694	16.9
4118.115	13.9
4120.535	-52.1
4122.954	-49.1
4125.37	-47.1
4127.785	-54.1
4130.198	-50.1
4132.609	-55.1
4135.019	-53.1
4137.427	-57.1
4139.833	-55.1
4142.237	-55.1
