Data from 2018-3-7_conc=4_n=8_RamanShift_02.txt Node
Date: Wed Mar 07 12:12:52 IST 2018
User: aro
Spectrometer: QEPB0276
Trigger mode: 0
Integration Time (sec): 3.000000E1
Scans to average: 1
Electric dark correction enabled: true
Nonlinearity correction enabled: false
Boxcar width: 0
XAxis mode: Raman Shifts
Number of Pixels in Spectrum: 1044
>>>>>Begin Spectral Data<<<<<
160.701	12.5
166.742	25.5
172.777	59.5
178.805	158.5
184.826	418.5
190.841	858.5
196.849	1445.5
202.85	1880.5
208.845	2056.5
214.833	2069.5
220.815	2026.5
226.789	2030.5
232.758	2040.5
238.719	2035.5
244.674	2039.5
250.623	2018.5
256.565	1974.5
262.5	1955.5
268.429	1923.5
274.351	1926.5
280.267	1912.5
286.176	1902.5
292.079	1886.5
297.975	1894.5
303.865	1907.5
309.748	1885.5
315.625	1886.5
321.495	1880.5
327.359	1876.5
333.217	1895.5
339.068	1905.5
344.912	1892.5
350.751	1900.5
356.583	1901.5
362.408	1900.5
368.227	1906.5
374.04	1916.5
379.847	1918.5
385.647	1923.5
391.44	1941.5
397.228	1940.5
403.009	1950.5
408.784	1975.5
414.553	1971.5
420.315	1968.5
426.071	1976.5
431.821	1967.5
437.565	1961.5
443.302	1964.5
449.033	1964.5
454.758	1967.5
460.477	1957.5
466.189	1922.5
471.896	1924.5
477.596	1911.5
483.29	1907.5
488.978	1894.5
494.66	1895.5
500.335	1859.5
506.005	1794.5
511.668	1748.5
517.325	1685.5
522.977	1624.5
528.622	1601.5
534.261	1566.5
539.894	1543.5
545.521	1549.5
551.141	1532.5
556.756	1511.5
562.365	1514.5
567.968	1491.5
573.565	1484.5
579.155	1480.5
584.74	1467.5
590.319	1468.5
595.892	1476.5
601.459	1455.5
607.02	1450.5
612.575	1441.5
618.124	1435.5
623.667	1424.5
629.204	1397.5
634.735	1400.5
640.261	1382.5
645.781	1361.5
651.294	1377.5
656.802	1365.5
662.304	1356.5
667.8	1364.5
673.29	1352.5
678.775	1364.5
684.254	1345.5
689.726	1332.5
695.193	1330.5
700.655	1317.5
706.11	1311.5
711.56	1305.5
717.004	1303.5
722.442	1292.5
727.874	1281.5
733.301	1293.5
738.722	1273.5
744.137	1284.5
749.547	1268.5
754.951	1270.5
760.349	1249.5
765.741	1284.5
771.128	1286.5
776.509	1276.5
781.885	1307.5
787.254	1301.5
792.618	1297.5
797.977	1289.5
803.33	1286.5
808.677	1282.5
814.019	1275.5
819.355	1249.5
824.686	1233.5
830.011	1242.5
835.33	1257.5
840.644	1228.5
845.952	1246.5
851.255	1229.5
856.552	1228.5
861.844	1226.5
867.13	1205.5
872.41	1190.5
877.686	1215.5
882.955	1186.5
888.219	1179.5
893.478	1175.5
898.731	1133.5
903.979	1122.5
909.221	1129.5
914.458	1129.5
919.69	1112.5
924.916	1119.5
930.136	1124.5
935.351	1113.5
940.561	1102.5
945.766	1119.5
950.965	1125.5
956.158	1111.5
961.347	1099.5
966.529	1077.5
971.707	1050.5
976.879	1049.5
982.046	1043.5
987.208	1026.5
992.364	1042.5
997.515	1036.5
1002.66	1052.5
1007.801	1056.5
1012.936	1071.5
1018.066	1060.5
1023.19	1069.5
1028.309	1064.5
1033.423	1066.5
1038.532	1058.5
1043.636	1043.5
1048.734	1050.5
1053.827	1033.5
1058.915	1023.5
1063.998	1009.5
1069.075	994.5
1074.147	989.5
1079.214	1004.5
1084.276	1017.5
1089.333	1011.5
1094.385	1028.5
1099.431	1013.5
1104.472	996.5
1109.509	1011.5
1114.54	988.5
1119.565	977.5
1124.586	965.5
1129.602	959.5
1134.613	947.5
1139.618	948.5
1144.619	937.5
1149.614	942.5
1154.604	943.5
1159.589	944.5
1164.57	943.5
1169.545	950.5
1174.515	947.5
1179.48	946.5
1184.44	928.5
1189.395	945.5
1194.345	924.5
1199.29	912.5
1204.23	917.5
1209.165	919.5
1214.095	931.5
1219.021	921.5
1223.941	938.5
1228.856	930.5
1233.766	942.5
1238.672	934.5
1243.572	939.5
1248.467	932.5
1253.358	915.5
1258.244	906.5
1263.124	886.5
1268	870.5
1272.871	880.5
1277.737	859.5
1282.599	863.5
1287.455	866.5
1292.306	858.5
1297.153	861.5
1301.995	860.5
1306.832	869.5
1311.664	868.5
1316.491	880.5
1321.314	862.5
1326.132	866.5
1330.945	854.5
1335.753	831.5
1340.556	807.5
1345.354	804.5
1350.148	783.5
1354.937	776.5
1359.722	754.5
1364.501	741.5
1369.276	719.5
1374.046	713.5
1378.811	703.5
1383.572	710.5
1388.327	692.5
1393.079	700.5
1397.825	697.5
1402.567	704.5
1407.304	719.5
1412.036	722.5
1416.764	718.5
1421.487	728.5
1426.205	726.5
1430.919	713.5
1435.628	721.5
1440.333	734.5
1445.032	715.5
1449.727	751.5
1454.418	745.5
1459.104	737.5
1463.785	722.5
1468.462	712.5
1473.134	685.5
1477.802	678.5
1482.465	662.5
1487.123	635.5
1491.777	632.5
1496.426	623.5
1501.071	615.5
1505.711	606.5
1510.347	596.5
1514.978	596.5
1519.604	589.5
1524.226	592.5
1528.844	590.5
1533.457	586.5
1538.065	582.5
1542.669	570.5
1547.269	580.5
1551.864	594.5
1556.454	584.5
1561.041	611.5
1565.622	601.5
1570.199	610.5
1574.772	606.5
1579.34	635.5
1583.904	629.5
1588.464	651.5
1593.019	650.5
1597.569	652.5
1602.115	649.5
1606.657	642.5
1611.195	641.5
1615.728	640.5
1620.256	634.5
1624.78	637.5
1629.3	634.5
1633.816	650.5
1638.327	644.5
1642.834	636.5
1647.336	642.5
1651.834	640.5
1656.328	640.5
1660.817	625.5
1665.302	618.5
1669.783	613.5
1674.259	604.5
1678.732	576.5
1683.199	550.5
1687.663	542.5
1692.122	512.5
1696.577	492.5
1701.028	464.5
1705.474	446.5
1709.917	433.5
1714.355	429.5
1718.788	421.5
1723.218	423.5
1727.643	412.5
1732.064	422.5
1736.481	427.5
1740.893	410.5
1745.301	409.5
1749.705	393.5
1754.105	379.5
1758.501	363.5
1762.893	373.5
1767.28	352.5
1771.663	362.5
1776.042	352.5
1780.417	350.5
1784.787	341.5
1789.154	333.5
1793.516	318.5
1797.874	311.5
1802.228	325.5
1806.578	310.5
1810.924	310.5
1815.266	309.5
1819.603	306.5
1823.937	300.5
1828.266	309.5
1832.591	319.5
1836.913	320.5
1841.23	320.5
1845.543	310.5
1849.852	324.5
1854.156	320.5
1858.457	318.5
1862.754	332.5
1867.047	329.5
1871.335	317.5
1875.62	319.5
1879.9	325.5
1884.177	312.5
1888.449	308.5
1892.718	307.5
1896.982	302.5
1901.243	287.5
1905.499	278.5
1909.752	281.5
1914	281.5
1918.245	261.5
1922.485	267.5
1926.722	260.5
1930.954	256.5
1935.183	259.5
1939.408	250.5
1943.628	246.5
1947.845	241.5
1952.058	246.5
1956.267	231.5
1960.472	243.5
1964.673	239.5
1968.87	229.5
1973.063	241.5
1977.252	240.5
1981.438	234.5
1985.619	236.5
1989.797	237.5
1993.971	233.5
1998.14	238.5
2002.306	244.5
2006.469	245.5
2010.627	254.5
2014.781	244.5
2018.932	239.5
2023.078	242.5
2027.221	242.5
2031.36	242.5
2035.495	236.5
2039.627	225.5
2043.754	233.5
2047.878	229.5
2051.998	222.5
2056.114	220.5
2060.226	217.5
2064.334	218.5
2068.439	216.5
2072.54	210.5
2076.637	214.5
2080.73	207.5
2084.82	201.5
2088.906	198.5
2092.988	204.5
2097.066	188.5
2101.14	198.5
2105.211	193.5
2109.278	201.5
2113.342	193.5
2117.401	187.5
2121.457	187.5
2125.509	184.5
2129.558	186.5
2133.602	188.5
2137.643	188.5
2141.681	179.5
2145.714	186.5
2149.744	192.5
2153.77	180.5
2157.793	193.5
2161.812	191.5
2165.827	188.5
2169.838	181.5
2173.846	175.5
2177.851	174.5
2181.851	171.5
2185.848	171.5
2189.841	171.5
2193.831	167.5
2197.817	173.5
2201.799	172.5
2205.778	166.5
2209.753	165.5
2213.725	175.5
2217.693	172.5
2221.657	174.5
2225.618	163.5
2229.575	168.5
2233.529	157.5
2237.479	175.5
2241.425	163.5
2245.368	160.5
2249.307	159.5
2253.243	149.5
2257.175	149.5
2261.104	138.5
2265.029	146.5
2268.95	144.5
2272.868	141.5
2276.783	138.5
2280.694	135.5
2284.601	135.5
2288.505	140.5
2292.405	142.5
2296.302	136.5
2300.195	139.5
2304.085	134.5
2307.971	130.5
2311.854	122.5
2315.734	118.5
2319.609	132.5
2323.482	123.5
2327.351	127.5
2331.216	136.5
2335.078	146.5
2338.937	136.5
2342.792	127.5
2346.643	127.5
2350.492	126.5
2354.336	130.5
2358.178	120.5
2362.015	132.5
2365.85	131.5
2369.681	127.5
2373.508	130.5
2377.333	130.5
2381.153	129.5
2384.971	122.5
2388.785	123.5
2392.595	120.5
2396.402	124.5
2400.206	124.5
2404.007	127.5
2407.804	123.5
2411.597	121.5
2415.388	120.5
2419.174	118.5
2422.958	116.5
2426.738	120.5
2430.515	116.5
2434.289	119.5
2438.059	118.5
2441.825	114.5
2445.589	113.5
2449.349	108.5
2453.106	110.5
2456.859	109.5
2460.61	103.5
2464.356	102.5
2468.1	108.5
2471.84	104.5
2475.577	100.5
2479.311	96.5
2483.041	99.5
2486.768	101.5
2490.492	101.5
2494.213	90.5
2497.93	99.5
2501.644	98.5
2505.355	84.5
2509.062	92.5
2512.766	99.5
2516.467	91.5
2520.165	95.5
2523.859	101.5
2527.551	82.5
2531.239	76.5
2534.923	86.5
2538.605	73.5
2542.283	80.5
2545.958	78.5
2549.63	78.5
2553.299	70.5
2556.964	66.5
2560.626	77.5
2564.285	73.5
2567.941	69.5
2571.594	68.5
2575.243	71.5
2578.89	72.5
2582.533	65.5
2586.173	65.5
2589.809	69.5
2593.443	70.5
2597.073	67.5
2600.701	75.5
2604.325	55.5
2607.946	53.5
2611.564	60.5
2615.178	59.5
2618.79	55.5
2622.398	63.5
2626.004	62.5
2629.606	55.5
2633.205	57.5
2636.801	56.5
2640.394	62.5
2643.983	54.5
2647.57	52.5
2651.153	52.5
2654.734	59.5
2658.311	52.5
2661.885	63.5
2665.456	55.5
2669.025	55.5
2672.589	46.5
2676.151	51.5
2679.71	48.5
2683.266	46.5
2686.819	53.5
2690.368	43.5
2693.915	50.5
2697.458	43.5
2700.999	48.5
2704.536	53.5
2708.071	46.5
2711.602	35.5
2715.13	35.5
2718.656	40.5
2722.178	40.5
2725.697	32.5
2729.214	35.5
2732.727	34.5
2736.237	39.5
2739.744	33.5
2743.249	29.5
2746.75	31.5
2750.248	27.5
2753.743	28.5
2757.236	21.5
2760.725	25.5
2764.211	17.5
2767.695	19.5
2771.175	16.5
2774.652	21.5
2778.127	25.5
2781.598	21.5
2785.067	25.5
2788.532	19.5
2791.995	31.5
2795.455	22.5
2798.911	22.5
2802.365	26.5
2805.816	29.5
2809.264	23.5
2812.709	24.5
2816.151	23.5
2819.59	36.5
2823.026	24.5
2826.46	31.5
2829.89	23.5
2833.318	25.5
2836.742	28.5
2840.164	27.5
2843.583	25.5
2846.999	30.5
2850.412	31.5
2853.822	26.5
2857.229	26.5
2860.634	30.5
2864.035	26.5
2867.434	26.5
2870.83	33.5
2874.223	34.5
2877.613	36.5
2881	29.5
2884.385	32.5
2887.766	39.5
2891.145	35.5
2894.521	35.5
2897.894	40.5
2901.264	38.5
2904.631	31.5
2907.996	37.5
2911.358	51.5
2914.717	46.5
2918.073	43.5
2921.426	47.5
2924.777	42.5
2928.124	50.5
2931.469	55.5
2934.811	55.5
2938.15	59.5
2941.487	62.5
2944.821	52.5
2948.152	57.5
2951.48	45.5
2954.805	55.5
2958.128	50.5
2961.447	51.5
2964.765	47.5
2968.079	52.5
2971.39	55.5
2974.699	54.5
2978.005	48.5
2981.308	47.5
2984.609	45.5
2987.907	52.5
2991.202	48.5
2994.494	53.5
2997.784	42.5
3001.07	53.5
3004.355	51.5
3007.636	52.5
3010.915	57.5
3014.191	48.5
3017.464	56.5
3020.734	60.5
3024.002	60.5
3027.267	62.5
3030.53	65.5
3033.789	60.5
3037.046	66.5
3040.301	61.5
3043.552	69.5
3046.801	72.5
3050.048	68.5
3053.291	73.5
3056.532	75.5
3059.771	82.5
3063.006	84.5
3066.239	87.5
3069.469	95.5
3072.697	101.5
3075.922	111.5
3079.144	104.5
3082.364	103.5
3085.581	107.5
3088.795	115.5
3092.007	124.5
3095.216	124.5
3098.423	119.5
3101.627	121.5
3104.828	127.5
3108.026	126.5
3111.222	127.5
3114.416	135.5
3117.607	131.5
3120.795	145.5
3123.98	142.5
3127.163	153.5
3130.344	149.5
3133.521	151.5
3136.696	157.5
3139.869	164.5
3143.039	163.5
3146.206	171.5
3149.371	168.5
3152.533	184.5
3155.693	174.5
3158.85	177.5
3162.005	181.5
3165.157	179.5
3168.306	174.5
3171.453	175.5
3174.597	177.5
3177.739	185.5
3180.878	179.5
3184.014	178.5
3187.149	165.5
3190.28	178.5
3193.409	182.5
3196.536	173.5
3199.659	191.5
3202.781	189.5
3205.9	180.5
3209.016	182.5
3212.13	189.5
3215.241	182.5
3218.35	174.5
3221.456	175.5
3224.56	176.5
3227.661	161.5
3230.76	161.5
3233.856	166.5
3236.95	156.5
3240.041	160.5
3243.13	159.5
3246.216	153.5
3249.3	144.5
3252.382	152.5
3255.46	151.5
3258.537	152.5
3261.611	142.5
3264.682	143.5
3267.751	138.5
3270.818	132.5
3273.882	140.5
3276.943	135.5
3280.002	139.5
3283.059	133.5
3286.113	130.5
3289.165	128.5
3292.214	132.5
3295.261	121.5
3298.306	129.5
3301.348	127.5
3304.387	126.5
3307.425	128.5
3310.459	116.5
3313.492	124.5
3316.521	127.5
3319.549	133.5
3322.574	124.5
3325.597	115.5
3328.617	124.5
3331.635	131.5
3334.65	129.5
3337.663	113.5
3340.674	123.5
3343.682	120.5
3346.688	115.5
3349.691	123.5
3352.692	121.5
3355.691	122.5
3358.687	115.5
3361.681	118.5
3364.673	114.5
3367.662	118.5
3370.649	115.5
3373.633	111.5
3376.615	108.5
3379.595	113.5
3382.572	105.5
3385.547	109.5
3388.52	99.5
3391.49	99.5
3394.458	90.5
3397.424	100.5
3400.387	99.5
3403.348	83.5
3406.307	90.5
3409.263	86.5
3412.217	85.5
3415.168	88.5
3418.118	79.5
3421.065	85.5
3424.009	76.5
3426.951	72.5
3429.891	77.5
3432.829	79.5
3435.764	76.5
3438.697	72.5
3441.628	61.5
3444.557	70.5
3447.483	61.5
3450.407	52.5
3453.328	57.5
3456.247	46.5
3459.164	42.5
3462.079	36.5
3464.991	41.5
3467.902	31.5
3470.809	34.5
3473.715	35.5
3476.618	24.5
3479.519	23.5
3482.418	24.5
3485.315	23.5
3488.209	17.5
3491.101	13.5
3493.99	24.5
3496.878	13.5
3499.763	13.5
3502.646	12.5
3505.527	12.5
3508.405	8.5
3511.281	3.5
3514.155	-0.5
3517.027	-2.5
3519.897	3.5
3522.764	-3.5
3525.629	-3.5
3528.492	-6.5
3531.352	-7.5
3534.211	-14.5
3537.067	-17.5
3539.921	-14.5
3542.773	-16.5
3545.622	-17.5
3548.469	-17.5
3551.315	-8.5
3554.157	-17.5
3556.998	-18.5
3559.837	-20.5
3562.673	-21.5
3565.507	-25.5
3568.339	-24.5
3571.169	-29.5
3573.996	-28.5
3576.822	-36.5
3579.645	-35.5
3582.466	-33.5
3585.285	-30.5
3588.101	-36.5
3590.916	-31.5
3593.728	-38.5
3596.538	-41.5
3599.346	-32.5
3602.152	-34.5
3604.956	-31.5
3607.757	-31.5
3610.556	-35.5
3613.354	-43.5
3616.149	-42.5
3618.942	-42.5
3621.732	-46.5
3624.521	-37.5
3627.307	-42.5
3630.092	-40.5
3632.874	-49.5
3635.654	-49.5
3638.432	-44.5
3641.208	-47.5
3643.982	-44.5
3646.753	-48.5
3649.523	-36.5
3652.29	-47.5
3655.055	-45.5
3657.818	-45.5
3660.579	-50.5
3663.338	-41.5
3666.095	-52.5
3668.849	-52.5
3671.602	-44.5
3674.352	-47.5
3677.101	-47.5
3679.847	-50.5
3682.591	-51.5
3685.333	-50.5
3688.073	-55.5
3690.811	-52.5
3693.547	-60.5
3696.281	-53.5
3699.013	-54.5
3701.742	-61.5
3704.47	-50.5
3707.195	-55.5
3709.919	-59.5
3712.64	-56.5
3715.359	-55.5
3718.076	-56.5
3720.792	-56.5
3723.505	-55.5
3726.216	-50.5
3728.925	-60.5
3731.632	-51.5
3734.336	-53.5
3737.039	-53.5
3739.74	-58.5
3742.439	-66.5
3745.136	-61.5
3747.83	-61.5
3750.523	-61.5
3753.213	-60.5
3755.902	-61.5
3758.589	-58.5
3761.273	-57.5
3763.956	-60.5
3766.636	-56.5
3769.315	-48.5
3771.991	-58.5
3774.665	-61.5
3777.338	-57.5
3780.008	-61.5
3782.677	-62.5
3785.343	-59.5
3788.007	-58.5
3790.67	-59.5
3793.33	-57.5
3795.989	-65.5
3798.645	-64.5
3801.299	-61.5
3803.952	-61.5
3806.602	-61.5
3809.251	-65.5
3811.897	-64.5
3814.542	-64.5
3817.184	-58.5
3819.825	-58.5
3822.463	-61.5
3825.1	-56.5
3827.735	-57.5
3830.367	-61.5
3832.998	-63.5
3835.627	-57.5
3838.253	-58.5
3840.878	-54.5
3843.501	-56.5
3846.122	-66.5
3848.741	-62.5
3851.358	-57.5
3853.973	-58.5
3856.586	-58.5
3859.197	-62.5
3861.806	-61.5
3864.414	-61.5
3867.019	-58.5
3869.622	-51.5
3872.224	-52.5
3874.823	-40.5
3877.421	-31.5
3880.016	-14.5
3882.61	1.5
3885.202	2.5
3887.792	-5.5
3890.38	-26.5
3892.966	-40.5
3895.55	-57.5
3898.132	-57.5
3900.713	-62.5
3903.291	-66.5
3905.868	-56.5
3908.442	-61.5
3911.015	-62.5
3913.586	-65.5
3916.155	-59.5
3918.722	-60.5
3921.287	-57.5
3923.85	-56.5
3926.411	-62.5
3928.971	-69.5
3931.528	-59.5
3934.084	-59.5
3936.638	-55.5
3939.19	-66.5
3941.74	-56.5
3944.288	-61.5
3946.834	-62.5
3949.378	-65.5
3951.921	-63.5
3954.462	-63.5
3957	-56.5
3959.537	-52.5
3962.072	-55.5
3964.606	-54.5
3967.137	-58.5
3969.667	-62.5
3972.194	-57.5
3974.72	-57.5
3977.244	-55.5
3979.766	-58.5
3982.286	-58.5
3984.805	-64.5
3987.321	-60.5
3989.836	-58.5
3992.349	-60.5
3994.86	-60.5
3997.369	-64.5
3999.877	-64.5
4002.382	-63.5
4004.886	-57.5
4007.388	-63.5
4009.888	-60.5
4012.386	-64.5
4014.883	-58.5
4017.377	-56.5
4019.87	-55.5
4022.361	-58.5
4024.85	-60.5
4027.338	-60.5
4029.823	-64.5
4032.307	-62.5
4034.789	-57.5
4037.269	-63.5
4039.747	-61.5
4042.224	-67.5
4044.699	-59.5
4047.172	-64.5
4049.643	-59.5
4052.112	-65.5
4054.58	-61.5
4057.046	-54.5
4059.51	-65.5
4061.972	-60.5
4064.432	-58.5
4066.891	-54.5
4069.348	-59.5
4071.803	-55.5
4074.256	-59.5
4076.708	-62.5
4079.158	-68.5
4081.606	-57.5
4084.052	-61.5
4086.497	-55.5
4088.939	-57.5
4091.38	-62.5
4093.819	-65.5
4096.257	-60.5
4098.693	-62.5
4101.127	-61.5
4103.559	-67.5
4105.989	24.5
4108.418	14.5
4110.845	10.5
4113.27	12.5
4115.694	21.5
4118.115	16.5
4120.535	-63.5
4122.954	-57.5
4125.37	-60.5
4127.785	-59.5
4130.198	-54.5
4132.609	-58.5
4135.019	-61.5
4137.427	-64.5
4139.833	-63.5
4142.237	-66.5
