Data from 2018-3-7_conc=6_n=10_RamanShift_01.txt Node
Date: Wed Mar 07 13:25:51 IST 2018
User: aro
Spectrometer: QEPB0276
Trigger mode: 0
Integration Time (sec): 3.000000E1
Scans to average: 1
Electric dark correction enabled: true
Nonlinearity correction enabled: false
Boxcar width: 0
XAxis mode: Raman Shifts
Number of Pixels in Spectrum: 1044
>>>>>Begin Spectral Data<<<<<
160.701	11.8
166.742	19.8
172.777	51.8
178.805	150.8
184.826	394.8
190.841	827.8
196.849	1381.8
202.85	1828.8
208.845	2004.8
214.833	1993.8
220.815	1951.8
226.789	1965.8
232.758	1962.8
238.719	1954.8
244.674	1945.8
250.623	1929.8
256.565	1897.8
262.5	1871.8
268.429	1841.8
274.351	1827.8
280.267	1808.8
286.176	1808.8
292.079	1812.8
297.975	1810.8
303.865	1791.8
309.748	1792.8
315.625	1797.8
321.495	1778.8
327.359	1783.8
333.217	1772.8
339.068	1791.8
344.912	1776.8
350.751	1784.8
356.583	1784.8
362.408	1795.8
368.227	1789.8
374.04	1789.8
379.847	1803.8
385.647	1812.8
391.44	1789.8
397.228	1820.8
403.009	1829.8
408.784	1834.8
414.553	1860.8
420.315	1850.8
426.071	1852.8
431.821	1843.8
437.565	1851.8
443.302	1851.8
449.033	1825.8
454.758	1840.8
460.477	1810.8
466.189	1818.8
471.896	1801.8
477.596	1792.8
483.29	1775.8
488.978	1773.8
494.66	1787.8
500.335	1741.8
506.005	1684.8
511.668	1645.8
517.325	1574.8
522.977	1540.8
528.622	1526.8
534.261	1500.8
539.894	1481.8
545.521	1464.8
551.141	1459.8
556.756	1431.8
562.365	1423.8
567.968	1432.8
573.565	1403.8
579.155	1401.8
584.74	1401.8
590.319	1385.8
595.892	1408.8
601.459	1380.8
607.02	1380.8
612.575	1368.8
618.124	1357.8
623.667	1353.8
629.204	1317.8
634.735	1323.8
640.261	1304.8
645.781	1302.8
651.294	1296.8
656.802	1286.8
662.304	1303.8
667.8	1289.8
673.29	1289.8
678.775	1288.8
684.254	1272.8
689.726	1274.8
695.193	1270.8
700.655	1255.8
706.11	1243.8
711.56	1236.8
717.004	1225.8
722.442	1226.8
727.874	1221.8
733.301	1221.8
738.722	1236.8
744.137	1217.8
749.547	1224.8
754.951	1213.8
760.349	1216.8
765.741	1221.8
771.128	1205.8
776.509	1245.8
781.885	1236.8
787.254	1228.8
792.618	1244.8
797.977	1213.8
803.33	1210.8
808.677	1215.8
814.019	1213.8
819.355	1197.8
824.686	1183.8
830.011	1183.8
835.33	1176.8
840.644	1169.8
845.952	1173.8
851.255	1158.8
856.552	1184.8
861.844	1159.8
867.13	1145.8
872.41	1140.8
877.686	1145.8
882.955	1135.8
888.219	1119.8
893.478	1105.8
898.731	1088.8
903.979	1076.8
909.221	1071.8
914.458	1065.8
919.69	1080.8
924.916	1056.8
930.136	1059.8
935.351	1067.8
940.561	1070.8
945.766	1075.8
950.965	1068.8
956.158	1056.8
961.347	1030.8
966.529	1036.8
971.707	997.8
976.879	1006.8
982.046	993.8
987.208	987.8
992.364	992.8
997.515	981.8
1002.66	987.8
1007.801	1000.8
1012.936	1007.8
1018.066	1027.8
1023.19	1030.8
1028.309	1015.8
1033.423	1021.8
1038.532	1000.8
1043.636	994.8
1048.734	981.8
1053.827	982.8
1058.915	969.8
1063.998	966.8
1069.075	951.8
1074.147	956.8
1079.214	955.8
1084.276	974.8
1089.333	972.8
1094.385	976.8
1099.431	964.8
1104.472	965.8
1109.509	954.8
1114.54	940.8
1119.565	938.8
1124.586	917.8
1129.602	902.8
1134.613	900.8
1139.618	895.8
1144.619	898.8
1149.614	904.8
1154.604	897.8
1159.589	897.8
1164.57	908.8
1169.545	904.8
1174.515	921.8
1179.48	909.8
1184.44	903.8
1189.395	894.8
1194.345	879.8
1199.29	881.8
1204.23	882.8
1209.165	874.8
1214.095	880.8
1219.021	878.8
1223.941	890.8
1228.856	889.8
1233.766	902.8
1238.672	898.8
1243.572	889.8
1248.467	894.8
1253.358	884.8
1258.244	870.8
1263.124	861.8
1268	835.8
1272.871	828.8
1277.737	824.8
1282.599	838.8
1287.455	828.8
1292.306	813.8
1297.153	824.8
1301.995	833.8
1306.832	833.8
1311.664	837.8
1316.491	838.8
1321.314	829.8
1326.132	829.8
1330.945	820.8
1335.753	800.8
1340.556	789.8
1345.354	771.8
1350.148	750.8
1354.937	749.8
1359.722	731.8
1364.501	719.8
1369.276	704.8
1374.046	682.8
1378.811	678.8
1383.572	687.8
1388.327	661.8
1393.079	671.8
1397.825	674.8
1402.567	683.8
1407.304	693.8
1412.036	697.8
1416.764	690.8
1421.487	698.8
1426.205	681.8
1430.919	680.8
1435.628	700.8
1440.333	702.8
1445.032	708.8
1449.727	719.8
1454.418	718.8
1459.104	715.8
1463.785	701.8
1468.462	692.8
1473.134	678.8
1477.802	656.8
1482.465	642.8
1487.123	620.8
1491.777	605.8
1496.426	600.8
1501.071	605.8
1505.711	584.8
1510.347	576.8
1514.978	577.8
1519.604	582.8
1524.226	566.8
1528.844	572.8
1533.457	559.8
1538.065	558.8
1542.669	564.8
1547.269	557.8
1551.864	571.8
1556.454	591.8
1561.041	580.8
1565.622	594.8
1570.199	592.8
1574.772	595.8
1579.34	613.8
1583.904	621.8
1588.464	632.8
1593.019	632.8
1597.569	629.8
1602.115	615.8
1606.657	635.8
1611.195	620.8
1615.728	623.8
1620.256	625.8
1624.78	609.8
1629.3	620.8
1633.816	619.8
1638.327	629.8
1642.834	617.8
1647.336	614.8
1651.834	632.8
1656.328	623.8
1660.817	623.8
1665.302	623.8
1669.783	595.8
1674.259	579.8
1678.732	575.8
1683.199	557.8
1687.663	535.8
1692.122	492.8
1696.577	480.8
1701.028	457.8
1705.474	427.8
1709.917	415.8
1714.355	410.8
1718.788	404.8
1723.218	404.8
1727.643	413.8
1732.064	416.8
1736.481	403.8
1740.893	393.8
1745.301	392.8
1749.705	388.8
1754.105	380.8
1758.501	366.8
1762.893	364.8
1767.28	346.8
1771.663	342.8
1776.042	350.8
1780.417	346.8
1784.787	339.8
1789.154	315.8
1793.516	315.8
1797.874	308.8
1802.228	305.8
1806.578	298.8
1810.924	294.8
1815.266	278.8
1819.603	291.8
1823.937	299.8
1828.266	294.8
1832.591	311.8
1836.913	300.8
1841.23	311.8
1845.543	307.8
1849.852	308.8
1854.156	310.8
1858.457	309.8
1862.754	310.8
1867.047	312.8
1871.335	316.8
1875.62	309.8
1879.9	316.8
1884.177	298.8
1888.449	306.8
1892.718	301.8
1896.982	285.8
1901.243	277.8
1905.499	280.8
1909.752	269.8
1914	264.8
1918.245	257.8
1922.485	250.8
1926.722	256.8
1930.954	248.8
1935.183	257.8
1939.408	253.8
1943.628	245.8
1947.845	239.8
1952.058	234.8
1956.267	231.8
1960.472	227.8
1964.673	221.8
1968.87	227.8
1973.063	234.8
1977.252	233.8
1981.438	234.8
1985.619	227.8
1989.797	233.8
1993.971	239.8
1998.14	238.8
2002.306	250.8
2006.469	247.8
2010.627	243.8
2014.781	235.8
2018.932	239.8
2023.078	243.8
2027.221	237.8
2031.36	232.8
2035.495	227.8
2039.627	226.8
2043.754	222.8
2047.878	220.8
2051.998	221.8
2056.114	209.8
2060.226	208.8
2064.334	221.8
2068.439	214.8
2072.54	217.8
2076.637	220.8
2080.73	213.8
2084.82	210.8
2088.906	212.8
2092.988	202.8
2097.066	200.8
2101.14	196.8
2105.211	195.8
2109.278	189.8
2113.342	182.8
2117.401	185.8
2121.457	175.8
2125.509	182.8
2129.558	179.8
2133.602	177.8
2137.643	184.8
2141.681	178.8
2145.714	174.8
2149.744	189.8
2153.77	190.8
2157.793	185.8
2161.812	191.8
2165.827	186.8
2169.838	183.8
2173.846	183.8
2177.851	175.8
2181.851	178.8
2185.848	173.8
2189.841	175.8
2193.831	174.8
2197.817	168.8
2201.799	172.8
2205.778	179.8
2209.753	174.8
2213.725	168.8
2217.693	166.8
2221.657	163.8
2225.618	167.8
2229.575	166.8
2233.529	165.8
2237.479	169.8
2241.425	151.8
2245.368	160.8
2249.307	160.8
2253.243	148.8
2257.175	152.8
2261.104	143.8
2265.029	151.8
2268.95	154.8
2272.868	146.8
2276.783	145.8
2280.694	141.8
2284.601	137.8
2288.505	143.8
2292.405	145.8
2296.302	137.8
2300.195	130.8
2304.085	129.8
2307.971	127.8
2311.854	129.8
2315.734	120.8
2319.609	130.8
2323.482	124.8
2327.351	132.8
2331.216	127.8
2335.078	144.8
2338.937	136.8
2342.792	123.8
2346.643	127.8
2350.492	136.8
2354.336	130.8
2358.178	119.8
2362.015	126.8
2365.85	126.8
2369.681	134.8
2373.508	133.8
2377.333	128.8
2381.153	130.8
2384.971	128.8
2388.785	128.8
2392.595	125.8
2396.402	127.8
2400.206	134.8
2404.007	127.8
2407.804	125.8
2411.597	120.8
2415.388	123.8
2419.174	126.8
2422.958	120.8
2426.738	123.8
2430.515	116.8
2434.289	118.8
2438.059	111.8
2441.825	105.8
2445.589	113.8
2449.349	115.8
2453.106	117.8
2456.859	112.8
2460.61	112.8
2464.356	107.8
2468.1	110.8
2471.84	107.8
2475.577	104.8
2479.311	100.8
2483.041	107.8
2486.768	106.8
2490.492	101.8
2494.213	97.8
2497.93	102.8
2501.644	103.8
2505.355	89.8
2509.062	92.8
2512.766	95.8
2516.467	92.8
2520.165	91.8
2523.859	92.8
2527.551	88.8
2531.239	84.8
2534.923	82.8
2538.605	86.8
2542.283	81.8
2545.958	81.8
2549.63	77.8
2553.299	85.8
2556.964	76.8
2560.626	82.8
2564.285	71.8
2567.941	70.8
2571.594	71.8
2575.243	73.8
2578.89	71.8
2582.533	61.8
2586.173	66.8
2589.809	70.8
2593.443	66.8
2597.073	64.8
2600.701	68.8
2604.325	65.8
2607.946	54.8
2611.564	66.8
2615.178	64.8
2618.79	66.8
2622.398	64.8
2626.004	60.8
2629.606	60.8
2633.205	60.8
2636.801	64.8
2640.394	66.8
2643.983	54.8
2647.57	61.8
2651.153	54.8
2654.734	62.8
2658.311	59.8
2661.885	54.8
2665.456	61.8
2669.025	62.8
2672.589	49.8
2676.151	51.8
2679.71	49.8
2683.266	51.8
2686.819	47.8
2690.368	52.8
2693.915	53.8
2697.458	42.8
2700.999	53.8
2704.536	53.8
2708.071	50.8
2711.602	43.8
2715.13	38.8
2718.656	41.8
2722.178	39.8
2725.697	34.8
2729.214	38.8
2732.727	46.8
2736.237	42.8
2739.744	33.8
2743.249	27.8
2746.75	30.8
2750.248	31.8
2753.743	26.8
2757.236	27.8
2760.725	29.8
2764.211	27.8
2767.695	23.8
2771.175	22.8
2774.652	25.8
2778.127	22.8
2781.598	24.8
2785.067	23.8
2788.532	30.8
2791.995	26.8
2795.455	31.8
2798.911	24.8
2802.365	31.8
2805.816	28.8
2809.264	26.8
2812.709	20.8
2816.151	29.8
2819.59	31.8
2823.026	28.8
2826.46	24.8
2829.89	29.8
2833.318	25.8
2836.742	29.8
2840.164	21.8
2843.583	27.8
2846.999	34.8
2850.412	23.8
2853.822	27.8
2857.229	32.8
2860.634	22.8
2864.035	36.8
2867.434	36.8
2870.83	39.8
2874.223	42.8
2877.613	42.8
2881	38.8
2884.385	42.8
2887.766	35.8
2891.145	38.8
2894.521	43.8
2897.894	37.8
2901.264	38.8
2904.631	37.8
2907.996	36.8
2911.358	52.8
2914.717	47.8
2918.073	45.8
2921.426	42.8
2924.777	55.8
2928.124	42.8
2931.469	58.8
2934.811	57.8
2938.15	57.8
2941.487	61.8
2944.821	63.8
2948.152	67.8
2951.48	58.8
2954.805	55.8
2958.128	59.8
2961.447	58.8
2964.765	52.8
2968.079	47.8
2971.39	49.8
2974.699	51.8
2978.005	56.8
2981.308	52.8
2984.609	44.8
2987.907	56.8
2991.202	52.8
2994.494	53.8
2997.784	53.8
3001.07	53.8
3004.355	56.8
3007.636	52.8
3010.915	61.8
3014.191	51.8
3017.464	57.8
3020.734	60.8
3024.002	67.8
3027.267	63.8
3030.53	64.8
3033.789	67.8
3037.046	62.8
3040.301	68.8
3043.552	74.8
3046.801	84.8
3050.048	80.8
3053.291	75.8
3056.532	81.8
3059.771	84.8
3063.006	89.8
3066.239	96.8
3069.469	108.8
3072.697	101.8
3075.922	114.8
3079.144	110.8
3082.364	109.8
3085.581	112.8
3088.795	123.8
3092.007	128.8
3095.216	128.8
3098.423	124.8
3101.627	122.8
3104.828	136.8
3108.026	139.8
3111.222	138.8
3114.416	145.8
3117.607	148.8
3120.795	153.8
3123.98	151.8
3127.163	162.8
3130.344	164.8
3133.521	158.8
3136.696	166.8
3139.869	177.8
3143.039	172.8
3146.206	173.8
3149.371	186.8
3152.533	190.8
3155.693	189.8
3158.85	181.8
3162.005	183.8
3165.157	187.8
3168.306	184.8
3171.453	184.8
3174.597	186.8
3177.739	186.8
3180.878	195.8
3184.014	179.8
3187.149	181.8
3190.28	191.8
3193.409	195.8
3196.536	190.8
3199.659	198.8
3202.781	195.8
3205.9	200.8
3209.016	194.8
3212.13	198.8
3215.241	188.8
3218.35	187.8
3221.456	195.8
3224.56	182.8
3227.661	181.8
3230.76	177.8
3233.856	169.8
3236.95	171.8
3240.041	166.8
3243.13	163.8
3246.216	161.8
3249.3	157.8
3252.382	155.8
3255.46	162.8
3258.537	149.8
3261.611	148.8
3264.682	150.8
3267.751	150.8
3270.818	139.8
3273.882	156.8
3276.943	144.8
3280.002	143.8
3283.059	150.8
3286.113	143.8
3289.165	134.8
3292.214	145.8
3295.261	139.8
3298.306	146.8
3301.348	135.8
3304.387	131.8
3307.425	138.8
3310.459	120.8
3313.492	135.8
3316.521	134.8
3319.549	138.8
3322.574	130.8
3325.597	137.8
3328.617	124.8
3331.635	137.8
3334.65	135.8
3337.663	121.8
3340.674	133.8
3343.682	127.8
3346.688	129.8
3349.691	132.8
3352.692	130.8
3355.691	139.8
3358.687	126.8
3361.681	131.8
3364.673	129.8
3367.662	133.8
3370.649	122.8
3373.633	120.8
3376.615	120.8
3379.595	118.8
3382.572	112.8
3385.547	119.8
3388.52	107.8
3391.49	110.8
3394.458	103.8
3397.424	109.8
3400.387	104.8
3403.348	100.8
3406.307	96.8
3409.263	96.8
3412.217	99.8
3415.168	102.8
3418.118	89.8
3421.065	91.8
3424.009	88.8
3426.951	86.8
3429.891	93.8
3432.829	80.8
3435.764	86.8
3438.697	83.8
3441.628	69.8
3444.557	68.8
3447.483	72.8
3450.407	60.8
3453.328	67.8
3456.247	66.8
3459.164	53.8
3462.079	48.8
3464.991	50.8
3467.902	47.8
3470.809	42.8
3473.715	41.8
3476.618	34.8
3479.519	33.8
3482.418	32.8
3485.315	29.8
3488.209	21.8
3491.101	18.8
3493.99	28.8
3496.878	22.8
3499.763	14.8
3502.646	18.8
3505.527	25.8
3508.405	15.8
3511.281	16.8
3514.155	7.8
3517.027	4.8
3519.897	9.8
3522.764	8.8
3525.629	0.8
3528.492	1.8
3531.352	-2.2
3534.211	-9.2
3537.067	-11.2
3539.921	-7.2
3542.773	-19.2
3545.622	-10.2
3548.469	-10.2
3551.315	-12.2
3554.157	-17.2
3556.998	-13.2
3559.837	-19.2
3562.673	-15.2
3565.507	-20.2
3568.339	-14.2
3571.169	-24.2
3573.996	-14.2
3576.822	-25.2
3579.645	-25.2
3582.466	-27.2
3585.285	-25.2
3588.101	-24.2
3590.916	-25.2
3593.728	-32.2
3596.538	-30.2
3599.346	-33.2
3602.152	-30.2
3604.956	-28.2
3607.757	-27.2
3610.556	-37.2
3613.354	-38.2
3616.149	-40.2
3618.942	-36.2
3621.732	-39.2
3624.521	-33.2
3627.307	-40.2
3630.092	-39.2
3632.874	-43.2
3635.654	-38.2
3638.432	-33.2
3641.208	-40.2
3643.982	-32.2
3646.753	-40.2
3649.523	-38.2
3652.29	-48.2
3655.055	-41.2
3657.818	-45.2
3660.579	-45.2
3663.338	-33.2
3666.095	-44.2
3668.849	-47.2
3671.602	-48.2
3674.352	-47.2
3677.101	-48.2
3679.847	-48.2
3682.591	-54.2
3685.333	-46.2
3688.073	-51.2
3690.811	-48.2
3693.547	-53.2
3696.281	-46.2
3699.013	-49.2
3701.742	-53.2
3704.47	-48.2
3707.195	-51.2
3709.919	-41.2
3712.64	-49.2
3715.359	-46.2
3718.076	-51.2
3720.792	-49.2
3723.505	-53.2
3726.216	-45.2
3728.925	-52.2
3731.632	-47.2
3734.336	-52.2
3737.039	-52.2
3739.74	-58.2
3742.439	-59.2
3745.136	-56.2
3747.83	-58.2
3750.523	-59.2
3753.213	-50.2
3755.902	-54.2
3758.589	-52.2
3761.273	-51.2
3763.956	-58.2
3766.636	-48.2
3769.315	-47.2
3771.991	-53.2
3774.665	-56.2
3777.338	-55.2
3780.008	-56.2
3782.677	-57.2
3785.343	-52.2
3788.007	-55.2
3790.67	-53.2
3793.33	-55.2
3795.989	-57.2
3798.645	-59.2
3801.299	-54.2
3803.952	-59.2
3806.602	-53.2
3809.251	-57.2
3811.897	-57.2
3814.542	-60.2
3817.184	-54.2
3819.825	-52.2
3822.463	-57.2
3825.1	-50.2
3827.735	-59.2
3830.367	-53.2
3832.998	-59.2
3835.627	-54.2
3838.253	-49.2
3840.878	-50.2
3843.501	-53.2
3846.122	-58.2
3848.741	-53.2
3851.358	-53.2
3853.973	-52.2
3856.586	-53.2
3859.197	-56.2
3861.806	-56.2
3864.414	-60.2
3867.019	-60.2
3869.622	-50.2
3872.224	-44.2
3874.823	-35.2
3877.421	-27.2
3880.016	-14.2
3882.61	3.8
3885.202	3.8
3887.792	4.8
3890.38	-18.2
3892.966	-39.2
3895.55	-44.2
3898.132	-54.2
3900.713	-58.2
3903.291	-57.2
3905.868	-53.2
3908.442	-55.2
3911.015	-50.2
3913.586	-60.2
3916.155	-60.2
3918.722	-64.2
3921.287	-61.2
3923.85	-48.2
3926.411	-61.2
3928.971	-71.2
3931.528	-60.2
3934.084	-55.2
3936.638	-56.2
3939.19	-61.2
3941.74	-50.2
3944.288	-53.2
3946.834	-52.2
3949.378	-57.2
3951.921	-60.2
3954.462	-57.2
3957	-46.2
3959.537	-47.2
3962.072	-50.2
3964.606	-54.2
3967.137	-56.2
3969.667	-63.2
3972.194	-59.2
3974.72	-51.2
3977.244	-50.2
3979.766	-54.2
3982.286	-62.2
3984.805	-64.2
3987.321	-52.2
3989.836	-51.2
3992.349	-52.2
3994.86	-59.2
3997.369	-55.2
3999.877	-58.2
4002.382	-56.2
4004.886	-57.2
4007.388	-55.2
4009.888	-55.2
4012.386	-58.2
4014.883	-54.2
4017.377	-52.2
4019.87	-51.2
4022.361	-58.2
4024.85	-53.2
4027.338	-62.2
4029.823	-57.2
4032.307	-60.2
4034.789	-55.2
4037.269	-54.2
4039.747	-56.2
4042.224	-54.2
4044.699	-59.2
4047.172	-58.2
4049.643	-59.2
4052.112	-56.2
4054.58	-52.2
4057.046	-49.2
4059.51	-58.2
4061.972	-59.2
4064.432	-53.2
4066.891	-52.2
4069.348	-51.2
4071.803	-48.2
4074.256	-56.2
4076.708	-55.2
4079.158	-56.2
4081.606	-57.2
4084.052	-57.2
4086.497	-51.2
4088.939	-52.2
4091.38	-59.2
4093.819	-57.2
4096.257	-58.2
4098.693	-58.2
4101.127	-53.2
4103.559	-60.2
4105.989	9.8
4108.418	2.8
4110.845	-2.2
4113.27	7.8
4115.694	9.8
4118.115	10.8
4120.535	-55.2
4122.954	-52.2
4125.37	-53.2
4127.785	-53.2
4130.198	-52.2
4132.609	-57.2
4135.019	-58.2
4137.427	-60.2
4139.833	-56.2
4142.237	-59.2
