Data from 2018-3-7_conc=6_n=7_RamanShift_02.txt Node
Date: Wed Mar 07 13:16:22 IST 2018
User: aro
Spectrometer: QEPB0276
Trigger mode: 0
Integration Time (sec): 3.000000E1
Scans to average: 1
Electric dark correction enabled: true
Nonlinearity correction enabled: false
Boxcar width: 0
XAxis mode: Raman Shifts
Number of Pixels in Spectrum: 1044
>>>>>Begin Spectral Data<<<<<
160.701	4.6
166.742	22.6
172.777	48.6
178.805	148.6
184.826	385.6
190.841	839.6
196.849	1418.6
202.85	1866.6
208.845	2018.6
214.833	2046.6
220.815	2006.6
226.789	2011.6
232.758	2020.6
238.719	2002.6
244.674	1991.6
250.623	1984.6
256.565	1965.6
262.5	1913.6
268.429	1896.6
274.351	1893.6
280.267	1868.6
286.176	1856.6
292.079	1856.6
297.975	1844.6
303.865	1846.6
309.748	1843.6
315.625	1823.6
321.495	1833.6
327.359	1848.6
333.217	1840.6
339.068	1842.6
344.912	1835.6
350.751	1836.6
356.583	1841.6
362.408	1853.6
368.227	1850.6
374.04	1846.6
379.847	1857.6
385.647	1862.6
391.44	1875.6
397.228	1879.6
403.009	1898.6
408.784	1881.6
414.553	1900.6
420.315	1921.6
426.071	1893.6
431.821	1916.6
437.565	1897.6
443.302	1896.6
449.033	1896.6
454.758	1893.6
460.477	1872.6
466.189	1857.6
471.896	1845.6
477.596	1849.6
483.29	1845.6
488.978	1844.6
494.66	1815.6
500.335	1793.6
506.005	1735.6
511.668	1681.6
517.325	1634.6
522.977	1602.6
528.622	1578.6
534.261	1563.6
539.894	1523.6
545.521	1514.6
551.141	1505.6
556.756	1492.6
562.365	1494.6
567.968	1493.6
573.565	1461.6
579.155	1454.6
584.74	1467.6
590.319	1439.6
595.892	1445.6
601.459	1419.6
607.02	1423.6
612.575	1412.6
618.124	1403.6
623.667	1385.6
629.204	1383.6
634.735	1381.6
640.261	1371.6
645.781	1362.6
651.294	1352.6
656.802	1349.6
662.304	1339.6
667.8	1346.6
673.29	1353.6
678.775	1334.6
684.254	1331.6
689.726	1331.6
695.193	1321.6
700.655	1312.6
706.11	1308.6
711.56	1295.6
717.004	1296.6
722.442	1268.6
727.874	1281.6
733.301	1254.6
738.722	1267.6
744.137	1264.6
749.547	1259.6
754.951	1266.6
760.349	1259.6
765.741	1259.6
771.128	1271.6
776.509	1266.6
781.885	1290.6
787.254	1291.6
792.618	1295.6
797.977	1280.6
803.33	1255.6
808.677	1263.6
814.019	1251.6
819.355	1243.6
824.686	1243.6
830.011	1229.6
835.33	1232.6
840.644	1234.6
845.952	1211.6
851.255	1219.6
856.552	1210.6
861.844	1204.6
867.13	1194.6
872.41	1200.6
877.686	1185.6
882.955	1187.6
888.219	1165.6
893.478	1143.6
898.731	1139.6
903.979	1123.6
909.221	1124.6
914.458	1101.6
919.69	1112.6
924.916	1104.6
930.136	1115.6
935.351	1105.6
940.561	1113.6
945.766	1112.6
950.965	1111.6
956.158	1092.6
961.347	1084.6
966.529	1063.6
971.707	1044.6
976.879	1027.6
982.046	1033.6
987.208	1039.6
992.364	1031.6
997.515	1033.6
1002.66	1033.6
1007.801	1045.6
1012.936	1067.6
1018.066	1065.6
1023.19	1056.6
1028.309	1066.6
1033.423	1058.6
1038.532	1050.6
1043.636	1053.6
1048.734	1029.6
1053.827	1016.6
1058.915	1010.6
1063.998	1005.6
1069.075	983.6
1074.147	992.6
1079.214	1001.6
1084.276	1006.6
1089.333	1024.6
1094.385	1011.6
1099.431	1007.6
1104.472	1010.6
1109.509	999.6
1114.54	974.6
1119.565	984.6
1124.586	966.6
1129.602	954.6
1134.613	948.6
1139.618	942.6
1144.619	931.6
1149.614	950.6
1154.604	927.6
1159.589	947.6
1164.57	961.6
1169.545	945.6
1174.515	930.6
1179.48	937.6
1184.44	939.6
1189.395	927.6
1194.345	908.6
1199.29	903.6
1204.23	920.6
1209.165	921.6
1214.095	924.6
1219.021	925.6
1223.941	931.6
1228.856	934.6
1233.766	929.6
1238.672	927.6
1243.572	928.6
1248.467	930.6
1253.358	915.6
1258.244	904.6
1263.124	888.6
1268	875.6
1272.871	859.6
1277.737	855.6
1282.599	862.6
1287.455	851.6
1292.306	851.6
1297.153	852.6
1301.995	870.6
1306.832	877.6
1311.664	859.6
1316.491	877.6
1321.314	880.6
1326.132	866.6
1330.945	855.6
1335.753	845.6
1340.556	832.6
1345.354	819.6
1350.148	795.6
1354.937	771.6
1359.722	752.6
1364.501	737.6
1369.276	729.6
1374.046	702.6
1378.811	717.6
1383.572	710.6
1388.327	694.6
1393.079	694.6
1397.825	704.6
1402.567	713.6
1407.304	716.6
1412.036	722.6
1416.764	728.6
1421.487	718.6
1426.205	715.6
1430.919	710.6
1435.628	726.6
1440.333	744.6
1445.032	726.6
1449.727	746.6
1454.418	732.6
1459.104	747.6
1463.785	730.6
1468.462	717.6
1473.134	699.6
1477.802	677.6
1482.465	664.6
1487.123	654.6
1491.777	639.6
1496.426	636.6
1501.071	627.6
1505.711	621.6
1510.347	611.6
1514.978	608.6
1519.604	601.6
1524.226	600.6
1528.844	599.6
1533.457	587.6
1538.065	581.6
1542.669	575.6
1547.269	586.6
1551.864	586.6
1556.454	596.6
1561.041	617.6
1565.622	615.6
1570.199	619.6
1574.772	611.6
1579.34	640.6
1583.904	640.6
1588.464	651.6
1593.019	647.6
1597.569	662.6
1602.115	660.6
1606.657	641.6
1611.195	649.6
1615.728	642.6
1620.256	624.6
1624.78	637.6
1629.3	638.6
1633.816	640.6
1638.327	650.6
1642.834	655.6
1647.336	642.6
1651.834	645.6
1656.328	648.6
1660.817	643.6
1665.302	628.6
1669.783	621.6
1674.259	605.6
1678.732	595.6
1683.199	575.6
1687.663	554.6
1692.122	533.6
1696.577	498.6
1701.028	468.6
1705.474	447.6
1709.917	440.6
1714.355	429.6
1718.788	425.6
1723.218	424.6
1727.643	427.6
1732.064	426.6
1736.481	435.6
1740.893	407.6
1745.301	406.6
1749.705	408.6
1754.105	391.6
1758.501	376.6
1762.893	366.6
1767.28	363.6
1771.663	359.6
1776.042	359.6
1780.417	359.6
1784.787	349.6
1789.154	340.6
1793.516	327.6
1797.874	328.6
1802.228	323.6
1806.578	314.6
1810.924	300.6
1815.266	311.6
1819.603	301.6
1823.937	322.6
1828.266	310.6
1832.591	323.6
1836.913	318.6
1841.23	323.6
1845.543	314.6
1849.852	325.6
1854.156	325.6
1858.457	325.6
1862.754	330.6
1867.047	322.6
1871.335	327.6
1875.62	324.6
1879.9	332.6
1884.177	320.6
1888.449	309.6
1892.718	320.6
1896.982	305.6
1901.243	298.6
1905.499	299.6
1909.752	286.6
1914	282.6
1918.245	281.6
1922.485	258.6
1926.722	259.6
1930.954	257.6
1935.183	263.6
1939.408	259.6
1943.628	260.6
1947.845	252.6
1952.058	239.6
1956.267	237.6
1960.472	252.6
1964.673	231.6
1968.87	239.6
1973.063	241.6
1977.252	243.6
1981.438	241.6
1985.619	241.6
1989.797	240.6
1993.971	245.6
1998.14	253.6
2002.306	251.6
2006.469	258.6
2010.627	251.6
2014.781	248.6
2018.932	250.6
2023.078	246.6
2027.221	244.6
2031.36	252.6
2035.495	234.6
2039.627	233.6
2043.754	227.6
2047.878	229.6
2051.998	236.6
2056.114	228.6
2060.226	220.6
2064.334	222.6
2068.439	222.6
2072.54	223.6
2076.637	227.6
2080.73	215.6
2084.82	215.6
2088.906	214.6
2092.988	208.6
2097.066	206.6
2101.14	207.6
2105.211	209.6
2109.278	211.6
2113.342	186.6
2117.401	194.6
2121.457	181.6
2125.509	190.6
2129.558	191.6
2133.602	186.6
2137.643	190.6
2141.681	189.6
2145.714	193.6
2149.744	194.6
2153.77	186.6
2157.793	199.6
2161.812	197.6
2165.827	202.6
2169.838	189.6
2173.846	195.6
2177.851	194.6
2181.851	181.6
2185.848	178.6
2189.841	178.6
2193.831	187.6
2197.817	179.6
2201.799	178.6
2205.778	184.6
2209.753	185.6
2213.725	179.6
2217.693	184.6
2221.657	178.6
2225.618	171.6
2229.575	172.6
2233.529	170.6
2237.479	178.6
2241.425	166.6
2245.368	172.6
2249.307	170.6
2253.243	158.6
2257.175	156.6
2261.104	158.6
2265.029	156.6
2268.95	157.6
2272.868	156.6
2276.783	154.6
2280.694	141.6
2284.601	145.6
2288.505	145.6
2292.405	148.6
2296.302	154.6
2300.195	141.6
2304.085	133.6
2307.971	130.6
2311.854	137.6
2315.734	133.6
2319.609	137.6
2323.482	139.6
2327.351	141.6
2331.216	146.6
2335.078	148.6
2338.937	145.6
2342.792	142.6
2346.643	143.6
2350.492	146.6
2354.336	137.6
2358.178	132.6
2362.015	139.6
2365.85	133.6
2369.681	144.6
2373.508	143.6
2377.333	140.6
2381.153	136.6
2384.971	134.6
2388.785	132.6
2392.595	139.6
2396.402	129.6
2400.206	133.6
2404.007	128.6
2407.804	137.6
2411.597	128.6
2415.388	127.6
2419.174	141.6
2422.958	128.6
2426.738	137.6
2430.515	131.6
2434.289	137.6
2438.059	124.6
2441.825	120.6
2445.589	122.6
2449.349	123.6
2453.106	136.6
2456.859	117.6
2460.61	118.6
2464.356	117.6
2468.1	115.6
2471.84	110.6
2475.577	116.6
2479.311	110.6
2483.041	110.6
2486.768	105.6
2490.492	110.6
2494.213	112.6
2497.93	108.6
2501.644	115.6
2505.355	109.6
2509.062	104.6
2512.766	110.6
2516.467	97.6
2520.165	104.6
2523.859	107.6
2527.551	95.6
2531.239	86.6
2534.923	93.6
2538.605	86.6
2542.283	86.6
2545.958	86.6
2549.63	84.6
2553.299	85.6
2556.964	77.6
2560.626	83.6
2564.285	84.6
2567.941	79.6
2571.594	81.6
2575.243	83.6
2578.89	85.6
2582.533	80.6
2586.173	73.6
2589.809	81.6
2593.443	85.6
2597.073	80.6
2600.701	81.6
2604.325	66.6
2607.946	59.6
2611.564	67.6
2615.178	73.6
2618.79	73.6
2622.398	70.6
2626.004	68.6
2629.606	66.6
2633.205	75.6
2636.801	65.6
2640.394	71.6
2643.983	60.6
2647.57	61.6
2651.153	63.6
2654.734	70.6
2658.311	63.6
2661.885	63.6
2665.456	65.6
2669.025	72.6
2672.589	58.6
2676.151	58.6
2679.71	52.6
2683.266	60.6
2686.819	63.6
2690.368	57.6
2693.915	56.6
2697.458	49.6
2700.999	62.6
2704.536	55.6
2708.071	59.6
2711.602	47.6
2715.13	40.6
2718.656	45.6
2722.178	50.6
2725.697	47.6
2729.214	42.6
2732.727	53.6
2736.237	51.6
2739.744	39.6
2743.249	45.6
2746.75	39.6
2750.248	36.6
2753.743	33.6
2757.236	40.6
2760.725	34.6
2764.211	29.6
2767.695	27.6
2771.175	26.6
2774.652	30.6
2778.127	28.6
2781.598	22.6
2785.067	23.6
2788.532	23.6
2791.995	34.6
2795.455	29.6
2798.911	28.6
2802.365	32.6
2805.816	34.6
2809.264	36.6
2812.709	28.6
2816.151	39.6
2819.59	46.6
2823.026	31.6
2826.46	39.6
2829.89	34.6
2833.318	34.6
2836.742	42.6
2840.164	39.6
2843.583	34.6
2846.999	40.6
2850.412	32.6
2853.822	32.6
2857.229	35.6
2860.634	29.6
2864.035	31.6
2867.434	35.6
2870.83	45.6
2874.223	40.6
2877.613	44.6
2881	44.6
2884.385	52.6
2887.766	51.6
2891.145	46.6
2894.521	50.6
2897.894	46.6
2901.264	44.6
2904.631	43.6
2907.996	49.6
2911.358	54.6
2914.717	50.6
2918.073	48.6
2921.426	49.6
2924.777	54.6
2928.124	52.6
2931.469	58.6
2934.811	67.6
2938.15	59.6
2941.487	70.6
2944.821	59.6
2948.152	69.6
2951.48	60.6
2954.805	68.6
2958.128	60.6
2961.447	61.6
2964.765	60.6
2968.079	53.6
2971.39	62.6
2974.699	54.6
2978.005	64.6
2981.308	55.6
2984.609	57.6
2987.907	60.6
2991.202	57.6
2994.494	57.6
2997.784	59.6
3001.07	58.6
3004.355	50.6
3007.636	70.6
3010.915	64.6
3014.191	62.6
3017.464	62.6
3020.734	61.6
3024.002	64.6
3027.267	63.6
3030.53	66.6
3033.789	68.6
3037.046	68.6
3040.301	76.6
3043.552	78.6
3046.801	84.6
3050.048	81.6
3053.291	80.6
3056.532	89.6
3059.771	92.6
3063.006	94.6
3066.239	105.6
3069.469	112.6
3072.697	106.6
3075.922	121.6
3079.144	111.6
3082.364	112.6
3085.581	117.6
3088.795	119.6
3092.007	126.6
3095.216	125.6
3098.423	131.6
3101.627	129.6
3104.828	137.6
3108.026	139.6
3111.222	145.6
3114.416	151.6
3117.607	150.6
3120.795	150.6
3123.98	160.6
3127.163	168.6
3130.344	165.6
3133.521	164.6
3136.696	175.6
3139.869	181.6
3143.039	178.6
3146.206	179.6
3149.371	184.6
3152.533	188.6
3155.693	191.6
3158.85	188.6
3162.005	184.6
3165.157	189.6
3168.306	187.6
3171.453	194.6
3174.597	192.6
3177.739	197.6
3180.878	193.6
3184.014	189.6
3187.149	192.6
3190.28	200.6
3193.409	200.6
3196.536	190.6
3199.659	200.6
3202.781	202.6
3205.9	189.6
3209.016	192.6
3212.13	192.6
3215.241	190.6
3218.35	188.6
3221.456	192.6
3224.56	188.6
3227.661	181.6
3230.76	179.6
3233.856	187.6
3236.95	175.6
3240.041	167.6
3243.13	165.6
3246.216	160.6
3249.3	154.6
3252.382	163.6
3255.46	153.6
3258.537	162.6
3261.611	157.6
3264.682	158.6
3267.751	153.6
3270.818	145.6
3273.882	154.6
3276.943	142.6
3280.002	150.6
3283.059	145.6
3286.113	142.6
3289.165	142.6
3292.214	136.6
3295.261	146.6
3298.306	131.6
3301.348	140.6
3304.387	132.6
3307.425	135.6
3310.459	131.6
3313.492	133.6
3316.521	127.6
3319.549	139.6
3322.574	136.6
3325.597	131.6
3328.617	138.6
3331.635	134.6
3334.65	140.6
3337.663	124.6
3340.674	131.6
3343.682	134.6
3346.688	131.6
3349.691	133.6
3352.692	140.6
3355.691	144.6
3358.687	135.6
3361.681	123.6
3364.673	134.6
3367.662	127.6
3370.649	124.6
3373.633	124.6
3376.615	121.6
3379.595	115.6
3382.572	112.6
3385.547	115.6
3388.52	109.6
3391.49	106.6
3394.458	103.6
3397.424	107.6
3400.387	106.6
3403.348	102.6
3406.307	99.6
3409.263	103.6
3412.217	102.6
3415.168	110.6
3418.118	99.6
3421.065	98.6
3424.009	90.6
3426.951	86.6
3429.891	87.6
3432.829	79.6
3435.764	82.6
3438.697	84.6
3441.628	70.6
3444.557	70.6
3447.483	74.6
3450.407	62.6
3453.328	66.6
3456.247	62.6
3459.164	61.6
3462.079	47.6
3464.991	53.6
3467.902	53.6
3470.809	56.6
3473.715	49.6
3476.618	43.6
3479.519	38.6
3482.418	38.6
3485.315	35.6
3488.209	28.6
3491.101	21.6
3493.99	31.6
3496.878	19.6
3499.763	15.6
3502.646	15.6
3505.527	21.6
3508.405	15.6
3511.281	10.6
3514.155	5.6
3517.027	4.6
3519.897	9.6
3522.764	9.6
3525.629	2.6
3528.492	2.6
3531.352	-5.4
3534.211	-3.4
3537.067	-2.4
3539.921	1.6
3542.773	-13.4
3545.622	-9.4
3548.469	-11.4
3551.315	-10.4
3554.157	-17.4
3556.998	-14.4
3559.837	-14.4
3562.673	-14.4
3565.507	-17.4
3568.339	-16.4
3571.169	-19.4
3573.996	-15.4
3576.822	-26.4
3579.645	-28.4
3582.466	-26.4
3585.285	-20.4
3588.101	-24.4
3590.916	-20.4
3593.728	-27.4
3596.538	-31.4
3599.346	-28.4
3602.152	-28.4
3604.956	-27.4
3607.757	-27.4
3610.556	-34.4
3613.354	-36.4
3616.149	-35.4
3618.942	-29.4
3621.732	-39.4
3624.521	-32.4
3627.307	-37.4
3630.092	-39.4
3632.874	-39.4
3635.654	-38.4
3638.432	-35.4
3641.208	-35.4
3643.982	-36.4
3646.753	-39.4
3649.523	-33.4
3652.29	-44.4
3655.055	-36.4
3657.818	-39.4
3660.579	-39.4
3663.338	-37.4
3666.095	-44.4
3668.849	-43.4
3671.602	-45.4
3674.352	-41.4
3677.101	-43.4
3679.847	-43.4
3682.591	-49.4
3685.333	-43.4
3688.073	-51.4
3690.811	-44.4
3693.547	-51.4
3696.281	-45.4
3699.013	-44.4
3701.742	-48.4
3704.47	-41.4
3707.195	-39.4
3709.919	-44.4
3712.64	-42.4
3715.359	-49.4
3718.076	-49.4
3720.792	-46.4
3723.505	-50.4
3726.216	-44.4
3728.925	-51.4
3731.632	-48.4
3734.336	-49.4
3737.039	-52.4
3739.74	-54.4
3742.439	-57.4
3745.136	-51.4
3747.83	-52.4
3750.523	-54.4
3753.213	-53.4
3755.902	-50.4
3758.589	-50.4
3761.273	-45.4
3763.956	-53.4
3766.636	-49.4
3769.315	-44.4
3771.991	-50.4
3774.665	-53.4
3777.338	-50.4
3780.008	-51.4
3782.677	-54.4
3785.343	-50.4
3788.007	-54.4
3790.67	-52.4
3793.33	-53.4
3795.989	-52.4
3798.645	-58.4
3801.299	-50.4
3803.952	-55.4
3806.602	-54.4
3809.251	-55.4
3811.897	-56.4
3814.542	-62.4
3817.184	-51.4
3819.825	-46.4
3822.463	-55.4
3825.1	-46.4
3827.735	-52.4
3830.367	-51.4
3832.998	-51.4
3835.627	-53.4
3838.253	-48.4
3840.878	-46.4
3843.501	-46.4
3846.122	-58.4
3848.741	-58.4
3851.358	-50.4
3853.973	-48.4
3856.586	-51.4
3859.197	-51.4
3861.806	-56.4
3864.414	-51.4
3867.019	-55.4
3869.622	-43.4
3872.224	-37.4
3874.823	-27.4
3877.421	-26.4
3880.016	-10.4
3882.61	3.6
3885.202	-5.4
3887.792	-7.4
3890.38	-30.4
3892.966	-40.4
3895.55	-47.4
3898.132	-52.4
3900.713	-60.4
3903.291	-58.4
3905.868	-57.4
3908.442	-56.4
3911.015	-54.4
3913.586	-59.4
3916.155	-54.4
3918.722	-53.4
3921.287	-51.4
3923.85	-46.4
3926.411	-52.4
3928.971	-60.4
3931.528	-52.4
3934.084	-49.4
3936.638	-45.4
3939.19	-61.4
3941.74	-48.4
3944.288	-51.4
3946.834	-53.4
3949.378	-54.4
3951.921	-57.4
3954.462	-53.4
3957	-51.4
3959.537	-45.4
3962.072	-52.4
3964.606	-49.4
3967.137	-55.4
3969.667	-59.4
3972.194	-47.4
3974.72	-47.4
3977.244	-46.4
3979.766	-53.4
3982.286	-52.4
3984.805	-62.4
3987.321	-52.4
3989.836	-48.4
3992.349	-49.4
3994.86	-51.4
3997.369	-50.4
3999.877	-51.4
4002.382	-53.4
4004.886	-52.4
4007.388	-53.4
4009.888	-53.4
4012.386	-54.4
4014.883	-53.4
4017.377	-55.4
4019.87	-52.4
4022.361	-57.4
4024.85	-49.4
4027.338	-59.4
4029.823	-52.4
4032.307	-56.4
4034.789	-51.4
4037.269	-50.4
4039.747	-52.4
4042.224	-50.4
4044.699	-52.4
4047.172	-59.4
4049.643	-52.4
4052.112	-51.4
4054.58	-51.4
4057.046	-46.4
4059.51	-56.4
4061.972	-59.4
4064.432	-49.4
4066.891	-52.4
4069.348	-51.4
4071.803	-50.4
4074.256	-53.4
4076.708	-55.4
4079.158	-55.4
4081.606	-54.4
4084.052	-57.4
4086.497	-48.4
4088.939	-51.4
4091.38	-54.4
4093.819	-57.4
4096.257	-53.4
4098.693	-55.4
4101.127	-47.4
4103.559	-53.4
4105.989	3.6
4108.418	5.6
4110.845	0.6
4113.27	6.6
4115.694	13.6
4118.115	4.6
4120.535	-52.4
4122.954	-49.4
4125.37	-49.4
4127.785	-48.4
4130.198	-50.4
4132.609	-56.4
4135.019	-55.4
4137.427	-59.4
4139.833	-53.4
4142.237	-56.4
